
 $NMID
 id='ANONYMOUS ', fmtdat='(2E16.6)'
 volume=1.0
 tramp=1.0
 $END
   3.530971e+07   7.135500e+05
   2.155046e+07   1.969035e+07
  -3.086049e+06   2.278907e+07
  -1.614812e+07   1.135310e+07
  -1.102284e+07  -1.675290e+06
   7.984671e+05  -5.845719e+06
   6.344759e+06  -1.039973e+06
   3.316556e+06   5.691369e+06
  -2.685006e+06   7.458058e+06
  -6.134529e+06   2.643109e+06
  -5.006700e+06  -4.201658e+06
  -6.628055e+05  -6.350519e+06
   2.980709e+06  -1.660798e+06
   2.294093e+06   4.664424e+06
  -2.085498e+06   5.533767e+06
  -5.300385e+06  -1.417801e+05
  -3.488801e+06  -6.615744e+06
   2.041830e+06  -7.998441e+06
   6.587256e+06  -3.869956e+06
   6.878474e+06   1.764157e+06
   3.514498e+06   4.998296e+06
  -2.222696e+05   4.790101e+06
  -1.232995e+06   2.852599e+06
   6.478700e+05   1.866647e+06
   2.128886e+06   2.952843e+06
  -1.673916e+05   4.329404e+06
  -5.202830e+06   3.270485e+06
  -7.867119e+06  -3.442472e+05
  -4.906942e+06  -3.535367e+06
   8.673494e+05  -3.669090e+06
   3.825406e+06  -1.242361e+06
   1.945892e+06   1.233796e+06
  -1.730883e+06   1.866311e+06
  -3.384988e+06   3.256862e+05
  -2.166479e+06  -2.345237e+06
   2.308553e+05  -3.908739e+06
   1.818058e+06  -2.429295e+06
   1.621732e+06   1.023631e+06
   1.614797e+05   2.561639e+06
  -7.596795e+05   1.789381e+05
   2.140225e+05  -2.935105e+06
   2.005371e+06  -2.198335e+06
   1.943581e+06   1.876356e+06
  -7.788872e+05   3.905303e+06
  -3.517951e+06   7.931892e+05
  -2.991873e+06  -4.069115e+06
   8.878067e+05  -5.188430e+06
   4.810443e+06  -1.561999e+06
   5.370404e+06   2.929375e+06
   2.086176e+06   4.443085e+06
  -2.374852e+06   2.578798e+06
  -4.422385e+06  -4.664636e+05
  -2.534544e+06  -2.272958e+06
   1.245348e+06  -1.746665e+06
   3.144916e+06   2.643058e+05
   1.601967e+06   1.612392e+06
  -1.062284e+06   9.761440e+05
  -1.573531e+06  -6.021958e+05
   2.806781e+05  -1.029199e+06
   1.668334e+06   1.841243e+05
   4.960088e+05   1.492713e+06
  -2.105533e+06   1.383548e+06
  -3.348021e+06  -1.776426e+05
  -1.824887e+06  -2.288892e+06
   1.459926e+06  -3.858779e+06
   4.287481e+06  -3.651012e+06
   4.900201e+06  -1.012921e+06
   3.128299e+06   2.734945e+06
   5.154024e+05   4.805113e+06
  -9.789734e+05   3.857515e+06
  -8.609562e+05   1.640969e+06
  -4.441544e+05   7.192426e+05
  -1.049234e+06   1.223297e+06
  -2.317610e+06   1.116593e+06
  -2.759981e+06  -6.179558e+05
  -1.595424e+06  -2.458994e+06
   4.652815e+05  -2.334171e+06
   1.972700e+06  -1.466400e+05
   1.807028e+06   2.203332e+06
  -1.152422e+05   2.770330e+06
  -2.532060e+06   1.161390e+06
  -3.493980e+06  -1.363835e+06
  -2.133322e+06  -2.999461e+06
   2.382419e+05  -2.869243e+06
   1.517363e+06  -1.694091e+06
   1.314807e+06  -8.687069e+05
   1.243554e+06  -8.466622e+05
   2.461272e+06  -7.509864e+05
   3.823236e+06   3.623246e+05
   3.215840e+06   2.262518e+06
   2.921803e+05   3.728143e+06
  -2.890471e+06   3.644565e+06
  -3.943199e+06   1.846616e+06
  -2.403728e+06  -6.646324e+05
   4.728193e+04  -2.196913e+06
   1.258959e+06  -1.668219e+06
   4.921800e+05   1.486419e+05
  -1.074799e+06   1.177824e+06
  -1.645103e+06   3.576902e+05
  -6.919576e+05  -1.036489e+06
   5.569925e+05  -1.059365e+06
   6.137739e+05   2.737798e+05
  -5.619903e+05   9.633914e+05
  -1.614781e+06  -3.304577e+05
  -1.309143e+06  -2.521434e+06
   3.640217e+05  -3.374736e+06
   2.369517e+06  -1.960588e+06
   3.423260e+06   6.114911e+05
   2.749888e+06   2.487634e+06
   7.082735e+05   2.639430e+06
  -1.199775e+06   1.441720e+06
  -1.534810e+06   1.904990e+05
  -4.583729e+05  -2.752657e+04
   3.612137e+05   6.732122e+05
  -2.679445e+05   1.145798e+06
  -1.571060e+06   5.570491e+05
  -1.797904e+06  -6.091707e+05
  -4.629299e+05  -1.157953e+06
   1.011340e+06  -6.059237e+05
   9.603769e+05   3.555708e+05
  -6.439561e+05   7.103101e+05
  -2.172271e+06   6.908201e+04
  -1.990616e+06  -1.142652e+06
  -3.762962e+04  -2.031515e+06
   2.090771e+06  -1.791582e+06
   2.588042e+06  -4.065386e+05
   1.138932e+06   1.053260e+06
  -7.594728e+05   1.281811e+06
  -1.289390e+06   1.727211e+05
  -1.277215e+05  -9.214310e+05
   1.350572e+06  -6.948976e+05
   1.616583e+06   5.915024e+05
   4.996667e+05   1.479413e+06
  -8.432009e+05   1.060004e+06
  -1.188492e+06  -7.278422e+04
  -3.679245e+05  -6.393686e+05
   6.505096e+05  -8.916675e+04
   6.753262e+05   9.347819e+05
  -5.294645e+05   1.316650e+06
  -1.862872e+06   5.172981e+05
  -1.894999e+06  -9.371301e+05
  -4.166440e+05  -1.885130e+06
   1.226583e+06  -1.557489e+06
   1.559712e+06  -3.032666e+05
   5.451091e+05   7.474430e+05
  -5.462987e+05   7.965278e+05
  -6.620632e+05   9.535111e+04
   1.311121e+04  -4.679321e+05
   5.412962e+05  -3.705671e+05
   3.492206e+05   6.290378e+04
  -2.737165e+05   1.248238e+05
  -5.502079e+05  -4.359981e+05
   4.016276e+04  -1.064944e+06
   1.205191e+06  -9.044418e+05
   1.942030e+06   2.918297e+05
   1.416072e+06   1.747570e+06
  -1.180110e+05   2.290012e+06
  -1.457812e+06   1.477104e+06
  -1.671442e+06   3.836751e+04
  -1.004635e+06  -8.784254e+05
  -4.053831e+05  -8.288494e+05
  -3.493808e+05  -3.558034e+05
  -4.359722e+05  -2.374594e+05
  -7.533801e+04  -6.135285e+05
   7.313138e+05  -8.914817e+05
   1.357227e+06  -4.410197e+05
   1.122198e+06   6.477399e+05
  -8.899210e+04   1.487173e+06
  -1.569443e+06   1.155303e+06
  -2.162185e+06  -3.390968e+05
  -1.200621e+06  -1.882761e+06
   7.451834e+05  -2.213544e+06
   2.233670e+06  -1.119522e+06
   2.253946e+06   3.977257e+05
   1.113031e+06   1.182297e+06
  -4.109961e+04   1.025024e+06
  -4.309468e+05   6.444850e+05
  -2.443866e+05   7.170928e+05
  -1.662447e+05   1.116449e+06
  -5.622866e+05   1.128267e+06
  -1.138659e+06   3.010560e+05
  -1.256283e+06  -9.809531e+05
  -5.666861e+05  -1.760216e+06
   5.512605e+05  -1.364545e+06
   1.208879e+06  -6.691636e+04
   8.261666e+05   1.108326e+06
  -2.260212e+05   1.291955e+06
  -9.463940e+05   5.116421e+05
  -7.412642e+05  -4.552443e+05
  -2.439953e+04  -8.945906e+05
   3.227790e+05  -7.456892e+05
  -4.234233e+03  -4.419168e+05
  -3.933873e+05  -3.361960e+05
  -5.292868e+04  -3.726968e+05
   1.010660e+06  -2.463845e+05
   1.860024e+06   2.216769e+05
   1.534898e+06   8.631403e+05
   9.217455e+04   1.257304e+06
  -1.342907e+06   1.069614e+06
  -1.650921e+06   3.806684e+05
  -8.095931e+05  -3.065005e+05
   1.849153e+05  -4.754902e+05
   4.363392e+05  -9.354618e+04
  -5.265221e+03   3.251885e+05
  -4.474363e+05   2.404414e+05
  -4.469603e+05  -3.083969e+05
  -1.748084e+05  -7.068934e+05
  -2.214064e+04  -4.635948e+05
  -1.261653e+05   1.566987e+05
  -3.094889e+05   3.695521e+05
  -2.816658e+05  -1.963095e+05
   1.395904e+05  -9.653284e+05
   8.056311e+05  -1.008731e+06
   1.173803e+06  -1.322495e+05
   7.228447e+05   8.479497e+05
  -3.651600e+05   9.962811e+05
  -1.119424e+06   2.612824e+05
  -6.955773e+05  -5.435184e+05
   6.105033e+05  -6.442384e+05
   1.522343e+06  -1.787543e+04
   1.084802e+06   7.343765e+05
  -3.233843e+05   1.003139e+06
  -1.394383e+06   6.261156e+05
  -1.232767e+06  -6.131353e+04
  -1.914868e+05  -4.919568e+05
   5.838925e+05  -3.140101e+05
   3.376881e+05   2.408778e+05
  -5.799763e+05   4.734033e+05
  -1.115690e+06  -1.043534e+05
  -5.952840e+05  -1.134324e+06
   5.980363e+05  -1.601270e+06
   1.422040e+06  -8.285679e+05
   1.207868e+06   7.084567e+05
   2.376434e+05   1.706708e+06
  -6.540899e+05   1.291094e+06
  -8.879044e+05  -8.319841e+04
  -4.990492e+05  -1.098044e+06
   1.020352e+05  -9.523846e+05
   5.040359e+05  -1.234396e+05
   5.052345e+05   3.466417e+05
   2.173740e+05   1.342453e+05
   1.880994e+04  -1.055838e+05
   1.882875e+05   2.451307e+05
   4.800492e+05   8.866928e+05
   2.834379e+05   1.016540e+06
  -5.854710e+05   3.964037e+05
  -1.422577e+06  -3.940975e+05
  -1.301247e+06  -7.418561e+05
  -2.027987e+05  -6.411610e+05
   8.499913e+05  -4.262256e+05
   9.432676e+05  -2.272566e+05
   2.926362e+05   1.418835e+04
  -1.526936e+05   2.156579e+05
   4.082466e+04   2.164267e+05
   3.264390e+05   1.069102e+05
   2.635425e+04   1.333453e+05
  -6.950995e+05   2.285534e+05
  -9.857366e+05  -3.905986e+03
  -3.297461e+05  -6.485799e+05
   8.335860e+05  -1.107676e+06
   1.551791e+06  -7.050331e+05
   1.272340e+06   4.213543e+05
   2.736170e+05   1.338692e+06
  -6.762565e+05   1.297075e+06
  -9.853067e+05   4.927651e+05
  -6.416126e+05  -2.369056e+05
  -1.081559e+05  -3.394933e+05
   1.261746e+05  -3.692573e+04
  -4.855886e+04   5.714169e+04
  -3.197505e+05  -3.160447e+05
  -2.796547e+05  -7.534768e+05
   1.673074e+05  -6.358835e+05
   6.669134e+05   1.363814e+05
   6.942754e+05   9.279626e+05
   6.838075e+04   9.779668e+05
  -7.518905e+05   2.032697e+05
  -9.877883e+05  -7.114663e+05
  -3.185066e+05  -1.025625e+06
   6.746982e+05  -6.179157e+05
   1.034569e+06   6.438817e+04
   4.781558e+05   5.328427e+05
  -2.602383e+05   5.958145e+05
  -3.050194e+05   3.363802e+05
   2.893825e+05   1.264953e+04
   6.287053e+05  -4.773133e+04
   1.268261e+05   2.810057e+05
  -7.623970e+05   6.700495e+05
  -1.126329e+06   5.732056e+05
  -6.667006e+05  -1.176839e+05
   7.768735e+04  -8.050198e+05
   4.599047e+05  -7.943258e+05
   3.545892e+05  -1.173943e+05
   3.982667e+04   4.779966e+05
  -2.302186e+05   3.921548e+05
  -3.481997e+05  -1.749621e+05
  -2.479090e+05  -5.429849e+05
   5.932334e+04  -3.664383e+05
   3.727547e+05   5.281129e+04
   4.349606e+05   2.250972e+05
   2.259403e+05   5.694946e+04
  -6.556472e+03  -1.100440e+05
  -6.463921e+04   3.436351e+04
  -3.721888e+04   3.751417e+05
  -1.320800e+05   4.890100e+05
  -3.405485e+05   1.377149e+05
  -3.932346e+05  -4.126484e+05
  -8.569729e+04  -6.314531e+05
   4.057836e+05  -2.897661e+05
   6.112878e+05   2.839133e+05
   2.346416e+05   5.591270e+05
  -4.591843e+05   3.490058e+05
  -8.143519e+05  -7.538676e+04
  -4.493241e+05  -3.494748e+05
   2.748143e+05  -3.522561e+05
   5.950650e+05  -1.877786e+05
   2.028961e+05  -9.543950e+03
  -3.818085e+05   4.657741e+04
  -4.160726e+05  -9.644385e+04
   1.862148e+05  -3.170900e+05
   7.627130e+05  -2.858606e+05
