
 $NMID
 id='ANONYMOUS ', fmtdat='(2E16.6)'
 volume=1.0
 tramp=1.0
 $END
  -3.619505e+07  -9.299088e+05
  -2.205369e+07  -2.070998e+07
   3.508716e+06  -2.362143e+07
   1.697474e+07  -1.129549e+07
   1.138304e+07   2.236145e+06
  -1.050538e+06   6.090112e+06
  -6.625942e+06   7.629064e+05
  -3.178170e+06  -6.038153e+06
   3.087675e+06  -7.505098e+06
   6.404908e+06  -2.469342e+06
   5.002171e+06   4.363069e+06
   5.377235e+05   6.414804e+06
  -3.017186e+06   1.656644e+06
  -2.156027e+06  -4.687407e+06
   2.315082e+06  -5.492936e+06
   5.434985e+06   3.079494e+05
   3.412739e+06   6.835074e+06
  -2.250799e+06   8.124791e+06
  -6.770045e+06   3.867000e+06
  -6.995154e+06  -1.817919e+06
  -3.625564e+06  -5.079900e+06
   1.439460e+05  -4.957679e+06
   1.314239e+06  -3.080901e+06
  -3.886362e+05  -2.008400e+06
  -1.863502e+06  -2.918702e+06
   2.698834e+05  -4.189424e+06
   5.154324e+06  -3.132245e+06
   7.791376e+06   4.438159e+05
   4.886930e+06   3.579307e+06
  -8.151115e+05   3.637836e+06
  -3.719698e+06   1.205483e+06
  -1.861185e+06  -1.140248e+06
   1.690581e+06  -1.645913e+06
   3.214484e+06  -1.789797e+05
   2.000337e+06   2.283344e+06
  -2.799641e+05   3.773541e+06
  -1.799703e+06   2.428179e+06
  -1.650217e+06  -9.159374e+05
  -2.482813e+05  -2.538912e+06
   6.794643e+05  -2.991560e+05
  -2.743359e+05   2.795882e+06
  -2.061359e+06   2.107044e+06
  -1.932600e+06  -1.988685e+06
   9.344976e+05  -4.044478e+06
   3.740767e+06  -8.191642e+05
   3.087540e+06   4.223278e+06
  -9.814331e+05   5.359240e+06
  -4.930826e+06   1.549459e+06
  -5.344073e+06  -3.094280e+06
  -1.937777e+06  -4.547735e+06
   2.491359e+06  -2.498428e+06
   4.418253e+06   6.540816e+05
   2.439176e+06   2.413227e+06
  -1.358974e+06   1.756060e+06
  -3.210744e+06  -3.604337e+05
  -1.586786e+06  -1.712340e+06
   1.111209e+06  -9.829216e+05
   1.550333e+06   6.704214e+05
  -4.009950e+05   1.032996e+06
  -1.757888e+06  -3.335424e+05
  -4.233746e+05  -1.686384e+06
   2.291025e+06  -1.430175e+06
   3.474158e+06   3.032180e+05
   1.815843e+06   2.415635e+06
  -1.522635e+06   3.848305e+06
  -4.315045e+06   3.550744e+06
  -4.894016e+06   9.426621e+05
  -3.103493e+06  -2.748454e+06
  -4.368714e+05  -4.806534e+06
   1.121619e+06  -3.846641e+06
   9.894716e+05  -1.571400e+06
   4.716724e+05  -5.893987e+05
   9.787115e+05  -1.094992e+06
   2.208395e+06  -1.046979e+06
   2.646094e+06   6.140243e+05
   1.497380e+06   2.391136e+06
  -4.947615e+05   2.232620e+06
  -1.896625e+06   7.036576e+04
  -1.681563e+06  -2.205511e+06
   1.843981e+05  -2.713710e+06
   2.511653e+06  -1.105224e+06
   3.444194e+06   1.390781e+06
   2.107517e+06   3.018622e+06
  -2.550573e+05   2.899714e+06
  -1.559167e+06   1.719822e+06
  -1.377321e+06   8.631043e+05
  -1.296525e+06   7.959107e+05
  -2.477740e+06   6.518548e+05
  -3.781022e+06  -4.874492e+05
  -3.110690e+06  -2.343580e+06
  -1.695528e+05  -3.690859e+06
   2.954510e+06  -3.501996e+06
   3.919136e+06  -1.710480e+06
   2.340339e+06   6.954753e+05
  -8.641518e+04   2.136101e+06
  -1.261078e+06   1.606974e+06
  -4.806527e+05  -1.490784e+05
   1.083410e+06  -1.130689e+06
   1.642298e+06  -3.125230e+05
   6.712282e+05   1.041710e+06
  -5.743637e+05   1.023777e+06
  -5.833719e+05  -3.036458e+05
   6.321771e+05  -9.238511e+05
   1.627345e+06   4.429508e+05
   1.181718e+06   2.613485e+06
  -5.669499e+05   3.338939e+06
  -2.477519e+06   1.798480e+06
  -3.347383e+06  -7.839254e+05
  -2.576085e+06  -2.561734e+06
  -5.842851e+05  -2.608745e+06
   1.220852e+06  -1.372775e+06
   1.508299e+06  -1.410646e+05
   4.507529e+05   4.250569e+04
  -3.357210e+05  -6.763258e+05
   3.016828e+05  -1.135436e+06
   1.582055e+06  -5.119090e+05
   1.772272e+06   6.668367e+05
   4.217407e+05   1.174586e+06
  -1.023402e+06   5.671768e+05
  -9.279068e+05  -3.877500e+05
   6.744539e+05  -6.662270e+05
   2.139946e+06   3.317555e+04
   1.896170e+06   1.207199e+06
  -5.448063e+04   1.992500e+06
  -2.124268e+06   1.681329e+06
  -2.564144e+06   3.105785e+05
  -1.095656e+06  -1.082178e+06
   7.883940e+05  -1.255784e+06
   1.290216e+06  -1.406597e+05
   1.098485e+05   9.167773e+05
  -1.355069e+06   6.482940e+05
  -1.579176e+06  -6.418193e+05
  -4.348180e+05  -1.485158e+06
   8.841462e+05  -1.013931e+06
   1.177519e+06   1.266935e+05
   3.366781e+05   6.558602e+05
  -6.520989e+05   7.268573e+04
  -6.421292e+05  -9.400544e+05
   5.559961e+05  -1.280494e+06
   1.846452e+06  -4.557900e+05
   1.838825e+06   9.787561e+05
   3.527033e+05   1.873415e+06
  -1.263862e+06   1.499884e+06
  -1.553920e+06   2.448320e+05
  -5.113726e+05  -7.623390e+05
   5.692200e+05  -7.684831e+05
   6.501962e+05  -7.020560e+04
  -3.909001e+04   4.523655e+05
  -5.416251e+05   3.300852e+05
  -3.197512e+05  -8.065172e+04
   2.933831e+05  -1.022043e+05
   5.291330e+05   4.646554e+05
  -8.263220e+04   1.055225e+06
  -1.220953e+06   8.511144e+05
  -1.904415e+06  -3.512318e+05
  -1.340058e+06  -1.766736e+06
   1.917723e+05  -2.249026e+06
   1.488662e+06  -1.397563e+06
   1.643043e+06   3.036180e+04
   9.405103e+05   8.995572e+05
   3.529298e+05   8.119946e+05
   3.340066e+05   3.414103e+05
   4.370418e+05   2.434763e+05
   6.090298e+04   6.126095e+05
  -7.547374e+05   8.525758e+05
  -1.350736e+06   3.800611e+05
  -1.070146e+06  -6.775838e+05
   1.500098e+05  -1.452683e+06
   1.585416e+06  -1.076691e+06
   2.113872e+06   4.088778e+05
   1.116658e+06   1.898737e+06
  -8.141465e+05   2.163362e+06
  -2.248334e+06   1.028506e+06
  -2.209532e+06  -4.791360e+05
  -1.043142e+06  -1.211593e+06
   9.072350e+04  -1.000765e+06
   4.441153e+05  -6.022547e+05
   2.460403e+05  -6.882756e+05
   1.846603e+05  -1.098902e+06
   5.878750e+05  -1.102782e+06
   1.134557e+06  -2.660298e+05
   1.207276e+06   1.003406e+06
   5.025098e+05   1.749727e+06
  -5.850091e+05   1.325049e+06
  -1.193035e+06   2.455993e+04
  -7.785177e+05  -1.124576e+06
   2.714731e+05  -1.271222e+06
   9.640550e+05  -4.704499e+05
   7.262838e+05   4.855927e+05
  -9.047747e+03   8.965215e+05
  -3.553366e+05   7.310109e+05
  -1.888425e+04   4.340933e+05
   3.760539e+05   3.392751e+05
   4.024800e+04   3.658654e+05
  -1.007947e+06   2.108421e+05
  -1.830979e+06  -2.764806e+05
  -1.486274e+06  -9.030888e+05
  -4.744992e+04  -1.251960e+06
   1.363319e+06  -1.019088e+06
   1.645294e+06  -3.184728e+05
   7.920887e+05   3.400889e+05
  -1.980152e+05   4.696769e+05
  -4.381520e+05   7.561807e+04
   8.880746e+03  -3.234610e+05
   4.440787e+05  -2.209119e+05
   4.307199e+05   3.173655e+05
   1.545894e+05   6.937209e+05
   1.336073e+04   4.514081e+05
   1.320551e+05  -1.438351e+05
   3.146567e+05  -3.429106e+05
   2.690234e+05   2.033009e+05
  -1.667121e+05   9.389065e+05
  -8.235625e+05   9.679250e+05
  -1.163436e+06   1.042301e+05
  -6.923945e+05  -8.503663e+05
   3.859100e+05  -9.753756e+05
   1.109422e+06  -2.318661e+05
   6.661108e+05   5.540854e+05
  -6.249307e+05   6.139291e+05
  -1.498355e+06  -3.893111e+04
  -1.034641e+06  -7.673846e+05
   3.631472e+05  -9.753966e+05
   1.398110e+06  -5.582778e+05
   1.208063e+06   1.110176e+05
   1.671899e+05   4.913553e+05
  -5.882982e+05   2.873620e+05
  -3.289874e+05  -2.482048e+05
   5.791798e+05  -4.482374e+05
   1.090663e+06   1.320025e+05
   5.539057e+05   1.126781e+06
  -6.295103e+05   1.552666e+06
  -1.417677e+06   7.712569e+05
  -1.163127e+06  -7.326684e+05
  -1.780139e+05  -1.683282e+06
   6.878448e+05  -1.243949e+06
   8.722063e+05   1.163315e+05
   4.505537e+05   1.099846e+06
  -1.398074e+05   9.340217e+05
  -5.030754e+05   1.039334e+05
  -4.800820e+05  -3.592628e+05
  -2.032720e+05  -1.410388e+05
  -2.518580e+04   1.031949e+05
  -1.871247e+05  -2.450007e+05
  -4.471787e+05  -8.867703e+05
  -2.387408e+05  -1.012230e+06
   5.963582e+05  -3.749376e+05
   1.384520e+06   4.342929e+05
   1.249162e+06   7.759668e+05
   1.785981e+05   6.384663e+05
  -8.438501e+05   3.880087e+05
  -9.340489e+05   1.893864e+05
  -2.936539e+05  -2.326787e+04
   1.548307e+05  -2.062279e+05
  -2.464382e+04  -2.155863e+05
  -3.083069e+05  -1.166412e+05
  -2.398923e+04  -1.292712e+05
   6.814847e+05  -1.997155e+05
   9.678868e+05   3.230876e+04
   3.137471e+05   6.416742e+05
  -8.452239e+05   1.061530e+06
  -1.547982e+06   6.518932e+05
  -1.242058e+06  -4.445929e+05
  -2.282941e+05  -1.321023e+06
   7.052798e+05  -1.256552e+06
   9.802145e+05  -4.576703e+05
   6.192932e+05   2.498278e+05
   9.860498e+04   3.347658e+05
  -1.166932e+05   3.186520e+04
   5.477247e+04  -5.189831e+04
   3.028363e+05   3.246227e+05
   2.489356e+05   7.510879e+05
  -1.817469e+05   6.201755e+05
  -6.466686e+05  -1.512901e+05
  -6.539998e+05  -9.264657e+05
  -4.408837e+04  -9.586448e+05
   7.370059e+05  -1.793714e+05
   9.461816e+05   7.228852e+05
   2.851789e+05   1.014875e+06
  -6.776656e+05   5.897294e+05
  -1.015961e+06  -9.133116e+04
  -4.598220e+05  -5.395864e+05
   2.701492e+05  -5.829467e+05
   3.137952e+05  -3.262887e+05
  -2.769426e+05  -2.376807e+04
  -6.169482e+05   2.705699e+04
  -1.184642e+05  -2.795866e+05
   7.705425e+05  -6.339051e+05
   1.132323e+06  -5.277365e+05
   6.601140e+05   1.364546e+05
  -9.921245e+04   7.903891e+05
  -4.795606e+05   7.720308e+05
  -3.542941e+05   1.123605e+05
  -2.534166e+04  -4.663852e+05
   2.350215e+05  -3.801711e+05
   3.325423e+05   1.781756e+05
   2.273364e+05   5.403169e+05
  -6.485891e+04   3.615326e+05
  -3.631593e+05  -6.111453e+04
  -4.247561e+05  -2.366599e+05
  -2.226252e+05  -6.597426e+04
   8.515102e+03   1.101567e+05
   7.083153e+04  -2.397555e+04
   4.386677e+04  -3.590113e+05
   1.311483e+05  -4.741614e+05
   3.288278e+05  -1.311920e+05
   3.754691e+05   4.066963e+05
   7.268966e+04   6.153893e+05
  -4.031509e+05   2.725635e+05
  -5.923694e+05  -2.918919e+05
  -2.142220e+05  -5.524401e+05
   4.626385e+05  -3.305490e+05
   7.987607e+05   9.457067e+04
   4.320238e+05   3.558246e+05
  -2.778960e+05   3.413082e+05
  -5.881776e+05   1.717350e+05
  -2.028741e+05   6.844045e+03
   3.680911e+05  -3.385771e+04
   3.994516e+05   1.037197e+05
  -1.908166e+05   2.991341e+05
  -7.506722e+05   2.519525e+05
