
 $NMID
 id='ANONYMOUS ', fmtdat='(2E16.6)'
 volume=1.0
 tramp=1.0
 $END
  -2.254875e+07   1.750737e+06
  -1.647779e+07  -8.882626e+06
  -1.763703e+06  -1.434386e+07
   9.045546e+06  -1.109875e+07
   8.766814e+06  -2.230287e+06
   1.189487e+06   4.252224e+06
  -4.771244e+06   2.894254e+06
  -4.279659e+06  -3.484038e+06
   4.642815e+05  -6.978962e+06
   4.268484e+06  -3.530077e+06
   4.073749e+06   2.815619e+06
   7.742296e+05   5.028815e+06
  -2.249672e+06   1.100095e+06
  -2.098992e+06  -4.252499e+06
   1.073224e+06  -5.218027e+06
   3.997464e+06  -9.037431e+05
   3.394138e+06   4.404011e+06
  -5.386531e+05   5.988574e+06
  -4.218365e+06   3.089108e+06
  -4.504058e+06  -1.085176e+06
  -1.937241e+06  -3.025780e+06
   2.019489e+05  -2.272393e+06
  -3.066161e+05  -1.198762e+06
  -2.268134e+06  -1.883630e+06
  -2.498569e+06  -3.728333e+06
   6.109258e+05  -4.358631e+06
   5.008739e+06  -2.458482e+06
   6.649660e+06   7.907410e+05
   3.629460e+06   2.962894e+06
  -1.417705e+06   2.606435e+06
  -3.709845e+06   2.882349e+05
  -1.352874e+06  -1.970451e+06
   2.677660e+06  -2.160726e+06
   4.056252e+06   1.175096e+05
   1.883281e+06   2.993908e+06
  -9.509814e+05   3.725233e+06
  -1.654944e+06   1.495320e+06
  -4.297749e+05  -1.343562e+06
   6.661775e+05  -1.628459e+06
   4.164931e+05   9.074206e+05
  -7.554153e+05   3.123922e+06
  -1.796332e+06   2.158960e+06
  -1.839545e+06  -1.060793e+06
  -5.218356e+05  -2.872703e+06
   1.433901e+06  -1.216326e+06
   2.137535e+06   2.037729e+06
   2.116034e+05   3.354316e+06
  -3.127572e+06   1.396952e+06
  -4.633348e+06  -1.893914e+06
  -2.399056e+06  -3.618664e+06
   1.785431e+06  -2.646206e+06
   4.130871e+06  -1.839810e+05
   2.769007e+06   1.665306e+06
  -5.231357e+05   1.677660e+06
  -2.449853e+06   2.941429e+05
  -1.560264e+06  -9.466805e+05
   6.315403e+05  -8.403837e+05
   1.545671e+06   3.739173e+05
   2.900409e+05   1.303508e+06
  -1.492135e+06   8.676080e+05
  -1.506809e+06  -5.594247e+05
   5.296016e+05  -1.498366e+06
   2.399969e+06  -7.993924e+05
   1.781387e+06   1.241684e+06
  -1.119247e+06   3.029053e+06
  -3.760323e+06   2.922055e+06
  -4.021932e+06   6.470280e+05
  -2.239234e+06  -2.315322e+06
  -3.499040e+05  -3.928081e+06
   4.098576e+05  -3.455092e+06
   4.605079e+05  -2.041647e+06
   8.300878e+05  -1.232162e+06
   1.792006e+06  -1.123344e+06
   2.660286e+06  -4.930677e+05
   2.544908e+06   1.223205e+06
   1.149101e+06   2.758240e+06
  -8.840937e+05   2.346185e+06
  -2.229981e+06  -3.742720e+04
  -1.791531e+06  -2.375103e+06
   2.520745e+05  -2.651677e+06
   2.341114e+06  -8.218564e+05
   2.825024e+06   1.405184e+06
   1.515721e+06   2.406825e+06
  -1.994037e+05   1.998830e+06
  -9.172545e+05   1.165067e+06
  -7.331691e+05   8.362326e+05
  -9.441971e+05   1.019630e+06
  -2.246339e+06   9.305796e+05
  -3.568809e+06  -1.417952e+05
  -3.074931e+06  -2.009328e+06
  -3.475186e+05  -3.527047e+06
   2.766497e+06  -3.454963e+06
   3.811110e+06  -1.591602e+06
   2.181409e+06   8.469929e+05
  -3.117786e+05   2.110665e+06
  -1.364580e+06   1.432540e+06
  -4.259440e+05  -2.220270e+05
   1.079828e+06  -1.067436e+06
   1.492035e+06  -3.320573e+05
   5.517704e+05   9.127132e+05
  -6.093822e+05   1.004869e+06
  -7.494255e+05  -2.578039e+05
   3.314415e+05  -1.216306e+06
   1.647504e+06  -2.644599e+05
   1.833200e+06   2.098773e+06
   2.935489e+05   3.590576e+06
  -2.127095e+06   2.566048e+06
  -3.642780e+06  -2.319475e+05
  -3.018888e+06  -2.507927e+06
  -7.742677e+05  -2.733655e+06
   1.217735e+06  -1.394669e+06
   1.507433e+06  -1.228272e+05
   4.394775e+05   2.553881e+04
  -3.593205e+05  -6.356859e+05
   1.709901e+05  -1.045596e+06
   1.372904e+06  -5.642601e+05
   1.690470e+06   4.422827e+05
   5.321186e+05   1.029060e+06
  -9.363996e+05   6.348769e+05
  -1.020222e+06  -3.341423e+05
   5.695598e+05  -8.549416e+05
   2.247323e+06  -2.530326e+05
   2.156319e+06   1.119143e+06
   1.439230e+05   2.131181e+06
  -2.038157e+06   1.857499e+06
  -2.511288e+06   4.451569e+05
  -1.099442e+06  -9.405391e+05
   6.542181e+05  -1.151184e+06
   1.120547e+06  -1.760868e+05
   8.571771e+04   8.101966e+05
  -1.257855e+06   6.609361e+05
  -1.573824e+06  -4.997445e+05
  -5.942695e+05  -1.420805e+06
   7.359800e+05  -1.142734e+06
   1.196661e+06  -5.945718e+04
   4.612181e+05   5.879237e+05
  -5.640799e+05   1.270276e+05
  -6.321249e+05  -8.613993e+05
   5.149219e+05  -1.236813e+06
   1.775780e+06  -4.711009e+05
   1.794649e+06   8.941866e+05
   4.163492e+05   1.781428e+06
  -1.121035e+06   1.506975e+06
  -1.483186e+06   3.470248e+05
  -5.767502e+05  -6.988729e+05
   4.981312e+05  -8.021009e+05
   6.916330e+05  -8.130705e+04
   2.204802e+04   5.617583e+05
  -6.184528e+05   4.512163e+05
  -4.972663e+05  -1.184552e+05
   2.032804e+05  -2.845881e+05
   6.050040e+05   3.043944e+05
   6.030247e+04   1.016094e+06
  -1.118295e+06   9.068461e+05
  -1.864333e+06  -2.452456e+05
  -1.366153e+06  -1.653672e+06
   1.029703e+05  -2.220320e+06
   1.419487e+06  -1.504385e+06
   1.697116e+06  -9.275311e+04
   1.074461e+06   9.352394e+05
   3.944748e+05   9.803945e+05
   2.210104e+05   4.300237e+05
   3.160866e+05   1.590887e+05
   7.535465e+04   5.100730e+05
  -6.628166e+05   8.885089e+05
  -1.333544e+06   4.899289e+05
  -1.160698e+06  -6.511610e+05
   3.922004e+04  -1.534644e+06
   1.523173e+06  -1.188397e+06
   2.123355e+06   2.976365e+05
   1.229381e+06   1.792969e+06
  -6.097158e+05   2.145413e+06
  -2.085832e+06   1.170841e+06
  -2.234916e+06  -2.794281e+05
  -1.212778e+06  -1.152207e+06
  -1.612882e+04  -1.113872e+06
   5.110763e+05  -7.098512e+05
   3.725469e+05  -6.474357e+05
   2.054632e+05  -9.695986e+05
   4.942871e+05  -1.025791e+06
   1.041769e+06  -2.839819e+05
   1.189632e+06   9.404481e+05
   5.417326e+05   1.692632e+06
  -5.357303e+05   1.312913e+06
  -1.175985e+06   8.895276e+04
  -8.367691e+05  -1.022562e+06
   1.370983e+05  -1.251492e+06
   8.427769e+05  -5.992421e+05
   7.328026e+05   3.019760e+05
   1.335506e+05   8.066216e+05
  -1.959676e+05   7.585363e+05
   4.296763e+04   4.806800e+05
   3.527601e+05   3.418132e+05
   3.616246e+04   3.650196e+05
  -9.333951e+05   2.653306e+05
  -1.738045e+06  -1.671647e+05
  -1.487738e+06  -7.811579e+05
  -1.774112e+05  -1.169641e+06
   1.197142e+06  -1.029855e+06
   1.566478e+06  -4.332870e+05
   8.263501e+05   2.019548e+05
  -1.286944e+05   4.220886e+05
  -4.017757e+05   1.357813e+05
   2.125202e+04  -2.501596e+05
   4.565498e+05  -2.087783e+05
   4.186400e+05   2.950801e+05
   9.577186e+04   6.844064e+05
  -4.383150e+04   4.367289e+05
   1.387158e+05  -1.970820e+05
   3.616747e+05  -4.048378e+05
   2.857267e+05   1.817241e+05
  -1.703717e+05   9.441607e+05
  -7.638195e+05   9.596855e+05
  -1.035327e+06   1.020865e+05
  -6.146214e+05  -7.980886e+05
   3.344126e+05  -8.930944e+05
   1.013865e+06  -1.961469e+05
   6.542156e+05   5.417032e+05
  -5.705739e+05   6.400116e+05
  -1.505699e+06   5.504869e+04
  -1.145175e+06  -7.050194e+05
   2.517324e+05  -1.040932e+06
   1.382304e+06  -7.037803e+05
   1.264062e+06   1.615853e+04
   2.194443e+05   4.985240e+05
  -5.609305e+05   3.409021e+05
  -3.084509e+05  -2.038474e+05
   5.836448e+05  -4.155700e+05
   1.056823e+06   1.510774e+05
   5.033311e+05   1.106665e+06
  -6.479910e+05   1.499447e+06
  -1.398826e+06   7.406009e+05
  -1.154939e+06  -7.129183e+05
  -2.121550e+05  -1.664397e+06
   6.447020e+05  -1.285017e+06
   8.820257e+05   4.036787e+04
   5.298040e+05   1.067631e+06
  -4.771431e+04   9.689853e+05
  -4.757203e+05   1.484895e+05
  -5.301768e+05  -3.559145e+05
  -2.553465e+05  -1.563193e+05
  -3.306305e+03   1.214976e+05
  -1.200548e+05  -1.891557e+05
  -4.404952e+05  -8.397286e+05
  -3.288661e+05  -1.009410e+06
   5.033907e+05  -4.085998e+05
   1.386839e+06   3.892032e+05
   1.314311e+06   7.339769e+05
   2.041578e+05   6.111147e+05
  -8.716136e+05   3.936691e+05
  -9.364288e+05   2.318006e+05
  -2.486881e+05   2.333868e+04
   1.666677e+05  -1.989350e+05
  -8.935257e+04  -2.508598e+05
  -3.689062e+05  -1.510674e+05
  -1.181122e+02  -1.272790e+05
   7.332875e+05  -1.784978e+05
   9.395931e+05   2.803499e+04
   2.253527e+05   5.989345e+05
  -8.637970e+05   1.012349e+06
  -1.451791e+06   6.302670e+05
  -1.139873e+06  -4.365649e+05
  -2.249164e+05  -1.298810e+06
   6.431601e+05  -1.227173e+06
   9.440749e+05  -4.244007e+05
   6.176906e+05   2.701732e+05
   7.503437e+04   3.214160e+05
  -1.668274e+05  -1.265736e+04
   3.637421e+04  -9.991397e+04
   3.374673e+05   2.950990e+05
   2.871178e+05   7.336139e+05
  -1.770468e+05   5.956224e+05
  -6.444335e+05  -1.814612e+05
  -6.146156e+05  -9.339858e+05
   9.704563e+03  -9.225895e+05
   7.504602e+05  -1.226761e+05
   9.125503e+05   7.460805e+05
   2.564077e+05   9.802546e+05
  -6.576515e+05   5.414236e+05
  -9.627791e+05  -8.549147e+04
  -4.288892e+05  -4.720118e+05
   2.425841e+05  -5.182892e+05
   2.472598e+05  -3.176780e+05
  -3.265535e+05  -4.713798e+04
  -6.177782e+05   2.671425e+04
  -1.024433e+05  -2.580822e+05
   7.436488e+05  -6.432636e+05
   1.054589e+06  -5.873402e+05
   5.965769e+05   6.919528e+04
  -8.517842e+04   7.520985e+05
  -4.021226e+05   7.468342e+05
  -2.823951e+05   8.116005e+04
   3.583455e+02  -4.765257e+05
   2.308150e+05  -3.436226e+05
   3.260339e+05   2.206154e+05
   2.233405e+05   5.261120e+05
  -6.598654e+04   3.059730e+05
  -3.516540e+05  -7.629399e+04
  -4.056814e+05  -1.861101e+05
  -2.221819e+05  -2.821268e+04
  -1.147263e+04   6.390079e+04
   7.763603e+04  -1.092545e+05
   1.131873e+05  -3.775047e+05
   2.169785e+05  -3.973238e+05
   3.419726e+05  -3.467978e+04
   2.974897e+05   4.465130e+05
  -1.296035e+04   5.989723e+05
  -4.140511e+05   2.439974e+05
  -5.451507e+05  -3.075682e+05
  -1.886824e+05  -5.554901e+05
   4.309961e+05  -3.244628e+05
   7.491067e+05   1.006906e+05
   4.122156e+05   3.412337e+05
  -2.624308e+05   2.985856e+05
  -5.533279e+05   1.298489e+05
  -1.561257e+05   5.823560e+03
   4.128052e+05   1.040778e+04
   4.085439e+05   1.571818e+05
  -2.336653e+05   3.254355e+05
  -8.084373e+05   2.465432e+05
