
 $NMID
 id='ANONYMOUS ', fmtdat='(2E16.6)'
 volume=1.0
 tramp=1.0
 $END
   1.772011e+07  -1.342585e+06
   1.326574e+07   6.258952e+06
   2.018808e+06   1.105659e+07
  -6.832664e+06   9.511399e+06
  -7.244459e+06   2.575941e+06
  -1.339022e+06  -3.415368e+06
   3.894972e+06  -2.834825e+06
   3.884000e+06   2.676473e+06
  -5.233039e+04   6.040964e+06
  -3.441249e+06   3.215585e+06
  -3.396649e+06  -2.317699e+06
  -6.368229e+05  -4.248453e+06
   1.904698e+06  -8.397004e+05
   1.807219e+06   3.739755e+06
  -8.048319e+05   4.554374e+06
  -3.288617e+06   9.252542e+05
  -2.900235e+06  -3.547740e+06
   3.183914e+05  -4.915644e+06
   3.384575e+06  -2.497452e+06
   3.559524e+06   9.697308e+05
   1.343733e+06   2.425212e+06
  -3.018048e+05   1.571243e+06
   4.736119e+05   6.981407e+05
   2.319572e+06   1.616702e+06
   2.328094e+06   3.464383e+06
  -6.380576e+05   3.921363e+06
  -4.487833e+06   2.025936e+06
  -5.740395e+06  -8.651378e+05
  -2.974514e+06  -2.613996e+06
   1.425653e+06  -2.156008e+06
   3.339943e+06  -6.603971e+04
   1.129492e+06   1.927785e+06
  -2.558172e+06   2.022177e+06
  -3.768884e+06  -1.647884e+05
  -1.655674e+06  -2.811952e+06
   9.981655e+05  -3.327617e+06
   1.496671e+06  -1.155073e+06
   1.781483e+05   1.315631e+06
  -7.951262e+05   1.322271e+06
  -3.590083e+05  -1.026628e+06
   7.735684e+05  -2.850565e+06
   1.575584e+06  -1.908305e+06
   1.583366e+06   8.089468e+05
   6.456671e+05   2.318668e+06
  -8.855336e+05   1.060537e+06
  -1.651932e+06  -1.498800e+06
  -2.915210e+05  -2.612949e+06
   2.501649e+06  -1.129447e+06
   3.952915e+06   1.553109e+06
   2.152161e+06   3.076483e+06
  -1.492285e+06   2.344165e+06
  -3.608374e+06   2.576487e+05
  -2.484430e+06  -1.372937e+06
   3.429105e+05  -1.449447e+06
   2.036104e+06  -3.246446e+05
   1.352153e+06   7.296657e+05
  -4.944010e+05   7.029544e+05
  -1.363987e+06  -2.977389e+05
  -3.728134e+05  -1.187508e+06
   1.253009e+06  -9.544206e+05
   1.484046e+06   2.851501e+05
  -1.853958e+05   1.283177e+06
  -1.928378e+06   8.410248e+05
  -1.531461e+06  -9.261680e+05
   9.858911e+05  -2.538329e+06
   3.308106e+06  -2.445291e+06
   3.454953e+06  -4.596572e+05
   1.814019e+06   2.041555e+06
   2.307839e+05   3.360224e+06
  -2.903771e+05   2.986917e+06
  -3.241985e+05   1.878415e+06
  -7.909742e+05   1.212320e+06
  -1.745758e+06   1.017238e+06
  -2.472450e+06   3.358756e+05
  -2.261335e+06  -1.221599e+06
  -9.520324e+05  -2.544489e+06
   8.726421e+05  -2.116205e+06
   2.048305e+06   6.142512e+04
   1.599556e+06   2.159858e+06
  -2.632867e+05   2.353977e+06
  -2.076042e+06   6.570533e+05
  -2.401550e+06  -1.302990e+06
  -1.208113e+06  -2.076827e+06
   2.175406e+05  -1.626046e+06
   7.388468e+05  -9.147129e+05
   5.534405e+05  -7.126206e+05
   7.843747e+05  -9.264592e+05
   1.963398e+06  -8.481299e+05
   3.133655e+06   1.086611e+05
   2.705924e+06   1.765382e+06
   3.013192e+05   3.114823e+06
  -2.469385e+06   3.040680e+06
  -3.399325e+06   1.359685e+06
  -1.915450e+06  -8.068708e+05
   3.369845e+05  -1.882535e+06
   1.253708e+06  -1.238550e+06
   3.708249e+05   2.161660e+05
  -9.745092e+05   9.308020e+05
  -1.307408e+06   2.802869e+05
  -4.587995e+05  -8.011906e+05
   5.593476e+05  -8.882324e+05
   6.923409e+05   2.235782e+05
  -2.461909e+05   1.120845e+06
  -1.451152e+06   3.408175e+05
  -1.708071e+06  -1.779643e+06
  -3.823830e+05  -3.218304e+06
   1.835710e+06  -2.386599e+06
   3.277846e+06   1.375335e+05
   2.741865e+06   2.240803e+06
   7.011793e+05   2.459855e+06
  -1.097802e+06   1.235918e+06
  -1.345897e+06   9.227834e+04
  -3.891937e+05  -2.438035e+04
   3.170271e+05   5.625676e+05
  -1.432396e+05   9.111082e+05
  -1.192349e+06   4.920113e+05
  -1.481777e+06  -3.750008e+05
  -4.785644e+05  -8.941676e+05
   8.239440e+05  -5.657412e+05
   9.203593e+05   2.954317e+05
  -4.919347e+05   7.854360e+05
  -2.015060e+06   2.565288e+05
  -1.953504e+06  -9.946675e+05
  -1.465546e+05  -1.918683e+06
   1.814516e+06  -1.664210e+06
   2.230150e+06  -3.943857e+05
   9.674417e+05   8.248912e+05
  -5.749934e+05   9.981165e+05
  -9.708956e+05   1.467682e+05
  -6.108668e+04  -7.059941e+05
   1.111000e+06  -5.763618e+05
   1.393018e+06   4.365609e+05
   5.414135e+05   1.256259e+06
  -6.375595e+05   1.028883e+06
  -1.064559e+06   7.395272e+04
  -4.244958e+05  -5.128249e+05
   4.874764e+05  -1.140725e+05
   5.511655e+05   7.612245e+05
  -4.654628e+05   1.089321e+06
  -1.575595e+06   4.035476e+05
  -1.581655e+06  -8.015062e+05
  -3.621863e+05  -1.574799e+06
   9.894166e+05  -1.329688e+06
   1.310429e+06  -3.104772e+05
   5.166545e+05   6.156030e+05
  -4.385499e+05   7.138096e+05
  -6.240982e+05   6.925580e+04
  -2.833188e+04  -5.175913e+05
   5.647377e+05  -4.195985e+05
   4.736526e+05   1.107919e+05
  -1.626174e+05   2.797409e+05
  -5.441618e+05  -2.474866e+05
  -6.709135e+04  -8.953077e+05
   9.865868e+05  -8.041758e+05
   1.649926e+06   2.196773e+05
   1.203352e+06   1.467559e+06
  -9.862589e+04   1.971205e+06
  -1.264658e+06   1.343984e+06
  -1.519312e+06   8.946710e+04
  -9.733180e+05  -8.455950e+05
  -3.553522e+05  -9.050889e+05
  -1.769569e+05  -4.043983e+05
  -2.570882e+05  -1.346863e+05
  -6.140775e+04  -4.378024e+05
   5.826956e+05  -7.891738e+05
   1.187306e+06  -4.424164e+05
   1.043487e+06   5.841206e+05
  -2.788310e+04   1.378402e+06
  -1.355266e+06   1.062302e+06
  -1.888653e+06  -2.662651e+05
  -1.094959e+06  -1.588798e+06
   5.299435e+05  -1.897534e+06
   1.838788e+06  -1.043093e+06
   1.987940e+06   2.355325e+05
   1.097388e+06   1.023099e+06
   2.582684e+04   1.008994e+06
  -4.701279e+05   6.487091e+05
  -3.611027e+05   5.712463e+05
  -2.002278e+05   8.415591e+05
  -4.371953e+05   8.939331e+05
  -9.153838e+05   2.433520e+05
  -1.046928e+06  -8.397977e+05
  -4.718924e+05  -1.503550e+06
   4.821648e+05  -1.162055e+06
   1.044473e+06  -7.857466e+04
   7.429859e+05   9.005375e+05
  -1.119637e+05   1.106870e+06
  -7.323231e+05   5.441359e+05
  -6.455411e+05  -2.449165e+05
  -1.325816e+05  -7.005508e+05
   1.540142e+05  -6.738499e+05
  -4.584762e+04  -4.348320e+05
  -3.075524e+05  -3.093587e+05
  -2.811865e+04  -3.258769e+05
   8.204497e+05  -2.345526e+05
   1.529007e+06   1.500750e+05
   1.315517e+06   6.899460e+05
   1.663785e+05   1.026405e+06
  -1.048816e+06   9.033350e+05
  -1.383790e+06   3.884193e+05
  -7.361161e+05  -1.633450e+05
   1.086285e+05  -3.648146e+05
   3.513904e+05  -1.262556e+05
  -2.585178e+04   2.109394e+05
  -4.116085e+05   1.803086e+05
  -3.677886e+05  -2.637019e+05
  -6.875698e+04  -6.116680e+05
   5.333916e+04  -3.885147e+05
  -1.248814e+05   1.836942e+05
  -3.322083e+05   3.696918e+05
  -2.552213e+05  -1.605710e+05
   1.612447e+05  -8.414521e+05
   6.803991e+05  -8.452578e+05
   9.027129e+05  -7.659086e+04
   5.257134e+05   7.113207e+05
  -3.007079e+05   7.776713e+05
  -8.910708e+05   1.561392e+05
  -5.759202e+05  -4.875272e+05
   5.047565e+05  -5.679735e+05
   1.341334e+06  -5.111330e+04
   1.031212e+06   6.251779e+05
  -2.131985e+05   9.332339e+05
  -1.231716e+06   6.387115e+05
  -1.133367e+06  -8.343126e+03
  -2.000911e+05  -4.460714e+05
   4.969819e+05  -3.068530e+05
   2.681687e+05   1.778928e+05
  -5.262599e+05   3.597482e+05
  -9.359710e+05  -1.490255e+05
  -4.292526e+05  -9.899499e+05
   5.968541e+05  -1.322746e+06
   1.252247e+06  -6.415310e+05
   1.021225e+06   6.435296e+05
   1.787284e+05   1.481924e+06
  -5.782998e+05   1.145391e+06
  -7.852819e+05  -3.110871e+04
  -4.747464e+05  -9.489408e+05
   3.491207e+04  -8.664540e+05
   4.195097e+05  -1.345427e+05
   4.778076e+05   3.201138e+05
   2.355509e+05   1.426124e+05
  -2.349174e+02  -1.106625e+05
   9.206209e+04   1.626641e+05
   3.822206e+05   7.452661e+05
   2.989338e+05   8.997107e+05
  -4.359014e+05   3.621844e+05
  -1.231970e+06  -3.523895e+05
  -1.174778e+06  -6.575646e+05
  -1.797265e+05  -5.414170e+05
   7.854778e+05  -3.448042e+05
   8.362297e+05  -2.051816e+05
   2.128234e+05  -2.482373e+04
  -1.527349e+05   1.750122e+05
   8.946576e+04   2.283096e+05
   3.389722e+05   1.419439e+05
  -5.195335e+03   1.139925e+05
  -6.650850e+05   1.504831e+05
  -8.327301e+05  -3.405809e+04
  -1.789714e+05  -5.320231e+05
   7.846169e+05  -8.870237e+05
   1.285085e+06  -5.415332e+05
   9.949079e+05   4.021222e+05
   1.870800e+05   1.156736e+06
  -5.755824e+05   1.081281e+06
  -8.409320e+05   3.627756e+05
  -5.487374e+05  -2.502291e+05
  -5.945915e+04  -2.858921e+05
   1.586386e+05   1.866705e+04
  -2.863885e+04   9.624317e+04
  -3.030236e+05  -2.601726e+05
  -2.550114e+05  -6.526710e+05
   1.635198e+05  -5.251920e+05
   5.736367e+05   1.730461e+05
   5.329449e+05   8.412828e+05
  -2.761163e+04   8.183937e+05
  -6.745919e+05   9.324990e+04
  -8.019139e+05  -6.789525e+05
  -2.134404e+05  -8.717129e+05
   5.898232e+05  -4.678364e+05
   8.486181e+05   8.608956e+04
   3.705313e+05   4.146048e+05
  -2.187451e+05   4.480778e+05
  -2.125475e+05   2.772591e+05
   2.999457e+05   4.734816e+04
   5.513336e+05  -1.800416e+04
   8.550590e+04   2.280305e+05
  -6.643447e+05   5.673476e+05
  -9.308212e+05   5.213155e+05
  -5.183569e+05  -5.810159e+04
   8.194034e+04  -6.629677e+05
   3.533892e+05  -6.553618e+05
   2.415216e+05  -6.202188e+04
  -8.777116e+03   4.275417e+05
  -2.095911e+05   2.979646e+05
  -2.890308e+05  -2.071817e+05
  -1.930842e+05  -4.690110e+05
   6.379221e+04  -2.629034e+05
   3.114565e+05   7.428720e+04
   3.550962e+05   1.618859e+05
   1.965167e+05   2.088058e+04
   1.577868e+04  -4.974932e+04
  -6.850847e+04   1.113316e+05
  -1.155511e+05   3.410690e+05
  -2.143216e+05   3.422386e+05
  -3.107884e+05   1.187724e+04
  -2.493015e+05  -4.103518e+05
   3.218714e+04  -5.341733e+05
   3.743436e+05  -2.092623e+05
   4.758389e+05   2.836467e+05
   1.588499e+05   4.985325e+05
  -3.822649e+05   2.832096e+05
  -6.589251e+05  -9.953812e+04
  -3.605684e+05  -3.063809e+05
   2.356705e+05  -2.560743e+05
   4.902029e+05  -1.023558e+05
   1.314266e+05  -1.973646e+03
  -3.770842e+05  -1.910746e+04
  -3.662070e+05  -1.527159e+05
   2.177687e+05  -2.939203e+05
   7.331949e+05  -2.133348e+05
