
 $NMID
 id='ANONYMOUS ', fmtdat='(2E16.6)'
 volume=1.0
 tramp=1.0
 $END
  -5.644777e+07   8.716284e+05
  -3.450062e+07  -3.463295e+07
   6.988407e+06  -3.843683e+07
   2.757428e+07  -1.496580e+07
   1.664084e+07   6.988594e+06
  -3.266928e+06   9.431178e+06
  -9.901890e+06  -1.209191e+06
  -2.831336e+06  -9.819849e+06
   6.198355e+06  -9.371413e+06
   9.671093e+06  -2.046805e+06
   7.051537e+06   6.104709e+06
   9.133944e+05   8.546634e+06
  -3.924401e+06   2.803085e+06
  -2.643465e+06  -5.342945e+06
   3.731933e+06  -6.527037e+06
   7.903570e+06   1.280776e+06
   4.551579e+06   1.016626e+07
  -3.651640e+06   1.184895e+07
  -1.002633e+07   6.056258e+06
  -1.084832e+07  -1.860277e+06
  -6.792016e+06  -7.367188e+06
  -8.903786e+05  -8.689232e+06
   2.844800e+06  -6.196406e+06
   1.949369e+06  -2.763703e+06
  -1.003645e+06  -2.069544e+06
  -3.017019e+05  -4.055353e+06
   5.234750e+06  -4.411529e+06
   9.537677e+06  -6.501628e+05
   7.070778e+06   3.975685e+06
   3.907360e+05   5.012241e+06
  -3.576601e+06   2.626513e+06
  -2.424372e+06   1.290198e+05
   5.323539e+05  -8.327988e+05
   2.147481e+06  -4.809174e+05
   2.137859e+06   1.322199e+06
   7.697330e+05   3.817677e+06
  -1.698976e+06   3.875746e+06
  -3.246294e+06   2.215716e+04
  -1.827114e+06  -3.576445e+06
   7.041528e+05  -2.003530e+06
   3.772842e+05   2.356374e+06
  -2.418917e+06   2.288466e+06
  -2.479651e+06  -3.182995e+06
   2.389620e+06  -6.200768e+06
   7.008712e+06  -1.134788e+06
   5.257802e+06   6.877453e+06
  -1.802880e+06   8.595772e+06
  -7.399631e+06   2.529932e+06
  -6.968490e+06  -4.373857e+06
  -1.865482e+06  -6.003708e+06
   3.456757e+06  -2.711108e+06
   5.240487e+06   1.513709e+06
   2.418442e+06   3.483941e+06
  -2.417296e+06   2.223268e+06
  -4.542857e+06  -8.861190e+05
  -1.974887e+06  -2.714716e+06
   1.706021e+06  -1.392699e+06
   1.731880e+06   1.019938e+06
  -1.358218e+06   9.289504e+05
  -2.529488e+06  -1.779157e+06
   5.990831e+05  -3.523712e+06
   4.662709e+06  -1.989380e+06
   5.352940e+06   1.318222e+06
   2.367972e+06   3.973437e+06
  -1.721988e+06   5.264590e+06
  -4.894904e+06   4.866626e+06
  -6.121301e+06   1.825738e+06
  -4.609474e+06  -3.056977e+06
  -1.022444e+06  -6.118438e+06
   1.829576e+06  -4.768009e+06
   1.790190e+06  -1.207505e+06
   1.731642e+05   3.121569e+05
  -9.124477e+04  -9.180704e+05
   1.504412e+06  -1.788614e+06
   2.744627e+06  -3.054329e+05
   2.018446e+06   1.843917e+06
   6.264195e+04   2.087319e+06
  -1.502071e+06   2.041521e+05
  -1.653668e+06  -2.030634e+06
  -3.183234e+04  -2.895948e+06
   2.712646e+06  -1.680070e+06
   4.457633e+06   1.107387e+06
   3.275138e+06   3.692597e+06
   3.790778e+04   4.232495e+06
  -2.239931e+06   2.768090e+06
  -2.237980e+06   1.173448e+06
  -1.842224e+06   6.883070e+05
  -2.934280e+06   4.829655e+05
  -4.333819e+06  -7.405301e+05
  -3.480381e+06  -2.736149e+06
  -1.471185e+05  -4.100887e+06
   3.159571e+06  -3.888092e+06
   4.115702e+06  -2.136906e+06
   2.633639e+06   3.789306e+05
   3.062609e+05   2.198209e+06
  -1.058275e+06   1.928486e+06
  -5.583399e+05  -2.287526e+04
   1.066095e+06  -1.308114e+06
   1.899432e+06  -4.125395e+05
   9.371378e+05   1.191913e+06
  -5.020124e+05   1.105636e+06
  -4.141659e+05  -3.975643e+05
   1.096055e+06  -6.874918e+05
   1.884027e+06   1.328675e+06
   6.285096e+05   3.529856e+06
  -1.649785e+06   3.409361e+06
  -3.177602e+06   1.066109e+06
  -3.284046e+06  -1.481118e+06
  -2.224595e+06  -2.750286e+06
  -4.358973e+05  -2.579363e+06
   1.222057e+06  -1.454133e+06
   1.560332e+06  -2.364176e+05
   4.907627e+05   4.391099e+04
  -3.588867e+05  -7.497106e+05
   4.121984e+05  -1.349810e+06
   1.915002e+06  -5.905641e+05
   2.044138e+06   8.905950e+05
   3.849306e+05   1.426851e+06
  -1.174296e+06   5.694823e+05
  -8.758074e+05  -4.600452e+05
   8.645293e+05  -5.031886e+05
   2.167863e+06   3.494155e+05
   1.708067e+06   1.363700e+06
  -2.708466e+05   1.949459e+06
  -2.301667e+06   1.634137e+06
  -2.763368e+06   2.716187e+05
  -1.222021e+06  -1.266871e+06
   9.140366e+05  -1.516639e+06
   1.570465e+06  -2.029169e+05
   2.154470e+05   1.083238e+06
  -1.514304e+06   7.438369e+05
  -1.718422e+06  -7.856395e+05
  -3.247489e+05  -1.656564e+06
   1.107678e+06  -9.653474e+05
   1.257905e+06   3.315673e+05
   2.335945e+05   7.922805e+05
  -8.068290e+05   5.647374e+04
  -7.440026e+05  -1.052012e+06
   5.657806e+05  -1.426135e+06
   2.000246e+06  -5.536442e+05
   2.038524e+06   1.038818e+06
   3.899088e+05   2.074193e+06
  -1.441163e+06   1.646676e+06
  -1.728874e+06   2.072556e+05
  -4.969005e+05  -8.732223e+05
   6.623416e+05  -8.000432e+05
   6.221852e+05  -7.500169e+04
  -1.324282e+05   3.454107e+05
  -4.822741e+05   1.858040e+05
  -9.182906e+04  -7.000461e+04
   4.708447e+05   9.613171e+04
   5.158147e+05   6.934250e+05
  -2.179646e+05   1.193812e+06
  -1.385416e+06   8.940945e+05
  -2.080422e+06  -4.120070e+05
  -1.468677e+06  -1.937928e+06
   2.114878e+05  -2.412511e+06
   1.610434e+06  -1.397973e+06
   1.675083e+06   1.378463e+05
   8.317751e+05   8.861948e+05
   3.010135e+05   6.198269e+05
   4.868165e+05   1.928189e+05
   6.485384e+05   3.122342e+05
   9.942491e+04   7.745438e+05
  -8.802641e+05   8.987222e+05
  -1.443472e+06   3.140721e+05
  -1.031693e+06  -7.194909e+05
   2.623387e+05  -1.442034e+06
   1.717537e+06  -1.059684e+06
   2.237175e+06   4.837205e+05
   1.125526e+06   2.099523e+06
  -1.018695e+06   2.368187e+06
  -2.550285e+06   1.025648e+06
  -2.343361e+06  -6.736358e+05
  -9.314144e+05  -1.341875e+06
   2.235405e+05  -9.265691e+05
   3.781012e+05  -4.858004e+05
   4.831411e+04  -7.458548e+05
   8.130971e+04  -1.316769e+06
   6.663010e+05  -1.301145e+06
   1.297069e+06  -3.281993e+05
   1.341136e+06   1.070617e+06
   5.630104e+05   1.886223e+06
  -6.133942e+05   1.434582e+06
  -1.281460e+06  -3.022801e+03
  -8.107639e+05  -1.287929e+06
   3.993464e+05  -1.398712e+06
   1.179137e+06  -3.954629e+05
   8.197037e+05   7.180838e+05
  -1.336364e+05   1.092047e+06
  -5.561439e+05   7.845260e+05
  -9.537572e+04   4.085642e+05
   4.362827e+05   3.271944e+05
   6.336879e+04   3.792433e+05
  -1.153871e+06   2.120416e+05
  -2.071381e+06  -3.270089e+05
  -1.618538e+06  -1.037226e+06
   4.496240e+04  -1.446147e+06
   1.597516e+06  -1.152016e+06
   1.835110e+06  -2.732930e+05
   8.326476e+05   5.114828e+05
  -2.640239e+05   5.796320e+05
  -5.176554e+05   2.848604e+04
  -4.149480e+04  -4.304389e+05
   4.329950e+05  -2.618423e+05
   4.843766e+05   3.378055e+05
   2.711647e+05   7.115678e+05
   1.129507e+05   4.728764e+05
   1.373389e+05  -8.344961e+04
   2.680945e+05  -2.758909e+05
   2.729199e+05   2.332649e+05
  -1.296709e+05   9.769729e+05
  -8.922367e+05   1.070904e+06
  -1.375265e+06   1.972183e+05
  -8.747907e+05  -9.028196e+05
   4.046799e+05  -1.155090e+06
   1.261210e+06  -3.630921e+05
   7.366872e+05   5.611211e+05
  -7.030436e+05   6.470183e+05
  -1.578266e+06  -1.016437e+05
  -9.821120e+05  -8.672349e+05
   5.010445e+05  -9.759184e+05
   1.492901e+06  -4.543238e+05
   1.215200e+06   2.039999e+05
   1.244360e+05   5.094487e+05
  -6.510675e+05   2.616373e+05
  -3.926518e+05  -2.969878e+05
   5.687090e+05  -5.335640e+05
   1.180620e+06   5.572935e+04
   6.977442e+05   1.161715e+06
  -5.490998e+05   1.708925e+06
  -1.459054e+06   9.100683e+05
  -1.259068e+06  -7.362807e+05
  -2.184390e+05  -1.779351e+06
   7.306763e+05  -1.282829e+06
   9.213636e+05   1.863000e+05
   4.211391e+05   1.190207e+06
  -2.363595e+05   9.580417e+05
  -5.677868e+05   7.879210e+04
  -4.502600e+05  -3.716603e+05
  -1.448027e+05  -1.323828e+05
  -5.568281e+04   9.047819e+04
  -3.093951e+05  -3.020088e+05
  -5.258534e+05  -9.641290e+05
  -1.743073e+05  -1.072355e+06
   7.366588e+05  -3.976329e+05
   1.469840e+06   4.523757e+05
   1.259981e+06   8.273733e+05
   1.874849e+05   7.002451e+05
  -8.268018e+05   4.253499e+05
  -9.730059e+05   1.810125e+05
  -3.790276e+05  -6.048798e+04
   1.346283e+05  -2.277516e+05
   6.013127e+04  -1.948837e+05
  -2.365686e+05  -7.958101e+04
  -6.257603e+04  -1.295733e+05
   6.267343e+05  -2.510060e+05
   1.047669e+06  -1.044686e+04
   4.828873e+05   6.863422e+05
  -7.959535e+05   1.201542e+06
  -1.704410e+06   8.009989e+05
  -1.449487e+06  -3.913542e+05
  -3.054981e+05  -1.393955e+06
   7.537551e+05  -1.394876e+06
   1.039250e+06  -5.728499e+05
   6.520803e+05   2.060812e+05
   1.519224e+05   3.553621e+05
  -4.164370e+04   8.300153e+04
   9.239894e+04   1.802554e+03
   2.918883e+05   3.734706e+05
   2.461679e+05   8.049217e+05
  -1.617874e+05   6.872550e+05
  -6.744045e+05  -8.915308e+04
  -7.708664e+05  -9.154731e+05
  -1.683528e+05  -1.028825e+06
   7.261025e+05  -2.896877e+05
   1.054363e+06   6.717854e+05
   3.884197e+05   1.082024e+06
  -6.930506e+05   7.126331e+05
  -1.133553e+06  -4.406429e+04
  -5.616850e+05  -6.224679e+05
   2.744675e+05  -7.115914e+05
   3.979755e+05  -3.831352e+05
  -2.174727e+05   4.290294e+03
  -6.400286e+05   5.508909e+04
  -1.625562e+05  -3.098988e+05
   8.129329e+05  -6.885048e+05
   1.275228e+06  -5.414786e+05
   7.957110e+05   1.845540e+05
  -7.695833e+04   8.816504e+05
  -5.610400e+05   8.793543e+05
  -4.501944e+05   1.934563e+05
  -7.765099e+04  -4.639984e+05
   2.236511e+05  -4.553883e+05
   3.507549e+05   1.133460e+05
   2.693067e+05   5.703737e+05
  -3.495964e+04   4.522026e+05
  -3.917218e+05  -2.469906e+04
  -4.917039e+05  -2.893945e+05
  -2.457376e+05  -1.087343e+05
   5.284277e+04   1.697777e+05
   8.743710e+04   8.633231e+04
  -5.614589e+04  -3.320479e+05
  -1.852113e+04  -5.768624e+05
   2.925415e+05  -2.744667e+05
   5.003242e+05   3.330212e+05
   2.198423e+05   6.354574e+05
  -3.856601e+05   3.358919e+05
  -6.873383e+05  -2.444945e+05
  -2.797906e+05  -5.548254e+05
   5.074482e+05  -3.810129e+05
   8.995592e+05   4.203682e+04
   4.954029e+05   3.655314e+05
  -2.830981e+05   4.280382e+05
  -6.392976e+05   2.691958e+05
  -2.723100e+05   3.025515e+04
   3.105091e+05  -9.712977e+04
   3.935428e+05   2.271797e+04
  -1.365294e+05   2.731135e+05
  -6.930092e+05   2.859008e+05
