
 $NMID
 id='ANONYMOUS ', fmtdat='(2E16.6)'
 volume=1.0
 tramp=1.0
 $END
   9.478055e+06   1.512324e+06
   5.409326e+06   4.822321e+06
  -6.865607e+05   5.504513e+06
  -4.101554e+06   3.672782e+06
  -3.261240e+06   5.699524e+05
  -2.429128e+05  -1.561898e+06
   1.836620e+06  -9.957157e+05
   1.514148e+06   1.417333e+06
  -3.413063e+05   2.729615e+06
  -1.772098e+06   1.225796e+06
  -1.538879e+06  -1.432250e+06
  -7.056341e+04  -2.206598e+06
   1.093291e+06  -3.351072e+05
   8.112569e+05   1.940642e+06
  -5.779692e+05   2.137290e+06
  -1.601230e+06   1.568538e+05
  -1.097443e+06  -1.982883e+06
   6.140765e+05  -2.384561e+06
   2.003913e+06  -9.302145e+05
   1.846569e+06   9.080181e+05
   4.868278e+05   1.594399e+06
  -5.211498e+05   9.711748e+05
  -1.247969e+05   2.671759e+05
   1.007591e+06   6.022155e+05
   1.194513e+06   1.634705e+06
  -3.238222e+05   1.999590e+06
  -2.381489e+06   9.905455e+05
  -2.999639e+06  -6.324356e+05
  -1.467245e+06  -1.558111e+06
   8.398735e+05  -1.215657e+06
   1.803664e+06  -5.224696e+04
   6.882441e+05   9.963073e+05
  -1.179322e+06   1.083120e+06
  -1.878643e+06   1.691944e+03
  -9.001964e+05  -1.404338e+06
   5.055335e+05  -1.754389e+06
   9.000604e+05  -6.051881e+05
   2.103240e+05   7.974012e+05
  -4.760870e+05   8.363923e+05
  -3.444628e+05  -4.763928e+05
   3.490505e+05  -1.467131e+06
   8.266630e+05  -9.029061e+05
   6.710582e+05   4.997524e+05
   4.699040e+04   1.060134e+06
  -5.577444e+05   1.932337e+05
  -5.880006e+05  -1.042915e+06
   2.270825e+05  -1.293112e+06
   1.411141e+06  -3.107459e+05
   1.859275e+06   1.001843e+06
   8.932397e+05   1.574698e+06
  -8.065075e+05   1.059176e+06
  -1.727870e+06  -6.974214e+03
  -1.113559e+06  -7.271782e+05
   2.556924e+05  -6.208575e+05
   9.928422e+05   4.489983e+03
   5.727350e+05   4.378450e+05
  -3.077715e+05   2.943120e+05
  -6.443137e+05  -1.866171e+05
  -1.634329e+05  -4.937235e+05
   5.017122e+05  -3.512953e+05
   5.240907e+05   9.308134e+04
  -2.155102e+05   4.072379e+05
  -9.060595e+05   1.859173e+05
  -6.071084e+05  -5.663646e+05
   6.614741e+05  -1.265989e+06
   1.813844e+06  -1.158461e+06
   1.840540e+06  -9.380894e+04
   8.878006e+05   1.191840e+06
  -3.476577e+04   1.763203e+06
  -2.809494e+05   1.431766e+06
  -1.590095e+05   8.407010e+05
  -3.046412e+05   6.051987e+05
  -8.336028e+05   5.958707e+05
  -1.291485e+06   2.350805e+05
  -1.210178e+06  -6.153679e+05
  -5.196846e+05  -1.313950e+06
   4.242749e+05  -1.098526e+06
   1.022625e+06   4.612800e+03
   7.941725e+05   1.080876e+06
  -1.647540e+05   1.194701e+06
  -1.101453e+06   3.017370e+05
  -1.235475e+06  -7.655857e+05
  -5.410151e+05  -1.178121e+06
   2.516703e+05  -8.675395e+05
   4.982337e+05  -4.031208e+05
   3.329947e+05  -2.686777e+05
   3.995977e+05  -3.955809e+05
   9.768064e+05  -3.542801e+05
   1.544072e+06   1.432906e+05
   1.298685e+06   9.479303e+05
   8.066373e+04   1.558583e+06
  -1.298122e+06   1.478681e+06
  -1.750085e+06   6.366593e+05
  -9.847592e+05  -4.403159e+05
   1.809198e+05  -9.748087e+05
   6.623117e+05  -6.333422e+05
   1.974119e+05   1.157120e+05
  -5.102888e+05   4.604847e+05
  -6.688676e+05   1.042610e+05
  -2.121807e+05  -4.331012e+05
   2.925583e+05  -4.463546e+05
   3.290106e+05   1.019533e+05
  -1.185775e+05   5.024671e+05
  -6.399745e+05   1.103757e+05
  -7.275495e+05  -8.642827e+05
  -1.301057e+05  -1.494558e+06
   8.746971e+05  -1.082358e+06
   1.555877e+06   1.063646e+05
   1.316580e+06   1.106293e+06
   3.270399e+05   1.213287e+06
  -5.648425e+05   6.068052e+05
  -6.810084e+05   3.114441e+04
  -1.941017e+05  -1.963925e+04
   1.459122e+05   2.865252e+05
  -1.034546e+05   4.455695e+05
  -6.129236e+05   2.023107e+05
  -7.171852e+05  -2.321618e+05
  -2.037862e+05  -4.509673e+05
   4.183094e+05  -2.590774e+05
   4.466655e+05   1.510365e+05
  -2.389138e+05   3.631485e+05
  -9.723909e+05   1.001757e+05
  -9.424589e+05  -4.956811e+05
  -5.582639e+04  -9.321722e+05
   9.158128e+05  -7.927129e+05
   1.112984e+06  -1.556591e+05
   4.580576e+05   4.357622e+05
  -3.240963e+05   4.846622e+05
  -4.969974e+05   3.745165e+04
  -9.824011e+03  -3.663071e+05
   5.708630e+05  -2.630803e+05
   6.775272e+05   2.466000e+05
   2.383971e+05   6.221303e+05
  -3.261300e+05   4.822698e+05
  -5.110410e+05   1.470128e+04
  -1.904840e+05  -2.513612e+05
   2.452469e+05  -3.652660e+04
   2.585196e+05   3.960873e+05
  -2.557595e+05   5.399787e+05
  -8.003615e+05   1.737294e+05
  -7.780436e+05  -4.338652e+05
  -1.469267e+05  -7.946176e+05
   5.225413e+05  -6.379802e+05
   6.545705e+05  -1.243373e+05
   2.400222e+05   3.117486e+05
  -2.295955e+05   3.425118e+05
  -3.108784e+05   3.211194e+04
  -1.856006e+04  -2.456245e+05
   2.682033e+05  -2.066100e+05
   2.304043e+05   3.551660e+04
  -6.698475e+04   1.149357e+05
  -2.446626e+05  -1.316068e+05
  -8.372918e+03  -4.350247e+05
   5.055951e+05  -3.755189e+05
   8.163023e+05   1.427732e+05
   5.711850e+05   7.571156e+05
  -8.317353e+04   9.810579e+05
  -6.432871e+05   6.449723e+05
  -7.460035e+05   2.562124e+04
  -4.755146e+05  -4.174987e+05
  -1.872738e+05  -4.434277e+05
  -1.031436e+05  -2.147986e+05
  -1.244512e+05  -9.233005e+04
  -1.105177e+04  -2.257932e+05
   3.041116e+05  -3.755140e+05
   5.894454e+05  -1.987067e+05
   5.085334e+05   2.964215e+05
  -2.723832e+04   6.733243e+05
  -6.842394e+05   5.026017e+05
  -9.319377e+05  -1.629408e+05
  -5.105037e+05  -8.049090e+05
   3.053975e+05  -9.227849e+05
   9.299256e+05  -4.719705e+05
   9.696980e+05   1.523534e+05
   5.210186e+05   5.097770e+05
   8.691900e+03   4.866863e+05
  -2.259486e+05   3.225830e+05
  -1.858272e+05   3.024447e+05
  -1.267003e+05   4.322890e+05
  -2.471541e+05   4.372844e+05
  -4.673401e+05   9.795983e+04
  -5.095604e+05  -4.418024e+05
  -2.091666e+05  -7.610038e+05
   2.615859e+05  -5.733079e+05
   5.192601e+05  -2.044962e+04
   3.457761e+05   4.611992e+05
  -8.113191e+04   5.392911e+05
  -3.660850e+05   2.406130e+05
  -2.972803e+05  -1.421702e+05
  -3.710049e+04  -3.412247e+05
   9.240785e+04  -3.144767e+05
  -1.991158e+04  -2.082469e+05
  -1.528286e+05  -1.623567e+05
  -1.030383e+04  -1.649236e+05
   4.134072e+05  -9.466461e+04
   7.592687e+05   1.134869e+05
   6.375107e+05   3.709422e+05
   5.200791e+04   5.067945e+05
  -5.481816e+05   4.192851e+05
  -6.911701e+05   1.608335e+05
  -3.480840e+05  -9.559752e+04
   6.988238e+04  -1.762214e+05
   1.728048e+05  -5.055841e+04
  -2.449026e+04   1.122205e+05
  -2.101870e+05   8.812708e+04
  -1.797237e+05  -1.402701e+05
  -2.969923e+04  -3.170539e+05
   2.981897e+04  -2.033883e+05
  -5.763402e+04   8.833105e+04
  -1.604445e+05   1.841918e+05
  -1.225003e+05  -8.307385e+04
   9.048603e+04  -4.215976e+05
   3.576285e+05  -4.097358e+05
   4.637677e+05  -1.080902e+04
   2.540422e+05   3.780146e+05
  -1.749873e+05   3.862458e+05
  -4.612518e+05   5.742182e+04
  -2.830408e+05  -2.547673e+05
   2.610544e+05  -2.708409e+05
   6.628392e+05  -4.242003e+03
   4.959846e+05   3.166814e+05
  -1.172603e+05   4.481408e+05
  -6.095284e+05   2.949350e+05
  -5.541706e+05  -1.675830e+04
  -9.283650e+04  -2.195870e+05
   2.485735e+05  -1.413297e+05
   1.282966e+05   9.835629e+04
  -2.732408e+05   1.773551e+05
  -4.739512e+05  -8.961527e+04
  -2.046029e+05  -5.114292e+05
   3.223409e+05  -6.643400e+05
   6.433445e+05  -3.071068e+05
   5.040594e+05   3.387074e+05
   6.717783e+04   7.447503e+05
  -3.023955e+05   5.610713e+05
  -3.841889e+05  -2.884159e+04
  -2.180043e+05  -4.749997e+05
   2.944671e+04  -4.212446e+05
   2.086458e+05  -5.612701e+04
   2.328996e+05   1.605268e+05
   1.154775e+05   6.678054e+04
   2.359241e+02  -5.163999e+04
   4.132231e+04   9.543430e+04
   1.775260e+05   3.836699e+05
   1.333056e+05   4.447743e+05
  -2.253678e+05   1.625469e+05
  -6.096621e+05  -1.949841e+05
  -5.735001e+05  -3.393944e+05
  -7.858820e+04  -2.730721e+05
   3.969976e+05  -1.672492e+05
   4.176221e+05  -9.064542e+04
   1.041663e+05  -9.567608e+02
  -7.921129e+04   8.826299e+04
   4.270479e+04   1.051899e+05
   1.694918e+05   6.534114e+04
  -2.720202e+03   6.056450e+04
  -3.360097e+05   7.582924e+04
  -4.199520e+05  -3.128789e+04
  -8.366193e+04  -2.843594e+05
   4.109961e+05  -4.425015e+05
   6.624448e+05  -2.455964e+05
   5.013642e+05   2.285164e+05
   7.733654e+04   5.863380e+05
  -3.107478e+05   5.308775e+05
  -4.343615e+05   1.697099e+05
  -2.759035e+05  -1.315108e+05
  -2.620884e+04  -1.485676e+05
   8.224210e+04   1.843658e+03
  -1.043908e+04   4.256175e+04
  -1.432095e+05  -1.319667e+05
  -1.156362e+05  -3.276789e+05
   9.222592e+04  -2.633083e+05
   2.907258e+05   9.241532e+04
   2.615232e+05   4.346161e+05
  -2.515083e+04   4.209897e+05
  -3.472732e+05   4.414680e+04
  -4.005578e+05  -3.544348e+05
  -9.408345e+04  -4.473630e+05
   3.102224e+05  -2.287421e+05
   4.287108e+05   6.106399e+04
   1.745141e+05   2.216136e+05
  -1.258500e+05   2.233770e+05
  -1.157680e+05   1.287401e+05
   1.502685e+05   1.944975e+04
   2.776883e+05  -2.465929e+03
   3.844634e+04   1.193090e+05
  -3.417824e+05   2.732957e+05
  -4.719918e+05   2.369331e+05
  -2.554097e+05  -4.828450e+04
   5.528047e+04  -3.332957e+05
   1.941718e+05  -3.169447e+05
   1.310649e+05  -2.079555e+04
  -6.639585e+03   2.178095e+05
  -1.142127e+05   1.492069e+05
  -1.489571e+05  -1.059226e+05
  -8.984254e+04  -2.398490e+05
   4.256806e+04  -1.352728e+05
   1.585966e+05   4.172357e+04
   1.713119e+05   9.158400e+04
   9.369964e+04   1.540284e+04
   1.335675e+04  -3.046454e+04
  -2.415131e+04   5.059413e+04
  -5.540309e+04   1.782021e+05
  -1.166400e+05   1.859145e+05
  -1.684495e+05   1.014712e+04
  -1.307521e+05  -2.172890e+05
   1.935581e+04  -2.808122e+05
   1.940222e+05  -1.040343e+05
   2.411393e+05   1.537776e+05
   7.591793e+04   2.560145e+05
  -1.986871e+05   1.340939e+05
  -3.344298e+05  -6.428417e+04
  -1.770925e+05  -1.621503e+05
   1.283676e+05  -1.267283e+05
   2.557448e+05  -4.364626e+04
   6.932584e+04   6.715073e+03
  -1.925109e+05  -5.453078e+03
  -1.889224e+05  -7.667816e+04
   1.069508e+05  -1.492358e+05
   3.686078e+05  -1.064037e+05
