
 $NMID
 id='ANONYMOUS ', fmtdat='(2E16.6)'
 volume=1.0
 tramp=1.0
 $END
  -1.411852e+07  -5.408427e+05
  -9.487802e+06  -6.276473e+06
  -2.699565e+05  -8.726472e+06
   6.032565e+06  -6.485449e+06
   5.484840e+06  -1.221924e+06
   6.303118e+05   2.624461e+06
  -3.048778e+06   1.740139e+06
  -2.608144e+06  -2.273654e+06
   4.751224e+05  -4.432913e+06
   2.795420e+06  -2.100642e+06
   2.442175e+06   2.019830e+06
   2.275954e+05   3.291785e+06
  -1.540247e+06   5.546165e+05
  -1.192401e+06  -2.906897e+06
   8.769806e+05  -3.340891e+06
   2.537750e+06  -4.136643e+05
   1.917246e+06   2.936426e+06
  -6.505190e+05   3.731219e+06
  -2.844353e+06   1.666024e+06
  -2.761450e+06  -1.038780e+06
  -9.236410e+05  -2.092351e+06
   4.175700e+05  -1.348716e+06
  -1.259477e+05  -5.866098e+05
  -1.545183e+06  -1.216974e+06
  -1.609570e+06  -2.602793e+06
   5.995077e+05  -2.921896e+06
   3.487761e+06  -1.382944e+06
   4.365167e+06   9.054893e+05
   2.182567e+06   2.179902e+06
  -1.164214e+06   1.660675e+06
  -2.554025e+06  -1.932182e+04
  -8.477092e+05  -1.459641e+06
   1.905519e+06  -1.432251e+06
   2.778825e+06   2.081014e+05
   1.175755e+06   2.131651e+06
  -8.355494e+05   2.493607e+06
  -1.223605e+06   8.631169e+05
  -1.853036e+05  -1.026101e+06
   6.321114e+05  -1.067260e+06
   3.071720e+05   7.165021e+05
  -6.423370e+05   2.109965e+06
  -1.270808e+06   1.353311e+06
  -1.115986e+06  -7.347619e+05
  -2.385990e+05  -1.769559e+06
   8.393954e+05  -6.194021e+05
   1.135095e+06   1.381411e+06
  -6.238480e+04   2.045202e+06
  -2.047923e+06   6.701643e+05
  -2.891845e+06  -1.433759e+06
  -1.417516e+06  -2.429796e+06
   1.249940e+06  -1.655078e+06
   2.693591e+06   1.711058e+04
   1.750606e+06   1.159638e+06
  -3.732226e+05   1.037339e+06
  -1.557821e+06   8.276570e+04
  -9.493206e+05  -6.522385e+05
   4.372502e+05  -4.936431e+05
   9.969472e+05   2.963056e+05
   2.008678e+05   8.526096e+05
  -9.346205e+05   5.737406e+05
  -9.734362e+05  -2.926536e+05
   3.029646e+05  -8.627342e+05
   1.495518e+06  -4.286990e+05
   1.056298e+06   8.340964e+05
  -9.057378e+05   1.899879e+06
  -2.644293e+06   1.719677e+06
  -2.681883e+06   1.867785e+05
  -1.317231e+06  -1.673575e+06
  -4.555544e+03  -2.592006e+06
   4.008158e+05  -2.219435e+06
   3.279247e+05  -1.338345e+06
   5.842662e+05  -8.534299e+05
   1.293030e+06  -7.338108e+05
   1.864774e+06  -2.154755e+05
   1.685699e+06   9.683171e+05
   6.568237e+05   1.938174e+06
  -7.049709e+05   1.565140e+06
  -1.516988e+06  -1.017277e+05
  -1.116959e+06  -1.665164e+06
   2.874242e+05  -1.762767e+06
   1.608042e+06  -4.225892e+05
   1.792559e+06   1.100399e+06
   8.343524e+05   1.674837e+06
  -2.749799e+05   1.268361e+06
  -6.601417e+05   6.622632e+05
  -4.870266e+05   4.825683e+05
  -6.365433e+05   6.318506e+05
  -1.506928e+06   5.297302e+05
  -2.342827e+06  -2.367667e+05
  -1.946537e+06  -1.453104e+06
  -8.503533e+04  -2.349783e+06
   1.984880e+06  -2.178336e+06
   2.615336e+06  -8.903131e+05
   1.423415e+06   6.773256e+05
  -3.120342e+05   1.411745e+06
  -9.901703e+05   8.970354e+05
  -2.770549e+05  -1.743940e+05
   7.703934e+05  -6.643301e+05
   1.000504e+06  -1.506704e+05
   3.145426e+05   6.332855e+05
  -4.526218e+05   6.475001e+05
  -4.972516e+05  -1.893165e+05
   2.335921e+05  -7.965779e+05
   1.064925e+06  -1.531410e+05
   1.142798e+06   1.402802e+06
   1.170071e+05   2.368777e+06
  -1.454445e+06   1.649948e+06
  -2.405696e+06  -2.524785e+05
  -1.937113e+06  -1.768487e+06
  -4.239402e+05  -1.854236e+06
   8.704187e+05  -8.826640e+05
   1.013950e+06  -1.811671e+04
   2.908451e+05   3.509974e+04
  -2.123417e+05  -4.357555e+05
   1.559795e+05  -6.772440e+05
   9.246886e+05  -3.088093e+05
   1.091036e+06   3.578248e+05
   3.096094e+05   6.934235e+05
  -6.423367e+05   3.835073e+05
  -6.699958e+05  -2.562354e+05
   3.969580e+05  -5.521589e+05
   1.499740e+06  -1.004788e+05
   1.404736e+06   8.146725e+05
   2.914070e+04   1.425506e+06
  -1.422393e+06   1.161646e+06
  -1.684692e+06   1.975925e+05
  -6.862255e+05  -6.654848e+05
   4.841601e+05  -7.265469e+05
   7.434234e+05  -6.155260e+04
   1.471497e+04   5.401884e+05
  -8.614612e+05   3.834607e+05
  -1.021075e+06  -3.912278e+05
  -3.434470e+05  -9.595420e+05
   5.215645e+05  -7.309348e+05
   7.907364e+05  -2.685996e+03
   2.867938e+05   3.994281e+05
  -3.731750e+05   5.866048e+04
  -3.805812e+05  -5.980028e+05
   3.962496e+05  -7.997555e+05
   1.201249e+06  -2.369616e+05
   1.153817e+06   6.703360e+05
   2.016718e+05   1.198083e+06
  -8.028358e+05   9.512345e+05
  -9.944842e+05   1.716260e+05
  -3.560716e+05  -4.827461e+05
   3.596827e+05  -5.125613e+05
   4.674635e+05  -2.905428e+04
   2.577595e+03   3.789496e+05
  -4.286402e+05   2.885543e+05
  -3.409901e+05  -9.007084e+04
   1.296909e+05  -1.868238e+05
   3.854209e+05   2.136112e+05
   4.084033e+03   6.695119e+05
  -7.751747e+05   5.559652e+05
  -1.226244e+06  -2.378568e+05
  -8.381285e+05  -1.153569e+06
   1.578464e+05  -1.472007e+06
   9.999271e+05  -9.482889e+05
   1.133176e+06  -2.599247e+03
   6.899795e+05   6.629175e+05
   2.369848e+05   6.793075e+05
   1.289486e+05   3.098923e+05
   1.914128e+05   1.226378e+05
   2.296617e+04   3.368105e+05
  -4.719661e+05   5.622290e+05
  -9.032533e+05   2.775167e+05
  -7.525284e+05  -4.758123e+05
   7.771491e+04  -1.021667e+06
   1.056203e+06  -7.335244e+05
   1.399905e+06   2.799424e+05
   7.467324e+05   1.235478e+06
  -4.856091e+05   1.393527e+06
  -1.423260e+06   6.933267e+05
  -1.470114e+06  -2.658556e+05
  -7.690385e+05  -8.054008e+05
   2.127483e+04  -7.448629e+05
   3.679420e+05  -4.644376e+05
   2.866107e+05  -4.234310e+05
   1.879086e+05  -6.330241e+05
   3.726683e+05  -6.539129e+05
   7.012470e+05  -1.411454e+05
   7.506013e+05   6.755450e+05
   2.900776e+05   1.147792e+06
  -4.106130e+05   8.511486e+05
  -7.843072e+05   1.324770e+04
  -5.132971e+05  -7.081087e+05
   1.368705e+05  -8.203900e+05
   5.719969e+05  -3.650379e+05
   4.650365e+05   2.206355e+05
   5.826157e+04   5.294105e+05
  -1.508969e+05   4.896119e+05
   1.570827e+04   3.217128e+05
   2.203107e+05   2.449453e+05
   8.658125e+03   2.457433e+05
  -6.266570e+05   1.367020e+05
  -1.141605e+06  -1.838258e+05
  -9.536349e+05  -5.765525e+05
  -7.218593e+04  -7.752307e+05
   8.321716e+05  -6.277549e+05
   1.052411e+06  -2.260093e+05
   5.365632e+05   1.585656e+05
  -1.026181e+05   2.690889e+05
  -2.678518e+05   7.522633e+04
   3.042239e+04  -1.626817e+05
   3.154793e+05  -1.206611e+05
   2.652782e+05   2.141426e+05
   3.125203e+04   4.649575e+05
  -5.202127e+04   2.931349e+05
   9.768927e+04  -1.297015e+05
   2.572762e+05  -2.625865e+05
   1.829750e+05   1.309213e+05
  -1.530957e+05   6.246205e+05
  -5.474700e+05   6.050633e+05
  -6.885953e+05   1.614848e+04
  -3.692111e+05  -5.612323e+05
   2.632442e+05  -5.744545e+05
   6.824732e+05  -8.010475e+04
   4.131631e+05   3.894148e+05
  -4.029255e+05   4.019160e+05
  -1.002773e+06  -1.964100e+04
  -7.386398e+05  -5.075449e+05
   2.002747e+05  -6.817023e+05
   9.423490e+05  -4.207214e+05
   8.412151e+05   5.377998e+04
   1.296255e+05   3.392290e+05
  -3.837891e+05   2.059136e+05
  -1.933701e+05  -1.477981e+05
   4.099781e+05  -2.517637e+05
   6.993681e+05   1.485252e+05
   2.858474e+05   7.629638e+05
  -5.004176e+05   9.733075e+05
  -9.668496e+05   4.335984e+05
  -7.404599e+05  -5.240130e+05
  -7.327885e+04  -1.117898e+06
   4.790093e+05  -8.316729e+05
   5.832901e+05   5.838403e+04
   3.123250e+05   7.283024e+05
  -6.420106e+04   6.415457e+05
  -3.194378e+05   8.029155e+04
  -3.424175e+05  -2.563518e+05
  -1.684240e+05  -1.124885e+05
  -4.664474e+03   8.069722e+04
  -6.440112e+04  -1.326233e+05
  -2.558154e+05  -5.772340e+05
  -1.831259e+05  -6.820652e+05
   3.454799e+05  -2.478302e+05
   9.078599e+05   3.150069e+05
   8.490940e+05   5.383195e+05
   1.107009e+05   4.135687e+05
  -6.003512e+05   2.290970e+05
  -6.328443e+05   1.187068e+05
  -1.612383e+05   5.012772e+03
   1.209235e+05  -1.263999e+05
  -5.568658e+04  -1.691294e+05
  -2.463972e+05  -1.143037e+05
   6.833347e+03  -8.660807e+04
   5.022528e+05  -9.102448e+04
   6.248700e+05   5.957226e+04
   1.173068e+05   4.132008e+05
  -6.241076e+05   6.389710e+05
  -9.922813e+05   3.528716e+05
  -7.369275e+05  -3.458473e+05
  -9.450027e+04  -8.764304e+05
   4.792521e+05  -7.874322e+05
   6.488208e+05  -2.398250e+05
   4.029414e+05   2.076983e+05
   3.439402e+04   2.187800e+05
  -1.171369e+05  -1.470134e+04
   2.404311e+04  -6.695947e+04
   2.133836e+05   2.071228e+05
   1.625021e+05   4.986454e+05
  -1.445642e+05   3.889308e+05
  -4.251477e+05  -1.501591e+05
  -3.700208e+05  -6.531009e+05
   5.071215e+04  -6.177828e+05
   5.114830e+05  -4.817678e+04
   5.784404e+05   5.404756e+05
   1.264072e+05   6.657860e+05
  -4.642583e+05   3.301704e+05
  -6.363391e+05  -1.005591e+05
  -2.604742e+05  -3.313612e+05
   1.865059e+05  -3.304724e+05
   1.750193e+05  -1.969401e+05
  -2.209816e+05  -4.313463e+04
  -4.141450e+05  -7.844273e+03
  -5.526274e+04  -1.765645e+05
   5.215944e+05  -3.977344e+05
   7.205297e+05  -3.469898e+05
   3.873656e+05   7.134243e+04
  -9.004138e+04   4.958719e+05
  -2.968850e+05   4.755931e+05
  -1.898754e+05   3.562212e+04
   2.097374e+04  -3.209120e+05
   1.708610e+05  -2.175437e+05
   2.112678e+05   1.641108e+05
   1.261513e+05   3.603871e+05
  -6.074791e+04   1.984407e+05
  -2.322215e+05  -6.737388e+04
  -2.587735e+05  -1.395101e+05
  -1.447177e+05  -2.582306e+04
  -1.474349e+04   4.076756e+04
   5.099853e+04  -7.550898e+04
   9.437765e+04  -2.535342e+05
   1.721561e+05  -2.577326e+05
   2.374848e+05  -3.905468e+03
   1.782003e+05   3.186788e+05
  -4.001265e+04   4.047280e+05
  -2.895746e+05   1.448447e+05
  -3.497695e+05  -2.325194e+05
  -1.016220e+05  -3.811251e+05
   3.000918e+05  -1.963809e+05
   4.939150e+05   1.023088e+05
   2.591078e+05   2.457373e+05
  -1.898495e+05   1.849651e+05
  -3.760200e+05   5.877264e+04
  -1.018006e+05  -5.888740e+03
   2.812996e+05   2.380162e+04
   2.707791e+05   1.247495e+05
  -1.705767e+05   2.123668e+05
  -5.545952e+05   1.347633e+05
