
 $NMID
 id='ANONYMOUS ', fmtdat='(2E16.6)'
 volume=1.0
 tramp=1.0
 $END
   5.463030e+07  -6.459811e+05
   3.309010e+07   3.354515e+07
  -6.941051e+06   3.701067e+07
  -2.653786e+07   1.432787e+07
  -1.588180e+07  -6.723769e+06
   3.170594e+06  -9.018038e+06
   9.442580e+06   1.160756e+06
   2.697992e+06   9.383869e+06
  -5.889941e+06   8.978070e+06
  -9.258771e+06   1.974182e+06
  -6.830774e+06  -5.885841e+06
  -9.268543e+05  -8.271031e+06
   3.815733e+06  -2.732371e+06
   2.639379e+06   5.145806e+06
  -3.522167e+06   6.299315e+06
  -7.592503e+06  -1.228223e+06
  -4.392507e+06  -9.797296e+06
   3.523078e+06  -1.142923e+07
   9.707248e+06  -5.842130e+06
   1.051931e+07   1.835459e+06
   6.555198e+06   7.197094e+06
   7.765463e+05   8.443344e+06
  -2.831369e+06   5.925959e+06
  -1.856293e+06   2.537917e+06
   1.098699e+06   1.923544e+06
   3.970233e+05   3.969739e+06
  -5.064447e+06   4.386474e+06
  -9.297371e+06   7.187965e+05
  -6.899961e+06  -3.845450e+06
  -3.834896e+05  -4.929536e+06
   3.514648e+06  -2.631547e+06
   2.440231e+06  -1.280852e+05
  -4.444383e+05   9.191375e+05
  -2.104765e+06   5.988420e+05
  -2.178233e+06  -1.250363e+06
  -8.254367e+05  -3.763675e+06
   1.665557e+06  -3.791946e+06
   3.203096e+06   3.263789e+04
   1.762534e+06   3.534227e+06
  -7.653254e+05   1.939971e+06
  -4.511948e+05  -2.330355e+06
   2.299019e+06  -2.248458e+06
   2.384176e+06   3.054809e+06
  -2.315646e+06   5.934920e+06
  -6.756878e+06   1.016089e+06
  -5.038210e+06  -6.678212e+06
   1.778228e+06  -8.279837e+06
   7.161333e+06  -2.433252e+06
   6.747162e+06   4.180940e+06
   1.844324e+06   5.753481e+06
  -3.290814e+06   2.636641e+06
  -5.042672e+06  -1.392988e+06
  -2.347816e+06  -3.305529e+06
   2.313918e+06  -2.128605e+06
   4.371640e+06   8.447156e+05
   1.900057e+06   2.603132e+06
  -1.645136e+06   1.342205e+06
  -1.675402e+06  -9.565721e+05
   1.275586e+06  -8.612407e+05
   2.376074e+06   1.707013e+06
  -6.254119e+05   3.332386e+06
  -4.489666e+06   1.853751e+06
  -5.123549e+06  -1.281276e+06
  -2.266853e+06  -3.820320e+06
   1.647733e+06  -5.115771e+06
   4.721769e+06  -4.779545e+06
   5.945094e+06  -1.816111e+06
   4.504250e+06   2.963833e+06
   1.033936e+06   5.938328e+06
  -1.720533e+06   4.603113e+06
  -1.669505e+06   1.156376e+06
  -1.089746e+05  -2.660633e+05
   1.137034e+05   9.724009e+05
  -1.479053e+06   1.817964e+06
  -2.723551e+06   3.466698e+05
  -2.039488e+06  -1.784005e+06
  -1.177906e+05  -2.067066e+06
   1.465820e+06  -2.644379e+05
   1.667382e+06   1.927507e+06
   8.596179e+04   2.821804e+06
  -2.631010e+06   1.674159e+06
  -4.360293e+06  -1.045398e+06
  -3.201534e+06  -3.582862e+06
  -3.437165e+04  -4.111148e+06
   2.177696e+06  -2.674799e+06
   2.155851e+06  -1.122507e+06
   1.754896e+06  -6.713455e+05
   2.814751e+06  -5.068474e+05
   4.194129e+06   6.513688e+05
   3.407108e+06   2.591401e+06
   2.121599e+05   3.965947e+06
  -2.994990e+06   3.827214e+06
  -3.968428e+06   2.153385e+06
  -2.584218e+06  -3.284797e+05
  -3.422657e+05  -2.153440e+06
   1.005605e+06  -1.908264e+06
   5.510594e+05   1.566449e+04
  -1.015143e+06   1.294099e+06
  -1.836453e+06   4.259894e+05
  -9.236597e+05  -1.151524e+06
   4.664979e+05  -1.089329e+06
   4.059871e+05   3.608592e+05
  -1.022172e+06   6.600893e+05
  -1.787668e+06  -1.252024e+06
  -6.310269e+05  -3.353892e+06
   1.509376e+06  -3.261181e+06
   2.990032e+06  -1.065259e+06
   3.166820e+06   1.342788e+06
   2.213546e+06   2.582302e+06
   4.900138e+05   2.478660e+06
  -1.155262e+06   1.438873e+06
  -1.513821e+06   2.625909e+05
  -4.763781e+05  -3.360862e+04
   3.605527e+05   7.189438e+05
  -3.816708e+05   1.307953e+06
  -1.844540e+06   5.932275e+05
  -1.983620e+06  -8.316022e+05
  -3.894317e+05  -1.368319e+06
   1.122835e+06  -5.695556e+05
   8.554300e+05   4.193270e+05
  -8.108195e+05   4.959954e+05
  -2.085231e+06  -2.840509e+05
  -1.679328e+06  -1.263558e+06
   2.088075e+05  -1.880209e+06
   2.185514e+06  -1.627748e+06
   2.667239e+06  -3.164357e+05
   1.200388e+06   1.205979e+06
  -8.676369e+05   1.480493e+06
  -1.519498e+06   2.131204e+05
  -2.216837e+05  -1.051329e+06
   1.455421e+06  -7.452165e+05
   1.672779e+06   7.284911e+05
   3.436683e+05   1.587677e+06
  -1.043873e+06   9.465123e+05
  -1.211027e+06  -2.943415e+05
  -2.367208e+05  -7.528571e+05
   7.777080e+05  -6.294663e+04
   7.374174e+05   1.008044e+06
  -5.244217e+05   1.394082e+06
  -1.931342e+06   5.730644e+05
  -1.995070e+06  -9.716553e+05
  -4.131953e+05  -2.002009e+06
   1.366092e+06  -1.616678e+06
   1.666337e+06  -2.304136e+05
   4.949823e+05   8.320716e+05
  -6.237674e+05   7.845385e+05
  -6.020861e+05   9.034540e+04
   1.103765e+05  -3.319281e+05
   4.522104e+05  -1.982073e+05
   9.395037e+04   4.786485e+04
  -4.414427e+05  -9.340300e+04
  -4.993742e+05  -6.560797e+05
   1.912841e+05  -1.150636e+06
   1.322624e+06  -8.876087e+05
   2.020380e+06   3.611808e+05
   1.456887e+06   1.850697e+06
  -1.580728e+05   2.340819e+06
  -1.525579e+06   1.385582e+06
  -1.618712e+06  -9.370279e+04
  -8.304751e+05  -8.304445e+05
  -3.225891e+05  -5.916395e+05
  -4.865580e+05  -1.884790e+05
  -6.287070e+05  -3.024339e+05
  -1.023424e+05  -7.496547e+05
   8.335464e+05  -8.825978e+05
   1.385465e+06  -3.334038e+05
   1.014932e+06   6.687170e+05
  -2.168369e+05   1.395773e+06
  -1.636198e+06   1.059460e+06
  -2.173581e+06  -4.226116e+05
  -1.127220e+06  -2.006149e+06
   9.428663e+05  -2.302857e+06
   2.443632e+06  -1.033796e+06
   2.271909e+06   6.035647e+05
   9.272135e+05   1.267858e+06
  -1.866323e+05   8.943013e+05
  -3.462570e+05   4.867092e+05
  -3.510953e+04   7.390470e+05
  -6.446143e+04   1.284275e+06
  -6.284771e+05   1.269620e+06
  -1.252463e+06   3.368473e+05
  -1.319926e+06  -1.014559e+06
  -5.810773e+05  -1.818002e+06
   5.674984e+05  -1.402550e+06
   1.239318e+06  -2.213304e+04
   8.047309e+05   1.229326e+06
  -3.611701e+05   1.354531e+06
  -1.125182e+06   3.965775e+05
  -7.932528e+05  -6.806492e+05
   1.164703e+05  -1.050145e+06
   5.217411e+05  -7.580727e+05
   7.953890e+04  -3.928087e+05
  -4.312742e+05  -3.113242e+05
  -6.943304e+04  -3.677650e+05
   1.111914e+06  -2.225911e+05
   2.009597e+06   2.841690e+05
   1.582803e+06   9.744752e+05
  -2.198824e+04   1.393744e+06
  -1.528094e+06   1.136541e+06
  -1.766781e+06   2.959606e+05
  -8.060853e+05  -4.765667e+05
   2.495155e+05  -5.620798e+05
   4.966008e+05  -3.469875e+04
   4.187957e+04   4.190278e+05
  -4.167223e+05   2.649156e+05
  -4.757445e+05  -3.195654e+05
  -2.776936e+05  -6.921091e+05
  -1.183569e+05  -4.632126e+05
  -1.263445e+05   8.453053e+04
  -2.483872e+05   2.784375e+05
  -2.678745e+05  -2.193832e+05
   1.050816e+05  -9.527721e+05
   8.458508e+05  -1.053656e+06
   1.333249e+06  -2.075157e+05
   8.641829e+05   8.673390e+05
  -3.776657e+05   1.126325e+06
  -1.222319e+06   3.697647e+05
  -7.267083e+05  -5.313035e+05
   6.673839e+05  -6.381620e+05
   1.526893e+06   6.518896e+04
   9.663538e+05   8.113925e+05
  -4.602254e+05   9.477653e+05
  -1.427032e+06   4.710500e+05
  -1.175854e+06  -1.673314e+05
  -1.322798e+05  -4.873155e+05
   6.220426e+05  -2.651332e+05
   3.834855e+05   2.826330e+05
  -5.449669e+05   5.311588e+05
  -1.150918e+06  -3.279225e+04
  -7.007557e+05  -1.119918e+06
   5.033483e+05  -1.674877e+06
   1.402534e+06  -9.134898e+05
   1.237485e+06   6.902714e+05
   2.476764e+05   1.721822e+06
  -6.793453e+05   1.257966e+06
  -8.918556e+05  -1.609473e+05
  -4.309319e+05  -1.140216e+06
   2.062859e+05  -9.268524e+05
   5.458113e+05  -8.563013e+04
   4.450693e+05   3.467497e+05
   1.450079e+05   1.203002e+05
   5.041524e+04  -8.687512e+04
   3.015617e+05   2.940492e+05
   5.266761e+05   9.270336e+05
   1.915046e+05   1.029679e+06
  -7.045658e+05   3.924860e+05
  -1.433831e+06  -4.088071e+05
  -1.237858e+06  -7.713655e+05
  -1.940997e+05  -6.742700e+05
   7.942481e+05  -4.336639e+05
   9.377980e+05  -1.965363e+05
   3.650809e+05   5.553793e+04
  -1.268285e+05   2.254753e+05
  -5.091756e+04   1.840675e+05
   2.350210e+05   6.614508e+04
   6.339010e+04   1.270632e+05
  -6.060712e+05   2.624772e+05
  -1.017896e+06   2.924963e+04
  -4.796620e+05  -6.661994e+05
   7.535705e+05  -1.186794e+06
   1.642568e+06  -8.046958e+05
   1.416735e+06   3.605013e+05
   3.239659e+05   1.349139e+06
  -7.066368e+05   1.365568e+06
  -1.001751e+06   5.750699e+05
  -6.403088e+05  -1.867785e+05
  -1.538323e+05  -3.446903e+05
   4.317393e+04  -8.675767e+04
  -8.500434e+04  -1.789121e+03
  -2.885133e+05  -3.534704e+05
  -2.543558e+05  -7.734768e+05
   1.453552e+05  -6.710902e+05
   6.605757e+05   7.267073e+04
   7.694740e+05   8.778091e+05
   1.816908e+05   1.002222e+06
  -7.055767e+05   2.983487e+05
  -1.041548e+06  -6.343595e+05
  -3.968280e+05  -1.046768e+06
   6.637822e+05  -7.053836e+05
   1.102426e+06   2.449896e+04
   5.522680e+05   5.966339e+05
  -2.585400e+05   6.948404e+05
  -3.798475e+05   3.740511e+05
   2.136286e+05  -1.382180e+04
   6.210883e+05  -6.705449e+04
   1.623629e+05   2.995422e+05
  -7.749658e+05   6.836366e+05
  -1.222454e+06   5.451190e+05
  -7.707057e+05  -1.693392e+05
   6.025433e+04  -8.573780e+05
   5.297044e+05  -8.588019e+05
   4.369289e+05  -1.902362e+05
   8.630027e+04   4.520610e+05
  -2.116154e+05   4.470414e+05
  -3.477102e+05  -1.034229e+05
  -2.723312e+05  -5.492870e+05
   3.016732e+04  -4.405725e+05
   3.829111e+05   1.693706e+04
   4.789758e+05   2.730691e+05
   2.373311e+05   1.006759e+05
  -5.025652e+04  -1.660678e+05
  -7.810535e+04  -8.156559e+04
   6.356955e+04   3.286640e+05
   2.243390e+04   5.693247e+05
  -2.884655e+05   2.744919e+05
  -4.975985e+05  -3.211387e+05
  -2.255400e+05  -6.219302e+05
   3.707760e+05  -3.357957e+05
   6.750223e+05   2.280625e+05
   2.839958e+05   5.361111e+05
  -4.860146e+05   3.778319e+05
  -8.761220e+05  -2.705107e+04
  -4.878340e+05  -3.470144e+05
   2.706262e+05  -4.205736e+05
   6.202041e+05  -2.716461e+05
   2.643005e+05  -3.035539e+04
  -3.042580e+05   1.055968e+05
  -3.885109e+05  -1.279544e+04
   1.242299e+05  -2.727016e+05
   6.681686e+05  -2.983886e+05
