
 $NMID
 id='ANONYMOUS ', fmtdat='(2E16.6)'
 volume=1.0
 tramp=1.0
 $END
   4.464913e+07  -1.770811e+05
   2.752870e+07   2.631648e+07
  -4.692230e+06   2.989459e+07
  -2.135784e+07   1.303866e+07
  -1.368846e+07  -4.123806e+06
   1.913411e+06  -7.536224e+06
   8.044048e+06  -3.458067e+03
   3.110634e+06   7.634928e+06
  -4.359930e+06   8.357508e+06
  -7.789031e+06   2.357281e+06
  -5.893933e+06  -5.062115e+06
  -7.287229e+05  -7.308234e+06
   3.379843e+06  -2.150508e+06
   2.369327e+06   4.964058e+06
  -2.896439e+06   5.960928e+06
  -6.492489e+06  -6.702164e+05
  -3.951536e+06  -8.216285e+06
   2.773872e+06  -9.715615e+06
   8.098968e+06  -4.841477e+06
   8.609237e+06   1.771375e+06
   4.987789e+06   5.981631e+06
   3.545711e+05   6.496731e+06
  -1.892916e+06   4.411360e+06
  -5.687065e+05   2.376347e+06
   1.488163e+06   2.594347e+06
  -4.325000e+04   4.131289e+06
  -5.178544e+06   3.663591e+06
  -8.511186e+06   3.250629e+04
  -5.807379e+06  -3.714979e+06
   2.937885e+05  -4.190446e+06
   3.641380e+06  -1.789022e+06
   2.070923e+06   6.073719e+05
  -1.233573e+06   1.285181e+06
  -2.773216e+06   2.769381e+05
  -2.038253e+06  -1.890442e+06
  -1.495940e+05  -3.778585e+06
   1.736156e+06  -3.029785e+06
   2.295649e+06   4.981501e+05
   9.216867e+05   2.943094e+06
  -6.562069e+05   1.006739e+06
   1.846387e+04  -2.605996e+06
   2.214545e+06  -2.191304e+06
   2.185912e+06   2.481062e+06
  -1.502563e+06   4.978002e+06
  -5.101013e+06   1.014039e+06
  -4.044016e+06  -5.294976e+06
   1.266297e+06  -6.730933e+06
   5.949524e+06  -2.003278e+06
   6.052508e+06   3.608000e+06
   1.935015e+06   5.167781e+06
  -2.897841e+06   2.608618e+06
  -4.786953e+06  -1.002815e+06
  -2.454732e+06  -2.868077e+06
   1.794662e+06  -1.974086e+06
   3.781752e+06   5.570585e+05
   1.769818e+06   2.127099e+06
  -1.353802e+06   1.165949e+06
  -1.635593e+06  -8.159229e+05
   8.031618e+05  -1.011614e+06
   2.112025e+06   9.212397e+05
   3.554454e+04   2.475143e+06
  -3.271716e+06   1.711352e+06
  -4.283060e+06  -6.919679e+05
  -2.077789e+06  -3.059646e+06
   1.586084e+06  -4.446967e+06
   4.544711e+06  -4.110156e+06
   5.398344e+06  -1.328713e+06
   3.737789e+06   2.856956e+06
   7.001901e+05   5.351136e+06
  -1.405510e+06   4.251229e+06
  -1.334585e+06   1.439193e+06
  -3.688382e+05   2.095070e+05
  -5.425097e+05   1.000050e+06
  -1.907674e+06   1.338775e+06
  -2.672975e+06  -2.362777e+05
  -1.701724e+06  -2.161306e+06
   2.713556e+05  -2.165118e+06
   1.734647e+06  -1.146261e+05
   1.666580e+06   2.141582e+06
  -9.587129e+04   2.790988e+06
  -2.590934e+06   1.346412e+06
  -3.864806e+06  -1.261168e+06
  -2.606167e+06  -3.284833e+06
   1.111796e+05  -3.453358e+06
   1.826564e+06  -2.170635e+06
   1.732917e+06  -1.009600e+06
   1.529775e+06  -7.622975e+05
   2.677797e+06  -5.885606e+05
   4.023937e+06   5.886377e+05
   3.275736e+06   2.509755e+06
   1.628749e+05   3.870605e+06
  -3.044614e+06   3.669800e+06
  -4.004093e+06   1.888958e+06
  -2.459868e+06  -5.635787e+05
  -7.404452e+04  -2.158602e+06
   1.175907e+06  -1.737908e+06
   5.111631e+05   9.618945e+04
  -1.076988e+06   1.204814e+06
  -1.751368e+06   3.573970e+05
  -7.845971e+05  -1.102103e+06
   5.456770e+05  -1.057733e+06
   5.159438e+05   3.478276e+05
  -8.327180e+05   8.365129e+05
  -1.755459e+06  -8.090988e+05
  -9.695366e+05  -3.013678e+06
   1.022037e+06  -3.397776e+06
   2.792416e+06  -1.509120e+06
   3.342307e+06   1.082289e+06
   2.435879e+06   2.657883e+06
   5.189896e+05   2.606867e+06
  -1.224931e+06   1.407754e+06
  -1.531760e+06   1.794971e+05
  -4.684065e+05  -4.312488e+04
   3.465108e+05   7.084683e+05
  -3.457203e+05   1.228898e+06
  -1.723232e+06   5.500371e+05
  -1.892873e+06  -7.586149e+05
  -4.107655e+05  -1.283547e+06
   1.089333e+06  -5.708859e+05
   9.092947e+05   4.213111e+05
  -7.594981e+05   6.028880e+05
  -2.163137e+06  -1.676454e+05
  -1.823769e+06  -1.282211e+06
   1.487439e+05  -1.983781e+06
   2.206823e+06  -1.665799e+06
   2.654299e+06  -2.949264e+05
   1.152749e+06   1.160647e+06
  -8.391024e+05   1.368343e+06
  -1.408560e+06   1.705134e+05
  -1.558763e+05  -9.860187e+05
   1.423482e+06  -6.905089e+05
   1.642638e+06   7.028196e+05
   3.912250e+05   1.562873e+06
  -9.817560e+05   9.993443e+05
  -1.217738e+06  -2.123370e+05
  -2.964392e+05  -7.167346e+05
   7.182892e+05  -6.822453e+04
   6.866235e+05   9.877165e+05
  -5.605493e+05   1.343204e+06
  -1.913410e+06   4.975085e+05
  -1.925658e+06  -1.005004e+06
  -3.699705e+05  -1.961041e+06
   1.339966e+06  -1.565935e+06
   1.631458e+06  -2.308359e+05
   5.076267e+05   8.113359e+05
  -6.098477e+05   7.843862e+05
  -6.401157e+05   7.070112e+04
   8.092716e+04  -4.108779e+05
   5.218231e+05  -2.687828e+05
   2.255057e+05   8.171948e+04
  -3.720740e+05   2.327966e+04
  -5.288226e+05  -5.619425e+05
   1.379566e+05  -1.117948e+06
   1.292709e+06  -8.722978e+05
   1.982669e+06   3.769094e+05
   1.397169e+06   1.841629e+06
  -2.008593e+05   2.322336e+06
  -1.545140e+06   1.401064e+06
  -1.662459e+06  -7.719171e+04
  -8.958211e+05  -9.000417e+05
  -3.268446e+05  -7.358669e+05
  -3.945568e+05  -2.779523e+05
  -5.268789e+05  -2.689629e+05
  -7.933499e+04  -6.806096e+05
   8.091776e+05  -8.750795e+05
   1.394498e+06  -3.531544e+05
   1.056435e+06   6.992693e+05
  -1.997377e+05   1.453813e+06
  -1.646256e+06   1.072206e+06
  -2.170944e+06  -4.419937e+05
  -1.123915e+06  -1.988328e+06
   9.004344e+05  -2.256386e+06
   2.380842e+06  -1.032203e+06
   2.273576e+06   5.620009e+05
   9.998960e+05   1.272662e+06
  -1.493219e+05   9.749587e+05
  -4.212267e+05   5.532198e+05
  -1.645347e+05   7.092867e+05
  -1.395484e+05   1.189496e+06
  -6.195897e+05   1.188379e+06
  -1.203880e+06   2.939096e+05
  -1.265399e+06  -1.032977e+06
  -5.286678e+05  -1.810154e+06
   5.981685e+05  -1.373262e+06
   1.233190e+06  -1.297200e+04
   7.952260e+05   1.195717e+06
  -3.247207e+05   1.329362e+06
  -1.057987e+06   4.432642e+05
  -7.707853e+05  -5.825559e+05
   5.825873e+04  -9.823865e+05
   4.396704e+05  -7.585222e+05
   5.194398e+04  -4.260885e+05
  -4.011224e+05  -3.344759e+05
  -4.958567e+04  -3.718902e+05
   1.071267e+06  -2.131402e+05
   1.935709e+06   2.962706e+05
   1.545953e+06   9.607183e+05
   1.109224e+04   1.337535e+06
  -1.462760e+06   1.079216e+06
  -1.729484e+06   3.016140e+05
  -8.137854e+05  -4.125450e+05
   2.244115e+05  -5.174678e+05
   4.733065e+05  -5.713261e+04
   1.366728e+04   3.675905e+05
  -4.400808e+05   2.374507e+05
  -4.539115e+05  -3.262365e+05
  -2.025324e+05  -7.006460e+05
  -5.440559e+04  -4.593606e+05
  -1.360683e+05   1.189972e+05
  -2.980579e+05   3.143979e+05
  -2.715424e+05  -2.166193e+05
   1.525717e+05  -9.558993e+05
   8.535632e+05  -1.012979e+06
   1.252385e+06  -1.454580e+05
   7.693810e+05   8.715788e+05
  -3.925712e+05   1.052025e+06
  -1.172757e+06   2.881329e+05
  -6.961999e+05  -5.580092e+05
   6.592119e+05  -6.296861e+05
   1.536344e+06   6.595587e+04
   1.016072e+06   8.135222e+05
  -4.229100e+05   9.801856e+05
  -1.443905e+06   5.160414e+05
  -1.215648e+06  -1.517919e+05
  -1.493805e+05  -5.012092e+05
   6.167741e+05  -2.776677e+05
   3.567797e+05   2.682834e+05
  -5.752137e+05   4.835134e+05
  -1.128798e+06  -1.006587e+05
  -6.137313e+05  -1.141939e+06
   5.970527e+05  -1.618499e+06
   1.436686e+06  -8.291592e+05
   1.204561e+06   7.359178e+05
   1.943385e+05   1.726653e+06
  -7.085848e+05   1.262777e+06
  -8.959434e+05  -1.461223e+05
  -4.394132e+05  -1.141356e+06
   1.813121e+05  -9.479762e+05
   5.318299e+05  -9.422216e+04
   4.684912e+05   3.667013e+05
   1.790680e+05   1.393348e+05
   3.834044e+04  -9.875331e+04
   2.390801e+05   2.670371e+05
   4.809920e+05   9.201303e+05
   2.120914e+05   1.041341e+06
  -6.561833e+05   3.871396e+05
  -1.422879e+06  -4.434291e+05
  -1.256382e+06  -8.010635e+05
  -1.829009e+05  -6.657575e+05
   8.386842e+05  -4.026463e+05
   9.529481e+05  -1.855770e+05
   3.305211e+05   3.750883e+04
  -1.467198e+05   2.149761e+05
  -1.127814e+04   2.093078e+05
   2.782993e+05   1.035484e+05
   3.984248e+04   1.289464e+05
  -6.596701e+05   2.191847e+05
  -1.002372e+06  -1.464074e+04
  -3.845284e+05  -6.587853e+05
   8.257075e+05  -1.119723e+06
   1.614637e+06  -7.159363e+05
   1.329265e+06   4.213886e+05
   2.601399e+05   1.353247e+06
  -7.263707e+05   1.316767e+06
  -1.005460e+06   5.061152e+05
  -6.330477e+05  -2.326475e+05
  -1.208216e+05  -3.431779e+05
   8.482001e+04  -5.141313e+04
  -7.171922e+04   3.041736e+04
  -2.994706e+05  -3.464152e+05
  -2.482138e+05  -7.757042e+05
   1.735637e+05  -6.487734e+05
   6.581796e+05   1.263885e+05
   7.022635e+05   9.228123e+05
   9.559069e+04   9.875708e+05
  -7.322672e+05   2.241089e+05
  -9.910594e+05  -7.027793e+05
  -3.283708e+05  -1.043525e+06
   6.841374e+05  -6.413145e+05
   1.066064e+06   7.123362e+04
   5.039900e+05   5.739547e+05
  -2.709237e+05   6.373599e+05
  -3.488627e+05   3.518643e+05
   2.523056e+05   1.387961e+04
   6.274711e+05  -3.818048e+04
   1.371976e+05   2.921284e+05
  -7.899300e+05   6.576471e+05
  -1.194957e+06   5.357279e+05
  -7.187345e+05  -1.550661e+05
   8.967171e+04  -8.295291e+05
   5.136225e+05  -8.192893e+05
   3.934617e+05  -1.476655e+05
   4.626972e+04   4.654736e+05
  -2.299590e+05   4.116641e+05
  -3.392548e+05  -1.518851e+05
  -2.450006e+05  -5.536045e+05
   5.134678e+04  -3.993017e+05
   3.750261e+05   4.617383e+04
   4.542456e+05   2.584523e+05
   2.335225e+05   8.378121e+04
  -2.797750e+04  -1.342635e+05
  -8.021297e+04  -2.152761e+04
  -3.629367e+03   3.465374e+05
  -6.802653e+04   5.146063e+05
  -3.118171e+05   1.896633e+05
  -4.259744e+05  -3.751497e+05
  -1.333060e+05  -6.222745e+05
   3.960120e+05  -2.984518e+05
   6.317266e+05   2.719653e+05
   2.410559e+05   5.537617e+05
  -4.818640e+05   3.524217e+05
  -8.412603e+05  -7.227060e+04
  -4.589570e+05  -3.601300e+05
   2.795077e+05  -3.777563e+05
   6.090799e+05  -2.126534e+05
   2.317084e+05  -1.766752e+04
  -3.438203e+05   5.838480e+04
  -3.961044e+05  -7.114787e+04
   1.697860e+05  -2.876028e+05
   7.282610e+05  -2.641772e+05
