
 $NMID
 id='ANONYMOUS ', fmtdat='(2E16.6)'
 volume=1.0
 tramp=1.0
 $END
   3.630870e+07  -4.177787e+05
   2.322628e+07   2.027517e+07
  -2.648863e+06   2.421912e+07
  -1.710565e+07   1.195116e+07
  -1.189152e+07  -2.189616e+06
   9.508789e+05  -6.360022e+06
   6.902709e+06  -8.142856e+05
   3.339309e+06   6.243702e+06
  -3.196135e+06   7.702947e+06
  -6.562753e+06   2.574474e+06
  -5.078811e+06  -4.277937e+06
  -6.043295e+05  -6.367789e+06
   2.921497e+06  -1.701625e+06
   2.078393e+06   4.627013e+06
  -2.382199e+06   5.522254e+06
  -5.552856e+06  -2.346331e+05
  -3.578676e+06  -6.841470e+06
   2.096123e+06  -8.247374e+06
   6.671090e+06  -4.075234e+06
   7.011960e+06   1.550821e+06
   3.834106e+06   4.848608e+06
   1.907266e+05   4.939850e+06
  -1.113060e+06   3.320463e+06
   2.762883e+05   2.276338e+06
   1.598672e+06   2.954513e+06
  -3.640142e+05   4.019159e+06
  -4.991688e+06   2.999903e+06
  -7.584851e+06  -3.971566e+05
  -4.846386e+06  -3.417674e+06
   6.784842e+05  -3.479089e+06
   3.506143e+06  -1.139596e+06
   1.679820e+06   1.033433e+06
  -1.724349e+06   1.389121e+06
  -3.056111e+06  -1.580531e+04
  -1.794512e+06  -2.220871e+06
   3.156845e+05  -3.570427e+06
   1.663042e+06  -2.395045e+06
   1.574743e+06   7.131343e+05
   3.752412e+05   2.373886e+06
  -4.859169e+05   3.716617e+05
   3.585834e+05  -2.630341e+06
   2.075209e+06  -2.052841e+06
   1.997604e+06   2.005406e+06
  -8.697750e+05   4.210936e+06
  -3.829274e+06   1.075472e+06
  -3.316340e+06  -4.125170e+06
   7.979621e+05  -5.485568e+06
   4.895508e+06  -1.705124e+06
   5.372397e+06   3.067736e+06
   1.925019e+06   4.591575e+06
  -2.536882e+06   2.492885e+06
  -4.444205e+06  -7.201504e+05
  -2.436060e+06  -2.490849e+06
   1.385190e+06  -1.823329e+06
   3.262993e+06   3.238345e+05
   1.637372e+06   1.732226e+06
  -1.101826e+06   1.019305e+06
  -1.546695e+06  -6.982994e+05
   4.855833e+05  -1.099313e+06
   1.912982e+06   3.704769e+05
   5.133459e+05   1.876678e+06
  -2.351313e+06   1.628098e+06
  -3.606882e+06  -2.428340e+05
  -1.911553e+06  -2.439660e+06
   1.451940e+06  -3.822709e+06
   4.207348e+06  -3.489855e+06
   4.784449e+06  -9.699500e+05
   3.076996e+06   2.626080e+06
   4.706997e+05   4.722396e+06
  -1.142388e+06   3.861196e+06
  -1.097111e+06   1.577814e+06
  -5.613476e+05   4.798824e+05
  -9.478640e+05   9.151210e+05
  -2.067721e+06   9.256372e+05
  -2.474562e+06  -6.122105e+05
  -1.366479e+06  -2.292206e+06
   5.308774e+05  -2.100163e+06
   1.820029e+06   1.999386e+04
   1.562363e+06   2.197217e+06
  -2.237224e+05   2.635424e+06
  -2.435167e+06   1.065334e+06
  -3.355326e+06  -1.328749e+06
  -2.116808e+06  -2.920286e+06
   1.669922e+05  -2.871416e+06
   1.495602e+06  -1.772412e+06
   1.385380e+06  -9.180265e+05
   1.332879e+06  -7.963635e+05
   2.485802e+06  -6.091232e+05
   3.743303e+06   5.357768e+05
   3.040970e+06   2.360443e+06
   1.066433e+05   3.640058e+06
  -2.956534e+06   3.386732e+06
  -3.845002e+06   1.608985e+06
  -2.251114e+06  -6.953829e+05
   1.152869e+05  -2.046909e+06
   1.231399e+06  -1.532331e+06
   4.564326e+05   1.432961e+05
  -1.070458e+06   1.083649e+06
  -1.618243e+06   2.940782e+05
  -6.590683e+05  -1.016493e+06
   5.769545e+05  -9.820926e+05
   5.629331e+05   3.368675e+05
  -6.958956e+05   9.238080e+05
  -1.691141e+06  -4.998124e+05
  -1.152967e+06  -2.701503e+06
   7.005292e+05  -3.373483e+06
   2.593525e+06  -1.726176e+06
   3.325715e+06   9.064231e+05
   2.449313e+06   2.627101e+06
   4.869923e+05   2.582697e+06
  -1.223672e+06   1.313266e+06
  -1.471694e+06   1.069478e+05
  -4.421679e+05  -4.982922e+04
   3.188675e+05   6.723060e+05
  -3.091617e+05   1.126187e+06
  -1.571428e+06   4.977301e+05
  -1.754691e+06  -6.839442e+05
  -4.057405e+05  -1.178555e+06
   1.024623e+06  -5.429809e+05
   9.015989e+05   4.146740e+05
  -7.068322e+05   6.443102e+05
  -2.128356e+06  -1.070215e+05
  -1.827464e+06  -1.263218e+06
   1.258401e+05  -1.968676e+06
   2.139783e+06  -1.602018e+06
   2.532099e+06  -2.519967e+05
   1.069003e+06   1.085392e+06
  -7.842835e+05   1.234757e+06
  -1.274655e+06   1.361240e+05
  -1.062501e+05  -8.972754e+05
   1.341679e+06  -6.191815e+05
   1.550278e+06   6.644027e+05
   3.967173e+05   1.486410e+06
  -9.107553e+05   9.890581e+05
  -1.175215e+06  -1.591533e+05
  -3.204356e+05  -6.696463e+05
   6.499492e+05  -6.895853e+04
   6.195528e+05   9.322555e+05
  -5.641421e+05   1.245832e+06
  -1.816407e+06   4.164419e+05
  -1.788847e+06  -9.900397e+05
  -3.168570e+05  -1.849292e+06
   1.271744e+06  -1.459517e+06
   1.540699e+06  -2.134063e+05
   4.905016e+05   7.675890e+05
  -5.797115e+05   7.478121e+05
  -6.357114e+05   4.788733e+04
   6.782081e+04  -4.454130e+05
   5.513944e+05  -2.929514e+05
   2.963945e+05   1.123054e+05
  -3.216581e+05   1.000413e+05
  -5.289167e+05  -4.836865e+05
   1.027836e+05  -1.052448e+06
   1.222525e+06  -8.187312e+05
   1.869343e+06   3.808748e+05
   1.287282e+06   1.760911e+06
  -2.335310e+05   2.205741e+06
  -1.501865e+06   1.338860e+06
  -1.619916e+06  -7.805813e+04
  -8.873718e+05  -9.174475e+05
  -2.985476e+05  -7.991958e+05
  -3.093234e+05  -3.182701e+05
  -4.399569e+05  -2.310318e+05
  -6.225866e+04  -6.057888e+05
   7.641678e+05  -8.291586e+05
   1.344330e+06  -3.402835e+05
   1.030160e+06   6.994587e+05
  -1.949551e+05   1.428468e+06
  -1.590138e+06   1.022230e+06
  -2.071222e+06  -4.497292e+05
  -1.061653e+06  -1.898541e+06
   8.456373e+05  -2.127058e+06
   2.244936e+06  -9.761925e+05
   2.176611e+06   5.264513e+05
   9.945962e+05   1.233713e+06
  -1.322275e+05   9.867810e+05
  -4.603529e+05   5.629232e+05
  -2.425508e+05   6.478244e+05
  -1.816097e+05   1.070495e+06
  -5.883726e+05   1.081911e+06
  -1.119367e+06   2.498393e+05
  -1.167654e+06  -1.004190e+06
  -4.610081e+05  -1.726391e+06
   5.987254e+05  -1.288912e+06
   1.175508e+06   1.094807e+03
   7.497738e+05   1.127218e+06
  -2.941439e+05   1.256932e+06
  -9.762608e+05   4.526553e+05
  -7.275050e+05  -4.979396e+05
   1.938192e+04  -9.011772e+05
   3.732571e+05  -7.300566e+05
   3.760973e+04  -4.310436e+05
  -3.603826e+05  -3.351527e+05
  -3.185421e+04  -3.572472e+05
   9.998169e+05  -1.940935e+05
   1.802101e+06   2.981140e+05
   1.450557e+06   9.178046e+05
   2.758930e+04   1.246745e+06
  -1.360371e+06   9.917413e+05
  -1.633671e+06   2.838983e+05
  -7.862908e+05  -3.598014e+05
   1.984381e+05  -4.672160e+05
   4.402759e+05  -6.780202e+04
  -3.237979e+03   3.166405e+05
  -4.355179e+05   2.047963e+05
  -4.177147e+05  -3.177482e+05
  -1.402751e+05  -6.711674e+05
  -8.359291e+03  -4.322262e+05
  -1.401326e+05   1.342154e+05
  -3.221074e+05   3.177368e+05
  -2.608701e+05  -2.076977e+05
   1.831821e+05  -9.117854e+05
   8.251727e+05  -9.368992e+05
   1.142459e+06  -9.770970e+04
   6.693329e+05   8.340860e+05
  -3.861117e+05   9.552870e+05
  -1.085740e+06   2.196933e+05
  -6.407899e+05  -5.532636e+05
   6.291480e+05  -5.934730e+05
   1.475864e+06   7.464978e+04
   9.986264e+05   7.908218e+05
  -3.900700e+05   9.590849e+05
  -1.399797e+06   5.116422e+05
  -1.189122e+06  -1.467062e+05
  -1.494276e+05  -4.909598e+05
   5.897249e+05  -2.701023e+05
   3.237113e+05   2.476721e+05
  -5.691015e+05   4.258307e+05
  -1.059760e+06  -1.454880e+05
  -5.221480e+05  -1.103813e+06
   6.375337e+05  -1.501060e+06
   1.395361e+06  -7.270906e+05
   1.123017e+06   7.388363e+05
   1.399044e+05   1.652411e+06
  -7.056659e+05   1.204424e+06
  -8.602725e+05  -1.366488e+05
  -4.182412e+05  -1.096605e+06
   1.655486e+05  -9.215536e+05
   5.012927e+05  -9.326974e+04
   4.592397e+05   3.687463e+05
   1.906925e+05   1.495121e+05
   3.058301e+04  -1.028765e+05
   1.891966e+05   2.346641e+05
   4.254879e+05   8.755479e+05
   2.083046e+05   1.007132e+06
  -5.990757e+05   3.666963e+05
  -1.348870e+06  -4.551033e+05
  -1.206444e+06  -7.955360e+05
  -1.641088e+05  -6.319678e+05
   8.312338e+05  -3.562024e+05
   9.220041e+05  -1.629745e+05
   2.953902e+05   2.370230e+04
  -1.537181e+05   1.964081e+05
   1.113020e+04   2.196982e+05
   2.902632e+05   1.284832e+05
   2.199936e+04   1.229021e+05
  -6.635300e+05   1.731817e+05
  -9.455715e+05  -4.752701e+04
  -3.032392e+05  -6.204081e+05
   8.383412e+05  -1.017143e+06
   1.524737e+06  -6.198184e+05
   1.208212e+06   4.439372e+05
   1.986892e+05   1.294154e+06
  -7.125285e+05   1.222369e+06
  -9.622608e+05   4.331246e+05
  -5.958045e+05  -2.556519e+05
  -9.229320e+04  -3.255045e+05
   1.052864e+05  -2.253956e+04
  -6.297578e+04   5.036261e+04
  -2.918754e+05  -3.298794e+05
  -2.282595e+05  -7.448814e+05
   1.866250e+05  -6.030708e+05
   6.230435e+05   1.595413e+05
   6.191422e+05   9.110719e+05
   3.095115e+04   9.292461e+05
  -7.132535e+05   1.598307e+05
  -9.057716e+05  -7.188375e+05
  -2.636927e+05  -9.931151e+05
   6.667548e+05  -5.664316e+05
   9.925699e+05   1.022316e+05
   4.493964e+05   5.340973e+05
  -2.667139e+05   5.702530e+05
  -3.144841e+05   3.227250e+05
   2.638931e+05   3.591150e+04
   6.024496e+05  -1.331539e+04
   1.138259e+05   2.736589e+05
  -7.677784e+05   6.062189e+05
  -1.128723e+06   5.009870e+05
  -6.546574e+05  -1.397490e+05
   1.078891e+05  -7.729874e+05
   4.834219e+05  -7.566333e+05
   3.461589e+05  -1.149803e+05
   1.441616e+04   4.510691e+05
  -2.316607e+05   3.682376e+05
  -3.142460e+05  -1.779840e+05
  -2.129034e+05  -5.319421e+05
   6.197474e+04  -3.535880e+05
   3.511290e+05   6.476890e+04
   4.183443e+05   2.389483e+05
   2.218746e+05   7.059149e+04
  -1.421839e+04  -1.064487e+05
  -8.291281e+04   1.717592e+04
  -5.031968e+04   3.375330e+05
  -1.220016e+05   4.495045e+05
  -3.076575e+05   1.231400e+05
  -3.548067e+05  -3.905745e+05
  -6.428201e+04  -5.890289e+05
   3.940700e+05  -2.569631e+05
   5.713759e+05   2.890536e+05
   1.980190e+05   5.393245e+05
  -4.587313e+05   3.181048e+05
  -7.785222e+05  -1.008750e+05
  -4.172320e+05  -3.537196e+05
   2.721612e+05  -3.314769e+05
   5.723128e+05  -1.625685e+05
   1.999372e+05  -9.917385e+03
  -3.508852e+05   2.008216e+04
  -3.786657e+05  -1.087381e+05
   1.948118e+05  -2.799080e+05
   7.343939e+05  -2.211055e+05
