
 $NMID
 id='ANONYMOUS ', fmtdat='(2E16.6)'
 volume=1.0
 tramp=1.0
 $END
  -5.351273e+07   6.887588e+05
  -3.271068e+07  -3.282122e+07
   6.610333e+06  -3.642186e+07
   2.617731e+07  -1.425410e+07
   1.585457e+07   6.561831e+06
  -3.066890e+06   8.967025e+06
  -9.439802e+06  -1.094269e+06
  -2.742734e+06  -9.337534e+06
   5.883668e+06  -8.972082e+06
   9.211649e+06  -1.978343e+06
   6.692741e+06   5.832971e+06
   8.304767e+05   8.151448e+06
  -3.748838e+06   2.634520e+06
  -2.496036e+06  -5.143190e+06
   3.572525e+06  -6.250800e+06
   7.523137e+06   1.208266e+06
   4.320698e+06   9.672852e+06
  -3.484540e+06   1.125860e+07
  -9.531020e+06   5.721954e+06
  -1.027355e+07  -1.808399e+06
  -6.389839e+06  -6.996738e+06
  -8.123533e+05  -8.198079e+06
   2.663902e+06  -5.841380e+06
   1.780605e+06  -2.662617e+06
  -9.740563e+05  -2.063184e+06
  -2.269412e+05  -3.912141e+06
   5.061918e+06  -4.155548e+06
   9.109541e+06  -5.289054e+05
   6.697056e+06   3.837890e+06
   3.032643e+05   4.754405e+06
  -3.455672e+06   2.434605e+06
  -2.289788e+06   5.430840e+04
   5.930413e+05  -8.139237e+05
   2.120979e+06  -4.088408e+05
   2.023887e+06   1.337033e+06
   6.593652e+05   3.666630e+06
  -1.648715e+06   3.654546e+06
  -3.038290e+06  -1.915806e+04
  -1.679150e+06  -3.387453e+06
   6.606013e+05  -1.848527e+06
   3.038878e+05   2.285166e+06
  -2.334038e+06   2.186809e+06
  -2.364731e+06  -3.027695e+06
   2.247801e+06  -5.895358e+06
   6.616303e+06  -1.088342e+06
   4.970453e+06   6.515515e+06
  -1.708062e+06   8.148504e+06
  -7.028993e+06   2.384257e+06
  -6.640302e+06  -4.188673e+06
  -1.782556e+06  -5.745202e+06
   3.311777e+06  -2.597201e+06
   5.025608e+06   1.450096e+06
   2.326223e+06   3.335520e+06
  -2.295967e+06   2.125544e+06
  -4.327343e+06  -8.438204e+05
  -1.884450e+06  -2.584465e+06
   1.624122e+06  -1.323192e+06
   1.661777e+06   9.805519e+05
  -1.277807e+06   9.105673e+05
  -2.421215e+06  -1.656442e+06
   5.228846e+05  -3.333132e+06
   4.395875e+06  -1.903852e+06
   5.088776e+06   1.232494e+06
   2.257699e+06   3.771549e+06
  -1.668614e+06   5.003773e+06
  -4.711744e+06   4.604661e+06
  -5.848048e+06   1.693154e+06
  -4.358246e+06  -2.944903e+06
  -9.328475e+05  -5.841070e+06
   1.756094e+06  -4.557530e+06
   1.708754e+06  -1.182395e+06
   1.962229e+05   2.679662e+05
  -2.740803e+04  -8.731379e+05
   1.485142e+06  -1.665077e+06
   2.628933e+06  -2.303637e+05
   1.896840e+06   1.813003e+06
   1.243191e+04   2.011423e+06
  -1.468497e+06   1.692313e+05
  -1.576599e+06  -1.984367e+06
   1.395489e+03  -2.783319e+06
   2.612358e+06  -1.575230e+06
   4.239809e+06   1.100278e+06
   3.088087e+06   3.536932e+06
   1.355194e+04   4.016828e+06
  -2.132096e+06   2.617009e+06
  -2.123016e+06   1.116327e+06
  -1.760512e+06   6.648929e+05
  -2.818625e+06   4.585921e+05
  -4.156239e+06  -7.285233e+05
  -3.326638e+06  -2.645044e+06
  -1.161883e+05  -3.941284e+06
   3.065794e+06  -3.712195e+06
   3.973453e+06  -2.011006e+06
   2.518918e+06   3.979442e+05
   2.592297e+05   2.113959e+06
  -1.041935e+06   1.832879e+06
  -5.330197e+05  -3.196541e+04
   1.038125e+06  -1.245298e+06
   1.823925e+06  -3.821109e+05
   8.849354e+05   1.146893e+06
  -4.970240e+05   1.057949e+06
  -4.072126e+05  -3.870140e+05
   1.047409e+06  -6.758721e+05
   1.814493e+06   1.251424e+06
   6.215852e+05   3.381506e+06
  -1.570101e+06   3.296475e+06
  -3.059231e+06   1.050723e+06
  -3.174504e+06  -1.426991e+06
  -2.143613e+06  -2.672922e+06
  -4.046525e+05  -2.498197e+06
   1.190467e+06  -1.389031e+06
   1.503793e+06  -2.108694e+05
   4.713818e+05   4.595332e+04
  -3.406269e+05  -7.231680e+05
   3.999740e+05  -1.292228e+06
   1.837021e+06  -5.569634e+05
   1.958140e+06   8.618042e+05
   3.662476e+05   1.370680e+06
  -1.132204e+06   5.433212e+05
  -8.464522e+05  -4.495440e+05
   8.329003e+05  -4.907009e+05
   2.095176e+06   3.399133e+05
   1.649591e+06   1.327657e+06
  -2.688867e+05   1.886360e+06
  -2.228842e+06   1.563633e+06
  -2.661575e+06   2.439772e+05
  -1.166476e+06  -1.222705e+06
   8.846024e+05  -1.446695e+06
   1.503728e+06  -1.848746e+05
   1.970795e+05   1.038064e+06
  -1.459213e+06   7.039999e+05
  -1.648884e+06  -7.639309e+05
  -3.077660e+05  -1.596772e+06
   1.068791e+06  -9.295520e+05
   1.212641e+06   3.199817e+05
   2.265879e+05   7.634233e+05
  -7.728229e+05   5.235491e+04
  -7.074513e+05  -1.014312e+06
   5.543661e+05  -1.365492e+06
   1.926262e+06  -5.162534e+05
   1.950874e+06   1.013269e+06
   3.608985e+05   1.995578e+06
  -1.394329e+06   1.573925e+06
  -1.663573e+06   1.900717e+05
  -4.750161e+05  -8.430613e+05
   6.418017e+05  -7.674726e+05
   6.031487e+05  -6.599932e+04
  -1.282802e+05   3.399573e+05
  -4.730832e+05   1.813852e+05
  -9.905346e+04  -7.346614e+04
   4.489851e+05   8.347121e+04
   4.972717e+05   6.628033e+05
  -2.110941e+05   1.146516e+06
  -1.336062e+06   8.525963e+05
  -1.997583e+06  -4.088916e+05
  -1.398536e+06  -1.872466e+06
   2.208273e+05  -2.319645e+06
   1.561230e+06  -1.337954e+06
   1.616576e+06   1.421335e+05
   7.996761e+05   8.659337e+05
   2.829931e+05   6.112464e+05
   4.574761e+05   1.939369e+05
   6.146533e+05   2.988063e+05
   9.099694e+04   7.394991e+05
  -8.501789e+05   8.600754e+05
  -1.392549e+06   2.958957e+05
  -9.920471e+05  -7.018583e+05
   2.604583e+05  -1.392305e+06
   1.660836e+06  -1.011709e+06
   2.151008e+06   4.799529e+05
   1.072376e+06   2.026775e+06
  -9.896501e+05   2.272158e+06
  -2.456616e+06   9.747427e+05
  -2.254322e+06  -6.586717e+05
  -8.956252e+05  -1.300002e+06
   2.192754e+05  -8.990933e+05
   3.750290e+05  -4.697074e+05
   6.137463e+04  -7.123490e+05
   9.019421e+04  -1.257649e+06
   6.465121e+05  -1.242458e+06
   1.245865e+06  -3.061062e+05
   1.280397e+06   1.039099e+06
   5.271341e+05   1.817998e+06
  -6.009844e+05   1.374981e+06
  -1.233585e+06  -1.081649e+04
  -7.736344e+05  -1.241902e+06
   3.887727e+05  -1.343599e+06
   1.133199e+06  -3.799779e+05
   7.858600e+05   6.870349e+05
  -1.280840e+05   1.046495e+06
  -5.328495e+05   7.545972e+05
  -9.266258e+04   3.966343e+05
   4.149268e+05   3.187853e+05
   5.699009e+04   3.652893e+05
  -1.108502e+06   1.978110e+05
  -1.986110e+06  -3.257889e+05
  -1.550081e+06  -1.005951e+06
   4.703384e+04  -1.388539e+06
   1.537924e+06  -1.097149e+06
   1.765977e+06  -2.541812e+05
   8.014360e+05   4.919620e+05
  -2.542098e+05   5.534060e+05
  -4.971683e+05   2.705943e+04
  -3.622292e+04  -4.093257e+05
   4.198603e+05  -2.464250e+05
   4.623064e+05   3.281939e+05
   2.500701e+05   6.855870e+05
   1.004466e+05   4.540795e+05
   1.343875e+05  -8.231824e+04
   2.649341e+05  -2.662114e+05
   2.618766e+05   2.257042e+05
  -1.345306e+05   9.389774e+05
  -8.647449e+05   1.022584e+06
  -1.316715e+06   1.789483e+05
  -8.288826e+05  -8.722696e+05
   3.956310e+05  -1.103165e+06
   1.210133e+06  -3.365259e+05
   7.028192e+05   5.461994e+05
  -6.798668e+05   6.185042e+05
  -1.520187e+06  -1.073078e+05
  -9.451879e+05  -8.422833e+05
   4.856579e+05  -9.407782e+05
   1.443024e+06  -4.325544e+05
   1.173128e+06   2.030258e+05
   1.181045e+05   4.930540e+05
  -6.284682e+05   2.495885e+05
  -3.745933e+05  -2.863036e+05
   5.521792e+05  -5.057080e+05
   1.133070e+06   6.580146e+04
   6.570894e+05   1.122537e+06
  -5.455127e+05   1.635264e+06
  -1.411284e+06   8.596696e+05
  -1.204213e+06  -7.195806e+05
  -1.952486e+05  -1.713961e+06
   7.137944e+05  -1.230952e+06
   8.870536e+05   1.834488e+05
   3.995905e+05   1.149010e+06
  -2.313479e+05   9.239710e+05
  -5.462532e+05   7.389496e+04
  -4.331633e+05  -3.628800e+05
  -1.413235e+05  -1.309445e+05
  -5.343059e+04   8.821113e+04
  -2.914329e+05  -2.885503e+05
  -4.970836e+05  -9.297943e+05
  -1.632744e+05  -1.035481e+06
   7.073299e+05  -3.795962e+05
   1.411160e+06   4.469350e+05
   1.209639e+06   8.072199e+05
   1.757950e+05   6.743781e+05
  -8.018690e+05   4.009327e+05
  -9.392035e+05   1.673975e+05
  -3.620664e+05  -5.787211e+04
   1.325257e+05  -2.171085e+05
   5.620513e+04  -1.906328e+05
  -2.302956e+05  -8.242399e+04
  -5.746124e+04  -1.246524e+05
   6.086504e+05  -2.329036e+05
   1.006560e+06  -6.215161e+02
   4.528667e+05   6.605760e+05
  -7.781506e+05   1.144772e+06
  -1.641268e+06   7.545264e+05
  -1.384307e+06  -3.883092e+05
  -2.804413e+05  -1.342923e+06
   7.343149e+05  -1.334226e+06
   1.002617e+06  -5.395797e+05
   6.250085e+05   2.060356e+05
   1.414549e+05   3.420875e+05
  -4.333902e+04   7.544976e+04
   8.863875e+04  -9.816314e+02
   2.801972e+05   3.609989e+05
   2.319630e+05   7.767116e+05
  -1.616582e+05   6.583232e+05
  -6.474470e+05  -9.441913e+04
  -7.300512e+05  -8.883906e+05
  -1.489353e+05  -9.882790e+05
   7.014207e+05  -2.674814e+05
   1.005286e+06   6.578410e+05
   3.618572e+05   1.042207e+06
  -6.716485e+05   6.760969e+05
  -1.086973e+06  -5.208781e+04
  -5.337454e+05  -5.993458e+05
   2.679045e+05  -6.783219e+05
   3.820955e+05  -3.656588e+05
  -2.121610e+05  -6.832272e+02
  -6.165004e+05   4.665551e+04
  -1.527242e+05  -2.980342e+05
   7.875430e+05  -6.557461e+05
   1.228599e+06  -5.141366e+05
   7.610392e+05   1.796257e+05
  -8.106430e+04   8.454249e+05
  -5.428703e+05   8.406100e+05
  -4.296287e+05   1.810998e+05
  -6.817159e+04  -4.474429e+05
   2.186801e+05  -4.336334e+05
   3.350886e+05   1.152911e+05
   2.535500e+05   5.505228e+05
  -3.703804e+04   4.310501e+05
  -3.756527e+05  -2.844274e+04
  -4.701051e+05  -2.795665e+05
  -2.361592e+05  -1.045171e+05
   4.879890e+04   1.603683e+05
   8.553209e+04   7.831805e+04
  -4.566482e+04  -3.199258e+05
  -7.889354e+03  -5.483486e+05
   2.831378e+05  -2.544173e+05
   4.720803e+05   3.265260e+05
   1.998125e+05   6.108175e+05
  -3.746043e+05   3.172660e+05
  -6.555167e+05  -2.421608e+05
  -2.619876e+05  -5.363720e+05
   4.898361e+05  -3.619026e+05
   8.618034e+05   4.872595e+04
   4.721132e+05   3.552836e+05
  -2.747603e+05   4.065687e+05
  -6.146991e+05   2.506124e+05
  -2.591682e+05   2.729255e+04
   3.019337e+05  -8.648017e+04
   3.780364e+05   2.959695e+04
  -1.375626e+05   2.624000e+05
  -6.735893e+05   2.667110e+05
