
 $NMID
 id='ANONYMOUS ', fmtdat='(2E16.6)'
 volume=1.0
 tramp=1.0
 $END
  -1.473538e+07   7.545591e+05
  -1.055889e+07  -6.357201e+06
  -7.089083e+05  -9.523321e+06
   6.267354e+06  -6.845472e+06
   5.723425e+06  -9.909690e+05
   5.603726e+05   2.810201e+06
  -3.170022e+06   1.602525e+06
  -2.562586e+06  -2.420133e+06
   5.855117e+05  -4.389361e+06
   2.861507e+06  -2.071703e+06
   2.532202e+06   1.892119e+06
   3.780621e+05   3.197385e+06
  -1.437618e+06   6.730175e+05
  -1.200941e+06  -2.693033e+06
   8.507464e+05  -3.236802e+06
   2.596180e+06  -4.323949e+05
   2.050093e+06   2.927553e+06
  -5.132716e+05   3.838596e+06
  -2.790732e+06   1.911243e+06
  -2.901298e+06  -7.500469e+05
  -1.265719e+06  -1.974192e+06
   1.019768e+05  -1.536041e+06
  -1.263735e+05  -8.927230e+05
  -1.253559e+06  -1.278434e+06
  -1.388063e+06  -2.335479e+06
   4.734502e+05  -2.650859e+06
   3.136059e+06  -1.427539e+06
   4.126644e+06   6.040224e+05
   2.245189e+06   1.912991e+06
  -8.770965e+05   1.606611e+06
  -2.266006e+06   1.327162e+05
  -7.865009e+05  -1.189090e+06
   1.666226e+06  -1.207752e+06
   2.442722e+06   1.830244e+05
   1.071168e+06   1.850920e+06
  -6.421927e+05   2.254780e+06
  -1.038241e+06   9.337183e+05
  -2.838056e+05  -7.805094e+05
   3.767227e+05  -1.008386e+06
   2.132083e+05   4.980074e+05
  -5.280984e+05   1.874208e+06
  -1.176860e+06   1.289495e+06
  -1.137941e+06  -7.462602e+05
  -2.049900e+05  -1.886150e+06
   1.047672e+06  -7.574568e+05
   1.377522e+06   1.398189e+06
   3.891005e+04   2.211795e+06
  -2.053397e+06   8.406416e+05
  -2.878052e+06  -1.327456e+06
  -1.388344e+06  -2.352284e+06
   1.208115e+06  -1.597278e+06
   2.588326e+06   2.712522e+04
   1.667979e+06   1.144544e+06
  -4.059267e+05   1.048092e+06
  -1.575210e+06   1.066396e+05
  -9.607916e+05  -6.618526e+05
   4.311553e+05  -5.227727e+05
   9.513945e+05   2.846370e+05
   1.017950e+05   8.153394e+05
  -9.890907e+05   4.408514e+05
  -8.887085e+05  -4.727898e+05
   4.594522e+05  -9.559124e+05
   1.587157e+06  -4.039255e+05
   1.101357e+06   8.713429e+05
  -7.643318e+05   1.893109e+06
  -2.402310e+06   1.754647e+06
  -2.532249e+06   3.375709e+05
  -1.379393e+06  -1.481419e+06
  -1.462046e+05  -2.472992e+06
   3.661121e+05  -2.159442e+06
   3.766858e+05  -1.236712e+06
   5.421134e+05  -6.942154e+05
   1.090407e+06  -6.220751e+05
   1.611672e+06  -2.526972e+05
   1.524693e+06   7.828348e+05
   6.461100e+05   1.698615e+06
  -5.862754e+05   1.405616e+06
  -1.351690e+06  -8.311882e+04
  -1.032846e+06  -1.502243e+06
   2.167563e+05  -1.628334e+06
   1.463784e+06  -4.670913e+05
   1.737348e+06   9.185362e+05
   9.219982e+05   1.536694e+06
  -1.505514e+05   1.275956e+06
  -6.129466e+05   7.425218e+05
  -5.064840e+05   5.165421e+05
  -6.326828e+05   6.024254e+05
  -1.427682e+06   5.081413e+05
  -2.216172e+06  -1.900779e+05
  -1.854982e+06  -1.332417e+06
  -1.200722e+05  -2.195353e+06
   1.800395e+06  -2.066275e+06
   2.390402e+06  -8.936017e+05
   1.326462e+06   5.641771e+05
  -2.326795e+05   1.287173e+06
  -8.661093e+05   8.543939e+05
  -2.574127e+05  -1.418709e+05
   6.904284e+05  -6.335665e+05
   9.357568e+05  -1.701631e+05
   3.268402e+05   5.794014e+05
  -3.980224e+05   6.034882e+05
  -4.472941e+05  -1.847697e+05
   2.591726e+05  -7.336001e+05
   1.040386e+06  -8.288330e+04
   1.056174e+06   1.385155e+06
   3.727451e+04   2.230373e+06
  -1.415673e+06   1.496172e+06
  -2.238396e+06  -2.726486e+05
  -1.774530e+06  -1.636695e+06
  -3.942665e+05  -1.702402e+06
   7.862516e+05  -8.274266e+05
   9.312911e+05  -3.870189e+04
   2.712169e+05   2.734646e+04
  -2.050950e+05  -4.034399e+05
   1.361689e+05  -6.481070e+05
   8.724455e+05  -3.159705e+05
   1.040698e+06   3.246380e+05
   3.000220e+05   6.579057e+05
  -5.991978e+05   3.660350e+05
  -6.163021e+05  -2.370901e+05
   3.836337e+05  -5.049626e+05
   1.393240e+06  -8.052711e+04
   1.288623e+06   7.561110e+05
   2.021056e+04   1.314725e+06
  -1.312104e+06   1.085794e+06
  -1.564886e+06   2.051806e+05
  -6.573823e+05  -6.146759e+05
   4.361340e+05  -7.019349e+05
   7.046272e+05  -8.319016e+04
   3.662607e+04   5.060711e+05
  -7.969872e+05   3.773581e+05
  -9.610934e+05  -3.549626e+05
  -3.235555e+05  -8.980549e+05
   4.936124e+05  -6.826061e+05
   7.427159e+05   3.975372e+03
   2.644614e+05   3.807111e+05
  -3.568148e+05   6.329746e+04
  -3.701283e+05  -5.506685e+05
   3.496743e+05  -7.523039e+05
   1.110143e+06  -2.463344e+05
   1.087684e+06   5.995564e+05
   2.106638e+05   1.114627e+06
  -7.364161e+05   9.036929e+05
  -9.290415e+05   1.730090e+05
  -3.359745e+05  -4.500976e+05
   3.317146e+05  -4.815988e+05
   4.260053e+05  -3.088346e+04
  -7.143925e+03   3.423186e+05
  -3.917468e+05   2.534726e+05
  -2.926546e+05  -8.866285e+04
   1.425926e+05  -1.629304e+05
   3.655779e+05   2.136975e+05
   4.840181e+03   6.337625e+05
  -7.190549e+05   5.303238e+05
  -1.147522e+06  -2.028281e+05
  -8.016252e+05  -1.060134e+06
   1.234375e+05  -1.369312e+06
   9.191351e+05  -8.872079e+05
   1.048462e+06  -6.243584e+03
   6.302753e+05   6.050952e+05
   2.114508e+05   6.060926e+05
   1.289509e+05   2.626397e+05
   1.996150e+05   1.072417e+05
   3.563542e+04   3.222268e+05
  -4.368656e+05   5.314359e+05
  -8.381801e+05   2.627048e+05
  -6.946500e+05  -4.346295e+05
   7.125468e+04  -9.433347e+05
   9.750568e+05  -6.894131e+05
   1.303297e+06   2.433277e+05
   7.089401e+05   1.144508e+06
  -4.403505e+05   1.312949e+06
  -1.327275e+06   6.655005e+05
  -1.373985e+06  -2.399878e+05
  -7.106026e+05  -7.483354e+05
   2.708073e+04  -6.835152e+05
   3.321923e+05  -4.167733e+05
   2.379167e+05  -3.881385e+05
   1.463031e+05  -5.985346e+05
   3.332706e+05  -6.262378e+05
   6.544543e+05  -1.502754e+05
   7.118488e+05   6.123073e+05
   2.904818e+05   1.060601e+06
  -3.654906e+05   7.973148e+05
  -7.293958e+05   2.209970e+04
  -4.893549e+05  -6.582087e+05
   1.227512e+05  -7.723314e+05
   5.444436e+05  -3.443034e+05
   4.485751e+05   2.146489e+05
   5.669731e+04   5.091220e+05
  -1.492610e+05   4.652713e+05
   9.736978e+03   2.963947e+05
   2.099558e+05   2.187419e+05
   1.332800e+04   2.257968e+05
  -5.873546e+05   1.390438e+05
  -1.074689e+06  -1.502389e+05
  -9.001434e+05  -5.254696e+05
  -7.497158e+04  -7.330864e+05
   7.728280e+05  -6.082393e+05
   9.834064e+05  -2.233906e+05
   5.059285e+05   1.536721e+05
  -9.238470e+04   2.613009e+05
  -2.546083e+05   7.126632e+04
   1.667205e+04  -1.572846e+05
   2.855356e+05  -1.175190e+05
   2.518082e+05   1.932079e+05
   4.524669e+04   4.229964e+05
  -3.448774e+04   2.671876e+05
   9.157309e+04  -1.148820e+05
   2.322539e+05  -2.356107e+05
   1.711640e+05   1.209213e+05
  -1.287926e+05   5.771150e+05
  -4.979183e+05   5.740696e+05
  -6.473952e+05   4.033612e+04
  -3.641925e+05  -5.079577e+05
   2.291234e+05  -5.476955e+05
   6.338317e+05  -9.985299e+04
   3.904219e+05   3.505850e+05
  -3.713293e+05   3.800358e+05
  -9.312667e+05  -9.316233e+03
  -6.835197e+05  -4.696715e+05
   1.891830e+05  -6.345208e+05
   8.742603e+05  -3.913020e+05
   7.779563e+05   4.852602e+04
   1.195942e+05   3.137169e+05
  -3.571195e+05   1.937071e+05
  -1.871882e+05  -1.352152e+05
   3.689411e+05  -2.429383e+05
   6.486000e+05   1.177836e+05
   2.854931e+05   6.942133e+05
  -4.345487e+05   9.098710e+05
  -8.806657e+05   4.232417e+05
  -6.946049e+05  -4.691685e+05
  -8.745097e+04  -1.032762e+06
   4.330598e+05  -7.744196e+05
   5.439559e+05   5.151181e+04
   2.960584e+05   6.750598e+05
  -5.982143e+04   5.963905e+05
  -2.995544e+05   7.777974e+04
  -3.150171e+05  -2.342132e+05
  -1.501001e+05  -1.033339e+05
  -6.773726e+03   7.437071e+04
  -7.436461e+04  -1.207782e+05
  -2.518684e+05  -5.308248e+05
  -1.723499e+05  -6.327775e+05
   3.264100e+05  -2.397533e+05
   8.457340e+05   2.772429e+05
   7.888641e+05   4.893902e+05
   1.097402e+05   3.838637e+05
  -5.455751e+05   2.195294e+05
  -5.838163e+05   1.168410e+05
  -1.575391e+05   6.797121e+03
   1.068322e+05  -1.184398e+05
  -4.425967e+04  -1.566655e+05
  -2.192280e+05  -1.021764e+05
   1.810345e+03  -7.789315e+04
   4.528967e+05  -9.122469e+04
   5.798334e+05   4.042958e+04
   1.297247e+05   3.746049e+05
  -5.553384e+05   6.041158e+05
  -9.149878e+05   3.555349e+05
  -6.970834e+05  -2.953412e+05
  -1.066389e+05  -8.070035e+05
   4.297859e+05  -7.431663e+05
   5.934322e+05  -2.404671e+05
   3.732798e+05   1.808974e+05
   3.975177e+04   2.000102e+05
  -9.852696e+04  -1.095263e+04
   2.724675e+04  -5.852487e+04
   1.993871e+05   1.928810e+05
   1.567776e+05   4.612051e+05
  -1.236819e+05   3.639419e+05
  -3.917414e+05  -1.263495e+05
  -3.570533e+05  -5.894238e+05
   2.530565e+04  -5.686491e+05
   4.631613e+05  -5.939890e+04
   5.446312e+05   4.804664e+05
   1.357938e+05   6.115081e+05
  -4.186063e+05   3.201895e+05
  -5.940871e+05  -7.581063e+04
  -2.558645e+05  -3.044749e+05
   1.622819e+05  -3.174813e+05
   1.637448e+05  -1.917506e+05
  -1.966748e+05  -3.732981e+04
  -3.812506e+05   8.860136e+02
  -5.807829e+04  -1.623318e+05
   4.760934e+05  -3.778048e+05
   6.703975e+05  -3.341601e+05
   3.711118e+05   5.959439e+04
  -7.114285e+04   4.636942e+05
  -2.701033e+05   4.534867e+05
  -1.791106e+05   4.655257e+04
   1.109587e+04  -2.923337e+05
   1.501034e+05  -2.080087e+05
   1.945197e+05   1.416438e+05
   1.249527e+05   3.304380e+05
  -4.678859e+04   1.898521e+05
  -2.149447e+05  -5.472126e+04
  -2.476698e+05  -1.271182e+05
  -1.372342e+05  -2.502481e+04
  -6.332788e+03   4.105861e+04
   5.253641e+04  -6.051890e+04
   7.596807e+04  -2.268309e+05
   1.369114e+05  -2.411804e+05
   2.082155e+05  -1.766353e+04
   1.752089e+05   2.782937e+05
  -1.795206e+04   3.672696e+05
  -2.598784e+05   1.411613e+05
  -3.302768e+05  -2.010931e+05
  -1.035606e+05  -3.461406e+05
   2.752823e+05  -1.902391e+05
   4.615366e+05   7.922769e+04
   2.468475e+05   2.208778e+05
  -1.688831e+05   1.800973e+05
  -3.449319e+05   6.929939e+04
  -9.886139e+04   9.958078e+02
   2.504103e+05   1.562022e+04
   2.457844e+05   1.044558e+05
  -1.505358e+05   1.920038e+05
  -5.009872e+05   1.302498e+05
