
 $NMID
 id='ANONYMOUS ', fmtdat='(2E16.6)'
 volume=1.0
 tramp=1.0
 $END
   4.563748e+07   1.544315e+06
   2.711262e+07   2.748272e+07
  -5.655628e+06   3.009690e+07
  -2.198189e+07   1.285659e+07
  -1.381483e+07  -4.213724e+06
   2.011132e+06  -7.567274e+06
   8.159099e+06  -2.883085e+04
   3.147558e+06   7.759817e+06
  -4.472115e+06   8.591355e+06
  -7.986602e+06   2.366187e+06
  -5.958221e+06  -5.405783e+06
  -5.529157e+05  -7.645883e+06
   3.614674e+06  -2.088595e+06
   2.412800e+06   5.335244e+06
  -3.055467e+06   6.211300e+06
  -6.633518e+06  -7.829371e+05
  -3.868193e+06  -8.535237e+06
   3.098881e+06  -9.906389e+06
   8.480365e+06  -4.691141e+06
   8.768390e+06   2.196527e+06
   4.784521e+06   6.371925e+06
  -1.495653e+04   6.573376e+06
  -2.039692e+06   4.248510e+06
  -3.537529e+05   2.346449e+06
   1.746153e+06   2.901336e+06
  -1.638059e+05   4.521564e+06
  -5.700918e+06   3.731025e+06
  -9.030957e+06  -2.948434e+05
  -5.927130e+06  -4.139553e+06
   5.991660e+05  -4.404589e+06
   4.053943e+06  -1.708296e+06
   2.221484e+06   8.846016e+05
  -1.470493e+06   1.549637e+06
  -3.170250e+06   2.815202e+05
  -2.216388e+06  -2.209886e+06
   2.638823e+04  -4.140540e+06
   1.998917e+06  -3.066959e+06
   2.305965e+06   7.739725e+05
   6.956538e+05   3.131991e+06
  -8.029891e+05   8.451826e+05
   1.165660e+05  -2.916118e+06
   2.381434e+06  -2.306892e+06
   2.205630e+06   2.571853e+06
  -1.585746e+06   5.003570e+06
  -5.097318e+06   8.372099e+05
  -3.889736e+06  -5.517535e+06
   1.490512e+06  -6.786197e+06
   6.171249e+06  -1.847011e+06
   6.227711e+06   3.875696e+06
   1.978298e+06   5.412158e+06
  -3.043012e+06   2.716933e+06
  -5.017164e+06  -1.058736e+06
  -2.577811e+06  -2.982795e+06
   1.841032e+06  -2.001307e+06
   3.878797e+06   6.370247e+05
   1.790350e+06   2.202741e+06
  -1.416513e+06   1.161773e+06
  -1.720210e+06  -8.616551e+05
   7.424516e+05  -1.053894e+06
   2.098472e+06   8.578048e+05
   6.269858e+04   2.374872e+06
  -3.260121e+06   1.622815e+06
  -4.320036e+06  -7.476496e+05
  -2.063563e+06  -3.147140e+06
   1.808267e+06  -4.593034e+06
   4.951462e+06  -4.191656e+06
   5.734823e+06  -1.197682e+06
   3.793370e+06   3.166563e+06
   5.545419e+05   5.650353e+06
  -1.515172e+06   4.426376e+06
  -1.331398e+06   1.555401e+06
  -3.983375e+05   3.633226e+05
  -7.383397e+05   1.155380e+06
  -2.215530e+06   1.361657e+06
  -2.924865e+06  -4.172916e+05
  -1.774935e+06  -2.461291e+06
   3.873431e+05  -2.390221e+06
   1.941647e+06  -1.066475e+05
   1.794869e+06   2.360416e+06
  -1.728044e+05   3.007481e+06
  -2.821456e+06   1.340752e+06
  -4.045936e+06  -1.497201e+06
  -2.591913e+06  -3.550259e+06
   2.643940e+05  -3.568622e+06
   1.959171e+06  -2.152001e+06
   1.783584e+06  -9.890763e+05
   1.583905e+06  -7.971699e+05
   2.834913e+06  -6.096703e+05
   4.262871e+06   6.728989e+05
   3.450436e+06   2.717288e+06
   1.177845e+05   4.136131e+06
  -3.327750e+06   3.878614e+06
  -4.351185e+06   1.934219e+06
  -2.633388e+06  -6.953486e+05
   5.646459e+02  -2.349831e+06
   1.336456e+06  -1.835255e+06
   5.480886e+05   1.310739e+05
  -1.190681e+06   1.269674e+06
  -1.870034e+06   3.416732e+05
  -7.935903e+05  -1.194480e+06
   6.164842e+05  -1.132043e+06
   5.739530e+05   3.608046e+05
  -8.346556e+05   9.069323e+05
  -1.813015e+06  -7.847875e+05
  -1.049283e+06  -3.119699e+06
   9.962387e+05  -3.605719e+06
   2.906940e+06  -1.671800e+06
   3.582825e+06   1.107855e+06
   2.649592e+06   2.861201e+06
   5.564238e+05   2.825919e+06
  -1.345717e+06   1.500396e+06
  -1.658572e+06   1.622302e+05
  -5.012644e+05  -5.349977e+04
   3.608723e+05   7.620447e+05
  -3.829261e+05   1.292083e+06
  -1.830039e+06   5.498336e+05
  -1.993213e+06  -8.243595e+05
  -4.237348e+05  -1.357748e+06
   1.165172e+06  -5.988487e+05
   9.840382e+05   4.534524e+05
  -7.945959e+05   6.581317e+05
  -2.321653e+06  -1.621210e+05
  -1.980127e+06  -1.377218e+06
   1.500794e+05  -2.142401e+06
   2.381138e+06  -1.778501e+06
   2.848549e+06  -2.866078e+05
   1.209442e+06   1.250081e+06
  -9.190189e+05   1.430631e+06
  -1.491635e+06   1.470285e+05
  -1.353131e+05  -1.051788e+06
   1.531862e+06  -7.114979e+05
   1.745205e+06   7.657572e+05
   4.138255e+05   1.667699e+06
  -1.040573e+06   1.067569e+06
  -1.295339e+06  -2.185338e+05
  -3.209419e+05  -7.553970e+05
   7.564587e+05  -6.074054e+04
   7.134341e+05   1.066743e+06
  -6.274370e+05   1.428214e+06
  -2.061376e+06   4.971822e+05
  -2.044329e+06  -1.110759e+06
  -3.646218e+05  -2.102024e+06
   1.450783e+06  -1.652613e+06
   1.743387e+06  -2.291255e+05
   5.376460e+05   8.680747e+05
  -6.575731e+05   8.340540e+05
  -6.982212e+05   7.045101e+04
   7.377589e+04  -4.544143e+05
   5.691881e+05  -3.085680e+05
   2.756128e+05   8.107935e+04
  -3.687379e+05   4.000078e+04
  -5.572899e+05  -5.818587e+05
   1.494442e+05  -1.183468e+06
   1.388823e+06  -9.168939e+05
   2.116060e+06   4.297439e+05
   1.467307e+06   1.992326e+06
  -2.477555e+05   2.489626e+06
  -1.671688e+06   1.494966e+06
  -1.790084e+06  -8.800504e+04
  -9.765013e+05  -9.808829e+05
  -3.629703e+05  -8.246698e+05
  -4.105743e+05  -3.335431e+05
  -5.350189e+05  -2.979356e+05
  -6.526667e+04  -7.174839e+05
   8.706618e+05  -9.265804e+05
   1.498091e+06  -3.722178e+05
   1.140123e+06   7.609633e+05
  -2.157134e+05   1.568501e+06
  -1.775422e+06   1.139610e+06
  -2.325928e+06  -4.976678e+05
  -1.184927e+06  -2.138235e+06
   9.811918e+05  -2.395776e+06
   2.547761e+06  -1.077983e+06
   2.428368e+06   6.126466e+05
   1.078502e+06   1.365503e+06
  -1.499949e+05   1.058144e+06
  -4.655397e+05   6.142080e+05
  -2.161391e+05   7.683646e+05
  -1.890657e+05   1.261796e+06
  -6.827824e+05   1.249118e+06
  -1.287649e+06   2.887646e+05
  -1.337656e+06  -1.129722e+06
  -5.380995e+05  -1.950384e+06
   6.640899e+05  -1.464444e+06
   1.322224e+06  -3.070935e+02
   8.359753e+05   1.282558e+06
  -3.544996e+05   1.412365e+06
  -1.117084e+06   4.685390e+05
  -8.041096e+05  -6.115806e+05
   6.601747e+04  -1.030092e+06
   4.590994e+05  -7.994730e+05
   4.891278e+04  -4.607026e+05
  -4.231526e+05  -3.712485e+05
  -4.586941e+04  -4.026437e+05
   1.142421e+06  -2.120048e+05
   2.057621e+06   3.465214e+05
   1.639210e+06   1.045072e+06
   8.971264e+02   1.417309e+06
  -1.570016e+06   1.123218e+06
  -1.847907e+06   3.050542e+05
  -8.628825e+05  -4.337500e+05
   2.449023e+05  -5.395443e+05
   4.998863e+05  -5.942336e+04
  -1.435982e+03   3.859531e+05
  -4.827821e+05   2.473732e+05
  -4.797073e+05  -3.580364e+05
  -1.948207e+05  -7.643985e+05
  -3.912426e+04  -5.001181e+05
  -1.449122e+05   1.355734e+05
  -3.293407e+05   3.489973e+05
  -2.897949e+05  -2.335705e+05
   1.824986e+05  -1.030338e+06
   9.309591e+05  -1.070396e+06
   1.333307e+06  -1.207195e+05
   7.961166e+05   9.540762e+05
  -4.427918e+05   1.109428e+06
  -1.258813e+06   2.737925e+05
  -7.379894e+05  -6.143794e+05
   7.115466e+05  -6.665310e+05
   1.649180e+06   8.309997e+04
   1.094217e+06   8.755303e+05
  -4.494056e+05   1.050249e+06
  -1.551145e+06   5.532699e+05
  -1.309503e+06  -1.648283e+05
  -1.614916e+05  -5.398424e+05
   6.610301e+05  -2.946193e+05
   3.723102e+05   2.908014e+05
  -6.339195e+05   5.062520e+05
  -1.212900e+06  -1.361570e+05
  -6.308605e+05  -1.245768e+06
   6.829292e+05  -1.729022e+06
   1.566174e+06  -8.614383e+05
   1.283371e+06   8.142455e+05
   1.816755e+05   1.860983e+06
  -7.769733e+05   1.352695e+06
  -9.585801e+05  -1.605652e+05
  -4.633593e+05  -1.226948e+06
   1.942976e+05  -1.016733e+06
   5.668274e+05  -9.664917e+04
   5.070628e+05   3.989930e+05
   2.010224e+05   1.511263e+05
   3.771253e+04  -1.068018e+05
   2.362893e+05   2.899689e+05
   4.963881e+05   9.949557e+05
   2.245671e+05   1.118641e+06
  -6.965267e+05   4.021891e+05
  -1.523720e+06  -4.972275e+05
  -1.348251e+06  -8.744865e+05
  -1.866968e+05  -7.149371e+05
   9.169527e+05  -4.228442e+05
   1.028349e+06  -1.900628e+05
   3.438966e+05   4.323715e+04
  -1.650917e+05   2.293020e+05
  -1.641243e+03   2.252456e+05
   3.121498e+05   1.167072e+05
   3.640460e+04   1.419793e+05
  -7.270294e+05   2.259758e+05
  -1.076623e+06  -3.647050e+04
  -3.837577e+05  -7.198949e+05
   9.201403e+05  -1.187033e+06
   1.742250e+06  -7.297406e+05
   1.409152e+06   4.883419e+05
   2.529769e+05   1.462276e+06
  -8.009864e+05   1.396894e+06
  -1.092017e+06   5.185367e+05
  -6.808367e+05  -2.664627e+05
  -1.187743e+05  -3.728046e+05
   1.053946e+05  -5.141932e+04
  -7.010806e+04   3.776653e+04
  -3.197655e+05  -3.710914e+05
  -2.582766e+05  -8.352484e+05
   2.010384e+05  -6.925489e+05
   7.108075e+05   1.539391e+05
   7.351276e+05   1.014397e+06
   7.224410e+04   1.067157e+06
  -8.025615e+05   2.201507e+05
  -1.053494e+06  -7.842836e+05
  -3.268584e+05  -1.129624e+06
   7.518589e+05  -6.695097e+05
   1.139981e+06   1.009565e+05
   5.215017e+05   6.206284e+05
  -3.060657e+05   6.693914e+05
  -3.727727e+05   3.653130e+05
   2.827950e+05   1.865874e+04
   6.782508e+05  -2.961744e+04
   1.378570e+05   3.158721e+05
  -8.594707e+05   6.942114e+05
  -1.280884e+06   5.584989e+05
  -7.556207e+05  -1.757046e+05
   1.136178e+05  -8.859877e+05
   5.591075e+05  -8.629758e+05
   4.184780e+05  -1.397079e+05
   3.800464e+04   5.076125e+05
  -2.588007e+05   4.335646e+05
  -3.665459e+05  -1.780464e+05
  -2.521409e+05  -6.001727e+05
   6.854639e+04  -4.208561e+05
   4.035665e+05   6.049640e+04
   4.773369e+05   2.808033e+05
   2.467083e+05   8.845245e+04
  -1.974487e+04  -1.396553e+05
  -7.885350e+04  -9.681088e+03
  -2.017710e+04   3.840420e+05
  -1.050770e+05   5.498648e+05
  -3.519462e+05   1.840165e+05
  -4.437232e+05  -4.273430e+05
  -1.163145e+05  -6.799867e+05
   4.377125e+05  -3.111210e+05
   6.705300e+05   3.126363e+05
   2.459674e+05   6.053201e+05
  -5.219873e+05   3.673466e+05
  -8.990655e+05  -9.957551e+04
  -4.839941e+05  -3.967850e+05
   3.103802e+05  -3.938819e+05
   6.597532e+05  -2.077547e+05
   2.426870e+05  -9.955297e+03
  -3.841831e+05   5.364911e+04
  -4.331380e+05  -9.224781e+04
   1.932191e+05  -3.160238e+05
   8.013406e+05  -2.765295e+05
