
 $NMID
 id='ANONYMOUS ', fmtdat='(2E16.6)'
 volume=1.0
 tramp=1.0
 $END
   4.800854e+06  -9.142517e+05
   3.095182e+06   3.202860e+06
  -7.938170e+05   3.642853e+06
  -2.567384e+06   8.721198e+05
  -1.233194e+06  -1.357413e+06
   6.428658e+05  -1.063511e+06
   9.255344e+05   3.595021e+05
   3.281880e+04   9.705296e+05
  -7.009875e+05   5.707599e+05
  -8.422076e+05  -5.747416e+04
  -5.911802e+05  -5.037049e+05
  -8.328293e+04  -6.556450e+05
   3.891091e+05  -3.645450e+05
   3.340815e+05   1.524826e+05
  -2.145129e+05   2.688278e+05
  -5.476092e+05  -2.126189e+05
  -2.284251e+05  -7.212315e+05
   3.723849e+05  -7.346530e+05
   7.510320e+05  -3.735876e+05
   8.583006e+05   7.259646e+04
   7.311962e+05   5.693516e+05
   2.199528e+05   9.493886e+05
  -4.963787e+05   7.691439e+05
  -7.465525e+05   4.053501e+04
  -2.547779e+05  -4.567891e+05
   3.015620e+05  -1.563772e+05
   1.763914e+05   4.457886e+05
  -4.112690e+05   4.936255e+05
  -6.908230e+05  -5.313228e+04
  -4.304592e+05  -5.413946e+05
  -1.462730e+04  -6.123544e+05
   2.789354e+05  -4.320140e+05
   4.414624e+05  -1.585390e+05
   3.746827e+05   1.606361e+05
   2.691655e+04   2.815052e+05
  -2.235816e+05   3.895852e+03
   2.939423e+04  -3.226396e+05
   4.850846e+05  -1.621520e+05
   4.636196e+05   3.382524e+05
  -2.643907e+04   4.954146e+05
  -2.664063e+05   1.727614e+05
   1.113236e+03   4.239443e+03
   1.407508e+05   3.165091e+05
  -3.045153e+05   5.386056e+05
  -8.029071e+05   1.142803e+05
  -6.219530e+05  -5.738995e+05
   7.313623e+04  -7.476918e+05
   5.057235e+05  -3.166509e+05
   3.604872e+05   1.413282e+05
   3.037092e+02   2.355815e+05
  -1.935053e+05   6.925409e+04
  -1.615217e+05  -1.496645e+05
   4.453190e+04  -2.991776e+05
   3.192155e+05  -2.280310e+05
   3.974513e+05   9.063154e+04
   1.317644e+05   3.360514e+05
  -1.626194e+05   1.973079e+05
  -7.190164e+04  -9.151141e+04
   2.436162e+05  -2.717689e+04
   2.221212e+05   3.646165e+05
  -2.301486e+05   5.119066e+05
  -5.646440e+05   1.589156e+05
  -4.187779e+05  -2.689466e+05
  -1.005342e+05  -3.531915e+05
   1.827577e+03  -2.457806e+05
   1.061758e+04  -2.437006e+05
   1.844718e+05  -2.356227e+05
   3.456531e+05   2.524712e+03
   1.680181e+05   2.670855e+05
  -1.889018e+05   1.733884e+05
  -2.385013e+05  -1.969547e+05
   1.068422e+05  -3.557586e+05
   4.093936e+05  -9.562880e+04
   3.307667e+05   2.685564e+05
   1.647704e+04   3.798823e+05
  -2.113993e+05   2.318439e+05
  -2.340674e+05   1.667804e+04
  -1.120763e+05  -1.278889e+05
   5.444280e+04  -1.260558e+05
   1.249305e+05   3.472388e+04
  -8.690263e+03   1.989615e+05
  -2.339176e+05   1.425504e+05
  -2.809665e+05  -1.181875e+05
  -7.316408e+04  -2.970076e+05
   1.554551e+05  -2.131958e+05
   1.854092e+05  -1.705989e+04
   7.778898e+04   6.401425e+04
   7.274210e+03   2.255761e+04
   8.383097e+03  -1.754986e+04
   2.727971e+04  -1.933501e+04
   6.632748e+04  -5.225026e+03
   1.159524e+05   5.104416e+04
   7.772838e+04   1.405843e+05
  -7.374927e+04   1.442305e+05
  -1.709322e+05   8.909809e+03
  -7.758507e+04  -1.076167e+05
   7.254538e+04  -4.803802e+04
   6.261376e+04   8.553197e+04
  -7.031505e+04   8.481807e+04
  -1.133052e+05  -3.338201e+04
  -3.335175e+04  -8.033755e+04
   2.932877e+03  -3.093795e+04
  -4.326913e+04  -4.364632e+04
  -1.163541e+04  -1.367310e+05
   1.398361e+05  -1.196040e+05
   2.076541e+05   7.008931e+04
   6.157365e+04   2.112317e+05
  -1.252547e+05   1.232574e+05
  -1.316369e+05  -5.708164e+04
  -6.942082e+03  -9.714749e+04
   5.117123e+04  -8.156679e+03
   1.110510e+04   3.392076e+04
  -4.477471e+03  -5.693450e+03
   3.231218e+04  -9.465539e+03
   2.579643e+04   5.114127e+04
  -4.519934e+04   7.078428e+04
  -8.583874e+04   5.533721e+03
  -5.301885e+04  -6.173592e+04
  -9.146333e+03  -7.268665e+04
   1.182373e+04  -6.265035e+04
   4.920397e+04  -5.130566e+04
   9.689506e+04  -2.210355e+03
   7.866233e+04   6.922144e+04
  -9.142739e+03   7.691579e+04
  -5.695985e+04   8.047430e+03
  -9.050555e+03  -3.083460e+04
   4.142887e+04   2.216262e+04
   2.533688e+03   7.961245e+04
  -6.996201e+04   4.386512e+04
  -6.952846e+04  -4.019675e+04
  -5.143531e+03  -6.441418e+04
   3.117231e+04  -1.972627e+04
   1.052993e+04   1.804587e+04
  -1.851046e+04   1.516153e+04
  -2.760415e+04  -2.731891e+03
  -2.707428e+04  -2.535897e+04
  -8.663377e+03  -5.697514e+04
   4.108927e+04  -6.330839e+04
   8.146325e+04  -9.468594e+03
   5.572751e+04   6.001830e+04
  -1.326818e+04   6.416938e+04
  -4.311440e+04   5.706812e+03
  -9.775373e+03  -3.204148e+04
   2.841230e+04  -9.653098e+03
   2.905535e+04   2.749646e+04
   1.150948e+04   4.002438e+04
  -6.889893e+03   4.228601e+04
  -4.023752e+04   4.019605e+04
  -7.506619e+04   5.504021e+03
  -5.996684e+04  -5.290658e+04
   6.868493e+03  -6.903913e+04
   4.898039e+04  -1.830805e+04
   1.820332e+04   3.007251e+04
  -3.089040e+04   1.254033e+04
  -2.661252e+04  -3.546142e+04
   1.516370e+04  -4.488887e+04
   3.426843e+04  -1.904044e+04
   2.652317e+04  -5.139043e+03
   2.833422e+04  -3.091742e+03
   3.563093e+04   1.889863e+04
   1.680021e+04   4.577360e+04
  -1.302788e+04   3.541122e+04
  -1.048085e+04   3.774285e+03
   1.046960e+04   6.998869e+03
  -7.457405e+03   3.862188e+04
  -5.904237e+04   2.949768e+04
  -6.700055e+04  -3.342637e+04
  -2.734132e+03  -7.093023e+04
   5.891498e+04  -2.956560e+04
   4.639442e+04   3.563035e+04
  -1.004743e+04   4.559770e+04
  -3.717832e+04   7.059649e+03
  -2.498561e+04  -1.965600e+04
  -1.433067e+04  -1.893964e+04
  -1.441850e+04  -2.134464e+04
   1.484921e+03  -3.258521e+04
   3.330099e+04  -2.624383e+04
   4.762996e+04   2.742419e+02
   3.320384e+04   1.867520e+04
   1.371710e+04   1.990936e+04
   2.238180e+03   2.364330e+04
  -1.338556e+04   3.318015e+04
  -3.320489e+04   2.539110e+04
  -3.444149e+04  -4.228236e+03
  -1.082313e+04  -2.600399e+04
   1.156914e+04  -2.033563e+04
   1.246747e+04  -4.665010e+03
   3.038815e+03  -7.505746e+02
  -1.367842e+02  -3.964346e+03
   2.787363e+02  -1.672608e+03
  -1.530586e+03   3.495009e+03
   6.708235e+02   5.864740e+03
   7.384481e+03   9.456300e+03
   3.666792e+03   1.225831e+04
  -1.409519e+04   4.724539e+02
  -2.288487e+04  -2.393009e+04
  -5.455829e+03  -3.288782e+04
   2.014599e+04  -1.082899e+04
   2.567642e+04   1.724935e+04
   1.193463e+04   2.032766e+04
   2.616115e+01   5.203154e+03
  -2.973074e+03  -1.226740e+03
  -4.864192e+03   3.378631e+03
  -5.707997e+03   1.809094e+03
  -5.966983e+02  -4.997900e+03
   2.560235e+03  -1.076448e+03
  -5.322792e+03   8.654481e+03
  -1.087844e+04   2.761256e+03
   4.696813e+03  -1.428260e+04
   2.753589e+04  -1.148152e+04
   2.240095e+04   1.672133e+04
  -1.330948e+04   3.329826e+04
  -3.896240e+04   1.199788e+04
  -2.583216e+04  -2.181199e+04
   5.817866e+03  -2.777378e+04
   2.083918e+04  -5.471279e+03
   1.442363e+04   1.376430e+04
   2.793701e+03   1.356667e+04
  -8.233001e+03   3.272067e+03
  -1.918031e+04  -7.483731e+03
  -1.831655e+04  -1.680025e+04
   3.091945e+03  -1.771850e+04
   2.578423e+04  -3.857823e+03
   2.219830e+04   1.215119e+04
  -1.463112e+03   9.825522e+03
  -1.085752e+04  -6.941432e+03
   6.400451e+03  -1.135439e+04
   2.289775e+04   7.203076e+03
   1.203005e+04   2.688760e+04
  -1.616429e+04   2.484315e+04
  -3.239397e+04   5.842380e+03
  -2.453402e+04  -1.150821e+04
  -3.341183e+03  -1.984822e+04
   1.551892e+04  -2.040890e+04
   2.179113e+04  -1.034681e+04
   1.215997e+04   9.312549e+03
  -5.788681e+03   2.258233e+04
  -1.655336e+04   1.431899e+04
  -1.294103e+04  -6.591923e+03
  -3.994641e+03  -1.658663e+04
  -1.344338e+02  -9.018285e+03
   1.111882e+03  -8.267976e+02
   6.079236e+03  -5.692551e+03
   1.129448e+04  -1.501484e+04
   1.057638e+04  -1.199764e+04
   7.788989e+03   5.161845e+03
   8.976358e+03   2.179033e+04
   8.301994e+03   2.381679e+04
  -2.636611e+03   1.118586e+04
  -1.590509e+04  -3.541681e+03
  -1.535224e+04  -7.728641e+03
  -2.751546e+03  -1.467776e+03
   2.897212e+03   2.852590e+03
  -4.603114e+03  -3.255016e+03
  -8.261384e+03  -1.172992e+04
   4.051896e+03  -8.262447e+03
   1.797074e+04   6.829150e+03
   1.248240e+04   1.748665e+04
  -9.826647e+03   1.253728e+04
  -2.673295e+04  -2.227818e+03
  -2.400491e+04  -1.512036e+04
  -6.400070e+03  -2.136243e+04
   1.371509e+04  -1.997589e+04
   2.589865e+04  -8.805777e+03
   2.323551e+04   8.238678e+03
   7.701606e+03   1.735827e+04
  -6.542609e+03   1.002450e+04
  -6.772598e+03  -2.615736e+03
   1.245706e+03  -2.541526e+03
   9.167343e+02   9.760920e+03
  -1.022402e+04   1.500588e+04
  -1.605629e+04   1.752542e+03
  -5.688277e+03  -1.774135e+04
   1.083809e+04  -2.298697e+04
   1.717303e+04  -8.783490e+03
   1.056989e+04   1.172955e+04
  -7.045454e+02   2.190318e+04
  -1.061103e+04   1.503082e+04
  -1.607975e+04  -2.258735e+03
  -1.198285e+04  -1.551497e+04
   2.218793e+03  -1.464556e+04
   1.434883e+04  -3.979499e+03
   1.076796e+04   2.754204e+03
  -4.001949e+03  -7.448652e+02
  -1.029317e+04  -6.468002e+03
   1.240446e+03  -4.693860e+03
   1.694962e+04   2.899187e+03
   1.800239e+04   7.990665e+03
   3.379589e+03   7.860017e+03
  -1.132529e+04   5.612457e+03
  -1.332418e+04   2.205766e+03
  -4.247840e+03  -3.128180e+03
   5.425143e+03  -6.386352e+03
   7.639315e+03  -1.973321e+03
   2.394754e+03   6.901414e+03
  -4.033709e+03   9.542814e+03
  -5.611094e+03   2.142258e+03
  -2.581175e+03  -6.428240e+03
  -3.697797e+02  -6.942186e+03
  -1.787588e+03  -1.714655e+03
  -2.889796e+03   7.143139e+02
   1.051190e+03  -1.931704e+03
   7.847517e+03  -4.151461e+03
   1.036309e+04  -1.196462e+03
   5.293994e+03   5.556379e+03
  -3.357980e+03   1.048201e+04
  -9.253066e+03   8.109005e+03
  -9.090244e+03  -1.997240e+03
  -3.308886e+03  -1.201195e+04
   4.870266e+03  -1.115655e+04
   1.008306e+04   1.445510e+03
   7.852563e+03   1.268418e+04
  -5.239689e+02   1.007581e+04
  -7.636253e+03  -2.032685e+03
  -6.875978e+03  -7.919557e+03
   3.143769e+02  -1.135875e+03
   5.384526e+03   8.293048e+03
   1.517381e+03   8.565433e+03
  -8.412290e+03   1.284955e+02
  -1.335102e+04  -8.428886e+03
