
 $NMID
 id='ANONYMOUS ', fmtdat='(2E16.6)'
 volume=1.0
 tramp=1.0
 $END
  -4.431736e+07   2.005361e+06
  -2.866948e+07  -2.475934e+07
   3.128268e+06  -2.990290e+07
   2.068654e+07  -1.420048e+07
   1.405292e+07   3.250121e+06
  -1.415647e+06   7.656726e+06
  -8.120591e+06   5.442523e+05
  -3.624227e+06  -7.499457e+06
   3.936193e+06  -8.744327e+06
   7.735942e+06  -2.830756e+06
   6.131460e+06   4.844171e+06
   1.006534e+06   7.347623e+06
  -3.306219e+06   2.257046e+06
  -2.556021e+06  -4.997895e+06
   2.684721e+06  -6.218093e+06
   6.569028e+06   3.364132e+05
   4.343525e+06   8.073793e+06
  -2.351245e+06   9.875347e+06
  -7.895071e+06   5.168386e+06
  -8.625156e+06  -1.452565e+06
  -5.130479e+06  -5.728454e+06
  -6.041461e+05  -6.334664e+06
   1.562617e+06  -4.409706e+06
   2.789804e+05  -2.537468e+06
  -1.633331e+06  -2.792773e+06
   2.181350e+04  -4.270360e+06
   5.220164e+06  -3.791415e+06
   8.604674e+06  -2.059589e+05
   5.921793e+06   3.568779e+06
  -2.450715e+05   4.154050e+06
  -3.665873e+06   1.794966e+06
  -2.038029e+06  -6.700666e+05
   1.402162e+06  -1.374726e+06
   2.959370e+06  -2.635321e+05
   2.102681e+06   2.006481e+06
   1.474748e+05   3.870595e+06
  -1.672808e+06   3.050297e+06
  -2.201129e+06  -4.678779e+05
  -9.289894e+05  -2.852563e+06
   5.684293e+05  -8.980893e+05
  -4.839804e+04   2.713019e+06
  -2.211551e+06   2.323817e+06
  -2.335237e+06  -2.383184e+06
   1.201605e+06  -5.064206e+06
   4.943270e+06  -1.297855e+06
   4.235426e+06   5.042462e+06
  -9.308774e+05   6.742233e+06
  -5.846772e+06   2.235479e+06
  -6.266131e+06  -3.412317e+06
  -2.199457e+06  -5.188102e+06
   2.845164e+06  -2.800205e+06
   4.954676e+06   8.109658e+05
   2.674882e+06   2.820276e+06
  -1.682882e+06   2.099010e+06
  -3.833196e+06  -3.709988e+05
  -1.904688e+06  -2.046827e+06
   1.294171e+06  -1.230114e+06
   1.716956e+06   7.640281e+05
  -7.189369e+05   1.123847e+06
  -2.209512e+06  -7.286454e+05
  -2.845137e+05  -2.438449e+06
   3.102679e+06  -1.911949e+06
   4.336021e+06   4.328839e+05
   2.250939e+06   2.956578e+06
  -1.464350e+06   4.530689e+06
  -4.515021e+06   4.272180e+06
  -5.418818e+06   1.473248e+06
  -3.816426e+06  -2.781800e+06
  -8.561909e+05  -5.388193e+06
   1.250226e+06  -4.397361e+06
   1.298701e+06  -1.606266e+06
   4.603160e+05  -3.009481e+05
   6.593733e+05  -1.009197e+06
   1.980978e+06  -1.317299e+06
   2.719243e+06   2.732212e+05
   1.733492e+06   2.229220e+06
  -2.921904e+05   2.235167e+06
  -1.823971e+06   1.248005e+05
  -1.768492e+06  -2.200893e+06
   4.808928e+04  -2.868615e+06
   2.609690e+06  -1.409919e+06
   3.929161e+06   1.200450e+06
   2.702202e+06   3.231981e+06
  -3.683519e+02   3.449063e+06
  -1.734330e+06   2.230624e+06
  -1.683985e+06   1.101073e+06
  -1.528213e+06   8.615587e+05
  -2.733715e+06   7.047017e+05
  -4.151130e+06  -4.769716e+05
  -3.439228e+06  -2.482083e+06
  -2.729867e+05  -3.976526e+06
   3.045671e+06  -3.846501e+06
   4.076525e+06  -2.015729e+06
   2.520513e+06   5.451491e+05
   8.953817e+04   2.211187e+06
  -1.182888e+06   1.789895e+06
  -5.167359e+05  -9.270789e+04
   1.081990e+06  -1.253609e+06
   1.776474e+06  -4.141537e+05
   8.210222e+05   1.095574e+06
  -5.405785e+05   1.097231e+06
  -5.593132e+05  -3.464445e+05
   8.129387e+05  -9.275579e+05
   1.855624e+06   7.080000e+05
   1.167695e+06   3.049217e+06
  -8.816106e+05   3.596636e+06
  -2.837842e+06   1.730422e+06
  -3.536667e+06  -9.900844e+05
  -2.630227e+06  -2.707788e+06
  -6.066406e+05  -2.706007e+06
   1.238527e+06  -1.480964e+06
   1.577289e+06  -2.143085e+05
   4.843772e+05   3.176600e+04
  -3.751561e+05  -7.184206e+05
   3.109132e+05  -1.265492e+06
   1.738543e+06  -6.162355e+05
   1.963595e+06   7.090429e+05
   4.706502e+05   1.296305e+06
  -1.099457e+06   6.200162e+05
  -9.561224e+05  -4.122996e+05
   7.680568e+05  -6.622300e+05
   2.261026e+06   1.010264e+05
   1.943546e+06   1.288127e+06
  -9.536038e+04   2.076064e+06
  -2.240729e+06   1.788382e+06
  -2.731662e+06   3.773249e+05
  -1.219652e+06  -1.154312e+06
   8.144571e+05  -1.419276e+06
   1.427012e+06  -2.171813e+05
   1.816877e+05   9.962827e+05
  -1.440733e+06   7.449546e+05
  -1.712458e+06  -6.724475e+05
  -4.593318e+05  -1.600755e+06
   9.759024e+05  -1.073061e+06
   1.268063e+06   1.690192e+05
   3.389620e+05   7.255203e+05
  -7.274526e+05   9.132549e+04
  -7.250388e+05  -9.958993e+05
   5.485337e+05  -1.390421e+06
   1.956726e+06  -5.522500e+05
   2.003285e+06   9.879898e+05
   4.318801e+05   2.006426e+06
  -1.332531e+06   1.649069e+06
  -1.673146e+06   2.889543e+05
  -5.522031e+05  -8.181797e+05
   6.030245e+05  -8.270255e+05
   6.621065e+05  -8.659686e+04
  -7.352897e+04   4.391346e+05
  -5.479175e+05   2.971737e+05
  -2.539213e+05  -9.326860e+04
   3.815036e+05  -5.740298e+04
   5.735534e+05   5.544329e+05
  -1.023115e+05   1.158695e+06
  -1.308226e+06   9.361302e+05
  -2.053063e+06  -3.368260e+05
  -1.485171e+06  -1.861176e+06
   1.491679e+05  -2.401392e+06
   1.562007e+06  -1.493960e+06
   1.730134e+06   3.204311e+04
   9.609798e+05   9.210070e+05
   3.532932e+05   7.776198e+05
   3.957685e+05   2.880865e+05
   5.365712e+05   2.540021e+05
   9.984878e+04   6.908115e+05
  -8.103626e+05   9.286862e+05
  -1.438030e+06   4.052821e+05
  -1.118454e+06  -7.046087e+05
   1.683207e+05  -1.521667e+06
   1.677453e+06  -1.155053e+06
   2.255862e+06   4.016859e+05
   1.216295e+06   2.021366e+06
  -8.592643e+05   2.350730e+06
  -2.421336e+06   1.135578e+06
  -2.367999e+06  -5.101572e+05
  -1.081488e+06  -1.291595e+06
   1.247561e+05  -1.027577e+06
   4.364951e+05  -5.914126e+05
   1.711464e+05  -7.263912e+05
   1.189616e+05  -1.213737e+06
   6.015212e+05  -1.232422e+06
   1.225748e+06  -3.323869e+05
   1.326412e+06   1.033053e+06
   5.880937e+05   1.852263e+06
  -5.836550e+05   1.429261e+06
  -1.272098e+06   4.626684e+04
  -8.546102e+05  -1.207573e+06
   2.913758e+05  -1.380352e+06
   1.071834e+06  -4.983012e+05
   8.133875e+05   5.634862e+05
  -2.033258e+04   1.008263e+06
  -4.197430e+05   7.995160e+05
  -3.821353e+04   4.485024e+05
   4.185980e+05   3.380049e+05
   5.799337e+04   3.839537e+05
  -1.095350e+06   2.501141e+05
  -1.997166e+06  -2.525568e+05
  -1.618830e+06  -9.468715e+05
  -5.572313e+04  -1.373591e+06
   1.468820e+06  -1.148637e+06
   1.772791e+06  -3.625356e+05
   8.561585e+05   3.930547e+05
  -2.117774e+05   5.348977e+05
  -4.850828e+05   7.684210e+04
  -2.201522e+04  -3.710542e+05
   4.515595e+05  -2.535046e+05
   4.753599e+05   3.248070e+05
   2.166578e+05   7.178893e+05
   5.885390e+04   4.703725e+05
   1.409853e+05  -1.324313e+05
   3.098614e+05  -3.365612e+05
   2.872897e+05   2.180131e+05
  -1.406537e+05   9.923073e+05
  -8.555977e+05   1.063116e+06
  -1.275445e+06   1.763877e+05
  -8.033385e+05  -8.775624e+05
   3.768709e+05  -1.085614e+06
   1.193666e+06  -3.187353e+05
   7.296286e+05   5.609498e+05
  -6.623840e+05   6.687000e+05
  -1.592296e+06  -2.561020e+04
  -1.081718e+06  -8.153910e+05
   4.051571e+05  -1.032547e+06
   1.483298e+06  -5.806199e+05
   1.268233e+06   1.222882e+05
   1.706400e+05   5.169032e+05
  -6.291011e+05   3.061915e+05
  -3.717873e+05  -2.639382e+05
   5.845980e+05  -5.062923e+05
   1.163242e+06   8.340783e+04
   6.508676e+05   1.163879e+06
  -5.854567e+05   1.677248e+06
  -1.464786e+06   8.825005e+05
  -1.259157e+06  -7.333891e+05
  -2.404020e+05  -1.778795e+06
   7.024104e+05  -1.325180e+06
   9.315553e+05   1.240129e+05
   4.870457e+05   1.168291e+06
  -1.581310e+05   9.889402e+05
  -5.451773e+05   1.134754e+05
  -4.972660e+05  -3.703118e+05
  -1.935241e+05  -1.431967e+05
  -3.506036e+04   1.055353e+05
  -2.450555e+05  -2.628859e+05
  -5.154919e+05  -9.348626e+05
  -2.513438e+05  -1.072780e+06
   6.592735e+05  -4.191363e+05
   1.480308e+06   4.238829e+05
   1.323230e+06   7.985969e+05
   2.060051e+05   6.816722e+05
  -8.621858e+05   4.332579e+05
  -9.821648e+05   2.160291e+05
  -3.378084e+05  -2.558881e+04
   1.482784e+05  -2.240325e+05
  -2.489811e+01  -2.223801e+05
  -2.961577e+05  -1.072103e+05
  -4.035611e+04  -1.318275e+05
   6.833591e+05  -2.358383e+05
   1.032434e+06  -5.835173e+03
   4.004283e+05   6.659919e+05
  -8.318584e+05   1.167111e+06
  -1.641703e+06   7.714878e+05
  -1.369770e+06  -4.057395e+05
  -2.960196e+05  -1.390448e+06
   7.162627e+05  -1.372803e+06
   1.023953e+06  -5.394090e+05
   6.579638e+05   2.305331e+05
   1.286810e+05   3.500863e+05
  -9.199180e+04   4.821276e+04
   7.225744e+04  -3.908076e+04
   3.210231e+05   3.490979e+05
   2.767209e+05   7.949042e+05
  -1.652337e+05   6.704633e+05
  -6.813358e+05  -1.211758e+05
  -7.389313e+05  -9.392738e+05
  -1.128681e+05  -1.012807e+06
   7.524970e+05  -2.391813e+05
   1.033664e+06   7.082793e+05
   3.575052e+05   1.066924e+06
  -6.907477e+05   6.709497e+05
  -1.096644e+06  -5.062137e+04
  -5.295613e+05  -5.742564e+05
   2.628481e+05  -6.564671e+05
   3.451089e+05  -3.703966e+05
  -2.668687e+05  -1.285823e+04
  -6.478841e+05   5.191615e+04
  -1.461336e+05  -2.962970e+05
   7.998322e+05  -6.971045e+05
   1.215505e+06  -5.863794e+05
   7.393301e+05   1.362655e+05
  -7.339358e+04   8.545104e+05
  -5.042852e+05   8.553481e+05
  -3.943504e+05   1.580585e+05
  -5.391095e+04  -4.808931e+05
   2.282323e+05  -4.257029e+05
   3.521309e+05   1.551883e+05
   2.640919e+05   5.653496e+05
  -4.412174e+04   4.068570e+05
  -3.867092e+05  -4.174825e+04
  -4.731785e+05  -2.513036e+05
  -2.437110e+05  -7.722055e+04
   2.996831e+04   1.321141e+05
   8.573757e+04   1.033834e+04
   5.559194e+03  -3.590662e+05
   6.889222e+04  -5.221368e+05
   3.181509e+05  -1.903274e+05
   4.375203e+05   3.824111e+05
   1.401736e+05   6.367583e+05
  -4.040532e+05   3.127056e+05
  -6.522441e+05  -2.694202e+05
  -2.569916e+05  -5.673383e+05
   4.869384e+05  -3.736824e+05
   8.645503e+05   5.762207e+04
   4.793169e+05   3.607046e+05
  -2.784330e+05   3.910035e+05
  -6.199274e+05   2.276465e+05
  -2.334159e+05   2.384071e+04
   3.584995e+05  -6.100917e+04
   4.107324e+05   7.206453e+04
  -1.752554e+05   3.028850e+05
  -7.540002e+05   2.859344e+05
