
 $NMID
 id='ANONYMOUS ', fmtdat='(2E16.6)'
 volume=1.0
 tramp=1.0
 $END
  -2.351054e+07   3.040800e+04
  -1.600797e+07  -1.030407e+07
  -6.130507e+05  -1.466011e+07
   9.825007e+06  -1.067809e+07
   8.850200e+06  -1.840976e+06
   9.565398e+05   4.294231e+06
  -4.886510e+06   2.725254e+06
  -4.152069e+06  -3.673019e+06
   7.271923e+05  -7.057303e+06
   4.475498e+06  -3.386646e+06
   4.062710e+06   3.141451e+06
   5.615913e+05   5.270542e+06
  -2.436167e+06   1.033654e+06
  -2.052807e+06  -4.506156e+06
   1.286336e+06  -5.321305e+06
   4.107806e+06  -7.066532e+05
   3.223631e+06   4.714238e+06
  -9.191207e+05   6.117244e+06
  -4.582831e+06   2.905947e+06
  -4.642645e+06  -1.476047e+06
  -1.784145e+06  -3.383059e+06
   5.064359e+05  -2.402615e+06
  -1.074930e+05  -1.135058e+06
  -2.295737e+06  -1.860037e+06
  -2.586086e+06  -3.896367e+06
   7.283785e+05  -4.571032e+06
   5.359115e+06  -2.440205e+06
   6.975117e+06   1.088819e+06
   3.679788e+06   3.304606e+06
  -1.631223e+06   2.753819e+06
  -3.966844e+06   2.187297e+05
  -1.444766e+06  -2.130266e+06
   2.797532e+06  -2.276377e+06
   4.257225e+06   1.450384e+05
   1.960702e+06   3.181699e+06
  -1.083921e+06   3.933748e+06
  -1.852706e+06   1.519783e+06
  -4.671156e+05  -1.520107e+06
   8.086668e+05  -1.776666e+06
   5.231995e+05   9.711785e+05
  -8.331926e+05   3.287715e+06
  -1.929883e+06   2.188993e+06
  -1.816000e+06  -1.171531e+06
  -3.568881e+05  -2.897442e+06
   1.515341e+06  -1.026731e+06
   1.998293e+06   2.288386e+06
  -5.199521e+04   3.424270e+06
  -3.335202e+06   1.223536e+06
  -4.697155e+06  -2.169503e+06
  -2.331860e+06  -3.810673e+06
   1.925374e+06  -2.658905e+06
   4.251981e+06  -5.730801e+04
   2.785543e+06   1.787400e+06
  -6.020535e+05   1.668327e+06
  -2.517687e+06   1.740445e+05
  -1.541241e+06  -1.037592e+06
   6.974641e+05  -8.220686e+05
   1.580996e+06   4.318619e+05
   2.896418e+05   1.306077e+06
  -1.476885e+06   8.360603e+05
  -1.451687e+06  -5.354182e+05
   6.008960e+05  -1.395617e+06
   2.441238e+06  -6.703149e+05
   1.727644e+06   1.356754e+06
  -1.322862e+06   3.111780e+06
  -4.066624e+06   2.919084e+06
  -4.256802e+06   5.018776e+05
  -2.253987e+06  -2.558048e+06
  -1.914666e+05  -4.132715e+06
   5.555163e+05  -3.543680e+06
   4.955300e+05  -2.072608e+06
   8.386553e+05  -1.294043e+06
   1.891949e+06  -1.202176e+06
   2.838873e+06  -4.948068e+05
   2.685765e+06   1.345256e+06
   1.169583e+06   2.939812e+06
  -9.680179e+05   2.465068e+06
  -2.336975e+06  -6.296493e+04
  -1.828979e+06  -2.515864e+06
   3.335244e+05  -2.773132e+06
   2.495066e+06  -7.893071e+05
   2.926694e+06   1.594224e+06
   1.476717e+06   2.613166e+06
  -3.389567e+05   2.089168e+06
  -1.044013e+06   1.143709e+06
  -7.963222e+05   7.989643e+05
  -9.961093e+05   1.009095e+06
  -2.349196e+06   8.939539e+05
  -3.699339e+06  -2.590995e+05
  -3.136126e+06  -2.183704e+06
  -2.598079e+05  -3.682276e+06
   2.984339e+06  -3.527791e+06
   4.036211e+06  -1.561618e+06
   2.275206e+06   9.520046e+05
  -3.780942e+05   2.219582e+06
  -1.476610e+06   1.475534e+06
  -4.469573e+05  -2.463335e+05
   1.160778e+06  -1.089720e+06
   1.567719e+06  -2.972249e+05
   5.443090e+05   9.795520e+05
  -6.627184e+05   1.039247e+06
  -7.713274e+05  -2.730963e+05
   3.529096e+05  -1.233640e+06
   1.665246e+06  -2.309311e+05
   1.812695e+06   2.186464e+06
   2.327331e+05   3.682491e+06
  -2.222333e+06   2.592035e+06
  -3.751534e+06  -3.115345e+05
  -3.086024e+06  -2.658136e+06
  -7.514342e+05  -2.859529e+06
   1.306061e+06  -1.427873e+06
   1.581138e+06  -9.144142e+04
   4.576534e+05   3.868873e+04
  -3.561340e+05  -6.716551e+05
   2.137024e+05  -1.078027e+06
   1.446493e+06  -5.369945e+05
   1.737304e+06   5.131934e+05
   5.172921e+05   1.080198e+06
  -9.889598e+05   6.322419e+05
  -1.052424e+06  -3.664221e+05
   6.007856e+05  -8.681365e+05
   2.329234e+06  -2.155891e+05
   2.216489e+06   1.201077e+06
   1.083006e+05   2.212797e+06
  -2.162105e+06   1.882513e+06
  -2.625452e+06   3.975778e+05
  -1.113933e+06  -1.011494e+06
   7.228845e+05  -1.176653e+06
   1.174429e+06  -1.412342e+05
   6.051359e+04   8.522207e+05
  -1.331127e+06   6.512443e+05
  -1.620608e+06  -5.630241e+05
  -5.792778e+05  -1.486504e+06
   7.873117e+05  -1.162331e+06
   1.235721e+06  -3.294402e+04
   4.606702e+05   6.151748e+05
  -5.884403e+05   1.102303e+05
  -6.322383e+05  -9.178503e+05
   5.735212e+05  -1.276881e+06
   1.867712e+06  -4.419043e+05
   1.847190e+06   9.842064e+05
   3.825029e+05   1.868184e+06
  -1.210087e+06   1.535318e+06
  -1.551064e+06   3.192164e+05
  -5.798211e+05  -7.394888e+05
   5.379600e+05  -8.197117e+05
   7.235839e+05  -7.186079e+04
   1.841677e+04   5.809585e+05
  -6.459949e+05   4.619520e+05
  -5.184108e+05  -1.198292e+05
   2.042695e+05  -2.823922e+05
   6.098708e+05   3.283111e+05
   3.274144e+04   1.051598e+06
  -1.187976e+06   9.106806e+05
  -1.934257e+06  -3.073649e+05
  -1.377160e+06  -1.761842e+06
   1.659948e+05  -2.311603e+06
   1.512555e+06  -1.530928e+06
   1.765485e+06  -5.881594e+04
   1.102650e+06   9.921946e+05
   4.032803e+05   1.029760e+06
   2.296321e+05   4.646782e+05
   3.200724e+05   1.861409e+05
   5.655868e+04   5.351707e+05
  -7.130880e+05   9.041036e+05
  -1.397146e+06   4.764106e+05
  -1.194361e+06  -7.021199e+05
   7.292802e+04  -1.593144e+06
   1.612943e+06  -1.198139e+06
   2.202907e+06   3.641740e+05
   1.230470e+06   1.896123e+06
  -6.942546e+05   2.209941e+06
  -2.198755e+06   1.156681e+06
  -2.311848e+06  -3.469876e+05
  -1.232800e+06  -1.219984e+06
   1.398675e+03  -1.154408e+06
   5.416029e+05  -7.347309e+05
   4.080795e+05  -6.797430e+05
   2.503313e+05  -1.012057e+06
   5.501136e+05  -1.052783e+06
   1.095694e+06  -2.626387e+05
   1.215249e+06   1.015058e+06
   5.191255e+05   1.780386e+06
  -5.941979e+05   1.355342e+06
  -1.226192e+06   6.181888e+04
  -8.398766e+05  -1.085652e+06
   1.773823e+05  -1.293283e+06
   8.855384e+05  -5.935077e+05
   7.420179e+05   3.351174e+05
   1.101078e+05   8.346767e+05
  -2.227066e+05   7.735233e+05
   3.677208e+04   4.976352e+05
   3.609590e+05   3.684010e+05
   2.870027e+04   3.831108e+05
  -9.785322e+05   2.469946e+05
  -1.804418e+06  -2.274945e+05
  -1.525310e+06  -8.547713e+05
  -1.477828e+05  -1.216363e+06
   1.278001e+06  -1.032029e+06
   1.639102e+06  -4.061398e+05
   8.461758e+05   2.297620e+05
  -1.500851e+05   4.323569e+05
  -4.184038e+05   1.281229e+05
   3.503516e+04  -2.630825e+05
   4.837202e+05  -2.084426e+05
   4.287028e+05   3.203057e+05
   8.300650e+04   7.237256e+05
  -5.738576e+04   4.610815e+05
   1.450656e+05  -2.027662e+05
   3.821350e+05  -4.180349e+05
   2.920625e+05   1.959780e+05
  -2.011956e+05   9.835363e+05
  -8.239924e+05   9.792097e+05
  -1.086717e+06   6.923896e+04
  -6.189439e+05  -8.575658e+05
   3.799326e+05  -9.217957e+05
   1.069445e+06  -1.716163e+05
   6.698270e+05   5.839380e+05
  -6.106946e+05   6.500345e+05
  -1.567417e+06   2.013208e+04
  -1.173440e+06  -7.561238e+05
   2.841003e+05  -1.071579e+06
   1.449850e+06  -6.989913e+05
   1.312301e+06   4.393472e+04
   2.173284e+05   5.219027e+05
  -5.903402e+05   3.396130e+05
  -3.136114e+05  -2.230881e+05
   6.236021e+05  -4.208642e+05
   1.103555e+06   1.870459e+05
   4.976936e+05   1.174651e+06
  -7.194275e+05   1.554411e+06
  -1.484261e+06   7.386117e+05
  -1.188586e+06  -7.750639e+05
  -1.787247e+05  -1.743010e+06
   7.026410e+05  -1.323633e+06
   9.143523e+05   6.386720e+04
   5.239283e+05   1.122653e+06
  -7.153716e+04   1.003310e+06
  -4.973196e+05   1.405188e+05
  -5.448332e+05  -3.807280e+05
  -2.640519e+05  -1.647957e+05
  -4.959602e+03   1.247997e+05
  -1.163718e+05  -2.075284e+05
  -4.356794e+05  -8.901468e+05
  -3.179010e+05  -1.055470e+06
   5.343421e+05  -4.059821e+05
   1.436627e+06   4.414969e+05
   1.351926e+06   7.944752e+05
   1.956273e+05   6.421078e+05
  -9.205208e+05   3.927196e+05
  -9.811460e+05   2.190967e+05
  -2.568127e+05   1.363372e+04
   1.797485e+05  -2.051315e+05
  -8.988268e+04  -2.582750e+05
  -3.846236e+05  -1.611854e+05
   3.025403e+03  -1.353272e+05
   7.727652e+05  -1.735361e+05
   9.818261e+05   5.519375e+04
   2.178085e+05   6.405445e+05
  -9.327363e+05   1.039637e+06
  -1.536858e+06   6.146443e+05
  -1.181639e+06  -4.942621e+05
  -2.011301e+05  -1.364458e+06
   7.063165e+05  -1.262080e+06
   1.001278e+06  -4.174810e+05
   6.411889e+05   2.977858e+05
   6.949252e+04   3.402943e+05
  -1.777837e+05  -1.230295e+04
   3.625783e+04  -1.014103e+05
   3.425515e+05   3.140520e+05
   2.801465e+05   7.709341e+05
  -2.021603e+05   6.183174e+05
  -6.722562e+05  -2.055920e+05
  -6.208047e+05  -9.955008e+05
   3.570120e+04  -9.699596e+05
   7.929893e+05  -1.115989e+05
   9.384591e+05   8.056818e+05
   2.410489e+05   1.034541e+06
  -7.058513e+05   5.486369e+05
  -1.004791e+06  -1.181821e+05
  -4.309167e+05  -5.077800e+05
   2.727832e+05  -5.341174e+05
   2.678761e+05  -3.200229e+05
  -3.420689e+05  -5.253025e+04
  -6.467992e+05   1.274621e+04
  -9.893457e+04  -2.741563e+05
   7.930199e+05  -6.518180e+05
   1.112687e+06  -5.804512e+05
   6.166346e+05   9.363876e+04
  -1.113196e+05   7.835627e+05
  -4.421003e+05   7.642369e+05
  -3.009629e+05   7.155904e+04
   1.094370e+04  -5.006557e+05
   2.533209e+05  -3.536561e+05
   3.395397e+05   2.389671e+05
   2.193148e+05   5.562638e+05
  -8.170004e+04   3.190317e+05
  -3.674106e+05  -8.937979e+04
  -4.151992e+05  -2.069173e+05
  -2.281897e+05  -3.540846e+04
  -1.766494e+04   6.885022e+04
   7.592992e+04  -1.121300e+05
   1.252902e+05  -3.982483e+05
   2.429875e+05  -4.188990e+05
   3.673136e+05  -3.001588e+04
   3.045778e+05   4.811500e+05
  -2.900739e+04   6.342145e+05
  -4.416030e+05   2.462555e+05
  -5.644745e+05  -3.393558e+05
  -1.841440e+05  -5.879567e+05
   4.596538e+05  -3.258218e+05
   7.820226e+05   1.283431e+05
   4.215351e+05   3.690298e+05
  -2.859318e+05   3.047908e+05
  -5.861205e+05   1.193498e+05
  -1.640034e+05  -2.067633e+03
   4.351043e+05   1.648465e+04
   4.282516e+05   1.730771e+05
  -2.495329e+05   3.382861e+05
  -8.515023e+05   2.433017e+05
