
 $NMID
 id='ANONYMOUS ', fmtdat='(2E16.6)'
 volume=1.0
 tramp=1.0
 $END
  -5.444400e+07   2.153395e+05
  -3.307416e+07  -3.351970e+07
   6.900637e+06  -3.696510e+07
   2.672104e+07  -1.446718e+07
   1.618624e+07   6.638837e+06
  -3.098817e+06   9.146255e+06
  -9.647480e+06  -1.046244e+06
  -2.849312e+06  -9.520369e+06
   5.991940e+06  -9.230474e+06
   9.425220e+06  -2.044560e+06
   6.816467e+06   6.031629e+06
   7.772645e+05   8.391893e+06
  -3.883414e+06   2.651986e+06
  -2.541728e+06  -5.352615e+06
   3.682200e+06  -6.441165e+06
   7.682450e+06   1.248582e+06
   4.357585e+06   9.908433e+06
  -3.639704e+06   1.147187e+07
  -9.779103e+06   5.738011e+06
  -1.044098e+07  -1.976280e+06
  -6.389267e+06  -7.194471e+06
  -7.156693e+05  -8.299507e+06
   2.711438e+06  -5.868195e+06
   1.720941e+06  -2.734923e+06
  -1.042553e+06  -2.236622e+06
  -1.516351e+05  -4.092916e+06
   5.314606e+06  -4.198167e+06
   9.394334e+06  -3.975125e+05
   6.817050e+06   4.034293e+06
   2.017370e+05   4.873477e+06
  -3.635902e+06   2.417813e+06
  -2.346809e+06  -4.933000e+04
   7.197173e+05  -8.946052e+05
   2.298845e+06  -3.694750e+05
   2.079207e+06   1.500294e+06
   5.630847e+05   3.838078e+06
  -1.768079e+06   3.696744e+06
  -3.057547e+06  -1.126591e+05
  -1.616478e+06  -3.473040e+06
   6.908981e+05  -1.800947e+06
   2.400613e+05   2.418123e+06
  -2.437971e+06   2.248336e+06
  -2.416045e+06  -3.101348e+06
   2.279760e+06  -5.997462e+06
   6.683160e+06  -1.078957e+06
   4.995468e+06   6.642537e+06
  -1.775841e+06   8.265169e+06
  -7.178463e+06   2.369057e+06
  -6.788150e+06  -4.337161e+06
  -1.820964e+06  -5.919350e+06
   3.418642e+06  -2.678398e+06
   5.191057e+06   1.497413e+06
   2.413767e+06   3.442911e+06
  -2.340411e+06   2.187709e+06
  -4.430120e+06  -8.711926e+05
  -1.933466e+06  -2.651439e+06
   1.662396e+06  -1.350295e+06
   1.722875e+06   1.016138e+06
  -1.272674e+06   9.631730e+05
  -2.476717e+06  -1.639264e+06
   4.797943e+05  -3.356286e+06
   4.432699e+06  -1.928095e+06
   5.180571e+06   1.251845e+06
   2.293432e+06   3.849299e+06
  -1.776806e+06   5.107295e+06
  -4.926899e+06   4.663904e+06
  -6.034482e+06   1.647296e+06
  -4.414096e+06  -3.092467e+06
  -8.782732e+05  -6.019056e+06
   1.830035e+06  -4.690029e+06
   1.753181e+06  -1.252849e+06
   2.406306e+05   2.252498e+05
   6.109874e+04  -9.076599e+05
   1.609309e+06  -1.660465e+06
   2.731105e+06  -1.479528e+05
   1.921897e+06   1.949943e+06
  -4.827053e+04   2.111537e+06
  -1.566270e+06   1.517372e+05
  -1.631327e+06  -2.104200e+06
   4.382210e+04  -2.897447e+06
   2.729194e+06  -1.580365e+06
   4.344536e+06   1.209174e+06
   3.109117e+06   3.674171e+06
  -4.175671e+04   4.100071e+06
  -2.200826e+06   2.639744e+06
  -2.167602e+06   1.125565e+06
  -1.808955e+06   6.864139e+05
  -2.917807e+06   4.636233e+05
  -4.295639e+06  -7.854111e+05
  -3.422888e+06  -2.770853e+06
  -8.326459e+04  -4.090641e+06
   3.226767e+06  -3.817987e+06
   4.158447e+06  -2.028038e+06
   2.606794e+06   4.632883e+05
   2.211130e+05   2.205096e+06
  -1.122786e+06   1.882856e+06
  -5.538913e+05  -4.502701e+04
   1.096029e+06  -1.279751e+06
   1.892789e+06  -3.793571e+05
   8.984640e+05   1.195167e+06
  -5.340539e+05   1.099863e+06
  -4.376817e+05  -3.987889e+05
   1.065711e+06  -7.183835e+05
   1.869988e+06   1.255902e+06
   6.623102e+05   3.478284e+06
  -1.596425e+06   3.436043e+06
  -3.165477e+06   1.125818e+06
  -3.315246e+06  -1.479147e+06
  -2.239509e+06  -2.810819e+06
  -4.052565e+05  -2.620444e+06
   1.260871e+06  -1.432067e+06
   1.571896e+06  -1.965658e+05
   4.904710e+05   5.362052e+04
  -3.484507e+05  -7.528234e+05
   4.192466e+05  -1.331836e+06
   1.900020e+06  -5.623417e+05
   2.022578e+06   8.998417e+05
   3.785397e+05   1.418597e+06
  -1.174519e+06   5.611496e+05
  -8.852618e+05  -4.689215e+05
   8.593113e+05  -5.147664e+05
   2.183403e+06   3.543158e+05
   1.723969e+06   1.394429e+06
  -2.853392e+05   1.973113e+06
  -2.333987e+06   1.615424e+06
  -2.772143e+06   2.309503e+05
  -1.200791e+06  -1.277059e+06
   9.280064e+05  -1.486909e+06
   1.554472e+06  -1.769229e+05
   1.912569e+05   1.074098e+06
  -1.519229e+06   7.164601e+05
  -1.707879e+06  -8.030100e+05
  -3.167660e+05  -1.661818e+06
   1.110020e+06  -9.690633e+05
   1.261967e+06   3.282701e+05
   2.419653e+05   7.901558e+05
  -7.925094e+05   5.111001e+04
  -7.200834e+05  -1.054410e+06
   5.907609e+05  -1.406752e+06
   2.004054e+06  -5.112943e+05
   2.012507e+06   1.073876e+06
   3.547109e+05   2.074666e+06
  -1.460608e+06   1.621903e+06
  -1.731041e+06   1.859753e+05
  -4.932128e+05  -8.791240e+05
   6.699077e+05  -7.965695e+05
   6.343676e+05  -6.523844e+04
  -1.282993e+05   3.605505e+05
  -4.987535e+05   1.949047e+05
  -1.184514e+05  -7.815173e+04
   4.552467e+05   7.868954e+04
   5.124232e+05   6.820468e+05
  -2.240816e+05   1.184988e+06
  -1.393159e+06   8.721343e+05
  -2.069250e+06  -4.445127e+05
  -1.431446e+06  -1.958937e+06
   2.546536e+05  -2.410956e+06
   1.638826e+06  -1.383462e+06
   1.688471e+06   1.585395e+05
   8.359170e+05   9.186837e+05
   2.916864e+05   6.604308e+05
   4.619946e+05   2.200771e+05
   6.210235e+05   3.130741e+05
   8.202276e+04   7.607780e+05
  -8.904530e+05   8.845376e+05
  -1.451794e+06   2.958598e+05
  -1.029682e+06  -7.440271e+05
   2.816091e+05  -1.453103e+06
   1.737471e+06  -1.038616e+06
   2.233048e+06   5.202911e+05
   1.098913e+06   2.114230e+06
  -1.041575e+06   2.348904e+06
  -2.554971e+06   9.943663e+05
  -2.341258e+06  -6.968339e+05
  -9.331020e+05  -1.359743e+06
   2.285953e+05  -9.450278e+05
   4.038237e+05  -4.962392e+05
   8.839919e+04  -7.385988e+05
   1.159106e+05  -1.296359e+06
   6.826843e+05  -1.276849e+06
   1.292837e+06  -3.021708e+05
   1.317068e+06   1.094758e+06
   5.271906e+05   1.895728e+06
  -6.405276e+05   1.422926e+06
  -1.282759e+06  -2.144766e+04
  -7.936537e+05  -1.293184e+06
   4.099530e+05  -1.391010e+06
   1.171388e+06  -3.924548e+05
   8.071116e+05   7.070840e+05
  -1.342070e+05   1.076863e+06
  -5.478795e+05   7.794760e+05
  -9.451885e+04   4.168837e+05
   4.246540e+05   3.399298e+05
   5.249714e+04   3.817371e+05
  -1.149459e+06   1.938538e+05
  -2.052728e+06  -3.589393e+05
  -1.599009e+06  -1.057478e+06
   5.540390e+04  -1.434748e+06
   1.599831e+06  -1.119792e+06
   1.834343e+06  -2.515408e+05
   8.304148e+05   5.079571e+05
  -2.662730e+05   5.665848e+05
  -5.136717e+05   2.676154e+04
  -2.800259e+04  -4.196829e+05
   4.444772e+05  -2.493517e+05
   4.756852e+05   3.476614e+05
   2.430344e+05   7.192813e+05
   9.108843e+04   4.745928e+05
   1.416372e+05  -8.943933e+04
   2.839167e+05  -2.805792e+05
   2.692468e+05   2.366537e+05
  -1.560585e+05   9.764506e+05
  -9.096611e+05   1.049641e+06
  -1.359359e+06   1.636888e+05
  -8.405199e+05  -9.169421e+05
   4.245560e+05  -1.133387e+06
   1.256465e+06  -3.264748e+05
   7.230553e+05   5.793006e+05
  -7.119431e+05   6.369208e+05
  -1.583307e+06  -1.241547e+05
  -9.844824e+05  -8.838762e+05
   5.071533e+05  -9.794024e+05
   1.507106e+06  -4.457069e+05
   1.224903e+06   2.173800e+05
   1.220216e+05   5.157896e+05
  -6.546067e+05   2.569860e+05
  -3.831963e+05  -2.986830e+05
   5.839160e+05  -5.151233e+05
   1.176578e+06   8.807750e+04
   6.621821e+05   1.178789e+06
  -5.965930e+05   1.691462e+06
  -1.483485e+06   8.715080e+05
  -1.244047e+06  -7.667428e+05
  -1.813556e+05  -1.787998e+06
   7.572992e+05  -1.277076e+06
   9.219209e+05   1.956071e+05
   4.080532e+05   1.198697e+06
  -2.432332e+05   9.620016e+05
  -5.660860e+05   7.349799e+04
  -4.519063e+05  -3.832208e+05
  -1.519626e+05  -1.390609e+05
  -5.408112e+04   9.320869e+04
  -2.905058e+05  -2.997765e+05
  -5.030169e+05  -9.715834e+05
  -1.658338e+05  -1.080382e+06
   7.315851e+05  -3.876400e+05
   1.464672e+06   4.819065e+05
   1.256434e+06   8.539152e+05
   1.753979e+05   7.022361e+05
  -8.458101e+05   4.071893e+05
  -9.815014e+05   1.654512e+05
  -3.703907e+05  -6.129635e+04
   1.430787e+05  -2.241469e+05
   5.330136e+04  -2.011766e+05
  -2.464327e+05  -9.214734e+04
  -5.496454e+04  -1.306017e+05
   6.446757e+05  -2.319972e+05
   1.046050e+06   1.439735e+04
   4.509497e+05   6.923104e+05
  -8.319320e+05   1.176878e+06
  -1.712128e+06   7.577893e+05
  -1.425573e+06  -4.271175e+05
  -2.712359e+05  -1.402304e+06
   7.791909e+05  -1.375355e+06
   1.049827e+06  -5.426043e+05
   6.485271e+05   2.265930e+05
   1.392074e+05   3.573550e+05
  -5.306555e+04   7.358721e+04
   8.926943e+04  -4.970550e+03
   2.901944e+05   3.763155e+05
   2.346260e+05   8.103024e+05
  -1.779604e+05   6.810782e+05
  -6.739573e+05  -1.114644e+05
  -7.437418e+05  -9.389182e+05
  -1.335670e+05  -1.029867e+06
   7.384268e+05  -2.621112e+05
   1.035205e+06   7.047468e+05
   3.575137e+05   1.088983e+06
  -7.093703e+05   6.887386e+05
  -1.126230e+06  -7.117769e+04
  -5.423239e+05  -6.254450e+05
   2.875347e+05  -6.947493e+05
   3.957951e+05  -3.731373e+05
  -2.279734e+05  -5.927266e+03
  -6.437468e+05   3.912985e+04
  -1.522995e+05  -3.109639e+05
   8.278666e+05  -6.727066e+05
   1.278601e+06  -5.233804e+05
   7.821194e+05   1.920728e+05
  -9.634123e+04   8.757977e+05
  -5.701540e+05   8.639705e+05
  -4.428731e+05   1.770376e+05
  -6.139172e+04  -4.695477e+05
   2.349815e+05  -4.444126e+05
   3.478685e+05   1.306607e+05
   2.553307e+05   5.764154e+05
  -4.645268e+04   4.423669e+05
  -3.903581e+05  -3.733784e+04
  -4.828442e+05  -2.929602e+05
  -2.439455e+05  -1.081054e+05
   4.513545e+04   1.627726e+05
   8.707754e+04   7.256033e+04
  -3.489905e+04  -3.380635e+05
   1.196739e+04  -5.646792e+05
   3.028432e+05  -2.497986e+05
   4.789806e+05   3.541706e+05
   1.885035e+05   6.399728e+05
  -3.974531e+05   3.219932e+05
  -6.746278e+05  -2.654084e+05
  -2.620531e+05  -5.642402e+05
   5.126687e+05  -3.685863e+05
   8.922222e+05   6.559008e+04
   4.843988e+05   3.763030e+05
  -2.916855e+05   4.145374e+05
  -6.416891e+05   2.464979e+05
  -2.653094e+05   2.341622e+04
   3.224896e+05  -8.148661e+04
   3.962232e+05   4.267451e+04
  -1.518963e+05   2.757737e+05
  -7.136638e+05   2.687420e+05
