
 $NMID
 id='ANONYMOUS ', fmtdat='(2E16.6)'
 volume=1.0
 tramp=1.0
 $END
  -4.952995e+07   4.106926e+05
  -3.050826e+07  -2.958560e+07
   5.478217e+06  -3.338587e+07
   2.389295e+07  -1.405689e+07
   1.504198e+07   5.095552e+06
  -2.365670e+06   8.356118e+06
  -8.877637e+06  -3.475717e+05
  -3.142740e+06  -8.544584e+06
   5.059068e+06  -8.948350e+06
   8.612967e+06  -2.347138e+06
   6.421077e+06   5.538073e+06
   7.943962e+05   7.909683e+06
  -3.646820e+06   2.404497e+06
  -2.508832e+06  -5.246265e+06
   3.254351e+06  -6.327003e+06
   7.127179e+06   8.719545e+05
   4.256477e+06   9.061466e+06
  -3.124152e+06   1.066076e+07
  -8.924235e+06   5.353503e+06
  -9.535003e+06  -1.851942e+06
  -5.673945e+06  -6.566834e+06
  -5.360550e+05  -7.335760e+06
   2.213621e+06  -5.085492e+06
   9.902872e+05  -2.596701e+06
  -1.371262e+06  -2.549301e+06
  -2.994897e+04  -4.239116e+06
   5.370786e+06  -3.974207e+06
   9.077565e+06  -1.882643e+05
   6.351386e+06   3.917305e+06
  -1.103215e+05   4.550044e+06
  -3.734891e+06   2.068623e+06
  -2.221512e+06  -4.185431e+05
   1.090339e+06  -1.174304e+06
   2.682161e+06  -3.148014e+05
   2.111089e+06   1.798827e+06
   3.131095e+05   3.902435e+06
  -1.780637e+06   3.364424e+06
  -2.631613e+06  -3.553351e+05
  -1.212073e+06  -3.208136e+06
   6.741961e+05  -1.325406e+06
   7.463666e+04   2.611696e+06
  -2.357496e+06   2.284955e+06
  -2.346322e+06  -2.771882e+06
   1.807802e+06  -5.509628e+06
   5.824699e+06  -1.099071e+06
   4.536951e+06   5.922580e+06
  -1.457199e+06   7.499415e+06
  -6.565529e+06   2.222975e+06
  -6.516882e+06  -3.961847e+06
  -1.970356e+06  -5.594126e+06
   3.168179e+06  -2.722317e+06
   5.084232e+06   1.199874e+06
   2.524697e+06   3.156302e+06
  -2.039574e+06   2.116634e+06
  -4.132436e+06  -6.739166e+05
  -1.890043e+06  -2.372925e+06
   1.501920e+06  -1.271106e+06
   1.718304e+06   9.089931e+05
  -9.977710e+05   1.030206e+06
  -2.318121e+06  -1.201551e+06
   1.355214e+05  -2.875561e+06
   3.785391e+06  -1.863172e+06
   4.745699e+06   8.946190e+05
   2.235274e+06   3.430341e+06
  -1.683999e+06   4.825717e+06
  -4.802857e+06   4.448459e+06
  -5.783064e+06   1.503229e+06
  -4.102854e+06  -3.010602e+06
  -8.045766e+05  -5.747705e+06
   1.586553e+06  -4.544492e+06
   1.524182e+06  -1.423625e+06
   3.381388e+05  -5.926279e+04
   3.852769e+05  -9.918628e+05
   1.851979e+06  -1.493182e+06
   2.768948e+06   1.011355e+05
   1.830452e+06   2.144089e+06
  -1.980264e+05   2.205734e+06
  -1.724126e+06   1.291333e+05
  -1.704010e+06  -2.190823e+06
   7.540105e+04  -2.911062e+06
   2.712377e+06  -1.476034e+06
   4.154334e+06   1.266689e+06
   2.877417e+06   3.511147e+06
  -7.294963e+04   3.789407e+06
  -2.004982e+06   2.414981e+06
  -1.938322e+06   1.092733e+06
  -1.677024e+06   7.651925e+05
  -2.847038e+06   5.688177e+05
  -4.248067e+06  -6.673555e+05
  -3.435508e+06  -2.672467e+06
  -1.475290e+05  -4.067683e+06
   3.194928e+06  -3.841085e+06
   4.174873e+06  -2.003824e+06
   2.584753e+06   5.388503e+05
   1.323636e+05   2.237160e+06
  -1.186570e+06   1.841644e+06
  -5.396470e+05  -8.002337e+04
   1.114166e+06  -1.268639e+06
   1.853376e+06  -3.789439e+05
   8.507935e+05   1.165691e+06
  -5.561539e+05   1.102881e+06
  -5.031118e+05  -3.790700e+05
   9.446772e+05  -8.230601e+05
   1.858918e+06   9.927745e+05
   8.988403e+05   3.276737e+06
  -1.256034e+06   3.523731e+06
  -3.015719e+06   1.425190e+06
  -3.440509e+06  -1.253611e+06
  -2.443623e+06  -2.791995e+06
  -4.971237e+05  -2.690922e+06
   1.271838e+06  -1.461244e+06
   1.590878e+06  -1.939929e+05
   4.902893e+05   4.690405e+04
  -3.586868e+05  -7.456972e+05
   3.804716e+05  -1.304505e+06
   1.838294e+06  -5.750032e+05
   1.998680e+06   8.290844e+05
   4.132632e+05   1.370739e+06
  -1.153492e+06   5.855237e+05
  -9.286318e+05  -4.524124e+05
   8.208451e+05  -5.925147e+05
   2.240112e+06   2.376379e+05
   1.846101e+06   1.361475e+06
  -2.008276e+05   2.042225e+06
  -2.318008e+06   1.702232e+06
  -2.776692e+06   2.857621e+05
  -1.207271e+06  -1.234932e+06
   8.929530e+05  -1.453946e+06
   1.502567e+06  -1.814802e+05
   1.750545e+05   1.046518e+06
  -1.499882e+06   7.231652e+05
  -1.717442e+06  -7.576141e+05
  -3.785933e+05  -1.645918e+06
   1.057304e+06  -1.020439e+06
   1.271682e+06   2.596894e+05
   2.860237e+05   7.656482e+05
  -7.684848e+05   6.522887e+04
  -7.221350e+05  -1.041728e+06
   5.863192e+05  -1.408999e+06
   2.003850e+06  -5.216805e+05
   2.017747e+06   1.056458e+06
   3.797771e+05   2.060832e+06
  -1.420822e+06   1.636452e+06
  -1.715961e+06   2.248961e+05
  -5.184332e+05  -8.594348e+05
   6.494042e+05  -8.129786e+05
   6.566704e+05  -7.031561e+04
  -1.022827e+05   4.065000e+05
  -5.312899e+05   2.500146e+05
  -1.937663e+05  -8.544678e+04
   4.159006e+05   1.015182e+04
   5.426651e+05   6.218933e+05
  -1.701150e+05   1.178275e+06
  -1.367003e+06   9.026714e+05
  -2.075831e+06  -4.084205e+05
  -1.456441e+06  -1.937085e+06
   2.215263e+05  -2.425091e+06
   1.623548e+06  -1.439889e+06
   1.722667e+06   1.062882e+05
   9.019168e+05   9.326779e+05
   3.234493e+05   7.294539e+05
   4.307720e+05   2.627324e+05
   5.790659e+05   2.905056e+05
   8.616432e+04   7.303913e+05
  -8.610589e+05   9.082561e+05
  -1.458092e+06   3.470161e+05
  -1.081136e+06  -7.349572e+05
   2.328854e+05  -1.499335e+06
   1.728109e+06  -1.096878e+06
   2.261096e+06   4.793897e+05
   1.153438e+06   2.093097e+06
  -9.746197e+05   2.361789e+06
  -2.515214e+06   1.055481e+06
  -2.369186e+06  -6.240640e+05
  -1.008084e+06  -1.342379e+06
   1.823112e+05  -9.945131e+05
   4.275603e+05  -5.488976e+05
   1.396400e+05  -7.398788e+05
   1.310916e+05  -1.263800e+06
   6.577724e+05  -1.258247e+06
   1.271830e+06  -3.090735e+05
   1.324637e+06   1.083662e+06
   5.478987e+05   1.894748e+06
  -6.287997e+05   1.433861e+06
  -1.288784e+06   3.032536e+03
  -8.217706e+05  -1.266356e+06
   3.628978e+05  -1.393735e+06
   1.131887e+06  -4.412366e+05
   8.105840e+05   6.442576e+05
  -8.484962e+04   1.048286e+06
  -4.915724e+05   7.916607e+05
  -6.900125e+04   4.360200e+05
   4.226086e+05   3.449770e+05
   5.329771e+04   3.863862e+05
  -1.132099e+06   2.158868e+05
  -2.038574e+06  -3.226789e+05
  -1.614975e+06  -1.021830e+06
   9.613745e+03  -1.414936e+06
   1.554823e+06  -1.131264e+06
   1.820110e+06  -2.963389e+05
   8.464564e+05   4.589660e+05
  -2.447633e+05   5.523575e+05
  -5.029040e+05   4.917802e+04
  -2.155545e+04  -3.974061e+05
   4.535138e+05  -2.497716e+05
   4.763041e+05   3.423103e+05
   2.254021e+05   7.267319e+05
   7.083698e+04   4.775372e+05
   1.424869e+05  -1.119909e+05
   3.020462e+05  -3.114326e+05
   2.801815e+05   2.301321e+05
  -1.559322e+05   9.925124e+05
  -8.975362e+05   1.059658e+06
  -1.329241e+06   1.611248e+05
  -8.213268e+05  -9.115347e+05
   4.126442e+05  -1.114976e+06
   1.237294e+06  -3.148768e+05
   7.280828e+05   5.805102e+05
  -6.970055e+05   6.530671e+05
  -1.600258e+06  -8.607579e+04
  -1.036955e+06  -8.626971e+05
   4.651647e+05  -1.011192e+06
   1.510644e+06  -5.085656e+05
   1.256539e+06   1.787359e+05
   1.445716e+05   5.217661e+05
  -6.492118e+05   2.796884e+05
  -3.782239e+05  -2.866731e+05
   5.940927e+05  -5.107254e+05
   1.179843e+06   9.617617e+04
   6.525251e+05   1.187270e+06
  -6.101363e+05   1.694186e+06
  -1.493904e+06   8.726634e+05
  -1.256419e+06  -7.660974e+05
  -1.993384e+05  -1.800085e+06
   7.452484e+05  -1.307319e+06
   9.333493e+05   1.670069e+05
   4.435941e+05   1.196482e+06
  -2.083060e+05   9.828532e+05
  -5.608587e+05   9.079825e+04
  -4.769635e+05  -3.834429e+05
  -1.742403e+05  -1.438015e+05
  -4.537048e+04   9.986724e+04
  -2.666634e+05  -2.857186e+05
  -5.058820e+05  -9.652085e+05
  -2.031916e+05  -1.087179e+06
   7.032323e+05  -4.013305e+05
   1.481707e+06   4.677027e+05
   1.295553e+06   8.423871e+05
   1.874163e+05   6.988672e+05
  -8.650224e+05   4.176627e+05
  -9.917347e+05   1.855960e+05
  -3.558781e+05  -4.609114e+04
   1.490479e+05  -2.247377e+05
   2.724914e+04  -2.132409e+05
  -2.744320e+05  -1.026468e+05
  -4.701918e+04  -1.331193e+05
   6.727090e+05  -2.312040e+05
   1.048260e+06   1.244884e+04
   4.226814e+05   6.885810e+05
  -8.490867e+05   1.175401e+06
  -1.696490e+06   7.574479e+05
  -1.405271e+06  -4.314375e+05
  -2.752778e+05  -1.410605e+06
   7.640806e+05  -1.379866e+06
   1.050067e+06  -5.374245e+05
   6.577622e+05   2.358666e+05
   1.321883e+05   3.581009e+05
  -7.475563e+04   6.073757e+04
   8.100630e+04  -2.223747e+04
   3.059957e+05   3.676481e+05
   2.522682e+05   8.114955e+05
  -1.786984e+05   6.803032e+05
  -6.832725e+05  -1.231887e+05
  -7.401642e+05  -9.538670e+05
  -1.151885e+05  -1.031294e+06
   7.546823e+05  -2.462446e+05
   1.037760e+06   7.214088e+05
   3.517073e+05   1.089928e+06
  -7.114888e+05   6.796764e+05
  -1.120107e+06  -7.016944e+04
  -5.353911e+05  -6.085801e+05
   2.828183e+05  -6.786190e+05
   3.759068e+05  -3.718453e+05
  -2.501979e+05  -1.135061e+04
  -6.518798e+05   4.110583e+04
  -1.478711e+05  -3.071844e+05
   8.259266e+05  -6.846393e+05
   1.260905e+06  -5.504931e+05
   7.647695e+05   1.709580e+05
  -9.242748e+04   8.714777e+05
  -5.476312e+05   8.622265e+05
  -4.227063e+05   1.649284e+05
  -5.421139e+04  -4.801286e+05
   2.371050e+05  -4.365845e+05
   3.521469e+05   1.474914e+05
   2.574860e+05   5.777439e+05
  -4.933123e+04   4.272171e+05
  -3.916089e+05  -4.323907e+04
  -4.795074e+05  -2.776702e+05
  -2.449690e+05  -9.479296e+04
   3.616399e+04   1.485530e+05
   8.638731e+04   4.119675e+04
  -1.118504e+04  -3.525162e+05
   4.678125e+04  -5.473209e+05
   3.157491e+05  -2.182318e+05
   4.585370e+05   3.761874e+05
   1.595155e+05   6.455796e+05
  -4.070582e+05   3.167506e+05
  -6.666938e+05  -2.753717e+05
  -2.571944e+05  -5.730175e+05
   5.066449e+05  -3.703437e+05
   8.850625e+05   6.931548e+04
   4.829104e+05   3.754388e+05
  -2.908173e+05   4.033908e+05
  -6.380072e+05   2.333520e+05
  -2.509550e+05   2.154325e+04
   3.451317e+05  -6.878570e+04
   4.070682e+05   6.185614e+04
  -1.678365e+05   2.913077e+05
  -7.434228e+05   2.743520e+05
