
 $NMID
 id='ANONYMOUS ', fmtdat='(2E16.6)'
 volume=1.0
 tramp=1.0
 $END
  -1.170963e+07  -1.012025e+06
  -6.967705e+06  -6.444250e+06
   1.033378e+06  -7.330071e+06
   5.385853e+06  -4.021821e+06
   3.883936e+06   1.640562e+05
  -8.357217e+04   1.979581e+06
  -2.235700e+06   6.403480e+05
  -1.377684e+06  -1.908862e+06
   8.055784e+05  -2.841810e+06
   2.155558e+06  -1.084600e+06
   1.724256e+06   1.582050e+06
   1.087981e+05   2.351436e+06
  -1.133278e+06   4.715932e+05
  -7.908229e+05  -1.900008e+06
   7.739940e+05  -2.139075e+06
   1.865833e+06  -5.489828e+03
   1.194583e+06   2.333604e+06
  -7.674784e+05   2.767781e+06
  -2.321899e+06   1.195142e+06
  -2.261636e+06  -8.235155e+05
  -9.233999e+05  -1.773940e+06
   2.891704e+05  -1.424822e+06
   2.985307e+05  -7.318636e+05
  -5.836114e+05  -7.283328e+05
  -9.279857e+05  -1.424951e+06
   2.597545e+05  -1.812655e+06
   2.214446e+06  -1.055635e+06
   3.001020e+06   4.586645e+05
   1.653393e+06   1.495218e+06
  -6.010041e+05   1.289803e+06
  -1.623679e+06   2.180464e+05
  -6.777821e+05  -7.380524e+05
   9.543017e+05  -8.365445e+05
   1.573531e+06   1.075737e+04
   8.079263e+05   1.172486e+06
  -3.474355e+05   1.601191e+06
  -8.067019e+05   7.543034e+05
  -3.997305e+05  -5.762564e+05
   2.067591e+05  -8.916703e+05
   2.847449e+05   1.942640e+05
  -2.643658e+05   1.273179e+06
  -8.339689e+05   8.497945e+05
  -7.100179e+05  -6.447600e+05
   1.611955e+05  -1.324172e+06
   1.000110e+06  -2.653204e+05
   8.854004e+05   1.336551e+06
  -3.087248e+05   1.684277e+06
  -1.662524e+06   4.416275e+05
  -1.958835e+06  -1.130573e+06
  -8.043698e+05  -1.692415e+06
   9.080424e+05  -1.008759e+06
   1.732824e+06   1.579534e+05
   1.028199e+06   8.550014e+05
  -3.986514e+05   6.543445e+05
  -1.123468e+06  -8.204038e+04
  -5.938460e+05  -5.590515e+05
   3.722075e+05  -3.354745e+05
   6.240537e+05   2.350145e+05
  -2.995284e+03   4.592889e+05
  -6.085682e+05   1.117180e+05
  -3.597323e+05  -3.859131e+05
   5.513640e+05  -4.923690e+05
   1.136946e+06  -3.165339e+04
   6.560389e+05   7.592986e+05
  -6.458471e+05   1.370258e+06
  -1.767259e+06   1.237337e+06
  -1.872200e+06   1.981587e+05
  -1.024115e+06  -1.142823e+06
  -3.823688e+04  -1.814979e+06
   3.805490e+05  -1.465978e+06
   2.895587e+05  -7.330106e+05
   2.648306e+05  -4.148560e+05
   6.277674e+05  -4.898246e+05
   1.082889e+06  -2.882764e+05
   1.105500e+06   4.569700e+05
   5.207935e+05   1.136154e+06
  -3.351801e+05   9.757092e+05
  -8.842158e+05  -1.264701e+04
  -7.038979e+05  -9.905008e+05
   1.427953e+05  -1.124358e+06
   1.045281e+06  -3.439322e+05
   1.271870e+06   6.759327e+05
   6.593455e+05   1.182320e+06
  -1.863746e+05   9.901757e+05
  -5.538003e+05   5.288555e+05
  -4.367506e+05   3.012803e+05
  -4.608753e+05   3.498995e+05
  -9.813338e+05   2.886367e+05
  -1.510776e+06  -1.945871e+05
  -1.241596e+06  -9.568013e+05
  -4.424212e+04  -1.503962e+06
   1.256351e+06  -1.399827e+06
   1.654069e+06  -6.175835e+05
   9.393712e+05   3.763724e+05
  -1.288498e+05   9.001716e+05
  -5.903701e+05   6.158461e+05
  -1.892874e+05  -9.104579e+04
   4.761508e+05  -4.406272e+05
   6.568783e+05  -1.009671e+05
   2.286698e+05   4.227888e+05
  -2.676647e+05   4.171255e+05
  -2.779459e+05  -1.179151e+05
   1.931418e+05  -4.338995e+05
   6.460421e+05   3.953425e+04
   5.863201e+05   9.596604e+05
  -7.152694e+04   1.412092e+06
  -9.475605e+05   8.841445e+05
  -1.437956e+06  -2.362384e+05
  -1.144367e+06  -1.084545e+06
  -2.538335e+05  -1.126724e+06
   5.341184e+05  -5.611037e+05
   6.364624e+05  -2.932304e+04
   1.850181e+05   2.180660e+04
  -1.332380e+05  -2.785103e+05
   1.182922e+05  -4.431379e+05
   6.190661e+05  -1.907083e+05
   7.017167e+05   2.588703e+05
   1.771114e+05   4.590232e+05
  -4.145021e+05   2.329245e+05
  -4.027392e+05  -1.608834e+05
   2.597994e+05  -3.091884e+05
   9.103627e+05  -2.490211e+04
   8.350891e+05   5.048707e+05
  -1.349179e+03   8.599930e+05
  -8.908051e+05   7.089473e+05
  -1.062452e+06   1.174520e+05
  -4.358210e+05  -4.379679e+05
   3.244363e+05  -4.817573e+05
   5.007606e+05  -3.771330e+04
   1.948887e+04   3.617402e+05
  -5.554553e+05   2.475531e+05
  -6.439040e+05  -2.616461e+05
  -1.933775e+05  -6.073036e+05
   3.456859e+05  -4.350081e+05
   4.877008e+05   2.653679e+04
   1.573562e+05   2.581360e+05
  -2.507443e+05   2.820773e+04
  -2.471792e+05  -3.869742e+05
   2.474687e+05  -5.155029e+05
   7.651193e+05  -1.602552e+05
   7.406138e+05   4.236774e+05
   1.274626e+05   7.670117e+05
  -5.207364e+05   6.032013e+05
  -6.342836e+05   9.820698e+04
  -2.147595e+05  -3.098248e+05
   2.328386e+05  -3.176786e+05
   2.836106e+05  -2.325918e+04
  -3.916696e+03   2.128901e+05
  -2.459229e+05   1.626297e+05
  -1.780561e+05  -3.995411e+04
   9.414757e+04  -7.810745e+04
   2.251264e+05   1.613296e+05
  -1.960535e+04   4.252898e+05
  -4.994275e+05   3.453509e+05
  -7.788469e+05  -1.558592e+05
  -5.336763e+05  -7.357416e+05
   9.824501e+04  -9.298716e+05
   6.265815e+05  -5.844894e+05
   6.966823e+05   7.705997e+03
   4.143889e+05   3.957689e+05
   1.530458e+05   3.861063e+05
   1.112959e+05   1.762988e+05
   1.457410e+05   9.506456e+04
   1.369691e+04   2.326851e+05
  -3.072753e+05   3.496719e+05
  -5.643001e+05   1.627396e+05
  -4.589177e+05  -2.919295e+05
   5.654184e+04  -6.222672e+05
   6.634814e+05  -4.495848e+05
   8.777245e+05   1.798983e+05
   4.591129e+05   7.848968e+05
  -3.294684e+05   8.802354e+05
  -9.148463e+05   4.206490e+05
  -9.161304e+05  -1.884870e+05
  -4.561157e+05  -5.035265e+05
   2.332453e+04  -4.410989e+05
   2.077567e+05  -2.750171e+05
   1.478865e+05  -2.811552e+05
   1.075584e+05  -4.278062e+05
   2.464264e+05  -4.297595e+05
   4.573940e+05  -9.235240e+04
   4.826138e+05   4.272784e+05
   1.882085e+05   7.273970e+05
  -2.566201e+05   5.411450e+05
  -4.940454e+05   5.017793e+03
  -3.170875e+05  -4.576332e+05
   1.036502e+05  -5.177966e+05
   3.768166e+05  -2.067126e+05
   2.893059e+05   1.710653e+05
   1.140513e+04   3.473472e+05
  -1.213216e+05   2.997962e+05
   2.168517e+03   1.902746e+05
   1.466957e+05   1.506466e+05
   9.695758e+03   1.543921e+05
  -4.060362e+05   8.113799e+04
  -7.362507e+05  -1.250176e+05
  -6.032368e+05  -3.745746e+05
  -2.636296e+04  -5.000189e+05
   5.486851e+05  -3.993061e+05
   6.713801e+05  -1.300805e+05
   3.283839e+05   1.207742e+05
  -7.654622e+04   1.788673e+05
  -1.734485e+05   3.723690e+04
   1.581353e+04  -1.184891e+05
   1.938827e+05  -8.302617e+04
   1.715373e+05   1.357006e+05
   3.845340e+04   2.946426e+05
  -1.666783e+04   1.890733e+05
   5.690158e+04  -7.152699e+04
   1.463890e+05  -1.561151e+05
   1.125747e+05   8.394713e+04
  -8.656383e+04   3.930662e+05
  -3.481607e+05   3.876095e+05
  -4.592959e+05   1.715968e+04
  -2.548615e+05  -3.599948e+05
   1.701039e+05  -3.805064e+05
   4.483562e+05  -6.519639e+04
   2.669177e+05   2.415209e+05
  -2.582601e+05   2.509834e+05
  -6.257761e+05  -1.831387e+04
  -4.454786e+05  -3.190504e+05
   1.385368e+05  -4.140079e+05
   5.855314e+05  -2.455972e+05
   5.144413e+05   4.109849e+04
   7.502578e+04   2.083285e+05
  -2.425650e+05   1.224349e+05
  -1.267256e+05  -9.999840e+04
   2.535417e+05  -1.707050e+05
   4.485158e+05   8.020188e+04
   2.002760e+05   4.801894e+05
  -2.977229e+05   6.294273e+05
  -6.053392e+05   2.916183e+05
  -4.731839e+05  -3.229014e+05
  -5.378450e+04  -7.036649e+05
   2.972989e+05  -5.187207e+05
   3.629685e+05   4.456652e+04
   1.883763e+05   4.577269e+05
  -5.030598e+04   3.938323e+05
  -2.041566e+05   4.462805e+04
  -2.075944e+05  -1.556844e+05
  -9.642473e+04  -6.378722e+04
  -6.055452e+03   4.628385e+04
  -5.530997e+04  -9.579074e+04
  -1.688701e+05  -3.688254e+05
  -1.050310e+05  -4.239390e+05
   2.324335e+05  -1.509717e+05
   5.724726e+05   1.946241e+05
   5.253416e+05   3.334707e+05
   6.911026e+04   2.632360e+05
  -3.674420e+05   1.515131e+05
  -3.939536e+05   7.424780e+04
  -1.096618e+05  -5.612305e+03
   7.173374e+04  -8.281711e+04
  -2.426589e+04  -9.633892e+04
  -1.439995e+05  -5.957810e+04
  -1.948620e+03  -5.541747e+04
   3.032860e+05  -6.979019e+04
   3.988406e+05   3.027871e+04
   9.726494e+04   2.687859e+05
  -3.798598e+05   4.205158e+05
  -6.387605e+05   2.376157e+05
  -4.888611e+05  -2.108126e+05
  -7.167832e+04  -5.534321e+05
   3.037468e+05  -5.055911e+05
   4.122737e+05  -1.657576e+05
   2.565024e+05   1.204333e+05
   2.933165e+04   1.401916e+05
  -6.399877e+04   3.059210e+03
   1.700210e+04  -3.165584e+04
   1.286705e+05   1.325291e+05
   1.002944e+05   3.134726e+05
  -8.687552e+04   2.511560e+05
  -2.699826e+05  -8.192410e+04
  -2.498089e+05  -4.039201e+05
   1.255311e+04  -3.972479e+05
   3.186582e+05  -4.976604e+04
   3.781629e+05   3.268805e+05
   9.392588e+04   4.240487e+05
  -2.920977e+05   2.234883e+05
  -4.119082e+05  -5.673171e+04
  -1.730963e+05  -2.194666e+05
   1.198241e+05  -2.231375e+05
   1.215147e+05  -1.263000e+05
  -1.291831e+05  -1.785102e+04
  -2.598015e+05   9.171537e+02
  -4.006595e+04  -1.149888e+05
   3.272829e+05  -2.541804e+05
   4.625354e+05  -2.131944e+05
   2.560979e+05   5.521811e+04
  -5.347954e+04   3.202476e+05
  -1.968135e+05   3.061543e+05
  -1.347409e+05   3.002366e+04
   2.970031e+03  -2.000653e+05
   1.059227e+05  -1.465966e+05
   1.372034e+05   9.110461e+04
   8.468806e+04   2.275020e+05
  -3.638688e+04   1.372665e+05
  -1.494450e+05  -3.606140e+04
  -1.672272e+05  -9.518649e+04
  -9.039676e+04  -2.227921e+04
  -5.468210e+03   3.613474e+04
   2.754766e+04  -2.999658e+04
   4.044271e+04  -1.580105e+05
   8.782545e+04  -1.824988e+05
   1.483405e+05  -2.670064e+04
   1.338294e+05   1.907344e+05
  -1.533287e+03   2.599667e+05
  -1.780023e+05   1.012648e+05
  -2.331516e+05  -1.387628e+05
  -7.458465e+04  -2.376578e+05
   1.924766e+05  -1.279636e+05
   3.220852e+05   5.716168e+04
   1.698893e+05   1.541598e+05
  -1.208298e+05   1.274747e+05
  -2.435175e+05   5.026780e+04
  -7.398206e+04  -3.119790e+03
   1.682608e+05   5.402550e+02
   1.708967e+05   6.285947e+04
  -9.430547e+04   1.309587e+05
  -3.338603e+05   9.473242e+04
