
 $NMID
 id='ANONYMOUS ', fmtdat='(2E16.6)'
 volume=1.0
 tramp=1.0
 $END
   5.733712e+07   4.287239e+05
   3.410639e+07   3.595566e+07
  -8.051343e+06   3.878839e+07
  -2.825177e+07   1.448386e+07
  -1.660953e+07  -7.473215e+06
   3.537930e+06  -9.452359e+06
   9.942023e+06   1.449988e+06
   2.624065e+06   9.963818e+06
  -6.438897e+06   9.310234e+06
  -9.803217e+06   1.852558e+06
  -7.033090e+06  -6.333735e+06
  -7.734294e+05  -8.692887e+06
   4.053864e+06  -2.784027e+06
   2.619494e+06   5.445102e+06
  -3.873572e+06   6.517039e+06
  -7.958164e+06  -1.473186e+06
  -4.384145e+06  -1.039395e+07
   3.966939e+06  -1.192136e+07
   1.031696e+07  -5.916338e+06
   1.099022e+07   2.142423e+06
   6.737094e+06   7.668601e+06
   6.735726e+05   8.876831e+06
  -3.082490e+06   6.205001e+06
  -2.053614e+06   2.678710e+06
   1.027131e+06   2.047136e+06
   2.906192e+05   4.122976e+06
  -5.377131e+06   4.433489e+06
  -9.712974e+06   5.270462e+05
  -7.129884e+06  -4.170060e+06
  -3.166640e+05  -5.144660e+06
   3.695723e+06  -2.660983e+06
   2.519631e+06  -1.052913e+05
  -4.908225e+05   8.851886e+05
  -2.176830e+06   5.248177e+05
  -2.198048e+06  -1.352438e+06
  -7.574489e+05  -3.919515e+06
   1.815945e+06  -3.926639e+06
   3.346551e+06   6.768738e+04
   1.792463e+06   3.714176e+06
  -8.052622e+05   2.036903e+06
  -3.933450e+05  -2.409527e+06
   2.472729e+06  -2.279911e+06
   2.436528e+06   3.272425e+06
  -2.569581e+06   6.203965e+06
  -7.136892e+06   9.504290e+05
  -5.165195e+06  -7.110740e+06
   2.037726e+06  -8.664873e+06
   7.563062e+06  -2.400504e+06
   6.967096e+06   4.553618e+06
   1.775468e+06   6.090026e+06
  -3.530874e+06   2.675775e+06
  -5.255027e+06  -1.610542e+06
  -2.373417e+06  -3.550645e+06
   2.488890e+06  -2.192836e+06
   4.577069e+06   9.900057e+05
   1.939977e+06   2.787635e+06
  -1.756743e+06   1.376648e+06
  -1.731776e+06  -1.053936e+06
   1.380904e+06  -8.870426e+05
   2.486226e+06   1.863125e+06
  -7.212093e+05   3.527623e+06
  -4.773534e+06   1.873914e+06
  -5.372548e+06  -1.467644e+06
  -2.297942e+06  -4.073925e+06
   1.847673e+06  -5.311913e+06
   5.050376e+06  -4.867602e+06
   6.252807e+06  -1.752135e+06
   4.637416e+06   3.196048e+06
   9.352923e+05   6.233017e+06
  -1.933811e+06   4.784727e+06
  -1.812765e+06   1.167336e+06
  -1.314171e+05  -3.147605e+05
   1.054784e+05   9.728939e+05
  -1.556473e+06   1.836770e+06
  -2.817731e+06   2.967452e+05
  -2.060003e+06  -1.894330e+06
  -6.441519e+04  -2.135893e+06
   1.521548e+06  -2.192299e+05
   1.667808e+06   2.058555e+06
   8.186294e+03   2.939896e+06
  -2.781791e+06   1.677574e+06
  -4.521628e+06  -1.194194e+06
  -3.264596e+06  -3.817285e+06
   5.172647e+04  -4.305734e+06
   2.340641e+06  -2.759653e+06
   2.294327e+06  -1.131212e+06
   1.866832e+06  -6.546973e+05
   2.963662e+06  -4.439174e+05
   4.365946e+06   8.072799e+05
   3.482281e+06   2.810272e+06
   1.013839e+05   4.147013e+06
  -3.238578e+06   3.900206e+06
  -4.195410e+06   2.126391e+06
  -2.677851e+06  -4.101969e+05
  -2.970638e+05  -2.242555e+06
   1.095682e+06  -1.956711e+06
   5.727380e+05   2.733128e+04
  -1.092471e+06   1.318474e+06
  -1.929835e+06   3.958018e+05
  -9.368216e+05  -1.224426e+06
   5.162265e+05  -1.121224e+06
   4.106956e+05   3.943741e+05
  -1.102817e+06   6.630928e+05
  -1.853244e+06  -1.374226e+06
  -5.619694e+05  -3.552962e+06
   1.703634e+06  -3.383653e+06
   3.190036e+06  -1.015101e+06
   3.274928e+06   1.524162e+06
   2.217045e+06   2.780458e+06
   4.227172e+05   2.601960e+06
  -1.249318e+06   1.461498e+06
  -1.584398e+06   2.268025e+05
  -4.965783e+05  -4.992769e+04
   3.549858e+05   7.608937e+05
  -4.352050e+05   1.357815e+06
  -1.945047e+06   5.704016e+05
  -2.052833e+06  -9.265077e+05
  -3.700720e+05  -1.444530e+06
   1.189404e+06  -5.624593e+05
   8.777869e+05   4.657906e+05
  -8.688561e+05   4.899301e+05
  -2.170811e+06  -3.720981e+05
  -1.706351e+06  -1.380791e+06
   2.863339e+05  -1.956266e+06
   2.335495e+06  -1.626824e+06
   2.794633e+06  -2.465356e+05
   1.220112e+06   1.296287e+06
  -9.466150e+05   1.524176e+06
  -1.594710e+06   1.831712e+05
  -2.052185e+05  -1.102432e+06
   1.540213e+06  -7.359206e+05
   1.726190e+06   8.121893e+05
   3.093924e+05   1.672539e+06
  -1.124448e+06   9.584872e+05
  -1.260412e+06  -3.471585e+05
  -2.255443e+05  -7.974166e+05
   8.136392e+05  -4.497862e+04
   7.390598e+05   1.071535e+06
  -5.875162e+05   1.435871e+06
  -2.029296e+06   5.387703e+05
  -2.050993e+06  -1.073047e+06
  -3.710956e+05  -2.101883e+06
   1.475812e+06  -1.647762e+06
   1.749350e+06  -1.900063e+05
   4.929058e+05   8.860255e+05
  -6.754837e+05   8.011153e+05
  -6.293489e+05   7.504496e+04
   1.301210e+05  -3.410074e+05
   4.789800e+05  -1.857859e+05
   8.965256e+04   5.893164e+04
  -4.665890e+05  -1.125122e+05
  -5.037069e+05  -7.062684e+05
   2.374936e+05  -1.198579e+06
   1.409427e+06  -8.851498e+05
   2.097057e+06   4.399225e+05
   1.463019e+06   1.975726e+06
  -2.383337e+05   2.437054e+06
  -1.638074e+06   1.396446e+06
  -1.687449e+06  -1.531231e+05
  -8.350486e+05  -8.967999e+05
  -3.092629e+05  -6.256434e+05
  -4.987281e+05  -2.054043e+05
  -6.503931e+05  -3.314086e+05
  -8.591119e+04  -7.865024e+05
   9.001072e+05  -8.951607e+05
   1.458021e+06  -3.004251e+05
   1.033745e+06   7.337271e+05
  -2.765682e+05   1.449102e+06
  -1.742938e+06   1.050954e+06
  -2.253841e+06  -5.112121e+05
  -1.113022e+06  -2.130465e+06
   1.056489e+06  -2.376900e+06
   2.585589e+06  -1.004383e+06
   2.355042e+06   7.040503e+05
   9.255819e+05   1.357463e+06
  -2.289848e+05   9.278303e+05
  -3.791781e+05   4.910351e+05
  -5.564153e+04   7.638729e+05
  -1.014311e+05   1.337054e+06
  -6.926279e+05   1.308019e+06
  -1.317192e+06   3.152683e+05
  -1.345710e+06  -1.098051e+06
  -5.500702e+05  -1.913821e+06
   6.349003e+05  -1.445116e+06
   1.293986e+06   1.578364e+04
   8.027019e+05   1.309213e+06
  -4.199260e+05   1.405072e+06
  -1.191349e+06   3.805448e+05
  -8.119461e+05  -7.370600e+05
   1.530212e+05  -1.097164e+06
   5.707031e+05  -7.789250e+05
   9.788087e+04  -4.084702e+05
  -4.394066e+05  -3.372671e+05
  -6.034539e+04  -3.851823e+05
   1.168521e+06  -1.984559e+05
   2.089433e+06   3.577073e+05
   1.622319e+06   1.066503e+06
  -6.527866e+04   1.456808e+06
  -1.629876e+06   1.141967e+06
  -1.855124e+06   2.543961e+05
  -8.295716e+05  -5.249086e+05
   2.768614e+05  -5.809903e+05
   5.212760e+05  -2.082168e+04
   3.301941e+04   4.387679e+05
  -4.423929e+05   2.625531e+05
  -4.867201e+05  -3.481131e+05
  -2.684956e+05  -7.278823e+05
  -1.101489e+05  -4.843561e+05
  -1.364787e+05   8.271083e+04
  -2.689067e+05   2.788584e+05
  -2.716977e+05  -2.381792e+05
   1.404235e+05  -9.883040e+05
   9.146547e+05  -1.072304e+06
   1.396353e+06  -1.785915e+05
   8.755111e+05   9.283212e+05
  -4.265300e+05   1.164160e+06
  -1.284878e+06   3.505734e+05
  -7.408406e+05  -5.762350e+05
   7.172865e+05  -6.454306e+05
   1.592090e+06   1.179170e+05
   9.816128e+05   8.810572e+05
  -5.137564e+05   9.760156e+05
  -1.507171e+06   4.439366e+05
  -1.222162e+06  -2.149757e+05
  -1.213877e+05  -5.136108e+05
   6.584981e+05  -2.569609e+05
   3.924786e+05   3.059988e+05
  -5.827849e+05   5.362150e+05
  -1.197278e+06  -6.871632e+04
  -6.961172e+05  -1.186826e+06
   5.747863e+05  -1.728867e+06
   1.489008e+06  -9.085465e+05
   1.268289e+06   7.581434e+05
   2.038801e+05   1.803092e+06
  -7.495596e+05   1.289981e+06
  -9.265539e+05  -1.972769e+05
  -4.129036e+05  -1.204559e+06
   2.465644e+05  -9.616011e+05
   5.729851e+05  -7.227379e+04
   4.519274e+05   3.769711e+05
   1.459523e+05   1.313890e+05
   5.620537e+04  -8.959327e+04
   3.078117e+05   3.139785e+05
   5.213490e+05   9.825479e+05
   1.661112e+05   1.081983e+06
  -7.487418e+05   3.896927e+05
  -1.482416e+06  -4.717073e+05
  -1.265796e+06  -8.455646e+05
  -1.814369e+05  -7.098307e+05
   8.409795e+05  -4.255439e+05
   9.846017e+05  -1.744313e+05
   3.808538e+05   6.842031e+04
  -1.387763e+05   2.307021e+05
  -6.111692e+04   1.921986e+05
   2.403988e+05   7.802955e+04
   6.227628e+04   1.332695e+05
  -6.380160e+05   2.525312e+05
  -1.061603e+06  -5.930347e+02
  -4.813921e+05  -7.063389e+05
   8.202680e+05  -1.212516e+06
   1.736897e+06  -7.902963e+05
   1.466091e+06   4.166353e+05
   2.956940e+05   1.415778e+06
  -7.789698e+05   1.402680e+06
  -1.060751e+06   5.690093e+05
  -6.601296e+05  -2.143764e+05
  -1.500970e+05  -3.630070e+05
   4.532534e+04  -8.768498e+04
  -9.050037e+04  -4.563060e+03
  -2.899118e+05  -3.788911e+05
  -2.407360e+05  -8.151419e+05
   1.714998e+05  -6.948917e+05
   6.845744e+05   9.585761e+04
   7.742012e+05   9.369094e+05
   1.598526e+05   1.048243e+06
  -7.421382e+05   2.889095e+05
  -1.064633e+06  -6.920917e+05
  -3.819929e+05  -1.102360e+06
   7.122363e+05  -7.151806e+05
   1.148436e+06   5.848017e+04
   5.592107e+05   6.385933e+05
  -2.892049e+05   7.173186e+05
  -4.078442e+05   3.801250e+05
   2.216049e+05  -6.069170e+03
   6.490504e+05  -5.012109e+04
   1.606215e+05   3.168933e+05
  -8.295208e+05   6.885761e+05
  -1.293793e+06   5.313746e+05
  -8.008296e+05  -1.992832e+05
   8.855713e+04  -8.922928e+05
   5.790028e+05  -8.810658e+05
   4.609870e+05  -1.873561e+05
   7.557492e+04   4.726038e+05
  -2.333219e+05   4.596032e+05
  -3.574975e+05  -1.179609e+05
  -2.669055e+05  -5.808291e+05
   4.329982e+04  -4.586807e+05
   3.979551e+05   2.906877e+04
   4.924576e+05   2.995095e+05
   2.454568e+05   1.128700e+05
  -4.906485e+04  -1.744180e+05
  -8.180259e+04  -8.879682e+04
   5.612208e+04   3.416080e+05
   9.348872e+03   5.916986e+05
  -3.055077e+05   2.776646e+05
  -5.078352e+05  -3.468838e+05
  -2.170370e+05  -6.521049e+05
   3.956687e+05  -3.380537e+05
   6.959900e+05   2.569816e+05
   2.790936e+05   5.664321e+05
  -5.183924e+05   3.794308e+05
  -9.121910e+05  -5.393405e+04
  -4.980247e+05  -3.763186e+05
   2.937893e+05  -4.307344e+05
   6.535950e+05  -2.653064e+05
   2.769521e+05  -2.499330e+04
  -3.180304e+05   9.947157e+04
  -4.023058e+05  -2.512382e+04
   1.383184e+05  -2.782819e+05
   7.044667e+05  -2.878033e+05
