
 $NMID
 id='ANONYMOUS ', fmtdat='(2E16.6)'
 volume=1.0
 tramp=1.0
 $END
   5.629677e+07  -1.676957e+06
   3.496844e+07   3.414126e+07
  -6.443481e+06   3.852761e+07
  -2.739924e+07   1.529932e+07
  -1.676553e+07  -6.829293e+06
   3.160500e+06  -9.494503e+06
   9.946745e+06   1.118615e+06
   2.936219e+06   9.816823e+06
  -6.131378e+06   9.433954e+06
  -9.660935e+06   2.140550e+06
  -7.097226e+06  -6.004033e+06
  -9.987481e+05  -8.496601e+06
   3.863675e+06  -2.839192e+06
   2.660032e+06   5.282947e+06
  -3.681501e+06   6.538316e+06
  -7.916165e+06  -1.195490e+06
  -4.660316e+06  -1.009623e+07
   3.503861e+06  -1.186939e+07
   9.918735e+06  -6.171949e+06
   1.083459e+07   1.695705e+06
   6.887479e+06   7.230282e+06
   1.044767e+06   8.654790e+06
  -2.739319e+06   6.263661e+06
  -1.956652e+06   2.833348e+06
   9.483373e+05   2.053119e+06
   3.161361e+05   3.990631e+06
  -5.132019e+06   4.409919e+06
  -9.444656e+06   7.456718e+05
  -7.071727e+06  -3.859502e+06
  -4.706742e+05  -4.954299e+06
   3.484913e+06  -2.636628e+06
   2.371625e+06  -1.818011e+05
  -5.233848e+05   7.675932e+05
  -2.088258e+06   4.525691e+05
  -2.089873e+06  -1.276510e+06
  -7.957461e+05  -3.743375e+06
   1.624437e+06  -3.870650e+06
   3.221006e+06  -1.028888e+05
   1.887497e+06   3.509853e+06
  -6.379478e+05   2.026643e+06
  -3.795258e+05  -2.299134e+06
   2.392170e+06  -2.285364e+06
   2.512436e+06   3.156724e+06
  -2.317983e+06   6.241441e+06
  -7.003435e+06   1.251061e+06
  -5.356448e+06  -6.789911e+06
   1.681744e+06  -8.616007e+06
   7.346199e+06  -2.622650e+06
   6.986131e+06   4.293112e+06
   1.903462e+06   5.975721e+06
  -3.432448e+06   2.726430e+06
  -5.237304e+06  -1.482127e+06
  -2.434396e+06  -3.470308e+06
   2.398893e+06  -2.251164e+06
   4.547477e+06   8.375843e+05
   2.001894e+06   2.694971e+06
  -1.686967e+06   1.411230e+06
  -1.731841e+06  -1.008787e+06
   1.369248e+06  -9.508949e+05
   2.572964e+06   1.766021e+06
  -5.509507e+05   3.566893e+06
  -4.650212e+06   2.068973e+06
  -5.378994e+06  -1.257789e+06
  -2.415340e+06  -3.947710e+06
   1.652639e+06  -5.254145e+06
   4.805845e+06  -4.876320e+06
   6.055263e+06  -1.880096e+06
   4.614271e+06   2.974738e+06
   1.080605e+06   6.065921e+06
  -1.788870e+06   4.767639e+06
  -1.800952e+06   1.215424e+06
  -1.940905e+05  -3.407216e+05
   1.126942e+05   8.689404e+05
  -1.443691e+06   1.768218e+06
  -2.687916e+06   3.334349e+05
  -1.996030e+06  -1.790493e+06
  -7.491750e+04  -2.043928e+06
   1.472201e+06  -1.954083e+05
   1.634150e+06   2.003063e+06
   4.831138e+04   2.863332e+06
  -2.667467e+06   1.688509e+06
  -4.429006e+06  -1.047333e+06
  -3.298687e+06  -3.626346e+06
  -9.623413e+04  -4.211446e+06
   2.193782e+06  -2.791376e+06
   2.223346e+06  -1.201110e+06
   1.838552e+06  -6.998203e+05
   2.919445e+06  -4.943941e+05
   4.311869e+06   7.125780e+05
   3.471262e+06   2.698503e+06
   1.663629e+05   4.068714e+06
  -3.111562e+06   3.869878e+06
  -4.059690e+06   2.139453e+06
  -2.603933e+06  -3.526288e+05
  -3.189858e+05  -2.163539e+06
   1.028231e+06  -1.911791e+06
   5.505289e+05   1.597207e+04
  -1.046281e+06   1.300481e+06
  -1.882086e+06   4.228297e+05
  -9.412025e+05  -1.172820e+06
   4.903316e+05  -1.094944e+06
   4.097497e+05   4.004064e+05
  -1.102319e+06   6.919749e+05
  -1.902245e+06  -1.324339e+06
  -6.452064e+05  -3.532390e+06
   1.650268e+06  -3.414232e+06
   3.183550e+06  -1.066098e+06
   3.273915e+06   1.478591e+06
   2.204266e+06   2.733566e+06
   4.317272e+05   2.555829e+06
  -1.203939e+06   1.443343e+06
  -1.541852e+06   2.409327e+05
  -4.867754e+05  -4.128377e+04
   3.596318e+05   7.422679e+05
  -4.009477e+05   1.345505e+06
  -1.899582e+06   6.010162e+05
  -2.038725e+06  -8.739817e+05
  -3.911526e+05  -1.418790e+06
   1.164626e+06  -5.710160e+05
   8.688393e+05   4.569299e+05
  -8.643639e+05   5.018887e+05
  -2.156925e+06  -3.482973e+05
  -1.693477e+06  -1.356110e+06
   2.709041e+05  -1.935726e+06
   2.280453e+06  -1.626259e+06
   2.740310e+06  -2.796627e+05
   1.220921e+06   1.251816e+06
  -8.962042e+05   1.513201e+06
  -1.558668e+06   2.145170e+05
  -2.233826e+05  -1.072263e+06
   1.497928e+06  -7.466499e+05
   1.710260e+06   7.731199e+05
   3.275248e+05   1.646593e+06
  -1.101402e+06   9.636779e+05
  -1.254259e+06  -3.280358e+05
  -2.347695e+05  -7.903806e+05
   8.025951e+05  -6.227128e+04
   7.445216e+05   1.038902e+06
  -5.524881e+05   1.416240e+06
  -1.978848e+06   5.592156e+05
  -2.026168e+06  -1.018978e+06
  -3.973424e+05  -2.055577e+06
   1.422576e+06  -1.641745e+06
   1.716095e+06  -2.131998e+05
   4.967615e+05   8.664810e+05
  -6.551754e+05   7.969428e+05
  -6.148473e+05   7.468283e+04
   1.360136e+05  -3.425491e+05
   4.800855e+05  -1.794417e+05
   8.513395e+04   7.618600e+04
  -4.768294e+05  -9.329743e+04
  -5.188452e+05  -6.911758e+05
   2.121677e+05  -1.189523e+06
   1.371825e+06  -8.938428e+05
   2.065804e+06   3.994192e+05
   1.465845e+06   1.914881e+06
  -1.998089e+05   2.392463e+06
  -1.594002e+06   1.390536e+06
  -1.662253e+06  -1.348020e+05
  -8.217190e+05  -8.786969e+05
  -2.914651e+05  -6.098956e+05
  -4.809154e+05  -1.812820e+05
  -6.497153e+05  -3.024558e+05
  -1.060550e+05  -7.688888e+05
   8.709086e+05  -8.961893e+05
   1.432160e+06  -3.149475e+05
   1.022667e+06   7.122710e+05
  -2.599321e+05   1.430870e+06
  -1.701332e+06   1.055820e+06
  -2.220232e+06  -4.721597e+05
  -1.124669e+06  -2.080084e+06
   1.001764e+06  -2.357198e+06
   2.529219e+06  -1.029730e+06
   2.329948e+06   6.624674e+05
   9.259009e+05   1.332987e+06
  -2.250805e+05   9.199452e+05
  -3.754658e+05   4.764971e+05
  -3.972769e+04   7.331107e+05
  -6.832517e+04   1.305133e+06
  -6.522991e+05   1.296277e+06
  -1.284864e+06   3.341044e+05
  -1.334701e+06  -1.054167e+06
  -5.667235e+05  -1.866878e+06
   6.013696e+05  -1.424456e+06
   1.271214e+06  -1.722346e+03
   8.109650e+05   1.275874e+06
  -3.914156e+05   1.392228e+06
  -1.173774e+06   3.988779e+05
  -8.224373e+05  -7.115770e+05
   1.267360e+05  -1.089748e+06
   5.519241e+05  -7.853288e+05
   9.628387e+04  -4.064223e+05
  -4.333903e+05  -3.207043e+05
  -6.440004e+04  -3.747245e+05
   1.144929e+06  -2.168324e+05
   2.057886e+06   3.129852e+05
   1.611291e+06   1.022231e+06
  -3.754038e+04   1.438912e+06
  -1.579974e+06   1.154000e+06
  -1.821605e+06   2.791194e+05
  -8.316068e+05  -5.073594e+05
   2.581514e+05  -5.789139e+05
   5.156730e+05  -3.064992e+04
   4.656295e+04   4.267841e+05
  -4.264249e+05   2.605243e+05
  -4.819314e+05  -3.321359e+05
  -2.730431e+05  -7.002717e+05
  -1.157526e+05  -4.650047e+05
  -1.378598e+05   8.155029e+04
  -2.658387e+05   2.704015e+05
  -2.715586e+05  -2.308678e+05
   1.243352e+05  -9.667112e+05
   8.791480e+05  -1.066180e+06
   1.362574e+06  -2.069865e+05
   8.734983e+05   8.870250e+05
  -3.928180e+05   1.148771e+06
  -1.246737e+06   3.698286e+05
  -7.320149e+05  -5.517614e+05
   6.953150e+05  -6.449880e+05
   1.566057e+06   9.649054e+04
   9.755793e+05   8.604946e+05
  -4.972875e+05   9.712748e+05
  -1.482233e+06   4.530640e+05
  -1.206204e+06  -2.015605e+05
  -1.236887e+05  -5.057669e+05
   6.461642e+05  -2.616269e+05
   3.922842e+05   2.922193e+05
  -5.587255e+05   5.308102e+05
  -1.168121e+06  -4.811743e+04
  -6.972975e+05  -1.144446e+06
   5.331191e+05  -1.693332e+06
   1.438638e+06  -9.080577e+05
   1.249812e+06   7.232108e+05
   2.236518e+05   1.761456e+06
  -7.204192e+05   1.273244e+06
  -9.156311e+05  -1.826710e+05
  -4.213043e+05  -1.180179e+06
   2.335809e+05  -9.523041e+05
   5.641020e+05  -8.059486e+04
   4.459989e+05   3.682157e+05
   1.418896e+05   1.324458e+05
   5.608452e+04  -9.035345e+04
   3.115485e+05   2.956195e+05
   5.266560e+05   9.523959e+05
   1.749863e+05   1.064475e+06
  -7.308632e+05   4.000704e+05
  -1.458094e+06  -4.425321e+05
  -1.250437e+06  -8.172833e+05
  -1.891045e+05  -6.938019e+05
   8.157973e+05  -4.228243e+05
   9.637784e+05  -1.820594e+05
   3.784627e+05   5.722060e+04
  -1.316230e+05   2.255001e+05
  -6.184784e+04   1.952762e+05
   2.313378e+05   7.977308e+04
   6.310811e+04   1.268325e+05
  -6.167634e+05   2.490087e+05
  -1.037278e+06   1.597498e+04
  -4.846747e+05  -6.738074e+05
   7.796536e+05  -1.192309e+06
   1.684044e+06  -8.046165e+05
   1.438379e+06   3.764679e+05
   3.092004e+05   1.378120e+06
  -7.398950e+05   1.386720e+06
  -1.024991e+06   5.735608e+05
  -6.450464e+05  -2.005773e+05
  -1.529746e+05  -3.501142e+05
   3.758186e+04  -8.096618e+04
  -9.410319e+04  -1.647871e+03
  -2.909193e+05  -3.705605e+05
  -2.468615e+05  -7.974795e+05
   1.561149e+05  -6.813873e+05
   6.662040e+05   8.454803e+04
   7.670405e+05   9.004188e+05
   1.738214e+05   1.015432e+06
  -7.141477e+05   2.903250e+05
  -1.045600e+06  -6.580596e+05
  -3.911016e+05  -1.068274e+06
   6.808399e+05  -7.099814e+05
   1.123121e+06   3.646666e+04
   5.621902e+05   6.135586e+05
  -2.661325e+05   7.079289e+05
  -3.932421e+05   3.840480e+05
   2.128761e+05  -3.354000e+03
   6.329109e+05  -5.715157e+04
   1.634981e+05   3.056466e+05
  -8.024177e+05   6.856026e+05
  -1.263933e+06   5.433143e+05
  -7.926193e+05  -1.778170e+05
   7.096222e+04  -8.740995e+05
   5.519661e+05  -8.765338e+05
   4.447681e+05  -1.973814e+05
   7.888341e+04   4.572652e+05
  -2.177265e+05   4.524994e+05
  -3.456307e+05  -1.093727e+05
  -2.695797e+05  -5.632856e+05
   3.004817e+04  -4.487503e+05
   3.871918e+05   2.189729e+04
   4.904845e+05   2.845148e+05
   2.453527e+05   1.073993e+05
  -5.563365e+04  -1.678732e+05
  -9.072008e+04  -8.734330e+04
   5.767905e+04   3.245711e+05
   2.635113e+04   5.683632e+05
  -2.834174e+05   2.743808e+05
  -4.963085e+05  -3.227692e+05
  -2.229172e+05  -6.240904e+05
   3.785286e+05  -3.340662e+05
   6.813695e+05   2.364097e+05
   2.795751e+05   5.464419e+05
  -5.008690e+05   3.806961e+05
  -8.909799e+05  -3.533269e+04
  -4.927870e+05  -3.589506e+05
   2.766246e+05  -4.263719e+05
   6.301754e+05  -2.716130e+05
   2.703118e+05  -3.329237e+04
  -3.036641e+05   9.632353e+04
  -3.867093e+05  -2.001110e+04
   1.341655e+05  -2.681439e+05
   6.828069e+05  -2.831611e+05
