
 $NMID
 id='ANONYMOUS ', fmtdat='(2E16.6)'
 volume=1.0
 tramp=1.0
 $END
  -3.377289e+07  -1.550407e+06
  -2.070094e+07  -1.861457e+07
   2.724995e+06  -2.165356e+07
   1.561351e+07  -1.144799e+07
   1.111840e+07   1.026732e+06
  -4.706457e+05   5.772927e+06
  -6.413954e+06   1.450474e+06
  -3.653262e+06  -5.592966e+06
   2.532050e+06  -7.795850e+06
   6.149353e+06  -2.866274e+06
   4.890903e+06   4.317638e+06
   4.359921e+05   6.447704e+06
  -3.053149e+06   1.456272e+06
  -2.173937e+06  -5.018279e+06
   2.194115e+06  -5.778164e+06
   5.290303e+06   5.295859e+04
   3.422938e+06   6.569719e+06
  -2.079577e+06   7.863687e+06
  -6.491496e+06   3.599994e+06
  -6.529721e+06  -1.995813e+06
  -3.024440e+06  -4.878558e+06
   4.406621e+05  -4.299541e+06
   9.278140e+05  -2.478630e+06
  -1.148810e+06  -2.084003e+06
  -2.250526e+06  -3.568374e+06
   5.608267e+05  -4.664360e+06
   5.706651e+06  -2.982683e+06
   8.052399e+06   9.171049e+05
   4.687744e+06   3.860711e+06
  -1.299160e+06   3.548088e+06
  -4.142226e+06   8.187870e+05
  -1.821967e+06  -1.674994e+06
   2.295813e+06  -2.005571e+06
   3.890579e+06  -6.583512e+03
   2.100126e+06   2.863716e+06
  -7.047591e+05   4.129296e+06
  -2.020608e+06   2.206633e+06
  -1.283158e+06  -1.280929e+06
   2.264277e+05  -2.441569e+06
   6.910613e+05   2.102738e+05
  -5.751221e+05   3.210110e+06
  -2.208636e+06   2.255563e+06
  -1.978758e+06  -1.850869e+06
   5.836172e+05  -3.849928e+06
   3.137625e+06  -8.563526e+05
   2.764897e+06   3.840774e+06
  -8.193934e+05   4.949861e+06
  -4.696885e+06   1.409142e+06
  -5.410906e+06  -3.077641e+06
  -2.138785e+06  -4.631284e+06
   2.502515e+06  -2.692765e+06
   4.663603e+06   5.117955e+05
   2.705197e+06   2.389439e+06
  -1.194044e+06   1.813538e+06
  -3.158440e+06  -2.493353e+05
  -1.642551e+06  -1.602602e+06
   1.051344e+06  -9.623038e+05
   1.662729e+06   6.572973e+05
  -1.701727e+05   1.203935e+06
  -1.754584e+06   7.395918e+04
  -8.206908e+05  -1.342991e+06
   1.811054e+06  -1.453703e+06
   3.300154e+06   1.866342e+04
   1.853104e+06   2.209579e+06
  -1.648438e+06   3.807999e+06
  -4.626184e+06   3.470708e+06
  -5.034073e+06   7.237287e+05
  -2.934442e+06  -2.957446e+06
  -2.596701e+05  -4.911297e+06
   1.062584e+06  -3.984800e+06
   8.901268e+05  -1.866889e+06
   6.588754e+05  -9.158679e+05
   1.445883e+06  -1.214112e+06
   2.662919e+06  -8.642504e+05
   2.860854e+06   1.013770e+06
   1.434428e+06   2.832459e+06
  -7.694813e+05   2.492392e+06
  -2.222992e+06  -1.359654e+04
  -1.826090e+06  -2.533569e+06
   3.163002e+05  -2.942290e+06
   2.723881e+06  -1.007196e+06
   3.469504e+06   1.659316e+06
   1.942634e+06   3.136807e+06
  -3.805222e+05   2.787189e+06
  -1.512637e+06   1.577376e+06
  -1.265395e+06   8.663662e+05
  -1.287513e+06   9.118797e+05
  -2.625356e+06   7.455831e+05
  -4.023066e+06  -5.132115e+05
  -3.306402e+06  -2.522998e+06
  -1.404797e+05  -3.971233e+06
   3.266047e+06  -3.717206e+06
   4.303597e+06  -1.698658e+06
   2.480518e+06   9.034106e+05
  -2.559891e+05   2.334700e+06
  -1.480432e+06   1.651586e+06
  -5.012216e+05  -2.109640e+05
   1.222327e+06  -1.177875e+06
   1.743860e+06  -2.935687e+05
   6.473625e+05   1.111842e+06
  -6.758440e+05   1.096253e+06
  -6.969179e+05  -3.249984e+05
   5.832452e+05  -1.102724e+06
   1.748885e+06   2.379217e+05
   1.466646e+06   2.656449e+06
  -3.522909e+05   3.710093e+06
  -2.590648e+06   2.201511e+06
  -3.743549e+06  -7.175191e+05
  -2.926078e+06  -2.843847e+06
  -6.445193e+05  -2.919519e+06
   1.376742e+06  -1.475007e+06
   1.656187e+06  -1.006105e+05
   4.868078e+05   5.359544e+04
  -3.549744e+05  -7.330315e+05
   3.142616e+05  -1.191110e+06
   1.658362e+06  -5.252917e+05
   1.876605e+06   6.939556e+05
   4.657140e+05   1.233574e+06
  -1.099171e+06   6.140452e+05
  -1.040563e+06  -4.274789e+05
   7.080436e+05  -7.840226e+05
   2.376448e+06  -2.213653e+04
   2.145096e+06   1.333143e+06
  -3.221988e+04   2.230647e+06
  -2.334780e+06   1.846393e+06
  -2.789772e+06   3.157187e+05
  -1.162320e+06  -1.158966e+06
   8.497947e+05  -1.301458e+06
   1.344346e+06  -1.223570e+05
   7.747548e+04   9.634494e+05
  -1.462578e+06   6.694878e+05
  -1.701492e+06  -6.920730e+05
  -4.946276e+05  -1.606191e+06
   9.320877e+05  -1.130938e+06
   1.285903e+06   9.634557e+04
   3.975934e+05   6.950779e+05
  -6.776339e+05   7.849211e+04
  -6.670184e+05  -1.017058e+06
   6.329889e+05  -1.365538e+06
   2.006087e+06  -4.460662e+05
   1.961824e+06   1.094665e+06
   3.517065e+05   2.021247e+06
  -1.369824e+06   1.600853e+06
  -1.675144e+06   2.604097e+05
  -5.611197e+05  -8.211052e+05
   6.159163e+05  -8.349848e+05
   7.308919e+05  -6.289620e+04
  -2.713603e+04   5.377513e+05
  -6.310256e+05   3.985633e+05
  -4.236867e+05  -1.072479e+05
   2.796394e+05  -1.760822e+05
   5.909760e+05   4.548738e+05
  -6.433841e+04   1.131202e+06
  -1.318009e+06   9.141076e+05
  -2.053898e+06  -4.001822e+05
  -1.419855e+06  -1.927454e+06
   2.428235e+05  -2.441384e+06
   1.639714e+06  -1.526729e+06
   1.815980e+06   2.981476e+04
   1.059852e+06   1.023298e+06
   3.857359e+05   9.686617e+05
   3.116152e+05   4.255742e+05
   4.173633e+05   2.494501e+05
   5.020037e+04   6.293348e+05
  -8.125790e+05   9.222377e+05
  -1.479470e+06   4.204877e+05
  -1.188385e+06  -7.600629e+05
   1.589624e+05  -1.616383e+06
   1.738788e+06  -1.175076e+06
   2.302083e+06   4.655254e+05
   1.207658e+06   2.064866e+06
  -8.730985e+05   2.328569e+06
  -2.420010e+06   1.110508e+06
  -2.407569e+06  -5.078383e+05
  -1.173739e+06  -1.327159e+06
   8.086790e+04  -1.136210e+06
   5.285496e+05  -6.935686e+05
   3.450251e+05  -7.340518e+05
   2.496307e+05  -1.144375e+06
   6.413772e+05  -1.153663e+06
   1.211013e+06  -2.604109e+05
   1.281422e+06   1.110129e+06
   5.107989e+05   1.906010e+06
  -6.611059e+05   1.426014e+06
  -1.297523e+06   1.652179e+04
  -8.383971e+05  -1.210423e+06
   2.808223e+05  -1.370208e+06
   1.014368e+06  -5.347007e+05
   7.760117e+05   4.770007e+05
   1.872257e+04   9.383241e+05
  -3.438629e+05   7.948853e+05
  -6.315882e+03   4.917641e+05
   3.918734e+05   3.849262e+05
   3.125242e+04   4.016955e+05
  -1.076940e+06   2.200080e+05
  -1.953567e+06  -3.166630e+05
  -1.595789e+06  -9.834392e+05
  -6.463733e+04  -1.333005e+06
   1.454302e+06  -1.072227e+06
   1.773954e+06  -3.432136e+05
   8.658244e+05   3.376564e+05
  -2.040888e+05   4.856984e+05
  -4.645766e+05   9.314760e+04
   2.750743e+04  -3.237826e+05
   4.985719e+05  -2.238079e+05
   4.560365e+05   3.517524e+05
   1.232407e+05   7.627044e+05
  -2.359702e+04   4.907731e+05
   1.496872e+05  -1.760292e+05
   3.723545e+05  -3.936329e+05
   2.947142e+05   2.212318e+05
  -2.124701e+05   1.025539e+06
  -9.068959e+05   1.029124e+06
  -1.223964e+06   7.273220e+04
  -6.977814e+05  -9.335891e+05
   4.341062e+05  -1.019981e+06
   1.183446e+06  -2.014272e+05
   7.070441e+05   6.223394e+05
  -6.793197e+05   6.619477e+05
  -1.638914e+06  -4.884301e+04
  -1.153249e+06  -8.415439e+05
   3.783443e+05  -1.080022e+06
   1.535749e+06  -6.287509e+05
   1.339165e+06   1.167171e+05
   1.901390e+05   5.441150e+05
  -6.395008e+05   3.179169e+05
  -3.423435e+05  -2.641970e+05
   6.511040e+05  -4.596755e+05
   1.176907e+06   1.871927e+05
   5.502090e+05   1.244355e+06
  -7.465242e+05   1.659445e+06
  -1.569207e+06   7.877015e+05
  -1.247045e+06  -8.298401e+05
  -1.570439e+05  -1.839400e+06
   7.715828e+05  -1.356581e+06
   9.526864e+05   1.219580e+05
   4.915713e+05   1.201629e+06
  -1.419129e+05   1.029541e+06
  -5.409764e+05   1.159526e+05
  -5.354929e+05  -4.047698e+05
  -2.405625e+05  -1.650445e+05
  -2.089118e+04   1.189869e+05
  -1.672842e+05  -2.533257e+05
  -4.579306e+05  -9.653235e+05
  -2.679291e+05  -1.110998e+06
   6.244013e+05  -4.027534e+05
   1.501980e+06   4.989484e+05
   1.369668e+06   8.677976e+05
   1.856923e+05   6.921908e+05
  -9.472019e+05   4.025491e+05
  -1.027923e+06   1.966344e+05
  -3.003000e+05  -1.674242e+04
   1.810421e+05  -2.184740e+05
  -4.877737e+04  -2.490016e+05
  -3.606696e+05  -1.491804e+05
  -1.229388e+04  -1.424357e+05
   7.747770e+05  -1.910484e+05
   1.046912e+06   6.428098e+04
   2.854429e+05   6.978305e+05
  -9.675949e+05   1.116754e+06
  -1.675677e+06   6.537964e+05
  -1.303564e+06  -5.253537e+05
  -2.073843e+05  -1.444363e+06
   7.859043e+05  -1.339770e+06
   1.073579e+06  -4.559653e+05
   6.706538e+05   3.010531e+05
   8.739880e+04   3.649735e+05
  -1.513968e+05   1.471429e+04
   5.203866e+04  -7.447033e+04
   3.349956e+05   3.510868e+05
   2.648540e+05   8.213186e+05
  -2.169976e+05   6.631132e+05
  -7.037256e+05  -1.981288e+05
  -6.716655e+05  -1.039139e+06
   4.850132e+03  -1.038091e+06
   8.202862e+05  -1.507656e+05
   1.000847e+06   8.314194e+05
   2.679472e+05   1.106668e+06
  -7.535739e+05   6.041558e+05
  -1.087311e+06  -1.306567e+05
  -4.715332e+05  -5.779479e+05
   3.046507e+05  -6.020890e+05
   3.262138e+05  -3.415346e+05
  -3.240894e+05  -4.227671e+04
  -6.767557e+05   1.069322e+04
  -1.136848e+05  -3.014172e+05
   8.515277e+05  -6.734448e+05
   1.221299e+06  -5.651169e+05
   6.895625e+05   1.439928e+05
  -1.284087e+05   8.459243e+05
  -5.173847e+05   8.172276e+05
  -3.626188e+05   9.644454e+04
  -3.195605e+03  -5.166780e+05
   2.686093e+05  -3.937234e+05
   3.576205e+05   2.231868e+05
   2.302214e+05   5.928207e+05
  -8.467540e+04   3.707821e+05
  -3.915755e+05  -8.478743e+04
  -4.479649e+05  -2.517817e+05
  -2.401125e+05  -6.331003e+04
  -4.163543e+03   1.023804e+05
   7.783309e+04  -5.989727e+04
   8.718241e+04  -4.021587e+05
   1.968295e+05  -4.864792e+05
   3.732676e+05  -9.389017e+04
   3.677458e+05   4.763975e+05
   2.447211e+04   6.725296e+05
  -4.554169e+05   2.746649e+05
  -6.206613e+05  -3.460647e+05
  -2.071815e+05  -6.137283e+05
   5.037328e+05  -3.440710e+05
   8.512974e+05   1.324204e+05
   4.533729e+05   3.975072e+05
  -3.099255e+05   3.468281e+05
  -6.363749e+05   1.512689e+05
  -2.028916e+05  -9.226562e+02
   4.244360e+05  -9.084067e+03
   4.400639e+05   1.477137e+05
  -2.349347e+05   3.343256e+05
  -8.539567e+05   2.529214e+05
