
 $NMID
 id='ANONYMOUS ', fmtdat='(2E16.6)'
 volume=1.0
 tramp=1.0
 $END
   2.251626e+07   4.346219e+05
   1.510132e+07   1.045882e+07
   1.125452e+05   1.419085e+07
  -9.797638e+06   9.804637e+06
  -8.486857e+06   1.283967e+06
  -6.919204e+05  -4.147108e+06
   4.746117e+06  -2.311955e+06
   3.738378e+06   3.676681e+06
  -1.000698e+06   6.595441e+06
  -4.372792e+06   3.000229e+06
  -3.751396e+06  -3.075353e+06
  -3.910339e+05  -4.962811e+06
   2.303771e+06  -9.325204e+05
   1.777813e+06   4.244855e+06
  -1.402147e+06   4.927213e+06
  -3.924613e+06   5.088073e+05
  -2.909371e+06  -4.577323e+06
   1.057645e+06  -5.786168e+06
   4.431689e+06  -2.664433e+06
   4.398613e+06   1.468533e+06
   1.695029e+06   3.239917e+06
  -4.622237e+05   2.344188e+06
   3.347165e+04   1.193407e+06
   1.975363e+06   1.843144e+06
   2.223674e+06   3.652872e+06
  -7.935983e+05   4.186975e+06
  -5.015271e+06   2.137865e+06
  -6.465040e+06  -1.162160e+06
  -3.384726e+06  -3.159567e+06
   1.530358e+06  -2.532614e+06
   3.648122e+06  -1.317717e+05
   1.276171e+06   1.955207e+06
  -2.614955e+06   1.969100e+06
  -3.879262e+06  -2.646377e+05
  -1.708202e+06  -2.956326e+06
   1.077767e+06  -3.588091e+06
   1.737392e+06  -1.403988e+06
   4.387375e+05   1.362204e+06
  -7.276366e+05   1.640613e+06
  -4.370278e+05  -8.433208e+05
   8.496063e+05  -2.985014e+06
   1.862790e+06  -1.972274e+06
   1.673501e+06   1.180728e+06
   1.999481e+05   2.787751e+06
  -1.561627e+06   9.448809e+05
  -1.887239e+06  -2.263117e+06
   1.580555e+05  -3.300677e+06
   3.209438e+06  -1.089423e+06
   4.347874e+06   2.186818e+06
   2.045229e+06   3.651259e+06
  -1.897423e+06   2.412049e+06
  -3.968528e+06  -1.069337e+05
  -2.525231e+06  -1.779144e+06
   6.456395e+05  -1.548386e+06
   2.387613e+06  -7.318007e+04
   1.414961e+06   1.041310e+06
  -6.896045e+05   7.580494e+05
  -1.455965e+06  -4.600715e+05
  -1.863827e+05  -1.218381e+06
   1.434045e+06  -6.738728e+05
   1.298345e+06   6.237115e+05
  -6.901930e+05   1.315161e+06
  -2.361332e+06   5.200524e+05
  -1.590858e+06  -1.364523e+06
   1.311794e+06  -2.892583e+06
   3.855805e+06  -2.629354e+06
   3.987452e+06  -3.797967e+05
   2.066383e+06   2.429360e+06
   8.547181e+04   3.868748e+06
  -6.420133e+05   3.298475e+06
  -5.568719e+05   1.891665e+06
  -8.105461e+05   1.130430e+06
  -1.742954e+06   1.034401e+06
  -2.601616e+06   3.915146e+05
  -2.432997e+06  -1.288069e+06
  -1.003346e+06  -2.723269e+06
   9.497055e+05  -2.233357e+06
   2.137605e+06   1.302878e+05
   1.606305e+06   2.372851e+06
  -3.840670e+05   2.554468e+06
  -2.330346e+06   6.759446e+05
  -2.690775e+06  -1.541277e+06
  -1.336687e+06  -2.474153e+06
   3.522811e+05  -1.969822e+06
   1.016594e+06  -1.073622e+06
   7.921527e+05  -7.348527e+05
   9.747112e+05  -9.020527e+05
   2.217667e+06  -7.497805e+05
   3.433222e+06   3.594568e+05
   2.846844e+06   2.126349e+06
   1.280534e+05   3.425036e+06
  -2.870297e+06   3.182182e+06
  -3.778962e+06   1.335418e+06
  -2.079225e+06  -9.341145e+05
   4.019644e+05  -2.035853e+06
   1.397328e+06  -1.326762e+06
   4.059751e+05   2.356636e+05
  -1.103525e+06   9.762976e+05
  -1.465563e+06   2.313679e+05
  -4.835982e+05  -9.245708e+05
   6.404069e+05  -9.402200e+05
   6.967395e+05   2.824401e+05
  -3.864444e+05   1.122282e+06
  -1.564149e+06   1.264845e+05
  -1.591668e+06  -2.118552e+06
  -5.625886e+04  -3.420440e+06
   2.168611e+06  -2.300690e+06
   3.458352e+06   4.333085e+05
   2.753913e+06   2.561116e+06
   5.983345e+05   2.663780e+06
  -1.249396e+06   1.281179e+06
  -1.463505e+06   3.977973e+04
  -4.228427e+05  -4.942995e+04
   3.091785e+05   6.341485e+05
  -2.338768e+05   9.982814e+05
  -1.365126e+06   4.565373e+05
  -1.600544e+06  -5.349448e+05
  -4.438534e+05  -1.023766e+06
   9.393586e+05  -5.533721e+05
   9.582644e+05   3.755825e+05
  -5.921959e+05   7.781759e+05
  -2.162235e+06   1.132438e+05
  -2.002849e+06  -1.186852e+06
  -2.133958e+04  -2.046918e+06
   2.062825e+06  -1.670306e+06
   2.444683e+06  -2.854968e+05
   1.003521e+06   9.746476e+05
  -7.067055e+05   1.075242e+06
  -1.099118e+06   9.880546e+04
  -3.472730e+04  -7.942698e+05
   1.254979e+06  -5.647302e+05
   1.485416e+06   5.751546e+05
   4.851511e+05   1.398302e+06
  -7.728582e+05   1.048080e+06
  -1.146672e+06  -1.629879e+04
  -4.023252e+05  -5.888739e+05
   5.539134e+05  -8.352809e+04
   5.603547e+05   8.716847e+05
  -5.689366e+05   1.167647e+06
  -1.744180e+06   3.552436e+05
  -1.683746e+06  -9.670581e+05
  -2.982724e+05  -1.744673e+06
   1.170883e+06  -1.387328e+06
   1.449042e+06  -2.464593e+05
   5.121133e+05   7.051522e+05
  -5.259909e+05   7.415688e+05
  -6.686580e+05   4.311916e+04
   6.850026e+03  -5.336306e+05
   6.104672e+05  -3.994963e+05
   4.654312e+05   1.292154e+05
  -2.072237e+05   2.483462e+05
  -5.551773e+05  -3.318319e+05
   6.568826e+03  -9.795244e+05
   1.131851e+06  -8.075866e+05
   1.784525e+06   3.448550e+05
   1.223816e+06   1.675560e+06
  -2.243721e+05   2.135979e+06
  -1.449050e+06   1.367378e+06
  -1.634013e+06  -4.738693e+03
  -9.823810e+05  -9.504462e+05
  -3.363041e+05  -9.552874e+05
  -2.027421e+05  -4.281897e+05
  -2.997146e+05  -1.826223e+05
  -3.928297e+04  -5.025676e+05
   6.911661e+05  -8.162848e+05
   1.309744e+06  -3.950696e+05
   1.080312e+06   6.874778e+05
  -1.215001e+05   1.469718e+06
  -1.532473e+06   1.057016e+06
  -2.028763e+06  -4.067224e+05
  -1.079294e+06  -1.797536e+06
   7.166822e+05  -2.029466e+06
   2.078905e+06  -1.002153e+06
   2.130996e+06   3.993685e+05
   1.096491e+06   1.171305e+06
  -4.372036e+04   1.063820e+06
  -5.212329e+05   6.558128e+05
  -3.888462e+05   6.152762e+05
  -2.559498e+05   9.347019e+05
  -5.419431e+05   9.639705e+05
  -1.026006e+06   2.126003e+05
  -1.096641e+06  -9.764866e+05
  -4.276600e+05  -1.665019e+06
   5.909579e+05  -1.237587e+06
   1.137971e+06  -1.840063e+04
   7.444933e+05   1.035216e+06
  -2.083184e+05   1.195160e+06
  -8.460819e+05   5.191943e+05
  -6.810219e+05  -3.416425e+05
  -7.222618e+04  -7.837544e+05
   2.379591e+05  -7.115145e+05
  -1.483464e+04  -4.601017e+05
  -3.244230e+05  -3.500664e+05
  -1.591312e+04  -3.549575e+05
   9.174140e+05  -1.992964e+05
   1.669880e+06   2.658104e+05
   1.388667e+06   8.411413e+05
   9.632759e+04   1.137005e+06
  -1.220891e+06   9.210793e+05
  -1.534416e+06   3.237327e+05
  -7.773970e+05  -2.456016e+05
   1.537392e+05  -3.999800e+05
   3.942174e+05  -1.040691e+05
  -3.697440e+04   2.459229e+05
  -4.518555e+05   1.791790e+05
  -3.883586e+05  -3.091667e+05
  -5.958740e+04  -6.701301e+05
   6.267169e+04  -4.236905e+05
  -1.410476e+05   1.801969e+05
  -3.645856e+05   3.706877e+05
  -2.643602e+05  -1.913868e+05
   2.141257e+05  -9.032678e+05
   7.932659e+05  -8.837985e+05
   1.014007e+06  -3.644423e+04
   5.533957e+05   8.113978e+05
  -3.783794e+05   8.473252e+05
  -9.979076e+05   1.326251e+05
  -6.033785e+05  -5.593567e+05
   5.869535e+05  -5.833408e+05
   1.451615e+06   3.197687e+04
   1.058469e+06   7.393346e+05
  -3.015393e+05   9.818269e+05
  -1.365320e+06   5.966046e+05
  -1.211320e+06  -8.540509e+04
  -1.826642e+05  -4.897656e+05
   5.585748e+05  -2.945470e+05
   2.858179e+05   2.172992e+05
  -5.874904e+05   3.727637e+05
  -1.016084e+06  -2.027569e+05
  -4.295873e+05  -1.099854e+06
   7.072028e+05  -1.418511e+06
   1.393336e+06  -6.422326e+05
   1.077301e+06   7.514583e+05
   1.136339e+05   1.618236e+06
  -6.911932e+05   1.202125e+06
  -8.449625e+05  -8.998222e+04
  -4.483384e+05  -1.056958e+06
   1.013910e+05  -9.260236e+05
   4.666877e+05  -1.137670e+05
   4.898847e+05   3.693263e+05
   2.358636e+05   1.606228e+05
   9.936963e+03  -1.147429e+05
   1.070083e+05   1.964884e+05
   3.787248e+05   8.378322e+05
   2.582823e+05   9.874392e+05
  -5.118820e+05   3.605541e+05
  -1.316288e+06  -4.521060e+05
  -1.224190e+06  -7.775381e+05
  -1.616996e+05  -6.014634e+05
   8.606977e+05  -3.353990e+05
   9.142872e+05  -1.717710e+05
   2.417027e+05  -3.847285e+03
  -1.711346e+05   1.844465e+05
   7.098603e+04   2.411191e+05
   3.464760e+05   1.598984e+05
  -5.272605e+03   1.245340e+05
  -7.157617e+05   1.378970e+05
  -9.077091e+05  -7.878519e+04
  -1.891541e+05  -5.982745e+05
   8.896191e+05  -9.363319e+05
   1.443121e+06  -5.278407e+05
   1.084063e+06   4.883846e+05
   1.474690e+05   1.268160e+06
  -6.919458e+05   1.149749e+06
  -9.387244e+05   3.600223e+05
  -5.836570e+05  -2.925700e+05
  -5.614716e+04  -3.167146e+05
   1.598613e+05   1.536731e+04
  -3.887898e+04   9.048033e+04
  -3.064536e+05  -3.028811e+05
  -2.349842e+05  -7.228131e+05
   2.043289e+05  -5.672121e+05
   6.147241e+05   2.076947e+05
   5.471105e+05   9.365150e+05
  -5.686291e+04   8.959990e+05
  -7.337537e+05   8.314179e+04
  -8.454522e+05  -7.694168e+05
  -1.956646e+05  -9.643256e+05
   6.679817e+05  -4.901502e+05
   9.285938e+05   1.369836e+05
   3.874181e+05   4.848082e+05
  -2.672951e+05   4.903948e+05
  -2.604746e+05   2.904745e+05
   3.111123e+05   5.842916e+04
   5.981798e+05   6.818318e+03
   8.511711e+04   2.570266e+05
  -7.535766e+05   5.798634e+05
  -1.051356e+06   5.032607e+05
  -5.728334e+05  -1.063376e+05
   1.251668e+05  -7.236215e+05
   4.343604e+05  -6.973306e+05
   2.834805e+05  -6.136268e+04
  -2.332771e+04   4.611132e+05
  -2.435092e+05   3.218366e+05
  -3.061163e+05  -2.280087e+05
  -1.873417e+05  -5.211759e+05
   8.303481e+04  -2.956941e+05
   3.372373e+05   9.199904e+04
   3.803457e+05   2.055697e+05
   2.110065e+05   4.144301e+04
   1.584046e+04  -6.522648e+04
  -7.547341e+04   9.635484e+04
  -1.238305e+05   3.614287e+05
  -2.295064e+05   3.821240e+05
  -3.368191e+05   2.233440e+04
  -2.709946e+05  -4.489500e+05
   3.966762e+04  -5.838429e+05
   4.138154e+05  -2.162398e+05
   5.142564e+05   3.276565e+05
   1.546678e+05   5.478614e+05
  -4.358981e+05   2.891994e+05
  -7.218220e+05  -1.393739e+05
  -3.805506e+05  -3.535101e+05
   2.727285e+05  -2.763665e+05
   5.459620e+05  -9.682797e+04
   1.541577e+05   5.207908e+03
  -3.978386e+05  -2.655528e+04
  -3.887485e+05  -1.695106e+05
   2.386997e+05  -3.027175e+05
   7.905628e+05  -1.989815e+05
