
 $NMID
 id='ANONYMOUS ', fmtdat='(2E16.6)'
 volume=1.0
 tramp=1.0
 $END
   2.241418e+07   6.888248e+05
   1.471715e+07   1.100210e+07
  -4.247084e+05   1.424330e+07
  -1.002051e+07   9.190318e+06
  -8.251847e+06   7.116638e+05
  -4.084592e+05  -4.092344e+06
   4.665294e+06  -1.929929e+06
   3.382764e+06   3.734760e+06
  -1.245824e+06   6.237029e+06
  -4.335997e+06   2.685453e+06
  -3.589176e+06  -3.047626e+06
  -3.157029e+05  -4.780002e+06
   2.230776e+06  -9.164311e+05
   1.636965e+06   4.022213e+06
  -1.470683e+06   4.632405e+06
  -3.827056e+06   3.391220e+05
  -2.709449e+06  -4.540023e+06
   1.180916e+06  -5.626176e+06
   4.404505e+06  -2.557763e+06
   4.350857e+06   1.451157e+06
   1.748446e+06   3.223169e+06
  -4.125384e+05   2.452001e+06
  -1.180788e+05   1.322409e+06
   1.641373e+06   1.772237e+06
   1.971498e+06   3.354577e+06
  -7.432139e+05   3.880670e+06
  -4.705692e+06   2.023929e+06
  -6.136577e+06  -1.089464e+06
  -3.268168e+06  -3.024997e+06
   1.376880e+06  -2.449447e+06
   3.397989e+06  -1.859116e+05
   1.216796e+06   1.746635e+06
  -2.365295e+06   1.753173e+06
  -3.531359e+06  -2.604739e+05
  -1.571582e+06  -2.702280e+06
   9.702755e+05  -3.337114e+06
   1.637551e+06  -1.390205e+06
   5.149154e+05   1.218732e+06
  -5.903653e+05   1.605937e+06
  -4.121520e+05  -6.668732e+05
   7.739724e+05  -2.740737e+06
   1.782392e+06  -1.823415e+06
   1.573467e+06   1.208547e+06
   3.290186e+04   2.740299e+06
  -1.701367e+06   8.588704e+05
  -1.866260e+06  -2.334647e+06
   2.679975e+05  -3.295428e+06
   3.183103e+06  -1.028719e+06
   4.127076e+06   2.188094e+06
   1.844558e+06   3.524183e+06
  -1.864371e+06   2.230405e+06
  -3.743709e+06  -2.132243e+05
  -2.318624e+06  -1.762125e+06
   6.995704e+05  -1.459735e+06
   2.315110e+06   7.678635e+03
   1.324707e+06   1.061650e+06
  -6.969510e+05   7.231917e+05
  -1.360052e+06  -4.718220e+05
  -9.095249e+04  -1.121659e+06
   1.386927e+06  -5.003048e+05
   1.113327e+06   7.204041e+05
  -8.320907e+05   1.237908e+06
  -2.329882e+06   3.688399e+05
  -1.491685e+06  -1.403993e+06
   1.278880e+06  -2.775363e+06
   3.668701e+06  -2.491011e+06
   3.808483e+06  -3.612314e+05
   2.000045e+06   2.317605e+06
   6.659080e+04   3.699089e+06
  -6.939801e+05   3.121817e+06
  -5.951569e+05   1.720048e+06
  -7.382777e+05   9.785330e+05
  -1.553952e+06   9.375270e+05
  -2.379099e+06   3.939963e+05
  -2.263058e+06  -1.159945e+06
  -9.446122e+05  -2.509712e+06
   8.677222e+05  -2.061456e+06
   1.960414e+06   1.325166e+05
   1.467211e+06   2.213307e+06
  -3.723516e+05   2.387360e+06
  -2.194942e+06   6.421835e+05
  -2.560764e+06  -1.452299e+06
  -1.293544e+06  -2.374725e+06
   3.399996e+05  -1.926420e+06
   1.015198e+06  -1.056662e+06
   8.094042e+05  -6.895797e+05
   9.551403e+05  -8.157909e+05
   2.102715e+06  -6.566258e+05
   3.227022e+06   3.958048e+05
   2.647307e+06   2.041471e+06
   7.542243e+04   3.216863e+06
  -2.723814e+06   2.953642e+06
  -3.548129e+06   1.228272e+06
  -1.947548e+06  -8.723645e+05
   3.692557e+05  -1.897148e+06
   1.303491e+06  -1.243262e+06
   3.822244e+05   2.155739e+05
  -1.037895e+06   9.090785e+05
  -1.385967e+06   2.039797e+05
  -4.576556e+05  -8.789539e+05
   6.023974e+05  -8.745634e+05
   6.328443e+05   2.759587e+05
  -4.034753e+05   1.019647e+06
  -1.468259e+06   3.490023e+04
  -1.409795e+06  -2.050327e+06
   6.506300e+04  -3.179377e+06
   2.088166e+06  -2.057472e+06
   3.201987e+06   4.923886e+05
   2.505697e+06   2.424953e+06
   5.157510e+05   2.481538e+06
  -1.177636e+06   1.183200e+06
  -1.366519e+06   2.650489e+04
  -3.956665e+05  -5.140468e+04
   2.817601e+05   5.989354e+05
  -2.383016e+05   9.408833e+05
  -1.299895e+06   4.126139e+05
  -1.501290e+06  -5.340680e+05
  -3.971421e+05  -9.758755e+05
   8.911474e+05  -5.039010e+05
   8.835423e+05   3.646735e+05
  -5.714280e+05   7.041978e+05
  -2.011973e+06   5.832721e+04
  -1.835066e+06  -1.136316e+06
   1.840259e+04  -1.899648e+06
   1.950317e+06  -1.525702e+06
   2.291653e+06  -2.333314e+05
   9.302203e+05   9.326958e+05
  -6.809066e+05   1.010303e+06
  -1.044620e+06   8.169252e+04
  -2.980544e+04  -7.523951e+05
   1.186204e+06  -5.170350e+05
   1.384511e+06   5.633627e+05
   4.263424e+05   1.318149e+06
  -7.467975e+05   9.614275e+05
  -1.071260e+06  -4.341719e+04
  -3.596472e+05  -5.617626e+05
   5.270636e+05  -6.973485e+04
   5.181487e+05   8.255252e+05
  -5.438036e+05   1.089998e+06
  -1.638006e+06   3.166866e+05
  -1.569157e+06  -9.244290e+05
  -2.587984e+05  -1.641137e+06
   1.119029e+06  -1.286521e+06
   1.363422e+06  -2.085702e+05
   4.667464e+05   6.701263e+05
  -5.047836e+05   6.859156e+05
  -6.210300e+05   3.326810e+04
   1.773687e+04  -4.881339e+05
   5.667745e+05  -3.552306e+05
   4.154238e+05   1.225869e+05
  -2.063045e+05   2.129976e+05
  -5.096035e+05  -3.310163e+05
   2.798665e+04  -9.196158e+05
   1.073921e+06  -7.400057e+05
   1.668035e+06   3.467174e+05
   1.127168e+06   1.585718e+06
  -2.358475e+05   1.995982e+06
  -1.372483e+06   1.254611e+06
  -1.521566e+06  -3.113859e+04
  -8.952310e+05  -8.939228e+05
  -2.994378e+05  -8.786656e+05
  -1.954640e+05  -3.912532e+05
  -2.909993e+05  -1.796321e+05
  -3.211264e+04  -4.794276e+05
   6.614720e+05  -7.533724e+05
   1.228543e+06  -3.469413e+05
   9.935994e+05   6.543934e+05
  -1.377537e+05   1.363852e+06
  -1.446611e+06   9.633922e+05
  -1.890620e+06  -4.076895e+05
  -9.827381e+05  -1.698720e+06
   7.057432e+05  -1.892831e+06
   1.966802e+06  -9.061961e+05
   1.986053e+06   4.106711e+05
   9.978844e+05   1.110706e+06
  -6.167923e+04   9.829986e+05
  -4.868844e+05   5.963695e+05
  -3.552546e+05   5.734608e+05
  -2.431726e+05   8.828219e+05
  -5.222705e+05   9.040608e+05
  -9.689029e+05   1.892534e+05
  -1.018039e+06  -9.267168e+05
  -3.821309e+05  -1.564001e+06
   5.667363e+05  -1.152199e+06
   1.064996e+06  -1.607253e+03
   6.819367e+05   9.833137e+05
  -2.173915e+05   1.117586e+06
  -8.076679e+05   4.665575e+05
  -6.345383e+05  -3.426118e+05
  -4.807709e+04  -7.427975e+05
   2.439555e+05  -6.615697e+05
  -3.321074e+03  -4.259537e+05
  -3.019629e+05  -3.289936e+05
  -1.214879e+04  -3.314101e+05
   8.659197e+05  -1.738191e+05
   1.566796e+06   2.717001e+05
   1.290576e+06   8.087432e+05
   6.886779e+04   1.071842e+06
  -1.163692e+06   8.506191e+05
  -1.444317e+06   2.791074e+05
  -7.221454e+05  -2.496916e+05
   1.530234e+05  -3.775433e+05
   3.731412e+05  -8.839885e+04
  -3.461880e+04   2.361282e+05
  -4.220676e+05   1.642721e+05
  -3.612791e+05  -2.940205e+05
  -5.559964e+04  -6.262176e+05
   5.642854e+04  -3.956869e+05
  -1.332085e+05   1.616744e+05
  -3.395748e+05   3.363171e+05
  -2.436125e+05  -1.830141e+05
   2.072782e+05  -8.405424e+05
   7.534671e+05  -8.197206e+05
   9.590085e+05  -2.732422e+04
   5.178162e+05   7.660801e+05
  -3.642927e+05   7.962933e+05
  -9.413794e+05   1.199290e+05
  -5.597326e+05  -5.283712e+05
   5.585207e+05  -5.376671e+05
   1.355271e+06   5.149578e+04
   9.717998e+05   7.066480e+05
  -3.015186e+05   9.089739e+05
  -1.282971e+06   5.313703e+05
  -1.125800e+06  -9.991996e+04
  -1.612083e+05  -4.587261e+05
   5.272713e+05  -2.654456e+05
   2.675810e+05   2.092452e+05
  -5.506671e+05   3.460946e+05
  -9.497919e+05  -1.955884e+05
  -3.967972e+05  -1.031640e+06
   6.698310e+05  -1.323035e+06
   1.307621e+06  -5.907820e+05
   1.000264e+06   7.125458e+05
   8.914405e+04   1.513858e+06
  -6.601992e+05   1.112844e+06
  -7.880040e+05  -9.865130e+04
  -4.022919e+05  -9.945699e+05
   1.117887e+05  -8.613832e+05
   4.397618e+05  -9.833334e+04
   4.493870e+05   3.498563e+05
   2.136486e+05   1.511266e+05
   1.262371e+04  -1.055737e+05
   1.054018e+05   1.888166e+05
   3.476658e+05   7.898021e+05
   2.240664e+05   9.254653e+05
  -4.903051e+05   3.301916e+05
  -1.225266e+06  -4.376778e+05
  -1.130399e+06  -7.411866e+05
  -1.436714e+05  -5.657730e+05
   8.037394e+05  -3.047923e+05
   8.552575e+05  -1.484139e+05
   2.305615e+05   2.379802e+03
  -1.601374e+05   1.712906e+05
   5.748007e+04   2.231367e+05
   3.157798e+05   1.496404e+05
  -3.632261e+03   1.160241e+05
  -6.640405e+05   1.239770e+05
  -8.494312e+05  -8.130790e+04
  -1.805133e+05  -5.630545e+05
   8.360491e+05  -8.709583e+05
   1.360630e+06  -4.837155e+05
   1.017690e+06   4.646444e+05
   1.274058e+05   1.187156e+06
  -6.613144e+05   1.070949e+06
  -8.823467e+05   3.317164e+05
  -5.422073e+05  -2.760674e+05
  -5.217854e+04  -2.970613e+05
   1.436794e+05   1.207935e+04
  -3.944279e+04   7.975134e+04
  -2.805435e+05  -2.886093e+05
  -2.097921e+05  -6.789048e+05
   1.956753e+05  -5.302055e+05
   5.719130e+05   1.961528e+05
   5.064570e+05   8.776775e+05
  -5.509990e+04   8.387294e+05
  -6.836709e+05   7.661689e+04
  -7.855852e+05  -7.228388e+05
  -1.775980e+05  -9.048222e+05
   6.290444e+05  -4.567162e+05
   8.708205e+05   1.356799e+05
   3.613502e+05   4.619208e+05
  -2.554745e+05   4.620359e+05
  -2.518644e+05   2.706512e+05
   2.848587e+05   5.565202e+04
   5.582271e+05   1.147306e+04
   7.905361e+04   2.425100e+05
  -7.111309e+05   5.343068e+05
  -9.939814e+05   4.560902e+05
  -5.407980e+05  -1.098104e+05
   1.238956e+05  -6.782991e+05
   4.185522e+05  -6.506528e+05
   2.716364e+05  -5.876240e+04
  -2.340469e+04   4.289412e+05
  -2.300005e+05   3.018902e+05
  -2.838711e+05  -2.113217e+05
  -1.709828e+05  -4.894268e+05
   7.921981e+04  -2.806295e+05
   3.149398e+05   8.716233e+04
   3.557853e+05   1.997614e+05
   1.971466e+05   4.411939e+04
   1.282016e+04  -6.492664e+04
  -7.173004e+04   8.103465e+04
  -1.122771e+05   3.336701e+05
  -2.082982e+05   3.610148e+05
  -3.121164e+05   2.704641e+04
  -2.560936e+05  -4.165999e+05
   3.361061e+04  -5.451444e+05
   3.867293e+05  -2.009060e+05
   4.815633e+05   3.081531e+05
   1.420986e+05   5.121126e+05
  -4.123288e+05   2.672203e+05
  -6.773023e+05  -1.350480e+05
  -3.543112e+05  -3.344003e+05
   2.578923e+05  -2.599632e+05
   5.133064e+05  -9.018581e+04
   1.483431e+05   5.502545e+03
  -3.663144e+05  -2.450232e+04
  -3.599107e+05  -1.565600e+05
   2.216446e+05  -2.774911e+05
   7.340994e+05  -1.787668e+05
