
 $NMID
 id='ANONYMOUS ', fmtdat='(2E16.6)'
 volume=1.0
 tramp=1.0
 $END
  -4.163862e+07   2.710193e+05
  -2.639635e+07  -2.337540e+07
   3.240434e+06  -2.767619e+07
   1.958546e+07  -1.352299e+07
   1.348657e+07   2.572582e+06
  -1.139247e+06   7.223953e+06
  -7.832777e+06   8.820761e+05
  -3.754725e+06  -7.108968e+06
   3.649350e+06  -8.738901e+06
   7.472865e+06  -2.901429e+06
   5.801214e+06   4.900856e+06
   6.953076e+05   7.283000e+06
  -3.354576e+06   1.952995e+06
  -2.401640e+06  -5.274401e+06
   2.702857e+06  -6.288117e+06
   6.327608e+06   2.919307e+05
   4.064008e+06   7.827419e+06
  -2.425776e+06   9.418551e+06
  -7.657512e+06   4.641259e+06
  -8.045636e+06  -1.808017e+06
  -4.384647e+06  -5.602710e+06
  -1.684837e+05  -5.695776e+06
   1.340931e+06  -3.780826e+06
  -2.952850e+05  -2.529285e+06
  -1.871967e+06  -3.317996e+06
   3.631497e+05  -4.602408e+06
   5.698948e+06  -3.482555e+06
   8.700834e+06   4.153194e+05
   5.568997e+06   3.914678e+06
  -7.678796e+05   4.021683e+06
  -4.026770e+06   1.352340e+06
  -1.968804e+06  -1.166102e+06
   1.916347e+06  -1.628690e+06
   3.483228e+06  -4.914466e+04
   2.099483e+06   2.506908e+06
  -3.127823e+05   4.104483e+06
  -1.911868e+06   2.764600e+06
  -1.845126e+06  -8.346597e+05
  -4.363995e+05  -2.759069e+06
   6.013358e+05  -4.442563e+05
  -3.617158e+05   3.018005e+06
  -2.352885e+06   2.353705e+06
  -2.267623e+06  -2.292728e+06
   1.026085e+06  -4.787044e+06
   4.395277e+06  -1.171649e+06
   3.765731e+06   4.758971e+06
  -9.568552e+05   6.269555e+06
  -5.616742e+06   1.931360e+06
  -6.135081e+06  -3.501959e+06
  -2.199066e+06  -5.226356e+06
   2.881554e+06  -2.841613e+06
   5.056256e+06   8.071584e+05
   2.770764e+06   2.822883e+06
  -1.584369e+06   2.064777e+06
  -3.719872e+06  -3.803380e+05
  -1.857673e+06  -1.978271e+06
   1.263735e+06  -1.159000e+06
   1.761438e+06   7.886312e+05
  -5.485475e+05   1.228144e+06
  -2.148591e+06  -4.395785e+05
  -5.394613e+05  -2.121084e+06
   2.703282e+06  -1.815298e+06
   4.102180e+06   3.044247e+05
   2.163945e+06   2.792428e+06
  -1.658471e+06   4.381470e+06
  -4.804057e+06   4.019183e+06
  -5.482439e+06   1.128764e+06
  -3.541176e+06  -3.009036e+06
  -5.531627e+05  -5.408572e+06
   1.295435e+06  -4.401289e+06
   1.229974e+06  -1.782911e+06
   6.042890e+05  -5.539454e+05
   1.055478e+06  -1.084464e+06
   2.363745e+06  -1.105608e+06
   2.856585e+06   6.662921e+05
   1.603215e+06   2.609529e+06
  -5.738648e+05   2.415024e+06
  -2.075459e+06   8.950927e+03
  -1.808997e+06  -2.486287e+06
   2.309206e+05  -3.014978e+06
   2.784128e+06  -1.239513e+06
   3.857443e+06   1.506923e+06
   2.435326e+06   3.347973e+06
  -1.967120e+05   3.296731e+06
  -1.723784e+06   2.026410e+06
  -1.586942e+06   1.038939e+06
  -1.513144e+06   9.050143e+05
  -2.827185e+06   7.057408e+05
  -4.271527e+06  -5.899156e+05
  -3.484081e+06  -2.673634e+06
  -1.476780e+05  -4.152347e+06
   3.348501e+06  -3.890408e+06
   4.381272e+06  -1.873375e+06
   2.585894e+06   7.749236e+05
  -1.081260e+05   2.347228e+06
  -1.395334e+06   1.768741e+06
  -5.260394e+05  -1.600390e+05
   1.214453e+06  -1.248792e+06
   1.847236e+06  -3.451274e+05
   7.597799e+05   1.161394e+06
  -6.494727e+05   1.128136e+06
  -6.407571e+05  -3.745555e+05
   7.815510e+05  -1.044476e+06
   1.909821e+06   5.684894e+05
   1.310524e+06   3.060267e+06
  -7.755578e+05   3.821831e+06
  -2.923525e+06   1.967609e+06
  -3.779805e+06  -1.002718e+06
  -2.811259e+06  -2.960323e+06
  -5.820792e+05  -2.934678e+06
   1.383488e+06  -1.511036e+06
   1.679884e+06  -1.368867e+05
   5.048610e+05   5.327219e+04
  -3.685727e+05  -7.647000e+05
   3.483356e+05  -1.286061e+06
   1.792075e+06  -5.746231e+05
   2.003483e+06   7.719049e+05
   4.665907e+05   1.340838e+06
  -1.164469e+06   6.250332e+05
  -1.029692e+06  -4.629919e+05
   7.964349e+05  -7.352401e+05
   2.419035e+06   1.033469e+05
   2.090623e+06   1.416993e+06
  -1.235284e+05   2.239173e+06
  -2.423065e+06   1.843389e+06
  -2.884870e+06   3.076924e+05
  -1.225711e+06  -1.231674e+06
   8.902493e+05  -1.414587e+06
   1.456219e+06  -1.606550e+05
   1.263620e+05   1.026672e+06
  -1.527693e+06   7.160951e+05
  -1.771467e+06  -7.468628e+05
  -4.615490e+05  -1.688838e+06
   1.028831e+06  -1.129833e+06
   1.336125e+06   1.738065e+05
   3.669083e+05   7.585522e+05
  -7.418307e+05   8.057511e+04
  -7.141386e+05  -1.060897e+06
   6.345749e+05  -1.427927e+06
   2.071229e+06  -4.905512e+05
   2.050283e+06   1.116426e+06
   3.751556e+05   2.108153e+06
  -1.440603e+06   1.673491e+06
  -1.754662e+06   2.538585e+05
  -5.634959e+05  -8.706001e+05
   6.551682e+05  -8.560077e+05
   7.241151e+05  -6.180492e+04
  -7.067014e+04   5.050500e+05
  -6.210904e+05   3.402472e+05
  -3.374210e+05  -1.182872e+05
   3.616173e+05  -1.106196e+05
   6.015469e+05   5.475540e+05
  -1.112191e+05   1.198515e+06
  -1.388030e+06   9.422032e+05
  -2.135396e+06  -4.201490e+05
  -1.482634e+06  -1.999506e+06
   2.478765e+05  -2.518226e+06
   1.699264e+06  -1.538625e+06
   1.844696e+06   7.383896e+04
   1.020570e+06   1.033022e+06
   3.539362e+05   9.042857e+05
   3.620166e+05   3.624202e+05
   5.043469e+05   2.655467e+05
   7.333309e+04   6.927506e+05
  -8.648056e+05   9.504140e+05
  -1.528078e+06   3.992163e+05
  -1.180571e+06  -7.855688e+05
   2.076742e+05  -1.627370e+06
   1.802897e+06  -1.178538e+06
   2.365350e+06   4.950497e+05
   1.224736e+06   2.155687e+06
  -9.497742e+05   2.430193e+06
  -2.552167e+06   1.127793e+06
  -2.482706e+06  -5.831590e+05
  -1.141904e+06  -1.394093e+06
   1.395492e+05  -1.121741e+06
   5.147775e+05  -6.473764e+05
   2.692925e+05  -7.474921e+05
   2.010133e+05  -1.227577e+06
   6.659432e+05  -1.239386e+06
   1.277010e+06  -2.925502e+05
   1.341239e+06   1.137122e+06
   5.404377e+05   1.966534e+06
  -6.725130e+05   1.476060e+06
  -1.340328e+06   8.225290e+03
  -8.622828e+05  -1.279896e+06
   3.271414e+05  -1.433715e+06
   1.108343e+06  -5.193118e+05
   8.289415e+05   5.651728e+05
  -1.955791e+04   1.026085e+06
  -4.215548e+05   8.310294e+05
  -3.844347e+04   4.892785e+05
   4.154386e+05   3.797828e+05
   4.006391e+04   4.077164e+05
  -1.139345e+06   2.277520e+05
  -2.058815e+06  -3.281751e+05
  -1.660994e+06  -1.036282e+06
  -3.797620e+04  -1.420572e+06
   1.546822e+06  -1.139691e+06
   1.860178e+06  -3.348670e+05
   8.956649e+05   4.049672e+05
  -2.251466e+05   5.340364e+05
  -5.007055e+05   7.918652e+04
   2.766957e+03  -3.635453e+05
   4.952342e+05  -2.388290e+05
   4.795088e+05   3.594921e+05
   1.678182e+05   7.671019e+05
   1.457083e+04   4.957076e+05
   1.566033e+05  -1.537339e+05
   3.614665e+05  -3.663438e+05
   2.989810e+05   2.344046e+05
  -1.997019e+05   1.042967e+06
  -9.345307e+05   1.076146e+06
  -1.306515e+06   1.185240e+05
  -7.724537e+05  -9.496057e+05
   4.354114e+05  -1.094611e+06
   1.240842e+06  -2.590774e+05
   7.369197e+05   6.259982e+05
  -7.127123e+05   6.813185e+05
  -1.682293e+06  -7.243596e+04
  -1.143368e+06  -8.905107e+05
   4.360023e+05  -1.093521e+06
   1.588392e+06  -5.942366e+05
   1.354583e+06   1.558933e+05
   1.745410e+05   5.570942e+05
  -6.694319e+05   3.120321e+05
  -3.709622e+05  -2.813588e+05
   6.466558e+05  -4.927358e+05
   1.212883e+06   1.564177e+05
   6.074990e+05   1.257347e+06
  -7.144977e+05   1.721936e+06
  -1.587393e+06   8.439529e+05
  -1.288948e+06  -8.331453e+05
  -1.746598e+05  -1.884417e+06
   7.932888e+05  -1.379680e+06
   9.807053e+05   1.488623e+05
   4.854834e+05   1.245893e+06
  -1.807868e+05   1.049878e+06
  -5.705513e+05   1.095149e+05
  -5.267643e+05  -4.148396e+05
  -2.185554e+05  -1.667117e+05
  -3.376467e+04   1.165604e+05
  -2.179147e+05  -2.696597e+05
  -4.929412e+05  -9.967442e+05
  -2.456062e+05  -1.144749e+06
   6.813005e+05  -4.205893e+05
   1.542903e+06   5.072112e+05
   1.382363e+06   8.950342e+05
   1.921236e+05   7.196372e+05
  -9.446667e+05   4.157482e+05
  -1.049541e+06   1.943260e+05
  -3.368946e+05  -2.673341e+04
   1.735494e+05  -2.263030e+05
  -1.466012e+04  -2.476538e+05
  -3.325436e+05  -1.409574e+05
  -2.683261e+04  -1.410243e+05
   7.554416e+05  -2.065915e+05
   1.080579e+06   4.599995e+04
   3.528729e+05   7.093767e+05
  -9.483918e+05   1.171330e+06
  -1.737621e+06   7.198920e+05
  -1.385865e+06  -4.986051e+05
  -2.389728e+05  -1.476215e+06
   8.038306e+05  -1.401209e+06
   1.096352e+06  -5.035701e+05
   6.835638e+05   2.855975e+05
   1.086802e+05   3.718859e+05
  -1.204072e+05   2.953408e+04
   7.015832e+04  -5.641054e+04
   3.347183e+05   3.732309e+05
   2.664969e+05   8.473128e+05
  -2.081163e+05   6.907948e+05
  -7.140480e+05  -1.754251e+05
  -7.170299e+05  -1.035303e+06
  -4.446552e+04  -1.063308e+06
   8.144112e+05  -1.912607e+05
   1.042794e+06   8.123948e+05
   3.103428e+05   1.133023e+06
  -7.577607e+05   6.537129e+05
  -1.135271e+06  -1.088622e+05
  -5.167622e+05  -6.079660e+05
   3.017390e+05  -6.542611e+05
   3.577093e+05  -3.694845e+05
  -3.013001e+05  -3.612786e+04
  -6.876949e+05   2.122102e+04
  -1.322967e+05  -3.123481e+05
   8.708806e+05  -6.985789e+05
   1.283437e+06  -5.791052e+05
   7.479253e+05   1.567976e+05
  -1.171831e+05   8.839734e+05
  -5.470695e+05   8.665381e+05
  -3.967804e+05   1.329363e+05
  -2.186067e+04  -5.155001e+05
   2.621945e+05  -4.234064e+05
   3.621515e+05   1.993504e+05
   2.479422e+05   6.056807e+05
  -6.915002e+04   4.056098e+05
  -4.023129e+05  -7.053508e+04
  -4.786748e+05  -2.704838e+05
  -2.527175e+05  -7.926644e+04
   1.614136e+04   1.231414e+05
   9.139477e+04  -1.873043e+04
   5.190828e+04  -3.878387e+05
   1.355542e+05  -5.191111e+05
   3.530652e+05  -1.462694e+05
   4.120865e+05   4.442012e+05
   8.059641e+04   6.751922e+05
  -4.481093e+05   2.983069e+05
  -6.568286e+05  -3.256323e+05
  -2.321128e+05  -6.146152e+05
   5.215234e+05  -3.667806e+05
   8.911961e+05   1.090450e+05
   4.798041e+05   4.007411e+05
  -3.092859e+05   3.815721e+05
  -6.540420e+05   1.909984e+05
  -2.292490e+05   1.171118e+04
   4.009366e+05  -2.892196e+04
   4.350304e+05   1.188948e+05
  -2.177900e+05   3.223782e+05
  -8.351638e+05   2.618036e+05
