
 $NMID
 id='ANONYMOUS ', fmtdat='(2E16.6)'
 volume=1.0
 tramp=1.0
 $END
   4.877465e+07   5.461160e+05
   2.976836e+07   2.924388e+07
  -5.570405e+06   3.268426e+07
  -2.367694e+07   1.395457e+07
  -1.503369e+07  -4.774459e+06
   2.218988e+06  -8.271464e+06
   8.886306e+06   1.425358e+05
   3.293180e+06   8.479768e+06
  -4.989731e+06   9.122906e+06
  -8.625206e+06   2.440767e+06
  -6.341154e+06  -5.663007e+06
  -6.252260e+05  -8.006803e+06
   3.726300e+06  -2.269417e+06
   2.441419e+06   5.497483e+06
  -3.339576e+06   6.480228e+06
  -7.121502e+06  -8.601607e+05
  -4.171168e+06  -9.082902e+06
   3.224414e+06  -1.059049e+07
   8.941168e+06  -5.144999e+06
   9.356452e+06   2.083237e+06
   5.338250e+06   6.587600e+06
   3.135691e+05   7.074268e+06
  -2.094218e+06   4.822440e+06
  -6.723319e+05   2.681274e+06
   1.499439e+06   2.932510e+06
  -2.036814e+05   4.496171e+06
  -5.745764e+06   3.824399e+06
  -9.267881e+06  -1.984360e+05
  -6.236491e+06  -4.181408e+06
   4.153871e+05  -4.521870e+06
   3.989177e+06  -1.818056e+06
   2.188866e+06   7.172300e+05
  -1.433897e+06   1.312939e+06
  -3.034168e+06   1.559260e+05
  -2.120872e+06  -2.138540e+06
  -2.748800e+04  -4.095982e+06
   1.947364e+06  -3.247335e+06
   2.451839e+06   5.603089e+05
   9.451628e+05   3.184892e+06
  -6.806934e+05   1.076882e+06
   1.346420e+05  -2.824324e+06
   2.495161e+06  -2.333834e+06
   2.354055e+06   2.769538e+06
  -1.729366e+06   5.454855e+06
  -5.602198e+06   1.066749e+06
  -4.347156e+06  -5.844610e+06
   1.488271e+06  -7.353269e+06
   6.539169e+06  -2.083222e+06
   6.547996e+06   4.096412e+06
   1.994354e+06   5.728112e+06
  -3.255962e+06   2.792183e+06
  -5.239873e+06  -1.234161e+06
  -2.629785e+06  -3.227717e+06
   2.014109e+06  -2.141120e+06
   4.140355e+06   6.881264e+05
   1.903262e+06   2.374104e+06
  -1.505468e+06   1.252433e+06
  -1.775735e+06  -9.439566e+05
   9.189488e+05  -1.119914e+06
   2.340193e+06   1.049344e+06
   3.048345e+04   2.752419e+06
  -3.615720e+06   1.857031e+06
  -4.704838e+06  -8.294931e+05
  -2.230567e+06  -3.398304e+06
   1.835449e+06  -4.817190e+06
   5.065794e+06  -4.358040e+06
   5.917395e+06  -1.311078e+06
   3.999425e+06   3.196892e+06
   6.288742e+05   5.855697e+06
  -1.651399e+06   4.632183e+06
  -1.527625e+06   1.562477e+06
  -4.509339e+05   2.044250e+05
  -6.393837e+05   1.028891e+06
  -2.105608e+06   1.364714e+06
  -2.877350e+06  -3.525602e+05
  -1.759955e+06  -2.405667e+06
   3.825832e+05  -2.336160e+06
   1.897694e+06  -4.527121e+04
   1.739151e+06   2.406103e+06
  -1.984298e+05   3.042001e+06
  -2.859660e+06   1.387909e+06
  -4.171199e+06  -1.476885e+06
  -2.761544e+06  -3.638452e+06
   1.892507e+05  -3.761606e+06
   2.031555e+06  -2.338084e+06
   1.918824e+06  -1.079412e+06
   1.706116e+06  -8.029385e+05
   2.959320e+06  -5.673531e+05
   4.393781e+06   7.657460e+05
   3.511475e+06   2.849370e+06
   5.593036e+04   4.243302e+06
  -3.448709e+06   3.915281e+06
  -4.432737e+06   1.930676e+06
  -2.658097e+06  -6.937248e+05
  -4.988654e+03  -2.348443e+06
   1.336440e+06  -1.850528e+06
   5.504063e+05   1.206055e+05
  -1.214894e+06   1.278796e+06
  -1.925325e+06   3.387879e+05
  -8.250545e+05  -1.223041e+06
   6.321529e+05  -1.134756e+06
   5.564328e+05   4.066841e+05
  -9.514891e+05   9.059717e+05
  -1.930434e+06  -9.369302e+05
  -9.927446e+05  -3.356824e+06
   1.237251e+06  -3.729322e+06
   3.142239e+06  -1.582290e+06
   3.649898e+06   1.307531e+06
   2.578906e+06   3.012689e+06
   4.726363e+05   2.878927e+06
  -1.388332e+06   1.496604e+06
  -1.679027e+06   1.431554e+05
  -5.111854e+05  -6.241512e+04
   3.567795e+05   7.869735e+05
  -4.135156e+05   1.337172e+06
  -1.902372e+06   5.539993e+05
  -2.053849e+06  -8.868672e+05
  -4.141140e+05  -1.421117e+06
   1.212813e+06  -5.919424e+05
   9.832650e+05   4.963383e+05
  -8.601153e+05   6.409260e+05
  -2.375567e+06  -2.602521e+05
  -1.957025e+06  -1.477633e+06
   2.362678e+05  -2.175646e+06
   2.477868e+06  -1.751314e+06
   2.917632e+06  -2.354164e+05
   1.227657e+06   1.306488e+06
  -9.565718e+05   1.472533e+06
  -1.544931e+06   1.477163e+05
  -1.419703e+05  -1.080150e+06
   1.578857e+06  -7.110602e+05
   1.778694e+06   8.226004e+05
   3.792301e+05   1.729494e+06
  -1.112667e+06   1.068117e+06
  -1.334056e+06  -2.727828e+05
  -3.045562e+05  -7.995758e+05
   7.892636e+05  -5.534587e+04
   7.205375e+05   1.101561e+06
  -6.559777e+05   1.450288e+06
  -2.108128e+06   4.818211e+05
  -2.073873e+06  -1.161150e+06
  -3.426224e+05  -2.158174e+06
   1.516890e+06  -1.673116e+06
   1.795605e+06  -2.012565e+05
   5.310976e+05   9.069563e+05
  -6.944828e+05   8.404997e+05
  -7.030593e+05   5.295814e+04
   1.080427e+05  -4.510364e+05
   5.873411e+05  -2.729125e+05
   2.437386e+05   1.075797e+05
  -4.165503e+05   2.000856e+04
  -5.685222e+05  -6.345720e+05
   1.852983e+05  -1.224503e+06
   1.444604e+06  -9.151527e+05
   2.159119e+06   4.766808e+05
   1.469990e+06   2.060757e+06
  -2.968497e+05   2.535528e+06
  -1.741949e+06   1.483011e+06
  -1.821648e+06  -1.431579e+05
  -9.476000e+05  -1.022396e+06
  -3.228782e+05  -8.198538e+05
  -4.152015e+05  -3.121129e+05
  -5.697389e+05  -3.042402e+05
  -6.919923e+04  -7.460491e+05
   9.152995e+05  -9.340396e+05
   1.542076e+06  -3.402218e+05
   1.133031e+06   8.053494e+05
  -2.716031e+05   1.589127e+06
  -1.841516e+06   1.119862e+06
  -2.363547e+06  -5.570118e+05
  -1.166990e+06  -2.216611e+06
   1.058245e+06  -2.445971e+06
   2.643322e+06  -1.056785e+06
   2.476692e+06   6.914763e+05
   1.054245e+06   1.434014e+06
  -2.018160e+05   1.067697e+06
  -4.862768e+05   5.876187e+05
  -2.035530e+05   7.618080e+05
  -1.865074e+05   1.292262e+06
  -7.125578e+05   1.281571e+06
  -1.325567e+06   2.851026e+05
  -1.350507e+06  -1.170685e+06
  -5.189933e+05  -1.997837e+06
   6.997344e+05  -1.482668e+06
   1.351467e+06   2.659893e+04
   8.342363e+05   1.336095e+06
  -3.979078e+05   1.448819e+06
  -1.177167e+06   4.563309e+05
  -8.326216e+05  -6.612683e+05
   9.070958e+04  -1.078428e+06
   5.061895e+05  -8.230430e+05
   7.330305e+04  -4.678830e+05
  -4.263926e+05  -3.780601e+05
  -4.137486e+04  -4.078753e+05
   1.180161e+06  -2.008629e+05
   2.110116e+06   3.839167e+05
   1.663152e+06   1.101741e+06
  -2.776839e+04   1.468312e+06
  -1.634248e+06   1.138389e+06
  -1.905827e+06   2.758185e+05
  -8.832521e+05  -4.790953e+05
   2.595388e+05  -5.610539e+05
   5.221266e+05  -4.891191e+04
   6.246088e+03   4.005674e+05
  -4.885592e+05   2.434736e+05
  -4.858894e+05  -3.711876e+05
  -1.969774e+05  -7.692153e+05
  -4.373619e+04  -5.004598e+05
  -1.558722e+05   1.256452e+05
  -3.406341e+05   3.314268e+05
  -2.907168e+05  -2.467673e+05
   2.000181e+05  -1.039225e+06
   9.665060e+05  -1.080819e+06
   1.371925e+06  -1.229490e+05
   8.127062e+05   9.739687e+05
  -4.600082e+05   1.137991e+06
  -1.288323e+06   2.793728e+05
  -7.421158e+05  -6.329608e+05
   7.428739e+05  -6.687699e+05
   1.681999e+06   1.242787e+05
   1.087189e+06   9.294723e+05
  -4.982377e+05   1.063637e+06
  -1.603656e+06   5.168437e+05
  -1.329243e+06  -2.097587e+05
  -1.462057e+05  -5.558917e+05
   6.862481e+05  -2.843625e+05
   3.828686e+05   3.037818e+05
  -6.434844e+05   5.078908e+05
  -1.228579e+06  -1.472550e+05
  -6.318138e+05  -1.265967e+06
   7.054832e+05  -1.746396e+06
   1.596615e+06  -8.572512e+05
   1.291969e+06   8.450156e+05
   1.543373e+05   1.895247e+06
  -8.196370e+05   1.358455e+06
  -9.784330e+05  -1.901802e+05
  -4.436286e+05  -1.266470e+06
   2.316523e+05  -1.035298e+06
   5.866009e+05  -8.671476e+04
   5.001269e+05   4.196583e+05
   1.906593e+05   1.615567e+05
   4.605899e+04  -1.080469e+05
   2.543686e+05   2.956009e+05
   4.964600e+05   1.021132e+06
   1.971385e+05   1.150303e+06
  -7.311599e+05   4.060785e+05
  -1.542178e+06  -5.331966e+05
  -1.348508e+06  -9.218451e+05
  -1.787781e+05  -7.349386e+05
   9.310422e+05  -4.096087e+05
   1.050182e+06  -1.703365e+05
   3.619639e+05   4.927964e+04
  -1.674770e+05   2.291064e+05
  -2.071961e+04   2.324108e+05
   2.993683e+05   1.265865e+05
   3.891020e+04   1.409262e+05
  -7.278862e+05   2.136100e+05
  -1.094769e+06  -4.891462e+04
  -3.988103e+05  -7.276745e+05
   9.383866e+05  -1.193503e+06
   1.786733e+06  -7.318464e+05
   1.437272e+06   5.004658e+05
   2.388382e+05   1.487317e+06
  -8.367461e+05   1.417042e+06
  -1.113893e+06   5.200392e+05
  -6.826077e+05  -2.762233e+05
  -1.206596e+05  -3.777024e+05
   9.258094e+04  -4.989344e+04
  -8.189574e+04   3.239410e+04
  -3.174027e+05  -3.904680e+05
  -2.459518e+05  -8.581710e+05
   2.106014e+05  -7.029468e+05
   7.131696e+05   1.610578e+05
   7.346998e+05   1.030527e+06
   7.177817e+04   1.079029e+06
  -8.049143e+05   2.182041e+05
  -1.057071e+06  -8.005456e+05
  -3.244603e+05  -1.149626e+06
   7.667623e+05  -6.777691e+05
   1.162202e+06   1.115315e+05
   5.343873e+05   6.420181e+05
  -3.140638e+05   6.879166e+05
  -3.920650e+05   3.761184e+05
   2.745339e+05   2.693612e+04
   6.870024e+05  -2.004442e+04
   1.408714e+05   3.227987e+05
  -8.860902e+05   6.930645e+05
  -1.326694e+06   5.493466e+05
  -7.830763e+05  -1.898297e+05
   1.242617e+05  -9.037233e+05
   5.871520e+05  -8.816466e+05
   4.324221e+05  -1.514632e+05
   3.363283e+04   5.089386e+05
  -2.633802e+05   4.417230e+05
  -3.630329e+05  -1.778276e+05
  -2.494001e+05  -6.130183e+05
   6.676603e+04  -4.338350e+05
   4.072362e+05   6.292627e+04
   4.900900e+05   2.963973e+05
   2.544196e+05   9.911404e+04
  -2.829836e+04  -1.459939e+05
  -9.179088e+04  -2.562324e+04
  -1.780488e+04   3.748969e+05
  -8.881414e+04   5.542389e+05
  -3.420228e+05   1.945865e+05
  -4.493694e+05  -4.207480e+05
  -1.240943e+05  -6.795920e+05
   4.415733e+05  -3.115302e+05
   6.795071e+05   3.165152e+05
   2.438491e+05   6.120568e+05
  -5.379929e+05   3.702165e+05
  -9.158732e+05  -1.052605e+05
  -4.897041e+05  -4.080736e+05
   3.158724e+05  -4.035143e+05
   6.701395e+05  -2.128316e+05
   2.531824e+05  -1.393695e+04
  -3.757956e+05   4.888876e+04
  -4.275088e+05  -9.257313e+04
   1.974608e+05  -3.063485e+05
   8.053462e+05  -2.602698e+05
