
 $NMID
 id='ANONYMOUS ', fmtdat='(2E16.6)'
 volume=1.0
 tramp=1.0
 $END
  -1.105803e+07  -2.238619e+06
  -5.659043e+06  -6.695502e+06
   1.863497e+06  -6.597506e+06
   5.286426e+06  -3.194071e+06
   3.393415e+06   4.382368e+05
  -3.007610e+05   1.846223e+06
  -2.104395e+06   5.413490e+05
  -1.205562e+06  -1.821256e+06
   8.381965e+05  -2.667008e+06
   2.071609e+06  -9.008443e+05
   1.560438e+06   1.728193e+06
  -9.686123e+04   2.376280e+06
  -1.273258e+06   3.748396e+05
  -8.049385e+05  -1.959442e+06
   7.675636e+05  -2.046271e+06
   1.705936e+06   1.148191e+05
   9.092237e+05   2.260407e+06
  -9.814036e+05   2.459855e+06
  -2.320355e+06   8.110724e+05
  -2.057965e+06  -1.116138e+06
  -6.134798e+05  -1.895064e+06
   5.944976e+05  -1.351064e+06
   4.880925e+05  -5.089589e+05
  -5.597182e+05  -4.983895e+05
  -9.953720e+05  -1.322582e+06
   2.270095e+05  -1.822175e+06
   2.250032e+06  -1.046686e+06
   3.029977e+06   5.621154e+05
   1.606316e+06   1.650459e+06
  -7.206462e+05   1.415539e+06
  -1.771316e+06   2.590543e+05
  -7.980835e+05  -8.022585e+05
   9.140920e+05  -9.595008e+05
   1.605767e+06  -5.540316e+04
   8.135789e+05   1.221141e+06
  -4.476619e+05   1.655922e+06
  -9.395236e+05   6.684812e+05
  -4.153427e+05  -7.623452e+05
   3.240358e+05  -9.913123e+05
   3.958839e+05   2.386846e+05
  -2.391015e+05   1.315810e+06
  -8.100039e+05   7.990655e+05
  -6.147675e+05  -6.615582e+05
   2.289327e+05  -1.176530e+06
   9.056930e+05  -6.880720e+04
   6.808508e+05   1.355942e+06
  -4.287878e+05   1.509832e+06
  -1.604259e+06   2.799428e+05
  -1.818257e+06  -1.136942e+06
  -7.194949e+05  -1.608393e+06
   8.940050e+05  -9.499683e+05
   1.654076e+06   1.751653e+05
   9.378301e+05   8.557859e+05
  -4.425448e+05   6.226119e+05
  -1.088771e+06  -1.505061e+05
  -5.233078e+05  -6.071284e+05
   4.015823e+05  -3.258949e+05
   6.112059e+05   2.534784e+05
   2.107661e+04   4.398140e+05
  -5.206033e+05   1.066845e+05
  -2.975401e+05  -2.984392e+05
   4.967651e+05  -3.430968e+05
   9.939544e+05   6.149725e+04
   5.231568e+05   7.312434e+05
  -7.197968e+05   1.257441e+06
  -1.790666e+06   1.101327e+06
  -1.841282e+06   7.622117e+04
  -9.273864e+05  -1.211117e+06
   8.120654e+04  -1.790485e+06
   4.414693e+05  -1.368785e+06
   2.643413e+05  -6.475614e+05
   2.073319e+05  -4.052735e+05
   6.021734e+05  -5.391318e+05
   1.104319e+06  -3.359109e+05
   1.152162e+06   4.504150e+05
   5.615473e+05   1.173783e+06
  -3.305997e+05   1.035948e+06
  -9.205681e+05   3.150319e+04
  -7.391941e+05  -9.894503e+05
   1.527712e+05  -1.141229e+06
   1.075020e+06  -3.220577e+05
   1.245814e+06   7.427950e+05
   5.572177e+05   1.223773e+06
  -2.927683e+05   9.439847e+05
  -5.914605e+05   4.212949e+05
  -4.110157e+05   2.084096e+05
  -4.139116e+05   3.055091e+05
  -9.217331e+05   2.722801e+05
  -1.433384e+06  -1.979610e+05
  -1.178887e+06  -9.362852e+05
  -3.582285e+04  -1.460061e+06
   1.228932e+06  -1.357199e+06
   1.644531e+06  -5.903451e+05
   9.550850e+05   3.988655e+05
  -1.311660e+05   9.230976e+05
  -6.266600e+05   6.243515e+05
  -2.210316e+05  -1.036957e+05
   4.783612e+05  -4.554051e+05
   6.717635e+05  -9.719257e+04
   2.260531e+05   4.450353e+05
  -2.869174e+05   4.472600e+05
  -3.077781e+05  -9.119624e+04
   1.404021e+05  -4.331957e+05
   5.768021e+05  -1.236495e+04
   5.527137e+05   8.635558e+05
  -2.575610e+04   1.326916e+06
  -8.513911e+05   8.605994e+05
  -1.364169e+06  -2.035280e+05
  -1.125836e+06  -1.039535e+06
  -2.633785e+05  -1.097298e+06
   5.288293e+05  -5.439147e+05
   6.367650e+05  -1.626899e+04
   1.815866e+05   3.038695e+04
  -1.394287e+05  -2.725621e+05
   1.111625e+05  -4.357319e+05
   6.090571e+05  -1.862096e+05
   6.961249e+05   2.564221e+05
   1.862245e+05   4.627312e+05
  -4.041412e+05   2.578954e+05
  -4.227757e+05  -1.297313e+05
   2.049531e+05  -3.083180e+05
   8.603597e+05  -6.446709e+04
   8.282585e+05   4.564082e+05
   2.822600e+04   8.339294e+05
  -8.582317e+05   7.017503e+05
  -1.042780e+06   1.114244e+05
  -4.228752e+05  -4.420108e+05
   3.338297e+05  -4.733679e+05
   5.028976e+05  -2.237645e+04
   1.917373e+04   3.698689e+05
  -5.491235e+05   2.498578e+05
  -6.361162e+05  -2.538851e+05
  -1.976404e+05  -5.977916e+05
   3.329432e+05  -4.387527e+05
   4.870022e+05   1.182757e+04
   1.761809e+05   2.553066e+05
  -2.312739e+05   4.987316e+04
  -2.489852e+05  -3.556201e+05
   2.235779e+05  -4.966873e+05
   7.349228e+05  -1.603582e+05
   7.192386e+05   4.112447e+05
   1.216010e+05   7.492568e+05
  -5.146150e+05   5.862455e+05
  -6.292316e+05   8.751560e+04
  -2.202587e+05  -3.166123e+05
   2.275597e+05  -3.289903e+05
   3.000364e+05  -3.679286e+04
   3.322876e+04   2.148069e+05
  -2.207553e+05   1.895000e+05
  -1.928224e+05  -7.317045e+03
   5.183416e+04  -7.099649e+04
   1.939023e+05   1.344364e+05
  -1.694476e+04   3.868622e+05
  -4.710450e+05   3.238643e+05
  -7.450515e+05  -1.499823e+05
  -5.100330e+05  -7.118338e+05
   1.028637e+05  -9.056632e+05
   6.136473e+05  -5.737406e+05
   6.818346e+05   5.509138e+03
   4.124979e+05   3.953198e+05
   1.565834e+05   3.988961e+05
   9.849838e+04   1.929557e+05
   1.149718e+05   9.351822e+04
  -6.272285e+03   2.060262e+05
  -2.915993e+05   3.177717e+05
  -5.253528e+05   1.522227e+05
  -4.335713e+05  -2.737581e+05
   4.614186e+04  -5.915694e+05
   6.271978e+05  -4.309440e+05
   8.429103e+05   1.704728e+05
   4.495043e+05   7.509022e+05
  -3.069710e+05   8.447648e+05
  -8.759909e+05   4.090846e+05
  -8.902371e+05  -1.729839e+05
  -4.593866e+05  -4.833896e+05
   5.839913e+03  -4.379240e+05
   2.044296e+05  -2.847877e+05
   1.659632e+05  -2.826187e+05
   1.269196e+05  -4.108211e+05
   2.473181e+05  -4.061706e+05
   4.417451e+05  -8.033645e+04
   4.651939e+05   4.211525e+05
   1.793848e+05   7.108086e+05
  -2.538686e+05   5.288760e+05
  -4.823276e+05   9.740191e+03
  -3.084773e+05  -4.359605e+05
   9.293574e+04  -4.963168e+05
   3.475541e+05  -2.065197e+05
   2.668801e+05   1.467575e+05
   1.793305e+04   3.174563e+05
  -9.761501e+04   2.847297e+05
   1.115298e+04   1.914508e+05
   1.330520e+05   1.537189e+05
   1.869776e+03   1.483827e+05
  -3.820314e+05   7.003621e+04
  -6.931498e+05  -1.272590e+05
  -5.775672e+05  -3.578333e+05
  -3.583595e+04  -4.694900e+05
   5.193222e+05  -3.748573e+05
   6.465135e+05  -1.295542e+05
   3.186172e+05   1.006832e+05
  -7.255470e+04   1.606080e+05
  -1.594070e+05   3.800190e+04
   3.261819e+04  -1.038740e+05
   2.004469e+05  -7.077181e+04
   1.597917e+05   1.394676e+05
   1.662628e+04   2.954051e+05
  -3.205516e+04   1.899135e+05
   5.271967e+04  -7.412923e+04
   1.424396e+05  -1.640656e+05
   1.015003e+05   7.200723e+04
  -9.306497e+04   3.756127e+05
  -3.322092e+05   3.642120e+05
  -4.232395e+05  -1.345907e+02
  -2.248591e+05  -3.534002e+05
   1.716989e+05  -3.512267e+05
   4.285239e+05  -3.895172e+04
   2.530319e+05   2.440585e+05
  -2.507615e+05   2.397642e+05
  -6.091510e+05  -1.900747e+04
  -4.417627e+05  -3.049203e+05
   1.238306e+05  -4.032379e+05
   5.664494e+05  -2.501047e+05
   5.059979e+05   3.007480e+04
   7.929601e+04   2.036147e+05
  -2.327440e+05   1.252790e+05
  -1.187283e+05  -9.310335e+04
   2.538510e+05  -1.595614e+05
   4.364635e+05   9.144834e+04
   1.782850e+05   4.780226e+05
  -3.159199e+05   6.075251e+05
  -6.050357e+05   2.660990e+05
  -4.561620e+05  -3.291215e+05
  -3.920141e+04  -6.900624e+05
   2.947010e+05  -5.076570e+05
   3.512667e+05   3.750196e+04
   1.876805e+05   4.413753e+05
  -3.530366e+04   3.854212e+05
  -1.908089e+05   4.743406e+04
  -2.107032e+05  -1.507642e+05
  -1.065791e+05  -6.206633e+04
  -2.583283e+03   4.812282e+04
  -3.623089e+04  -9.021508e+04
  -1.548423e+05  -3.604010e+05
  -1.117295e+05  -4.149108e+05
   2.133469e+05  -1.432827e+05
   5.582264e+05   1.975229e+05
   5.190112e+05   3.285315e+05
   6.334982e+04   2.528663e+05
  -3.712600e+05   1.428444e+05
  -3.868539e+05   7.190874e+04
  -9.487827e+04  -3.495437e+03
   7.712521e+04  -8.090289e+04
  -3.460434e+04  -9.682273e+04
  -1.540225e+05  -6.081925e+04
   2.546844e+03  -5.351375e+04
   3.103462e+05  -6.232774e+04
   3.867988e+05   3.873410e+04
   7.015576e+04   2.663788e+05
  -3.924538e+05   3.995202e+05
  -6.201382e+05   2.076797e+05
  -4.569514e+05  -2.272166e+05
  -5.451820e+04  -5.433233e+05
   3.009007e+05  -4.794016e+05
   4.038228e+05  -1.448348e+05
   2.507349e+05   1.261228e+05
   2.171060e+04   1.364067e+05
  -7.516475e+04  -2.451146e+03
   9.527751e+03  -3.808954e+04
   1.281528e+05   1.239187e+05
   9.993393e+04   3.043291e+05
  -9.052923e+04   2.426992e+05
  -2.675637e+05  -9.035803e+04
  -2.328432e+05  -4.089587e+05
   3.414116e+04  -3.910998e+05
   3.241767e+05  -3.262889e+04
   3.617589e+05   3.395406e+05
   7.385585e+04   4.167287e+05
  -2.936417e+05   2.021332e+05
  -3.934941e+05  -6.853123e+04
  -1.541979e+05  -2.084084e+05
   1.215539e+05  -2.018445e+05
   1.088560e+05  -1.161011e+05
  -1.385842e+05  -2.302655e+04
  -2.554333e+05  -5.753409e+03
  -3.115359e+04  -1.113465e+05
   3.233795e+05  -2.429614e+05
   4.420431e+05  -2.048646e+05
   2.338660e+05   5.340700e+04
  -6.121741e+04   3.070639e+05
  -1.890361e+05   2.860634e+05
  -1.220297e+05   1.371950e+04
   1.247652e+04  -2.014764e+05
   1.103138e+05  -1.339675e+05
   1.350905e+05   1.024376e+05
   7.596326e+04   2.240344e+05
  -4.416788e+04   1.238307e+05
  -1.461415e+05  -4.302453e+04
  -1.553442e+05  -8.997517e+04
  -8.533431e+04  -1.731920e+04
  -1.357184e+04   2.805171e+04
   2.214020e+04  -4.607291e+04
   5.544347e+04  -1.647106e+05
   1.144759e+05  -1.707162e+05
   1.583077e+05  -4.992910e+03
   1.158045e+05   2.062984e+05
  -2.610933e+04   2.606429e+05
  -1.825497e+05   9.067517e+04
  -2.183823e+05  -1.494949e+05
  -6.308951e+04  -2.384506e+05
   1.869242e+05  -1.175459e+05
   3.072034e+05   6.916478e+04
   1.592309e+05   1.550112e+05
  -1.230732e+05   1.139544e+05
  -2.393214e+05   3.293840e+04
  -6.451749e+04  -9.948683e+03
   1.793312e+05   8.277336e+03
   1.747037e+05   7.588031e+04
  -1.021725e+05   1.367712e+05
  -3.442388e+05   8.993888e+04
