
 $NMID
 id='ANONYMOUS ', fmtdat='(2E16.6)'
 volume=1.0
 tramp=1.0
 $END
   4.128272e+07  -2.081706e+06
   2.727191e+07   2.282590e+07
  -2.461112e+06   2.808756e+07
  -1.946925e+07   1.372028e+07
  -1.358959e+07  -2.845481e+06
   1.199098e+06  -7.350456e+06
   7.882056e+06  -6.655477e+05
   3.618399e+06   7.196971e+06
  -3.780931e+06   8.506536e+06
  -7.430456e+06   2.782549e+06
  -5.749489e+06  -4.619529e+06
  -8.341965e+05  -6.958720e+06
   3.116775e+06  -2.036618e+06
   2.282471e+06   4.868759e+06
  -2.664748e+06   5.988271e+06
  -6.269790e+06  -2.723649e+05
  -4.127502e+06  -7.631152e+06
   2.194266e+06  -9.321471e+06
   7.373731e+06  -4.839442e+06
   7.986209e+06   1.360002e+06
   4.718689e+06   5.244156e+06
   6.365957e+05   5.756500e+06
  -1.247651e+06   4.128570e+06
  -1.210491e+05   2.641711e+06
   1.430371e+06   2.934955e+06
  -2.697477e+05   4.083914e+06
  -5.082053e+06   3.351988e+06
  -8.095132e+06  -8.184928e+04
  -5.451040e+06  -3.462101e+06
   3.769016e+05  -3.780729e+06
   3.498885e+06  -1.445013e+06
   1.763132e+06   7.825795e+05
  -1.603441e+06   1.202689e+06
  -2.925320e+06  -2.261171e+04
  -1.818432e+06  -2.093187e+06
   1.160167e+05  -3.624738e+06
   1.602597e+06  -2.746690e+06
   1.876062e+06   4.513118e+05
   7.612080e+05   2.550920e+06
  -3.984792e+05   7.172312e+05
   2.688314e+05  -2.586694e+06
   2.197175e+06  -2.176724e+06
   2.243290e+06   2.265387e+06
  -1.042223e+06   4.855800e+06
  -4.565917e+06   1.379152e+06
  -4.013496e+06  -4.633375e+06
   7.755448e+05  -6.341281e+06
   5.467716e+06  -2.108710e+06
   5.940729e+06   3.307650e+06
   2.066320e+06   5.022920e+06
  -2.789816e+06   2.675050e+06
  -4.798742e+06  -8.556928e+05
  -2.577276e+06  -2.777330e+06
   1.604784e+06  -2.038807e+06
   3.658402e+06   3.508126e+05
   1.828205e+06   1.956544e+06
  -1.226245e+06   1.169163e+06
  -1.652980e+06  -7.760711e+05
   6.935359e+05  -1.174105e+06
   2.214734e+06   6.141983e+05
   4.469102e+05   2.357917e+06
  -2.851183e+06   1.939243e+06
  -4.150314e+06  -3.274290e+05
  -2.178981e+06  -2.783704e+06
   1.444309e+06  -4.232304e+06
   4.366946e+06  -3.895399e+06
   5.117516e+06  -1.253201e+06
   3.488320e+06   2.671652e+06
   6.853508e+05   5.089052e+06
  -1.255566e+06   4.207144e+06
  -1.309144e+06   1.607421e+06
  -5.768395e+05   3.009225e+05
  -7.795452e+05   8.429969e+05
  -1.948452e+06   1.056576e+06
  -2.514335e+06  -4.444719e+05
  -1.478013e+06  -2.224134e+06
   4.469753e+05  -2.103187e+06
   1.792146e+06   1.840200e+04
   1.596433e+06   2.233177e+06
  -1.755707e+05   2.740342e+06
  -2.514049e+06   1.225001e+06
  -3.641244e+06  -1.249241e+06
  -2.455193e+06  -3.068285e+06
   2.920779e+04  -3.202847e+06
   1.607812e+06  -2.076221e+06
   1.576220e+06  -1.062577e+06
   1.487245e+06  -8.358321e+05
   2.663178e+06  -6.259771e+05
   3.985110e+06   5.643688e+05
   3.235033e+06   2.485678e+06
   1.339914e+05   3.835818e+06
  -3.062791e+06   3.583538e+06
  -3.976239e+06   1.757677e+06
  -2.359546e+06  -6.357190e+05
   3.720859e+04  -2.098788e+06
   1.209425e+06  -1.631039e+06
   4.780278e+05   1.182581e+05
  -1.089032e+06   1.151938e+06
  -1.712851e+06   3.398800e+05
  -7.416040e+05  -1.060672e+06
   5.754649e+05  -1.024616e+06
   5.539084e+05   3.763177e+05
  -8.226299e+05   9.366575e+05
  -1.850757e+06  -6.707977e+05
  -1.141122e+06  -2.999119e+06
   9.268376e+05  -3.562012e+06
   2.856459e+06  -1.683702e+06
   3.462429e+06   1.072380e+06
   2.471464e+06   2.766854e+06
   4.733303e+05   2.667200e+06
  -1.256287e+06   1.371313e+06
  -1.521947e+06   1.331170e+05
  -4.639253e+05  -4.885623e+04
   3.384932e+05   7.061705e+05
  -3.262476e+05   1.210651e+06
  -1.680575e+06   5.507003e+05
  -1.877441e+06  -7.309505e+05
  -4.278381e+05  -1.267018e+06
   1.086032e+06  -5.707028e+05
   9.248243e+05   4.446982e+05
  -7.759849e+05   6.455442e+05
  -2.220932e+06  -1.686474e+05
  -1.859167e+06  -1.344081e+06
   1.733057e+05  -2.036036e+06
   2.243577e+06  -1.655890e+06
   2.652827e+06  -2.665553e+05
   1.139517e+06   1.146880e+06
  -8.162691e+05   1.332819e+06
  -1.365345e+06   1.709256e+05
  -1.411583e+05  -9.513042e+05
   1.408590e+06  -6.681940e+05
   1.635708e+06   7.036059e+05
   3.994477e+05   1.573305e+06
  -9.855101e+05   1.025356e+06
  -1.240936e+06  -1.983938e+05
  -3.193754e+05  -7.237747e+05
   7.017600e+05  -7.824929e+04
   6.668060e+05   9.766518e+05
  -5.736945e+05   1.314605e+06
  -1.897129e+06   4.596941e+05
  -1.888569e+06  -1.019050e+06
  -3.479898e+05  -1.944048e+06
   1.336080e+06  -1.546033e+06
   1.625432e+06  -2.247526e+05
   5.104705e+05   8.140278e+05
  -6.137717e+05   7.837349e+05
  -6.500078e+05   4.883247e+04
   9.462579e+04  -4.447332e+05
   5.662196e+05  -2.708134e+05
   2.608645e+05   1.279878e+05
  -3.787476e+05   7.613216e+04
  -5.578150e+05  -5.438124e+05
   1.227698e+05  -1.121166e+06
   1.289675e+06  -8.641795e+05
   1.966569e+06   3.922130e+05
   1.364907e+06   1.840610e+06
  -2.328780e+05   2.308337e+06
  -1.571897e+06   1.389703e+06
  -1.683892e+06  -9.836075e+04
  -8.937515e+05  -9.499216e+05
  -2.861176e+05  -7.898717e+05
  -3.396273e+05  -2.893530e+05
  -4.995677e+05  -2.379143e+05
  -8.250439e+04  -6.538285e+05
   8.090151e+05  -8.727106e+05
   1.408521e+06  -3.450747e+05
   1.058235e+06   7.311733e+05
  -2.225374e+05   1.478528e+06
  -1.666180e+06   1.060622e+06
  -2.165451e+06  -4.691511e+05
  -1.110824e+06  -1.996122e+06
   8.976826e+05  -2.247469e+06
   2.373939e+06  -1.026994e+06
   2.283821e+06   5.710115e+05
   1.013144e+06   1.304350e+06
  -1.663393e+05   1.011862e+06
  -4.689612e+05   5.540376e+05
  -2.075417e+05   6.670217e+05
  -1.526439e+05   1.140160e+06
  -6.088596e+05   1.159941e+06
  -1.182130e+06   2.808657e+05
  -1.235395e+06  -1.039598e+06
  -4.971006e+05  -1.803148e+06
   6.153017e+05  -1.352994e+06
   1.231495e+06   1.324552e+02
   7.907756e+05   1.191985e+06
  -3.193978e+05   1.329635e+06
  -1.053376e+06   4.665882e+05
  -7.837226e+05  -5.524946e+05
   3.124125e+04  -9.755765e+05
   4.202694e+05  -7.764888e+05
   5.507650e+04  -4.445031e+05
  -3.828959e+05  -3.392040e+05
  -3.848430e+04  -3.695478e+05
   1.059448e+06  -2.104120e+05
   1.909028e+06   3.007732e+05
   1.531111e+06   9.634231e+05
   2.363131e+04   1.329719e+06
  -1.439699e+06   1.064671e+06
  -1.724743e+06   2.971390e+05
  -8.300754e+05  -4.014686e+05
   2.102209e+05  -5.076765e+05
   4.725628e+05  -6.610921e+04
   1.353363e+04   3.441843e+05
  -4.442396e+05   2.187453e+05
  -4.427703e+05  -3.279997e+05
  -1.689854e+05  -6.881562e+05
  -2.968487e+04  -4.436172e+05
  -1.492953e+05   1.270910e+05
  -3.272067e+05   3.119436e+05
  -2.719384e+05  -2.195725e+05
   1.785954e+05  -9.456050e+05
   8.572682e+05  -9.914169e+05
   1.213693e+06  -1.332595e+05
   7.298637e+05   8.584223e+05
  -3.897873e+05   1.021817e+06
  -1.140913e+06   2.626018e+05
  -6.754776e+05  -5.670776e+05
   6.616355e+05  -6.239443e+05
   1.541828e+06   8.316919e+04
   1.026627e+06   8.378191e+05
  -4.285416e+05   9.983475e+05
  -1.468544e+06   5.143992e+05
  -1.233905e+06  -1.682165e+05
  -1.472544e+05  -5.125487e+05
   6.219885e+05  -2.779575e+05
   3.495959e+05   2.607183e+05
  -5.792241e+05   4.555763e+05
  -1.105844e+06  -1.287507e+05
  -5.695537e+05  -1.135785e+06
   6.309326e+05  -1.573952e+06
   1.437912e+06  -7.805240e+05
   1.177683e+06   7.558946e+05
   1.593725e+05   1.720356e+06
  -7.329225e+05   1.253018e+06
  -9.014451e+05  -1.508885e+05
  -4.321340e+05  -1.150295e+06
   1.874551e+05  -9.614963e+05
   5.312289e+05  -9.577853e+04
   4.688970e+05   3.843664e+05
   1.848300e+05   1.561562e+05
   3.825106e+04  -1.055883e+05
   2.227973e+05   2.452200e+05
   4.597004e+05   9.128513e+05
   2.067440e+05   1.054497e+06
  -6.435887e+05   3.919946e+05
  -1.409320e+06  -4.666202e+05
  -1.250235e+06  -8.290919e+05
  -1.753614e+05  -6.631855e+05
   8.513865e+05  -3.741061e+05
   9.589920e+05  -1.695411e+05
   3.237174e+05   2.604942e+04
  -1.531138e+05   2.055671e+05
  -6.246077e+03   2.279596e+05
   2.831161e+05   1.296871e+05
   3.034046e+04   1.243490e+05
  -6.702965e+05   1.855610e+05
  -9.881451e+05  -3.496888e+04
  -3.490180e+05  -6.375951e+05
   8.454628e+05  -1.073780e+06
   1.593209e+06  -6.793486e+05
   1.283495e+06   4.334461e+05
   2.254839e+05   1.343954e+06
  -7.347217e+05   1.291313e+06
  -9.963543e+05   4.736116e+05
  -6.182981e+05  -2.526613e+05
  -1.071367e+05  -3.362877e+05
   9.066517e+04  -2.849728e+04
  -7.569762e+04   4.392015e+04
  -3.022543e+05  -3.502876e+05
  -2.388143e+05  -7.788333e+05
   1.839324e+05  -6.339591e+05
   6.441697e+05   1.502669e+05
   6.612636e+05   9.296911e+05
   6.123299e+04   9.641558e+05
  -7.263702e+05   1.861156e+05
  -9.525014e+05  -7.239526e+05
  -2.970414e+05  -1.030626e+06
   6.824648e+05  -6.096071e+05
   1.043728e+06   8.805556e+04
   4.890449e+05   5.602362e+05
  -2.673278e+05   6.137243e+05
  -3.369535e+05   3.495583e+05
   2.587874e+05   3.520766e+04
   6.240656e+05  -2.107086e+04
   1.281193e+05   2.852656e+05
  -7.962863e+05   6.391076e+05
  -1.190861e+06   5.292626e+05
  -7.048379e+05  -1.444286e+05
   1.006110e+05  -8.137103e+05
   5.071507e+05  -8.068558e+05
   3.704691e+05  -1.407764e+05
   2.520615e+04   4.614054e+05
  -2.316621e+05   3.938952e+05
  -3.236248e+05  -1.695573e+05
  -2.300398e+05  -5.516888e+05
   5.205697e+04  -3.805062e+05
   3.654387e+05   5.765162e+04
   4.480711e+05   2.521944e+05
   2.361314e+05   7.953023e+04
  -2.720071e+04  -1.185798e+05
  -9.581073e+04  -2.690592e+03
  -3.390428e+04   3.365009e+05
  -8.977510e+04   4.741475e+05
  -3.009853e+05   1.528251e+05
  -3.858321e+05  -3.802476e+05
  -9.666627e+04  -6.019754e+05
   3.988127e+05  -2.765177e+05
   6.049963e+05   2.824370e+05
   2.175289e+05   5.524027e+05
  -4.784456e+05   3.411042e+05
  -8.193407e+05  -8.684528e+04
  -4.435464e+05  -3.624030e+05
   2.759655e+05  -3.593121e+05
   5.939185e+05  -1.903152e+05
   2.182497e+05  -1.936445e+04
  -3.466160e+05   2.958344e+04
  -3.842855e+05  -9.650042e+04
   1.918380e+05  -2.802700e+05
   7.439008e+05  -2.314364e+05
