
 $NMID
 id='ANONYMOUS ', fmtdat='(2E16.6)'
 volume=1.0
 tramp=1.0
 $END
  -8.151807e+06  -1.710910e+06
  -4.818704e+06  -3.813758e+06
   2.659612e+05  -4.612304e+06
   3.529523e+06  -3.702276e+06
   3.208902e+06  -1.025958e+06
   4.811295e+05   1.455531e+06
  -1.795391e+06   1.247012e+06
  -1.695810e+06  -1.276717e+06
   1.853590e+05  -2.840640e+06
   1.690464e+06  -1.354382e+06
   1.432016e+06   1.404215e+06
  -2.476099e+04   2.164405e+06
  -1.072482e+06   2.159830e+05
  -7.271775e+05  -2.057958e+06
   5.880351e+05  -2.211182e+06
   1.533424e+06  -2.411324e+05
   1.061022e+06   1.852111e+06
  -5.543143e+05   2.225658e+06
  -1.836568e+06   7.807123e+05
  -1.572299e+06  -9.583240e+05
  -2.065960e+05  -1.426378e+06
   5.924036e+05  -6.308629e+05
  -9.479255e+04  -4.110291e+04
  -1.287632e+06  -7.173205e+05
  -1.233863e+06  -1.938392e+06
   5.297884e+05  -2.122155e+06
   2.570773e+06  -8.002116e+05
   2.985323e+06   9.096209e+05
   1.289912e+06   1.655753e+06
  -1.044196e+06   1.085809e+06
  -1.906920e+06  -1.929540e+05
  -5.829305e+05  -1.212375e+06
   1.468867e+06  -1.127550e+06
   2.107819e+06   1.780638e+05
   8.360500e+05   1.649298e+06
  -7.473288e+05   1.814974e+06
  -9.657451e+05   4.572101e+05
   2.630785e+03  -9.035653e+05
   6.755495e+05  -7.203367e+05
   2.818558e+05   6.906676e+05
  -5.411816e+05   1.574044e+06
  -9.052345e+05   9.140442e+05
  -6.788043e+05  -4.494531e+05
  -1.909335e+05  -9.898614e+05
   2.976122e+05  -2.516567e+05
   4.531883e+05   8.391867e+05
  -1.414104e+05   1.102247e+06
  -1.274274e+06   2.368007e+05
  -1.827183e+06  -1.019727e+06
  -9.169074e+05  -1.614877e+06
   8.355565e+05  -1.100141e+06
   1.808179e+06   7.714481e+03
   1.188951e+06   7.513686e+05
  -1.990844e+05   6.424598e+05
  -9.598756e+05   2.650604e+04
  -5.853600e+05  -3.995888e+05
   2.799458e+05  -2.784349e+05
   6.753016e+05   2.018431e+05
   2.305235e+05   5.816016e+05
  -5.368054e+05   5.060614e+05
  -7.128313e+05   4.518291e+03
   1.832438e+04  -4.505719e+05
   8.444337e+05  -2.999689e+05
   6.176216e+05   4.834708e+05
  -7.239855e+05   1.194873e+06
  -1.923777e+06   1.029794e+06
  -1.840712e+06  -5.456649e+04
  -7.506963e+05  -1.257340e+06
   1.574751e+05  -1.751385e+06
   2.942490e+05  -1.459075e+06
   1.605245e+05  -9.541193e+05
   4.224987e+05  -7.056636e+05
   1.038205e+06  -5.697536e+05
   1.443416e+06  -8.012170e+04
   1.222604e+06   8.186635e+05
   4.102369e+05   1.477634e+06
  -5.806074e+05   1.148855e+06
  -1.130505e+06  -9.402576e+04
  -7.828714e+05  -1.227761e+06
   2.651992e+05  -1.249276e+06
   1.164487e+06  -2.091286e+05
   1.176662e+06   8.920224e+05
   4.223759e+05   1.198316e+06
  -3.071976e+05   7.833543e+05
  -4.625531e+05   3.277520e+05
  -2.844885e+05   2.679455e+05
  -4.070040e+05   4.283944e+05
  -1.035013e+06   3.507777e+05
  -1.607585e+06  -2.081628e+05
  -1.315483e+06  -1.050660e+06
  -5.508266e+03  -1.642557e+06
   1.455059e+06  -1.479354e+06
   1.887770e+06  -5.424673e+05
   9.930316e+05   5.538770e+05
  -2.893408e+05   1.017399e+06
  -7.589817e+05   6.028368e+05
  -1.933172e+05  -1.456556e+05
   5.726378e+05  -4.459091e+05
   6.977937e+05  -6.964784e+04
   1.812853e+05   4.556614e+05
  -3.458927e+05   4.512109e+05
  -3.657100e+05  -1.269181e+05
   1.235191e+05  -5.695944e+05
   6.999549e+05  -1.692394e+05
   8.096935e+05   9.072733e+05
   1.497950e+05   1.643290e+06
  -9.664273e+05   1.199830e+06
  -1.694331e+06  -1.482241e+05
  -1.385007e+06  -1.264573e+06
  -2.889190e+05  -1.331709e+06
   6.418161e+05  -6.095712e+05
   7.256963e+05   1.583034e+04
   2.036907e+05   3.162868e+04
  -1.391801e+05  -3.093631e+05
   1.215842e+05  -4.560173e+05
   6.376221e+05  -1.829099e+05
   7.381907e+05   2.642530e+05
   2.025533e+05   4.748380e+05
  -4.514602e+05   2.568919e+05
  -4.775552e+05  -1.852010e+05
   2.673101e+05  -3.967067e+05
   1.059101e+06  -7.731378e+04
   1.004525e+06   5.829998e+05
   2.065340e+04   1.016290e+06
  -1.018451e+06   8.051538e+05
  -1.188386e+06   1.083913e+05
  -4.594997e+05  -4.752637e+05
   3.580070e+05  -4.805246e+05
   5.081847e+05  -1.288411e+04
  -1.656641e+04   3.751749e+05
  -6.117893e+05   2.435285e+05
  -7.044517e+05  -2.891161e+05
  -2.333549e+05  -6.709257e+05
   3.611839e+05  -5.097068e+05
   5.491717e+05  -5.674306e+03
   2.029480e+05   2.725441e+05
  -2.520449e+05   3.037548e+04
  -2.473230e+05  -4.281415e+05
   3.028576e+05  -5.512264e+05
   8.534805e+05  -1.329068e+05
   7.926040e+05   5.024404e+05
   1.117046e+05   8.431373e+05
  -5.797765e+05   6.453221e+05
  -6.959912e+05   1.022937e+05
  -2.434732e+05  -3.399175e+05
   2.582634e+05  -3.537603e+05
   3.383084e+05  -1.376043e+04
   9.594180e+03   2.780145e+05
  -3.114078e+05   2.166095e+05
  -2.660795e+05  -6.113484e+04
   6.940751e+04  -1.436174e+05
   2.636608e+05   1.359650e+05
  -9.147302e+02   4.597684e+05
  -5.500722e+05   3.736473e+05
  -8.541048e+05  -1.927044e+05
  -5.605512e+05  -8.289974e+05
   1.430130e+05  -1.034573e+06
   7.199354e+05  -6.571143e+05
   8.037736e+05   7.701768e+03
   4.947385e+05   4.828495e+05
   1.722837e+05   5.075193e+05
   7.856560e+04   2.459117e+05
   1.108060e+05   9.367163e+04
  -2.844042e+02   2.272068e+05
  -3.370056e+05   3.846754e+05
  -6.395145e+05   1.861824e+05
  -5.331723e+05  -3.475481e+05
   6.101323e+04  -7.266760e+05
   7.549276e+05  -5.036182e+05
   9.824712e+05   2.219800e+05
   5.043716e+05   8.778066e+05
  -3.598601e+05   9.604282e+05
  -1.000746e+06   4.596161e+05
  -1.026527e+06  -2.015070e+05
  -5.427999e+05  -5.717110e+05
   1.103921e+04  -5.347040e+05
   2.727296e+05  -3.411971e+05
   2.347916e+05  -3.016439e+05
   1.653109e+05  -4.331292e+05
   2.789173e+05  -4.388042e+05
   4.911966e+05  -7.587059e+04
   5.099747e+05   4.957391e+05
   1.764286e+05   8.161006e+05
  -3.104319e+05   5.906003e+05
  -5.519485e+05  -4.827723e+03
  -3.452958e+05  -5.009100e+05
   1.046631e+05  -5.668805e+05
   3.909277e+05  -2.497898e+05
   3.096438e+05   1.467283e+05
   3.659048e+04   3.550346e+05
  -9.856578e+04   3.338258e+05
   1.469610e+04   2.298337e+05
   1.482623e+05   1.830670e+05
  -8.066972e+02   1.759018e+05
  -4.366470e+05   8.079836e+04
  -7.883998e+05  -1.564950e+05
  -6.542361e+05  -4.214567e+05
  -3.927508e+04  -5.329361e+05
   5.891326e+05  -4.119487e+05
   7.366119e+05  -1.403236e+05
   3.699420e+05   1.072011e+05
  -7.633496e+04   1.770756e+05
  -1.830585e+05   5.056728e+04
   3.434234e+04  -1.075978e+05
   2.309492e+05  -7.759827e+04
   1.801825e+05   1.581811e+05
   2.172663e+03   3.370530e+05
  -5.308712e+04   2.114452e+05
   6.890933e+04  -9.710304e+04
   1.903555e+05  -1.926092e+05
   1.271719e+05   9.405132e+04
  -1.255274e+05   4.427848e+05
  -4.000706e+05   4.109075e+05
  -4.765461e+05  -1.878011e+04
  -2.345011e+05  -4.111690e+05
   2.043741e+05  -3.882880e+05
   4.809417e+05  -2.603644e+04
   2.820986e+05   2.883184e+05
  -2.890052e+05   2.743732e+05
  -7.071955e+05  -2.810409e+04
  -5.214380e+05  -3.635475e+05
   1.410548e+05  -4.787566e+05
   6.679133e+05  -2.918118e+05
   5.968154e+05   4.357792e+04
   9.066199e+04   2.414353e+05
  -2.709183e+05   1.408447e+05
  -1.274741e+05  -1.070861e+05
   3.027832e+05  -1.654302e+05
   4.929356e+05   1.297569e+05
   1.760619e+05   5.542910e+05
  -3.897854e+05   6.768531e+05
  -7.019315e+05   2.787289e+05
  -5.119241e+05  -3.916737e+05
  -2.548547e+04  -7.942294e+05
   3.544719e+05  -5.819620e+05
   4.088001e+05   4.676494e+04
   2.104572e+05   5.165665e+05
  -4.812341e+04   4.517476e+05
  -2.225674e+05   5.178114e+04
  -2.434346e+05  -1.867748e+05
  -1.250054e+05  -8.162818e+04
  -1.058433e+03   5.762726e+04
  -2.911593e+04  -9.587773e+04
  -1.622635e+05  -4.135609e+05
  -1.235437e+05  -4.827237e+05
   2.385954e+05  -1.631807e+05
   6.357321e+05   2.428239e+05
   5.958704e+05   3.951276e+05
   6.873449e+04   2.923282e+05
  -4.372670e+05   1.511343e+05
  -4.510422e+05   7.356390e+04
  -1.053713e+05   7.837772e+02
   9.171490e+04  -8.728195e+04
  -4.649162e+04  -1.203429e+05
  -1.834451e+05  -8.648113e+04
   1.022270e+04  -6.364151e+04
   3.690983e+05  -5.415564e+04
   4.405688e+05   6.097375e+04
   5.820184e+04   3.010946e+05
  -4.689644e+05   4.355169e+05
  -7.077577e+05   2.142655e+05
  -5.037682e+05  -2.746994e+05
  -4.206966e+04  -6.255826e+05
   3.578263e+05  -5.400601e+05
   4.680659e+05  -1.467886e+05
   2.838688e+05   1.613682e+05
   1.471874e+04   1.576395e+05
  -9.348021e+04  -1.422651e+04
   1.216025e+04  -5.124536e+04
   1.482960e+05   1.465547e+05
   1.059343e+05   3.544015e+05
  -1.150670e+05   2.703743e+05
  -3.020625e+05  -1.221312e+05
  -2.429602e+05  -4.803751e+05
   6.222559e+04  -4.402634e+05
   3.732529e+05  -1.543114e+04
   3.968212e+05   4.067938e+05
   6.609497e+04   4.769684e+05
  -3.420697e+05   2.157839e+05
  -4.445250e+05  -9.267432e+04
  -1.671369e+05  -2.380118e+05
   1.444811e+05  -2.205554e+05
   1.228001e+05  -1.286733e+05
  -1.647948e+05  -3.470908e+04
  -2.954965e+05  -1.637051e+04
  -3.086832e+04  -1.263564e+05
   3.784902e+05  -2.688427e+05
   5.082533e+05  -2.287372e+05
   2.605646e+05   5.885600e+04
  -7.910417e+04   3.455813e+05
  -2.172822e+05   3.213313e+05
  -1.306676e+05   9.921839e+03
   2.550127e+04  -2.321277e+05
   1.305480e+05  -1.459749e+05
   1.497010e+05   1.283887e+05
   7.880496e+04   2.591479e+05
  -5.389888e+04   1.334132e+05
  -1.640065e+05  -5.706500e+04
  -1.739705e+05  -1.019895e+05
  -9.900063e+04  -1.767284e+04
  -1.836182e+04   2.498797e+04
   3.116510e+04  -6.352866e+04
   8.062852e+04  -1.872417e+05
   1.472176e+05  -1.782143e+05
   1.802637e+05   1.386356e+04
   1.131620e+05   2.442452e+05
  -5.103824e+04   2.938730e+05
  -2.144522e+05   9.338106e+04
  -2.393105e+05  -1.814157e+05
  -5.977136e+04  -2.774267e+05
   2.160348e+05  -1.286053e+05
   3.443866e+05   9.132122e+04
   1.747323e+05   1.822357e+05
  -1.424649e+05   1.204186e+05
  -2.696087e+05   2.377790e+04
  -6.693200e+04  -1.138022e+04
   2.097151e+05   2.548342e+04
   1.961232e+05   1.017164e+05
  -1.299933e+05   1.543256e+05
  -4.068226e+05   8.648404e+04
