
 $NMID
 id='ANONYMOUS ', fmtdat='(2E16.6)'
 volume=1.0
 tramp=1.0
 $END
  -2.385253e+07   1.138119e+06
  -1.667569e+07  -1.075675e+07
  -6.316381e+05  -1.541459e+07
   1.018280e+07  -1.046682e+07
   8.859100e+06  -1.122709e+06
   6.616045e+05   4.400349e+06
  -4.900582e+06   2.240218e+06
  -3.773049e+06  -3.842416e+06
   1.045673e+06  -6.652621e+06
   4.478332e+06  -3.067260e+06
   3.983725e+06   2.951259e+06
   6.537297e+05   4.967225e+06
  -2.231075e+06   1.133987e+06
  -1.904947e+06  -4.055120e+06
   1.321053e+06  -4.918931e+06
   4.060291e+06  -5.747768e+05
   3.169231e+06   4.646312e+06
  -8.773240e+05   6.061431e+06
  -4.475737e+06   3.058518e+06
  -4.715472e+06  -1.146102e+06
  -2.172421e+06  -3.213214e+06
   1.227934e+05  -2.660810e+06
   1.998361e+03  -1.559823e+06
  -1.702194e+06  -1.879351e+06
  -2.107588e+06  -3.366944e+06
   5.763120e+05  -3.996231e+06
   4.701802e+06  -2.342930e+06
   6.382350e+06   7.319780e+05
   3.598625e+06   2.884883e+06
  -1.194180e+06   2.577649e+06
  -3.409997e+06   3.929638e+05
  -1.296130e+06  -1.662408e+06
   2.335444e+06  -1.826450e+06
   3.587686e+06   1.371857e+05
   1.715931e+06   2.662646e+06
  -7.906692e+05   3.442294e+06
  -1.558044e+06   1.569786e+06
  -6.188804e+05  -1.120457e+06
   4.252646e+05  -1.655877e+06
   3.886563e+05   5.958941e+05
  -6.633916e+05   2.809459e+06
  -1.761730e+06   1.978105e+06
  -1.742589e+06  -1.196334e+06
  -1.783319e+05  -2.956607e+06
   1.833509e+06  -1.094459e+06
   2.209139e+06   2.344466e+06
  -4.571218e+04   3.563757e+06
  -3.294104e+06   1.330810e+06
  -4.455035e+06  -2.060344e+06
  -2.106069e+06  -3.605599e+06
   1.845148e+06  -2.422116e+06
   3.923576e+06   5.347450e+04
   2.509633e+06   1.746983e+06
  -6.677408e+05   1.588403e+06
  -2.449382e+06   1.300540e+05
  -1.467862e+06  -1.049071e+06
   6.860088e+05  -8.105883e+05
   1.439444e+06   4.266127e+05
   1.056496e+05   1.176263e+06
  -1.485908e+06   5.491955e+05
  -1.204156e+06  -7.982382e+05
   8.768621e+05  -1.420206e+06
   2.497986e+06  -5.143863e+05
   1.681085e+06   1.421916e+06
  -1.147412e+06   2.984827e+06
  -3.641109e+06   2.810019e+06
  -3.923379e+06   6.276488e+05
  -2.238994e+06  -2.250707e+06
  -3.130249e+05  -3.835331e+06
   5.630350e+05  -3.310873e+06
   5.804570e+05  -1.818892e+06
   7.417896e+05  -9.980523e+05
   1.525275e+06  -9.862100e+05
   2.374449e+06  -5.101943e+05
   2.345947e+06   1.053392e+06
   1.082109e+06   2.493639e+06
  -7.802461e+05   2.127048e+06
  -1.995300e+06  -5.830748e+04
  -1.597484e+06  -2.200372e+06
   2.581513e+05  -2.468034e+06
   2.212309e+06  -7.906055e+05
   2.730895e+06   1.326925e+06
   1.514780e+06   2.368403e+06
  -1.982060e+05   2.044054e+06
  -9.868959e+05   1.206056e+06
  -8.292067e+05   7.942563e+05
  -9.755584e+05   8.986048e+05
  -2.161008e+06   7.776484e+05
  -3.371964e+06  -2.555558e+05
  -2.845878e+06  -1.985986e+06
  -2.345392e+05  -3.323659e+06
   2.666185e+06  -3.183099e+06
   3.586915e+06  -1.447672e+06
   2.040430e+06   7.836950e+05
  -2.761095e+05   1.953210e+06
  -1.260293e+06   1.342880e+06
  -3.975674e+05  -1.933164e+05
   1.017584e+06  -9.849310e+05
   1.418375e+06  -2.859508e+05
   5.258817e+05   8.758929e+05
  -5.691359e+05   9.238112e+05
  -6.541151e+05  -2.646388e+05
   3.981672e+05  -1.069375e+06
   1.549564e+06  -6.961822e+04
   1.551078e+06   2.106237e+06
   3.258384e+04   3.315710e+06
  -2.113408e+06   2.204441e+06
  -3.341427e+06  -3.945584e+05
  -2.679925e+06  -2.402798e+06
  -6.341445e+05  -2.534105e+06
   1.155817e+06  -1.274628e+06
   1.402877e+06  -9.632869e+04
   4.114866e+05   3.254869e+04
  -3.186411e+05  -6.047138e+05
   2.003642e+05  -9.887910e+05
   1.327179e+06  -4.963313e+05
   1.583761e+06   4.797503e+05
   4.584352e+05   9.928488e+05
  -8.972418e+05   5.589794e+05
  -9.200121e+05  -3.413891e+05
   5.744040e+05  -7.464973e+05
   2.080228e+06  -1.329961e+05
   1.934070e+06   1.102509e+06
   5.328530e+04   1.960147e+06
  -1.947210e+06   1.659785e+06
  -2.355560e+06   3.489109e+05
  -1.010721e+06  -9.184556e+05
   6.487747e+05  -1.083744e+06
   1.077815e+06  -1.448898e+05
   7.430329e+04   7.728066e+05
  -1.198379e+06   5.928454e+05
  -1.458219e+06  -5.177176e+05
  -4.988959e+05  -1.345277e+06
   7.338769e+05  -1.026159e+06
   1.110959e+06   1.941769e+03
   3.932920e+05   5.675129e+05
  -5.451834e+05   9.543293e+04
  -5.743891e+05  -8.296098e+05
   5.097566e+05  -1.151024e+06
   1.675282e+06  -4.059888e+05
   1.665444e+06   8.774945e+05
   3.479764e+05   1.683199e+06
  -1.094587e+06   1.385662e+06
  -1.400096e+06   2.821192e+05
  -5.130514e+05  -6.700054e+05
   4.893604e+05  -7.299021e+05
   6.322607e+05  -6.113255e+04
  -7.551465e+03   4.988522e+05
  -5.704968e+05   3.786424e+05
  -4.202318e+05  -1.174337e+05
   2.209438e+05  -2.253128e+05
   5.481159e+05   3.310094e+05
   9.925087e+03   9.605274e+05
  -1.079640e+06   8.171318e+05
  -1.742234e+06  -2.799866e+05
  -1.242058e+06  -1.584993e+06
   1.478552e+05  -2.071929e+06
   1.359851e+06  -1.356570e+06
   1.571617e+06  -3.362799e+04
   9.572556e+05   8.810001e+05
   3.406789e+05   8.826642e+05
   2.221813e+05   3.821521e+05
   3.206260e+05   1.694851e+05
   6.210752e+04   5.006935e+05
  -6.527209e+05   8.133920e+05
  -1.258326e+06   4.120605e+05
  -1.053471e+06  -6.342857e+05
   8.705621e+04  -1.414863e+06
   1.454237e+06  -1.059788e+06
   1.972404e+06   3.351770e+05
   1.093034e+06   1.712836e+06
  -6.449855e+05   1.994084e+06
  -1.996342e+06   1.029325e+06
  -2.072941e+06  -3.376099e+05
  -1.074811e+06  -1.106308e+06
   2.785926e+04  -1.013997e+06
   4.743996e+05  -6.276754e+05
   3.279804e+05  -6.024436e+05
   1.978902e+05  -9.261781e+05
   4.934305e+05  -9.653806e+05
   9.936341e+05  -2.464413e+05
   1.097142e+06   9.061043e+05
   4.704651e+05   1.595540e+06
  -5.286261e+05   1.216078e+06
  -1.099543e+06   5.062461e+04
  -7.515621e+05  -9.875098e+05
   1.756762e+05  -1.168968e+06
   8.223228e+05  -5.185344e+05
   6.795158e+05   3.329438e+05
   8.223508e+04   7.752807e+05
  -2.298931e+05   6.994820e+05
   1.839665e+04   4.383388e+05
   3.291690e+05   3.226415e+05
   2.948057e+04   3.412350e+05
  -8.910235e+05   2.226165e+05
  -1.638489e+06  -2.046934e+05
  -1.374289e+06  -7.767859e+05
  -1.191579e+05  -1.111324e+06
   1.166647e+06  -9.403571e+05
   1.482846e+06  -3.555339e+05
   7.601650e+05   2.315452e+05
  -1.406750e+05   4.029856e+05
  -3.854855e+05   1.076942e+05
   1.847733e+04  -2.495500e+05
   4.246125e+05  -1.913843e+05
   3.891157e+05   2.849935e+05
   9.332366e+04   6.395367e+05
  -3.371837e+04   4.078734e+05
   1.319891e+05  -1.697709e+05
   3.341958e+05  -3.560923e+05
   2.605071e+05   1.803915e+05
  -1.726122e+05   8.764557e+05
  -7.400162e+05   8.845740e+05
  -9.948726e+05   8.131433e+04
  -5.785965e+05  -7.629070e+05
   3.349884e+05  -8.458172e+05
   9.677051e+05  -1.775813e+05
   6.041320e+05   5.161591e+05
  -5.528790e+05   5.826945e+05
  -1.402257e+06   8.332685e+03
  -1.031967e+06  -6.890514e+05
   2.757368e+05  -9.527668e+05
   1.303042e+06  -6.022615e+05
   1.165145e+06   5.626340e+04
   1.848549e+05   4.663730e+05
  -5.338167e+05   2.968838e+05
  -2.887904e+05  -2.040177e+05
   5.479284e+05  -3.849400e+05
   9.882197e+05   1.516103e+05
   4.637344e+05   1.040753e+06
  -6.194836e+05   1.397473e+06
  -1.315890e+06   6.764144e+05
  -1.066757e+06  -6.841077e+05
  -1.662112e+05  -1.556727e+06
   6.290452e+05  -1.177915e+06
   8.193265e+05   6.801251e+04
   4.596496e+05   1.010058e+06
  -8.071164e+04   8.942786e+05
  -4.520786e+05   1.209495e+05
  -4.764476e+05  -3.408406e+05
  -2.227171e+05  -1.465836e+05
  -9.895741e+03   1.090925e+05
  -1.250405e+05  -1.895184e+05
  -3.997749e+05  -7.981613e+05
  -2.707242e+05  -9.456702e+05
   4.960038e+05  -3.665547e+05
   1.284892e+06   3.923987e+05
   1.198153e+06   7.126131e+05
   1.757878e+05   5.785745e+05
  -8.105017e+05   3.522135e+05
  -8.749431e+05   1.923727e+05
  -2.429815e+05   8.128398e+03
   1.547871e+05  -1.841158e+05
  -6.442255e+04  -2.278300e+05
  -3.265434e+05  -1.394664e+05
  -3.333197e+03  -1.188329e+05
   6.729732e+05  -1.593349e+05
   8.803575e+05   4.055016e+04
   2.218794e+05   5.689954e+05
  -8.132382e+05   9.403378e+05
  -1.381660e+06   5.719792e+05
  -1.078098e+06  -4.228575e+05
  -1.917059e+05  -1.216999e+06
   6.303656e+05  -1.140478e+06
   8.928007e+05  -3.892193e+05
   5.708364e+05   2.561212e+05
   7.039011e+04   3.030495e+05
  -1.429910e+05  -4.893137e+03
   4.038582e+04  -8.170572e+04
   3.021157e+05   2.870098e+05
   2.475955e+05   6.913415e+05
  -1.742414e+05   5.569138e+05
  -5.966961e+05  -1.715402e+05
  -5.669104e+05  -8.754348e+05
   9.411437e+03  -8.654417e+05
   6.958412e+05  -1.161268e+05
   8.456730e+05   7.013653e+05
   2.316823e+05   9.233491e+05
  -6.236809e+05   5.058195e+05
  -9.070880e+05  -9.412277e+04
  -4.002826e+05  -4.607630e+05
   2.389316e+05  -4.940559e+05
   2.500428e+05  -2.946638e+05
  -2.915368e+05  -4.366154e+04
  -5.752574e+05   1.598880e+04
  -9.572430e+04  -2.464356e+05
   7.075290e+05  -5.860648e+05
   1.008523e+06  -5.187479e+05
   5.698078e+05   8.740619e+04
  -9.263445e+04   7.075460e+05
  -4.023639e+05   6.961891e+05
  -2.801404e+05   7.983348e+04
   1.343097e+03  -4.407209e+05
   2.201877e+05  -3.250274e+05
   3.011390e+05   2.000603e+05
   2.014001e+05   4.960219e+05
  -6.467988e+04   2.965792e+05
  -3.284584e+05  -7.235506e+04
  -3.799348e+05  -1.903147e+05
  -2.070785e+05  -3.809757e+04
  -6.347852e+03   6.964608e+04
   7.356769e+04  -8.076876e+04
   9.506333e+04  -3.442297e+05
   1.865506e+05  -3.829322e+05
   3.140902e+05  -4.947219e+04
   2.877776e+05   4.092786e+05
  -6.188103e+02   5.596274e+05
  -3.858784e+05   2.275434e+05
  -5.135640e+05  -2.897558e+05
  -1.733746e+05  -5.186168e+05
   4.130285e+05  -2.976082e+05
   7.069640e+05   1.023750e+05
   3.833955e+05   3.265049e+05
  -2.513248e+05   2.840674e+05
  -5.239617e+05   1.230998e+05
  -1.561187e+05   4.327460e+03
   3.727395e+05   6.229378e+03
   3.747673e+05   1.398390e+05
  -2.125866e+05   2.925371e+05
  -7.422332e+05   2.180616e+05
