
 $NMID
 id='ANONYMOUS ', fmtdat='(2E16.6)'
 volume=1.0
 tramp=1.0
 $END
   2.645484e+06  -3.993720e+05
   1.678715e+06   1.579003e+06
  -2.832169e+05   1.846250e+06
  -1.202648e+06   6.308799e+05
  -6.498922e+05  -4.170306e+05
   1.985299e+05  -4.046809e+05
   3.797365e+05   1.352391e+05
   4.526555e+04   4.112481e+05
  -2.663021e+05   2.963674e+05
  -3.759566e+05   4.313888e+04
  -3.249380e+05  -1.956497e+05
  -1.157502e+05  -3.113847e+05
   1.315212e+05  -1.754119e+05
   1.510089e+05   1.104928e+05
  -1.028541e+05   2.013803e+05
  -3.183018e+05  -5.630490e+04
  -2.207678e+05  -4.032252e+05
   1.071503e+05  -5.113379e+05
   4.073379e+05  -3.335737e+05
   5.259067e+05  -1.378249e+04
   4.175950e+05   3.072572e+05
   1.147496e+05   4.742084e+05
  -1.815301e+05   3.533987e+05
  -2.086884e+05   5.429867e+04
   9.886147e+03  -8.944855e+04
   1.287598e+05   6.723507e+04
  -5.839695e+04   2.650496e+05
  -3.251110e+05   2.043095e+05
  -3.494380e+05  -5.303558e+04
  -1.447884e+05  -2.321927e+05
   5.013353e+04  -2.288898e+05
   1.301024e+05  -1.311494e+05
   1.347301e+05  -4.083677e+03
   5.464584e+04   1.099105e+05
  -1.032449e+05   9.331937e+04
  -1.658034e+05  -8.819852e+04
   3.864067e+03  -2.161629e+05
   2.201122e+05  -7.742988e+04
   1.862183e+05   1.701203e+05
  -4.118590e+04   1.871473e+05
  -1.184506e+05  -1.664610e+04
   3.468489e+04  -7.965416e+04
   9.601466e+04   1.278432e+05
  -1.325036e+05   2.669078e+05
  -3.780323e+05   4.542696e+04
  -2.872285e+05  -3.207264e+05
   6.783728e+04  -4.089659e+05
   3.164830e+05  -1.598697e+05
   2.745903e+05   1.152295e+05
   7.329860e+04   1.814518e+05
  -9.623226e+04   8.442905e+04
  -1.454746e+05  -3.572968e+04
  -5.660323e+04  -1.020677e+05
   1.060003e+05  -7.700527e+04
   1.794665e+05   2.866066e+04
   7.364157e+04   1.072231e+05
  -6.790744e+04   6.405458e+04
  -4.703169e+04  -2.209646e+04
   8.237378e+04   6.223806e+03
   8.219504e+04   1.349163e+05
  -1.028112e+05   1.832729e+05
  -2.597296e+05   7.169234e+04
  -2.278152e+05  -8.302058e+04
  -9.502888e+04  -1.730507e+05
   4.365991e+03  -2.243137e+05
   8.896286e+04  -2.507453e+05
   1.998358e+05  -1.643497e+05
   2.410022e+05   4.901105e+04
   1.234492e+05   2.099703e+05
  -3.962385e+04   1.576511e+05
  -6.126866e+04  -1.076761e+04
   5.063317e+04  -6.742179e+04
   1.148800e+05   3.715617e+04
   4.024225e+04   1.429241e+05
  -7.953750e+04   1.269686e+05
  -1.278232e+05   3.379693e+04
  -8.999777e+04  -3.949227e+04
  -8.863262e+03  -5.524524e+04
   6.501164e+04  -1.322170e+04
   6.248510e+04   6.773979e+04
  -5.109027e+04   1.145788e+05
  -1.847988e+05   4.699691e+04
  -1.891516e+05  -1.005950e+05
  -4.979538e+04  -1.888684e+05
   8.310026e+04  -1.456458e+05
   9.878970e+04  -5.159983e+04
   5.889215e+04  -1.336309e+04
   6.951767e+04  -2.728871e+04
   1.175112e+05  -2.200275e+04
   1.183128e+05   2.879501e+04
   5.654765e+04   9.487868e+04
  -1.292432e+04   1.403253e+05
  -5.895799e+04   1.336052e+05
  -8.396584e+04   5.598588e+04
  -7.404119e+04  -4.848703e+04
  -2.249369e+04  -8.305317e+04
   2.032220e+04  -1.718777e+04
   1.161063e+03   5.451159e+04
  -4.777958e+04   3.840439e+04
  -5.226981e+04  -2.475525e+04
  -1.455478e+04  -3.548106e+04
  -4.497291e+03   6.777962e+02
  -3.566839e+04  -7.510849e+03
  -4.132596e+04  -7.250668e+04
   9.762411e+03  -1.010610e+05
   6.082507e+04  -4.737192e+04
   6.299828e+04   1.635258e+04
   4.537653e+04   2.268016e+04
   4.539803e+04   6.864697e+03
   4.008844e+04   2.432541e+04
   3.285612e+03   5.060852e+04
  -2.796806e+04   3.696442e+04
  -1.169836e+04   6.251840e+03
   1.785563e+04   1.245182e+04
  -2.119826e+02   4.219237e+04
  -5.056128e+04   3.682524e+04
  -6.195626e+04  -7.296777e+03
  -1.832218e+04  -3.547779e+04
   2.118480e+04  -2.387714e+04
   1.448152e+04  -3.904140e+03
  -1.471802e+04   1.962587e+03
  -3.028569e+04   4.430631e+03
  -2.838356e+04   2.289871e+03
  -1.294047e+04  -2.321094e+04
   2.050191e+04  -5.475002e+04
   5.350823e+04  -4.158720e+04
   4.484300e+04   1.871786e+04
  -8.090882e+03   5.688297e+04
  -4.688913e+04   2.537421e+04
  -2.499353e+04  -3.107297e+04
   2.755757e+04  -4.008580e+04
   4.677042e+04  -3.650018e+02
   1.814731e+04   3.048310e+04
  -1.755295e+04   2.181668e+04
  -2.449945e+04  -3.633064e+03
  -3.602725e+03  -1.599406e+04
   2.405341e+04  -7.836955e+03
   3.434788e+04   1.659640e+04
   9.863174e+03   4.392110e+04
  -3.798490e+04   4.600232e+04
  -6.435119e+04   6.913929e+03
  -3.785093e+04  -4.373700e+04
   1.414564e+04  -5.645570e+04
   3.662000e+04  -2.360520e+04
   1.754537e+04   1.377046e+04
  -5.420585e+03   2.314963e+04
  -6.137574e+03   1.342396e+04
  -1.731409e+00   4.873788e+03
  -6.152207e+03  -1.221307e+03
  -1.631813e+04  -9.857761e+03
  -1.667919e+04  -1.670211e+04
  -1.044325e+04  -2.067859e+04
  -7.835996e+02  -2.901317e+04
   2.142242e+04  -3.549971e+04
   5.204533e+04  -1.815577e+04
   6.102511e+04   2.371716e+04
   3.097254e+04   5.415032e+04
  -1.095765e+04   4.516556e+04
  -2.705382e+04   1.668259e+04
  -1.952498e+04   5.908513e+03
  -1.811601e+04   1.389030e+04
  -2.934714e+04   1.246450e+04
  -3.088113e+04  -7.194651e+03
  -1.229800e+04  -2.541295e+04
   1.033796e+04  -2.847952e+04
   2.227965e+04  -2.093536e+04
   2.364373e+04  -4.695226e+03
   1.188474e+04   2.179633e+04
  -1.871025e+04   3.993770e+04
  -5.071762e+04   2.052651e+04
  -4.726792e+04  -3.027585e+04
  -4.991073e+02  -6.419332e+04
   4.714969e+04  -4.882760e+04
   5.214760e+04  -8.872051e+03
   2.344402e+04   1.149836e+04
   4.117809e+03   7.013272e+03
   1.251069e+04   6.637247e+03
   2.689143e+04   2.457070e+04
   2.237157e+04   4.410310e+04
  -1.666897e+03   4.566475e+04
  -3.045454e+04   2.691309e+04
  -4.825278e+04  -3.887519e+03
  -4.161282e+04  -3.321322e+04
  -9.005202e+03  -4.111603e+04
   2.636993e+04  -1.663466e+04
   3.165038e+04   2.088497e+04
   2.581890e+03   3.468731e+04
  -2.685868e+04   1.231596e+04
  -2.451711e+04  -2.004251e+04
   8.730093e+02  -3.121963e+04
   1.398526e+04  -1.894012e+04
  -7.496864e+01  -2.988500e+03
  -1.799368e+04   1.331732e+03
  -9.043597e+03  -6.747656e+03
   2.658999e+04  -1.806013e+04
   5.626924e+04  -1.780431e+04
   4.935458e+04   4.165698e+03
   9.444259e+03   3.623183e+04
  -2.946869e+04   4.824784e+04
  -3.808761e+04   2.529774e+04
  -1.889532e+04  -9.483825e+03
   3.666810e+03  -2.045614e+04
   1.252073e+04  -2.505857e+03
   8.452299e+03   1.687349e+04
  -2.713781e+03   1.545626e+04
  -1.716313e+04  -5.200508e+02
  -2.580299e+04  -1.210588e+04
  -1.763194e+04  -1.084839e+04
   1.109982e+03  -1.645962e+03
   7.083711e+03   4.960427e+03
  -7.500365e+03  -1.538862e+03
  -1.672993e+04  -2.195650e+04
   4.799280e+03  -3.829111e+04
   3.925436e+04  -2.705187e+04
   4.278248e+04   9.931944e+03
   5.604654e+03   3.946921e+04
  -3.092126e+04   3.308794e+04
  -2.688249e+04   9.293577e+02
   7.477336e+03  -2.215754e+04
   3.064785e+04  -1.759599e+04
   2.212354e+04   2.874450e+03
  -2.507582e+03   1.875980e+04
  -1.940200e+04   2.066189e+04
  -1.951801e+04   9.818991e+03
  -6.486244e+03  -5.675055e+03
   9.903029e+03  -1.087048e+04
   1.484704e+04   4.256652e+03
  -1.776257e+03   2.577639e+04
  -2.968452e+04   2.282689e+04
  -4.191824e+04  -1.410975e+04
  -2.228301e+04  -5.221520e+04
   1.537930e+04  -4.970407e+04
   4.028838e+04  -6.655938e+03
   3.420403e+04   3.337187e+04
   5.933081e+03   3.426761e+04
  -1.908266e+04   5.386284e+03
  -2.138075e+04  -1.767267e+04
  -3.922608e+03  -1.740815e+04
   1.197793e+04  -6.573381e+03
   1.044006e+04  -2.129667e+03
  -1.003093e+02  -3.361831e+03
   1.409563e+03  -1.634560e+02
   1.831581e+04   8.641533e+03
   2.872512e+04   1.524108e+04
   1.365428e+04   1.628699e+04
  -1.723009e+04   1.571196e+04
  -3.717867e+04   1.387637e+04
  -3.289792e+04   4.346732e+03
  -1.355128e+04  -1.314256e+04
   5.322954e+03  -2.475327e+04
   1.490123e+04  -1.757065e+04
   1.278872e+04   6.538005e+02
   2.796836e+03   8.436393e+03
  -3.976614e+03  -8.255739e+02
   3.206044e+02  -8.677396e+03
   6.488364e+03   2.363669e+03
  -2.572425e+03   2.115525e+04
  -2.437502e+04   1.906710e+04
  -3.211579e+04  -1.225099e+04
  -7.597756e+03  -4.613022e+04
   3.121711e+04  -4.891450e+04
   4.879848e+04  -1.601824e+04
   3.282723e+04   2.528859e+04
   3.379192e+03   4.463708e+04
  -1.537287e+04   3.453371e+04
  -1.806769e+04   1.065769e+04
  -1.229807e+04  -6.569603e+03
  -5.285050e+03  -9.118187e+03
  -2.673601e+03  -4.367915e+03
  -8.278704e+03  -4.443796e+03
  -1.558562e+04  -1.263938e+04
  -8.668273e+03  -1.987754e+04
   1.663093e+04  -1.460103e+04
   3.817111e+04   4.135907e+03
   2.845356e+04   2.353009e+04
  -9.339312e+03   2.687344e+04
  -3.905898e+04   8.288333e+03
  -3.110948e+04  -1.949181e+04
   4.168115e+03  -3.293972e+04
   3.002607e+04  -1.870475e+04
   2.510342e+04   1.065379e+04
   3.018135e+03   2.654184e+04
  -8.736408e+03   1.456985e+04
  -7.253531e+02  -8.421393e+03
   1.193447e+04  -1.350945e+04
   1.052755e+04   6.166034e+03
  -6.216221e+03   2.785693e+04
  -2.294993e+04   2.644522e+04
  -2.525456e+04   1.895878e+03
  -1.266197e+04  -2.354463e+04
   4.264070e+03  -2.946308e+04
   1.473153e+04  -1.416739e+04
   1.379711e+04   7.553500e+03
   2.650058e+03   1.773701e+04
  -1.133299e+04   9.177106e+03
  -1.653748e+04  -8.239580e+03
  -6.516066e+03  -1.640249e+04
   1.025702e+04  -8.466749e+03
   1.637649e+04   2.873285e+03
   6.076511e+03   1.891854e+03
  -5.334014e+03  -8.403675e+03
  -1.950701e+02  -9.791733e+03
   1.612658e+04   5.560076e+03
   1.923411e+04   2.283978e+04
  -1.957071e+03   2.283275e+04
  -2.684583e+04   5.197080e+03
  -2.620118e+04  -1.313779e+04
   9.758354e+02  -1.792231e+04
   2.469301e+04  -8.690542e+03
   1.945351e+04   6.337663e+03
  -6.889200e+03   1.734837e+04
  -2.514029e+04   1.573335e+04
  -1.904151e+04  -2.020750e+02
   5.774008e+02  -1.871470e+04
   1.314344e+04  -2.166772e+04
   1.044403e+04  -4.628230e+03
  -5.609875e+02   1.439682e+04
  -8.969389e+03   1.358477e+04
  -8.204558e+03  -6.392827e+03
   2.106765e+03  -2.148092e+04
