
 $NMID
 id='ANONYMOUS ', fmtdat='(2E16.6)'
 volume=1.0
 tramp=1.0
 $END
   5.653573e+07   4.617392e+05
   3.354556e+07   3.550060e+07
  -8.013364e+06   3.821277e+07
  -2.783505e+07   1.419459e+07
  -1.629828e+07  -7.406613e+06
   3.521391e+06  -9.279186e+06
   9.761634e+06   1.473970e+06
   2.537057e+06   9.803759e+06
  -6.351805e+06   9.118185e+06
  -9.636424e+06   1.791629e+06
  -6.914977e+06  -6.230573e+06
  -7.657910e+05  -8.542349e+06
   3.986525e+06  -2.742050e+06
   2.580788e+06   5.340739e+06
  -3.806985e+06   6.392186e+06
  -7.825250e+06  -1.463041e+06
  -4.308324e+06  -1.023129e+07
   3.906989e+06  -1.173320e+07
   1.016015e+07  -5.830855e+06
   1.083618e+07   2.104049e+06
   6.651746e+06   7.565889e+06
   6.583268e+05   8.769182e+06
  -3.065790e+06   6.115557e+06
  -2.045703e+06   2.602703e+06
   1.021533e+06   1.970442e+06
   3.178880e+05   4.046691e+06
  -5.270501e+06   4.389274e+06
  -9.558163e+06   5.490996e+05
  -7.027152e+06  -4.095126e+06
  -3.249159e+05  -5.076607e+06
   3.630748e+06  -2.643269e+06
   2.496799e+06  -1.231969e+05
  -4.437730e+05   8.757549e+05
  -2.115892e+06   5.500661e+05
  -2.179257e+06  -1.293755e+06
  -7.824350e+05  -3.847708e+06
   1.776840e+06  -3.879336e+06
   3.316794e+06   5.941107e+04
   1.780191e+06   3.671907e+06
  -8.096885e+05   2.027130e+06
  -4.165599e+05  -2.362233e+06
   2.418167e+06  -2.243548e+06
   2.388104e+06   3.221310e+06
  -2.551303e+06   6.099273e+06
  -7.047578e+06   9.127613e+05
  -5.083703e+06  -7.025230e+06
   2.025527e+06  -8.540466e+06
   7.456878e+06  -2.362614e+06
   6.853073e+06   4.476803e+06
   1.742913e+06   5.979128e+06
  -3.464688e+06   2.622423e+06
  -5.151641e+06  -1.581224e+06
  -2.319365e+06  -3.479258e+06
   2.454545e+06  -2.142183e+06
   4.497706e+06   9.829052e+05
   1.897150e+06   2.741946e+06
  -1.732991e+06   1.349311e+06
  -1.695227e+06  -1.033003e+06
   1.365060e+06  -8.534158e+05
   2.429449e+06   1.853315e+06
  -7.434808e+05   3.471416e+06
  -4.717991e+06   1.825820e+06
  -5.282064e+06  -1.460117e+06
  -2.253289e+06  -4.013526e+06
   1.807365e+06  -5.233632e+06
   4.950739e+06  -4.808484e+06
   6.150461e+06  -1.744235e+06
   4.579164e+06   3.136429e+06
   9.356206e+05   6.129948e+06
  -1.895577e+06   4.695938e+06
  -1.771911e+06   1.130969e+06
  -1.047372e+05  -3.150246e+05
   1.301355e+05   9.724922e+05
  -1.519253e+06   1.833935e+06
  -2.778396e+06   3.178580e+05
  -2.044767e+06  -1.845867e+06
  -8.397358e+04  -2.097755e+06
   1.484669e+06  -2.292317e+05
   1.644529e+06   2.005169e+06
   2.200997e+04   2.884974e+06
  -2.729213e+06   1.662078e+06
  -4.456028e+06  -1.159004e+06
  -3.225078e+06  -3.752070e+06
   4.562176e+04  -4.244007e+06
   2.306311e+06  -2.721396e+06
   2.259774e+06  -1.111474e+06
   1.831974e+06  -6.407251e+05
   2.906032e+06  -4.402652e+05
   4.286695e+06   7.807789e+05
   3.425620e+06   2.746675e+06
   1.134377e+05   4.068302e+06
  -3.162082e+06   3.841123e+06
  -4.108505e+06   2.108548e+06
  -2.634316e+06  -3.885544e+05
  -3.071050e+05  -2.202807e+06
   1.064977e+06  -1.929035e+06
   5.629176e+05   2.493689e+04
  -1.067649e+06   1.299294e+06
  -1.893903e+06   3.921021e+05
  -9.236169e+05  -1.202074e+06
   5.016188e+05  -1.100586e+06
   3.988698e+05   3.856480e+05
  -1.083038e+06   6.428043e+05
  -1.812950e+06  -1.357939e+06
  -5.434335e+05  -3.483572e+06
   1.671274e+06  -3.304230e+06
   3.118099e+06  -9.858851e+05
   3.201432e+06   1.485047e+06
   2.176161e+06   2.707190e+06
   4.258930e+05   2.542781e+06
  -1.216485e+06   1.439584e+06
  -1.552017e+06   2.311865e+05
  -4.866174e+05  -4.673489e+04
   3.501908e+05   7.459026e+05
  -4.264002e+05   1.334142e+06
  -1.910135e+06   5.628458e+05
  -2.015022e+06  -9.075850e+05
  -3.619986e+05  -1.417244e+06
   1.167173e+06  -5.526339e+05
   8.602261e+05   4.549347e+05
  -8.507649e+05   4.802428e+05
  -2.125288e+06  -3.588803e+05
  -1.673418e+06  -1.343832e+06
   2.736192e+05  -1.913792e+06
   2.281672e+06  -1.601584e+06
   2.738032e+06  -2.513937e+05
   1.199346e+06   1.268547e+06
  -9.267439e+05   1.498891e+06
  -1.566211e+06   1.824993e+05
  -2.040847e+05  -1.083711e+06
   1.510081e+06  -7.266595e+05
   1.694244e+06   7.925702e+05
   3.052680e+05   1.637502e+06
  -1.100482e+06   9.383194e+05
  -1.233595e+06  -3.404944e+05
  -2.186837e+05  -7.815731e+05
   8.017106e+05  -4.464295e+04
   7.306415e+05   1.051528e+06
  -5.712045e+05   1.413966e+06
  -1.990608e+06   5.382265e+05
  -2.017661e+06  -1.045051e+06
  -3.713618e+05  -2.061065e+06
   1.442627e+06  -1.620405e+06
   1.713654e+06  -1.905883e+05
   4.831612e+05   8.670183e+05
  -6.611016e+05   7.858943e+05
  -6.154805e+05   7.540262e+04
   1.270449e+05  -3.327829e+05
   4.665416e+05  -1.832311e+05
   8.527340e+04   5.436422e+04
  -4.578358e+05  -1.125826e+05
  -4.944337e+05  -6.922186e+05
   2.298120e+05  -1.176146e+06
   1.379359e+06  -8.736270e+05
   2.059161e+06   4.233110e+05
   1.443471e+06   1.932583e+06
  -2.234287e+05   2.390396e+06
  -1.598897e+06   1.373596e+06
  -1.651504e+06  -1.435898e+05
  -8.198522e+05  -8.707778e+05
  -3.079500e+05  -6.052402e+05
  -4.951699e+05  -1.971923e+05
  -6.427093e+05  -3.252303e+05
  -8.801837e+04  -7.734338e+05
   8.786270e+05  -8.813680e+05
   1.427062e+06  -3.011721e+05
   1.016214e+06   7.119592e+05
  -2.638356e+05   1.419133e+06
  -1.703486e+06   1.037503e+06
  -2.211838e+06  -4.914850e+05
  -1.098543e+06  -2.085181e+06
   1.029821e+06  -2.334774e+06
   2.533171e+06  -9.923156e+05
   2.309377e+06   6.835321e+05
   9.086514e+05   1.325550e+06
  -2.212612e+05   9.061449e+05
  -3.655372e+05   4.813374e+05
  -4.709235e+04   7.522990e+05
  -9.333604e+04   1.315561e+06
  -6.759283e+05   1.287160e+06
  -1.292445e+06   3.143996e+05
  -1.325185e+06  -1.071644e+06
  -5.476524e+05  -1.874978e+06
   6.166683e+05  -1.420092e+06
   1.268818e+06   1.103239e+04
   7.911251e+05   1.282106e+06
  -4.086373e+05   1.378964e+06
  -1.168443e+06   3.740422e+05
  -7.979099e+05  -7.239658e+05
   1.495532e+05  -1.077858e+06
   5.602384e+05  -7.642680e+05
   9.535461e+04  -3.986311e+05
  -4.337032e+05  -3.278947e+05
  -6.196750e+04  -3.772082e+05
   1.146176e+06  -1.990154e+05
   2.052701e+06   3.430506e+05
   1.595401e+06   1.040642e+06
  -6.126271e+04   1.430428e+06
  -1.597271e+06   1.126620e+06
  -1.818700e+06   2.547200e+05
  -8.134976e+05  -5.144848e+05
   2.708602e+05  -5.720163e+05
   5.114449e+05  -2.115023e+04
   3.498188e+04   4.321219e+05
  -4.311890e+05   2.603373e+05
  -4.790349e+05  -3.389441e+05
  -2.693981e+05  -7.124861e+05
  -1.124654e+05  -4.750804e+05
  -1.322909e+05   8.041717e+04
  -2.600900e+05   2.738581e+05
  -2.679344e+05  -2.322058e+05
   1.310246e+05  -9.700119e+05
   8.927649e+05  -1.057008e+06
   1.372878e+06  -1.823626e+05
   8.661001e+05   9.076583e+05
  -4.139801e+05   1.146220e+06
  -1.261083e+06   3.514988e+05
  -7.297591e+05  -5.609778e+05
   7.008323e+05  -6.352771e+05
   1.559910e+06   1.094718e+05
   9.629791e+05   8.588573e+05
  -5.008830e+05   9.563217e+05
  -1.473916e+06   4.387919e+05
  -1.196577e+06  -2.064252e+05
  -1.201758e+05  -5.020834e+05
   6.447098e+05  -2.533858e+05
   3.868086e+05   2.997977e+05
  -5.686720e+05   5.302731e+05
  -1.175618e+06  -6.037544e+04
  -6.906434e+05  -1.160727e+06
   5.534794e+05  -1.699854e+06
   1.455129e+06  -8.998120e+05
   1.247407e+06   7.365469e+05
   2.087787e+05   1.766374e+06
  -7.284251e+05   1.266885e+06
  -9.084160e+05  -1.905957e+05
  -4.086579e+05  -1.178965e+06
   2.392721e+05  -9.422804e+05
   5.621250e+05  -7.243588e+04
   4.435225e+05   3.668103e+05
   1.421262e+05   1.272232e+05
   5.523739e+04  -8.718169e+04
   3.054397e+05   3.086299e+05
   5.163226e+05   9.619442e+05
   1.655315e+05   1.058985e+06
  -7.347712e+05   3.841964e+05
  -1.455165e+06  -4.555586e+05
  -1.242851e+06  -8.225266e+05
  -1.809105e+05  -6.954564e+05
   8.207261e+05  -4.219469e+05
   9.636726e+05  -1.751485e+05
   3.749295e+05   6.681582e+04
  -1.343759e+05   2.270915e+05
  -6.072728e+04   1.868089e+05
   2.344559e+05   7.346889e+04
   6.278570e+04   1.307738e+05
  -6.223702e+05   2.524667e+05
  -1.041707e+06   5.026827e+03
  -4.786761e+05  -6.918761e+05
   7.969131e+05  -1.194971e+06
   1.701540e+06  -7.844755e+05
   1.442930e+06   4.010335e+05
   2.979163e+05   1.386807e+06
  -7.579082e+05   1.380049e+06
  -1.038168e+06   5.648783e+05
  -6.487314e+05  -2.057060e+05
  -1.500092e+05  -3.558319e+05
   4.256963e+04  -8.826025e+04
  -8.901302e+04  -5.752335e+03
  -2.849627e+05  -3.705878e+05
  -2.390649e+05  -7.981729e+05
   1.647529e+05  -6.830150e+05
   6.720283e+05   8.920355e+04
   7.655392e+05   9.141785e+05
   1.641137e+05   1.028228e+06
  -7.257297e+05   2.893971e+05
  -1.048738e+06  -6.717582e+05
  -3.814558e+05  -1.079729e+06
   6.950744e+05  -7.066565e+05
   1.127927e+06   5.133664e+04
   5.524904e+05   6.254810e+05
  -2.808833e+05   7.070351e+05
  -4.002375e+05   3.748009e+05
   2.154233e+05  -8.504211e+03
   6.358769e+05  -5.295585e+04
   1.597081e+05   3.105315e+05
  -8.100448e+05   6.790674e+05
  -1.267445e+06   5.254383e+05
  -7.877925e+05  -1.936449e+05
   8.255477e+04  -8.762944e+05
   5.654285e+05  -8.671831e+05
   4.535385e+05  -1.869048e+05
   7.779127e+04   4.625744e+05
  -2.264339e+05   4.531194e+05
  -3.516040e+05  -1.120595e+05
  -2.649744e+05  -5.683080e+05
   4.018420e+04  -4.518159e+05
   3.907296e+05   2.580558e+04
   4.846602e+05   2.927366e+05
   2.409360e+05   1.105563e+05
  -4.945335e+04  -1.725203e+05
  -7.981301e+04  -8.957172e+04
   5.953554e+04   3.343553e+05
   1.501990e+04   5.832362e+05
  -2.980606e+05   2.774010e+05
  -5.027645e+05  -3.362368e+05
  -2.193945e+05  -6.391099e+05
   3.856847e+05  -3.347229e+05
   6.854739e+05   2.476616e+05
   2.777727e+05   5.536981e+05
  -5.071165e+05   3.748908e+05
  -8.962492e+05  -4.781178e+04
  -4.908752e+05  -3.667065e+05
   2.864120e+05  -4.252315e+05
   6.406366e+05  -2.649171e+05
   2.728902e+05  -2.576852e+04
  -3.099277e+05   1.011004e+05
  -3.944646e+05  -2.045032e+04
   1.323544e+05  -2.728856e+05
   6.868366e+05  -2.866325e+05
