
 $NMID
 id='ANONYMOUS ', fmtdat='(2E16.6)'
 volume=1.0
 tramp=1.0
 $END
   5.629921e+07  -1.402926e+06
   3.488476e+07   3.414387e+07
  -6.478861e+06   3.845274e+07
  -2.741662e+07   1.535095e+07
  -1.682272e+07  -6.725724e+06
   3.114419e+06  -9.500648e+06
   9.980807e+06   1.040220e+06
   3.008540e+06   9.822571e+06
  -6.111642e+06   9.534470e+06
  -9.695573e+06   2.193743e+06
  -7.111160e+06  -6.063482e+06
  -9.610484e+05  -8.568293e+06
   3.907588e+06  -2.813247e+06
   2.665584e+06   5.387470e+06
  -3.709118e+06   6.623846e+06
  -7.945934e+06  -1.185893e+06
  -4.663870e+06  -1.014002e+07
   3.538563e+06  -1.190055e+07
   9.963678e+06  -6.139346e+06
   1.082857e+07   1.773658e+06
   6.811428e+06   7.270701e+06
   9.739225e+05   8.608414e+06
  -2.712832e+06   6.197684e+06
  -1.849702e+06   2.861570e+06
   1.014523e+06   2.183323e+06
   2.551007e+05   4.102380e+06
  -5.278850e+06   4.399593e+06
  -9.561128e+06   6.390594e+05
  -7.076993e+06  -3.959060e+06
  -3.750624e+05  -4.976664e+06
   3.591494e+06  -2.578122e+06
   2.382566e+06  -8.359957e+04
  -6.341261e+05   8.328996e+05
  -2.221238e+06   4.188257e+05
  -2.117650e+06  -1.392756e+06
  -7.158762e+05  -3.834429e+06
   1.686902e+06  -3.855525e+06
   3.181663e+06  -3.063469e+04
   1.808503e+06   3.524708e+06
  -6.507045e+05   1.951870e+06
  -3.227556e+05  -2.388248e+06
   2.442652e+06  -2.319798e+06
   2.528848e+06   3.164498e+06
  -2.294599e+06   6.246805e+06
  -6.955279e+06   1.244652e+06
  -5.318848e+06  -6.791003e+06
   1.693597e+06  -8.603638e+06
   7.368283e+06  -2.594307e+06
   7.035156e+06   4.344412e+06
   1.932646e+06   6.040399e+06
  -3.468664e+06   2.768891e+06
  -5.313470e+06  -1.485711e+06
  -2.486918e+06  -3.500050e+06
   2.395574e+06  -2.270254e+06
   4.569501e+06   8.392317e+05
   2.017737e+06   2.702613e+06
  -1.693638e+06   1.412828e+06
  -1.760767e+06  -1.019696e+06
   1.342831e+06  -9.832349e+05
   2.586117e+06   1.717186e+06
  -4.977271e+05   3.532746e+06
  -4.608531e+06   2.073722e+06
  -5.384862e+06  -1.235360e+06
  -2.426924e+06  -3.949182e+06
   1.703482e+06  -5.280314e+06
   4.910485e+06  -4.882438e+06
   6.129769e+06  -1.836447e+06
   4.609267e+06   3.047390e+06
   1.038282e+06   6.131962e+06
  -1.807545e+06   4.820809e+06
  -1.801474e+06   1.269422e+06
  -2.270110e+05  -2.880193e+05
   3.029097e+04   8.956260e+05
  -1.537933e+06   1.744697e+06
  -2.745298e+06   2.582968e+05
  -1.993736e+06  -1.885968e+06
  -2.139817e+04  -2.103713e+06
   1.539776e+06  -1.774108e+05
   1.664331e+06   2.079660e+06
   1.652567e+04   2.923817e+06
  -2.729005e+06   1.675280e+06
  -4.462324e+06  -1.115614e+06
  -3.282711e+06  -3.683929e+06
  -6.177380e+04  -4.223275e+06
   2.210863e+06  -2.780295e+06
   2.224354e+06  -1.203341e+06
   1.852887e+06  -7.189312e+05
   2.967956e+06  -5.045539e+05
   4.382827e+06   7.364431e+05
   3.521517e+06   2.760640e+06
   1.491603e+05   4.147364e+06
  -3.200739e+06   3.924966e+06
  -4.162608e+06   2.139644e+06
  -2.645915e+06  -3.995439e+05
  -2.850045e+05  -2.214513e+06
   1.079801e+06  -1.930056e+06
   5.580901e+05   2.850979e+04
  -1.082096e+06   1.314707e+06
  -1.914807e+06   4.165681e+05
  -9.402292e+05  -1.196558e+06
   5.150082e+05  -1.113897e+06
   4.310558e+05   4.083857e+05
  -1.104339e+06   7.243623e+05
  -1.933024e+06  -1.304985e+06
  -6.875044e+05  -3.568087e+06
   1.636865e+06  -3.498082e+06
   3.230250e+06  -1.132867e+06
   3.361417e+06   1.489058e+06
   2.271566e+06   2.809712e+06
   4.366898e+05   2.629547e+06
  -1.244402e+06   1.467480e+06
  -1.579409e+06   2.305956e+05
  -4.964282e+05  -4.512421e+04
   3.631643e+05   7.586484e+05
  -4.104170e+05   1.363686e+06
  -1.928632e+06   6.015775e+05
  -2.068882e+06  -8.917238e+05
  -3.970436e+05  -1.440707e+06
   1.188074e+06  -5.795345e+05
   8.931371e+05   4.699504e+05
  -8.781416e+05   5.229906e+05
  -2.212329e+06  -3.485087e+05
  -1.744239e+06  -1.393417e+06
   2.755256e+05  -1.990058e+06
   2.338842e+06  -1.659048e+06
   2.800212e+06  -2.735294e+05
   1.237282e+06   1.278270e+06
  -9.182935e+05   1.529274e+06
  -1.580161e+06   2.078790e+05
  -2.159918e+05  -1.088887e+06
   1.529863e+06  -7.508837e+05
   1.741366e+06   7.930741e+05
   3.348270e+05   1.680666e+06
  -1.120968e+06   9.873497e+05
  -1.281143e+06  -3.293327e+05
  -2.444659e+05  -8.037573e+05
   8.130298e+05  -6.117032e+04
   7.508394e+05   1.062135e+06
  -5.744065e+05   1.439369e+06
  -2.022604e+06   5.550986e+05
  -2.058800e+06  -1.053063e+06
  -3.933116e+05  -2.097406e+06
   1.456679e+06  -1.666504e+06
   1.750320e+06  -2.117895e+05
   5.061753e+05   8.846463e+05
  -6.706425e+05   8.121399e+05
  -6.335232e+05   7.196449e+04
   1.360698e+05  -3.593103e+05
   4.995806e+05  -1.909327e+05
   1.033665e+05   8.164054e+04
  -4.776880e+05  -8.284193e+04
  -5.310137e+05  -6.963010e+05
   2.145225e+05  -1.210621e+06
   1.401538e+06  -9.066787e+05
   2.105332e+06   4.176081e+05
   1.483974e+06   1.961415e+06
  -2.180015e+05   2.442453e+06
  -1.636348e+06   1.417695e+06
  -1.703813e+06  -1.412505e+05
  -8.453479e+05  -9.092659e+05
  -2.971257e+05  -6.423691e+05
  -4.798979e+05  -1.986689e+05
  -6.500629e+05  -3.077920e+05
  -1.024338e+05  -7.777176e+05
   8.902431e+05  -9.118313e+05
   1.465856e+06  -3.194061e+05
   1.048087e+06   7.351346e+05
  -2.681926e+05   1.468669e+06
  -1.743712e+06   1.074811e+06
  -2.267316e+06  -4.927492e+05
  -1.141701e+06  -2.127652e+06
   1.027023e+06  -2.399623e+06
   2.580728e+06  -1.043065e+06
   2.378983e+06   6.799811e+05
   9.507880e+05   1.365784e+06
  -2.281209e+05   9.493123e+05
  -3.943948e+05   4.944375e+05
  -5.950553e+04   7.461576e+05
  -8.430514e+04   1.322256e+06
  -6.705499e+05   1.312382e+06
  -1.308529e+06   3.313509e+05
  -1.353747e+06  -1.084671e+06
  -5.661212e+05  -1.909330e+06
   6.235888e+05  -1.450283e+06
   1.298532e+06   3.844976e+03
   8.230191e+05   1.302679e+06
  -4.004819e+05   1.418204e+06
  -1.192373e+06   4.090339e+05
  -8.347177e+05  -7.179977e+05
   1.264395e+05  -1.104528e+06
   5.565650e+05  -8.003032e+05
   9.617904e+04  -4.190500e+05
  -4.381923e+05  -3.323574e+05
  -6.205352e+04  -3.838437e+05
   1.165904e+06  -2.162055e+05
   2.093000e+06   3.289985e+05
   1.638567e+06   1.048875e+06
  -3.956834e+04   1.463283e+06
  -1.610989e+06   1.166395e+06
  -1.858043e+06   2.794234e+05
  -8.487682e+05  -5.133913e+05
   2.629797e+05  -5.850566e+05
   5.241087e+05  -3.219820e+04
   4.227614e+04   4.300931e+05
  -4.398188e+05   2.614870e+05
  -4.887125e+05  -3.421006e+05
  -2.672765e+05  -7.181684e+05
  -1.086683e+05  -4.755499e+05
  -1.422029e+05   8.723174e+04
  -2.786433e+05   2.802149e+05
  -2.771771e+05  -2.365425e+05
   1.363714e+05  -9.882562e+05
   9.034468e+05  -1.081577e+06
   1.383583e+06  -1.985714e+05
   8.778362e+05   9.107042e+05
  -4.077754e+05   1.163526e+06
  -1.269791e+06   3.631457e+05
  -7.425738e+05  -5.699937e+05
   7.119214e+05  -6.556813e+05
   1.601439e+06   1.041152e+05
   1.000320e+06   8.828467e+05
  -5.067851e+05   9.947964e+05
  -1.518343e+06   4.636118e+05
  -1.236981e+06  -2.080340e+05
  -1.268725e+05  -5.189868e+05
   6.605889e+05  -2.666817e+05
   3.964923e+05   2.983865e+05
  -5.769490e+05   5.347837e+05
  -1.191334e+06  -6.185957e+04
  -6.979326e+05  -1.175364e+06
   5.628130e+05  -1.722305e+06
   1.478280e+06  -9.127239e+05
   1.271000e+06   7.494080e+05
   2.158075e+05   1.801987e+06
  -7.443667e+05   1.299579e+06
  -9.356077e+05  -1.880114e+05
  -4.275483e+05  -1.207760e+06
   2.388027e+05  -9.749804e+05
   5.750201e+05  -8.139830e+04
   4.575921e+05   3.802453e+05
   1.489248e+05   1.380405e+05
   5.605650e+04  -9.356621e+04
   3.094187e+05   3.002072e+05
   5.291996e+05   9.746296e+05
   1.777804e+05   1.089892e+06
  -7.423518e+05   4.053968e+05
  -1.487533e+06  -4.617592e+05
  -1.277649e+06  -8.432639e+05
  -1.894067e+05  -7.087591e+05
   8.409939e+05  -4.256855e+05
   9.876200e+05  -1.814341e+05
   3.821822e+05   5.774769e+04
  -1.378578e+05   2.288177e+05
  -5.878923e+04   2.022934e+05
   2.417867e+05   8.676305e+04
   6.112267e+04   1.302194e+05
  -6.381817e+05   2.472478e+05
  -1.058516e+06   7.136657e+03
  -4.810762e+05  -6.899768e+05
   8.104043e+05  -1.207915e+06
   1.721000e+06  -8.052320e+05
   1.458200e+06   3.978995e+05
   3.032610e+05   1.410467e+06
  -7.637901e+05   1.408729e+06
  -1.050451e+06   5.740349e+05
  -6.579263e+05  -2.130238e+05
  -1.509905e+05  -3.583676e+05
   4.410444e+04  -7.844242e+04
  -9.432422e+04   1.937182e+03
  -2.973709e+05  -3.787978e+05
  -2.487715e+05  -8.162344e+05
   1.655849e+05  -6.932391e+05
   6.806087e+05   9.546160e+04
   7.726746e+05   9.289581e+05
   1.632683e+05   1.037094e+06
  -7.346727e+05   2.851128e+05
  -1.060447e+06  -6.850578e+05
  -3.874260e+05  -1.093183e+06
   7.012418e+05  -7.153714e+05
   1.143481e+06   4.723769e+04
   5.662790e+05   6.264891e+05
  -2.763487e+05   7.154939e+05
  -3.995035e+05   3.881905e+05
   2.225796e+05   5.523905e+02
   6.480305e+05  -5.263331e+04
   1.628486e+05   3.121749e+05
  -8.245192e+05   6.947618e+05
  -1.290309e+06   5.495574e+05
  -8.028950e+05  -1.830156e+05
   7.941061e+04  -8.898140e+05
   5.654079e+05  -8.889037e+05
   4.500750e+05  -1.946084e+05
   7.410288e+04   4.695320e+05
  -2.266028e+05   4.574012e+05
  -3.520952e+05  -1.190968e+05
  -2.701694e+05  -5.773427e+05
   3.516181e+04  -4.535028e+05
   3.948365e+05   2.742961e+04
   4.971310e+05   2.908120e+05
   2.498141e+05   1.085317e+05
  -5.330498e+04  -1.679210e+05
  -9.233042e+04  -8.206614e+04
   4.952262e+04   3.345536e+05
   1.332430e+04   5.746712e+05
  -2.940351e+05   2.689733e+05
  -4.974863e+05  -3.387838e+05
  -2.141284e+05  -6.392065e+05
   3.914107e+05  -3.355908e+05
   6.904108e+05   2.497366e+05
   2.785694e+05   5.619202e+05
  -5.128671e+05   3.841437e+05
  -9.064051e+05  -4.507156e+04
  -4.988676e+05  -3.703886e+05
   2.855676e+05  -4.295075e+05
   6.439677e+05  -2.679669e+05
   2.723872e+05  -3.130929e+04
  -3.159151e+05   9.171762e+04
  -3.964548e+05  -2.904988e+04
   1.436659e+05  -2.757168e+05
   7.065596e+05  -2.830987e+05
