
 $NMID
 id='ANONYMOUS ', fmtdat='(2E16.6)'
 volume=1.0
 tramp=1.0
 $END
  -3.339702e+07   2.293310e+06
  -2.196493e+07  -1.851118e+07
   2.106194e+06  -2.274064e+07
   1.553239e+07  -1.074160e+07
   1.055019e+07   2.592412e+06
  -1.131587e+06   5.797567e+06
  -6.104688e+06   2.950816e+05
  -2.643476e+06  -5.666719e+06
   3.000105e+06  -6.453464e+06
   5.785465e+06  -2.069589e+06
   4.611640e+06   3.526504e+06
   8.401467e+05   5.402421e+06
  -2.404044e+06   1.750515e+06
  -1.920203e+06  -3.580041e+06
   1.967785e+06  -4.551507e+06
   4.912159e+06   2.417095e+05
   3.308905e+06   5.989664e+06
  -1.658211e+06   7.397568e+06
  -5.831087e+06   3.992446e+06
  -6.503943e+06  -8.991106e+05
  -4.034677e+06  -4.196584e+06
  -6.362559e+05  -4.844783e+06
   1.187503e+06  -3.465604e+06
   4.026632e+05  -1.887640e+06
  -1.095260e+06  -1.870254e+06
  -9.549327e+04  -3.002957e+06
   3.647062e+06  -2.878523e+06
   6.258892e+06  -3.709832e+05
   4.457649e+06   2.486644e+06
   1.440845e+03   3.079504e+06
  -2.556405e+06   1.456612e+06
  -1.501132e+06  -3.195983e+05
   8.643684e+05  -8.976051e+05
   1.976456e+06  -2.431646e+05
   1.510182e+06   1.291716e+06
   2.517362e+05   2.724660e+06
  -1.125003e+06   2.317439e+06
  -1.713984e+06  -2.004339e+05
  -8.577385e+05  -2.102677e+06
   3.807840e+05  -8.181172e+05
   6.155636e+04   1.868823e+06
  -1.569977e+06   1.690286e+06
  -1.743094e+06  -1.779524e+06
   9.243599e+05  -3.833533e+06
   3.817375e+06  -1.036689e+06
   3.304358e+06   3.774516e+06
  -6.336657e+05   5.123899e+06
  -4.355696e+06   1.774490e+06
  -4.652873e+06  -2.456870e+06
  -1.621685e+06  -3.793917e+06
   2.080187e+06  -2.042865e+06
   3.606562e+06   5.998746e+05
   1.925401e+06   2.076599e+06
  -1.280273e+06   1.560410e+06
  -2.860445e+06  -2.661604e+05
  -1.414217e+06  -1.531363e+06
   9.648416e+05  -9.330882e+05
   1.244192e+06   5.586039e+05
  -6.001444e+05   8.023542e+05
  -1.665257e+06  -6.359430e+05
  -1.374942e+05  -1.924907e+06
   2.413659e+06  -1.468085e+06
   3.272436e+06   3.451522e+05
   1.695422e+06   2.219606e+06
  -9.880458e+05   3.365108e+06
  -3.186034e+06   3.211624e+06
  -3.929989e+06   1.206843e+06
  -2.887387e+06  -1.939863e+06
  -7.375361e+05  -3.928534e+06
   9.004704e+05  -3.221322e+06
   9.843940e+05  -1.114347e+06
   2.936618e+05  -1.186914e+05
   3.405066e+05  -6.956721e+05
   1.305937e+06  -1.030096e+06
   1.931283e+06   6.347518e+04
   1.302416e+06   1.497419e+06
  -1.265419e+05   1.566839e+06
  -1.249989e+06   1.191334e+05
  -1.272868e+06  -1.520991e+06
  -2.144220e+04  -2.047725e+06
   1.846596e+06  -1.087837e+06
   2.893939e+06   7.658694e+05
   2.072625e+06   2.312387e+06
   8.091831e+04   2.571521e+06
  -1.259646e+06   1.709280e+06
  -1.261038e+06   8.364374e+05
  -1.125705e+06   6.209674e+05
  -1.972305e+06   5.188066e+05
  -2.999246e+06  -3.070501e+05
  -2.502267e+06  -1.750042e+06
  -2.421903e+05  -2.851194e+06
   2.124357e+06  -2.798459e+06
   2.874994e+06  -1.518988e+06
   1.817069e+06   3.224342e+05
   1.298931e+05   1.567069e+06
  -7.943178e+05   1.309978e+06
  -3.750762e+05  -4.875101e+04
   7.490234e+05  -9.190672e+05
   1.280192e+06  -3.248653e+05
   6.218376e+05   7.810756e+05
  -3.654209e+05   7.909315e+05
  -3.862686e+05  -2.517424e+05
   6.148122e+05  -6.484028e+05
   1.357771e+06   5.658815e+05
   8.139358e+05   2.241385e+06
  -6.924976e+05   2.570721e+06
  -2.064465e+06   1.188074e+06
  -2.510112e+06  -7.304541e+05
  -1.855667e+06  -1.905841e+06
  -4.454192e+05  -1.904114e+06
   8.569422e+05  -1.069313e+06
   1.116812e+06  -1.791267e+05
   3.463791e+05   1.719634e+04
  -2.776479e+05  -5.119744e+05
   2.146730e+05  -9.235946e+05
   1.257825e+06  -4.679715e+05
   1.429099e+06   5.010417e+05
   3.462278e+05   9.412005e+05
  -7.889385e+05   4.553992e+05
  -6.800743e+05  -2.890429e+05
   5.545527e+05  -4.655743e+05
   1.606488e+06   7.391785e+04
   1.373366e+06   9.047471e+05
  -6.450249e+04   1.467577e+06
  -1.582171e+06   1.288610e+06
  -1.948396e+06   2.961393e+05
  -8.900900e+05  -8.212760e+05
   5.714733e+05  -1.041720e+06
   1.036187e+06  -1.779862e+05
   1.523291e+05   7.205907e+05
  -1.027145e+06   5.558944e+05
  -1.235742e+06  -4.698899e+05
  -3.333385e+05  -1.147015e+06
   7.031350e+05  -7.681721e+05
   9.111621e+05   1.262660e+05
   2.394704e+05   5.271504e+05
  -5.313032e+05   7.590111e+04
  -5.392571e+05  -7.054498e+05
   3.686056e+05  -1.006425e+06
   1.391555e+06  -4.274307e+05
   1.450090e+06   6.783113e+05
   3.350558e+05   1.434358e+06
  -9.404031e+05   1.198550e+06
  -1.198716e+06   2.201943e+05
  -3.990143e+05  -5.860812e+05
   4.279799e+05  -5.974523e+05
   4.666209e+05  -6.836990e+04
  -5.602818e+04   3.039508e+05
  -3.796623e+05   2.038146e+05
  -1.591642e+05  -6.327436e+04
   2.872281e+05  -2.788192e+04
   4.127759e+05   4.065732e+05
  -6.951130e+04   8.348174e+05
  -9.286782e+05   6.839707e+05
  -1.473947e+06  -2.169624e+05
  -1.087431e+06  -1.313665e+06
   7.761831e+04  -1.716205e+06
   1.099869e+06  -1.075563e+06
   1.227816e+06   1.369728e+04
   6.774822e+05   6.402991e+05
   2.497100e+05   5.265733e+05
   2.960061e+05   1.813289e+05
   4.043555e+05   1.762170e+05
   8.512441e+04   5.012638e+05
  -5.723294e+05   6.712130e+05
  -1.019714e+06   2.988184e+05
  -7.946571e+05  -4.874517e+05
   1.113586e+05  -1.076687e+06
   1.184108e+06  -8.367695e+05
   1.612622e+06   2.623785e+05
   8.880050e+05   1.435000e+06
  -5.974331e+05   1.696366e+06
  -1.729613e+06   8.354149e+05
  -1.696838e+06  -3.513764e+05
  -7.701839e+05  -9.160285e+05
   9.086195e+04  -7.226513e+05
   2.967336e+05  -4.104680e+05
   9.192077e+04  -5.183919e+05
   5.684365e+04  -8.798350e+05
   4.163689e+05  -8.993250e+05
   8.783953e+05  -2.577706e+05
   9.643578e+05   7.200048e+05
   4.453942e+05   1.316020e+06
  -3.976882e+05   1.029106e+06
  -9.088583e+05   4.606091e+04
  -6.243955e+05  -8.600370e+05
   2.009534e+05  -9.943739e+05
   7.750576e+05  -3.608481e+05
   5.948673e+05   4.105481e+05
  -1.182632e+04   7.347325e+05
  -3.066459e+05   5.791960e+05
  -3.028089e+04   3.165163e+05
   3.050370e+05   2.314664e+05
   4.790136e+04   2.709985e+05
  -7.853387e+05   1.919860e+05
  -1.439102e+06  -1.559342e+05
  -1.171084e+06  -6.617428e+05
  -4.984476e+04  -9.919869e+05
   1.046349e+06  -8.466734e+05
   1.269490e+06  -2.751853e+05
   6.172870e+05   2.847613e+05
  -1.480971e+05   3.925574e+05
  -3.505846e+05   5.662904e+04
  -2.644195e+04  -2.709310e+05
   3.143159e+05  -1.871874e+05
   3.447477e+05   2.254170e+05
   1.725750e+05   5.041847e+05
   5.687307e+04   3.320299e+05
   9.941171e+04  -8.912949e+04
   2.113947e+05  -2.344510e+05
   2.065611e+05   1.524170e+05
  -8.294943e+04   7.052890e+05
  -5.966200e+05   7.731669e+05
  -9.183771e+05   1.533525e+05
  -5.970003e+05  -6.124815e+05
   2.522203e+05  -7.897831e+05
   8.523252e+05  -2.546009e+05
   5.288684e+05   3.876664e+05
  -4.678623e+05   4.845965e+05
  -1.134699e+06  -5.227227e+03
  -7.702748e+05  -5.750324e+05
   2.884132e+05  -7.367993e+05
   1.053298e+06  -4.185288e+05
   9.004672e+05   8.116795e+04
   1.225790e+05   3.662023e+05
  -4.483249e+05   2.224146e+05
  -2.734775e+05  -1.860634e+05
   4.048176e+05  -3.730277e+05
   8.308927e+05   3.648293e+04
   4.880655e+05   8.161892e+05
  -3.843701e+05   1.205931e+06
  -1.027058e+06   6.542875e+05
  -9.075065e+05  -5.031309e+05
  -1.952884e+05  -1.263339e+06
   4.853296e+05  -9.491808e+05
   6.661872e+05   8.309802e+04
   3.564734e+05   8.299753e+05
  -1.095088e+05   7.055998e+05
  -3.910298e+05   8.558167e+04
  -3.532781e+05  -2.580247e+05
  -1.327867e+05  -9.958620e+04
  -2.706027e+04   7.439675e+04
  -1.894738e+05  -1.861119e+05
  -3.841732e+05  -6.613642e+05
  -1.844096e+05  -7.632613e+05
   4.748691e+05  -3.088757e+05
   1.059989e+06   2.835032e+05
   9.464059e+05   5.548807e+05
   1.553623e+05   4.853197e+05
  -6.022359e+05   3.189058e+05
  -6.959418e+05   1.635714e+05
  -2.481592e+05  -1.610529e+04
   1.001621e+05  -1.616362e+05
   6.434565e+03  -1.568597e+05
  -2.029191e+05  -7.020366e+04
  -3.411572e+04  -9.185825e+04
   4.739445e+05  -1.782486e+05
   7.368752e+05  -2.156538e+04
   3.079932e+05   4.671480e+05
  -5.675628e+05   8.469460e+05
  -1.164298e+06   5.814109e+05
  -9.918584e+05  -2.620942e+05
  -2.336705e+05  -9.851238e+05
   4.927822e+05  -9.929993e+05
   7.210607e+05  -4.054039e+05
   4.701208e+05   1.504893e+05
   1.007807e+05   2.469260e+05
  -5.599220e+04   3.856919e+04
   5.544288e+04  -2.403183e+04
   2.309402e+05   2.482094e+05
   2.055501e+05   5.644400e+05
  -1.060430e+05   4.822899e+05
  -4.846957e+05  -7.140302e+04
  -5.441168e+05  -6.525462e+05
  -1.044812e+05  -7.191425e+05
   5.260635e+05  -1.878158e+05
   7.479860e+05   4.821886e+05
   2.759502e+05   7.546557e+05
  -4.797339e+05   4.942254e+05
  -7.862825e+05  -1.643336e+04
  -3.926431e+05  -4.058911e+05
   1.759800e+05  -4.797662e+05
   2.468631e+05  -2.733594e+05
  -1.822311e+05  -4.909393e+03
  -4.589887e+05   4.711243e+04
  -1.114991e+05  -2.097692e+05
   5.608276e+05  -5.078861e+05
   8.666511e+05  -4.324064e+05
   5.384703e+05   8.997707e+04
  -3.843259e+04   6.133875e+05
  -3.527391e+05   6.224997e+05
  -2.845274e+05   1.260844e+05
  -4.837320e+04  -3.379538e+05
   1.538551e+05  -3.104877e+05
   2.509137e+05   9.914680e+04
   1.976562e+05   3.987844e+05
  -2.180632e+04   2.962812e+05
  -2.758759e+05  -2.113896e+04
  -3.450096e+05  -1.761986e+05
  -1.763102e+05  -5.560086e+04
   2.833008e+04   9.791778e+04
   6.481590e+04   1.674102e+04
  -9.114997e+03  -2.491096e+05
   2.619460e+04  -3.765721e+05
   2.161568e+05  -1.511136e+05
   3.239833e+05   2.556767e+05
   1.208074e+05   4.473094e+05
  -2.790961e+05   2.312618e+05
  -4.722443e+05  -1.765600e+05
  -1.943884e+05  -3.970148e+05
   3.433556e+05  -2.754615e+05
   6.205356e+05   2.387190e+04
   3.492476e+05   2.493334e+05
  -1.912167e+05   2.880839e+05
  -4.387056e+05   1.782888e+05
  -1.709607e+05   2.311489e+04
   2.459491e+05  -5.193954e+04
   2.888887e+05   3.882787e+04
  -1.159749e+05   2.124158e+05
  -5.237113e+05   2.124102e+05
