
 $NMID
 id='ANONYMOUS ', fmtdat='(2E16.6)'
 volume=1.0
 tramp=1.0
 $END
   2.901773e+07   6.230347e+05
   1.859642e+07   1.479527e+07
  -1.172037e+06   1.849716e+07
  -1.295934e+07   1.104299e+07
  -1.004814e+07   1.857188e+05
  -1.454285e+05  -5.112323e+06
   5.702059e+06  -1.980298e+06
   3.832916e+06   4.718120e+06
  -1.727881e+06   7.389406e+06
  -5.365397e+06   3.062181e+06
  -4.499691e+06  -3.742057e+06
  -5.126047e+05  -5.860510e+06
   2.744585e+06  -1.284443e+06
   2.113433e+06   4.703135e+06
  -1.761741e+06   5.499572e+06
  -4.723362e+06   2.818488e+05
  -3.314881e+06  -5.685380e+06
   1.536788e+06  -7.025600e+06
   5.584172e+06  -3.286018e+06
   5.656543e+06   1.710107e+06
   2.501976e+06   4.159607e+06
  -4.182699e+05   3.459715e+06
  -4.749508e+05   1.916585e+06
   1.577847e+06   1.967719e+06
   2.331634e+06   3.617493e+06
  -6.004492e+05   4.521787e+06
  -5.425599e+06   2.726331e+06
  -7.455490e+06  -9.213941e+05
  -4.217791e+06  -3.529968e+06
   1.372595e+06  -3.166297e+06
   3.973121e+06  -5.897663e+05
   1.635684e+06   1.803176e+06
  -2.441938e+06   2.067832e+06
  -3.948866e+06  -5.160302e+04
  -1.997602e+06  -2.927218e+06
   8.342387e+05  -3.964531e+06
   1.901930e+06  -1.894779e+06
   9.373023e+05   1.336299e+06
  -4.317645e+05   2.121091e+06
  -5.964762e+05  -5.007657e+05
   6.579928e+05  -3.167778e+06
   2.044814e+06  -2.188246e+06
   1.891165e+06   1.538033e+06
  -1.693398e+05   3.410728e+06
  -2.428494e+06   9.441711e+05
  -2.441998e+06  -3.119664e+06
   4.543938e+05  -4.252041e+06
   4.046812e+06  -1.341689e+06
   5.034168e+06   2.622817e+06
   2.194478e+06   4.204354e+06
  -2.214446e+06   2.640866e+06
  -4.414544e+06  -2.563015e+05
  -2.697572e+06  -2.101963e+06
   9.290223e+05  -1.740929e+06
   2.851661e+06   5.425875e+04
   1.587195e+06   1.345260e+06
  -8.836507e+05   9.017946e+05
  -1.604378e+06  -5.496292e+05
  -1.798411e+04  -1.233006e+06
   1.624859e+06  -3.852254e+05
   1.076223e+06   1.006937e+06
  -1.286817e+06   1.427486e+06
  -2.902420e+06   2.756723e+05
  -1.782712e+06  -1.819152e+06
   1.466790e+06  -3.456297e+06
   4.290012e+06  -3.191890e+06
   4.611890e+06  -6.415370e+05
   2.613818e+06   2.718786e+06
   2.497223e+05   4.498151e+06
  -8.266694e+05   3.738359e+06
  -7.207632e+05   1.915540e+06
  -7.243643e+05   1.037885e+06
  -1.585845e+06   1.173085e+06
  -2.661025e+06   7.022957e+05
  -2.724103e+06  -1.109938e+06
  -1.305965e+06  -2.804449e+06
   8.225063e+05  -2.428954e+06
   2.220634e+06   2.586981e+04
   1.797641e+06   2.467004e+06
  -3.047731e+05   2.814694e+06
  -2.569383e+06   9.116011e+05
  -3.185731e+06  -1.581018e+06
  -1.731513e+06  -2.851618e+06
   3.399011e+05  -2.453106e+06
   1.285688e+06  -1.381114e+06
   1.050400e+06  -8.287057e+05
   1.143525e+06  -9.364899e+05
   2.457969e+06  -7.981058e+05
   3.810342e+06   3.873547e+05
   3.176991e+06   2.323770e+06
   1.990195e+05   3.771393e+06
  -3.070602e+06   3.572226e+06
  -4.098301e+06   1.621659e+06
  -2.348853e+06  -8.930593e+05
   2.897657e+05  -2.237727e+06
   1.441412e+06  -1.552459e+06
   4.722351e+05   2.166988e+05
  -1.165497e+06   1.123765e+06
  -1.637672e+06   2.992577e+05
  -6.005771e+05  -1.032742e+06
   6.519104e+05  -1.056601e+06
   7.157453e+05   2.935717e+05
  -4.755340e+05   1.137526e+06
  -1.684675e+06  -3.785072e+04
  -1.586087e+06  -2.413848e+06
   1.034688e+05  -3.630423e+06
   2.389892e+06  -2.320574e+06
   3.673795e+06   5.348345e+05
   2.935310e+06   2.706497e+06
   6.801496e+05   2.832786e+06
  -1.315684e+06   1.427806e+06
  -1.591619e+06   9.918896e+04
  -4.657720e+05  -4.568973e+04
   3.517296e+05   6.911639e+05
  -2.606682e+05   1.123410e+06
  -1.536896e+06   5.284669e+05
  -1.788107e+06  -5.982197e+05
  -4.857987e+05  -1.146564e+06
   1.028144e+06  -6.162975e+05
   1.026102e+06   3.875868e+05
  -6.459048e+05   8.021965e+05
  -2.306072e+06   1.058272e+05
  -2.131389e+06  -1.246073e+06
  -3.078584e+04  -2.176628e+06
   2.211202e+06  -1.829284e+06
   2.665683e+06  -3.509204e+05
   1.124822e+06   1.072739e+06
  -7.755008e+05   1.229844e+06
  -1.249512e+06   1.346098e+05
  -7.545145e+04  -8.984827e+05
   1.376109e+06  -6.552586e+05
   1.637647e+06   6.192807e+05
   5.252971e+05   1.525051e+06
  -8.516366e+05   1.126161e+06
  -1.242315e+06  -3.659247e+04
  -4.205781e+05  -6.480892e+05
   6.247100e+05  -9.487994e+04
   6.421704e+05   9.497502e+05
  -5.889436e+05   1.300535e+06
  -1.903955e+06   4.413357e+05
  -1.877141e+06  -1.019742e+06
  -3.639591e+05  -1.916122e+06
   1.272039e+06  -1.546820e+06
   1.591899e+06  -2.846641e+05
   5.624301e+05   7.709066e+05
  -5.680378e+05   8.160052e+05
  -7.134393e+05   6.948688e+04
   4.773230e+03  -5.428290e+05
   6.206083e+05  -4.171330e+05
   4.516257e+05   1.081758e+05
  -2.430916e+05   2.143822e+05
  -5.862048e+05  -3.935783e+05
   2.166572e+04  -1.074745e+06
   1.234807e+06  -8.961322e+05
   1.962565e+06   3.483124e+05
   1.377945e+06   1.815372e+06
  -1.999898e+05   2.338771e+06
  -1.550858e+06   1.501742e+06
  -1.758973e+06   1.069424e+04
  -1.057513e+06  -9.889899e+05
  -3.855463e+05  -9.738852e+05
  -2.713218e+05  -4.315406e+05
  -3.688052e+05  -2.166242e+05
  -5.209876e+04  -5.770604e+05
   7.539272e+05  -8.960348e+05
   1.413175e+06  -4.356687e+05
   1.165155e+06   7.188787e+05
  -1.185233e+05   1.572373e+06
  -1.647857e+06   1.162552e+06
  -2.213808e+06  -4.088559e+05
  -1.197647e+06  -1.949255e+06
   7.745453e+05  -2.234394e+06
   2.276448e+06  -1.113936e+06
   2.321196e+06   4.249116e+05
   1.177895e+06   1.253726e+06
  -4.419397e+04   1.120967e+06
  -5.218214e+05   6.967738e+05
  -3.616203e+05   6.965939e+05
  -2.411010e+05   1.067140e+06
  -5.872742e+05   1.090835e+06
  -1.137973e+06   2.597500e+05
  -1.230961e+06  -1.044441e+06
  -5.092125e+05  -1.813604e+06
   6.157428e+05  -1.369660e+06
   1.241498e+06  -3.895311e+04
   8.254925e+05   1.131618e+06
  -2.285129e+05   1.311574e+06
  -9.392538e+05   5.513668e+05
  -7.477820e+05  -4.063683e+05
  -5.897180e+04  -8.764854e+05
   2.842973e+05  -7.711657e+05
  -1.287749e+04  -4.847857e+05
  -3.712725e+05  -3.697175e+05
  -2.967449e+04  -3.855813e+05
   1.013565e+06  -2.287428e+05
   1.851836e+06   2.687045e+05
   1.536276e+06   9.056958e+05
   1.020508e+05   1.256934e+06
  -1.348087e+06   1.037674e+06
  -1.681401e+06   3.674710e+05
  -8.416447e+05  -2.834621e+05
   1.762195e+05  -4.541025e+05
   4.357759e+05  -1.067824e+05
  -3.006463e+04   2.920707e+05
  -4.827778e+05   2.135729e+05
  -4.362712e+05  -3.311743e+05
  -1.050066e+05  -7.310361e+05
   3.628786e+04  -4.685757e+05
  -1.446954e+05   1.834731e+05
  -3.675980e+05   3.960054e+05
  -2.866579e+05  -2.053855e+05
   2.021221e+05  -9.864890e+05
   8.508752e+05  -9.883064e+05
   1.140208e+06  -7.238877e+04
   6.521300e+05   8.808146e+05
  -4.001669e+05   9.587689e+05
  -1.111121e+06   1.871775e+05
  -6.784318e+05  -5.924839e+05
   6.358373e+05  -6.451828e+05
   1.576529e+06   1.583787e+04
   1.140244e+06   7.868898e+05
  -3.294650e+05   1.055731e+06
  -1.467897e+06   6.486932e+05
  -1.301271e+06  -8.105195e+04
  -1.989597e+05  -5.235350e+05
   6.052005e+05  -3.224460e+05
   3.241652e+05   2.403046e+05
  -6.249668e+05   4.353961e+05
  -1.122533e+06  -1.805065e+05
  -5.197862e+05  -1.188651e+06
   7.166772e+05  -1.583654e+06
   1.500696e+06  -7.545756e+05
   1.199440e+06   7.879013e+05
   1.667166e+05   1.762067e+06
  -7.245100e+05   1.317293e+06
  -9.177503e+05  -9.304546e+04
  -4.979575e+05  -1.143151e+06
   1.068438e+05  -9.980709e+05
   5.110675e+05  -1.252301e+05
   5.295291e+05   3.851790e+05
   2.461967e+05   1.609197e+05
   1.352451e+04  -1.193667e+05
   1.429487e+05   2.282834e+05
   4.416867e+05   9.132875e+05
   2.864495e+05   1.065114e+06
  -5.729673e+05   3.976975e+05
  -1.445763e+06  -4.616207e+05
  -1.336878e+06  -8.168511e+05
  -1.874478e+05  -6.568329e+05
   9.165044e+05  -3.921835e+05
   9.873424e+05  -2.043046e+05
   2.758845e+05   2.955014e+03
  -1.765428e+05   2.090946e+05
   6.553827e+04   2.481552e+05
   3.637000e+05   1.504484e+05
   5.759690e+03   1.361390e+05
  -7.579903e+05   1.812075e+05
  -9.984944e+05  -5.682660e+04
  -2.525091e+05  -6.589363e+05
   9.313074e+05  -1.063975e+06
   1.582250e+06  -6.277615e+05
   1.227020e+06   4.991729e+05
   2.034324e+05   1.381441e+06
  -7.337886e+05   1.281621e+06
  -1.020366e+06   4.325846e+05
  -6.451623e+05  -2.921584e+05
  -7.881050e+04  -3.467306e+05
   1.594239e+05  -3.121790e+03
  -4.415103e+04   8.451619e+04
  -3.322456e+05  -3.275854e+05
  -2.680093e+05  -7.828787e+05
   2.046597e+05  -6.314379e+05
   6.767193e+05   1.956160e+05
   6.391185e+05   9.984622e+05
  -1.555662e+04   9.887101e+05
  -7.922320e+05   1.329242e+05
  -9.563499e+05  -8.020702e+05
  -2.534247e+05  -1.053645e+06
   7.171940e+05  -5.700535e+05
   1.030857e+06   1.205796e+05
   4.460044e+05   5.354929e+05
  -2.836715e+05   5.616452e+05
  -2.939095e+05   3.263412e+05
   3.256008e+05   4.540128e+04
   6.505572e+05  -1.256777e+04
   1.056694e+05   2.836592e+05
  -8.084928e+05   6.527460e+05
  -1.149877e+06   5.630946e+05
  -6.452947e+05  -1.183135e+05
   1.168572e+05  -8.030707e+05
   4.735075e+05  -7.796458e+05
   3.290029e+05  -8.459433e+04
  -1.938317e+03   4.997128e+05
  -2.560676e+05   3.693539e+05
  -3.432952e+05  -2.248933e+05
  -2.221992e+05  -5.651167e+05
   8.099865e+04  -3.415883e+05
   3.737787e+05   8.425107e+04
   4.257757e+05   2.267835e+05
   2.304707e+05   4.974432e+04
   9.584700e+03  -8.601591e+04
  -7.540804e+04   8.115092e+04
  -1.008805e+05   3.927533e+05
  -2.116463e+05   4.485245e+05
  -3.632455e+05   6.557436e+04
  -3.345660e+05  -4.683488e+05
  -2.501123e+03  -6.429249e+05
   4.400337e+05  -2.580071e+05
   5.851166e+05   3.351820e+05
   1.944427e+05   5.901893e+05
  -4.743141e+05   3.304680e+05
  -8.052309e+05  -1.263437e+05
  -4.317082e+05  -3.766064e+05
   2.928631e+05  -3.227851e+05
   6.022057e+05  -1.360657e+05
   1.824557e+05   1.032209e+03
  -4.206106e+05  -9.787977e+02
  -4.267952e+05  -1.546640e+05
   2.357821e+05  -3.299955e+05
   8.356437e+05  -2.456571e+05
