
 $NMID
 id='ANONYMOUS ', fmtdat='(2E16.6)'
 volume=1.0
 tramp=1.0
 $END
   2.898758e+07  -2.692625e+06
   2.106493e+07   1.261492e+07
   1.431169e+06   1.908463e+07
  -1.227848e+07   1.309492e+07
  -1.092018e+07   1.362622e+06
  -8.302087e+05  -5.475216e+06
   6.044664e+06  -2.714184e+06
   4.630620e+06   4.731259e+06
  -1.276478e+06   8.087572e+06
  -5.448976e+06   3.767629e+06
  -4.889654e+06  -3.437766e+06
  -9.130838e+05  -5.923282e+06
   2.612981e+06  -1.445678e+06
   2.323447e+06   4.766474e+06
  -1.545195e+06   5.913186e+06
  -4.945063e+06   7.758668e+05
  -3.980678e+06  -5.545267e+06
   8.682279e+05  -7.376081e+06
   5.278539e+06  -3.894191e+06
   5.735183e+06   1.111957e+06
   2.857154e+06   3.704378e+06
   1.281860e+05   3.268033e+06
   8.366883e+04   2.080624e+06
   1.908363e+06   2.349301e+06
   2.395650e+06   3.918285e+06
  -6.193487e+05   4.644646e+06
  -5.427403e+06   2.856571e+06
  -7.527452e+06  -6.614138e+05
  -4.382334e+06  -3.274079e+06
   1.249501e+06  -3.054735e+06
   3.923143e+06  -5.592755e+05
   1.500715e+06   1.840998e+06
  -2.702690e+06   2.048488e+06
  -4.123680e+06  -1.798377e+05
  -1.970218e+06  -3.045015e+06
   8.558120e+05  -3.974599e+06
   1.734639e+06  -1.913211e+06
   7.670184e+05   1.178664e+06
  -3.461335e+05   1.920658e+06
  -3.686438e+05  -5.958513e+05
   7.452487e+05  -3.233750e+06
   2.058245e+06  -2.354858e+06
   2.141794e+06   1.434132e+06
   2.610347e+05   3.669574e+06
  -2.312061e+06   1.492086e+06
  -2.877266e+06  -2.766064e+06
  -1.057364e+05  -4.407152e+06
   3.935386e+06  -1.774721e+06
   5.396191e+06   2.365444e+06
   2.564984e+06   4.295334e+06
  -2.194104e+06   2.913074e+06
  -4.691691e+06  -4.566192e+04
  -2.999129e+06  -2.099883e+06
   8.216384e+05  -1.952585e+06
   2.980332e+06  -2.036500e+05
   1.797661e+06   1.267238e+06
  -8.186257e+05   1.013757e+06
  -1.718814e+06  -5.068206e+05
  -6.386257e+04  -1.428773e+06
   1.865274e+06  -6.075672e+05
   1.456820e+06   1.097546e+06
  -1.124307e+06   1.833948e+06
  -3.082757e+06   6.605312e+05
  -2.091680e+06  -1.712335e+06
   1.256466e+06  -3.586267e+06
   4.200510e+06  -3.411882e+06
   4.605761e+06  -8.745770e+05
   2.734261e+06   2.555273e+06
   4.903170e+05   4.529758e+06
  -6.348406e+05   3.966814e+06
  -7.358482e+05   2.146921e+06
  -8.890806e+05   1.096737e+06
  -1.720105e+06   1.095280e+06
  -2.692982e+06   6.227717e+05
  -2.711771e+06  -1.156346e+06
  -1.285468e+06  -2.856100e+06
   8.788689e+05  -2.461820e+06
   2.312705e+06   6.939750e+04
   1.876036e+06   2.562430e+06
  -2.668437e+05   2.893606e+06
  -2.568673e+06   9.829665e+05
  -3.247280e+06  -1.466919e+06
  -1.887590e+06  -2.737877e+06
   1.323601e+05  -2.451038e+06
   1.127733e+06  -1.510515e+06
   9.940317e+05  -9.963314e+05
   1.170326e+06  -1.081250e+06
   2.557939e+06  -9.417426e+05
   3.991974e+06   2.584380e+05
   3.385354e+06   2.306672e+06
   3.184473e+05   3.913888e+06
  -3.088697e+06   3.777365e+06
  -4.177597e+06   1.752138e+06
  -2.395377e+06  -8.729730e+05
   2.852443e+05  -2.273125e+06
   1.442552e+06  -1.587159e+06
   4.683247e+05   2.159957e+05
  -1.176581e+06   1.172397e+06
  -1.673648e+06   3.631075e+05
  -6.455937e+05  -1.020611e+06
   6.579268e+05  -1.089531e+06
   7.693531e+05   3.218719e+05
  -4.984623e+05   1.272237e+06
  -1.880766e+06   5.999698e+04
  -1.850367e+06  -2.537375e+06
  -1.158089e+03  -3.946386e+06
   2.539684e+06  -2.591871e+06
   3.946353e+06   4.843239e+05
   3.140790e+06   2.826665e+06
   7.483171e+05   2.968725e+06
  -1.340090e+06   1.502491e+06
  -1.639508e+06   1.276302e+05
  -4.837012e+05  -3.472937e+04
   3.841200e+05   7.099482e+05
  -2.220103e+05   1.180340e+06
  -1.568033e+06   6.145101e+05
  -1.889629e+06  -5.513487e+05
  -5.565062e+05  -1.181728e+06
   1.058983e+06  -6.740929e+05
   1.086685e+06   4.000441e+05
  -6.830065e+05   8.830576e+05
  -2.453241e+06   1.578243e+05
  -2.271698e+06  -1.295353e+06
  -6.238570e+04  -2.304986e+06
   2.281640e+06  -1.964113e+06
   2.770016e+06  -4.314158e+05
   1.206397e+06   1.075029e+06
  -7.476410e+05   1.296328e+06
  -1.276150e+06   1.942049e+05
  -1.077706e+05  -9.111020e+05
   1.404978e+06  -7.180768e+05
   1.728865e+06   5.981741e+05
   5.961166e+05   1.590801e+06
  -8.709631e+05   1.218308e+06
  -1.320962e+06  -3.031213e+03
  -4.684920e+05  -6.797871e+05
   6.485260e+05  -1.284784e+05
   6.942569e+05   9.652420e+05
  -5.772145e+05   1.360702e+06
  -1.959983e+06   5.032656e+05
  -1.970594e+06  -1.007116e+06
  -4.319970e+05  -1.978038e+06
   1.275618e+06  -1.647761e+06
   1.651254e+06  -3.447188e+05
   6.106957e+05   7.923753e+05
  -5.740914e+05   8.679151e+05
  -7.421483e+05   7.420594e+04
   1.330389e+04  -5.866739e+05
   6.696011e+05  -4.397608e+05
   4.821454e+05   1.447769e+05
  -2.744378e+05   2.652802e+05
  -6.544229e+05  -3.940832e+05
  -1.990672e+04  -1.136971e+06
   1.262506e+06  -9.750415e+05
   2.053248e+06   3.081875e+05
   1.480954e+06   1.848040e+06
  -1.522821e+05   2.436040e+06
  -1.591271e+06   1.603268e+06
  -1.847626e+06   4.388016e+04
  -1.117483e+06  -1.032774e+06
  -3.876176e+05  -1.024870e+06
  -2.598218e+05  -4.285276e+05
  -3.902374e+05  -1.853978e+05
  -8.715241e+04  -5.886728e+05
   7.606744e+05  -9.633722e+05
   1.475057e+06  -4.923075e+05
   1.234892e+06   7.375725e+05
  -9.848562e+04   1.660122e+06
  -1.700577e+06   1.256349e+06
  -2.320619e+06  -3.752076e+05
  -1.303942e+06  -2.007645e+06
   7.396098e+05  -2.362312e+06
   2.346754e+06  -1.236367e+06
   2.448590e+06   3.848568e+05
   1.267730e+06   1.303319e+06
  -3.788719e+04   1.192331e+06
  -5.556059e+05   7.276717e+05
  -3.672011e+05   6.977193e+05
  -2.081412e+05   1.089931e+06
  -5.641206e+05   1.147929e+06
  -1.166341e+06   3.076057e+05
  -1.300988e+06  -1.049543e+06
  -5.720470e+05  -1.868804e+06
   6.065929e+05  -1.434854e+06
   1.294125e+06  -7.043839e+04
   8.984663e+05   1.157790e+06
  -1.968534e+05   1.384446e+06
  -9.751656e+05   6.225990e+05
  -8.171029e+05  -3.905343e+05
  -1.077907e+05  -9.245592e+05
   2.707921e+05  -8.364380e+05
  -1.839123e+04  -5.174561e+05
  -3.881146e+05  -3.709868e+05
  -3.795838e+04  -3.973830e+05
   1.047605e+06  -2.748930e+05
   1.932792e+06   2.163116e+05
   1.628658e+06   8.987647e+05
   1.554372e+05   1.316131e+06
  -1.362543e+06   1.129914e+06
  -1.746955e+06   4.350523e+05
  -9.053764e+05  -2.722961e+05
   1.580747e+05  -4.817745e+05
   4.571465e+05  -1.312856e+05
  -1.173037e+04   2.926648e+05
  -4.931305e+05   2.258773e+05
  -4.599707e+05  -3.294862e+05
  -1.180049e+05  -7.408698e+05
   3.189849e+04  -4.720266e+05
  -1.574078e+05   1.965957e+05
  -3.907423e+05   4.131143e+05
  -3.075071e+05  -2.088036e+05
   1.922925e+05  -1.024501e+06
   8.559044e+05  -1.048995e+06
   1.166233e+06  -1.203157e+05
   6.931107e+05   8.792096e+05
  -3.758016e+05   1.001059e+06
  -1.129308e+06   2.288717e+05
  -7.131418e+05  -5.968323e+05
   6.457179e+05  -6.914301e+05
   1.649274e+06  -1.908098e+04
   1.215828e+06   8.093160e+05
  -3.240746e+05   1.125776e+06
  -1.533621e+06   7.135732e+05
  -1.371164e+06  -6.320760e+04
  -2.183137e+05  -5.489159e+05
   6.283650e+05  -3.540720e+05
   3.460559e+05   2.350276e+05
  -6.329539e+05   4.570921e+05
  -1.156892e+06  -1.624953e+05
  -5.571830e+05  -1.207971e+06
   7.043670e+05  -1.640758e+06
   1.529944e+06  -8.070661e+05
   1.256650e+06   7.897192e+05
   2.102987e+05   1.823359e+06
  -7.299396e+05   1.386926e+06
  -9.666229e+05  -7.493538e+04
  -5.486855e+05  -1.186164e+06
   9.178637e+04  -1.055703e+06
   5.330223e+05  -1.480143e+05
   5.596320e+05   3.990153e+05
   2.589899e+05   1.742612e+05
   1.349319e+04  -1.295038e+05
   1.566949e+05   2.150143e+05
   4.810805e+05   9.307270e+05
   3.233105e+05   1.113706e+06
  -5.834922e+05   4.427166e+05
  -1.511635e+06  -4.481977e+05
  -1.410684e+06  -8.301096e+05
  -2.133598e+05  -6.783313e+05
   9.440726e+05  -4.165139e+05
   1.025820e+06  -2.319916e+05
   2.904979e+05  -1.523806e+04
  -1.783926e+05   2.159002e+05
   7.124861e+04   2.714531e+05
   3.776288e+05   1.647524e+05
   6.598119e+03   1.360992e+05
  -7.811580e+05   1.883557e+05
  -1.031598e+06  -3.539721e+04
  -2.729134e+05  -6.551246e+05
   9.360018e+05  -1.107695e+06
   1.611305e+06  -6.938423e+05
   1.269269e+06   4.731252e+05
   2.387410e+05   1.421707e+06
  -7.244684e+05   1.347726e+06
  -1.037504e+06   4.694158e+05
  -6.681207e+05  -2.925069e+05
  -8.802624e+04  -3.514419e+05
   1.605964e+05   8.098548e+03
  -5.214199e+04   9.635052e+04
  -3.584053e+05  -3.372218e+05
  -2.975602e+05  -8.109496e+05
   1.955650e+05  -6.549437e+05
   6.967976e+05   1.931039e+05
   6.726877e+05   1.013958e+06
   3.256008e+03   1.008025e+06
  -8.063587e+05   1.431401e+05
  -9.946843e+05  -8.077086e+05
  -2.847405e+05  -1.075665e+06
   7.197789e+05  -6.014613e+05
   1.064128e+06   9.533809e+04
   4.812943e+05   5.335071e+05
  -2.680184e+05   5.853937e+05
  -2.905991e+05   3.550686e+05
   3.370559e+05   5.314126e+04
   6.723521e+05  -2.433732e+04
   1.171611e+05   2.861268e+05
  -8.237021e+05   6.950974e+05
  -1.183583e+06   6.232325e+05
  -6.767179e+05  -9.199306e+04
   9.776944e+04  -8.313444e+05
   4.635642e+05  -8.274453e+05
   3.256945e+05  -1.049182e+05
   2.415860e+03   5.122812e+05
  -2.504095e+05   3.838479e+05
  -3.496586e+05  -2.289555e+05
  -2.421054e+05  -5.781410e+05
   6.663832e+04  -3.491785e+05
   3.836774e+05   7.966696e+04
   4.524358e+05   2.184931e+05
   2.466414e+05   4.376256e+04
   9.564744e+02  -8.086148e+04
  -9.432394e+04   9.166592e+04
  -1.075432e+05   3.954582e+05
  -2.033284e+05   4.429077e+05
  -3.560102e+05   6.259248e+04
  -3.387872e+05  -4.661542e+05
  -9.312147e+03  -6.457259e+05
   4.455573e+05  -2.696292e+05
   6.032606e+05   3.281097e+05
   2.084330e+05   6.018562e+05
  -4.803944e+05   3.557937e+05
  -8.288129e+05  -1.070776e+05
  -4.539270e+05  -3.764291e+05
   2.870777e+05  -3.378851e+05
   6.083623e+05  -1.542520e+05
   1.839674e+05  -1.151586e+04
  -4.299800e+05  -6.927436e+03
  -4.337829e+05  -1.592394e+05
   2.472901e+05  -3.389123e+05
   8.636666e+05  -2.562879e+05
