
 $NMID
 id='ANONYMOUS ', fmtdat='(2E16.6)'
 volume=1.0
 tramp=1.0
 $END
  -1.686890e+07  -5.772387e+05
  -8.664322e+06  -1.288848e+07
   4.866796e+06  -1.198579e+07
   9.611548e+06  -1.753103e+06
   3.943187e+06   5.146078e+06
  -2.598623e+06   3.418891e+06
  -3.177256e+06  -1.541884e+06
   2.061639e+05  -3.471962e+06
   2.803362e+06  -1.918469e+06
   3.070476e+06   5.344214e+05
   1.768211e+06   2.265489e+06
  -2.430930e+05   2.511674e+06
  -1.620299e+06   9.563528e+05
  -9.295782e+05  -1.007275e+06
   1.119195e+06  -1.024957e+06
   1.910820e+06   1.080858e+06
   3.307147e+05   2.840198e+06
  -1.924814e+06   2.470339e+06
  -3.014888e+06   7.389483e+05
  -2.887932e+06  -1.007527e+06
  -1.947371e+06  -2.461826e+06
  -7.215523e+04  -3.210383e+06
   1.975778e+06  -2.262913e+06
   2.324594e+06  -3.249769e+04
   6.440373e+05   1.160904e+06
  -7.301346e+05   1.058343e+05
   1.083963e+05  -1.355216e+06
   1.906368e+06  -9.473086e+05
   2.238983e+06   8.709473e+05
   8.961519e+05   2.009562e+06
  -4.866688e+05   1.780213e+06
  -1.068442e+06   1.035797e+06
  -1.166690e+06   2.820973e+05
  -8.222070e+05  -4.447123e+05
   1.488215e+04  -5.479956e+05
   4.101223e+05   3.357081e+05
  -4.752738e+05   1.011955e+06
  -1.574246e+06   1.453141e+05
  -1.162406e+06  -1.356657e+06
   2.941360e+05  -1.444223e+06
   6.888144e+05  -2.470988e+05
  -2.460250e+05   1.997897e+04
  -3.665649e+05  -1.225459e+06
   1.304528e+06  -1.739599e+06
   2.692432e+06   2.298795e+04
   1.681671e+06   2.302584e+06
  -7.437486e+05   2.485747e+06
  -1.982690e+06   6.525845e+05
  -1.233907e+06  -9.762938e+05
   1.562799e+05  -1.094888e+06
   8.913694e+05  -2.139189e+05
   7.191148e+05   7.441507e+05
  -1.636923e+05   1.190196e+06
  -1.206589e+06   6.829600e+05
  -1.384039e+06  -5.568042e+05
  -3.387358e+05  -1.263812e+06
   6.682118e+05  -5.820033e+05
   2.801419e+05   4.214544e+05
  -7.985292e+05   8.999108e+04
  -6.712019e+05  -1.240153e+06
   8.580647e+05  -1.591735e+06
   1.927739e+06  -2.938074e+05
   1.375973e+06   1.119025e+06
   1.873471e+05   1.329119e+06
  -3.903513e+05   8.906381e+05
  -5.856951e+05   7.135735e+05
  -9.927393e+05   4.419267e+05
  -1.084436e+06  -4.636544e+05
  -1.932514e+05  -1.202501e+06
   8.995659e+05  -6.719181e+05
   8.179820e+05   6.070330e+05
  -3.483707e+05   1.031573e+06
  -1.130820e+06   1.526056e+05
  -7.158969e+05  -8.630132e+05
   2.143115e+05  -9.728936e+05
   6.979493e+05  -3.837309e+05
   5.640995e+05   1.725021e+05
   1.446430e+05   3.446651e+05
  -2.299262e+05   1.215772e+05
  -2.205849e+05  -3.338887e+05
   3.212508e+05  -5.476432e+05
   9.067694e+05  -7.870558e+04
   7.793385e+05   7.568533e+05
  -5.108405e+04   1.084514e+06
  -7.251396e+05   6.060983e+05
  -6.897378e+05  -3.498595e+04
  -3.313116e+05  -2.322698e+05
  -2.024261e+05  -1.464952e+05
  -2.472903e+05  -1.676527e+05
  -1.739517e+05  -2.611183e+05
  -3.262322e+04  -2.590947e+05
   3.641360e+04  -2.740818e+05
   1.655236e+05  -3.629642e+05
   4.006354e+05  -2.427782e+05
   4.048308e+05   1.746297e+05
   2.043183e+04   4.042400e+05
  -2.744069e+05   9.081874e+04
  -3.625051e+04  -3.108493e+05
   3.739238e+05  -1.870942e+05
   3.349297e+05   2.433296e+05
  -1.664882e+04   3.160840e+05
  -6.202205e+04   5.830148e+04
   1.820805e+05   9.793282e+04
   7.324970e+04   4.910753e+05
  -4.926497e+05   5.330042e+05
  -7.843410e+05  -6.714882e+04
  -3.662093e+05  -6.371565e+05
   2.210249e+05  -5.476732e+05
   3.201944e+05  -9.826216e+04
   7.785194e+04   8.268740e+04
   7.814011e+02  -2.090105e+04
   9.487369e+04  -3.509339e+04
   4.306909e+04   4.757517e+04
  -9.581814e+04  -4.076078e+04
   3.374287e+03  -2.253774e+05
   2.859906e+05  -1.663794e+05
   3.587722e+05   1.304373e+05
   1.314082e+05   3.053354e+05
  -8.269133e+04   2.294606e+05
  -1.101010e+05   1.316720e+05
  -1.061329e+05   1.278266e+05
  -1.593236e+05   7.090163e+04
  -1.408640e+05  -6.768606e+04
  -4.054628e+04  -9.512827e+04
  -5.032052e+04   8.922862e+03
  -1.770457e+05  -7.242229e+03
  -1.455613e+05  -2.102569e+05
   1.307212e+05  -2.928320e+05
   3.235644e+05  -6.066235e+04
   1.668264e+05   2.119538e+05
  -1.254417e+05   1.808082e+05
  -1.823695e+05  -6.490946e+04
   5.558992e+03  -1.840981e+05
   1.654752e+05  -8.054248e+04
   1.657785e+05   6.877638e+04
   8.337158e+04   1.443280e+05
  -2.432641e+04   1.597585e+05
  -1.387014e+05   9.986545e+04
  -1.567896e+05  -4.477727e+04
  -1.269480e+04  -1.361459e+05
   1.315522e+05  -3.558879e+04
   6.486898e+04   1.392559e+05
  -1.399370e+05   1.423964e+05
  -2.143038e+05  -3.675428e+04
  -8.931768e+04  -1.735654e+05
   4.838118e+04  -1.605968e+05
   9.042295e+04  -1.088112e+05
   1.254518e+05  -8.046877e+04
   1.844360e+05   1.147125e+04
   1.417620e+05   1.670755e+05
  -3.023774e+04   2.166239e+05
  -1.505222e+05   9.146818e+04
  -1.046992e+05  -3.960230e+04
  -2.212069e+04  -3.850907e+04
  -3.462198e+04  -3.148387e+03
  -5.719357e+04  -5.232339e+04
   1.822527e+04  -9.707999e+04
   9.193402e+04  -1.906845e+04
   3.002760e+04   8.330198e+04
  -7.506168e+04   5.067858e+04
  -5.171085e+04  -5.308100e+04
   4.665510e+04  -5.155579e+04
   3.509580e+04   2.921607e+04
  -6.711017e+04   1.116249e+04
  -6.037537e+04  -1.044585e+05
   8.379060e+04  -1.203909e+05
   1.609302e+05   1.924176e+04
   7.080863e+04   1.275089e+05
  -3.085177e+04   8.321942e+04
  -1.191239e+04   1.157597e+04
   2.709589e+04   4.253892e+04
  -3.866071e+04   9.015420e+04
  -1.254760e+05   2.802989e+04
  -9.076497e+04  -7.270946e+04
   1.517487e+04  -6.335072e+04
   3.371065e+04   2.712378e+04
  -4.372005e+04   4.200805e+04
  -8.018445e+04  -5.086874e+04
  -1.829583e+04  -1.266815e+05
   6.009409e+04  -1.041703e+05
   8.719253e+04  -3.044145e+04
   7.988372e+04   3.313741e+04
   5.388822e+04   7.708155e+04
  -3.349801e+03   8.462695e+04
  -5.710938e+04   2.797292e+04
  -3.894963e+04  -5.069103e+04
   3.639826e+04  -5.931558e+04
   6.886496e+04   1.172902e+04
   1.837800e+04   6.877555e+04
  -4.052886e+04   5.478402e+04
  -4.222450e+04   1.941676e+04
  -1.741914e+04   1.528238e+04
  -1.605888e+04   1.633722e+04
  -2.805284e+04  -1.090220e+04
  -3.036781e+04  -3.768175e+04
  -3.624233e+04  -3.422155e+04
  -4.429905e+04  -3.005394e+04
  -1.200953e+04  -5.011403e+04
   6.080009e+04  -5.415188e+04
   9.338973e+04  -8.938305e+03
   3.910608e+04   3.562633e+04
  -2.645892e+04   1.954457e+04
  -1.340435e+04  -2.394172e+04
   4.385753e+04  -2.018583e+04
   4.965773e+04   2.644819e+04
   3.081771e+03   4.993115e+04
  -1.687978e+04   3.624296e+04
   3.342061e+03   2.949349e+04
  -2.078263e+03   3.566554e+04
  -4.656991e+04   1.365629e+04
  -6.031689e+04  -3.254893e+04
  -1.607995e+04  -4.402109e+04
   1.924445e+04  -8.875095e+03
   1.566558e+03   1.141126e+04
  -1.637791e+04  -1.205246e+04
   1.373630e+04  -2.561447e+04
   4.326867e+04   7.404371e+03
   1.029974e+04   3.457277e+04
  -4.722672e+04   2.136060e+03
  -4.659921e+04  -4.876968e+04
   1.149102e+04  -4.568901e+04
   5.281624e+04   1.752548e+03
   4.384946e+04   2.801396e+04
   1.749522e+04   1.883255e+04
  -1.824896e+03   1.338873e+04
  -2.116181e+04   1.842011e+04
  -2.948437e+04   2.533193e+03
  -1.498883e+03  -2.549234e+04
   3.849055e+04  -1.382831e+04
   2.823725e+04   3.973310e+04
  -3.500900e+04   6.395020e+04
  -7.364216e+04   1.507447e+04
  -3.749179e+04  -5.508985e+04
   2.507603e+04  -7.070123e+04
   4.300126e+04  -2.864500e+04
   1.916390e+04   1.602348e+04
   2.989137e+03   2.882268e+04
   6.216456e+03   1.938311e+04
   2.464850e+03   7.581697e+03
  -1.241226e+04   3.222798e+03
  -1.618978e+04   7.865138e+03
  -8.088808e+03   1.008679e+04
  -1.011041e+04  -8.436759e+03
  -1.998008e+04  -4.096866e+04
  -8.172059e+03  -4.895423e+04
   2.929686e+04  -1.230601e+04
   5.360271e+04   3.384184e+04
   3.420621e+04   4.274779e+04
  -1.040105e+04   1.801923e+04
  -3.839961e+04  -2.095356e+03
  -3.147767e+04  -5.425218e+03
  -4.299500e+03  -9.731931e+03
   1.670803e+04  -1.643662e+04
   1.516450e+04  -7.315986e+03
  -1.469949e+03   1.239461e+04
  -6.418590e+03   1.413257e+04
   1.340463e+04  -2.090569e+03
   3.086544e+04  -8.974633e+02
   8.579249e+03   2.699940e+04
  -4.320161e+04   3.985516e+04
  -6.900586e+04   7.489862e+03
  -3.923417e+04  -3.821173e+04
   1.115243e+04  -4.850087e+04
   3.299316e+04  -2.477666e+04
   2.362765e+04  -4.329326e+03
   1.199862e+04  -1.295605e+03
   8.247592e+03  -8.434063e+02
   2.458428e+03   2.678269e+03
  -2.195083e+03   2.189102e+03
   6.283257e+03   4.499961e+03
   1.634770e+04   2.041097e+04
   2.818545e+03   3.118402e+04
  -2.692803e+04   6.753482e+03
  -3.230893e+04  -3.812868e+04
   2.305967e+03  -4.862031e+04
   3.886485e+04  -5.427336e+03
   3.425794e+04   4.256598e+04
  -4.200910e+03   4.378087e+04
  -3.325755e+04   9.552809e+03
  -2.909414e+04  -1.403469e+04
  -7.039625e+03  -1.306682e+04
   5.995666e+03  -9.314918e+03
   3.447805e+01  -1.372914e+04
  -1.410529e+04  -1.500391e+04
  -1.622211e+04  -1.013190e+04
   5.151839e+03  -1.107425e+04
   3.643702e+04  -1.674863e+04
   4.660085e+04  -8.470667e+03
   2.163762e+04   1.674626e+04
  -1.499975e+04   3.296868e+04
  -2.844648e+04   1.966123e+04
  -1.271295e+04  -8.252719e+03
   8.564629e+03  -1.972457e+04
   1.564434e+04  -5.716070e+03
   9.936949e+03   1.526460e+04
   1.732885e+02   2.222336e+04
  -9.863976e+03   1.103234e+04
  -1.635597e+04  -6.460100e+03
  -1.403544e+04  -1.430834e+04
  -5.687244e+03  -7.163331e+03
  -8.834441e+02   2.349645e+03
  -4.967124e+02  -2.662574e+03
   5.202064e+03  -1.865740e+04
   1.772977e+04  -2.147933e+04
   2.292046e+04   1.098399e+03
   1.056788e+04   2.788058e+04
  -9.479557e+03   2.864344e+04
  -1.981921e+04   2.924441e+03
  -1.480305e+04  -2.062135e+04
   2.653598e+02  -2.050200e+04
   1.784655e+04  -3.006484e+03
   2.637416e+04   1.325680e+04
   1.301686e+04   1.824730e+04
  -1.645195e+04   1.212507e+04
  -3.158294e+04  -4.341296e+02
  -1.130304e+04  -1.003531e+04
   2.195162e+04  -6.392826e+03
   2.512821e+04   8.804008e+03
  -8.238814e+03   1.861283e+04
  -3.724350e+04   8.574537e+03
