
 $NMID
 id='ANONYMOUS ', fmtdat='(2E16.6)'
 volume=1.0
 tramp=1.0
 $END
  -3.925210e+07   3.805311e+05
  -2.468162e+07  -2.172881e+07
   2.981702e+06  -2.579550e+07
   1.804445e+07  -1.277593e+07
   1.240491e+07   2.132445e+06
  -9.767352e+05   6.634627e+06
  -7.154877e+06   9.685257e+05
  -3.583994e+06  -6.461239e+06
   3.148677e+06  -8.168908e+06
   6.853685e+06  -2.838098e+06
   5.539442e+06   4.524594e+06
   8.034845e+05   6.870513e+06
  -3.172154e+06   1.897473e+06
  -2.452905e+06  -4.941569e+06
   2.337722e+06  -5.966420e+06
   5.890374e+06   1.689191e+05
   3.920427e+06   7.273810e+06
  -2.148082e+06   8.865469e+06
  -7.172632e+06   4.443124e+06
  -7.637496e+06  -1.673768e+06
  -4.152336e+06  -5.339505e+06
  -7.519272e+04  -5.398903e+06
   1.321495e+06  -3.440426e+06
  -4.112530e+05  -2.174551e+06
  -2.043221e+06  -3.033165e+06
   1.405044e+05  -4.463437e+06
   5.386533e+06  -3.538214e+06
   8.358391e+06   1.821413e+05
   5.384730e+06   3.652815e+06
  -7.083100e+05   3.925684e+06
  -3.904986e+06   1.435052e+06
  -2.019749e+06  -1.112597e+06
   1.720255e+06  -1.765374e+06
   3.378833e+06  -2.913042e+05
   2.199225e+06   2.329470e+06
  -1.384257e+05   4.012920e+06
  -1.816705e+06   2.690095e+06
  -1.826122e+06  -8.725162e+05
  -4.043964e+05  -2.712708e+06
   6.994384e+05  -3.969519e+05
  -1.877727e+05   2.965662e+06
  -2.139826e+06   2.319804e+06
  -2.147156e+06  -2.090933e+06
   9.023126e+05  -4.422000e+06
   4.068025e+06  -1.028000e+06
   3.516063e+06   4.475935e+06
  -8.803912e+05   5.859615e+06
  -5.281551e+06   1.859458e+06
  -5.856528e+06  -3.161111e+06
  -2.216447e+06  -4.834463e+06
   2.606021e+06  -2.751660e+06
   4.759609e+06   5.820985e+05
   2.679421e+06   2.525202e+06
  -1.423794e+06   1.929138e+06
  -3.475683e+06  -2.929454e+05
  -1.759961e+06  -1.799926e+06
   1.170138e+06  -1.094985e+06
   1.677721e+06   6.755003e+05
  -4.304452e+05   1.113017e+06
  -1.918776e+06  -3.450300e+05
  -4.802473e+05  -1.853063e+06
   2.473196e+06  -1.633959e+06
   3.782349e+06   2.305870e+05
   2.043447e+06   2.563220e+06
  -1.491836e+06   4.199153e+06
  -4.489822e+06   3.971588e+06
  -5.216740e+06   1.201608e+06
  -3.446803e+06  -2.825176e+06
  -6.491345e+05  -5.142433e+06
   1.086603e+06  -4.167331e+06
   1.029921e+06  -1.700366e+06
   4.784572e+05  -6.138549e+05
   9.750569e+05  -1.185476e+06
   2.293211e+06  -1.203000e+06
   2.834185e+06   5.421237e+05
   1.679613e+06   2.477893e+06
  -4.423811e+05   2.380731e+06
  -2.002206e+06   1.313453e+05
  -1.853859e+06  -2.291891e+06
   1.045553e+05  -2.898240e+06
   2.641410e+06  -1.274974e+06
   3.742646e+06   1.354192e+06
   2.385778e+06   3.159266e+06
  -1.564636e+05   3.138312e+06
  -1.618189e+06   1.924368e+06
  -1.465345e+06   9.837951e+05
  -1.376065e+06   8.915340e+05
  -2.637839e+06   7.709495e+05
  -4.066431e+06  -4.040575e+05
  -3.404476e+06  -2.408947e+06
  -2.985390e+05  -3.941330e+06
   3.042360e+06  -3.839004e+06
   4.123799e+06  -1.960786e+06
   2.519700e+06   6.551125e+05
  -1.300909e+04   2.275839e+06
  -1.282196e+06   1.757395e+06
  -5.151680e+05  -1.404072e+05
   1.118203e+06  -1.242013e+06
   1.746008e+06  -3.866892e+05
   7.551268e+05   1.090970e+06
  -5.775270e+05   1.106290e+06
  -6.237615e+05  -3.133636e+05
   6.660022e+05  -9.990209e+05
   1.766349e+06   4.521975e+05
   1.330050e+06   2.785061e+06
  -5.369184e+05   3.586383e+06
  -2.614405e+06   1.974610e+06
  -3.594684e+06  -7.534915e+05
  -2.813701e+06  -2.656768e+06
  -6.986085e+05  -2.761010e+06
   1.256038e+06  -1.503785e+06
   1.601777e+06  -2.014789e+05
   4.821918e+05   3.028554e+04
  -3.791371e+05  -7.130957e+05
   2.897253e+05  -1.227018e+06
   1.680593e+06  -5.983283e+05
   1.917904e+06   6.624518e+05
   4.832103e+05   1.246764e+06
  -1.080008e+06   6.343094e+05
  -9.984923e+05  -3.908990e+05
   7.090646e+05  -7.285646e+05
   2.287517e+06  -1.983422e+04
   2.053247e+06   1.235852e+06
  -4.827454e+03   2.125693e+06
  -2.217772e+06   1.856950e+06
  -2.728157e+06   4.108190e+05
  -1.205368e+06  -1.123148e+06
   8.030335e+05  -1.370726e+06
   1.377696e+06  -1.934828e+05
   1.487961e+05   9.775845e+05
  -1.428621e+06   7.359661e+05
  -1.707247e+06  -6.393730e+05
  -5.053752e+05  -1.574857e+06
   9.192754e+05  -1.105773e+06
   1.261650e+06   1.069597e+05
   3.736936e+05   6.944519e+05
  -7.008058e+05   9.679652e+04
  -7.186597e+05  -9.874615e+05
   5.529297e+05  -1.388888e+06
   1.959281e+06  -5.483520e+05
   1.997643e+06   9.861985e+05
   4.368930e+05   1.991448e+06
  -1.304289e+06   1.643091e+06
  -1.652434e+06   3.088796e+05
  -5.665376e+05  -7.994827e+05
   5.867368e+05  -8.362886e+05
   6.884685e+05  -9.257536e+04
  -3.449986e+04   4.815895e+05
  -5.685273e+05   3.623556e+05
  -3.357201e+05  -7.981736e+04
   3.189596e+05  -1.147185e+05
   5.821519e+05   4.864895e+05
  -5.733423e+04   1.134468e+06
  -1.279953e+06   9.495031e+05
  -2.047742e+06  -3.147999e+05
  -1.489792e+06  -1.845312e+06
   1.327551e+05  -2.407467e+06
   1.545976e+06  -1.535711e+06
   1.752528e+06  -1.560706e+04
   1.025120e+06   9.279271e+05
   3.973394e+05   8.455920e+05
   3.712637e+05   3.450154e+05
   4.832803e+05   2.456208e+05
   8.916178e+04   6.567844e+05
  -7.803732e+05   9.366194e+05
  -1.431958e+06   4.479247e+05
  -1.162231e+06  -6.893075e+05
   1.173787e+05  -1.554053e+06
   1.660703e+06  -1.199005e+06
   2.270925e+06   3.704912e+05
   1.251335e+06   1.995909e+06
  -8.059984e+05   2.340351e+06
  -2.374712e+06   1.168586e+06
  -2.375170e+06  -4.478529e+05
  -1.145165e+06  -1.264195e+06
   7.179707e+04  -1.067091e+06
   4.528585e+05  -6.498481e+05
   2.318483e+05  -7.405147e+05
   1.555019e+05  -1.183142e+06
   5.922916e+05  -1.201274e+06
   1.205628e+06  -3.229935e+05
   1.322992e+06   1.032097e+06
   5.934366e+05   1.852461e+06
  -5.818399e+05   1.433756e+06
  -1.273708e+06   6.267395e+04
  -8.672413e+05  -1.179992e+06
   2.533685e+05  -1.368954e+06
   1.022003e+06  -5.303933e+05
   7.955834e+05   5.030969e+05
   1.557026e+04   9.648869e+05
  -3.637189e+05   7.944053e+05
  -1.034878e+04   4.623861e+05
   4.138815e+05   3.476520e+05
   5.615324e+04   3.885510e+05
  -1.072848e+06   2.586440e+05
  -1.969779e+06  -2.356388e+05
  -1.618400e+06  -9.194131e+05
  -8.767166e+04  -1.341642e+06
   1.428554e+06  -1.136403e+06
   1.750437e+06  -3.904618e+05
   8.576988e+05   3.446376e+05
  -1.974291e+05   5.120168e+05
  -4.682491e+05   9.344564e+04
  -5.102484e+03  -3.483660e+05
   4.638742e+05  -2.509099e+05
   4.709809e+05   3.239179e+05
   1.921045e+05   7.323578e+05
   3.311058e+04   4.794543e+05
   1.369422e+05  -1.550841e+05
   3.236446e+05  -3.718331e+05
   2.946783e+05   2.093356e+05
  -1.450979e+05   1.006853e+06
  -8.485735e+05   1.062802e+06
  -1.244480e+06   1.548659e+05
  -7.730898e+05  -8.836193e+05
   3.786306e+05  -1.059084e+06
   1.178722e+06  -2.898924e+05
   7.297270e+05   5.680226e+05
  -6.487524e+05   6.756482e+05
  -1.600402e+06   4.091351e+03
  -1.124626e+06  -7.894110e+05
   3.618060e+05  -1.051693e+06
   1.476426e+06  -6.349041e+05
   1.291231e+06   8.445722e+04
   1.916212e+05   5.192640e+05
  -6.206617e+05   3.237254e+05
  -3.614498e+05  -2.556721e+05
   6.012165e+05  -4.990484e+05
   1.168314e+06   1.019533e+05
   6.317864e+05   1.181760e+06
  -6.155991e+05   1.678189e+06
  -1.484471e+06   8.721228e+05
  -1.265178e+06  -7.420032e+05
  -2.454721e+05  -1.789645e+06
   6.945136e+05  -1.347951e+06
   9.353931e+05   9.902181e+04
   5.139618e+05   1.161395e+06
  -1.240325e+05   1.001357e+06
  -5.360001e+05   1.261447e+05
  -5.211468e+05  -3.686862e+05
  -2.178391e+05  -1.445148e+05
  -2.518036e+04   1.103045e+05
  -2.133542e+05  -2.559134e+05
  -5.082377e+05  -9.323832e+05
  -2.832903e+05  -1.073575e+06
   6.292816e+05  -4.206730e+05
   1.491236e+06   4.186044e+05
   1.354988e+06   7.890608e+05
   2.115527e+05   6.767346e+05
  -8.845067e+05   4.408983e+05
  -9.901849e+05   2.309804e+05
  -3.178746e+05  -1.596947e+04
   1.570397e+05  -2.248075e+05
  -2.885982e+04  -2.288144e+05
  -3.281431e+05  -1.140156e+05
  -3.147139e+04  -1.366288e+05
   7.159354e+05  -2.355610e+05
   1.034437e+06   1.117864e+03
   3.625456e+05   6.728066e+05
  -8.621101e+05   1.161911e+06
  -1.632275e+06   7.514185e+05
  -1.344759e+06  -4.287015e+05
  -2.890393e+05  -1.401116e+06
   7.116166e+05  -1.366854e+06
   1.030278e+06  -5.241947e+05
   6.680907e+05   2.441760e+05
   1.182287e+05   3.536862e+05
  -1.190340e+05   3.890908e+04
   5.927129e+04  -5.504710e+04
   3.327500e+05   3.386446e+05
   2.889111e+05   7.944611e+05
  -1.724724e+05   6.685916e+05
  -6.934718e+05  -1.378026e+05
  -7.300969e+05  -9.635789e+05
  -8.354878e+04  -1.020265e+06
   7.765709e+05  -2.187881e+05
   1.033787e+06   7.357876e+05
   3.410892e+05   1.072789e+06
  -7.016701e+05   6.548886e+05
  -1.089098e+06  -6.146219e+04
  -5.124201e+05  -5.624811e+05
   2.677053e+05  -6.352295e+05
   3.271965e+05  -3.610369e+05
  -2.921002e+05  -1.605865e+04
  -6.564993e+05   4.985374e+04
  -1.374369e+05  -2.945970e+05
   8.014789e+05  -7.018761e+05
   1.195202e+06  -5.997375e+05
   7.138928e+05   1.248327e+05
  -7.852770e+04   8.481833e+05
  -4.884959e+05   8.429215e+05
  -3.768575e+05   1.360188e+05
  -4.402071e+04  -4.946215e+05
   2.365266e+05  -4.153966e+05
   3.593577e+05   1.758314e+05
   2.612814e+05   5.687362e+05
  -5.493598e+04   3.906396e+05
  -3.891744e+05  -5.159163e+04
  -4.633586e+05  -2.401195e+05
  -2.407151e+05  -6.489747e+04
   1.548357e+04   1.191726e+05
   7.709848e+04  -2.274568e+04
   3.119361e+04  -3.806412e+05
   1.161302e+05  -5.112625e+05
   3.419043e+05  -1.560923e+05
   4.170398e+05   4.156882e+05
   1.038673e+05   6.513536e+05
  -4.187463e+05   3.054361e+05
  -6.433868e+05  -2.884420e+05
  -2.484324e+05  -5.804273e+05
   4.834381e+05  -3.693688e+05
   8.570761e+05   7.171585e+04
   4.740250e+05   3.647407e+05
  -2.840682e+05   3.760417e+05
  -6.214959e+05   2.064285e+05
  -2.185142e+05   1.582233e+04
   3.870130e+05  -4.947724e+04
   4.267309e+05   9.426084e+04
  -1.916674e+05   3.221755e+05
  -7.877965e+05   2.921857e+05
