
 $NMID
 id='ANONYMOUS ', fmtdat='(2E16.6)'
 volume=1.0
 tramp=1.0
 $END
   4.180895e+07   1.601406e+06
   2.457132e+07   2.524418e+07
  -5.365239e+06   2.742718e+07
  -2.003915e+07   1.161094e+07
  -1.246341e+07  -3.867723e+06
   1.869403e+06  -6.840916e+06
   7.357970e+06  -7.193977e+03
   2.825286e+06   7.018518e+06
  -4.028543e+06   7.774345e+06
  -7.235095e+06   2.140512e+06
  -5.452120e+06  -4.934593e+06
  -5.341243e+05  -6.993070e+06
   3.321309e+06  -1.926842e+06
   2.264353e+06   4.855002e+06
  -2.734327e+06   5.657633e+06
  -6.026539e+06  -7.206943e+05
  -3.519769e+06  -7.785893e+06
   2.840376e+06  -9.035841e+06
   7.772372e+06  -4.274825e+06
   8.046805e+06   2.041178e+06
   4.371304e+06   5.891756e+06
  -8.003332e+04   6.056469e+06
  -1.941408e+06   3.843514e+06
  -3.208038e+05   2.036432e+06
   1.685378e+06   2.577343e+06
  -6.457566e+04   4.159918e+06
  -5.204145e+06   3.503037e+06
  -8.307219e+06  -1.970226e+05
  -5.467088e+06  -3.784241e+06
   5.367955e+05  -4.092389e+06
   3.741608e+06  -1.638156e+06
   2.106006e+06   7.958674e+05
  -1.275992e+06   1.496168e+06
  -2.904339e+06   3.637813e+05
  -2.109049e+06  -1.985920e+06
  -4.609154e+04  -3.832832e+06
   1.842614e+06  -2.841504e+06
   2.165977e+06   7.436135e+05
   6.403527e+05   2.925603e+06
  -8.013178e+05   7.858157e+05
   3.431505e+04  -2.696513e+06
   2.144130e+06  -2.130830e+06
   2.001372e+06   2.338093e+06
  -1.467289e+06   4.528203e+06
  -4.658532e+06   6.946465e+05
  -3.520821e+06  -5.078949e+06
   1.401374e+06  -6.186100e+06
   5.653518e+06  -1.674630e+06
   5.693885e+06   3.511644e+06
   1.829706e+06   4.906251e+06
  -2.743208e+06   2.487320e+06
  -4.559380e+06  -9.206925e+05
  -2.353959e+06  -2.679377e+06
   1.670202e+06  -1.808650e+06
   3.528969e+06   5.796678e+05
   1.624899e+06   2.000315e+06
  -1.293887e+06   1.056988e+06
  -1.569136e+06  -7.662600e+05
   6.555213e+05  -9.288913e+05
   1.861875e+06   7.855903e+05
   8.558796e+03   2.119675e+06
  -2.978211e+06   1.423971e+06
  -3.910578e+06  -6.999037e+05
  -1.863971e+06  -2.866472e+06
   1.640844e+06  -4.217406e+06
   4.513848e+06  -3.886643e+06
   5.260530e+06  -1.134134e+06
   3.505323e+06   2.899604e+06
   5.409854e+05   5.180143e+06
  -1.352438e+06   4.035130e+06
  -1.172026e+06   1.404502e+06
  -3.136381e+05   3.525168e+05
  -6.450166e+05   1.119651e+06
  -2.035310e+06   1.316498e+06
  -2.723062e+06  -3.346822e+05
  -1.690432e+06  -2.242041e+06
   3.050172e+05  -2.216538e+06
   1.777629e+06  -1.501471e+05
   1.688460e+06   2.123252e+06
  -1.145260e+05   2.760287e+06
  -2.581624e+06   1.263927e+06
  -3.735445e+06  -1.346344e+06
  -2.396727e+06  -3.254668e+06
   2.441349e+05  -3.278917e+06
   1.803370e+06  -1.967055e+06
   1.627499e+06  -8.926841e+05
   1.427981e+06  -7.289121e+05
   2.570724e+06  -5.835545e+05
   3.893019e+06   5.678555e+05
   3.179461e+06   2.440248e+06
   1.591606e+05   3.774668e+06
  -2.991039e+06   3.590151e+06
  -3.961270e+06   1.832476e+06
  -2.432601e+06  -6.035280e+05
  -3.736092e+04  -2.165147e+06
   1.204280e+06  -1.709263e+06
   5.089886e+05   1.139088e+05
  -1.074081e+06   1.181115e+06
  -1.707004e+06   3.319722e+05
  -7.383305e+05  -1.090178e+06
   5.473776e+05  -1.048088e+06
   5.257386e+05   3.114812e+05
  -7.355108e+05   8.200693e+05
  -1.626661e+06  -6.985007e+05
  -9.674177e+05  -2.804942e+06
   8.517567e+05  -3.257889e+06
   2.591039e+06  -1.542626e+06
   3.257493e+06   9.473263e+05
   2.459897e+06   2.550439e+06
   5.583184e+05   2.564063e+06
  -1.207047e+06   1.393552e+06
  -1.516609e+06   1.743727e+05
  -4.586848e+05  -4.213635e+04
   3.392074e+05   6.909090e+05
  -3.378649e+05   1.181465e+06
  -1.665908e+06   5.177046e+05
  -1.823980e+06  -7.317728e+05
  -3.982000e+05  -1.231093e+06
   1.054016e+06  -5.597381e+05
   9.030012e+05   3.946686e+05
  -7.065782e+05   6.054697e+05
  -2.107856e+06  -1.095387e+05
  -1.824509e+06  -1.214597e+06
   9.812666e+04  -1.948718e+06
   2.141787e+06  -1.656802e+06
   2.594857e+06  -3.012967e+05
   1.117316e+06   1.127041e+06
  -8.273365e+05   1.316562e+06
  -1.362971e+06   1.465241e+05
  -1.337643e+05  -9.634822e+05
   1.391485e+06  -6.686252e+05
   1.600242e+06   6.760551e+05
   3.983723e+05   1.510735e+06
  -9.297091e+05   9.821118e+05
  -1.176927e+06  -1.812503e+05
  -2.994749e+05  -6.794563e+05
   6.891493e+05  -6.103044e+04
   6.646538e+05   9.669434e+05
  -5.554228e+05   1.314851e+06
  -1.878902e+06   4.823098e+05
  -1.883496e+06  -9.888420e+05
  -3.596269e+05  -1.915407e+06
   1.303670e+06  -1.525901e+06
   1.586563e+06  -2.308806e+05
   5.006401e+05   7.828903e+05
  -5.877415e+05   7.686019e+05
  -6.366681e+05   7.776202e+04
   5.442371e+04  -4.116880e+05
   5.074768e+05  -2.944110e+05
   2.534632e+05   5.824642e+04
  -3.266041e+05   3.416628e+04
  -5.079373e+05  -5.213022e+05
   1.228482e+05  -1.076985e+06
   1.254762e+06  -8.534564e+05
   1.937192e+06   3.644889e+05
   1.366306e+06   1.800577e+06
  -1.911874e+05   2.277198e+06
  -1.501014e+06   1.388324e+06
  -1.631204e+06  -5.107381e+04
  -9.093448e+05  -8.736784e+05
  -3.550169e+05  -7.442315e+05
  -3.880489e+05  -3.048173e+05
  -4.906056e+05  -2.731524e+05
  -6.419402e+04  -6.561325e+05
   7.814848e+05  -8.552409e+05
   1.358639e+06  -3.612917e+05
   1.052360e+06   6.734503e+05
  -1.694737e+05   1.430780e+06
  -1.601063e+06   1.065063e+06
  -2.129317e+06  -4.203544e+05
  -1.109409e+06  -1.932936e+06
   8.647921e+05  -2.195238e+06
   2.308306e+06  -1.013905e+06
   2.219068e+06   5.241923e+05
   1.002184e+06   1.223151e+06
  -1.152117e+05   9.624957e+05
  -4.088707e+05   5.721043e+05
  -1.867622e+05   7.150933e+05
  -1.613435e+05   1.160820e+06
  -6.116602e+05   1.148954e+06
  -1.174139e+06   2.781499e+05
  -1.238032e+06  -1.015184e+06
  -5.185741e+05  -1.775000e+06
   5.865297e+05  -1.347642e+06
   1.206298e+06  -1.882173e+04
   7.777601e+05   1.158588e+06
  -3.056282e+05   1.289926e+06
  -1.008656e+06   4.367395e+05
  -7.337627e+05  -5.493562e+05
   5.205820e+04  -9.360259e+05
   4.082209e+05  -7.283975e+05
   3.553244e+04  -4.178751e+05
  -3.935079e+05  -3.346531e+05
  -4.822039e+04  -3.680685e+05
   1.039867e+06  -2.062964e+05
   1.882927e+06   2.926022e+05
   1.508735e+06   9.326380e+05
   1.583206e+04   1.290069e+06
  -1.421087e+06   1.041708e+06
  -1.680357e+06   3.013040e+05
  -7.872845e+05  -3.833241e+05
   2.197192e+05  -4.938783e+05
   4.532919e+05  -5.902247e+04
   2.164735e+02   3.550329e+05
  -4.386174e+05   2.348348e+05
  -4.433493e+05  -3.213146e+05
  -1.903614e+05  -7.004096e+05
  -4.340962e+04  -4.609157e+05
  -1.270836e+05   1.260212e+05
  -2.914736e+05   3.266310e+05
  -2.672571e+05  -2.085233e+05
   1.506856e+05  -9.459763e+05
   8.367817e+05  -9.904209e+05
   1.220277e+06  -1.231009e+05
   7.411692e+05   8.664663e+05
  -3.939459e+05   1.020108e+06
  -1.151401e+06   2.645520e+05
  -6.843271e+05  -5.517771e+05
   6.399919e+05  -6.172727e+05
   1.504637e+06   5.131468e+04
   1.009590e+06   7.782363e+05
  -3.924190e+05   9.602685e+05
  -1.402121e+06   5.274284e+05
  -1.194305e+06  -1.283253e+05
  -1.559075e+05  -4.881848e+05
   5.974227e+05  -2.774340e+05
   3.427366e+05   2.622741e+05
  -5.743298e+05   4.738798e+05
  -1.113844e+06  -1.076926e+05
  -5.961011e+05  -1.133838e+06
   6.013421e+05  -1.594910e+06
   1.422238e+06  -8.119063e+05
   1.186056e+06   7.261143e+05
   1.934572e+05   1.698507e+06
  -6.881430e+05   1.246782e+06
  -8.748839e+05  -1.325132e+05
  -4.399825e+05  -1.111196e+06
   1.611197e+05  -9.272702e+05
   5.148399e+05  -9.490901e+04
   4.693657e+05   3.542001e+05
   1.865768e+05   1.317105e+05
   3.200414e+04  -9.670532e+04
   2.181431e+05   2.667084e+05
   4.668506e+05   9.039741e+05
   2.214618e+05   1.014686e+06
  -6.303870e+05   3.725719e+05
  -1.399377e+06  -4.319296e+05
  -1.243971e+06  -7.759250e+05
  -1.798767e+05  -6.501960e+05
   8.319313e+05  -4.028778e+05
   9.355193e+05  -1.894582e+05
   3.130869e+05   3.770906e+04
  -1.478408e+05   2.132660e+05
   3.331529e+03   2.016206e+05
   2.888399e+05   9.769141e+04
   3.571589e+04   1.309091e+05
  -6.625258e+05   2.216348e+05
  -9.860303e+05  -1.853679e+04
  -3.608868e+05  -6.590673e+05
   8.265861e+05  -1.102496e+06
   1.585910e+06  -6.891063e+05
   1.298138e+06   4.316535e+05
   2.528350e+05   1.334904e+06
  -7.141315e+05   1.287366e+06
  -9.939912e+05   4.896720e+05
  -6.285491e+05  -2.331482e+05
  -1.139600e+05  -3.410247e+05
   9.778680e+04  -5.245597e+04
  -6.080435e+04   3.383970e+04
  -2.960761e+05  -3.328959e+05
  -2.477034e+05  -7.582676e+05
   1.748737e+05  -6.369885e+05
   6.548630e+05   1.296051e+05
   6.895329e+05   9.193869e+05
   8.111525e+04   9.794460e+05
  -7.345006e+05   2.155412e+05
  -9.782535e+05  -7.032739e+05
  -3.148622e+05  -1.031077e+06
   6.810600e+05  -6.237964e+05
   1.045256e+06   7.816362e+04
   4.830694e+05   5.627994e+05
  -2.741944e+05   6.165260e+05
  -3.369553e+05   3.360436e+05
   2.599091e+05   9.251845e+03
   6.203027e+05  -3.767280e+04
   1.299272e+05   2.882592e+05
  -7.756262e+05   6.468549e+05
  -1.160941e+06   5.252922e+05
  -6.909100e+05  -1.540168e+05
   9.285968e+04  -8.122733e+05
   5.009755e+05  -7.939429e+05
   3.837786e+05  -1.302423e+05
   4.363633e+04   4.654716e+05
  -2.325023e+05   4.010501e+05
  -3.409927e+05  -1.571062e+05
  -2.392245e+05  -5.458299e+05
   5.969906e+04  -3.870653e+05
   3.714035e+05   4.963282e+04
   4.382955e+05   2.514894e+05
   2.247910e+05   7.767178e+04
  -1.759214e+04  -1.293972e+05
  -6.685337e+04  -8.368078e+03
  -1.040888e+04   3.559130e+05
  -9.132355e+04   5.113286e+05
  -3.251601e+05   1.760091e+05
  -4.162957e+05  -3.886107e+05
  -1.171195e+05  -6.261568e+05
   3.974356e+05  -2.926025e+05
   6.201582e+05   2.785041e+05
   2.350336e+05   5.517595e+05
  -4.728562e+05   3.423816e+05
  -8.254487e+05  -8.024778e+04
  -4.484608e+05  -3.570933e+05
   2.808653e+05  -3.649054e+05
   6.037145e+05  -1.987388e+05
   2.226582e+05  -9.940692e+03
  -3.529631e+05   5.847264e+04
  -4.010923e+05  -7.641621e+04
   1.697023e+05  -2.945687e+05
   7.286767e+05  -2.692165e+05
