
 $NMID
 id='ANONYMOUS ', fmtdat='(2E16.6)'
 volume=1.0
 tramp=1.0
 $END
  -3.108803e+07  -1.184134e+06
  -1.871356e+07  -1.775076e+07
   3.100456e+06  -2.009302e+07
   1.449315e+07  -9.726703e+06
   9.738152e+06   1.733515e+06
  -8.269347e+05   5.184311e+06
  -5.655490e+06   7.850918e+05
  -2.819932e+06  -5.117760e+06
   2.543817e+06  -6.537603e+06
   5.484967e+06  -2.205707e+06
   4.331862e+06   3.801318e+06
   4.537754e+05   5.605624e+06
  -2.655914e+06   1.410205e+06
  -1.917851e+06  -4.143179e+06
   1.960499e+06  -4.826730e+06
   4.676774e+06   2.324391e+05
   2.944598e+06   5.898196e+06
  -1.956368e+06   7.004454e+06
  -5.870296e+06   3.282636e+06
  -6.017131e+06  -1.669677e+06
  -3.015127e+06  -4.446860e+06
   2.531742e+05  -4.216675e+06
   1.130130e+06  -2.523926e+06
  -4.953665e+05  -1.687428e+06
  -1.763420e+06  -2.631346e+06
   2.451768e+05  -3.770497e+06
   4.611579e+06  -2.752783e+06
   6.883154e+06   4.529164e+05
   4.245997e+06   3.191337e+06
  -8.116259e+05   3.199951e+06
  -3.360224e+06   1.018801e+06
  -1.667688e+06  -1.101196e+06
   1.554903e+06  -1.566367e+06
   2.951252e+06  -1.899861e+05
   1.821088e+06   2.096188e+06
  -2.932844e+05   3.402963e+06
  -1.636166e+06   2.093704e+06
  -1.403241e+06  -9.084027e+05
  -1.126902e+05  -2.240213e+06
   6.456850e+05  -1.600436e+05
  -2.568091e+05   2.547217e+06
  -1.809663e+06   1.878268e+06
  -1.678763e+06  -1.699472e+06
   7.623894e+05  -3.445906e+06
   3.131577e+06  -6.588611e+05
   2.583729e+06   3.631850e+06
  -8.639666e+05   4.565150e+06
  -4.259233e+06   1.295838e+06
  -4.662500e+06  -2.683482e+06
  -1.734904e+06  -3.955190e+06
   2.151090e+06  -2.215788e+06
   3.881256e+06   5.155208e+05
   2.175988e+06   2.070451e+06
  -1.142704e+06   1.526256e+06
  -2.774269e+06  -2.950847e+05
  -1.384014e+06  -1.463582e+06
   9.561362e+05  -8.470258e+05
   1.371994e+06   5.690867e+05
  -2.839402e+05   9.109775e+05
  -1.488606e+06  -2.079588e+05
  -4.147868e+05  -1.358376e+06
   1.895326e+06  -1.200495e+06
   2.961067e+06   2.255969e+05
   1.566775e+06   2.058717e+06
  -1.357103e+06   3.354634e+06
  -3.829387e+06   3.105347e+06
  -4.311814e+06   7.893670e+05
  -2.688897e+06  -2.453132e+06
  -3.548624e+05  -4.224706e+06
   9.516895e+05  -3.371749e+06
   8.135113e+05  -1.417698e+06
   4.169683e+05  -5.966823e+05
   9.338803e+05  -1.022866e+06
   2.030843e+06  -9.200008e+05
   2.386075e+06   5.923873e+05
   1.336230e+06   2.175576e+06
  -4.580417e+05   2.023788e+06
  -1.724499e+06   7.890433e+04
  -1.526847e+06  -1.970076e+06
   1.629274e+05  -2.421856e+06
   2.238986e+06  -9.646662e+05
   3.031132e+06   1.262365e+06
   1.813576e+06   2.669592e+06
  -2.596578e+05   2.515434e+06
  -1.364008e+06   1.463619e+06
  -1.177467e+06   7.396876e+05
  -1.115472e+06   7.142458e+05
  -2.176605e+06   6.002094e+05
  -3.341783e+06  -4.061768e+05
  -2.764548e+06  -2.057019e+06
  -1.696685e+05  -3.271698e+06
   2.612861e+06  -3.122242e+06
   3.490198e+06  -1.525256e+06
   2.086937e+06   6.324104e+05
  -8.856598e+04   1.916446e+06
  -1.137133e+06   1.431132e+06
  -4.294186e+05  -1.389939e+05
   9.653215e+05  -1.008038e+06
   1.451735e+06  -2.796876e+05
   5.875022e+05   9.229367e+05
  -5.118785e+05   9.171462e+05
  -5.326596e+05  -2.555721e+05
   5.211287e+05  -8.344812e+05
   1.418536e+06   3.318828e+05
   1.089211e+06   2.254281e+06
  -4.129244e+05   2.958719e+06
  -2.138246e+06   1.657129e+06
  -2.986477e+06  -6.297822e+05
  -2.341185e+06  -2.251548e+06
  -5.519163e+05  -2.327085e+06
   1.084155e+06  -1.231176e+06
   1.347257e+06  -1.297111e+05
   4.010606e+05   3.566739e+04
  -3.019249e+05  -5.976961e+05
   2.589737e+05  -1.000423e+06
   1.390527e+06  -4.563227e+05
   1.566481e+06   5.744041e+05
   3.829709e+05   1.029146e+06
  -8.998949e+05   5.111801e+05
  -8.337468e+05  -3.327285e+05
   5.811927e+05  -6.055821e+05
   1.903288e+06  -5.642490e+03
   1.712424e+06   1.050493e+06
  -1.883941e+04   1.779269e+06
  -1.874373e+06   1.517671e+06
  -2.276881e+06   2.942976e+05
  -9.753678e+05  -9.506455e+05
   6.936397e+05  -1.108844e+06
   1.135994e+06  -1.247680e+05
   9.442839e+04   8.103978e+05
  -1.198448e+06   5.796597e+05
  -1.404215e+06  -5.559073e+05
  -4.032935e+05  -1.310751e+06
   7.666696e+05  -9.112802e+05
   1.043465e+06   9.230448e+04
   3.099949e+05   5.717220e+05
  -5.708450e+05   6.687141e+04
  -5.707151e+05  -8.304492e+05
   4.909484e+05  -1.138338e+06
   1.639743e+06  -4.101775e+05
   1.636515e+06   8.629274e+05
   3.216518e+05   1.660373e+06
  -1.111174e+06   1.336660e+06
  -1.375725e+06   2.289044e+05
  -4.618759e+05  -6.700275e+05
   4.973017e+05  -6.872638e+05
   5.826912e+05  -6.873929e+04
  -2.238267e+04   4.086370e+05
  -4.814761e+05   3.097486e+05
  -3.012332e+05  -6.438757e+04
   2.449500e+05  -1.013413e+05
   4.711354e+05   3.967728e+05
  -6.144330e+04   9.315427e+05
  -1.076140e+06   7.624845e+05
  -1.692229e+06  -3.010638e+05
  -1.198103e+06  -1.562301e+06
   1.580648e+05  -2.001564e+06
   1.313139e+06  -1.257850e+06
   1.465050e+06   8.812843e+03
   8.556987e+05   7.960660e+05
   3.302619e+05   7.355257e+05
   2.948840e+05   3.171445e+05
   3.764659e+05   2.158746e+05
   5.152811e+04   5.379359e+05
  -6.623351e+05   7.613836e+05
  -1.197627e+06   3.508541e+05
  -9.630579e+05  -5.951619e+05
   1.165005e+05  -1.298021e+06
   1.401103e+06  -9.715382e+05
   1.883135e+06   3.488970e+05
   1.006458e+06   1.676654e+06
  -7.039991e+05   1.921398e+06
  -1.982905e+06   9.284964e+05
  -1.965597e+06  -4.027259e+05
  -9.460185e+05  -1.064202e+06
   6.287775e+04  -8.971433e+05
   3.941471e+05  -5.514370e+05
   2.297923e+05  -6.188418e+05
   1.697979e+05  -9.724994e+05
   5.177226e+05  -9.753693e+05
   1.003559e+06  -2.377945e+05
   1.076382e+06   8.876100e+05
   4.546386e+05   1.553648e+06
  -5.143862e+05   1.181312e+06
  -1.060039e+06   3.034384e+04
  -6.979454e+05  -9.898597e+05
   2.282691e+05  -1.126918e+06
   8.422101e+05  -4.270622e+05
   6.404609e+05   4.159046e+05
   1.507647e+03   7.853231e+05
  -3.003149e+05   6.472408e+05
  -7.722921e+03   3.880718e+05
   3.351068e+05   3.034189e+05
   3.656732e+04   3.268362e+05
  -8.903445e+05   1.916957e+05
  -1.622072e+06  -2.373563e+05
  -1.323280e+06  -7.914257e+05
  -5.254953e+04  -1.103547e+06
   1.199654e+06  -9.060124e+05
   1.455164e+06  -2.949501e+05
   7.035016e+05   2.877459e+05
  -1.723114e+05   4.122987e+05
  -3.847143e+05   7.176673e+04
   1.211113e+04  -2.838083e+05
   3.977906e+05  -1.985577e+05
   3.835819e+05   2.809779e+05
   1.349879e+05   6.216851e+05
   7.971192e+03   4.051122e+05
   1.151590e+05  -1.334972e+05
   2.801720e+05  -3.146343e+05
   2.406556e+05   1.782150e+05
  -1.462066e+05   8.394622e+05
  -7.278791e+05   8.625755e+05
  -1.027995e+06   8.921657e+04
  -6.115942e+05  -7.571847e+05
   3.418815e+05  -8.625147e+05
   9.841681e+05  -2.023153e+05
   5.950033e+05   4.923303e+05
  -5.502061e+05   5.494078e+05
  -1.333561e+06  -2.180484e+04
  -9.319300e+05  -6.706795e+05
   3.084379e+05  -8.713381e+05
   1.237230e+06  -5.140512e+05
   1.078309e+06   8.431545e+04
   1.555807e+05   4.358381e+05
  -5.190153e+05   2.614034e+05
  -2.903482e+05  -2.179468e+05
   5.178178e+05  -3.996409e+05
   9.725438e+05   1.177146e+05
   4.930554e+05   1.005503e+06
  -5.615094e+05   1.385304e+06
  -1.263674e+06   6.898929e+05
  -1.039387e+06  -6.493108e+05
  -1.662486e+05  -1.499185e+06
   6.043252e+05  -1.114033e+06
   7.757252e+05   9.427968e+04
   4.105477e+05   9.734856e+05
  -1.122350e+05   8.320129e+05
  -4.440145e+05   9.646817e+04
  -4.337013e+05  -3.160647e+05
  -1.870771e+05  -1.234692e+05
  -1.928627e+04   9.253976e+04
  -1.592124e+05  -2.173737e+05
  -3.990710e+05  -7.868707e+05
  -2.238499e+05  -8.977281e+05
   5.217376e+05  -3.342745e+05
   1.235466e+06   3.793931e+05
   1.121018e+06   6.816783e+05
   1.620674e+05   5.658988e+05
  -7.542900e+05   3.513263e+05
  -8.312632e+05   1.757890e+05
  -2.559743e+05  -1.859697e+04
   1.389357e+05  -1.848227e+05
  -3.001047e+04  -1.917163e+05
  -2.825171e+05  -1.025153e+05
  -1.968367e+04  -1.164777e+05
   6.133355e+05  -1.817359e+05
   8.617880e+05   2.692189e+04
   2.726009e+05   5.734990e+05
  -7.555720e+05   9.477860e+05
  -1.373553e+06   5.800068e+05
  -1.101822e+06  -3.981339e+05
  -2.066498e+05  -1.177322e+06
   6.223145e+05  -1.118406e+06
   8.727311e+05  -4.070361e+05
   5.547724e+05   2.228251e+05
   8.639985e+04   2.987938e+05
  -1.107313e+05   2.801230e+04
   4.449703e+04  -4.938543e+04
   2.726014e+05   2.844727e+05
   2.268956e+05   6.661832e+05
  -1.611785e+05   5.520684e+05
  -5.794207e+05  -1.355071e+05
  -5.842987e+05  -8.279427e+05
  -3.613948e+04  -8.560341e+05
   6.618869e+05  -1.587897e+05
   8.459390e+05   6.462214e+05
   2.536815e+05   9.041773e+05
  -6.043613e+05   5.237546e+05
  -9.028407e+05  -8.080734e+04
  -4.059291e+05  -4.765493e+05
   2.407784e+05  -5.145026e+05
   2.741090e+05  -2.878346e+05
  -2.528708e+05  -1.940218e+04
  -5.509466e+05   2.616678e+04
  -1.041493e+05  -2.484653e+05
   6.832601e+05  -5.678652e+05
   9.996353e+05  -4.754611e+05
   5.808995e+05   1.177987e+05
  -8.700466e+04   7.022301e+05
  -4.208091e+05   6.845238e+05
  -3.119357e+05   9.481033e+04
  -2.263758e+04  -4.187318e+05
   2.104023e+05  -3.370303e+05
   2.994655e+05   1.618877e+05
   2.036484e+05   4.808314e+05
  -6.000942e+04   3.185813e+05
  -3.244366e+05  -5.526299e+04
  -3.756449e+05  -2.068725e+05
  -1.968398e+05  -5.512040e+04
   3.674417e+03   9.567989e+04
   5.884247e+04  -2.902474e+04
   4.259519e+04  -3.262328e+05
   1.269786e+05  -4.225054e+05
   2.998376e+05  -1.111082e+05
   3.325560e+05   3.696818e+05
   5.898373e+04   5.528910e+05
  -3.616644e+05   2.430104e+05
  -5.269785e+05  -2.627219e+05
  -1.911816e+05  -4.943425e+05
   4.098148e+05  -2.943759e+05
   7.098826e+05   8.517098e+04
   3.845175e+05   3.162580e+05
  -2.481984e+05   3.013340e+05
  -5.242299e+05   1.499125e+05
  -1.774170e+05   4.029926e+03
   3.347644e+05  -3.043039e+04
   3.608841e+05   9.511601e+04
  -1.713747e+05   2.723755e+05
  -6.745536e+05   2.303781e+05
