
 $NMID
 id='ANONYMOUS ', fmtdat='(2E16.6)'
 volume=1.0
 tramp=1.0
 $END
  -1.404889e+07  -1.016800e+06
  -8.793292e+06  -6.933110e+06
   5.047930e+05  -8.628119e+06
   6.152196e+06  -5.661606e+06
   5.015928e+06  -6.235127e+05
   3.066540e+05   2.458077e+06
  -2.824053e+06   1.321790e+06
  -2.170946e+06  -2.225269e+06
   6.444662e+05  -3.947441e+06
   2.659970e+06  -1.745026e+06
   2.272324e+06   1.968043e+06
   1.890891e+05   3.090800e+06
  -1.475276e+06   5.579162e+05
  -1.114696e+06  -2.636102e+06
   8.683046e+05  -2.999017e+06
   2.379717e+06  -2.354190e+05
   1.687767e+06   2.861874e+06
  -7.773479e+05   3.527520e+06
  -2.825118e+06   1.537530e+06
  -2.738573e+06  -1.052171e+06
  -9.730422e+05  -2.144270e+06
   4.432644e+05  -1.508753e+06
   1.196622e+05  -6.658937e+05
  -1.203870e+06  -1.007356e+06
  -1.455636e+06  -2.196403e+06
   4.408906e+05  -2.628979e+06
   3.146114e+06  -1.373459e+06
   4.071128e+06   7.366996e+05
   2.112038e+06   2.029057e+06
  -9.878630e+05   1.645500e+06
  -2.328331e+06   1.282547e+05
  -8.735821e+05  -1.224471e+06
   1.559052e+06  -1.302891e+06
   2.419477e+06   7.187740e+04
   1.134441e+06   1.820006e+06
  -6.333350e+05   2.284523e+06
  -1.132591e+06   8.924782e+05
  -3.323010e+05  -9.171911e+05
   4.833451e+05  -1.101528e+06
   3.621881e+05   5.179648e+05
  -4.735377e+05   1.889012e+06
  -1.142172e+06   1.223314e+06
  -9.911414e+05  -7.417178e+05
  -4.755290e+04  -1.655668e+06
   9.745693e+05  -4.433927e+05
   1.065393e+06   1.488650e+06
  -2.203459e+05   2.007883e+06
  -2.025106e+06   5.891542e+05
  -2.654569e+06  -1.388389e+06
  -1.233983e+06  -2.237455e+06
   1.161435e+06  -1.467154e+06
   2.418228e+06   6.558661e+04
   1.530231e+06   1.076290e+06
  -4.081013e+05   9.155747e+05
  -1.454217e+06   4.980356e+03
  -8.388878e+05  -6.508166e+05
   4.399880e+05  -4.487578e+05
   8.900480e+05   2.793162e+05
   1.322876e+05   7.069710e+05
  -8.121670e+05   3.939311e+05
  -7.213549e+05  -3.250235e+05
   4.421876e+05  -7.073758e+05
   1.408849e+06  -2.546686e+05
   9.239741e+05   8.562782e+05
  -8.514325e+05   1.795509e+06
  -2.424837e+06   1.640121e+06
  -2.508833e+06   2.170390e+05
  -1.290432e+06  -1.556520e+06
  -2.918288e+04  -2.424431e+06
   4.092315e+05  -2.015635e+06
   3.086375e+05  -1.137684e+06
   4.463495e+05  -7.216048e+05
   1.059007e+06  -7.101461e+05
   1.642337e+06  -3.043818e+05
   1.564952e+06   7.763786e+05
   6.768276e+05   1.701385e+06
  -5.577190e+05   1.420582e+06
  -1.332054e+06  -3.906810e+04
  -1.028367e+06  -1.451813e+06
   2.201744e+05  -1.597098e+06
   1.464591e+06  -4.334549e+05
   1.696812e+06   9.759312e+05
   8.210778e+05   1.575682e+06
  -2.626375e+05   1.238407e+06
  -6.697717e+05   6.425518e+05
  -4.983387e+05   4.213021e+05
  -5.891775e+05   5.420745e+05
  -1.357494e+06   4.652074e+05
  -2.117723e+06  -2.138229e+05
  -1.766133e+06  -1.305449e+06
  -9.501494e+04  -2.118986e+06
   1.763294e+06  -1.990791e+06
   2.347425e+06  -8.568651e+05
   1.313229e+06   5.711743e+05
  -2.305766e+05   1.284363e+06
  -8.675727e+05   8.463866e+05
  -2.605329e+05  -1.455781e+05
   6.819715e+05  -6.174252e+05
   9.107659e+05  -1.462679e+05
   3.022168e+05   5.809196e+05
  -3.911686e+05   5.930656e+05
  -4.303970e+05  -1.594125e+05
   2.162218e+05  -6.769335e+05
   9.247265e+05  -8.222463e+04
   9.631737e+05   1.269072e+06
   6.636106e+04   2.065507e+06
  -1.284036e+06   1.413130e+06
  -2.112368e+06  -2.299665e+05
  -1.722684e+06  -1.540885e+06
  -3.994956e+05  -1.636362e+06
   7.645098e+05  -8.062506e+05
   9.107531e+05  -3.713416e+04
   2.623582e+05   2.830988e+04
  -1.947135e+05  -3.907255e+05
   1.447574e+05  -6.156808e+05
   8.448689e+05  -2.810957e+05
   9.865836e+05   3.279890e+05
   2.736472e+05   6.282173e+05
  -5.763057e+05   3.457548e+05
  -5.943512e+05  -2.198640e+05
   3.503526e+05  -4.789614e+05
   1.322433e+06  -9.145737e+04
   1.245181e+06   7.049812e+05
   3.663196e+04   1.257014e+06
  -1.258021e+06   1.047364e+06
  -1.509475e+06   1.924536e+05
  -6.228391e+05  -5.996822e+05
   4.393711e+05  -6.675369e+05
   6.831420e+05  -5.904126e+04
   2.191079e+04   4.969988e+05
  -7.761936e+05   3.553570e+05
  -9.192860e+05  -3.476093e+05
  -3.067628e+05  -8.560034e+05
   4.656852e+05  -6.466202e+05
   7.008541e+05   2.070879e+03
   2.490327e+05   3.558636e+05
  -3.413450e+05   5.047799e+04
  -3.509503e+05  -5.386149e+05
   3.468973e+05  -7.285579e+05
   1.081080e+06  -2.308628e+05
   1.049989e+06   5.910189e+05
   1.931697e+05   1.079362e+06
  -7.180696e+05   8.629229e+05
  -8.934069e+05   1.590776e+05
  -3.193156e+05  -4.310968e+05
   3.197058e+05  -4.606096e+05
   4.142501e+05  -3.516129e+04
   6.866582e+03   3.261362e+05
  -3.667087e+05   2.568923e+05
  -2.901663e+05  -6.386558e+04
   1.158631e+05  -1.472304e+05
   3.359336e+05   1.989815e+05
  -6.385963e+02   5.999153e+05
  -6.945366e+05   5.038178e+05
  -1.105727e+06  -2.035357e+05
  -7.669958e+05  -1.031200e+06
   1.248268e+05  -1.324292e+06
   8.834671e+05  -8.560098e+05
   1.006935e+06  -1.230431e+04
   6.188162e+05   5.734600e+05
   2.272807e+05   5.858407e+05
   1.369930e+05   2.705201e+05
   1.839874e+05   1.201068e+05
   2.154125e+04   3.124535e+05
  -4.217823e+05   5.063287e+05
  -8.035563e+05   2.535873e+05
  -6.738301e+05  -4.126295e+05
   5.954804e+04  -9.058145e+05
   9.371178e+05  -6.639760e+05
   1.256917e+06   2.367976e+05
   6.774361e+05   1.102433e+06
  -4.325842e+05   1.254482e+06
  -1.276998e+06   6.277062e+05
  -1.314665e+06  -2.317224e+05
  -6.850612e+05  -7.087786e+05
   1.244807e+04  -6.530139e+05
   3.104742e+05  -4.147906e+05
   2.373568e+05  -3.946056e+05
   1.594646e+05  -5.864918e+05
   3.352813e+05  -5.988195e+05
   6.362341e+05  -1.344299e+05
   6.860505e+05   5.999055e+05
   2.755227e+05   1.029738e+06
  -3.584970e+05   7.712900e+05
  -7.033282e+05   1.898580e+04
  -4.639993e+05  -6.349380e+05
   1.227260e+05  -7.362113e+05
   5.149428e+05  -3.200617e+05
   4.140865e+05   2.088782e+05
   4.352925e+04   4.785562e+05
  -1.424217e+05   4.334922e+05
   1.520978e+04   2.812294e+05
   2.049766e+05   2.163992e+05
   1.277341e+04   2.207215e+05
  -5.660475e+05   1.258073e+05
  -1.034288e+06  -1.589313e+05
  -8.622400e+05  -5.128673e+05
  -6.225025e+04  -6.986475e+05
   7.528508e+05  -5.717827e+05
   9.448133e+05  -2.072976e+05
   4.758533e+05   1.458947e+05
  -9.632602e+04   2.460340e+05
  -2.407406e+05   6.472413e+04
   2.567220e+04  -1.549689e+05
   2.800971e+05  -1.160058e+05
   2.426434e+05   1.901429e+05
   4.272264e+04   4.200569e+05
  -3.563027e+04   2.678601e+05
   8.258713e+04  -1.128062e+05
   2.187304e+05  -2.356552e+05
   1.641290e+05   1.158385e+05
  -1.252036e+05   5.632379e+05
  -4.869639e+05   5.521116e+05
  -6.317769e+05   2.279854e+04
  -3.483673e+05  -5.055080e+05
   2.342193e+05  -5.275864e+05
   6.228361e+05  -8.494066e+04
   3.790358e+05   3.436750e+05
  -3.591060e+05   3.635450e+05
  -8.963732e+05  -8.717161e+03
  -6.584433e+05  -4.444565e+05
   1.765956e+05  -6.045891e+05
   8.344613e+05  -3.791137e+05
   7.467007e+05   4.067258e+04
   1.173692e+05   2.994208e+05
  -3.416615e+05   1.852630e+05
  -1.769143e+05  -1.346145e+05
   3.641211e+05  -2.373649e+05
   6.350171e+05   1.195005e+05
   2.755693e+05   6.837028e+05
  -4.310941e+05   8.895986e+05
  -8.631116e+05   4.099449e+05
  -6.747261e+05  -4.590528e+05
  -8.230733e+04  -1.003044e+06
   4.176226e+05  -7.496115e+05
   5.208845e+05   4.931685e+04
   2.842944e+05   6.485463e+05
  -5.425042e+04   5.699878e+05
  -2.865724e+05   7.223995e+04
  -3.067037e+05  -2.222509e+05
  -1.482845e+05  -9.426112e+04
  -4.345266e+03   6.975368e+04
  -6.541766e+04  -1.263720e+05
  -2.394176e+05  -5.187673e+05
  -1.673654e+05  -6.058761e+05
   3.142755e+05  -2.218696e+05
   8.190358e+05   2.706100e+05
   7.638140e+05   4.695228e+05
   1.033483e+05   3.712249e+05
  -5.315258e+05   2.173328e+05
  -5.641168e+05   1.139310e+05
  -1.477610e+05   8.259763e+02
   1.052013e+05  -1.169672e+05
  -4.752259e+04  -1.446011e+05
  -2.181255e+05  -9.206251e+04
   2.030821e+03  -7.899344e+04
   4.444545e+05  -9.531834e+04
   5.650060e+05   4.332852e+04
   1.209408e+05   3.766762e+05
  -5.482295e+05   5.913108e+05
  -8.954281e+05   3.340835e+05
  -6.787636e+05  -3.014129e+05
  -1.007525e+05  -7.876154e+05
   4.233399e+05  -7.167566e+05
   5.831656e+05  -2.296624e+05
   3.665756e+05   1.768233e+05
   3.699709e+04   1.980962e+05
  -1.017177e+05  -4.355820e+03
   2.052051e+04  -5.471938e+04
   1.906222e+05   1.838514e+05
   1.504523e+05   4.451032e+05
  -1.239477e+05   3.543444e+05
  -3.858694e+05  -1.237152e+05
  -3.489189e+05  -5.801062e+05
   2.955242e+04  -5.614775e+05
   4.589819e+05  -5.940493e+04
   5.339064e+05   4.731969e+05
   1.277291e+05   6.001809e+05
  -4.146010e+05   3.095486e+05
  -5.786875e+05  -8.100818e+04
  -2.408464e+05  -3.010516e+05
   1.666522e+05  -3.061041e+05
   1.609275e+05  -1.785216e+05
  -1.947479e+05  -3.023095e+04
  -3.718952e+05   7.628742e+02
  -5.383402e+04  -1.603988e+05
   4.634003e+05  -3.648247e+05
   6.465414e+05  -3.156849e+05
   3.534297e+05   6.641351e+04
  -7.451151e+04   4.504702e+05
  -2.669219e+05   4.323553e+05
  -1.786989e+05   3.619866e+04
   9.692897e+03  -2.883797e+05
   1.511530e+05  -2.022768e+05
   1.950294e+05   1.390744e+05
   1.198925e+05   3.228776e+05
  -5.278544e+04   1.853099e+05
  -2.115517e+05  -5.494787e+04
  -2.350976e+05  -1.265622e+05
  -1.290495e+05  -2.455427e+04
  -1.205501e+04   4.259411e+04
   4.046058e+04  -5.983487e+04
   7.185566e+04  -2.299887e+05
   1.433917e+05  -2.460729e+05
   2.153330e+05  -1.880715e+04
   1.758113e+05   2.814145e+05
  -1.976931e+04   3.690781e+05
  -2.571717e+05   1.389308e+05
  -3.240311e+05  -2.023015e+05
  -1.012164e+05  -3.409054e+05
   2.693844e+05  -1.813921e+05
   4.509173e+05   8.382206e+04
   2.388040e+05   2.180911e+05
  -1.702488e+05   1.736235e+05
  -3.418031e+05   6.299302e+04
  -9.656951e+04  -5.018695e+03
   2.498430e+05   9.687721e+03
   2.464557e+05   1.008556e+05
  -1.435896e+05   1.926233e+05
  -4.893945e+05   1.340917e+05
