
 $NMID
 id='ANONYMOUS ', fmtdat='(2E16.6)'
 volume=1.0
 tramp=1.0
 $END
   3.029780e+07  -3.261470e+06
   2.162372e+07   1.444798e+07
   4.767700e+05   2.045375e+07
  -1.329676e+07   1.226305e+07
  -1.074678e+07  -1.351435e+05
  -1.251255e+05  -5.558794e+06
   5.998199e+06  -1.727608e+06
   3.811056e+06   5.039517e+06
  -1.919114e+06   7.316498e+06
  -5.488436e+06   3.085883e+06
  -4.739522e+06  -3.298595e+06
  -9.716339e+05  -5.539759e+06
   2.389376e+06  -1.587963e+06
   2.104102e+06   4.118654e+06
  -1.665137e+06   5.251797e+06
  -4.879739e+06   4.180093e+05
  -3.760297e+06  -5.595329e+06
   1.033080e+06  -7.332085e+06
   5.336607e+06  -4.031731e+06
   5.984784e+06   8.209800e+05
   3.429298e+06   3.716565e+06
   5.131809e+05   3.853289e+06
  -3.278420e+05   2.714194e+06
   9.142904e+05   2.218796e+06
   1.752224e+06   3.011753e+06
  -3.167485e+05   3.825783e+06
  -4.507772e+06   2.799693e+06
  -6.775938e+06  -1.421326e+05
  -4.327820e+06  -2.766320e+06
   6.260603e+05  -2.922538e+06
   3.173749e+06  -9.054135e+05
   1.398433e+06   1.123810e+06
  -1.892268e+06   1.451171e+06
  -3.102968e+06  -3.941276e+04
  -1.709044e+06  -2.213343e+06
   3.331865e+05  -3.312479e+06
   1.362178e+06  -2.062936e+06
   1.122375e+06   6.447470e+05
   2.274911e+05   1.885070e+06
  -2.947950e+05   2.785278e+04
   4.042443e+05  -2.553530e+06
   1.806094e+06  -2.041635e+06
   1.975992e+06   1.526307e+06
  -1.785149e+05   3.723580e+06
  -2.911396e+06   1.392200e+06
  -3.104030e+06  -3.071868e+06
   1.048781e+05  -4.672071e+06
   4.014218e+06  -1.832197e+06
   5.021393e+06   2.310839e+06
   2.162133e+06   4.006710e+06
  -2.091224e+06   2.513497e+06
  -4.161604e+06  -2.545641e+05
  -2.525008e+06  -2.036434e+06
   9.687583e+05  -1.769506e+06
   2.876479e+06  -5.054905e+04
   1.634796e+06   1.321631e+06
  -8.412487e+05   9.687553e+05
  -1.487496e+06  -5.055181e+05
   2.259354e+05  -1.154369e+06
   1.791196e+06  -8.736646e+04
   9.225397e+05   1.465326e+06
  -1.644692e+06   1.729848e+06
  -3.152630e+06   2.898635e+05
  -1.947968e+06  -1.880911e+06
   1.059749e+06  -3.446382e+06
   3.636312e+06  -3.300948e+06
   4.200781e+06  -1.057848e+06
   2.769466e+06   2.180902e+06
   6.483042e+05   4.161215e+06
  -6.910749e+05   3.601220e+06
  -8.363107e+05   1.704557e+06
  -6.532892e+05   6.572877e+05
  -1.110346e+06   8.639211e+05
  -2.022530e+06   7.490399e+05
  -2.283492e+06  -6.688921e+05
  -1.236711e+06  -2.191603e+06
   5.449461e+05  -1.993654e+06
   1.793822e+06   1.058492e+04
   1.561076e+06   2.061631e+06
  -1.317067e+05   2.456297e+06
  -2.180103e+06   1.014088e+06
  -3.021554e+06  -1.093441e+06
  -1.966123e+06  -2.454242e+06
  -2.238604e+04  -2.450499e+06
   1.121954e+06  -1.605909e+06
   1.083928e+06  -9.524905e+05
   1.140146e+06  -8.867677e+05
   2.271541e+06  -7.553970e+05
   3.506815e+06   2.600048e+05
   2.959419e+06   2.014697e+06
   2.898825e+05   3.385343e+06
  -2.608106e+06   3.291161e+06
  -3.521315e+06   1.624384e+06
  -2.081529e+06  -6.063707e+05
   1.015064e+05  -1.904759e+06
   1.115517e+06  -1.424663e+06
   4.041101e+05   1.344838e+05
  -9.633650e+05   1.031471e+06
  -1.459384e+06   3.443671e+05
  -6.232670e+05  -8.816777e+05
   5.102144e+05  -9.252354e+05
   5.807582e+05   2.965356e+05
  -5.569956e+05   9.874753e+05
  -1.654339e+06  -2.167688e+05
  -1.398343e+06  -2.392376e+06
   3.032300e+05  -3.319630e+06
   2.322596e+06  -1.959720e+06
   3.283354e+06   5.867788e+05
   2.533549e+06   2.390654e+06
   5.994018e+05   2.460365e+06
  -1.103741e+06   1.289390e+06
  -1.377186e+06   1.519311e+05
  -4.151740e+05  -2.265398e+04
   3.291639e+05   6.106007e+05
  -2.115993e+05   1.047589e+06
  -1.400330e+06   5.456292e+05
  -1.655083e+06  -5.117411e+05
  -4.560629e+05  -1.050308e+06
   9.224505e+05  -5.597351e+05
   8.832598e+05   3.549395e+05
  -6.337936e+05   6.897223e+05
  -2.059578e+06   4.406139e+04
  -1.843419e+06  -1.118673e+06
   2.860243e+03  -1.908842e+06
   1.942590e+06  -1.637765e+06
   2.363202e+06  -3.702960e+05
   1.051545e+06   9.375090e+05
  -6.465612e+05   1.162311e+06
  -1.141436e+06   1.933014e+05
  -1.271118e+05  -8.034669e+05
   1.211432e+06  -6.344458e+05
   1.484042e+06   5.290184e+05
   4.729957e+05   1.369808e+06
  -7.836361e+05   1.001892e+06
  -1.119833e+06  -5.791252e+04
  -3.567809e+05  -6.013824e+05
   5.900665e+05  -9.862293e+04
   6.134204e+05   8.408908e+05
  -4.805421e+05   1.184757e+06
  -1.680891e+06   4.620525e+05
  -1.711515e+06  -8.440708e+05
  -3.866860e+05  -1.705646e+06
   1.101952e+06  -1.427380e+06
   1.422266e+06  -2.911858e+05
   5.068795e+05   6.836403e+05
  -4.993899e+05   7.305533e+05
  -6.020947e+05   6.486174e+04
   4.562142e+04  -4.543925e+05
   5.424621e+05  -3.194884e+05
   3.292938e+05   1.223654e+05
  -2.911737e+05   1.648591e+05
  -5.517808e+05  -3.988298e+05
   1.618636e+04  -9.974983e+05
   1.099593e+06  -8.392547e+05
   1.771603e+06   2.604843e+05
   1.290491e+06   1.583040e+06
  -1.119149e+05   2.081705e+06
  -1.349230e+06   1.348021e+06
  -1.548344e+06   1.894969e+04
  -9.055634e+05  -8.440530e+05
  -3.155841e+05  -7.865419e+05
  -2.703072e+05  -3.054536e+05
  -3.983353e+05  -1.734670e+05
  -9.416281e+04  -5.457618e+05
   6.669192e+05  -8.302196e+05
   1.261646e+06  -4.045245e+05
   1.029011e+06   6.208469e+05
  -1.047837e+05   1.386472e+06
  -1.453832e+06   1.058136e+06
  -1.978917e+06  -3.188844e+05
  -1.104236e+06  -1.728317e+06
   6.648508e+05  -2.039861e+06
   2.042143e+06  -1.047260e+06
   2.084385e+06   3.634330e+05
   1.028778e+06   1.116819e+06
  -6.626274e+04   9.689170e+05
  -4.361686e+05   5.719003e+05
  -2.350213e+05   6.009445e+05
  -1.284731e+05   9.784700e+05
  -4.837352e+05   1.024566e+06
  -1.020466e+06   2.864103e+05
  -1.134641e+06  -8.842955e+05
  -5.105821e+05  -1.594488e+06
   5.023131e+05  -1.233539e+06
   1.104557e+06  -5.874834e+04
   7.671998e+05   1.010507e+06
  -1.946553e+05   1.195884e+06
  -8.780862e+05   5.014144e+05
  -7.154853e+05  -3.956301e+05
  -5.645681e+04  -8.343241e+05
   2.860581e+05  -7.164854e+05
   5.930142e+03  -4.211526e+05
  -3.481392e+05  -3.008822e+05
  -4.424475e+04  -3.360524e+05
   9.195244e+05  -2.400073e+05
   1.693106e+06   1.798880e+05
   1.407403e+06   7.797448e+05
   1.078304e+05   1.159341e+06
  -1.203157e+06   9.958272e+05
  -1.512126e+06   3.611670e+05
  -7.683729e+05  -2.766758e+05
   1.491712e+05  -4.398324e+05
   4.066660e+05  -9.798034e+04
   1.244556e+04   2.803591e+05
  -4.026500e+05   2.081687e+05
  -4.046283e+05  -2.751433e+05
  -1.460339e+05  -6.205615e+05
  -1.199588e+04  -3.993467e+05
  -1.316323e+05   1.458232e+05
  -3.081978e+05   3.242899e+05
  -2.618974e+05  -1.839179e+05
   1.383849e+05  -8.703248e+05
   7.290497e+05  -9.165478e+05
   1.043774e+06  -1.413092e+05
   6.469858e+05   7.440352e+05
  -3.104376e+05   8.978976e+05
  -9.891936e+05   2.460889e+05
  -6.230426e+05  -4.917484e+05
   5.567095e+05  -5.927968e+05
   1.398916e+06  -1.054486e+04
   1.001729e+06   6.962565e+05
  -3.057695e+05   9.406839e+05
  -1.301956e+06   5.724638e+05
  -1.143930e+06  -7.248947e+04
  -1.716654e+05  -4.608453e+05
   5.408444e+05  -2.902709e+05
   3.106392e+05   2.097299e+05
  -5.195842e+05   4.141873e+05
  -9.939237e+05  -9.971595e+04
  -5.227792e+05  -1.011277e+06
   5.428517e+05  -1.423473e+06
   1.277934e+06  -7.327275e+05
   1.084818e+06   6.454270e+05
   2.060187e+05   1.546582e+06
  -6.088267e+05   1.173288e+06
  -8.216805e+05  -7.777913e+04
  -4.564771e+05  -1.013033e+06
   1.014125e+05  -8.870334e+05
   4.651296e+05  -1.184485e+05
   4.582675e+05   3.319607e+05
   1.959064e+05   1.401565e+05
   2.024529e+04  -1.030550e+05
   1.742244e+05   1.971583e+05
   4.348690e+05   7.957237e+05
   2.559886e+05   9.429509e+05
  -5.293664e+05   3.808319e+05
  -1.289609e+06  -3.648951e+05
  -1.183857e+06  -6.949545e+05
  -1.869785e+05  -5.837162e+05
   7.748563e+05  -3.680602e+05
   8.642391e+05  -1.992577e+05
   2.712492e+05  -2.604889e+03
  -1.387730e+05   1.880579e+05
   3.298354e+04   2.179252e+05
   2.907490e+05   1.217355e+05
   1.957307e+04   1.140840e+05
  -6.292412e+05   1.811838e+05
  -8.854721e+05  -5.957320e+03
  -2.911691e+05  -5.575039e+05
   7.507296e+05  -9.771341e+05
   1.386894e+06  -6.429203e+05
   1.131258e+06   3.629131e+05
   2.382796e+05   1.204908e+06
  -6.072036e+05   1.175248e+06
  -8.794252e+05   4.393854e+05
  -5.695686e+05  -2.228451e+05
  -9.427501e+04  -2.990965e+05
   1.078818e+05  -1.226797e+04
  -5.576504e+04   6.206115e+04
  -2.970934e+05  -2.945102e+05
  -2.528062e+05  -6.903248e+05
   1.504416e+05  -5.686906e+05
   5.900829e+05   1.335917e+05
   6.078134e+05   8.328345e+05
   5.467278e+04   8.613972e+05
  -6.645662e+05   1.642480e+05
  -8.711961e+05  -6.442472e+05
  -2.823768e+05  -9.145806e+05
   5.980770e+05  -5.492576e+05
   9.264123e+05   5.332821e+04
   4.402292e+05   4.684366e+05
  -2.195860e+05   5.339252e+05
  -2.682227e+05   3.170226e+05
   2.598867e+05   3.076827e+04
   5.669678e+05  -3.619356e+04
   1.155662e+05   2.473422e+05
  -6.929226e+05   6.039939e+05
  -1.027611e+06   5.333398e+05
  -6.103485e+05  -8.681677e+04
   6.585517e+04  -7.232343e+05
   4.059600e+05  -7.292759e+05
   3.031555e+05  -1.186549e+05
   2.502628e+04   4.248472e+05
  -2.006235e+05   3.476797e+05
  -2.990708e+05  -1.643953e+05
  -2.211090e+05  -4.887617e+05
   4.171441e+04  -3.223576e+05
   3.293256e+05   5.007636e+04
   4.011529e+05   1.957341e+05
   2.134929e+05   4.886435e+04
  -1.527166e+04  -8.798455e+04
  -8.343845e+04   3.863647e+04
  -5.108633e+04   3.200180e+05
  -1.126796e+05   4.053765e+05
  -2.823180e+05   1.051225e+05
  -3.291080e+05  -3.583903e+05
  -6.491585e+04  -5.433618e+05
   3.617385e+05  -2.502396e+05
   5.375039e+05   2.506844e+05
   2.015000e+05   4.992923e+05
  -4.117609e+05   3.177205e+05
  -7.248689e+05  -6.326513e+04
  -4.025923e+05  -3.120923e+05
   2.372088e+05  -3.133720e+05
   5.215565e+05  -1.675684e+05
   1.767469e+05  -1.977766e+04
  -3.369898e+05   1.968926e+04
  -3.593528e+05  -1.002027e+05
   1.836492e+05  -2.743959e+05
   6.950833e+05  -2.322876e+05
