
 $NMID
 id='ANONYMOUS ', fmtdat='(2E16.6)'
 volume=1.0
 tramp=1.0
 $END
   5.759557e+07  -1.388689e+06
   3.532619e+07   3.515187e+07
  -6.970085e+06   3.923421e+07
  -2.794919e+07   1.529308e+07
  -1.683785e+07  -7.117133e+06
   3.330927e+06  -9.575286e+06
   9.998028e+06   1.250585e+06
   2.849348e+06   9.931069e+06
  -6.229250e+06   9.445631e+06
  -9.764923e+06   2.087310e+06
  -7.220781e+06  -6.115346e+06
  -1.044434e+06  -8.642878e+06
   3.953712e+06  -2.920572e+06
   2.768918e+06   5.316528e+06
  -3.691414e+06   6.585646e+06
  -8.010574e+06  -1.263952e+06
  -4.693726e+06  -1.027935e+07
   3.615052e+06  -1.205931e+07
   1.015192e+07  -6.261328e+06
   1.109850e+07   1.774969e+06
   7.041335e+06   7.474603e+06
   9.836538e+05   8.928017e+06
  -2.937734e+06   6.366876e+06
  -2.064758e+06   2.725503e+06
   1.041009e+06   1.928471e+06
   4.532467e+05   4.048238e+06
  -5.165553e+06   4.609237e+06
  -9.648305e+06   8.785137e+05
  -7.265493e+06  -3.913169e+06
  -5.281862e+05  -5.134331e+06
   3.556245e+06  -2.811324e+06
   2.515221e+06  -2.475135e+05
  -3.857080e+05   8.504297e+05
  -2.068099e+06   6.130589e+05
  -2.222562e+06  -1.201687e+06
  -9.345229e+05  -3.837217e+06
   1.659333e+06  -4.003337e+06
   3.387083e+06  -8.458517e+04
   1.962559e+06   3.665000e+06
  -7.411704e+05   2.125345e+06
  -5.052560e+05  -2.339805e+06
   2.379775e+06  -2.333460e+06
   2.523458e+06   3.211211e+06
  -2.427649e+06   6.298979e+06
  -7.179817e+06   1.159363e+06
  -5.415821e+06  -6.998828e+06
   1.795964e+06  -8.772923e+06
   7.513727e+06  -2.645566e+06
   7.088724e+06   4.340752e+06
   1.931220e+06   6.017622e+06
  -3.443936e+06   2.750867e+06
  -5.262678e+06  -1.469691e+06
  -2.438805e+06  -3.473396e+06
   2.442958e+06  -2.250415e+06
   4.604599e+06   8.688156e+05
   2.008570e+06   2.737394e+06
  -1.722798e+06   1.426391e+06
  -1.743413e+06  -1.002412e+06
   1.385675e+06  -9.016988e+05
   2.537740e+06   1.842179e+06
  -6.706911e+05   3.590322e+06
  -4.776019e+06   2.012308e+06
  -5.432011e+06  -1.339697e+06
  -2.413920e+06  -4.025082e+06
   1.663768e+06  -5.367384e+06
   4.850955e+06  -5.028004e+06
   6.171640e+06  -1.971310e+06
   4.751200e+06   3.021378e+06
   1.147433e+06   6.179842e+06
  -1.791728e+06   4.815630e+06
  -1.783535e+06   1.180654e+06
  -1.117375e+05  -3.509351e+05
   1.969039e+05   9.565961e+05
  -1.441770e+06   1.907250e+06
  -2.778667e+06   4.332075e+05
  -2.121522e+06  -1.772346e+06
  -1.628653e+05  -2.095364e+06
   1.469747e+06  -2.731737e+05
   1.706520e+06   1.963275e+06
   1.129320e+05   2.904259e+06
  -2.698897e+06   1.771032e+06
  -4.547483e+06  -1.019474e+06
  -3.398050e+06  -3.695397e+06
  -9.733981e+04  -4.315185e+06
   2.257604e+06  -2.846775e+06
   2.270060e+06  -1.200901e+06
   1.845402e+06  -6.967235e+05
   2.927930e+06  -5.220872e+05
   4.354513e+06   6.689286e+05
   3.538421e+06   2.676358e+06
   2.311906e+05   4.102231e+06
  -3.075026e+06   3.966499e+06
  -4.074216e+06   2.252791e+06
  -2.666998e+06  -3.018969e+05
  -3.859219e+05  -2.204216e+06
   1.005659e+06  -1.979161e+06
   5.682722e+05   3.746551e+03
  -1.034441e+06   1.342574e+06
  -1.901625e+06   4.535501e+05
  -9.737101e+05  -1.185575e+06
   4.698770e+05  -1.122804e+06
   4.062884e+05   3.817410e+05
  -1.090656e+06   6.721572e+05
  -1.879025e+06  -1.345327e+06
  -6.319594e+05  -3.526874e+06
   1.627882e+06  -3.381790e+06
   3.140671e+06  -1.057547e+06
   3.264324e+06   1.430260e+06
   2.251919e+06   2.671088e+06
   4.934142e+05   2.544543e+06
  -1.181785e+06   1.484293e+06
  -1.554709e+06   2.799928e+05
  -4.920094e+05  -3.301118e+04
   3.745285e+05   7.425604e+05
  -3.933316e+05   1.362314e+06
  -1.916241e+06   6.255889e+05
  -2.063551e+06  -8.617002e+05
  -4.047049e+05  -1.424483e+06
   1.163519e+06  -5.898187e+05
   8.762300e+05   4.364821e+05
  -8.505943e+05   5.022934e+05
  -2.150677e+06  -3.129532e+05
  -1.714246e+06  -1.311812e+06
   2.300889e+05  -1.932005e+06
   2.255980e+06  -1.673854e+06
   2.753295e+06  -3.298911e+05
   1.247791e+06   1.247367e+06
  -8.918039e+05   1.543853e+06
  -1.579332e+06   2.324643e+05
  -2.411685e+05  -1.088949e+06
   1.502741e+06  -7.779719e+05
   1.732040e+06   7.533502e+05
   3.502574e+05   1.645140e+06
  -1.088940e+06   9.744434e+05
  -1.254693e+06  -3.147037e+05
  -2.391722e+05  -7.857524e+05
   8.106919e+05  -6.826339e+04
   7.689035e+05   1.039804e+06
  -5.335148e+05   1.442996e+06
  -1.990827e+06   6.020404e+05
  -2.065678e+06  -9.943153e+05
  -4.344371e+05  -2.068718e+06
   1.410080e+06  -1.676634e+06
   1.724317e+06  -2.398889e+05
   5.105326e+05   8.623910e+05
  -6.457792e+05   8.106598e+05
  -6.154935e+05   9.294178e+04
   1.229849e+05  -3.349588e+05
   4.630330e+05  -1.912017e+05
   7.849401e+04   5.411507e+04
  -4.720833e+05  -1.061130e+05
  -5.181733e+05  -6.908065e+05
   2.018345e+05  -1.195343e+06
   1.367930e+06  -9.200978e+05
   2.089088e+06   3.684174e+05
   1.511739e+06   1.907503e+06
  -1.567820e+05   2.415582e+06
  -1.573430e+06   1.426800e+06
  -1.666468e+06  -1.018538e+05
  -8.442768e+05  -8.529624e+05
  -3.226305e+05  -5.930207e+05
  -5.076026e+05  -1.772050e+05
  -6.638871e+05  -3.094391e+05
  -1.132067e+05  -7.807762e+05
   8.628511e+05  -9.135849e+05
   1.430274e+06  -3.411308e+05
   1.040430e+06   6.892014e+05
  -2.298428e+05   1.434667e+06
  -1.688536e+06   1.091313e+06
  -2.242614e+06  -4.337309e+05
  -1.165031e+06  -2.072872e+06
   9.755532e+05  -2.385656e+06
   2.530141e+06  -1.071354e+06
   2.347638e+06   6.284879e+05
   9.475972e+05   1.313107e+06
  -2.028190e+05   9.156005e+05
  -3.526291e+05   4.890253e+05
  -1.820221e+04   7.577792e+05
  -5.090001e+04   1.332306e+06
  -6.444286e+05   1.321140e+06
  -1.295962e+06   3.562156e+05
  -1.367889e+06  -1.041370e+06
  -6.066837e+05  -1.874047e+06
   5.801199e+05  -1.449244e+06
   1.279408e+06  -2.427747e+04
   8.340264e+05   1.272546e+06
  -3.757428e+05   1.403744e+06
  -1.172995e+06   4.080222e+05
  -8.282218e+05  -7.133010e+05
   1.229308e+05  -1.096349e+06
   5.488524e+05  -7.879913e+05
   8.784533e+04  -4.031862e+05
  -4.473201e+05  -3.164117e+05
  -7.386339e+04  -3.777261e+05
   1.152131e+06  -2.336517e+05
   2.082684e+06   2.868895e+05
   1.639256e+06   1.005189e+06
  -2.309495e+04   1.447925e+06
  -1.581651e+06   1.184627e+06
  -1.828750e+06   3.071629e+05
  -8.354153e+05  -5.004947e+05
   2.576701e+05  -5.874248e+05
   5.170164e+05  -3.458744e+04
   5.023739e+04   4.369605e+05
  -4.253343e+05   2.752154e+05
  -4.932742e+05  -3.275497e+05
  -2.953563e+05  -7.081948e+05
  -1.303464e+05  -4.742454e+05
  -1.315333e+05   8.230570e+04
  -2.526844e+05   2.795740e+05
  -2.762845e+05  -2.270139e+05
   1.027653e+05  -9.798374e+05
   8.694209e+05  -1.092136e+06
   1.382070e+06  -2.273977e+05
   9.034932e+05   8.883354e+05
  -3.829751e+05   1.170821e+06
  -1.262299e+06   3.951394e+05
  -7.520391e+05  -5.430490e+05
   6.893498e+05  -6.602646e+05
   1.574809e+06   6.794677e+04
   9.910812e+05   8.407023e+05
  -4.819517e+05   9.767539e+05
  -1.473985e+06   4.793698e+05
  -1.209828e+06  -1.774526e+05
  -1.334258e+05  -5.024624e+05
   6.436303e+05  -2.724195e+05
   4.001319e+05   2.917524e+05
  -5.555577e+05   5.521087e+05
  -1.186124e+06  -2.398411e+04
  -7.325684e+05  -1.147367e+06
   5.041792e+05  -1.729389e+06
   1.437751e+06  -9.509504e+05
   1.278246e+06   7.046619e+05
   2.618242e+05   1.773030e+06
  -6.980055e+05   1.295826e+06
  -9.210763e+05  -1.683191e+05
  -4.436007e+05  -1.177420e+06
   2.175586e+05  -9.557938e+05
   5.657460e+05  -8.824933e+04
   4.551140e+05   3.570798e+05
   1.441334e+05   1.241640e+05
   5.436845e+04  -8.900787e+04
   3.208851e+05   3.026380e+05
   5.497196e+05   9.546792e+05
   1.942117e+05   1.062824e+06
  -7.329569e+05   4.090442e+05
  -1.478968e+06  -4.170355e+05
  -1.273324e+06  -7.938777e+05
  -2.022853e+05  -6.962898e+05
   8.121973e+05  -4.483869e+05
   9.653815e+05  -2.031229e+05
   3.823720e+05   5.722770e+04
  -1.277424e+05   2.326604e+05
  -5.923385e+04   1.895487e+05
   2.346553e+05   6.659765e+04
   6.824279e+04   1.293276e+05
  -6.159786e+05   2.726173e+05
  -1.049627e+06   3.663895e+04
  -5.074149e+05  -6.821090e+05
   7.643696e+05  -1.228369e+06
   1.692940e+06  -8.434448e+05
   1.469057e+06   3.586488e+05
   3.419642e+05   1.387733e+06
  -7.236972e+05   1.414234e+06
  -1.028884e+06   6.018646e+05
  -6.587007e+05  -1.866336e+05
  -1.629863e+05  -3.537462e+05
   3.696808e+04  -9.110576e+04
  -9.160108e+04  -4.950164e+03
  -2.969064e+05  -3.665111e+05
  -2.631019e+05  -7.977318e+05
   1.450658e+05  -6.935546e+05
   6.784837e+05   6.822119e+04
   7.994735e+05   8.959559e+05
   1.991750e+05   1.030448e+06
  -7.199212e+05   3.153089e+05
  -1.076640e+06  -6.429011e+05
  -4.182719e+05  -1.076226e+06
   6.782909e+05  -7.346364e+05
   1.139265e+06   1.705900e+04
   5.775881e+05   6.154157e+05
  -2.614396e+05   7.235259e+05
  -3.944641e+05   3.909671e+05
   2.137823e+05  -1.505145e+04
   6.383239e+05  -7.233158e+04
   1.712135e+05   3.083974e+05
  -7.963403e+05   7.078034e+05
  -1.264657e+06   5.656296e+05
  -8.029636e+05  -1.730729e+05
   5.669753e+04  -8.864387e+05
   5.461294e+05  -8.924425e+05
   4.535094e+05  -2.046126e+05
   9.311051e+04   4.622109e+05
  -2.137533e+05   4.645731e+05
  -3.566305e+05  -1.001639e+05
  -2.841677e+05  -5.645896e+05
   2.570736e+04  -4.584486e+05
   3.942214e+05   1.333533e+04
   4.984614e+05   2.820318e+05
   2.465970e+05   1.057795e+05
  -5.681708e+04  -1.738579e+05
  -8.446732e+04  -9.182067e+04
   7.273161e+04   3.324245e+05
   3.812405e+04   5.882759e+05
  -2.890548e+05   2.922696e+05
  -5.188141e+05  -3.198872e+05
  -2.442171e+05  -6.356136e+05
   3.770412e+05  -3.495039e+05
   6.991305e+05   2.270240e+05
   2.972426e+05   5.482610e+05
  -5.004735e+05   3.934157e+05
  -9.055848e+05  -1.997103e+04
  -5.062167e+05  -3.546208e+05
   2.753403e+05  -4.388202e+05
   6.375452e+05  -2.884478e+05
   2.759979e+05  -3.512325e+04
  -3.059109e+05   1.121339e+05
  -3.960763e+05  -6.501366e+03
   1.236092e+05  -2.764971e+05
   6.798900e+05  -3.080814e+05
