
 $NMID
 id='ANONYMOUS ', fmtdat='(2E16.6)'
 volume=1.0
 tramp=1.0
 $END
   3.195215e+07  -2.047880e+06
   2.183786e+07   1.538241e+07
  -8.489994e+04   2.093341e+07
  -1.383282e+07   1.269468e+07
  -1.103927e+07   1.854582e+05
  -2.028122e+05  -5.693577e+06
   6.185302e+06  -2.077376e+06
   4.156697e+06   5.122266e+06
  -1.774590e+06   7.866024e+06
  -5.720289e+06   3.386759e+06
  -5.045202e+06  -3.671805e+06
  -9.462538e+05  -6.100871e+06
   2.740646e+06  -1.619637e+06
   2.413560e+06   4.654850e+06
  -1.672111e+06   5.779636e+06
  -5.119119e+06   4.738964e+05
  -3.912365e+06  -5.958734e+06
   1.219081e+06  -7.713177e+06
   5.786130e+06  -4.045796e+06
   6.305398e+06   1.233884e+06
   3.297179e+06   4.205007e+06
   1.048413e+05   3.984403e+06
  -4.543553e+05   2.492120e+06
   1.341065e+06   2.124420e+06
   2.310445e+06   3.405504e+06
  -3.090834e+05   4.475443e+06
  -5.218714e+06   3.160734e+06
  -7.667034e+06  -3.180265e+05
  -4.706493e+06  -3.263662e+06
   9.675492e+05  -3.351826e+06
   3.825435e+06  -9.698670e+05
   1.724477e+06   1.495076e+06
  -2.197637e+06   1.977879e+06
  -3.745361e+06   1.212689e+05
  -2.093107e+06  -2.653923e+06
   4.745134e+05  -3.923723e+06
   1.703732e+06  -2.191198e+06
   1.186995e+06   1.049889e+06
  -3.368472e+04   2.203318e+06
  -5.306249e+05  -2.037871e+05
   4.308723e+05  -3.077010e+06
   1.978317e+06  -2.318593e+06
   2.095490e+06   1.597821e+06
  -1.306403e+05   3.810560e+06
  -2.867108e+06   1.268399e+06
  -3.046910e+06  -3.295518e+06
   2.201654e+05  -4.801508e+06
   4.300291e+06  -1.801601e+06
   5.447860e+06   2.495668e+06
   2.439393e+06   4.311923e+06
  -2.219949e+06   2.807310e+06
  -4.571566e+06  -1.455702e+05
  -2.827558e+06  -2.128297e+06
   9.846957e+05  -1.891412e+06
   3.067528e+06  -6.006847e+04
   1.745890e+06   1.395850e+06
  -9.099685e+05   1.025592e+06
  -1.662621e+06  -5.177075e+05
   8.332318e+04  -1.253286e+06
   1.790300e+06  -2.687348e+05
   1.046161e+06   1.290904e+06
  -1.558100e+06   1.688171e+06
  -3.219176e+06   3.482192e+05
  -2.024813e+06  -1.940487e+06
   1.252429e+06  -3.738636e+06
   4.136846e+06  -3.612067e+06
   4.701234e+06  -1.055980e+06
   2.976803e+06   2.550126e+06
   6.170443e+05   4.632168e+06
  -7.088097e+05   3.932748e+06
  -7.666417e+05   1.923147e+06
  -6.685795e+05   9.137091e+05
  -1.366220e+06   1.160648e+06
  -2.469521e+06   9.000487e+05
  -2.728759e+06  -8.326216e+05
  -1.477203e+06  -2.616905e+06
   6.298434e+05  -2.397936e+06
   2.139253e+06  -7.223994e+04
   1.883125e+06   2.345575e+06
  -1.326462e+05   2.827302e+06
  -2.513193e+06   1.122450e+06
  -3.382385e+06  -1.327486e+06
  -2.071320e+06  -2.797281e+06
   1.069195e+05  -2.646671e+06
   1.263710e+06  -1.633944e+06
   1.123225e+06  -9.691481e+05
   1.185285e+06  -9.975916e+05
   2.489653e+06  -9.049339e+05
   3.909091e+06   2.199154e+05
   3.345908e+06   2.206318e+06
   3.887828e+05   3.807276e+06
  -2.902146e+06   3.765804e+06
  -4.008695e+06   1.877839e+06
  -2.403617e+06  -7.162433e+05
   1.224602e+05  -2.226734e+06
   1.312263e+06  -1.646308e+06
   4.817767e+05   1.719637e+05
  -1.097276e+06   1.195481e+06
  -1.648162e+06   3.981193e+05
  -6.908568e+05  -1.008607e+06
   5.853078e+05  -1.084734e+06
   7.012383e+05   2.865495e+05
  -5.095819e+05   1.139215e+06
  -1.766055e+06  -8.918334e+04
  -1.649534e+06  -2.501697e+06
   1.031147e+05  -3.681951e+06
   2.418694e+06  -2.339242e+06
   3.704358e+06   4.739240e+05
   2.997633e+06   2.602816e+06
   7.817645e+05   2.788666e+06
  -1.237552e+06   1.493573e+06
  -1.579609e+06   1.897710e+05
  -4.707856e+05  -2.151417e+04
   3.877970e+05   6.823994e+05
  -2.159808e+05   1.168243e+06
  -1.552861e+06   6.234647e+05
  -1.857483e+06  -5.362624e+05
  -5.388546e+05  -1.159162e+06
   1.020478e+06  -6.647006e+05
   1.032877e+06   3.567771e+05
  -6.475273e+05   8.137954e+05
  -2.312678e+06   1.620022e+05
  -2.156197e+06  -1.177763e+06
  -9.312016e+04  -2.168702e+06
   2.146026e+06  -1.922018e+06
   2.666970e+06  -4.750245e+05
   1.195406e+06   1.036775e+06
  -7.213395e+05   1.304112e+06
  -1.275520e+06   2.140820e+05
  -1.392915e+05  -9.102793e+05
   1.359223e+06  -7.362424e+05
   1.685057e+06   5.573985e+05
   5.818230e+05   1.524492e+06
  -8.339517e+05   1.160451e+06
  -1.258991e+06  -1.012760e+04
  -4.354108e+05  -6.528583e+05
   6.454323e+05  -1.266479e+05
   7.050611e+05   9.307448e+05
  -5.215263e+05   1.346440e+06
  -1.894445e+06   5.502932e+05
  -1.948921e+06  -9.275561e+05
  -4.657986e+05  -1.918477e+06
   1.214049e+06  -1.627963e+06
   1.597508e+06  -3.585043e+05
   5.953079e+05   7.583658e+05
  -5.420833e+05   8.450789e+05
  -7.006277e+05   9.835272e+04
   3.162957e+03  -5.297300e+05
   5.991647e+05  -4.169181e+05
   4.184343e+05   9.950880e+04
  -2.719429e+05   2.047307e+05
  -6.135389e+05  -4.009614e+05
  -1.522106e+04  -1.100514e+06
   1.210890e+06  -9.651883e+05
   1.999994e+06   2.560228e+05
   1.484053e+06   1.762412e+06
  -8.540771e+04   2.361344e+06
  -1.491841e+06   1.570208e+06
  -1.758365e+06   7.626761e+04
  -1.078028e+06  -9.367798e+05
  -4.093084e+05  -9.207274e+05
  -3.067700e+05  -3.833078e+05
  -4.159666e+05  -1.974717e+05
  -9.555602e+04  -5.957019e+05
   7.246841e+05  -9.417912e+05
   1.404406e+06  -4.953248e+05
   1.190053e+06   6.687939e+05
  -6.257714e+04   1.574523e+06
  -1.607554e+06   1.238194e+06
  -2.244996e+06  -3.094892e+05
  -1.292863e+06  -1.915791e+06
   6.901132e+05  -2.302004e+06
   2.261560e+06  -1.227786e+06
   2.359020e+06   3.405136e+05
   1.216783e+06   1.219610e+06
  -1.851305e+04   1.111516e+06
  -4.823981e+05   6.939864e+05
  -2.919384e+05   7.073058e+05
  -1.615538e+05   1.101178e+06
  -5.353060e+05   1.147617e+06
  -1.142230e+06   3.294758e+05
  -1.296977e+06  -9.853375e+05
  -6.065067e+05  -1.798377e+06
   5.481456e+05  -1.408864e+06
   1.248414e+06  -9.539978e+04
   8.867312e+05   1.112428e+06
  -1.810627e+05   1.342279e+06
  -9.482060e+05   5.907060e+05
  -7.907399e+05  -4.027964e+05
  -8.934440e+04  -9.080202e+05
   2.777630e+05  -7.999255e+05
  -2.066250e+04  -4.810041e+05
  -3.957694e+05  -3.442951e+05
  -5.260790e+04  -3.826833e+05
   1.020931e+06  -2.832406e+05
   1.896300e+06   1.759419e+05
   1.598368e+06   8.445461e+05
   1.543385e+05   1.282730e+06
  -1.323980e+06   1.128697e+06
  -1.688125e+06   4.451345e+05
  -8.657364e+05  -2.697429e+05
   1.587930e+05  -4.816272e+05
   4.441550e+05  -1.231214e+05
  -9.646774e+02   3.062141e+05
  -4.646069e+05   2.407804e+05
  -4.587154e+05  -3.086106e+05
  -1.589733e+05  -7.171783e+05
  -3.475758e+03  -4.647709e+05
  -1.394832e+05   1.796248e+05
  -3.437349e+05   3.970956e+05
  -2.981988e+05  -1.956848e+05
   1.460628e+05  -9.947516e+05
   8.060600e+05  -1.043680e+06
   1.160938e+06  -1.528438e+05
   7.227728e+05   8.436152e+05
  -3.461769e+05   1.002782e+06
  -1.113247e+06   2.683935e+05
  -7.136321e+05  -5.542182e+05
   6.129370e+05  -6.803676e+05
   1.583898e+06  -5.123498e+04
   1.166297e+06   7.489195e+05
  -3.014978e+05   1.072292e+06
  -1.450539e+06   7.002867e+05
  -1.303443e+06  -3.593732e+04
  -2.155444e+05  -5.166129e+05
   5.988331e+05  -3.472033e+05
   3.466427e+05   2.288633e+05
  -5.946002e+05   4.751969e+05
  -1.134535e+06  -1.099223e+05
  -5.972779e+05  -1.154679e+06
   6.164659e+05  -1.627763e+06
   1.454727e+06  -8.444056e+05
   1.243996e+06   7.223178e+05
   2.592099e+05   1.756432e+06
  -6.640640e+05   1.351054e+06
  -9.286088e+05  -5.918091e+04
  -5.476403e+05  -1.130108e+06
   7.559647e+04  -1.006602e+06
   5.149202e+05  -1.474846e+05
   5.395819e+05   3.625291e+05
   2.414448e+05   1.508929e+05
   1.389431e+04  -1.186505e+05
   1.766703e+05   2.228111e+05
   4.984266e+05   8.955796e+05
   3.257051e+05   1.058923e+06
  -5.735248e+05   4.334087e+05
  -1.472810e+06  -3.902660e+05
  -1.370397e+06  -7.581455e+05
  -2.217656e+05  -6.538891e+05
   8.871428e+05  -4.370856e+05
   9.785925e+05  -2.492250e+05
   2.910081e+05  -8.583956e+03
  -1.610199e+05   2.180157e+05
   6.101502e+04   2.448357e+05
   3.540958e+05   1.308979e+05
   1.868131e+04   1.331236e+05
  -7.324815e+05   2.204300e+05
  -1.005760e+06   1.250256e+03
  -3.125440e+05  -6.406200e+05
   8.596665e+05  -1.120463e+06
   1.560715e+06  -7.308688e+05
   1.273972e+06   4.180033e+05
   2.830990e+05   1.370772e+06
  -6.701242e+05   1.333557e+06
  -9.972421e+05   4.999293e+05
  -6.576074e+05  -2.513760e+05
  -1.045520e+05  -3.414891e+05
   1.425160e+05  -1.474582e+04
  -4.962321e+04   7.914271e+04
  -3.462293e+05  -3.193065e+05
  -3.047298e+05  -7.750553e+05
   1.673145e+05  -6.469155e+05
   6.823868e+05   1.513644e+05
   6.997363e+05   9.539347e+05
   5.505877e+04   9.873328e+05
  -7.723764e+05   1.863786e+05
  -1.002063e+06  -7.376886e+05
  -3.217283e+05  -1.040258e+06
   6.815201e+05  -6.211346e+05
   1.046935e+06   5.735246e+04
   4.901147e+05   5.197308e+05
  -2.491905e+05   5.934196e+05
  -2.882917e+05   3.524357e+05
   3.135016e+05   2.874813e+04
   6.479892e+05  -4.864466e+04
   1.274217e+05   2.794233e+05
  -7.771575e+05   6.972969e+05
  -1.139999e+06   6.229104e+05
  -6.724054e+05  -8.801242e+04
   7.002771e+04  -8.172446e+05
   4.420580e+05  -8.193711e+05
   3.344406e+05  -1.188177e+05
   2.985076e+04   4.928807e+05
  -2.309039e+05   3.908828e+05
  -3.505517e+05  -1.953984e+05
  -2.556434e+05  -5.537794e+05
   5.423102e+04  -3.567353e+05
   3.778163e+05   5.865947e+04
   4.478789e+05   2.107722e+05
   2.377007e+05   4.471461e+04
  -5.549338e+03  -9.347347e+04
  -8.063094e+04   6.620518e+04
  -6.676390e+04   3.841465e+05
  -1.579367e+05   4.637595e+05
  -3.429558e+05   1.040709e+05
  -3.706827e+05  -4.297647e+05
  -5.834991e+04  -6.330974e+05
   4.184596e+05  -2.862886e+05
   6.100430e+05   2.922762e+05
   2.316359e+05   5.738693e+05
  -4.606531e+05   3.614066e+05
  -8.197942e+05  -7.356334e+04
  -4.574970e+05  -3.521934e+05
   2.718398e+05  -3.491300e+05
   5.947767e+05  -1.823893e+05
   1.916122e+05  -1.554758e+04
  -4.042417e+05   2.549412e+04
  -4.250501e+05  -1.206756e+05
   2.114728e+05  -3.308244e+05
   8.069114e+05  -2.845604e+05
