
 $NMID
 id='ANONYMOUS ', fmtdat='(2E16.6)'
 volume=1.0
 tramp=1.0
 $END
  -2.637131e+07  -1.628290e+06
  -1.660165e+07  -1.365459e+07
   1.309422e+06  -1.664540e+07
   1.200773e+07  -1.009681e+07
   9.382692e+06  -3.471444e+05
   2.088872e+05   4.696958e+06
  -5.356875e+06   1.951230e+06
  -3.650441e+06  -4.395825e+06
   1.645164e+06  -7.019745e+06
   5.049832e+06  -2.875182e+06
   4.077331e+06   3.632293e+06
   2.682004e+05   5.533385e+06
  -2.625013e+06   1.044862e+06
  -1.842310e+06  -4.616229e+06
   1.784535e+06  -5.234043e+06
   4.405379e+06  -2.258934e+05
   2.964973e+06   5.348001e+06
  -1.576622e+06   6.474652e+06
  -5.236470e+06   2.839552e+06
  -5.093321e+06  -1.826997e+06
  -2.011499e+06  -3.895813e+06
   5.913405e+05  -2.986470e+06
   3.405670e+05  -1.568491e+06
  -1.719236e+06  -1.943481e+06
  -2.225037e+06  -3.731105e+06
   8.199484e+05  -4.415518e+06
   5.397368e+06  -2.336941e+06
   7.079367e+06   1.276304e+06
   3.778703e+06   3.550762e+06
  -1.573175e+06   2.890040e+06
  -3.910271e+06   2.742151e+05
  -1.457150e+06  -1.951442e+06
   2.599285e+06  -1.997197e+06
   3.968775e+06   2.446735e+05
   1.820531e+06   3.032429e+06
  -1.067269e+06   3.828458e+06
  -1.920146e+06   1.638098e+06
  -6.917041e+05  -1.413311e+06
   6.489851e+05  -1.934391e+06
   5.404109e+05   6.831138e+05
  -8.362311e+05   3.113908e+06
  -2.048102e+06   2.054450e+06
  -1.753446e+06  -1.451036e+06
   1.253199e+05  -3.139227e+06
   2.087402e+06  -8.431547e+05
   2.091894e+06   2.860108e+06
  -4.853720e+05   3.840982e+06
  -3.760239e+06   1.095702e+06
  -4.689290e+06  -2.615111e+06
  -2.016663e+06  -4.059709e+06
   2.171058e+06  -2.492319e+06
   4.243216e+06   3.239531e+05
   2.576606e+06   2.051448e+06
  -8.651937e+05   1.630518e+06
  -2.662363e+06  -9.487187e+04
  -1.473570e+06  -1.270065e+06
   8.365475e+05  -8.123782e+05
   1.534507e+06   5.622324e+05
   6.251786e+04   1.227836e+06
  -1.546426e+06   4.672383e+05
  -1.137569e+06  -8.573606e+05
   1.073830e+06  -1.324363e+06
   2.680327e+06  -2.864667e+05
   1.643981e+06   1.687196e+06
  -1.526741e+06   3.194633e+06
  -4.246691e+06   2.845154e+06
  -4.409036e+06   3.847964e+05
  -2.313217e+06  -2.710749e+06
  -3.437716e+04  -4.276331e+06
   8.666529e+05  -3.546847e+06
   6.997014e+05  -1.896417e+06
   7.874150e+05  -1.078576e+06
   1.707863e+06  -1.096295e+06
   2.697547e+06  -5.045353e+05
   2.606504e+06   1.283122e+06
   1.112097e+06   2.845894e+06
  -9.577104e+05   2.353718e+06
  -2.211536e+06  -1.312104e+05
  -1.665351e+06  -2.504069e+06
   4.261783e+05  -2.723636e+06
   2.523909e+06  -7.395147e+05
   2.955950e+06   1.684239e+06
   1.481747e+06   2.775369e+06
  -4.356936e+05   2.253518e+06
  -1.228629e+06   1.210692e+06
  -9.699113e+05   7.549817e+05
  -1.103366e+06   8.936493e+05
  -2.397006e+06   7.122871e+05
  -3.669263e+06  -4.910170e+05
  -2.994506e+06  -2.353289e+06
  -5.934851e+04  -3.663279e+06
   3.119595e+06  -3.349254e+06
   4.051856e+06  -1.393765e+06
   2.232732e+06   9.925346e+05
  -4.083270e+05   2.169762e+06
  -1.486464e+06   1.429531e+06
  -4.428357e+05  -2.432526e+05
   1.185500e+06  -1.037455e+06
   1.588212e+06  -2.218362e+05
   5.225726e+05   1.016171e+06
  -6.859630e+05   9.980837e+05
  -7.066407e+05  -3.105919e+05
   4.690601e+05  -1.125546e+06
   1.637482e+06   1.227727e+04
   1.529725e+06   2.343146e+06
  -1.315864e+05   3.560436e+06
  -2.370705e+06   2.265112e+06
  -3.595091e+06  -5.939892e+05
  -2.810638e+06  -2.748275e+06
  -5.733587e+05  -2.806388e+06
   1.341421e+06  -1.341457e+06
   1.555748e+06  -2.824423e+04
   4.501292e+05   6.133771e+04
  -3.162906e+05  -6.837520e+05
   2.858841e+05  -1.071034e+06
   1.492617e+06  -4.544516e+05
   1.703825e+06   6.302335e+05
   4.364433e+05   1.117442e+06
  -1.017993e+06   5.641581e+05
  -9.963549e+05  -4.154159e+05
   6.492882e+05  -7.817564e+05
   2.267605e+06  -4.724027e+04
   2.062580e+06   1.290412e+06
  -3.245575e+04   2.141969e+06
  -2.219892e+06   1.715300e+06
  -2.605531e+06   2.486860e+05
  -1.050080e+06  -1.073483e+06
   7.911719e+05  -1.150146e+06
   1.199890e+06  -8.085660e+04
   2.995915e+04   8.652506e+05
  -1.356987e+06   5.812016e+05
  -1.568496e+06  -6.540096e+05
  -4.683962e+05  -1.498480e+06
   8.566737e+05  -1.077157e+06
   1.209792e+06   6.371665e+04
   3.970508e+05   6.396127e+05
  -6.031364e+05   7.162180e+04
  -5.854197e+05  -9.450971e+05
   6.247001e+05  -1.239750e+06
   1.867597e+06  -3.530187e+05
   1.782434e+06   1.062412e+06
   2.825636e+05   1.871227e+06
  -1.285726e+06   1.454599e+06
  -1.552608e+06   2.238486e+05
  -5.226903e+05  -7.656506e+05
   5.792400e+05  -7.745836e+05
   7.038180e+05  -3.816403e+04
  -1.960971e+04   5.447774e+05
  -6.338487e+05   3.983123e+05
  -4.614094e+05  -1.289067e+05
   2.326380e+05  -2.244406e+05
   5.657029e+05   3.853185e+05
  -4.576076e+04   1.041739e+06
  -1.227516e+06   8.306075e+05
  -1.894403e+06  -4.070373e+05
  -1.271806e+06  -1.812745e+06
   2.802094e+05  -2.268079e+06
   1.564316e+06  -1.413689e+06
   1.721612e+06   4.521190e+04
   1.008396e+06   1.010832e+06
   3.429408e+05   9.868505e+05
   2.330157e+05   4.443826e+05
   3.348866e+05   2.160911e+05
   2.942821e+04   5.514457e+05
  -7.588688e+05   8.481225e+05
  -1.393736e+06   3.829669e+05
  -1.120367e+06  -7.441486e+05
   1.639215e+05  -1.539692e+06
   1.646432e+06  -1.081658e+06
   2.143638e+06   4.750888e+05
   1.101752e+06   1.936513e+06
  -8.215878e+05   2.143736e+06
  -2.244152e+06   1.009582e+06
  -2.247841e+06  -4.841968e+05
  -1.118452e+06  -1.262342e+06
   7.463347e+04  -1.105523e+06
   5.457099e+05  -6.728144e+05
   3.984669e+05  -6.600262e+05
   2.829922e+05  -1.013677e+06
   6.061062e+05  -1.028489e+06
   1.108247e+06  -2.078043e+05
   1.154499e+06   1.061543e+06
   4.261117e+05   1.782194e+06
  -6.511134e+05   1.308230e+06
  -1.209882e+06  -5.503065e+03
  -7.651403e+05  -1.124380e+06
   2.598080e+05  -1.266225e+06
   9.223169e+05  -5.148047e+05
   7.123578e+05   4.033174e+05
   3.932132e+04   8.447788e+05
  -2.884858e+05   7.430606e+05
   6.859236e+02   4.787580e+05
   3.441730e+05   3.758692e+05
   1.307717e+04   3.771114e+05
  -9.878767e+05   1.884967e+05
  -1.782741e+06  -3.242519e+05
  -1.460640e+06  -9.309824e+05
  -6.368939e+04  -1.219114e+06
   1.336305e+06  -9.568936e+05
   1.643971e+06  -3.030275e+05
   8.125787e+05   2.934307e+05
  -1.817592e+05   4.291636e+05
  -4.243692e+05   9.394423e+04
   4.268635e+04  -2.739274e+05
   4.804661e+05  -1.869886e+05
   4.099960e+05   3.375781e+05
   6.504649e+04   7.158113e+05
  -6.202952e+04   4.535933e+05
   1.490565e+05  -1.801517e+05
   3.808762e+05  -3.796751e+05
   2.741977e+05   2.091631e+05
  -2.373659e+05   9.550128e+05
  -8.630331e+05   9.283239e+05
  -1.099225e+06   2.329786e+04
  -5.899530e+05  -8.794820e+05
   4.233422e+05  -9.080198e+05
   1.079054e+06  -1.321690e+05
   6.356262e+05   6.038333e+05
  -6.391971e+05   6.060534e+05
  -1.536895e+06  -6.793020e+04
  -1.093499e+06  -8.054460e+05
   3.497838e+05  -1.023821e+06
   1.455256e+06  -5.908978e+05
   1.272400e+06   1.201441e+05
   1.791498e+05   5.193987e+05
  -5.998578e+05   2.960457e+05
  -3.033862e+05  -2.424198e+05
   6.282783e+05  -3.948103e+05
   1.083077e+06   2.248955e+05
   4.514101e+05   1.178096e+06
  -7.663839e+05   1.507840e+06
  -1.491689e+06   6.700400e+05
  -1.135820e+06  -8.148070e+05
  -9.452934e+04  -1.722138e+06
   7.547895e+05  -1.259675e+06
   8.920827e+05   1.187043e+05
   4.485767e+05   1.130874e+06
  -1.336076e+05   9.731563e+05
  -5.001751e+05   1.067144e+05
  -5.069339e+05  -3.969418e+05
  -2.400209e+05  -1.690256e+05
  -1.527604e+04   1.179367e+05
  -1.213778e+05  -2.216890e+05
  -3.919894e+05  -9.027358e+05
  -2.466682e+05  -1.049585e+06
   5.631864e+05  -3.681027e+05
   1.390673e+06   5.037773e+05
   1.277964e+06   8.457923e+05
   1.590956e+05   6.445747e+05
  -9.130315e+05   3.455803e+05
  -9.712244e+05   1.640541e+05
  -2.631016e+05  -8.365125e+03
   1.822036e+05  -1.955390e+05
  -6.209205e+04  -2.487759e+05
  -3.563842e+05  -1.659159e+05
   2.893061e+03  -1.330531e+05
   7.531846e+05  -1.431248e+05
   9.677499e+05   9.603965e+04
   2.078738e+05   6.477170e+05
  -9.542135e+05   9.928634e+05
  -1.556334e+06   5.440593e+05
  -1.162900e+06  -5.362170e+05
  -1.412201e+05  -1.352409e+06
   7.602696e+05  -1.215752e+06
   1.008308e+06  -3.757525e+05
   6.171029e+05   3.140109e+05
   5.963376e+04   3.399003e+05
  -1.620807e+05  -8.923076e+03
   4.409505e+04  -8.664358e+04
   3.148486e+05   3.293270e+05
   2.338176e+05   7.722167e+05
  -2.252019e+05   6.041509e+05
  -6.516564e+05  -2.225477e+05
  -5.770250e+05  -1.000940e+06
   6.279005e+04  -9.588498e+05
   7.796480e+05  -8.983412e+04
   8.951905e+05   8.242519e+05
   2.001282e+05   1.033333e+06
  -7.201990e+05   5.202534e+05
  -9.934855e+05  -1.592378e+05
  -4.089244e+05  -5.320931e+05
   2.963818e+05  -5.279296e+05
   2.918272e+05  -3.049067e+05
  -3.217393e+05  -6.033906e+04
  -6.349271e+05  -1.438921e+04
  -8.938305e+04  -2.781908e+05
   8.116450e+05  -6.042814e+05
   1.134296e+06  -5.090487e+05
   6.160903e+05   1.335141e+05
  -1.452549e+05   7.732407e+05
  -4.839491e+05   7.373254e+05
  -3.152432e+05   6.495955e+04
   2.557295e+04  -4.884034e+05
   2.643131e+05  -3.450322e+05
   3.247295e+05   2.386426e+05
   1.929216e+05   5.582984e+05
  -9.323757e+04   3.227250e+05
  -3.595160e+05  -9.945166e+04
  -4.032500e+05  -2.322879e+05
  -2.224974e+05  -5.317967e+04
  -1.549928e+04   7.773654e+04
   7.752679e+04  -8.674938e+04
   1.231832e+05  -3.812298e+05
   2.357103e+05  -4.190717e+05
   3.586377e+05  -3.688674e+04
   2.971952e+05   4.754850e+05
  -3.473785e+04   6.250033e+05
  -4.410106e+05   2.299393e+05
  -5.508344e+05  -3.528397e+05
  -1.621888e+05  -5.838540e+05
   4.720446e+05  -3.019382e+05
   7.736776e+05   1.571150e+05
   4.028955e+05   3.831257e+05
  -2.969523e+05   2.972233e+05
  -5.883616e+05   1.025170e+05
  -1.718689e+05  -8.696881e+03
   4.157635e+05   2.382321e+04
   4.109165e+05   1.750890e+05
  -2.488356e+05   3.153847e+05
  -8.320589e+05   2.045423e+05
