
 $NMID
 id='ANONYMOUS ', fmtdat='(2E16.6)'
 volume=1.0
 tramp=1.0
 $END
   4.831495e+07   1.132324e+06
   2.821168e+07   3.066027e+07
  -7.271035e+06   3.248985e+07
  -2.389177e+07   1.186170e+07
  -1.383469e+07  -6.410212e+06
   3.071713e+06  -7.872346e+06
   8.312482e+06   1.302195e+06
   2.108449e+06   8.374504e+06
  -5.473420e+06   7.768843e+06
  -8.246275e+06   1.470938e+06
  -5.861426e+06  -5.418466e+06
  -5.637231e+05  -7.349663e+06
   3.463213e+06  -2.295834e+06
   2.180521e+06   4.643684e+06
  -3.305743e+06   5.473482e+06
  -6.676745e+06  -1.314377e+06
  -3.585848e+06  -8.798607e+06
   3.465207e+06  -9.999232e+06
   8.764252e+06  -4.864541e+06
   9.242817e+06   1.953728e+06
   5.564903e+06   6.569017e+06
   4.170798e+05   7.482019e+06
  -2.681944e+06   5.140382e+06
  -1.701526e+06   2.185582e+06
   9.274621e+05   1.748933e+06
   2.260625e+05   3.539059e+06
  -4.631096e+06   3.727247e+06
  -8.260148e+06   3.413559e+05
  -5.985634e+06  -3.623404e+06
  -1.752691e+05  -4.375780e+06
   3.204691e+06  -2.214405e+06
   2.166339e+06  -2.495170e+04
  -4.339435e+05   8.126675e+05
  -1.898555e+06   4.658145e+05
  -1.895340e+06  -1.186377e+06
  -6.070428e+05  -3.367006e+06
   1.596811e+06  -3.300511e+06
   2.826864e+06   1.384772e+05
   1.439177e+06   3.182689e+06
  -7.404501e+05   1.681234e+06
  -3.234172e+05  -2.088285e+06
   2.105972e+06  -1.924107e+06
   2.016460e+06   2.773097e+06
  -2.224166e+06   5.174833e+06
  -5.996482e+06   6.892956e+05
  -4.244328e+06  -6.057827e+06
   1.825988e+06  -7.262828e+06
   6.407877e+06  -1.929463e+06
   5.845150e+06   3.906024e+06
   1.461547e+06   5.149182e+06
  -2.992395e+06   2.237364e+06
  -4.425258e+06  -1.382417e+06
  -1.982436e+06  -2.995103e+06
   2.109338e+06  -1.813027e+06
   3.841256e+06   8.796078e+05
   1.602001e+06   2.359297e+06
  -1.496223e+06   1.136514e+06
  -1.455974e+06  -8.970975e+05
   1.149008e+06  -7.257758e+05
   2.047932e+06   1.574010e+06
  -6.484945e+05   2.919521e+06
  -4.018661e+06   1.500642e+06
  -4.489048e+06  -1.285151e+06
  -1.888731e+06  -3.445183e+06
   1.617947e+06  -4.476797e+06
   4.332844e+06  -4.085460e+06
   5.321732e+06  -1.420977e+06
   3.892803e+06   2.766995e+06
   7.294924e+05   5.290719e+06
  -1.661422e+06   4.023799e+06
  -1.508416e+06   9.784016e+05
  -9.022791e+04  -2.298325e+05
   6.064520e+04   8.702631e+05
  -1.376942e+06   1.562560e+06
  -2.429091e+06   2.152313e+05
  -1.751776e+06  -1.652617e+06
  -3.577869e+04  -1.841212e+06
   1.314048e+06  -1.891028e+05
   1.422277e+06   1.764179e+06
  -1.220396e+04   2.506458e+06
  -2.385658e+06   1.400028e+06
  -3.829256e+06  -1.065091e+06
  -2.720382e+06  -3.272767e+06
   9.923112e+04  -3.637431e+06
   2.008833e+06  -2.296718e+06
   1.939384e+06  -9.267688e+05
   1.572570e+06  -5.432389e+05
   2.509576e+06  -3.657824e+05
   3.697996e+06   7.037108e+05
   2.941968e+06   2.400681e+06
   6.755678e+04   3.523462e+06
  -2.773839e+06   3.302853e+06
  -3.587427e+06   1.786543e+06
  -2.281804e+06  -3.740867e+05
  -2.341109e+05  -1.922333e+06
   9.535774e+05  -1.660450e+06
   4.881649e+05   3.234429e+04
  -9.412795e+05   1.116351e+06
  -1.641118e+06   3.208133e+05
  -7.819946e+05  -1.049446e+06
   4.485102e+05  -9.521715e+05
   3.513231e+05   3.318103e+05
  -9.226577e+05   5.571143e+05
  -1.545674e+06  -1.156986e+06
  -4.630812e+05  -2.986792e+06
   1.428096e+06  -2.847619e+06
   2.678957e+06  -8.617780e+05
   2.770638e+06   1.281078e+06
   1.890206e+06   2.357641e+06
   3.613014e+05   2.215773e+06
  -1.069509e+06   1.241521e+06
  -1.351581e+06   1.859682e+05
  -4.214614e+05  -4.438915e+04
   2.979605e+05   6.486601e+05
  -3.778337e+05   1.147452e+06
  -1.652547e+06   4.693755e+05
  -1.732903e+06  -7.968905e+05
  -3.041056e+05  -1.224315e+06
   1.012989e+06  -4.714161e+05
   7.474722e+05   3.976851e+05
  -7.327869e+05   4.174974e+05
  -1.842289e+06  -3.121419e+05
  -1.454568e+06  -1.171093e+06
   2.402108e+05  -1.663354e+06
   1.988110e+06  -1.379123e+06
   2.375696e+06  -1.999502e+05
   1.027493e+06   1.105579e+06
  -8.145136e+05   1.285216e+06
  -1.352808e+06   1.418913e+05
  -1.634679e+05  -9.387123e+05
   1.313492e+06  -6.162195e+05
   1.461504e+06   6.964574e+05
   2.577093e+05   1.418312e+06
  -9.534050e+05   8.088857e+05
  -1.065340e+06  -2.962802e+05
  -1.881543e+05  -6.743319e+05
   6.910070e+05  -3.237518e+04
   6.231344e+05   9.164424e+05
  -5.079696e+05   1.220485e+06
  -1.730776e+06   4.490440e+05
  -1.739758e+06  -9.229536e+05
  -3.053658e+05  -1.788091e+06
   1.260463e+06  -1.392107e+06
   1.484642e+06  -1.539591e+05
   4.140849e+05   7.528121e+05
  -5.769378e+05   6.772075e+05
  -5.377695e+05   6.175246e+04
   1.069777e+05  -2.926006e+05
   4.081080e+05  -1.639817e+05
   8.453156e+04   4.521672e+04
  -3.869264e+05  -9.431425e+04
  -4.233721e+05  -5.951275e+05
   2.034128e+05  -1.014171e+06
   1.199548e+06  -7.473250e+05
   1.780979e+06   3.815782e+05
   1.235782e+06   1.685794e+06
  -2.115081e+05   2.071791e+06
  -1.395422e+06   1.183650e+06
  -1.433882e+06  -1.313786e+05
  -7.131348e+05  -7.626179e+05
  -2.690414e+05  -5.370264e+05
  -4.247620e+05  -1.837681e+05
  -5.467529e+05  -2.870078e+05
  -6.760732e+04  -6.669288e+05
   7.654917e+05  -7.576641e+05
   1.239087e+06  -2.546288e+05
   8.811610e+05   6.239443e+05
  -2.336555e+05   1.232629e+06
  -1.483446e+06   8.910564e+05
  -1.915659e+06  -4.405673e+05
  -9.396080e+05  -1.813417e+06
   9.052091e+05  -2.013726e+06
   2.197958e+06  -8.433511e+05
   1.997269e+06   6.031189e+05
   7.857243e+05   1.152504e+06
  -1.914846e+05   7.890415e+05
  -3.228437e+05   4.228684e+05
  -5.577932e+04   6.546415e+05
  -9.757524e+04   1.136081e+06
  -5.959806e+05   1.105982e+06
  -1.120626e+06   2.601893e+05
  -1.139607e+06  -9.403680e+05
  -4.598644e+05  -1.630475e+06
   5.463579e+05  -1.226865e+06
   1.100132e+06   1.784626e+04
   6.766694e+05   1.114309e+06
  -3.606438e+05   1.190259e+06
  -1.008809e+06   3.185342e+05
  -6.824951e+05  -6.260759e+05
   1.341631e+05  -9.267355e+05
   4.842394e+05  -6.565505e+05
   8.179122e+04  -3.465748e+05
  -3.727871e+05  -2.896484e+05
  -5.022397e+04  -3.284597e+05
   9.924263e+05  -1.637222e+05
   1.773037e+06   3.129985e+05
   1.374228e+06   9.120305e+05
  -6.104908e+04   1.234764e+06
  -1.388963e+06   9.611093e+05
  -1.575697e+06   2.093454e+05
  -7.007050e+05  -4.459216e+05
   2.379909e+05  -4.902683e+05
   4.411014e+05  -1.615858e+04
   2.385976e+04   3.721473e+05
  -3.781456e+05   2.220331e+05
  -4.120433e+05  -2.980097e+05
  -2.242261e+05  -6.227568e+05
  -8.991120e+04  -4.146671e+05
  -1.146370e+05   7.183277e+04
  -2.294534e+05   2.404208e+05
  -2.311467e+05  -2.025325e+05
   1.226205e+05  -8.423071e+05
   7.823319e+05  -9.087029e+05
   1.187865e+06  -1.426885e+05
   7.389609e+05   7.958654e+05
  -3.694440e+05   9.866352e+05
  -1.094926e+06   2.896634e+05
  -6.282687e+05  -4.937868e+05
   6.111577e+05  -5.458757e+05
   1.352783e+06   1.037579e+05
   8.337724e+05   7.487448e+05
  -4.360170e+05   8.273856e+05
  -1.280301e+06   3.758203e+05
  -1.038792e+06  -1.833964e+05
  -1.030460e+05  -4.364968e+05
   5.597212e+05  -2.167121e+05
   3.312201e+05   2.621423e+05
  -5.001665e+05   4.541316e+05
  -1.019951e+06  -6.498532e+04
  -5.865473e+05  -1.015346e+06
   4.988076e+05  -1.470086e+06
   1.272662e+06  -7.668314e+05
   1.076643e+06   6.505459e+05
   1.669859e+05   1.535251e+06
  -6.410371e+05   1.095765e+06
  -7.864046e+05  -1.693357e+05
  -3.481752e+05  -1.024522e+06
   2.103697e+05  -8.163856e+05
   4.865385e+05  -5.968076e+04
   3.849254e+05   3.212870e+05
   1.257115e+05   1.113234e+05
   4.709936e+04  -7.571896e+04
   2.575050e+05   2.696844e+05
   4.385288e+05   8.383343e+05
   1.393047e+05   9.194188e+05
  -6.360552e+05   3.267450e+05
  -1.259674e+06  -4.064836e+05
  -1.075405e+06  -7.220403e+05
  -1.516929e+05  -6.039070e+05
   7.185603e+05  -3.604301e+05
   8.382017e+05  -1.460055e+05
   3.215421e+05   6.004703e+04
  -1.197039e+05   1.960907e+05
  -4.993228e+04   1.620629e+05
   2.074233e+05   6.625421e+04
   5.203280e+04   1.147503e+05
  -5.466741e+05   2.140587e+05
  -9.038170e+05  -5.495268e+03
  -4.037985e+05  -6.056559e+05
   7.057631e+05  -1.029275e+06
   1.481259e+06  -6.628169e+05
   1.244691e+06   3.638176e+05
   2.457093e+05   1.206943e+06
  -6.684890e+05   1.189443e+06
  -9.063174e+05   4.788636e+05
  -5.624884e+05  -1.857894e+05
  -1.255382e+05  -3.105188e+05
   4.176506e+04  -7.519500e+04
  -7.501406e+04  -3.616552e+03
  -2.455082e+05  -3.221066e+05
  -2.022984e+05  -6.939389e+05
   1.497291e+05  -5.907228e+05
   5.840193e+05   8.530438e+04
   6.552156e+05   8.029596e+05
   1.294541e+05   8.946485e+05
  -6.356717e+05   2.422253e+05
  -9.042760e+05  -5.955092e+05
  -3.193360e+05  -9.407692e+05
   6.106789e+05  -6.047592e+05
   9.768186e+05   5.584076e+04
   4.710939e+05   5.456879e+05
  -2.506713e+05   6.077044e+05
  -3.477772e+05   3.199461e+05
   1.906999e+05  -5.466155e+03
   5.532307e+05  -4.032052e+04
   1.345623e+05   2.705752e+05
  -7.084516e+05   5.827751e+05
  -1.100480e+06   4.465753e+05
  -6.776856e+05  -1.733440e+05
   7.987204e+04  -7.584336e+05
   4.956246e+05  -7.452140e+05
   3.927196e+05  -1.547323e+05
   6.229600e+04   4.040159e+05
  -2.016240e+05   3.896681e+05
  -3.053711e+05  -1.030984e+05
  -2.246091e+05  -4.956702e+05
   4.052847e+04  -3.892946e+05
   3.391567e+05   2.709372e+04
   4.162328e+05   2.564981e+05
   2.073981e+05   9.617183e+04
  -3.909441e+04  -1.483564e+05
  -6.668029e+04  -7.364439e+04
   4.537582e+04   2.940325e+05
   9.897600e+02   5.050906e+05
  -2.648681e+05   2.334127e+05
  -4.306986e+05  -3.010690e+05
  -1.797482e+05  -5.588504e+05
   3.396110e+05  -2.861745e+05
   5.913762e+05   2.235541e+05
   2.351260e+05   4.846179e+05
  -4.425530e+05   3.201193e+05
  -7.759913e+05  -5.127084e+04
  -4.218857e+05  -3.228686e+05
   2.530491e+05  -3.642510e+05
   5.584023e+05  -2.212488e+05
   2.348521e+05  -1.863997e+04
  -2.739727e+05   8.381809e+04
  -3.446190e+05  -2.405973e+04
   1.191842e+05  -2.386125e+05
   6.029416e+05  -2.442050e+05
