
 $NMID
 id='ANONYMOUS ', fmtdat='(2E16.6)'
 volume=1.0
 tramp=1.0
 $END
  -2.811191e+07   2.081480e+06
  -2.011749e+07  -1.190514e+07
  -1.443125e+06  -1.808259e+07
   1.158949e+07  -1.294440e+07
   1.053310e+07  -1.886702e+06
   1.044233e+06   5.213103e+06
  -5.782832e+06   3.005945e+06
  -4.769717e+06  -4.403921e+06
   9.149948e+05  -8.100562e+06
   5.228228e+06  -3.920609e+06
   4.865289e+06   3.413389e+06
   9.233219e+05   5.963800e+06
  -2.668856e+06   1.394320e+06
  -2.448108e+06  -4.886914e+06
   1.384996e+06  -6.021195e+06
   4.823483e+06  -8.853170e+05
   3.964661e+06   5.408391e+06
  -8.091646e+05   7.238310e+06
  -5.203838e+06   3.755002e+06
  -5.594316e+06  -1.258619e+06
  -2.585505e+06  -3.744192e+06
   1.267228e+05  -3.063228e+06
  -1.197290e+05  -1.740660e+06
  -2.260184e+06  -2.194508e+06
  -2.735312e+06  -4.086836e+06
   5.991090e+05  -4.917536e+06
   5.675639e+06  -2.962280e+06
   7.756706e+06   7.443461e+05
   4.393908e+06   3.408232e+06
  -1.448332e+06   3.142811e+06
  -4.187465e+06   5.276873e+05
  -1.623460e+06  -2.062694e+06
   2.859819e+06  -2.360430e+06
   4.451850e+06   6.703184e+04
   2.169341e+06   3.256909e+06
  -9.261534e+05   4.234794e+06
  -1.869467e+06   1.886058e+06
  -7.090535e+05  -1.413493e+06
   5.531011e+05  -1.994630e+06
   4.955284e+05   8.046749e+05
  -7.532808e+05   3.484584e+06
  -2.071048e+06   2.466728e+06
  -2.142527e+06  -1.351947e+06
  -3.914753e+05  -3.507454e+06
   2.040106e+06  -1.386407e+06
   2.675173e+06   2.659288e+06
   1.117666e+05   4.197750e+06
  -3.858043e+06   1.690519e+06
  -5.439754e+06  -2.305066e+06
  -2.700834e+06  -4.268275e+06
   2.134442e+06  -3.016241e+06
   4.766225e+06  -1.050536e+05
   3.124433e+06   2.010540e+06
  -7.245641e+05   1.949764e+06
  -2.934967e+06   2.618498e+05
  -1.809187e+06  -1.197504e+06
   7.903289e+05  -1.000139e+06
   1.769448e+06   4.631040e+05
   2.121860e+05   1.449617e+06
  -1.767774e+06   7.933420e+05
  -1.555840e+06  -8.517338e+05
   9.036932e+05  -1.742486e+06
   2.941698e+06  -7.617897e+05
   2.072981e+06   1.603966e+06
  -1.296108e+06   3.608988e+06
  -4.330484e+06   3.480396e+06
  -4.712657e+06   8.465207e+05
  -2.731018e+06  -2.665626e+06
  -4.719676e+05  -4.615652e+06
   5.516196e+05  -4.020013e+06
   6.135923e+05  -2.255331e+06
   8.874978e+05  -1.282788e+06
   1.882431e+06  -1.264005e+06
   2.921797e+06  -6.696117e+05
   2.903174e+06   1.255454e+06
   1.382877e+06   3.048078e+06
  -9.159966e+05   2.643025e+06
  -2.471207e+06  -1.127194e+04
  -2.033243e+06  -2.654463e+06
   2.481085e+05  -3.024576e+06
   2.675334e+06  -1.010544e+06
   3.333005e+06   1.552129e+06
   1.866109e+06   2.815238e+06
  -1.948084e+05   2.435972e+06
  -1.132442e+06   1.448343e+06
  -9.407804e+05   9.784065e+05
  -1.133004e+06   1.136000e+06
  -2.592644e+06   1.033256e+06
  -4.103009e+06  -1.860434e+05
  -3.526799e+06  -2.314828e+06
  -3.987570e+05  -4.038211e+06
   3.145003e+06  -3.963155e+06
   4.332337e+06  -1.866493e+06
   2.510713e+06   9.110270e+05
  -2.940463e+05   2.399294e+06
  -1.514218e+06   1.669090e+06
  -4.940875e+05  -2.329567e+05
   1.215524e+06  -1.233978e+06
   1.719314e+06  -3.922195e+05
   6.605997e+05   1.051416e+06
  -6.755454e+05   1.150442e+06
  -8.252048e+05  -2.976151e+05
   4.262565e+05  -1.340348e+06
   1.883786e+06  -1.886988e+05
   1.998824e+06   2.477376e+06
   2.054906e+05   4.055260e+06
  -2.477034e+06   2.806844e+06
  -4.103520e+06  -3.379718e+05
  -3.375231e+06  -2.844543e+06
  -8.667778e+05  -3.082043e+06
   1.372716e+06  -1.591736e+06
   1.711789e+06  -1.564537e+05
   5.023357e+05   2.782932e+04
  -4.108686e+05  -7.265436e+05
   2.053647e+05  -1.208710e+06
   1.593015e+06  -6.499632e+05
   1.945320e+06   5.243540e+05
   5.989198e+05   1.192665e+06
  -1.074364e+06   7.201891e+05
  -1.146513e+06  -3.815165e+05
   6.628931e+05  -9.444806e+05
   2.538801e+06  -2.531080e+05
   2.415376e+06   1.274816e+06
   1.434157e+05   2.400328e+06
  -2.319102e+06   2.099440e+06
  -2.862542e+06   5.058272e+05
  -1.261206e+06  -1.084057e+06
   7.537486e+05  -1.336368e+06
   1.302866e+06  -2.088754e+05
   1.122934e+05   9.378029e+05
  -1.440461e+06   7.627170e+05
  -1.797394e+06  -5.784856e+05
  -6.617159e+05  -1.624520e+06
   8.552287e+05  -1.286273e+06
   1.360488e+06  -4.534423e+04
   5.094735e+05   6.785158e+05
  -6.558361e+05   1.417889e+05
  -7.288879e+05  -9.863031e+05
   5.803874e+05  -1.417838e+06
   2.026095e+06  -5.496263e+05
   2.056843e+06   1.013978e+06
   4.800471e+05   2.038369e+06
  -1.285847e+06   1.724962e+06
  -1.697719e+06   3.916724e+05
  -6.522921e+05  -8.016045e+05
   5.716479e+05  -9.118638e+05
   7.777289e+05  -9.621834e+04
   1.657691e+04   6.192920e+05
  -6.874826e+05   4.941037e+05
  -5.327905e+05  -1.277956e+05
   2.494124e+05  -2.942310e+05
   6.803238e+05   3.716098e+05
   5.243153e+04   1.164610e+06
  -1.282623e+06   1.032568e+06
  -2.130203e+06  -2.803472e+05
  -1.564954e+06  -1.887835e+06
   1.124472e+05  -2.531337e+06
   1.614647e+06  -1.704970e+06
   1.921337e+06  -9.720968e+04
   1.204862e+06   1.050469e+06
   4.455959e+05   1.081970e+06
   2.728812e+05   4.684287e+05
   3.839792e+05   1.903793e+05
   8.956474e+04   5.978736e+05
  -7.632556e+05   1.011186e+06
  -1.517110e+06   5.485759e+05
  -1.308872e+06  -7.373602e+05
   5.340609e+04  -1.732344e+06
   1.734466e+06  -1.344937e+06
   2.416325e+06   3.398616e+05
   1.395124e+06   2.047963e+06
  -7.097705e+05   2.451170e+06
  -2.392076e+06   1.327503e+06
  -2.542435e+06  -3.337402e+05
  -1.359719e+06  -1.313122e+06
  -6.509440e+03  -1.248020e+06
   5.651809e+05  -7.903899e+05
   3.941222e+05  -7.432778e+05
   2.180420e+05  -1.126256e+06
   5.673777e+05  -1.186092e+06
   1.198239e+06  -3.309968e+05
   1.364821e+06   1.068886e+06
   6.250272e+05   1.929653e+06
  -6.054959e+05   1.500008e+06
  -1.339960e+06   1.005601e+05
  -9.519086e+05  -1.173991e+06
   1.681124e+05  -1.429996e+06
   9.768987e+05  -6.683332e+05
   8.384345e+05   3.695157e+05
   1.355724e+05   9.347001e+05
  -2.449099e+05   8.623970e+05
   4.112830e+04   5.390315e+05
   4.079961e+05   3.845828e+05
   4.489822e+04   4.147172e+05
  -1.073047e+06   3.016033e+05
  -1.995614e+06  -1.922439e+05
  -1.699985e+06  -8.963142e+05
  -1.906952e+05  -1.344979e+06
   1.381049e+06  -1.182666e+06
   1.792898e+06  -4.877647e+05
   9.378778e+05   2.473854e+05
  -1.538401e+05   4.908314e+05
  -4.632590e+05   1.479108e+05
   1.823905e+04  -2.974835e+05
   5.147961e+05  -2.433443e+05
   4.811948e+05   3.354777e+05
   1.255537e+05   7.775515e+05
  -3.542796e+04   4.981507e+05
   1.560443e+05  -2.155377e+05
   4.004698e+05  -4.509936e+05
   3.235071e+05   2.084962e+05
  -1.851685e+05   1.073486e+06
  -8.701767e+05   1.099822e+06
  -1.198314e+06   1.280038e+05
  -7.203468e+05  -9.092630e+05
   3.796274e+05  -1.033610e+06
   1.166816e+06  -2.402105e+05
   7.507408e+05   6.119010e+05
  -6.531181e+05   7.290385e+05
  -1.711646e+06   5.896925e+04
  -1.289466e+06  -8.047655e+05
   2.982530e+05  -1.176113e+06
   1.570844e+06  -7.865142e+05
   1.428843e+06   2.531818e+04
   2.443650e+05   5.644839e+05
  -6.404033e+05   3.834909e+05
  -3.568866e+05  -2.362680e+05
   6.580830e+05  -4.830551e+05
   1.207923e+06   1.582372e+05
   5.912270e+05   1.255745e+06
  -7.187637e+05   1.718997e+06
  -1.586024e+06   8.600111e+05
  -1.320918e+06  -8.034086e+05
  -2.501980e+05  -1.893962e+06
   7.299482e+05  -1.459827e+06
   1.002669e+06   5.182552e+04
   5.981177e+05   1.216093e+06
  -6.276434e+04   1.097313e+06
  -5.450690e+05   1.655332e+05
  -5.967930e+05  -4.014429e+05
  -2.819793e+05  -1.737032e+05
  -6.917160e+03   1.353701e+05
  -1.511713e+05  -2.224019e+05
  -5.102760e+05  -9.586499e+05
  -3.668417e+05  -1.146682e+06
   5.856886e+05  -4.648368e+05
   1.580226e+06   4.381029e+05
   1.489607e+06   8.314121e+05
   2.334217e+05   6.981925e+05
  -9.824032e+05   4.535628e+05
  -1.062727e+06   2.641338e+05
  -2.914084e+05   2.135048e+04
   1.853748e+05  -2.286868e+05
  -9.153962e+04  -2.794901e+05
  -4.090381e+05  -1.636072e+05
  -5.440346e+03  -1.444519e+05
   8.221918e+05  -2.119724e+05
   1.073189e+06   2.373272e+04
   2.779931e+05   6.844586e+05
  -9.684433e+05   1.166592e+06
  -1.661099e+06   7.350355e+05
  -1.317732e+06  -4.854300e+05
  -2.681537e+05  -1.478088e+06
   7.306166e+05  -1.406893e+06
   1.074954e+06  -4.972592e+05
   7.041909e+05   2.979861e+05
   9.251517e+04   3.664596e+05
  -1.798810e+05  -6.090681e+03
   4.473048e+04  -1.057159e+05
   3.805738e+05   3.383627e+05
   3.263737e+05   8.350561e+05
  -1.962033e+05   6.829081e+05
  -7.337169e+05  -1.950939e+05
  -7.136469e+05  -1.053847e+06
  -7.494906e+03  -1.053930e+06
   8.482764e+05  -1.559028e+05
   1.049294e+06   8.350584e+05
   3.059248e+05   1.117424e+06
  -7.452526e+05   6.301638e+05
  -1.104558e+06  -8.862523e+04
  -4.984531e+05  -5.440273e+05
   2.747116e+05  -6.031845e+05
   2.897899e+05  -3.660824e+05
  -3.623491e+05  -4.756749e+04
  -7.017693e+05   3.582452e+04
  -1.219909e+05  -2.959373e+05
   8.444746e+05  -7.365938e+05
   1.208432e+06  -6.679156e+05
   6.913487e+05   8.399258e+04
  -9.183241e+04   8.626669e+05
  -4.636691e+05   8.584660e+05
  -3.323905e+05   1.017460e+05
  -8.158918e+03  -5.393013e+05
   2.593208e+05  -3.991667e+05
   3.728096e+05   2.402091e+05
   2.594921e+05   5.984350e+05
  -7.095288e+04   3.581888e+05
  -4.020844e+05  -8.065371e+04
  -4.671684e+05  -2.165047e+05
  -2.536465e+05  -3.680212e+04
  -7.978851e+03   8.051461e+04
   8.781797e+04  -1.095813e+05
   1.133648e+05  -4.253472e+05
   2.262617e+05  -4.653977e+05
   3.840588e+05  -5.933021e+04
   3.551166e+05   4.961870e+05
   6.116383e+03   6.820562e+05
  -4.659306e+05   2.858265e+05
  -6.303807e+05  -3.410169e+05
  -2.238123e+05  -6.286202e+05
   4.924907e+05  -3.742992e+05
   8.609813e+05   1.057146e+05
   4.753468e+05   3.863619e+05
  -2.974752e+05   3.495978e+05
  -6.330701e+05   1.606692e+05
  -1.857146e+05   9.159652e+03
   4.603850e+05   1.200672e+03
   4.630243e+05   1.656811e+05
  -2.555903e+05   3.663934e+05
  -9.062751e+05   2.871680e+05
