
 $NMID
 id='ANONYMOUS ', fmtdat='(2E16.6)'
 volume=1.0
 tramp=1.0
 $END
  -5.146045e+07  -4.829168e+05
  -3.090967e+07  -3.152746e+07
   6.586000e+06  -3.456391e+07
   2.506675e+07  -1.381305e+07
   1.527009e+07   5.834209e+06
  -2.756750e+06   8.546243e+06
  -9.075408e+06  -7.193680e+05
  -2.896602e+06  -8.879624e+06
   5.458157e+06  -8.940809e+06
   8.890804e+06  -2.121575e+06
   6.507155e+06   5.802596e+06
   7.110930e+05   8.112624e+06
  -3.783980e+06   2.459111e+06
  -2.507052e+06  -5.320641e+06
   3.445252e+06  -6.332158e+06
   7.298457e+06   1.098550e+06
   4.176675e+06   9.423361e+06
  -3.451878e+06   1.091955e+07
  -9.331893e+06   5.378594e+06
  -9.879337e+06  -2.053058e+06
  -5.846777e+06  -6.935000e+06
  -4.429518e+05  -7.732938e+06
   2.519201e+06  -5.299385e+06
   1.261484e+06  -2.546169e+06
  -1.317830e+06  -2.414827e+06
  -8.676570e+04  -4.238038e+06
   5.428069e+06  -4.074725e+06
   9.272324e+06  -1.964254e+05
   6.519982e+06   4.059967e+06
  -6.463342e+04   4.729349e+06
  -3.779991e+06   2.203516e+06
  -2.331006e+06  -3.215487e+05
   9.326295e+05  -1.143509e+06
   2.580607e+06  -3.917166e+05
   2.160873e+06   1.705745e+06
   4.084222e+05   3.943610e+06
  -1.839960e+06   3.498375e+06
  -2.826411e+06  -3.426025e+05
  -1.309240e+06  -3.379169e+06
   7.597925e+05  -1.488673e+06
   1.568241e+05   2.589995e+06
  -2.396944e+06   2.273262e+06
  -2.329077e+06  -2.911656e+06
   2.061404e+06  -5.630698e+06
   6.147313e+06  -9.570343e+05
   4.597648e+06   6.279919e+06
  -1.704627e+06   7.752957e+06
  -6.839791e+06   2.181334e+06
  -6.586145e+06  -4.165285e+06
  -1.875389e+06  -5.718594e+06
   3.267890e+06  -2.680839e+06
   5.103404e+06   1.330107e+06
   2.455243e+06   3.254636e+06
  -2.164555e+06   2.099946e+06
  -4.223388e+06  -7.963235e+05
  -1.868421e+06  -2.486503e+06
   1.578248e+06  -1.275594e+06
   1.711278e+06   9.524021e+05
  -1.086714e+06   9.673385e+05
  -2.313900e+06  -1.383532e+06
   3.322708e+05  -2.998559e+06
   4.039138e+06  -1.789910e+06
   4.864720e+06   1.092539e+06
   2.200303e+06   3.603988e+06
  -1.774564e+06   4.936835e+06
  -4.914218e+06   4.527356e+06
  -5.929747e+06   1.516625e+06
  -4.218176e+06  -3.110462e+06
  -7.865528e+05  -5.887265e+06
   1.703933e+06  -4.582176e+06
   1.582856e+06  -1.339974e+06
   2.625944e+05   1.710179e+04
   2.695551e+05  -1.022447e+06
   1.813483e+06  -1.593481e+06
   2.813485e+06   1.808643e+04
   1.899012e+06   2.109931e+06
  -1.381826e+05   2.209916e+06
  -1.685059e+06   1.583699e+05
  -1.699747e+06  -2.166700e+06
   6.729223e+04  -2.928859e+06
   2.752929e+06  -1.513677e+06
   4.251944e+06   1.289967e+06
   2.944727e+06   3.627160e+06
  -1.147068e+05   3.922685e+06
  -2.120674e+06   2.474233e+06
  -2.033990e+06   1.074476e+06
  -1.721258e+06   7.222068e+05
  -2.874756e+06   5.229291e+05
  -4.274081e+06  -7.239968e+05
  -3.436144e+06  -2.725333e+06
  -1.180973e+05  -4.092679e+06
   3.228594e+06  -3.850234e+06
   4.203025e+06  -2.022608e+06
   2.619015e+06   5.238193e+05
   1.644116e+05   2.254483e+06
  -1.180637e+06   1.874781e+06
  -5.514091e+05  -7.196379e+04
   1.119160e+06  -1.280683e+06
   1.877770e+06  -3.717539e+05
   8.648535e+05   1.190868e+06
  -5.528477e+05   1.109461e+06
  -4.791430e+05  -3.798081e+05
   9.775053e+05  -7.721918e+05
   1.832901e+06   1.093318e+06
   7.900115e+05   3.330613e+06
  -1.368913e+06   3.462561e+06
  -3.040975e+06   1.307431e+06
  -3.385069e+06  -1.321098e+06
  -2.385483e+06  -2.787113e+06
  -4.774987e+05  -2.671441e+06
   1.273487e+06  -1.461783e+06
   1.595041e+06  -1.976420e+05
   4.922615e+05   4.962772e+04
  -3.548591e+05  -7.520445e+05
   4.028037e+05  -1.315130e+06
   1.869637e+06  -5.613951e+05
   2.006131e+06   8.651045e+05
   3.933069e+05   1.389881e+06
  -1.165575e+06   5.742883e+05
  -9.158040e+05  -4.570970e+05
   8.298321e+05  -5.635579e+05
   2.218819e+06   2.732977e+05
   1.810613e+06   1.365867e+06
  -2.229310e+05   2.019446e+06
  -2.327583e+06   1.678726e+06
  -2.784791e+06   2.664924e+05
  -1.204273e+06  -1.256983e+06
   9.174032e+05  -1.466974e+06
   1.528343e+06  -1.707709e+05
   1.750363e+05   1.064791e+06
  -1.516158e+06   7.197709e+05
  -1.716701e+06  -7.788682e+05
  -3.550064e+05  -1.652205e+06
   1.075132e+06  -9.990576e+05
   1.264577e+06   2.853686e+05
   2.666269e+05   7.720182e+05
  -7.806044e+05   5.460341e+04
  -7.226343e+05  -1.055281e+06
   5.944702e+05  -1.417041e+06
   2.017445e+06  -5.188656e+05
   2.025602e+06   1.071547e+06
   3.689124e+05   2.075680e+06
  -1.443120e+06   1.634015e+06
  -1.725547e+06   2.088541e+05
  -5.081034e+05  -8.675360e+05
   6.593009e+05  -8.074711e+05
   6.518271e+05  -7.070657e+04
  -1.067143e+05   3.897113e+05
  -5.168309e+05   2.367709e+05
  -1.707249e+05  -7.327717e+04
   4.223647e+05   3.917946e+04
   5.271886e+05   6.425891e+05
  -1.915916e+05   1.180857e+06
  -1.381861e+06   8.934293e+05
  -2.082085e+06  -4.248685e+05
  -1.452415e+06  -1.955589e+06
   2.345807e+05  -2.431030e+06
   1.632023e+06  -1.425913e+06
   1.713961e+06   1.210347e+05
   8.866989e+05   9.239703e+05
   3.251551e+05   7.054019e+05
   4.512639e+05   2.549455e+05
   5.942959e+05   3.074731e+05
   8.071915e+04   7.458229e+05
  -8.740016e+05   9.019809e+05
  -1.459191e+06   3.323545e+05
  -1.070041e+06  -7.361434e+05
   2.450669e+05  -1.486784e+06
   1.735752e+06  -1.081916e+06
   2.260569e+06   4.946968e+05
   1.136868e+06   2.107694e+06
  -1.005270e+06   2.361970e+06
  -2.537641e+06   1.032460e+06
  -2.363231e+06  -6.516122e+05
  -9.845580e+05  -1.346634e+06
   1.929648e+05  -9.765997e+05
   4.145721e+05  -5.376794e+05
   1.233081e+05  -7.522439e+05
   1.329028e+05  -1.285675e+06
   6.748629e+05  -1.268498e+06
   1.286868e+06  -3.041635e+05
   1.328043e+06   1.095004e+06
   5.421700e+05   1.905164e+06
  -6.369724e+05   1.437053e+06
  -1.291504e+06  -6.162414e+03
  -8.119312e+05  -1.280905e+06
   3.828259e+05  -1.394491e+06
   1.146297e+06  -4.197827e+05
   8.045920e+05   6.709927e+05
  -1.082055e+05   1.057777e+06
  -5.137543e+05   7.835355e+05
  -7.591009e+04   4.279999e+05
   4.270713e+05   3.460352e+05
   5.416124e+04   3.874490e+05
  -1.142851e+06   2.063019e+05
  -2.052033e+06  -3.414591e+05
  -1.614014e+06  -1.040483e+06
   3.055828e+04  -1.424639e+06
   1.580764e+06  -1.126472e+06
   1.830611e+06  -2.784933e+05
   8.382977e+05   4.778040e+05
  -2.566769e+05   5.577081e+05
  -5.067745e+05   3.960591e+04
  -2.071864e+04  -4.090626e+05
   4.530374e+05  -2.526917e+05
   4.783061e+05   3.464271e+05
   2.341809e+05   7.317474e+05
   7.872643e+04   4.828060e+05
   1.397186e+05  -1.050304e+05
   2.935073e+05  -3.053350e+05
   2.777434e+05   2.328614e+05
  -1.550268e+05   9.941203e+05
  -9.077279e+05   1.061261e+06
  -1.350253e+06   1.574879e+05
  -8.325211e+05  -9.235042e+05
   4.234672e+05  -1.127226e+06
   1.254691e+06  -3.174992e+05
   7.311085e+05   5.836190e+05
  -7.048721e+05   6.489879e+05
  -1.599039e+06  -9.853412e+04
  -1.021525e+06  -8.686077e+05
   4.789124e+05  -9.999883e+05
   1.510257e+06  -4.891580e+05
   1.247735e+06   1.897954e+05
   1.380039e+05   5.197899e+05
  -6.522990e+05   2.719512e+05
  -3.803727e+05  -2.942020e+05
   5.957718e+05  -5.169044e+05
   1.187958e+06   9.444945e+04
   6.608508e+05   1.194319e+06
  -6.101070e+05   1.706331e+06
  -1.500543e+06   8.788159e+05
  -1.259840e+06  -7.702681e+05
  -1.950270e+05  -1.805188e+06
   7.507611e+05  -1.302980e+06
   9.311098e+05   1.773020e+05
   4.326465e+05   1.200351e+06
  -2.199873e+05   9.765788e+05
  -5.641876e+05   8.390590e+04
  -4.709564e+05  -3.825954e+05
  -1.679045e+05  -1.398754e+05
  -4.781918e+04   9.666242e+04
  -2.747119e+05  -2.966973e+05
  -5.065361e+05  -9.739658e+05
  -1.912468e+05  -1.086349e+06
   7.164208e+05  -3.941658e+05
   1.483021e+06   4.743227e+05
   1.287870e+06   8.470296e+05
   1.834753e+05   7.031572e+05
  -8.625248e+05   4.192169e+05
  -9.918002e+05   1.805388e+05
  -3.612297e+05  -5.434703e+04
   1.478749e+05  -2.267640e+05
   3.500955e+04  -2.062159e+05
  -2.678294e+05  -9.553421e+04
  -5.049757e+04  -1.345926e+05
   6.675283e+05  -2.370129e+05
   1.054358e+06   1.368773e+04
   4.347689e+05   6.993118e+05
  -8.496329e+05   1.185975e+06
  -1.714216e+06   7.592017e+05
  -1.422621e+06  -4.367784e+05
  -2.761395e+05  -1.416764e+06
   7.749950e+05  -1.384943e+06
   1.058463e+06  -5.423888e+05
   6.603013e+05   2.332482e+05
   1.354680e+05   3.616121e+05
  -6.950657e+04   6.913757e+04
   8.192546e+04  -1.482213e+04
   3.007894e+05   3.711427e+05
   2.471064e+05   8.141345e+05
  -1.803907e+05   6.851448e+05
  -6.862806e+05  -1.189625e+05
  -7.480454e+05  -9.560322e+05
  -1.221233e+05  -1.040620e+06
   7.564611e+05  -2.556500e+05
   1.045954e+06   7.204894e+05
   3.556978e+05   1.098099e+06
  -7.173842e+05   6.875229e+05
  -1.129839e+06  -7.267218e+04
  -5.386050e+05  -6.203904e+05
   2.894953e+05  -6.883025e+05
   3.862977e+05  -3.714836e+05
  -2.446031e+05  -6.044891e+03
  -6.531475e+05   4.157941e+04
  -1.497707e+05  -3.114281e+05
   8.308263e+05  -6.841201e+05
   1.272060e+06  -5.408203e+05
   7.728865e+05   1.829357e+05
  -9.568847e+04   8.782596e+05
  -5.603342e+05   8.649075e+05
  -4.349054e+05   1.671297e+05
  -5.857447e+04  -4.806783e+05
   2.394072e+05  -4.426372e+05
   3.555162e+05   1.418861e+05
   2.583209e+05   5.810232e+05
  -5.121577e+04   4.360586e+05
  -3.946769e+05  -4.144866e+04
  -4.814145e+05  -2.859340e+05
  -2.441449e+05  -1.002440e+05
   3.736152e+04   1.561711e+05
   8.235094e+04   5.305373e+04
  -2.188984e+04  -3.533110e+05
   3.743766e+04  -5.626822e+05
   3.181703e+05  -2.330035e+05
   4.722517e+05   3.741423e+05
   1.716426e+05   6.524980e+05
  -4.073356e+05   3.220759e+05
  -6.755299e+05  -2.752473e+05
  -2.617415e+05  -5.746732e+05
   5.122685e+05  -3.710152e+05
   8.942495e+05   7.009940e+04
   4.863567e+05   3.788479e+05
  -2.950878e+05   4.098365e+05
  -6.458056e+05   2.387256e+05
  -2.581309e+05   2.004975e+04
   3.412158e+05  -7.706777e+04
   4.087318e+05   5.389338e+04
  -1.609930e+05   2.899309e+05
  -7.369208e+05   2.782584e+05
