
 $NMID
 id='ANONYMOUS ', fmtdat='(2E16.6)'
 volume=1.0
 tramp=1.0
 $END
  -3.859223e+07   1.411352e+06
  -2.519923e+07  -2.020432e+07
   1.700209e+06  -2.534530e+07
   1.724022e+07  -1.365865e+07
   1.258237e+07   1.139137e+06
  -4.839915e+05   6.534090e+06
  -7.123266e+06   1.452287e+06
  -4.010057e+06  -6.253224e+06
   2.745884e+06  -8.473717e+06
   6.739256e+06  -3.247743e+06
   5.642009e+06   4.336656e+06
   9.700725e+05   6.853107e+06
  -3.076864e+06   1.874692e+06
  -2.519698e+06  -5.072609e+06
   2.200372e+06  -6.229518e+06
   5.933456e+06  -1.321463e+05
   4.241026e+06   7.132999e+06
  -1.760910e+06   8.981024e+06
  -6.952206e+06   4.688539e+06
  -7.567632e+06  -1.445771e+06
  -4.135721e+06  -5.102975e+06
  -1.921899e+05  -5.116593e+06
   9.548514e+05  -3.277689e+06
  -8.823012e+05  -2.325438e+06
  -2.299936e+06  -3.402560e+06
   2.229638e+05  -4.744477e+06
   5.632332e+06  -3.587073e+06
   8.528688e+06   2.357196e+05
   5.375219e+06   3.647731e+06
  -8.620374e+05   3.827945e+06
  -4.052974e+06   1.257490e+06
  -1.959399e+06  -1.344118e+06
   2.037780e+06  -1.928346e+06
   3.722560e+06  -2.384400e+05
   2.306474e+06   2.548528e+06
  -2.131878e+05   4.164075e+06
  -1.795401e+06   2.661993e+06
  -1.633809e+06  -9.246266e+05
  -2.616987e+05  -2.609984e+06
   6.485355e+05  -1.716190e+05
  -2.998903e+05   3.180152e+06
  -2.191505e+06   2.483435e+06
  -2.258622e+06  -1.978040e+06
   6.251274e+05  -4.439365e+06
   3.819953e+06  -1.222891e+06
   3.557111e+06   4.249112e+06
  -6.425245e+05   5.808707e+06
  -5.201817e+06   1.982887e+06
  -6.066842e+06  -3.068177e+06
  -2.468974e+06  -4.910349e+06
   2.583690e+06  -2.935479e+06
   4.957641e+06   4.209641e+05
   2.908677e+06   2.459011e+06
  -1.297783e+06   1.979004e+06
  -3.477824e+06  -1.562632e+05
  -1.841938e+06  -1.685934e+06
   1.120923e+06  -1.097522e+06
   1.750502e+06   6.339968e+05
  -3.189197e+05   1.208647e+06
  -1.969060e+06  -1.133008e+05
  -7.299290e+05  -1.722978e+06
   2.249706e+06  -1.774111e+06
   3.789261e+06  -3.596193e+04
   2.193320e+06   2.444572e+06
  -1.430948e+06   4.297172e+06
  -4.572147e+06   4.126523e+06
  -5.309712e+06   1.272822e+06
  -3.489154e+06  -2.840189e+06
  -7.263028e+05  -5.216922e+06
   9.416830e+05  -4.320207e+06
   9.437511e+05  -1.920955e+06
   5.742014e+05  -8.120244e+05
   1.209593e+06  -1.267305e+06
   2.522075e+06  -1.144835e+06
   2.959409e+06   7.058303e+05
   1.678716e+06   2.674702e+06
  -5.536959e+05   2.500707e+06
  -2.161002e+06   9.195428e+04
  -1.955108e+06  -2.445368e+06
   1.200869e+05  -3.021382e+06
   2.726245e+06  -1.287448e+06
   3.814596e+06   1.392338e+06
   2.430326e+06   3.163574e+06
  -9.941874e+04   3.121718e+06
  -1.538208e+06   1.953831e+06
  -1.403910e+06   1.076228e+06
  -1.385536e+06   1.012892e+06
  -2.751092e+06   8.886996e+05
  -4.272207e+06  -3.331714e+05
  -3.611327e+06  -2.457156e+06
  -3.673209e+05  -4.130661e+06
   3.162420e+06  -4.062123e+06
   4.312902e+06  -2.062886e+06
   2.606887e+06   7.100542e+05
  -6.017168e+04   2.380484e+06
  -1.349205e+06   1.801609e+06
  -5.070219e+05  -1.657498e+05
   1.179565e+06  -1.283240e+06
   1.792853e+06  -4.021909e+05
   7.599804e+05   1.110017e+06
  -6.098298e+05   1.132252e+06
  -6.725908e+05  -3.422422e+05
   6.660598e+05  -1.110200e+06
   1.894977e+06   3.520930e+05
   1.557628e+06   2.853684e+06
  -3.875685e+05   3.852130e+06
  -2.701773e+06   2.257189e+06
  -3.871709e+06  -6.648510e+05
  -3.070794e+06  -2.780849e+06
  -7.841196e+05  -2.938875e+06
   1.313178e+06  -1.600654e+06
   1.678430e+06  -2.202650e+05
   5.030539e+05   2.089682e+04
  -3.995206e+05  -7.466872e+05
   2.852826e+05  -1.274607e+06
   1.729200e+06  -6.375046e+05
   1.994782e+06   6.552827e+05
   5.146846e+05   1.277436e+06
  -1.131326e+06   6.619243e+05
  -1.061269e+06  -4.249957e+05
   7.548288e+05  -8.177102e+05
   2.460700e+06  -7.281416e+04
   2.226574e+06   1.298848e+06
   3.024329e+04   2.279614e+06
  -2.323773e+06   2.000629e+06
  -2.861595e+06   4.700914e+05
  -1.269824e+06  -1.143977e+06
   8.120349e+05  -1.417983e+06
   1.406723e+06  -2.138636e+05
   1.451452e+05   1.002368e+06
  -1.486871e+06   7.736807e+05
  -1.795389e+06  -6.458465e+05
  -5.602791e+05  -1.642599e+06
   9.409662e+05  -1.181796e+06
   1.326047e+06   8.544683e+04
   4.006528e+05   7.193870e+05
  -7.396377e+05   9.985608e+04
  -7.613657e+05  -1.046117e+06
   5.838804e+05  -1.472945e+06
   2.066261e+06  -5.898454e+05
   2.108544e+06   1.020776e+06
   4.803398e+05   2.082433e+06
  -1.339194e+06   1.737400e+06
  -1.717227e+06   3.522755e+05
  -5.988612e+05  -8.211932e+05
   6.084790e+05  -8.759887e+05
   7.234622e+05  -8.637826e+04
  -4.659540e+04   5.359119e+05
  -6.335609e+05   3.978034e+05
  -3.892369e+05  -1.108760e+05
   3.373753e+05  -1.715033e+05
   6.514947e+05   4.846515e+05
  -2.138161e+04   1.206874e+06
  -1.334324e+06   1.031351e+06
  -2.166452e+06  -3.015099e+05
  -1.593832e+06  -1.923028e+06
   1.081781e+05  -2.536142e+06
   1.609263e+06  -1.645209e+06
   1.857018e+06  -4.873018e+04
   1.106864e+06   9.728728e+05
   4.276901e+05   9.089899e+05
   3.773121e+05   3.670791e+05
   5.046593e+05   2.373502e+05
   1.169192e+05   6.822810e+05
  -7.991238e+05   1.016753e+06
  -1.519839e+06   5.148611e+05
  -1.263275e+06  -7.167610e+05
   9.222605e+04  -1.669211e+06
   1.745550e+06  -1.307457e+06
   2.412075e+06   3.584052e+05
   1.353445e+06   2.091303e+06
  -8.093824e+05   2.481298e+06
  -2.480274e+06   1.272966e+06
  -2.515929e+06  -4.301444e+05
  -1.238962e+06  -1.322988e+06
   5.983709e+04  -1.145886e+06
   4.879253e+05  -7.010126e+05
   2.552895e+05  -7.694448e+05
   1.513504e+05  -1.225708e+06
   5.974827e+05  -1.261156e+06
   1.255183e+06  -3.546317e+05
   1.400434e+06   1.069583e+06
   6.435956e+05   1.941881e+06
  -5.980088e+05   1.512779e+06
  -1.342253e+06   7.988790e+04
  -9.332630e+05  -1.229342e+06
   2.399235e+05  -1.448206e+06
   1.065447e+06  -5.878512e+05
   8.542989e+05   5.023883e+05
   4.624986e+04   1.014355e+06
  -3.617013e+05   8.523417e+05
  -3.348154e+03   4.939132e+05
   4.401144e+05   3.589074e+05
   6.683023e+04   4.097062e+05
  -1.123766e+06   2.969972e+05
  -2.078199e+06  -2.110439e+05
  -1.721283e+06  -9.434804e+05
  -1.187222e+05  -1.413763e+06
   1.480284e+06  -1.218949e+06
   1.836332e+06  -4.401041e+05
   9.158918e+05   3.444951e+05
  -1.922497e+05   5.408938e+05
  -4.926773e+05   1.129780e+05
  -1.774516e+04  -3.574679e+05
   4.805228e+05  -2.692838e+05
   4.992379e+05   3.289092e+05
   2.073645e+05   7.617132e+05
   3.516902e+04   4.975111e+05
   1.462358e+05  -1.730613e+05
   3.509768e+05  -4.007591e+05
   3.246176e+05   2.192398e+05
  -1.399356e+05   1.069743e+06
  -8.822220e+05   1.136751e+06
  -1.303736e+06   1.840856e+05
  -8.211759e+05  -9.150569e+05
   3.786042e+05  -1.116484e+06
   1.226877e+06  -3.217393e+05
   7.740821e+05   5.869294e+05
  -6.705030e+05   7.241260e+05
  -1.690210e+06   3.140297e+04
  -1.208382e+06  -8.195252e+05
   3.612640e+05  -1.125630e+06
   1.555803e+06  -6.995501e+05
   1.372873e+06   7.118469e+04
   2.108701e+05   5.490841e+05
  -6.521645e+05   3.513006e+05
  -3.826194e+05  -2.629505e+05
   6.290252e+05  -5.275703e+05
   1.227108e+06   9.775091e+04
   6.722882e+05   1.232919e+06
  -6.287372e+05   1.764667e+06
  -1.547149e+06   9.309525e+05
  -1.338226e+06  -7.634637e+05
  -2.819629e+05  -1.879399e+06
   7.153136e+05  -1.432032e+06
   9.922769e+05   8.876244e+04
   5.616357e+05   1.221316e+06
  -1.177415e+05   1.066056e+06
  -5.665474e+05   1.432462e+05
  -5.568920e+05  -3.882143e+05
  -2.327603e+05  -1.567989e+05
  -2.454097e+04   1.181897e+05
  -2.254253e+05  -2.585171e+05
  -5.453622e+05  -9.714447e+05
  -3.144270e+05  -1.131711e+06
   6.527377e+05  -4.573964e+05
   1.575136e+06   4.215376e+05
   1.441509e+06   8.171480e+05
   2.348550e+05   7.098403e+05
  -9.275252e+05   4.720634e+05
  -1.042730e+06   2.566517e+05
  -3.349883e+05  -5.894413e+03
   1.625482e+05  -2.350898e+05
  -3.670781e+04  -2.471927e+05
  -3.501521e+05  -1.254713e+05
  -3.277439e+04  -1.440639e+05
   7.546154e+05  -2.501588e+05
   1.087161e+06  -1.055657e+04
   3.842580e+05   6.945068e+05
  -8.928458e+05   1.224757e+06
  -1.699626e+06   8.122527e+05
  -1.411604e+06  -4.279786e+05
  -3.205776e+05  -1.468820e+06
   7.277878e+05  -1.449090e+06
   1.075077e+06  -5.629791e+05
   7.052300e+05   2.530310e+05
   1.267620e+05   3.700885e+05
  -1.263030e+05   3.519141e+04
   6.425903e+04  -6.400602e+04
   3.587361e+05   3.542126e+05
   3.147419e+05   8.357546e+05
  -1.746851e+05   7.028561e+05
  -7.286202e+05  -1.423194e+05
  -7.723199e+05  -1.004666e+06
  -9.575243e+04  -1.064362e+06
   8.105249e+05  -2.317837e+05
   1.089652e+06   7.620602e+05
   3.704986e+05   1.119578e+06
  -7.258270e+05   6.943697e+05
  -1.143413e+06  -4.887968e+04
  -5.482066e+05  -5.802676e+05
   2.691697e+05  -6.694991e+05
   3.367884e+05  -3.871758e+05
  -3.084948e+05  -1.797875e+04
  -6.906250e+05   5.994124e+04
  -1.487336e+05  -3.054785e+05
   8.342510e+05  -7.488613e+05
   1.249418e+06  -6.530308e+05
   7.521495e+05   1.137421e+05
  -6.986988e+04   8.903277e+05
  -4.970255e+05   8.955775e+05
  -3.872105e+05   1.508466e+05
  -4.922763e+04  -5.182362e+05
   2.409732e+05  -4.374870e+05
   3.761075e+05   1.832828e+05
   2.816959e+05   5.940325e+05
  -4.936070e+04   4.072446e+05
  -4.074552e+05  -5.064247e+04
  -4.918538e+05  -2.425209e+05
  -2.566309e+05  -6.256420e+04
   1.939985e+04   1.205119e+05
   8.794653e+04  -3.042476e+04
   3.561569e+04  -3.963936e+05
   1.170373e+05  -5.261097e+05
   3.508542e+05  -1.594968e+05
   4.337897e+05   4.292631e+05
   1.112311e+05   6.758054e+05
  -4.356722e+05   3.229193e+05
  -6.753467e+05  -2.939347e+05
  -2.655188e+05  -6.064594e+05
   5.019959e+05  -3.958954e+05
   8.982146e+05   6.324141e+04
   5.017610e+05   3.761734e+05
  -2.904571e+05   3.959550e+05
  -6.449401e+05   2.226544e+05
  -2.253384e+05   2.299082e+04
   4.060867e+05  -4.815923e+04
   4.452446e+05   9.971144e+04
  -2.039271e+05   3.386578e+05
  -8.289107e+05   3.097946e+05
