
 $NMID
 id='ANONYMOUS ', fmtdat='(2E16.6)'
 volume=1.0
 tramp=1.0
 $END
   4.615861e+07  -2.409983e+05
   2.852056e+07   2.698600e+07
  -4.681847e+06   3.082343e+07
  -2.194986e+07   1.366631e+07
  -1.418286e+07  -4.040099e+06
   1.873952e+06  -7.785273e+06
   8.313207e+06  -1.484724e+05
   3.338259e+06   7.842260e+06
  -4.391012e+06   8.749848e+06
  -8.040369e+06   2.551169e+06
  -6.150276e+06  -5.236072e+06
  -7.884897e+05  -7.618387e+06
   3.523548e+06  -2.231283e+06
   2.517248e+06   5.206547e+06
  -2.948156e+06   6.264428e+06
  -6.731485e+06  -6.266907e+05
  -4.153445e+06  -8.492270e+06
   2.817413e+06  -1.008660e+07
   8.376310e+06  -5.035604e+06
   8.913878e+06   1.843836e+06
   5.127979e+06   6.198342e+06
   3.303971e+05   6.677351e+06
  -1.915058e+06   4.494360e+06
  -4.578138e+05   2.452983e+06
   1.656386e+06   2.773975e+06
  -4.175255e+04   4.390130e+06
  -5.463600e+06   3.850896e+06
  -8.927876e+06   2.515559e+04
  -6.054510e+06  -3.887616e+06
   3.594650e+05  -4.376826e+06
   3.866116e+06  -1.846979e+06
   2.180990e+06   7.042398e+05
  -1.352724e+06   1.430910e+06
  -2.999167e+06   3.112744e+05
  -2.177320e+06  -2.041636e+06
  -1.295952e+05  -4.010190e+06
   1.835352e+06  -3.142315e+06
   2.355317e+06   5.795972e+05
   8.998611e+05   3.068131e+06
  -7.038586e+05   9.746525e+05
   2.975499e+04  -2.792658e+06
   2.308745e+06  -2.325437e+06
   2.292164e+06   2.547737e+06
  -1.490108e+06   5.147013e+06
  -5.211939e+06   1.063601e+06
  -4.175907e+06  -5.446904e+06
   1.272720e+06  -6.946963e+06
   6.154957e+06  -2.089511e+06
   6.335019e+06   3.715206e+06
   2.081518e+06   5.373725e+06
  -2.994903e+06   2.765064e+06
  -5.022871e+06  -9.818046e+05
  -2.613740e+06  -2.956379e+06
   1.829489e+06  -2.068424e+06
   3.929228e+06   5.427544e+05
   1.859655e+06   2.185756e+06
  -1.394923e+06   1.216934e+06
  -1.725365e+06  -8.326669e+05
   7.866179e+05  -1.074084e+06
   2.185399e+06   8.840870e+05
   9.687549e+04   2.505912e+06
  -3.322044e+06   1.782711e+06
  -4.424455e+06  -6.596083e+05
  -2.178126e+06  -3.140635e+06
   1.646648e+06  -4.640622e+06
   4.760449e+06  -4.310344e+06
   5.646457e+06  -1.389139e+06
   3.894021e+06   2.993511e+06
   7.389989e+05   5.593885e+06
  -1.422865e+06   4.454647e+06
  -1.352128e+06   1.547401e+06
  -3.960373e+05   2.792454e+05
  -6.249070e+05   1.085475e+06
  -2.057286e+06   1.399829e+06
  -2.837737e+06  -2.808814e+05
  -1.797274e+06  -2.311799e+06
   2.992219e+05  -2.310236e+06
   1.860520e+06  -1.329341e+05
   1.787093e+06   2.264042e+06
  -9.224132e+04   2.949245e+06
  -2.727948e+06   1.413191e+06
  -4.049766e+06  -1.330482e+06
  -2.714281e+06  -3.431816e+06
   1.199967e+05  -3.586074e+06
   1.889142e+06  -2.247293e+06
   1.781343e+06  -1.056745e+06
   1.581577e+06  -8.204370e+05
   2.803414e+06  -6.507016e+05
   4.232784e+06   5.810431e+05
   3.465486e+06   2.612310e+06
   2.020941e+05   4.074787e+06
  -3.186297e+06   3.888591e+06
  -4.218695e+06   2.008229e+06
  -2.597191e+06  -5.974110e+05
  -7.370360e+04  -2.286653e+06
   1.246063e+06  -1.834778e+06
   5.394155e+05   1.056260e+05
  -1.133491e+06   1.275521e+06
  -1.838700e+06   3.849735e+05
  -8.237227e+05  -1.155211e+06
   5.741732e+05  -1.121363e+06
   5.582814e+05   3.567711e+05
  -8.458132e+05   9.016471e+05
  -1.841949e+06  -7.942908e+05
  -1.073955e+06  -3.125601e+06
   9.929002e+05  -3.591796e+06
   2.897072e+06  -1.656157e+06
   3.545269e+06   1.077777e+06
   2.620496e+06   2.780141e+06
   5.805343e+05   2.756876e+06
  -1.286398e+06   1.496762e+06
  -1.619076e+06   1.970107e+05
  -4.942241e+05  -4.213007e+04
   3.709844e+05   7.435584e+05
  -3.517564e+05   1.291258e+06
  -1.802563e+06   5.891918e+05
  -1.993635e+06  -7.777204e+05
  -4.454628e+05  -1.341460e+06
   1.140438e+06  -6.123787e+05
   9.690669e+05   4.337161e+05
  -7.865248e+05   6.522568e+05
  -2.287467e+06  -1.414023e+05
  -1.951639e+06  -1.331605e+06
   1.278807e+05  -2.102576e+06
   2.312749e+06  -1.783899e+06
   2.797254e+06  -3.348810e+05
   1.221663e+06   1.210574e+06
  -8.729489e+05   1.440337e+06
  -1.475360e+06   1.859314e+05
  -1.657022e+05  -1.034850e+06
   1.493925e+06  -7.363682e+05
   1.736447e+06   7.238453e+05
   4.320840e+05   1.641237e+06
  -1.018208e+06   1.067296e+06
  -1.284976e+06  -2.037439e+05
  -3.246181e+05  -7.478521e+05
   7.511716e+05  -7.777749e+04
   7.286902e+05   1.034937e+06
  -5.832386e+05   1.419015e+06
  -2.014678e+06   5.359598e+05
  -2.036132e+06  -1.046913e+06
  -4.041823e+05  -2.063000e+06
   1.397594e+06  -1.659732e+06
   1.715839e+06  -2.585096e+05
   5.442648e+05   8.487323e+05
  -6.343660e+05   8.333320e+05
  -6.792059e+05   8.042321e+04
   7.556594e+04  -4.409985e+05
   5.521411e+05  -2.981088e+05
   2.526996e+05   8.263366e+04
  -3.814745e+05   3.712737e+04
  -5.630258e+05  -5.774771e+05
   1.304663e+05  -1.175801e+06
   1.352876e+06  -9.305703e+05
   2.092473e+06   3.808803e+05
   1.486234e+06   1.930444e+06
  -1.938003e+05   2.452000e+06
  -1.617888e+06   1.495756e+06
  -1.758581e+06  -6.195956e+04
  -9.628078e+05  -9.454397e+05
  -3.574175e+05  -7.871776e+05
  -4.130810e+05  -3.012590e+05
  -5.474215e+05  -2.787717e+05
  -8.573872e+04  -7.113027e+05
   8.430078e+05  -9.295956e+05
   1.467928e+06  -3.885303e+05
   1.126496e+06   7.288960e+05
  -1.927580e+05   1.540858e+06
  -1.726838e+06   1.149070e+06
  -2.295291e+06  -4.468574e+05
  -1.204611e+06  -2.085129e+06
   9.251393e+05  -2.383667e+06
   2.495778e+06  -1.110366e+06
   2.403230e+06   5.663765e+05
   1.074888e+06   1.330930e+06
  -1.414995e+05   1.036789e+06
  -4.440208e+05   5.969329e+05
  -1.802586e+05   7.515313e+05
  -1.460769e+05   1.249767e+06
  -6.439213e+05   1.251782e+06
  -1.264063e+06   3.161624e+05
  -1.340676e+06  -1.081065e+06
  -5.703400e+05  -1.905736e+06
   6.215488e+05  -1.453089e+06
   1.300767e+06  -2.481780e+04
   8.488310e+05   1.250777e+06
  -3.267527e+05   1.402147e+06
  -1.103736e+06   4.804521e+05
  -8.134678e+05  -5.981882e+05
   4.836168e+04  -1.028472e+06
   4.483196e+05  -8.019229e+05
   4.674967e+04  -4.524310e+05
  -4.243271e+05  -3.522593e+05
  -5.415000e+04  -3.929548e+05
   1.124515e+06  -2.331238e+05
   2.038437e+06   2.971790e+05
   1.636571e+06   9.982670e+05
   2.630488e+04   1.404488e+06
  -1.528234e+06   1.145328e+06
  -1.818004e+06   3.346471e+05
  -8.613163e+05  -4.206778e+05
   2.307278e+05  -5.429602e+05
   4.957646e+05  -6.635487e+04
   1.346950e+04   3.836171e+05
  -4.652702e+05   2.529446e+05
  -4.802223e+05  -3.411745e+05
  -2.134852e+05  -7.406847e+05
  -5.551664e+04  -4.859634e+05
  -1.421642e+05   1.305877e+05
  -3.149775e+05   3.398939e+05
  -2.888410e+05  -2.254248e+05
   1.561049e+05  -1.011941e+06
   8.926752e+05  -1.073471e+06
   1.314072e+06  -1.570055e+05
   8.112070e+05   9.156384e+05
  -4.078007e+05   1.107074e+06
  -1.232454e+06   3.058658e+05
  -7.379892e+05  -5.855684e+05
   6.888277e+05  -6.697858e+05
   1.622637e+06   5.418738e+04
   1.085057e+06   8.468391e+05
  -4.317754e+05   1.040285e+06
  -1.518510e+06   5.637434e+05
  -1.287527e+06  -1.452472e+05
  -1.647303e+05  -5.281405e+05
   6.470766e+05  -3.001478e+05
   3.760007e+05   2.790225e+05
  -6.067182e+05   5.122074e+05
  -1.192154e+06  -1.024574e+05
  -6.510484e+05  -1.203954e+06
   6.251213e+05  -1.711278e+06
   1.513947e+06  -8.819249e+05
   1.276554e+06   7.702181e+05
   2.170152e+05   1.822219e+06
  -7.378823e+05   1.340857e+06
  -9.466614e+05  -1.437171e+05
  -4.757980e+05  -1.199731e+06
   1.787212e+05  -1.003243e+06
   5.585169e+05  -1.050577e+05
   5.009341e+05   3.834255e+05
   1.943394e+05   1.459419e+05
   3.788808e+04  -1.053437e+05
   2.478219e+05   2.788582e+05
   5.118804e+05   9.669790e+05
   2.365230e+05   1.097108e+06
  -6.839408e+05   4.127976e+05
  -1.505812e+06  -4.575941e+05
  -1.336400e+06  -8.350953e+05
  -1.981606e+05  -7.001825e+05
   8.863810e+05  -4.315852e+05
   1.005507e+06  -2.046650e+05
   3.450801e+05   3.571547e+04
  -1.550131e+05   2.279335e+05
  -5.074322e+03   2.220932e+05
   3.002009e+05   1.086927e+05
   4.106410e+04   1.366274e+05
  -7.006159e+05   2.353531e+05
  -1.057735e+06  -1.037891e+04
  -4.026082e+05  -6.938142e+05
   8.695576e+05  -1.185473e+06
   1.696845e+06  -7.616624e+05
   1.400157e+06   4.404736e+05
   2.817016e+05   1.427854e+06
  -7.569940e+05   1.392381e+06
  -1.058580e+06   5.372816e+05
  -6.710858e+05  -2.439636e+05
  -1.275780e+05  -3.618617e+05
   9.429358e+04  -5.302447e+04
  -7.295638e+04   3.552299e+04
  -3.202439e+05  -3.614670e+05
  -2.690570e+05  -8.164285e+05
   1.802405e+05  -6.850280e+05
   6.973155e+05   1.322044e+05
   7.450306e+05   9.734680e+05
   1.016410e+05   1.042575e+06
  -7.755964e+05   2.373005e+05
  -1.050006e+06  -7.401988e+05
  -3.499245e+05  -1.099823e+06
   7.197056e+05  -6.778023e+05
   1.123536e+06   7.046801e+04
   5.319080e+05   6.000065e+05
  -2.827263e+05   6.699159e+05
  -3.622970e+05   3.714714e+05
   2.711171e+05   1.357532e+04
   6.632903e+05  -4.385519e+04
   1.449066e+05   3.070023e+05
  -8.293362e+05   6.996618e+05
  -1.253139e+06   5.752150e+05
  -7.542734e+05  -1.568774e+05
   9.026689e+04  -8.744071e+05
   5.335988e+05  -8.650820e+05
   4.108543e+05  -1.540036e+05
   4.992742e+04   4.933677e+05
  -2.415847e+05   4.337610e+05
  -3.602781e+05  -1.619780e+05
  -2.614301e+05  -5.830580e+05
   5.373044e+04  -4.184710e+05
   3.963808e+05   4.816389e+04
   4.789049e+05   2.676107e+05
   2.462696e+05   8.455631e+04
  -2.756433e+04  -1.390091e+05
  -8.300237e+04  -1.592340e+04
  -6.420904e+03   3.697403e+05
  -7.748787e+04   5.413433e+05
  -3.323407e+05   1.956284e+05
  -4.479460e+05  -3.994006e+05
  -1.377153e+05  -6.584478e+05
   4.186573e+05  -3.159949e+05
   6.664636e+05   2.865227e+05
   2.561850e+05   5.851085e+05
  -5.053962e+05   3.739616e+05
  -8.864522e+05  -7.358660e+04
  -4.854192e+05  -3.777234e+05
   2.935205e+05  -3.974270e+05
   6.414786e+05  -2.242000e+05
   2.415290e+05  -1.855924e+04
  -3.677202e+05   6.170741e+04
  -4.213982e+05  -7.665065e+04
   1.802844e+05  -3.081728e+05
   7.728983e+05  -2.846276e+05
