
 $NMID
 id='ANONYMOUS ', fmtdat='(2E16.6)'
 volume=1.0
 tramp=1.0
 $END
  -4.291169e+07  -6.425438e+05
  -2.627361e+07  -2.465456e+07
   4.187687e+06  -2.819848e+07
   2.018995e+07  -1.323202e+07
   1.341445e+07   2.963916e+06
  -1.372508e+06   7.278564e+06
  -7.832662e+06   7.476941e+05
  -3.629190e+06  -7.186479e+06
   3.734122e+06  -8.722925e+06
   7.563594e+06  -2.806510e+06
   5.912447e+06   5.099206e+06
   6.847000e+05   7.504348e+06
  -3.529264e+06   2.029403e+06
  -2.559750e+06  -5.355631e+06
   2.703059e+06  -6.336877e+06
   6.385654e+06   4.120264e+05
   3.996265e+06   8.035608e+06
  -2.663195e+06   9.546011e+06
  -7.971168e+06   4.590076e+06
  -8.295693e+06  -2.053553e+06
  -4.424988e+06  -5.969270e+06
   5.153074e+04  -5.985284e+06
   1.645392e+06  -3.798941e+06
  -1.923831e+05  -2.326236e+06
  -2.030274e+06  -3.177703e+06
   2.060410e+05  -4.712595e+06
   5.797669e+06  -3.716789e+06
   8.994456e+06   3.190962e+05
   5.797333e+06   4.058296e+06
  -7.565725e+05   4.295392e+06
  -4.192938e+06   1.574182e+06
  -2.193859e+06  -1.135314e+06
   1.768227e+06  -1.803548e+06
   3.523328e+06  -2.612200e+05
   2.284300e+06   2.487737e+06
  -2.069211e+05   4.291826e+06
  -2.035809e+06   2.898439e+06
  -2.050865e+06  -9.542904e+05
  -4.603946e+05  -2.991624e+06
   7.744733e+05  -5.171840e+05
  -2.179004e+05   3.117295e+06
  -2.348149e+06   2.405120e+06
  -2.256602e+06  -2.362387e+06
   1.165730e+06  -4.792013e+06
   4.542743e+06  -9.812128e+05
   3.737108e+06   5.006057e+06
  -1.144135e+06   6.370276e+06
  -5.795172e+06   1.881279e+06
  -6.214190e+06  -3.573012e+06
  -2.212222e+06  -5.261898e+06
   2.894382e+06  -2.869230e+06
   5.082657e+06   7.890158e+05
   2.774001e+06   2.834461e+06
  -1.635689e+06   2.068565e+06
  -3.780710e+06  -4.299666e+05
  -1.858292e+06  -2.043537e+06
   1.308684e+06  -1.178914e+06
   1.785877e+06   7.842502e+05
  -5.357317e+05   1.174423e+06
  -2.073117e+06  -5.034005e+05
  -4.002660e+05  -2.090303e+06
   2.808352e+06  -1.686826e+06
   4.110820e+06   4.285015e+05
   2.114706e+06   2.873913e+06
  -1.725557e+06   4.485709e+06
  -4.914860e+06   4.152704e+06
  -5.642594e+06   1.173493e+06
  -3.668551e+06  -3.121763e+06
  -5.761688e+05  -5.565029e+06
   1.325037e+06  -4.448385e+06
   1.202807e+06  -1.736504e+06
   5.050325e+05  -5.610029e+05
   9.807261e+05  -1.215037e+06
   2.401633e+06  -1.277854e+06
   3.000976e+06   5.699823e+05
   1.772996e+06   2.632485e+06
  -4.770162e+05   2.522881e+06
  -2.107737e+06   1.214480e+05
  -1.926234e+06  -2.458150e+06
   1.608600e+05  -3.092903e+06
   2.853497e+06  -1.330592e+06
   4.005125e+06   1.522034e+06
   2.512523e+06   3.471129e+06
  -2.503504e+05   3.411603e+06
  -1.826073e+06   2.047749e+06
  -1.637837e+06   1.001615e+06
  -1.509244e+06   8.891140e+05
  -2.829750e+06   7.346612e+05
  -4.316446e+06  -5.490785e+05
  -3.558863e+06  -2.661757e+06
  -2.178549e+05  -4.202265e+06
   3.324774e+06  -4.009099e+06
   4.432259e+06  -2.002368e+06
   2.685005e+06   7.345333e+05
  -3.680025e+04   2.422855e+06
  -1.397272e+06   1.865719e+06
  -5.633074e+05  -1.481882e+05
   1.208303e+06  -1.310797e+06
   1.884305e+06  -3.851842e+05
   8.014700e+05   1.189512e+06
  -6.327639e+05   1.184120e+06
  -6.534059e+05  -3.363250e+05
   7.401534e+05  -1.027987e+06
   1.856878e+06   5.635692e+05
   1.296141e+06   3.023883e+06
  -7.190580e+05   3.777868e+06
  -2.846454e+06   1.973905e+06
  -3.773491e+06  -9.329491e+05
  -2.891283e+06  -2.893413e+06
  -6.646241e+05  -2.936259e+06
   1.370415e+06  -1.564388e+06
   1.711428e+06  -1.780250e+05
   5.150468e+05   4.726885e+04
  -3.904378e+05  -7.657259e+05
   3.364654e+05  -1.306748e+06
   1.813793e+06  -6.045211e+05
   2.040510e+06   7.551649e+05
   4.937410e+05   1.350337e+06
  -1.158968e+06   6.607616e+05
  -1.050353e+06  -4.242554e+05
   7.612892e+05  -7.364112e+05
   2.406772e+06   4.675721e+04
   2.128857e+06   1.355054e+06
  -6.253264e+04   2.241264e+06
  -2.398801e+06   1.910632e+06
  -2.914022e+06   3.674402e+05
  -1.262058e+06  -1.234556e+06
   8.925697e+05  -1.455053e+06
   1.488494e+06  -1.779346e+05
   1.478354e+05   1.052900e+06
  -1.538473e+06   7.574405e+05
  -1.805102e+06  -7.227220e+05
  -4.974574e+05  -1.692255e+06
   1.009744e+06  -1.154266e+06
   1.343126e+06   1.463977e+05
   3.858924e+05   7.501107e+05
  -7.411859e+05   9.324728e+04
  -7.408465e+05  -1.055525e+06
   6.118025e+05  -1.456253e+06
   2.087774e+06  -5.377249e+05
   2.099683e+06   1.093696e+06
   4.172692e+05   2.130803e+06
  -1.432972e+06   1.719203e+06
  -1.774970e+06   2.858189e+05
  -5.898037e+05  -8.707597e+05
   6.417536e+05  -8.825721e+05
   7.352488e+05  -9.284631e+04
  -3.882325e+04   4.969359e+05
  -5.935850e+05   3.665513e+05
  -3.384193e+05  -7.877299e+04
   3.400399e+05  -9.179509e+04
   5.904037e+05   5.412766e+05
  -1.018158e+05   1.197689e+06
  -1.384351e+06   9.678782e+05
  -2.163609e+06  -3.886029e+05
  -1.534345e+06  -1.998554e+06
   2.032381e+05  -2.555708e+06
   1.682852e+06  -1.590473e+06
   1.859911e+06   3.285291e+04
   1.060291e+06   1.012063e+06
   4.003111e+05   9.026196e+05
   3.909363e+05   3.741351e+05
   5.076122e+05   2.794261e+05
   6.896231e+04   7.024807e+05
  -8.595696e+05   9.641731e+05
  -1.524885e+06   4.250759e+05
  -1.201291e+06  -7.622615e+05
   1.719663e+05  -1.634168e+06
   1.790013e+06  -1.218868e+06
   2.395302e+06   4.537850e+05
   1.274527e+06   2.149061e+06
  -9.180447e+05   2.462649e+06
  -2.554187e+06   1.177306e+06
  -2.509941e+06  -5.396788e+05
  -1.179834e+06  -1.370258e+06
   1.036776e+05  -1.124668e+06
   4.909838e+05  -6.750939e+05
   2.583484e+05  -7.859977e+05
   1.950124e+05  -1.261843e+06
   6.642764e+05  -1.265913e+06
   1.293077e+06  -3.128584e+05
   1.381732e+06   1.130456e+06
   5.856437e+05   1.983881e+06
  -6.528974e+05   1.510804e+06
  -1.354104e+06   3.625829e+04
  -8.898113e+05  -1.275563e+06
   3.068286e+05  -1.446590e+06
   1.099605e+06  -5.321124e+05
   8.276720e+05   5.600119e+05
  -1.417048e+04   1.024797e+06
  -4.091193e+05   8.300178e+05
  -2.240793e+04   4.893663e+05
   4.297898e+05   3.822607e+05
   4.707797e+04   4.140595e+05
  -1.147068e+06   2.415852e+05
  -2.084338e+06  -3.068592e+05
  -1.693008e+06  -1.019197e+06
  -5.663318e+04  -1.424804e+06
   1.548836e+06  -1.168296e+06
   1.870283e+06  -3.687761e+05
   8.996686e+05   3.889655e+05
  -2.264149e+05   5.381774e+05
  -4.990247e+05   8.385761e+04
   8.906462e+03  -3.737353e+05
   5.036411e+05  -2.544838e+05
   4.924767e+05   3.601308e+05
   1.848657e+05   7.876663e+05
   2.375687e+04   5.139836e+05
   1.482742e+05  -1.582009e+05
   3.474042e+05  -3.849805e+05
   3.008090e+05   2.289148e+05
  -1.825211e+05   1.062054e+06
  -9.276802e+05   1.102215e+06
  -1.325097e+06   1.278885e+05
  -7.975588e+05  -9.614243e+05
   4.329726e+05  -1.114944e+06
   1.263791e+06  -2.744826e+05
   7.611025e+05   6.244344e+05
  -7.087338e+05   6.995535e+05
  -1.699712e+06  -3.963249e+04
  -1.170362e+06  -8.667949e+05
   4.134389e+05  -1.103458e+06
   1.581828e+06  -6.331313e+05
   1.365830e+06   1.224732e+05
   1.900639e+05   5.549630e+05
  -6.660868e+05   3.280136e+05
  -3.774250e+05  -2.806342e+05
   6.512001e+05  -5.161733e+05
   1.240432e+06   1.373960e+05
   6.427052e+05   1.274478e+06
  -6.991658e+05   1.771745e+06
  -1.604081e+06   8.899415e+05
  -1.327134e+06  -8.234649e+05
  -2.135488e+05  -1.910264e+06
   7.729014e+05  -1.413895e+06
   9.889487e+05   1.300698e+05
   5.145927e+05   1.244936e+06
  -1.558341e+05   1.056771e+06
  -5.700940e+05   1.190389e+05
  -5.437474e+05  -4.022050e+05
  -2.285426e+05  -1.557773e+05
  -2.929454e+04   1.164273e+05
  -2.191072e+05  -2.803661e+05
  -5.161611e+05  -1.005516e+06
  -2.742001e+05  -1.146430e+06
   6.797879e+05  -4.281042e+05
   1.574833e+06   4.838511e+05
   1.419178e+06   8.722729e+05
   2.055141e+05   7.244788e+05
  -9.524942e+05   4.470368e+05
  -1.057554e+06   2.198254e+05
  -3.360613e+05  -2.783668e+04
   1.733514e+05  -2.367408e+05
  -2.470685e+04  -2.418461e+05
  -3.458293e+05  -1.259680e+05
  -2.994447e+04  -1.454842e+05
   7.671775e+05  -2.341191e+05
   1.099920e+06   2.807479e+04
   3.677575e+05   7.287575e+05
  -9.485864e+05   1.215985e+06
  -1.757909e+06   7.542677e+05
  -1.420412e+06  -4.953158e+05
  -2.702929e+05  -1.498494e+06
   7.937853e+05  -1.432672e+06
   1.110004e+06  -5.294413e+05
   7.042264e+05   2.758726e+05
   1.165056e+05   3.790473e+05
  -1.284055e+05   4.056309e+04
   6.251993e+04  -5.558581e+04
   3.435237e+05   3.669883e+05
   2.868733e+05   8.501415e+05
  -2.001142e+05   7.071756e+05
  -7.352165e+05  -1.627131e+05
  -7.539193e+05  -1.044628e+06
  -6.261041e+04  -1.090778e+06
   8.344811e+05  -2.146150e+05
   1.082943e+06   8.107215e+05
   3.341077e+05   1.151935e+06
  -7.656949e+05   6.780890e+05
  -1.156842e+06  -9.564975e+04
  -5.277137e+05  -6.125756e+05
   3.033835e+05  -6.674005e+05
   3.569323e+05  -3.731210e+05
  -3.116146e+05  -2.317687e+04
  -6.994616e+05   3.568669e+04
  -1.374680e+05  -3.179302e+05
   8.706490e+05  -7.253097e+05
   1.285242e+06  -6.041151e+05
   7.543056e+05   1.544402e+05
  -1.069312e+05   9.006479e+05
  -5.432064e+05   8.813556e+05
  -4.063537e+05   1.318237e+05
  -3.447243e+04  -5.286495e+05
   2.641663e+05  -4.356907e+05
   3.796777e+05   1.966447e+05
   2.627205e+05   6.121691e+05
  -7.092477e+04   4.146750e+05
  -4.137075e+05  -6.511437e+04
  -4.851463e+05  -2.685115e+05
  -2.529501e+05  -7.574035e+04
   1.171230e+04   1.281649e+05
   7.894527e+04  -2.196023e+04
   4.153384e+04  -4.071774e+05
   1.394302e+05  -5.455246e+05
   3.721967e+05  -1.586400e+05
   4.355377e+05   4.563370e+05
   9.354702e+04   6.997009e+05
  -4.546535e+05   3.147346e+05
  -6.779447e+05  -3.255058e+05
  -2.495128e+05  -6.248350e+05
   5.242542e+05  -3.790367e+05
   9.105782e+05   1.003172e+05
   4.946751e+05   4.011199e+05
  -3.137579e+05   3.928026e+05
  -6.690436e+05   2.028886e+05
  -2.338216e+05   8.963499e+03
   4.147361e+05  -4.569113e+04
   4.544981e+05   1.101789e+05
  -2.104145e+05   3.399927e+05
  -8.457814e+05   2.937215e+05
