
 $NMID
 id='ANONYMOUS ', fmtdat='(2E16.6)'
 volume=1.0
 tramp=1.0
 $END
   4.076318e+07  -7.700044e+05
   2.586621e+07   2.314105e+07
  -3.344885e+06   2.730065e+07
  -1.923300e+07   1.285349e+07
  -1.295851e+07  -3.001360e+06
   1.344703e+06  -7.029180e+06
   7.545191e+06  -5.206855e+05
   3.354965e+06   6.963654e+06
  -3.713197e+06   8.166768e+06
  -7.215285e+06   2.585209e+06
  -5.585709e+06  -4.649971e+06
  -7.434141e+05  -6.893453e+06
   3.156230e+06  -1.970935e+06
   2.291039e+06   4.827416e+06
  -2.602866e+06   5.835884e+06
  -6.084152e+06  -3.795376e+05
  -3.888327e+06  -7.549460e+06
   2.348433e+06  -9.086869e+06
   7.390624e+06  -4.577721e+06
   7.882985e+06   1.587643e+06
   4.495723e+06   5.399007e+06
   3.409018e+05   5.741340e+06
  -1.450276e+06   3.906125e+06
  -9.842471e+04   2.366762e+06
   1.588578e+06   2.812279e+06
  -1.796083e+05   4.125649e+06
  -5.111564e+06   3.403045e+06
  -8.124753e+06  -1.166320e+05
  -5.403559e+06  -3.546878e+06
   4.631837e+05  -3.863537e+06
   3.597717e+06  -1.495973e+06
   1.890216e+06   8.245297e+05
  -1.505057e+06   1.365957e+06
  -2.959335e+06   1.450021e+05
  -1.948833e+06  -2.074651e+06
   6.431793e+04  -3.712963e+06
   1.688545e+06  -2.744738e+06
   1.940611e+06   5.949434e+05
   6.698308e+05   2.663821e+06
  -5.594091e+05   6.849524e+05
   1.794882e+05  -2.652523e+06
   2.149351e+06  -2.167497e+06
   2.139962e+06   2.237664e+06
  -1.131797e+06   4.650880e+06
  -4.476495e+06   1.116290e+06
  -3.763036e+06  -4.695206e+06
   9.616995e+05  -6.166596e+06
   5.442667e+06  -1.930919e+06
   5.805086e+06   3.307344e+06
   2.006526e+06   4.910852e+06
  -2.719010e+06   2.610451e+06
  -4.678962e+06  -8.191407e+05
  -2.506636e+06  -2.682002e+06
   1.579854e+06  -1.938700e+06
   3.560506e+06   4.015199e+05
   1.744376e+06   1.926505e+06
  -1.225101e+06   1.116633e+06
  -1.618154e+06  -7.485611e+05
   6.347208e+05  -1.082361e+06
   2.046126e+06   6.165636e+05
   3.203301e+05   2.189733e+06
  -2.804341e+06   1.726192e+06
  -3.986764e+06  -4.158408e+05
  -2.048676e+06  -2.747454e+06
   1.491120e+06  -4.186439e+06
   4.383830e+06  -3.874964e+06
   5.126747e+06  -1.206086e+06
   3.459743e+06   2.733344e+06
   6.382820e+05   5.077392e+06
  -1.242109e+06   4.113664e+06
  -1.212984e+06   1.547472e+06
  -4.779265e+05   3.601687e+05
  -7.592475e+05   9.697431e+05
  -2.005383e+06   1.149894e+06
  -2.601919e+06  -4.173159e+05
  -1.562217e+06  -2.244115e+06
   3.956491e+05  -2.160176e+06
   1.802565e+06  -5.805318e+04
   1.651670e+06   2.185646e+06
  -1.403937e+05   2.745267e+06
  -2.528432e+06   1.237309e+06
  -3.653639e+06  -1.276814e+06
  -2.409878e+06  -3.106329e+06
   1.076217e+05  -3.187328e+06
   1.650649e+06  -2.004418e+06
   1.559488e+06  -9.922501e+05
   1.438105e+06  -8.063445e+05
   2.606090e+06  -6.330150e+05
   3.933630e+06   5.303683e+05
   3.217592e+06   2.432908e+06
   1.708129e+05   3.797668e+06
  -3.004372e+06   3.595271e+06
  -3.954484e+06   1.800535e+06
  -2.384975e+06  -6.191429e+05
   7.223127e+03  -2.125906e+06
   1.205073e+06  -1.660744e+06
   4.890640e+05   1.180853e+05
  -1.076784e+06   1.165543e+06
  -1.699988e+06   3.445508e+05
  -7.379762e+05  -1.063181e+06
   5.602205e+05  -1.035923e+06
   5.515470e+05   3.426676e+05
  -7.637828e+05   9.036173e+05
  -1.754669e+06  -6.373796e+05
  -1.111046e+06  -2.879672e+06
   8.324121e+05  -3.443083e+06
   2.711972e+06  -1.673344e+06
   3.390371e+06   9.725614e+05
   2.500417e+06   2.656438e+06
   5.321090e+05   2.624909e+06
  -1.227903e+06   1.387004e+06
  -1.518236e+06   1.568242e+05
  -4.609973e+05  -4.297774e+04
   3.428909e+05   6.954774e+05
  -3.191493e+05   1.193766e+06
  -1.659827e+06   5.457602e+05
  -1.851639e+06  -7.110513e+05
  -4.257597e+05  -1.240946e+06
   1.064284e+06  -5.737554e+05
   9.214720e+05   4.155859e+05
  -7.366384e+05   6.407903e+05
  -2.176266e+06  -1.178362e+05
  -1.862436e+06  -1.273605e+06
   1.208073e+05  -2.004520e+06
   2.185866e+06  -1.674372e+06
   2.621965e+06  -3.002223e+05
   1.134232e+06   1.125176e+06
  -8.079665e+05   1.322906e+06
  -1.353896e+06   1.677522e+05
  -1.405879e+05  -9.499581e+05
   1.392333e+06  -6.747151e+05
   1.621929e+06   6.765819e+05
   4.139269e+05   1.539743e+06
  -9.481206e+05   1.016743e+06
  -1.213862e+06  -1.755632e+05
  -3.200858e+05  -6.988383e+05
   6.908380e+05  -7.642989e+04
   6.691309e+05   9.648971e+05
  -5.575924e+05   1.314198e+06
  -1.882460e+06   4.783409e+05
  -1.887405e+06  -9.926873e+05
  -3.646137e+05  -1.924082e+06
   1.306942e+06  -1.542444e+06
   1.602739e+06  -2.397035e+05
   5.128043e+05   7.943011e+05
  -5.948447e+05   7.810375e+05
  -6.457559e+05   6.495792e+04
   7.169164e+04  -4.360839e+05
   5.428916e+05  -2.899204e+05
   2.673999e+05   9.799247e+04
  -3.504314e+05   6.880766e+04
  -5.418340e+05  -5.227493e+05
   1.104093e+05  -1.099553e+06
   1.264511e+06  -8.674644e+05
   1.952181e+06   3.657867e+05
   1.374085e+06   1.810226e+06
  -1.997927e+05   2.292925e+06
  -1.530201e+06   1.400777e+06
  -1.663062e+06  -6.370083e+04
  -9.113697e+05  -9.138188e+05
  -3.220313e+05  -7.770032e+05
  -3.561377e+05  -2.993048e+05
  -4.899780e+05  -2.468014e+05
  -7.791706e+04  -6.487711e+05
   7.878798e+05  -8.699285e+05
   1.383428e+06  -3.638958e+05
   1.063053e+06   6.994057e+05
  -1.868066e+05   1.462005e+06
  -1.628786e+06   1.075087e+06
  -2.150935e+06  -4.322431e+05
  -1.124123e+06  -1.956889e+06
   8.623187e+05  -2.226150e+06
   2.330788e+06  -1.038347e+06
   2.257850e+06   5.297281e+05
   1.022342e+06   1.260342e+06
  -1.336784e+05   9.962332e+05
  -4.433427e+05   5.694569e+05
  -2.021079e+05   6.866871e+05
  -1.526627e+05   1.142554e+06
  -5.999094e+05   1.153039e+06
  -1.171917e+06   2.855122e+05
  -1.239457e+06  -1.019706e+06
  -5.161110e+05  -1.784688e+06
   5.939086e+05  -1.351948e+06
   1.218849e+06  -1.690013e+04
   7.927908e+05   1.167872e+06
  -3.003809e+05   1.311743e+06
  -1.024680e+06   4.644577e+05
  -7.639409e+05  -5.377891e+05
   2.873743e+04  -9.529867e+05
   4.030000e+05  -7.580832e+05
   4.123567e+04  -4.352065e+05
  -3.876256e+05  -3.355353e+05
  -4.413282e+04  -3.685147e+05
   1.045444e+06  -2.158863e+05
   1.892937e+06   2.831075e+05
   1.524655e+06   9.363754e+05
   3.269969e+04   1.307080e+06
  -1.417451e+06   1.060695e+06
  -1.698838e+06   3.122566e+05
  -8.142630e+05  -3.824043e+05
   2.084943e+05  -4.997071e+05
   4.616067e+05  -6.813779e+04
   8.451210e+03   3.448904e+05
  -4.412669e+05   2.270188e+05
  -4.435781e+05  -3.218174e+05
  -1.781872e+05  -6.920393e+05
  -3.460900e+04  -4.501559e+05
  -1.392110e+05   1.300132e+05
  -3.124066e+05   3.229594e+05
  -2.715600e+05  -2.122927e+05
   1.623349e+05  -9.463676e+05
   8.404251e+05  -9.937157e+05
   1.208689e+06  -1.337460e+05
   7.340576e+05   8.557047e+05
  -3.843704e+05   1.017881e+06
  -1.138839e+06   2.663084e+05
  -6.808591e+05  -5.565052e+05
   6.462094e+05  -6.248944e+05
   1.525381e+06   5.749420e+04
   1.028016e+06   8.033856e+05
  -4.022079e+05   9.863177e+05
  -1.435428e+06   5.338706e+05
  -1.219473e+06  -1.402149e+05
  -1.559590e+05  -5.012753e+05
   6.081883e+05  -2.830704e+05
   3.464129e+05   2.574482e+05
  -5.750808e+05   4.641925e+05
  -1.107612e+06  -1.156750e+05
  -5.831879e+05  -1.130892e+06
   6.118120e+05  -1.582346e+06
   1.425968e+06  -7.985420e+05
   1.183614e+06   7.362939e+05
   1.835134e+05   1.708190e+06
  -7.051398e+05   1.254955e+06
  -8.904241e+05  -1.348302e+05
  -4.444882e+05  -1.128902e+06
   1.667514e+05  -9.485375e+05
   5.218702e+05  -9.996231e+04
   4.731644e+05   3.686627e+05
   1.889306e+05   1.452853e+05
   3.385995e+04  -1.027373e+05
   2.181271e+05   2.507107e+05
   4.661770e+05   9.040405e+05
   2.224142e+05   1.035344e+06
  -6.308528e+05   3.877320e+05
  -1.406356e+06  -4.426593e+05
  -1.253842e+06  -7.976241e+05
  -1.814518e+05  -6.549298e+05
   8.422465e+05  -3.905863e+05
   9.475518e+05  -1.846004e+05
   3.165928e+05   2.735394e+04
  -1.504556e+05   2.091420e+05
   2.390116e+03   2.180881e+05
   2.892702e+05   1.160844e+05
   3.196875e+04   1.269603e+05
  -6.684893e+05   2.031670e+05
  -9.853898e+05  -2.324941e+04
  -3.521433e+05  -6.430472e+05
   8.331153e+05  -1.086974e+06
   1.581239e+06  -6.889827e+05
   1.285806e+06   4.265563e+05
   2.430244e+05   1.337174e+06
  -7.164787e+05   1.290526e+06
  -9.909085e+05   4.829741e+05
  -6.235301e+05  -2.423522e+05
  -1.102877e+05  -3.370627e+05
   9.630447e+04  -3.711699e+04
  -6.791145e+04   4.229963e+04
  -3.026978e+05  -3.395772e+05
  -2.479662e+05  -7.674193e+05
   1.768893e+05  -6.344788e+05
   6.491137e+05   1.399066e+05
   6.753313e+05   9.222685e+05
   7.126322e+04   9.682929e+05
  -7.295391e+05   1.991435e+05
  -9.647472e+05  -7.116259e+05
  -3.076535e+05  -1.027239e+06
   6.778642e+05  -6.159478e+05
   1.041470e+06   7.888432e+04
   4.869157e+05   5.554498e+05
  -2.661710e+05   6.123904e+05
  -3.317882e+05   3.443873e+05
   2.619347e+05   2.383606e+04
   6.220584e+05  -3.104676e+04
   1.292264e+05   2.847725e+05
  -7.826198e+05   6.461164e+05
  -1.170688e+06   5.354750e+05
  -6.955933e+05  -1.420447e+05
   9.292522e+04  -8.110893e+05
   4.966456e+05  -8.015838e+05
   3.717821e+05  -1.359755e+05
   3.395664e+04   4.634141e+05
  -2.300243e+05   3.959284e+05
  -3.315351e+05  -1.648322e+05
  -2.361326e+05  -5.471025e+05
   5.385358e+04  -3.805115e+05
   3.675407e+05   5.332188e+04
   4.435960e+05   2.471809e+05
   2.313157e+05   7.566735e+04
  -2.238294e+04  -1.207488e+05
  -8.332124e+04  -2.846736e+02
  -2.572291e+04   3.460530e+05
  -9.293650e+04   4.866949e+05
  -3.115840e+05   1.591911e+05
  -3.966257e+05  -3.842292e+05
  -1.037064e+05  -6.111102e+05
   3.974124e+05  -2.836920e+05
   6.101240e+05   2.788151e+05
   2.261732e+05   5.510904e+05
  -4.726190e+05   3.432222e+05
  -8.193973e+05  -8.071960e+04
  -4.460051e+05  -3.572202e+05
   2.756541e+05  -3.605315e+05
   5.953162e+05  -1.942667e+05
   2.175423e+05  -1.606142e+04
  -3.514963e+05   4.148873e+04
  -3.924304e+05  -8.875597e+04
   1.830223e+05  -2.886705e+05
   7.388765e+05  -2.509266e+05
