
 $NMID
 id='ANONYMOUS ', fmtdat='(2E16.6)'
 volume=1.0
 tramp=1.0
 $END
   3.913631e+07   7.550081e+05
   2.420261e+07   2.211904e+07
  -3.432351e+06   2.562515e+07
  -1.834865e+07   1.256900e+07
  -1.255253e+07  -2.202752e+06
   1.017819e+06  -6.673553e+06
   7.298233e+06  -9.671840e+05
   3.606852e+06   6.591423e+06
  -3.322506e+06   8.322133e+06
  -7.009411e+06   2.798403e+06
  -5.457120e+06  -4.742006e+06
  -5.722046e+05  -6.998796e+06
   3.274347e+06  -1.771233e+06
   2.318645e+06   5.181466e+06
  -2.544373e+06   6.070699e+06
  -5.953733e+06  -2.698580e+05
  -3.780313e+06  -7.426952e+06
   2.381243e+06  -8.868847e+06
   7.312186e+06  -4.237099e+06
   7.554256e+06   1.939606e+06
   3.904898e+06   5.437598e+06
  -1.118895e+05   5.278530e+06
  -1.293447e+06   3.321951e+06
   5.437967e+05   2.299931e+06
   2.027835e+06   3.340229e+06
  -3.930807e+05   4.623954e+06
  -5.704184e+06   3.341989e+06
  -8.505046e+06  -5.842784e+05
  -5.278014e+06  -3.929734e+06
   9.593641e+05  -3.901964e+06
   4.088673e+06  -1.202653e+06
   1.962856e+06   1.328593e+06
  -1.989038e+06   1.784048e+06
  -3.600282e+06   8.994592e+04
  -2.134012e+06  -2.592646e+06
   4.092668e+05  -4.123761e+06
   1.966274e+06  -2.593253e+06
   1.697441e+06   1.009444e+06
   2.099252e+05   2.700096e+06
  -6.814775e+05   2.461442e+05
   3.946299e+05  -3.086728e+06
   2.291627e+06  -2.314347e+06
   2.138662e+06   2.155387e+06
  -9.390081e+05   4.438841e+06
  -4.001706e+06   9.823749e+05
  -3.381150e+06  -4.517532e+06
   9.894517e+05  -5.823478e+06
   5.339006e+06  -1.711113e+06
   5.865422e+06   3.383129e+06
   2.148742e+06   5.009918e+06
  -2.747677e+06   2.763737e+06
  -4.888920e+06  -7.181656e+05
  -2.712508e+06  -2.661970e+06
   1.468009e+06  -1.945895e+06
   3.515737e+06   3.694943e+05
   1.754801e+06   1.858863e+06
  -1.204764e+06   1.077322e+06
  -1.713314e+06  -7.438170e+05
   4.253262e+05  -1.183446e+06
   1.972108e+06   3.006003e+05
   5.665686e+05   1.840279e+06
  -2.433178e+06   1.631416e+06
  -3.807693e+06  -2.587247e+05
  -2.022125e+06  -2.610349e+06
   1.669870e+06  -4.190478e+06
   4.748484e+06  -3.842312e+06
   5.344727e+06  -9.902168e+05
   3.347029e+06   3.010681e+06
   4.455629e+05   5.248453e+06
  -1.226581e+06   4.235177e+06
  -1.096511e+06   1.777634e+06
  -5.804020e+05   6.753847e+05
  -1.156106e+06   1.163800e+06
  -2.465480e+06   1.065697e+06
  -2.881767e+06  -7.578739e+05
  -1.575853e+06  -2.676214e+06
   6.157460e+05  -2.448756e+06
   2.115975e+06  -2.339755e+04
   1.822938e+06   2.481065e+06
  -2.483282e+05   2.987334e+06
  -2.766695e+06   1.169708e+06
  -3.739226e+06  -1.560527e+06
  -2.269584e+06  -3.294168e+06
   2.782106e+05  -3.137324e+06
   1.674950e+06  -1.867757e+06
   1.485825e+06  -9.626011e+05
   1.429280e+06  -8.937305e+05
   2.744981e+06  -7.150953e+05
   4.173151e+06   5.591521e+05
   3.416305e+06   2.609717e+06
   1.527582e+05   4.078236e+06
  -3.301541e+06   3.832473e+06
  -4.342673e+06   1.828308e+06
  -2.556308e+06  -8.080823e+05
   1.434820e+05  -2.346968e+06
   1.416954e+06  -1.737356e+06
   5.201215e+05   1.768370e+05
  -1.212815e+06   1.228067e+06
  -1.809785e+06   3.262863e+05
  -7.214733e+05  -1.147216e+06
   6.537711e+05  -1.116974e+06
   6.536275e+05   3.518915e+05
  -7.073431e+05   1.046560e+06
  -1.828424e+06  -4.660862e+05
  -1.337488e+06  -2.900165e+06
   6.275766e+05  -3.738583e+06
   2.775479e+06  -2.021309e+06
   3.733163e+06   8.893465e+05
   2.841759e+06   2.884656e+06
   6.146535e+05   2.908882e+06
  -1.369364e+06   1.500556e+06
  -1.666699e+06   1.319778e+05
  -4.967197e+05  -5.175934e+04
   3.640128e+05   7.515563e+05
  -3.383947e+05   1.250429e+06
  -1.744684e+06   5.542160e+05
  -1.952332e+06  -7.460125e+05
  -4.602536e+05  -1.300235e+06
   1.139260e+06  -6.188559e+05
   1.029372e+06   4.458850e+05
  -7.583112e+05   7.468473e+05
  -2.387597e+06  -5.275861e+04
  -2.101080e+06  -1.369089e+06
   8.264428e+04  -2.221051e+06
   2.375145e+06  -1.842828e+06
   2.840156e+06  -3.163792e+05
   1.200075e+06   1.202417e+06
  -8.765271e+05   1.373710e+06
  -1.416975e+06   1.451248e+05
  -1.094203e+05  -1.006567e+06
   1.501927e+06  -7.007300e+05
   1.741373e+06   7.237563e+05
   4.710365e+05   1.650764e+06
  -9.891112e+05   1.121919e+06
  -1.309236e+06  -1.475008e+05
  -3.721995e+05  -7.323723e+05
   7.208226e+05  -7.831542e+04
   7.003134e+05   1.044345e+06
  -6.287529e+05   1.407903e+06
  -2.044298e+06   4.817353e+05
  -2.019129e+06  -1.101040e+06
  -3.704715e+05  -2.072190e+06
   1.409423e+06  -1.645193e+06
   1.719600e+06  -2.568173e+05
   5.592552e+05   8.490627e+05
  -6.387753e+05   8.454604e+05
  -7.231795e+05   6.467817e+04
   5.218565e+04  -5.118477e+05
   6.165584e+05  -3.622037e+05
   3.641127e+05   1.061096e+05
  -3.283093e+05   1.276296e+05
  -5.922956e+05  -5.126471e+05
   9.356567e+04  -1.169552e+06
   1.356945e+06  -9.325839e+05
   2.102227e+06   4.062055e+05
   1.462649e+06   1.965267e+06
  -2.373582e+05   2.484199e+06
  -1.665764e+06   1.532374e+06
  -1.824076e+06  -5.198056e+04
  -1.032459e+06  -1.015963e+06
  -3.719495e+05  -9.148356e+05
  -3.519659e+05  -3.816423e+05
  -4.761144e+05  -2.627686e+05
  -6.601854e+04  -6.710432e+05
   8.403766e+05  -9.389065e+05
   1.502062e+06  -4.106119e+05
   1.181253e+06   7.655274e+05
  -1.820648e+05   1.614434e+06
  -1.768476e+06   1.178706e+06
  -2.336469e+06  -4.748477e+05
  -1.219391e+06  -2.113271e+06
   9.167364e+05  -2.388176e+06
   2.495791e+06  -1.121319e+06
   2.445950e+06   5.499790e+05
   1.148774e+06   1.358863e+06
  -1.138004e+05   1.117528e+06
  -5.095791e+05   6.626282e+05
  -2.882798e+05   7.472662e+05
  -2.147796e+05   1.201146e+06
  -6.552865e+05   1.209091e+06
  -1.251971e+06   2.832229e+05
  -1.321071e+06  -1.121162e+06
  -5.349095e+05  -1.938742e+06
   6.621228e+05  -1.456942e+06
   1.320913e+06  -1.445120e+04
   8.529603e+05   1.250390e+06
  -3.086322e+05   1.406310e+06
  -1.070969e+06   5.206908e+05
  -8.058371e+05  -5.351692e+05
   8.644581e+03  -9.921512e+05
   3.943488e+05  -8.130956e+05
   2.593492e+04  -4.855703e+05
  -4.088947e+05  -3.785405e+05
  -3.941641e+04  -4.041523e+05
   1.114253e+06  -2.264632e+05
   2.018628e+06   3.190135e+05
   1.635715e+06   1.011293e+06
   4.716011e+04   1.385979e+06
  -1.510726e+06   1.115928e+06
  -1.823261e+06   3.393028e+05
  -8.798717e+05  -3.804053e+05
   2.181872e+05  -5.166926e+05
   4.859747e+05  -8.332840e+04
  -1.070533e+04   3.511171e+05
  -4.930425e+05   2.358168e+05
  -4.712343e+05  -3.542025e+05
  -1.574715e+05  -7.639091e+05
  -5.251482e+03  -4.943013e+05
  -1.510928e+05   1.602720e+05
  -3.592811e+05   3.761130e+05
  -2.974837e+05  -2.275089e+05
   1.973196e+05  -1.035024e+06
   9.191764e+05  -1.060911e+06
   1.278559e+06  -1.061560e+05
   7.507596e+05   9.412798e+05
  -4.321091e+05   1.069496e+06
  -1.220190e+06   2.434251e+05
  -7.274617e+05  -6.198564e+05
   6.968028e+05  -6.736381e+05
   1.659731e+06   5.890081e+04
   1.142295e+06   8.645037e+05
  -4.114042e+05   1.082499e+06
  -1.559335e+06   6.067388e+05
  -1.341756e+06  -1.371439e+05
  -1.804610e+05  -5.485916e+05
   6.554606e+05  -3.137421e+05
   3.610727e+05   2.751707e+05
  -6.447670e+05   4.844463e+05
  -1.199519e+06  -1.609880e+05
  -5.932416e+05  -1.248264e+06
   7.158408e+05  -1.700853e+06
   1.573534e+06  -8.300857e+05
   1.274182e+06   8.240917e+05
   1.754456e+05   1.861947e+06
  -7.771697e+05   1.368822e+06
  -9.666532e+05  -1.367365e+05
  -4.887108e+05  -1.223827e+06
   1.641925e+05  -1.037432e+06
   5.582297e+05  -1.121260e+05
   5.285515e+05   4.066032e+05
   2.249037e+05   1.630097e+05
   2.905658e+04  -1.159311e+05
   2.021633e+05   2.657956e+05
   4.831746e+05   9.824464e+05
   2.546181e+05   1.126476e+06
  -6.601285e+05   4.129817e+05
  -1.525283e+06  -4.970060e+05
  -1.374752e+06  -8.761702e+05
  -1.913666e+05  -7.073354e+05
   9.394177e+05  -4.149152e+05
   1.036850e+06  -1.981893e+05
   3.238453e+05   2.419609e+04
  -1.743384e+05   2.241218e+05
   2.617621e+04   2.443575e+05
   3.408291e+05   1.391184e+05
   2.340726e+04   1.417625e+05
  -7.575466e+05   2.063531e+05
  -1.066952e+06  -4.779489e+04
  -3.340757e+05  -7.051615e+05
   9.470728e+05  -1.155605e+06
   1.711374e+06  -7.017042e+05
   1.358991e+06   5.022492e+05
   2.341054e+05   1.460372e+06
  -7.912147e+05   1.379329e+06
  -1.084848e+06   4.914350e+05
  -6.791665e+05  -2.860710e+05
  -1.034473e+05  -3.690382e+05
   1.299098e+05  -2.774226e+04
  -6.293713e+04   6.073550e+04
  -3.337893e+05  -3.631198e+05
  -2.674540e+05  -8.344261e+05
   2.081673e+05  -6.810302e+05
   7.101292e+05   1.784168e+05
   7.056841e+05   1.030885e+06
   3.332377e+04   1.053687e+06
  -8.138950e+05   1.828108e+05
  -1.030672e+06  -8.114623e+05
  -3.004145e+05  -1.120810e+06
   7.526247e+05  -6.395165e+05
   1.117571e+06   1.119529e+05
   5.021814e+05   5.964096e+05
  -3.011131e+05   6.375398e+05
  -3.466849e+05   3.593297e+05
   3.070352e+05   3.468260e+04
   6.816715e+05  -2.096849e+04
   1.270818e+05   3.080514e+05
  -8.589261e+05   6.909691e+05
  -1.256675e+06   5.747345e+05
  -7.268971e+05  -1.521502e+05
   1.178831e+05  -8.696787e+05
   5.342797e+05  -8.485781e+05
   3.863430e+05  -1.213426e+05
   1.898680e+04   5.143955e+05
  -2.624889e+05   4.143319e+05
  -3.616049e+05  -2.038254e+05
  -2.438070e+05  -5.987669e+05
   7.356523e+04  -3.946595e+05
   3.984576e+05   7.306844e+04
   4.673942e+05   2.631556e+05
   2.470891e+05   7.362726e+04
  -9.331143e+03  -1.176523e+05
  -8.415382e+04   3.045614e+04
  -5.921540e+04   3.927743e+05
  -1.525376e+05   5.115459e+05
  -3.599609e+05   1.331046e+05
  -4.012690e+05  -4.523341e+05
  -6.687727e+04  -6.743141e+05
   4.480570e+05  -2.926579e+05
   6.459360e+05   3.290039e+05
   2.267776e+05   6.117820e+05
  -5.132589e+05   3.598617e+05
  -8.771359e+05  -1.134004e+05
  -4.714974e+05  -3.970807e+05
   3.082908e+05  -3.710236e+05
   6.471992e+05  -1.804403e+05
   2.209741e+05  -7.360470e+03
  -4.071798e+05   2.640317e+04
  -4.368630e+05  -1.243897e+05
   2.194643e+05  -3.265962e+05
   8.359411e+05  -2.633809e+05
