
 $NMID
 id='ANONYMOUS ', fmtdat='(2E16.6)'
 volume=1.0
 tramp=1.0
 $END
  -5.402817e+07  -4.355249e+05
  -3.212933e+07  -3.333547e+07
   7.248528e+06  -3.622718e+07
   2.622368e+07  -1.406106e+07
   1.563915e+07   6.421516e+06
  -3.064616e+06   8.829567e+06
  -9.304322e+06  -9.838726e+05
  -2.775437e+06  -9.208257e+06
   5.725047e+06  -9.031000e+06
   9.168837e+06  -2.041104e+06
   6.768810e+06   5.979308e+06
   8.213947e+05   8.360746e+06
  -3.908121e+06   2.635342e+06
  -2.666322e+06  -5.341859e+06
   3.506810e+06  -6.414765e+06
   7.531711e+06   1.212723e+06
   4.301932e+06   9.782100e+06
  -3.608323e+06   1.133435e+07
  -9.737701e+06   5.639988e+06
  -1.039480e+07  -2.081529e+06
  -6.246563e+06  -7.298461e+06
  -4.867520e+05  -8.262321e+06
   2.819970e+06  -5.624723e+06
   1.552093e+06  -2.462609e+06
  -1.347774e+06  -2.170248e+06
  -3.070819e+05  -4.244324e+06
   5.394010e+06  -4.384346e+06
   9.542583e+06  -4.756494e+05
   6.864750e+06   4.079650e+06
   1.217372e+05   4.994601e+06
  -3.797071e+06   2.511271e+06
  -2.516012e+06  -1.283033e+05
   6.650495e+05  -1.161991e+06
   2.439139e+06  -6.058846e+05
   2.306311e+06   1.513322e+06
   6.650462e+05   4.008360e+06
  -1.835930e+06   3.737305e+06
  -3.116813e+06  -2.702438e+05
  -1.524644e+06  -3.597562e+06
   8.642925e+05  -1.727829e+06
   3.629300e+05   2.570250e+06
  -2.375596e+06   2.327595e+06
  -2.373166e+06  -3.029195e+06
   2.258334e+06  -5.819130e+06
   6.543597e+06  -8.944119e+05
   4.819120e+06   6.645420e+06
  -1.849585e+06   8.117738e+06
  -7.147116e+06   2.292935e+06
  -6.780255e+06  -4.249487e+06
  -1.904513e+06  -5.813651e+06
   3.312043e+06  -2.710202e+06
   5.148318e+06   1.349644e+06
   2.445227e+06   3.299247e+06
  -2.268163e+06   2.123647e+06
  -4.354061e+06  -8.476815e+05
  -1.898037e+06  -2.581294e+06
   1.644519e+06  -1.319244e+06
   1.724409e+06   9.557416e+05
  -1.167567e+06   8.967432e+05
  -2.317323e+06  -1.563437e+06
   5.357457e+05  -3.144051e+06
   4.324207e+06  -1.768709e+06
   5.029715e+06   1.236087e+06
   2.234872e+06   3.770295e+06
  -1.762665e+06   5.134331e+06
  -4.938779e+06   4.778337e+06
  -6.090047e+06   1.701395e+06
  -4.463853e+06  -3.135909e+06
  -9.272668e+05  -6.055413e+06
   1.726647e+06  -4.668612e+06
   1.605628e+06  -1.262325e+06
   1.417386e+05   1.016997e+05
   7.831017e+04  -1.097040e+06
   1.725912e+06  -1.802451e+06
   2.893118e+06  -1.834928e+05
   2.072472e+06   2.012209e+06
   1.901876e+04   2.232244e+06
  -1.630087e+06   2.635213e+05
  -1.770113e+06  -2.075203e+06
  -3.753129e+04  -2.957798e+06
   2.767725e+06  -1.649810e+06
   4.427941e+06   1.202137e+06
   3.136391e+06   3.707849e+06
  -7.125150e+04   4.106886e+06
  -2.214979e+06   2.604818e+06
  -2.130613e+06   1.096347e+06
  -1.751536e+06   7.090099e+05
  -2.887333e+06   5.469251e+05
  -4.323028e+06  -6.687420e+05
  -3.515973e+06  -2.687064e+06
  -2.062637e+05  -4.117947e+06
   3.151008e+06  -3.962406e+06
   4.179748e+06  -2.181973e+06
   2.687751e+06   4.227918e+05
   2.808243e+05   2.279783e+06
  -1.116879e+06   1.962025e+06
  -5.721738e+05  -4.432871e+04
   1.086029e+06  -1.333619e+06
   1.898400e+06  -4.190105e+05
   9.192453e+05   1.200555e+06
  -5.124629e+05   1.137944e+06
  -4.575134e+05  -3.597568e+05
   9.879166e+05  -7.256418e+05
   1.811488e+06   1.169836e+06
   7.347771e+05   3.358810e+06
  -1.402224e+06   3.398345e+06
  -3.009927e+06   1.235754e+06
  -3.336554e+06  -1.294137e+06
  -2.395949e+06  -2.689972e+06
  -5.415786e+05  -2.624065e+06
   1.227817e+06  -1.504097e+06
   1.595221e+06  -2.545893e+05
   4.962288e+05   3.766212e+04
  -3.729741e+05  -7.483605e+05
   3.929553e+05  -1.338780e+06
   1.892447e+06  -5.976149e+05
   2.037916e+06   8.510262e+05
   4.074115e+05   1.399685e+06
  -1.160947e+06   5.944861e+05
  -9.115075e+05  -4.305077e+05
   8.179490e+05  -5.476521e+05
   2.190044e+06   2.465421e+05
   1.804165e+06   1.305123e+06
  -1.830873e+05   1.989820e+06
  -2.280873e+06   1.720095e+06
  -2.783487e+06   3.294517e+05
  -1.237178e+06  -1.247776e+06
   9.060358e+05  -1.510806e+06
   1.557000e+06  -2.010571e+05
   2.066633e+05   1.084695e+06
  -1.514497e+06   7.617339e+05
  -1.736973e+06  -7.519771e+05
  -3.750168e+05  -1.644499e+06
   1.062843e+06  -1.000752e+06
   1.258660e+06   2.782700e+05
   2.635824e+05   7.680211e+05
  -7.933486e+05   6.281773e+04
  -7.550338e+05  -1.050424e+06
   5.609080e+05  -1.445924e+06
   2.018712e+06  -5.783923e+05
   2.068738e+06   1.027656e+06
   4.189590e+05   2.082183e+06
  -1.420203e+06   1.673634e+06
  -1.729025e+06   2.412721e+05
  -5.207142e+05  -8.600089e+05
   6.452597e+05  -8.194639e+05
   6.425856e+05  -9.401332e+04
  -9.661422e+04   3.682063e+05
  -4.855782e+05   2.377868e+05
  -1.427205e+05  -4.565158e+04
   4.269644e+05   6.795848e+04
   5.220527e+05   6.515638e+05
  -1.838422e+05   1.186370e+06
  -1.371594e+06   9.226274e+05
  -2.101398e+06  -3.809262e+05
  -1.507211e+06  -1.933044e+06
   1.741775e+05  -2.444452e+06
   1.594136e+06  -1.458210e+06
   1.702655e+06   8.364292e+04
   8.974936e+05   8.794127e+05
   3.558000e+05   6.611319e+05
   4.902340e+05   2.333711e+05
   6.223782e+05   3.151513e+05
   9.419590e+04   7.639646e+05
  -8.615500e+05   9.191102e+05
  -1.446841e+06   3.591125e+05
  -1.078145e+06  -7.005556e+05
   2.110067e+05  -1.474523e+06
   1.707902e+06  -1.116075e+06
   2.272818e+06   4.419126e+05
   1.179727e+06   2.087357e+06
  -9.708117e+05   2.388842e+06
  -2.530482e+06   1.078823e+06
  -2.370536e+06  -6.114282e+05
  -9.947880e+05  -1.315284e+06
   1.721327e+05  -9.553722e+05
   3.761591e+05  -5.381283e+05
   7.796954e+04  -7.771789e+05
   9.761531e+04  -1.320652e+06
   6.593509e+05  -1.301717e+06
   1.297080e+06  -3.365105e+05
   1.366566e+06   1.067962e+06
   5.946892e+05   1.900780e+06
  -6.017815e+05   1.460833e+06
  -1.293563e+06   2.286697e+04
  -8.371500e+05  -1.272617e+06
   3.652101e+05  -1.403983e+06
   1.148326e+06  -4.241778e+05
   8.125873e+05   6.810608e+05
  -1.084048e+05   1.069854e+06
  -5.175936e+05   7.842694e+05
  -6.985706e+04   4.177167e+05
   4.445570e+05   3.344936e+05
   6.785218e+04   3.874067e+05
  -1.149309e+06   2.280544e+05
  -2.078354e+06  -3.033760e+05
  -1.642959e+06  -1.013501e+06
   1.529541e+04  -1.434870e+06
   1.579304e+06  -1.166269e+06
   1.832515e+06  -3.114061e+05
   8.385244e+05   4.750609e+05
  -2.563138e+05   5.712209e+05
  -5.089441e+05   4.191369e+04
  -3.048559e+04  -4.247908e+05
   4.447765e+05  -2.719061e+05
   4.917506e+05   3.369819e+05
   2.696432e+05   7.330935e+05
   1.046903e+05   4.893839e+05
   1.309226e+05  -1.003478e+05
   2.700695e+05  -3.080998e+05
   2.812531e+05   2.271598e+05
  -1.215000e+05   1.001689e+06
  -8.875851e+05   1.091143e+06
  -1.373981e+06   1.922346e+05
  -8.761854e+05  -9.154376e+05
   4.042947e+05  -1.156195e+06
   1.269467e+06  -3.588104e+05
   7.539936e+05   5.646280e+05
  -6.938061e+05   6.648091e+05
  -1.598014e+06  -6.323802e+04
  -1.027089e+06  -8.401052e+05
   4.630952e+05  -9.970454e+05
   1.489536e+06  -5.115409e+05
   1.239202e+06   1.624786e+05
   1.462653e+05   5.110573e+05
  -6.460335e+05   2.818586e+05
  -3.914844e+05  -2.927384e+05
   5.824241e+05  -5.448932e+05
   1.202915e+06   5.459411e+04
   7.104919e+05   1.184321e+06
  -5.564581e+05   1.743704e+06
  -1.482382e+06   9.356042e+05
  -1.289261e+06  -7.354346e+05
  -2.473306e+05  -1.805172e+06
   7.147433e+05  -1.320464e+06
   9.316073e+05   1.607265e+05
   4.558753e+05   1.189253e+06
  -2.029894e+05   9.724308e+05
  -5.646342e+05   9.200006e+04
  -4.752326e+05  -3.645862e+05
  -1.643888e+05  -1.273975e+05
  -4.739775e+04   9.320086e+04
  -2.935120e+05  -3.049067e+05
  -5.377097e+05  -9.698233e+05
  -2.103733e+05  -1.076336e+06
   7.205615e+05  -4.048278e+05
   1.499169e+06   4.351074e+05
   1.303983e+06   8.095465e+05
   2.001349e+05   7.023773e+05
  -8.455766e+05   4.503996e+05
  -9.849040e+05   2.060550e+05
  -3.688302e+05  -5.529193e+04
   1.391741e+05  -2.347934e+05
   3.768406e+04  -1.957998e+05
  -2.631440e+05  -7.523310e+04
  -5.950147e+04  -1.357404e+05
   6.536667e+05  -2.683279e+05
   1.063190e+06  -1.798887e+04
   4.726130e+05   7.027951e+05
  -8.136305e+05   1.228877e+06
  -1.714732e+06   8.143936e+05
  -1.460484e+06  -4.012287e+05
  -3.227204e+05  -1.416641e+06
   7.459482e+05  -1.415353e+06
   1.053577e+06  -5.824661e+05
   6.721358e+05   2.083503e+05
   1.512477e+05   3.628113e+05
  -6.161266e+04   8.442938e+04
   8.114325e+04  -6.827020e+03
   3.048966e+05   3.650612e+05
   2.660714e+05   8.086113e+05
  -1.612263e+05   6.975800e+05
  -6.953663e+05  -9.100219e+04
  -7.902730e+05  -9.361543e+05
  -1.642449e+05  -1.051330e+06
   7.526156e+05  -2.935314e+05
   1.081554e+06   6.865180e+05
   3.957844e+05   1.098860e+06
  -7.048066e+05   7.210206e+05
  -1.145505e+06  -4.109843e+04
  -5.610437e+05  -6.200655e+05
   2.783707e+05  -7.100997e+05
   3.886674e+05  -3.814509e+05
  -2.380764e+05   1.072502e+04
  -6.537100e+05   6.348356e+04
  -1.618047e+05  -3.129322e+05
   8.151384e+05  -7.097464e+05
   1.267986e+06  -5.666817e+05
   7.878541e+05   1.761699e+05
  -7.281869e+04   8.903531e+05
  -5.504107e+05   8.844678e+05
  -4.471606e+05   1.819385e+05
  -8.046910e+04  -4.805034e+05
   2.294092e+05  -4.586119e+05
   3.661949e+05   1.229848e+05
   2.779516e+05   5.773625e+05
  -4.142838e+04   4.498693e+05
  -4.007912e+05  -2.656845e+04
  -4.917771e+05  -2.821794e+05
  -2.451224e+05  -9.973852e+04
   4.255444e+04   1.659765e+05
   7.582845e+04   6.624073e+04
  -4.851022e+04  -3.560473e+05
   8.997976e+03  -5.877024e+05
   3.171337e+05  -2.638812e+05
   5.044577e+05   3.586736e+05
   2.088129e+05   6.592917e+05
  -3.982927e+05   3.429876e+05
  -6.971599e+05  -2.547433e+05
  -2.867583e+05  -5.694036e+05
   5.081716e+05  -3.876418e+05
   9.094273e+05   4.373137e+04
   5.030048e+05   3.684030e+05
  -2.890240e+05   4.277809e+05
  -6.501660e+05   2.659499e+05
  -2.673268e+05   2.489746e+04
   3.349330e+05  -1.008954e+05
   4.146111e+05   2.950439e+04
  -1.414523e+05   2.947857e+05
  -7.194301e+05   3.095044e+05
