
 $NMID
 id='ANONYMOUS ', fmtdat='(2E16.6)'
 volume=1.0
 tramp=1.0
 $END
  -5.743808e+06   6.697571e+05
  -4.234733e+06  -2.255797e+06
  -4.638085e+05  -3.693023e+06
   2.261732e+06  -2.767267e+06
   2.151493e+06  -4.900875e+05
   2.657747e+05   1.061287e+06
  -1.162983e+06   6.738805e+05
  -1.023610e+06  -8.620336e+05
   1.146971e+05  -1.677374e+06
   1.040309e+06  -8.552463e+05
   1.029148e+06   6.591407e+05
   2.406101e+05   1.218270e+06
  -5.360444e+05   3.079215e+05
  -5.442447e+05  -9.866931e+05
   2.331469e+05  -1.252936e+06
   9.841900e+05  -2.260055e+05
   8.630518e+05   1.076551e+06
  -1.019600e+05   1.494888e+06
  -1.035389e+06   8.164205e+05
  -1.157772e+06  -2.107262e+05
  -5.599636e+05  -7.447531e+05
   2.617814e+02  -6.250429e+05
  -4.470695e+04  -3.531599e+05
  -4.903645e+05  -4.350316e+05
  -5.994501e+05  -8.242058e+05
   8.500292e+04  -1.020173e+06
   1.146644e+06  -6.551172e+05
   1.602809e+06   9.149916e+04
   9.303005e+05   6.649887e+05
  -2.748616e+05   6.561814e+05
  -8.590001e+05   1.395291e+05
  -3.494962e+05  -4.148647e+05
   5.742192e+05  -5.113708e+05
   9.217117e+05  -2.118194e+04
   4.739190e+05   6.563488e+05
  -1.581343e+05   8.809785e+05
  -3.693166e+05   4.019195e+05
  -1.538792e+05  -2.863539e+05
   1.003857e+05  -4.127421e+05
   1.075913e+05   1.656620e+05
  -1.287644e+05   7.260487e+05
  -4.066320e+05   5.262362e+05
  -4.530747e+05  -2.585057e+05
  -1.139048e+05  -7.173066e+05
   4.028735e+05  -3.044182e+05
   5.711601e+05   5.202804e+05
   6.100212e+04   8.596822e+05
  -7.770964e+05   3.801107e+05
  -1.139439e+06  -4.279122e+05
  -5.936532e+05  -8.562764e+05
   4.137350e+05  -6.402933e+05
   9.819249e+05  -6.302823e+04
   6.624109e+05   3.869387e+05
  -1.307210e+05   4.077803e+05
  -6.010029e+05   8.011280e+04
  -3.831119e+05  -2.295890e+05
   1.532756e+05  -2.121638e+05
   3.688010e+05   8.011705e+04
   5.766731e+04   2.980948e+05
  -3.576267e+05   1.817969e+05
  -3.313841e+05  -1.597247e+05
   1.670860e+05  -3.674893e+05
   5.979864e+05  -1.848536e+05
   4.411646e+05   3.106013e+05
  -2.366200e+05   7.532643e+05
  -8.635943e+05   7.520855e+05
  -9.630952e+05   2.125392e+05
  -5.829314e+05  -5.263061e+05
  -1.351005e+05  -9.459507e+05
   7.860996e+04  -8.331289e+05
   1.065791e+05  -4.722731e+05
   1.740082e+05  -2.741928e+05
   3.809558e+05  -2.761688e+05
   5.989907e+05  -1.599308e+05
   6.088143e+05   2.375546e+05
   3.087850e+05   6.187670e+05
  -1.688192e+05   5.528501e+05
  -5.108368e+05   1.715766e+04
  -4.412108e+05  -5.317425e+05
   2.683786e+04  -6.257949e+05
   5.431728e+05  -2.293939e+05
   6.985348e+05   2.930191e+05
   4.065172e+05   5.637109e+05
  -1.980954e+04   5.016489e+05
  -2.197877e+05   3.068167e+05
  -1.843127e+05   2.098829e+05
  -2.237005e+05   2.445132e+05
  -5.261873e+05   2.351652e+05
  -8.479013e+05  -4.046960e+03
  -7.467313e+05  -4.481235e+05
  -1.156079e+05  -8.297497e+05
   6.164157e+05  -8.433775e+05
   8.785653e+05  -4.200617e+05
   5.248760e+05   1.680007e+05
  -4.193337e+04   4.972923e+05
  -2.990296e+05   3.560866e+05
  -1.034400e+05  -4.423446e+04
   2.408109e+05  -2.641552e+05
   3.509759e+05  -9.488742e+04
   1.444052e+05   2.110597e+05
  -1.300447e+05   2.425654e+05
  -1.729671e+05  -5.472491e+04
   7.641609e+04  -2.808435e+05
   3.874842e+05  -5.608540e+04
   4.346692e+05   4.937847e+05
   7.780979e+04   8.361909e+05
  -4.876326e+05   6.017552e+05
  -8.507393e+05  -3.479350e+04
  -7.210578e+05  -5.595381e+05
  -2.044446e+05  -6.294614e+05
   2.703476e+05  -3.397771e+05
   3.519354e+05  -4.621076e+04
   1.038559e+05   1.549716e+03
  -9.068039e+04  -1.464934e+05
   3.225302e+04  -2.507877e+05
   3.228213e+05  -1.471422e+05
   4.053309e+05   9.176243e+04
   1.334598e+05   2.407006e+05
  -2.156327e+05   1.572972e+05
  -2.397897e+05  -6.947039e+04
   1.291374e+05  -2.008453e+05
   5.224273e+05  -7.348418e+04
   5.095879e+05   2.434377e+05
   4.953006e+04   4.946882e+05
  -4.613952e+05   4.525966e+05
  -5.864747e+05   1.280472e+05
  -2.690744e+05  -2.129656e+05
   1.442345e+05  -2.815260e+05
   2.665594e+05  -5.381950e+04
   3.064835e+04   1.922040e+05
  -2.907759e+05   1.690406e+05
  -3.755473e+05  -1.043978e+05
  -1.501582e+05  -3.296357e+05
   1.656107e+05  -2.726599e+05
   2.803421e+05  -2.087046e+04
   1.108410e+05   1.356332e+05
  -1.340384e+05   3.454535e+04
  -1.583325e+05  -1.976076e+05
   1.083272e+05  -2.972681e+05
   4.136140e+05  -1.298732e+05
   4.326281e+05   1.923816e+05
   1.157990e+05   4.165189e+05
  -2.509149e+05   3.664494e+05
  -3.468919e+05   9.496385e+04
  -1.412238e+05  -1.598303e+05
   1.103661e+05  -1.927753e+05
   1.596983e+05  -2.609823e+04
   8.390403e+03   1.279730e+05
  -1.382493e+05   1.077475e+05
  -1.114516e+05  -2.235342e+04
   4.904032e+04  -6.334946e+04
   1.438202e+05   7.081432e+04
   2.069822e+04   2.399962e+05
  -2.561438e+05   2.237767e+05
  -4.419133e+05  -4.028133e+04
  -3.384529e+05  -3.766488e+05
   2.354935e+03  -5.232828e+05
   3.191654e+05  -3.652947e+05
   3.958910e+05  -3.604543e+04
   2.575841e+05   2.070342e+05
   1.008923e+05   2.200518e+05
   5.988107e+04   9.463445e+04
   8.059800e+04   3.595246e+04
   2.350175e+04   1.225078e+05
  -1.490876e+05   2.151706e+05
  -3.087880e+05   1.259416e+05
  -2.765368e+05  -1.415354e+05
  -3.352699e+03  -3.583405e+05
   3.470093e+05  -2.920724e+05
   5.015983e+05   5.022906e+04
   3.048805e+05   4.111379e+05
  -1.260948e+05   5.116711e+05
  -4.825346e+05   2.938041e+05
  -5.275121e+05  -4.770976e+04
  -2.917063e+05  -2.598164e+05
  -1.171751e+04  -2.578053e+05
   1.104024e+05  -1.679669e+05
   7.557043e+04  -1.564709e+05
   3.581841e+04  -2.338835e+05
   1.071720e+05  -2.492386e+05
   2.443747e+05  -7.813356e+04
   2.903413e+05   2.093318e+05
   1.447941e+05   3.930214e+05
  -1.126368e+05   3.144584e+05
  -2.756823e+05   3.178140e+04
  -2.061545e+05  -2.343379e+05
   2.274808e+04  -2.964794e+05
   1.959415e+05  -1.461949e+05
   1.761262e+05   6.904277e+04
   3.592858e+04   1.916566e+05
  -4.320377e+04   1.800787e+05
   1.300285e+04   1.110039e+05
   8.733865e+04   7.603199e+04
   1.268000e+04   8.525058e+04
  -2.188888e+05   7.117465e+04
  -4.133287e+05  -2.313778e+04
  -3.582037e+05  -1.708897e+05
  -5.057048e+04  -2.759026e+05
   2.750617e+05  -2.553986e+05
   3.658836e+05  -1.155301e+05
   1.956603e+05   4.314069e+04
  -2.758672e+04   1.024902e+05
  -9.435798e+04   3.445206e+04
   1.281839e+03  -6.141092e+04
   1.042346e+05  -5.444746e+04
   1.020526e+05   6.521799e+04
   3.219550e+04   1.593999e+05
  -3.335801e+03   1.030397e+05
   3.048109e+04  -4.589237e+04
   7.913071e+04  -9.646180e+04
   6.858067e+04   4.040980e+04
  -2.944880e+04   2.231568e+05
  -1.705599e+05   2.341346e+05
  -2.460934e+05   3.622269e+04
  -1.559820e+05  -1.816801e+05
   6.979504e+04  -2.163006e+05
   2.386683e+05  -5.909063e+04
   1.599351e+05   1.201085e+05
  -1.287203e+05   1.558765e+05
  -3.528121e+05   2.636464e+04
  -2.729515e+05  -1.554586e+05
   5.173112e+04  -2.453460e+05
   3.177843e+05  -1.754556e+05
   2.952375e+05  -6.606781e+03
   5.513716e+04   1.145315e+05
  -1.289983e+05   8.446229e+04
  -7.553779e+04  -4.577642e+04
   1.318908e+05  -1.049973e+05
   2.505159e+05   2.283373e+04
   1.321842e+05   2.542783e+05
  -1.342934e+05   3.605288e+05
  -3.202259e+05   1.904138e+05
  -2.791689e+05  -1.549437e+05
  -6.720859e+04  -3.887928e+05
   1.386363e+05  -3.073380e+05
   2.074026e+05   2.366751e+03
   1.335279e+05   2.460675e+05
  -3.858671e+03   2.270704e+05
  -1.111270e+05   3.868996e+04
  -1.265321e+05  -7.800033e+04
  -5.968389e+04  -3.359853e+04
  -2.804692e+02   2.802327e+04
  -3.291329e+04  -4.455206e+04
  -1.131379e+05  -1.935816e+05
  -8.522875e+04  -2.336549e+05
   1.169183e+05  -1.007992e+05
   3.297129e+05   7.740707e+04
   3.143459e+05   1.593445e+05
   5.394619e+04   1.421520e+05
  -1.990792e+05   1.016524e+05
  -2.171826e+05   6.327764e+04
  -5.991076e+04   6.886903e+03
   3.639215e+04  -4.868489e+04
  -2.129319e+04  -5.701085e+04
  -8.585431e+04  -3.051781e+04
  -2.254551e+03  -2.977920e+04
   1.680440e+05  -5.041835e+04
   2.216324e+05  -3.881206e+03
   6.282955e+04   1.388852e+05
  -1.903355e+05   2.485801e+05
  -3.366248e+05   1.652737e+05
  -2.757537e+05  -8.934929e+04
  -6.743916e+04  -3.028140e+05
   1.391694e+05  -2.963101e+05
   2.177283e+05  -1.113711e+05
   1.477655e+05   5.579151e+04
   2.204358e+04   7.485894e+04
  -3.725292e+04   1.220107e+02
   8.355023e+03  -2.227241e+04
   8.137610e+04   6.668967e+04
   7.423658e+04   1.696571e+05
  -3.490852e+04   1.424870e+05
  -1.529977e+05  -3.433287e+04
  -1.558108e+05  -2.116539e+05
  -1.008242e+04  -2.173533e+05
   1.737829e+05  -3.900851e+04
   2.233099e+05   1.637738e+05
   7.224335e+04   2.280374e+05
  -1.485984e+05   1.360782e+05
  -2.286007e+05  -9.230551e+03
  -1.072899e+05  -1.080893e+05
   5.170862e+04  -1.266395e+05
   5.671443e+04  -7.791754e+04
  -7.524230e+04  -6.891483e+03
  -1.445453e+05   1.313822e+04
  -2.758389e+04  -6.003727e+04
   1.682093e+05  -1.589451e+05
   2.438145e+05  -1.478477e+05
   1.432791e+05   1.154253e+04
  -1.185658e+04   1.787192e+05
  -8.852792e+04   1.809439e+05
  -6.763880e+04   2.369490e+04
  -6.055518e+03  -1.112398e+05
   5.023212e+04  -8.444710e+04
   7.888252e+04   4.658674e+04
   5.844877e+04   1.213553e+05
  -1.169509e+04   7.441096e+04
  -8.361263e+04  -1.337709e+04
  -9.816459e+04  -4.076823e+04
  -5.265979e+04  -5.454015e+03
  -1.008868e+03   1.660068e+04
   1.726579e+04  -2.347101e+04
   2.003704e+04  -8.871364e+04
   4.300029e+04  -9.773985e+04
   7.875953e+04  -1.522482e+04
   7.720479e+04   9.953040e+04
   6.710308e+03   1.406533e+05
  -9.382688e+04   6.275216e+04
  -1.328069e+05  -6.523016e+04
  -5.129093e+04  -1.279021e+05
   9.852529e+04  -8.127868e+04
   1.784685e+05   1.476875e+04
   1.012308e+05   7.581649e+04
  -5.849070e+04   7.451214e+04
  -1.292565e+05   3.827822e+04
  -3.816990e+04   3.431014e+03
   9.507433e+04  -3.421974e+03
   9.689926e+04   3.049467e+04
  -4.983073e+04   7.772621e+04
  -1.847705e+05   6.664561e+04
