
 $NMID
 id='ANONYMOUS ', fmtdat='(2E16.6)'
 volume=1.0
 tramp=1.0
 $END
  -4.718140e+07  -2.276025e+06
  -2.731256e+07  -2.905060e+07
   6.617033e+06  -3.096832e+07
   2.284099e+07  -1.256753e+07
   1.386857e+07   4.813790e+06
  -2.342725e+06   7.655758e+06
  -8.234815e+06  -2.948171e+05
  -2.901957e+06  -7.966982e+06
   4.747883e+06  -8.503722e+06
   8.146849e+06  -2.162542e+06
   6.021103e+06   5.584821e+06
   5.181053e+05   7.779117e+06
  -3.713808e+06   2.146032e+06
  -2.441890e+06  -5.349196e+06
   3.159527e+06  -6.178107e+06
   6.734124e+06   9.622782e+05
   3.798412e+06   8.791073e+06
  -3.341728e+06   1.008759e+07
  -8.791933e+06   4.716669e+06
  -9.055800e+06  -2.345812e+06
  -4.939430e+06  -6.683624e+06
   1.063541e+05  -6.920324e+06
   2.326881e+06  -4.405481e+06
   5.856177e+05  -2.233165e+06
  -1.745461e+06  -2.718571e+06
   5.128684e+04  -4.509177e+06
   5.702861e+06  -3.868104e+06
   9.180903e+06   2.163573e+05
   6.082373e+06   4.221580e+06
  -5.338600e+05   4.572995e+06
  -4.081182e+06   1.870639e+06
  -2.347174e+06  -7.773536e+05
   1.278155e+06  -1.557481e+06
   3.060885e+06  -4.166285e+05
   2.300982e+06   2.083255e+06
   1.158941e+05   4.175702e+06
  -2.033824e+06   3.198616e+06
  -2.500643e+06  -7.646009e+05
  -7.937659e+05  -3.296646e+06
   9.074222e+05  -9.985489e+05
   6.803624e+03   2.895287e+06
  -2.377734e+06   2.303861e+06
  -2.178022e+06  -2.667772e+06
   1.799224e+06  -5.066110e+06
   5.358208e+06  -6.849417e+05
   3.923911e+06   5.815723e+06
  -1.703673e+06   6.975438e+06
  -6.385674e+06   1.813988e+06
  -6.269581e+06  -4.000424e+06
  -1.911297e+06  -5.465593e+06
   3.085445e+06  -2.675116e+06
   4.993979e+06   1.128542e+06
   2.508521e+06   3.018020e+06
  -1.928902e+06   1.966470e+06
  -3.929921e+06  -7.299081e+05
  -1.760224e+06  -2.276935e+06
   1.472645e+06  -1.159031e+06
   1.703500e+06   8.780946e+05
  -8.038128e+05   9.729866e+05
  -2.054805e+06  -1.012375e+06
   1.354188e+05  -2.445291e+06
   3.466075e+06  -1.527437e+06
   4.386140e+06   9.151567e+05
   2.020549e+06   3.273496e+06
  -1.855102e+06   4.685503e+06
  -5.000621e+06   4.288525e+06
  -5.839874e+06   1.246509e+06
  -3.908491e+06  -3.226269e+06
  -5.749613e+05  -5.748916e+06
   1.577836e+06  -4.433910e+06
   1.345649e+06  -1.467005e+06
   2.986005e+05  -3.059873e+05
   6.097955e+05  -1.213698e+06
   2.169319e+06  -1.490011e+06
   2.975635e+06   3.054021e+05
   1.869908e+06   2.405073e+06
  -2.971741e+05   2.396110e+06
  -1.894673e+06   1.654770e+05
  -1.812161e+06  -2.300071e+06
   1.313027e+05  -3.011153e+06
   2.837376e+06  -1.396762e+06
   4.135370e+06   1.482313e+06
   2.666299e+06   3.629067e+06
  -2.873326e+05   3.678667e+06
  -2.050464e+06   2.201944e+06
  -1.854875e+06   9.690417e+05
  -1.602080e+06   7.602618e+05
  -2.831558e+06   5.886626e+05
  -4.263491e+06  -6.801200e+05
  -3.454907e+06  -2.714097e+06
  -1.321561e+05  -4.131454e+06
   3.298735e+06  -3.900317e+06
   4.335572e+06  -1.989661e+06
   2.663855e+06   6.512440e+05
   5.639647e+04   2.360135e+06
  -1.306521e+06   1.874847e+06
  -5.586747e+05  -1.182859e+05
   1.176628e+06  -1.287127e+06
   1.877804e+06  -3.489583e+05
   8.116777e+05   1.206096e+06
  -5.972439e+05   1.138504e+06
  -5.492907e+05  -3.491147e+05
   8.436987e+05  -8.529768e+05
   1.766627e+06   8.571168e+05
   9.598178e+05   3.123430e+06
  -1.049928e+06   3.512782e+06
  -2.873084e+06   1.572917e+06
  -3.506710e+06  -1.115211e+06
  -2.611378e+06  -2.795996e+06
  -5.715158e+05  -2.779672e+06
   1.321448e+06  -1.508860e+06
   1.651692e+06  -1.846084e+05
   5.003301e+05   4.995441e+04
  -3.623818e+05  -7.593738e+05
   3.908064e+05  -1.295565e+06
   1.842393e+06  -5.478760e+05
   1.991303e+06   8.345082e+05
   4.120731e+05   1.360051e+06
  -1.162217e+06   5.941038e+05
  -9.692728e+05  -4.428502e+05
   7.872516e+05  -6.332702e+05
   2.283185e+06   1.658855e+05
   1.948907e+06   1.343917e+06
  -1.418658e+05   2.105026e+06
  -2.351716e+06   1.771346e+06
  -2.833172e+06   2.981392e+05
  -1.209759e+06  -1.249850e+06
   9.240535e+05  -1.441366e+06
   1.504877e+06  -1.478090e+05
   1.428013e+05   1.062518e+06
  -1.530756e+06   7.185831e+05
  -1.739149e+06  -7.622869e+05
  -4.056534e+05  -1.654666e+06
   1.035935e+06  -1.047813e+06
   1.277622e+06   2.273041e+05
   3.058447e+05   7.499259e+05
  -7.628643e+05   5.524700e+04
  -7.202275e+05  -1.067528e+06
   6.174694e+05  -1.435314e+06
   2.058127e+06  -5.137941e+05
   2.051684e+06   1.097110e+06
   3.738433e+05   2.098886e+06
  -1.444798e+06   1.653707e+06
  -1.736662e+06   2.305669e+05
  -5.319778e+05  -8.624070e+05
   6.532248e+05  -8.287467e+05
   6.879621e+05  -7.888721e+04
  -7.040954e+04   4.351308e+05
  -5.460259e+05   3.025880e+05
  -2.540550e+05  -6.135496e+04
   3.679561e+05  -1.411036e+04
   5.424246e+05   5.900878e+05
  -1.562985e+05   1.177953e+06
  -1.383695e+06   9.169738e+05
  -2.113252e+06  -4.196538e+05
  -1.475960e+06  -1.981746e+06
   2.304335e+05  -2.482183e+06
   1.649862e+06  -1.490721e+06
   1.769042e+06   7.900239e+04
   9.688832e+05   9.509356e+05
   3.774628e+05   7.904993e+05
   4.352850e+05   3.221593e+05
   5.488106e+05   3.100470e+05
   6.596145e+04   7.279263e+05
  -8.663015e+05   9.240336e+05
  -1.484165e+06   3.740798e+05
  -1.132449e+06  -7.417129e+05
   2.050683e+05  -1.547822e+06
   1.757029e+06  -1.138814e+06
   2.316088e+06   4.820812e+05
   1.184516e+06   2.124128e+06
  -9.785394e+05   2.388954e+06
  -2.539347e+06   1.074886e+06
  -2.410674e+06  -6.070924e+05
  -1.063646e+06  -1.344630e+06
   1.440918e+05  -1.033397e+06
   4.398672e+05  -6.071749e+05
   1.907705e+05  -7.824133e+05
   1.783195e+05  -1.279165e+06
   6.831388e+05  -1.257780e+06
   1.291484e+06  -2.949953e+05
   1.345284e+06   1.119379e+06
   5.509036e+05   1.942500e+06
  -6.516045e+05   1.465915e+06
  -1.315858e+06   6.137797e+03
  -8.339497e+05  -1.278593e+06
   3.561875e+05  -1.405867e+06
   1.116288e+06  -4.545102e+05
   7.961325e+05   6.251712e+05
  -7.910189e+04   1.030904e+06
  -4.686076e+05   7.881666e+05
  -4.886441e+04   4.489079e+05
   4.300475e+05   3.656099e+05
   5.159577e+04   4.011017e+05
  -1.142941e+06   2.132480e+05
  -2.061296e+06  -3.410568e+05
  -1.638530e+06  -1.038449e+06
   5.602117e+03  -1.415917e+06
   1.573787e+06  -1.126518e+06
   1.841356e+06  -3.052764e+05
   8.512892e+05   4.391503e+05
  -2.502380e+05   5.430925e+05
  -4.987386e+05   5.462392e+04
  -8.390956e+02  -3.958107e+05
   4.765408e+05  -2.552368e+05
   4.827713e+05   3.544197e+05
   2.117727e+05   7.641628e+05
   5.254423e+04   5.035217e+05
   1.382539e+05  -1.299344e+05
   3.133923e+05  -3.462710e+05
   2.885691e+05   2.312540e+05
  -1.677469e+05   1.028987e+06
  -9.236851e+05   1.076121e+06
  -1.346151e+06   1.292081e+05
  -8.133060e+05  -9.533749e+05
   4.400245e+05  -1.119753e+06
   1.266969e+06  -2.877744e+05
   7.440328e+05   6.053501e+05
  -7.066430e+05   6.658697e+05
  -1.637173e+06  -7.496829e+04
  -1.081549e+06  -8.604328e+05
   4.462411e+05  -1.035656e+06
   1.531604e+06  -5.489468e+05
   1.292866e+06   1.578737e+05
   1.606069e+05   5.315336e+05
  -6.555808e+05   2.922493e+05
  -3.746777e+05  -2.930099e+05
   6.269638e+05  -5.174050e+05
   1.216472e+06   1.200300e+05
   6.501899e+05   1.239606e+06
  -6.595027e+05   1.740188e+06
  -1.554276e+06   8.812209e+05
  -1.288836e+06  -7.984384e+05
  -1.983481e+05  -1.852446e+06
   7.607370e+05  -1.348930e+06
   9.509570e+05   1.582801e+05
   4.636245e+05   1.216445e+06
  -1.920819e+05   1.004740e+06
  -5.649071e+05   9.521894e+04
  -5.028446e+05  -3.886348e+05
  -1.955768e+05  -1.426705e+05
  -3.822147e+04   1.027651e+05
  -2.452350e+05  -2.983757e+05
  -5.049713e+05  -9.923966e+05
  -2.244405e+05  -1.106410e+06
   7.003072e+05  -3.986362e+05
   1.521195e+06   4.826706e+05
   1.342266e+06   8.563026e+05
   1.896652e+05   7.123759e+05
  -9.038774e+05   4.338436e+05
  -1.019227e+06   1.963366e+05
  -3.467930e+05  -4.832396e+04
   1.603230e+05  -2.322509e+05
   5.846334e+03  -2.151657e+05
  -3.060153e+05  -1.036250e+05
  -4.141270e+04  -1.429929e+05
   7.155014e+05  -2.407188e+05
   1.077111e+06   2.530164e+04
   4.015180e+05   7.243208e+05
  -9.023479e+05   1.202569e+06
  -1.742093e+06   7.460187e+05
  -1.424526e+06  -4.764540e+05
  -2.695844e+05  -1.457257e+06
   7.914216e+05  -1.402369e+06
   1.089050e+06  -5.330088e+05
   6.833816e+05   2.541886e+05
   1.255943e+05   3.735453e+05
  -9.998366e+04   6.222425e+04
   6.902035e+04  -3.040790e+04
   3.164146e+05   3.678924e+05
   2.611043e+05   8.292211e+05
  -1.940103e+05   6.958199e+05
  -7.124526e+05  -1.403684e+05
  -7.513015e+05  -1.002989e+06
  -9.083198e+04  -1.070980e+06
   7.984960e+05  -2.384585e+05
   1.065842e+06   7.669504e+05
   3.418813e+05   1.128256e+06
  -7.466737e+05   6.823249e+05
  -1.144548e+06  -9.046400e+04
  -5.276889e+05  -6.236935e+05
   3.047112e+05  -6.785710e+05
   3.771827e+05  -3.657087e+05
  -2.762169e+05  -8.405715e+03
  -6.753676e+05   3.820378e+04
  -1.423436e+05  -3.171233e+05
   8.509418e+05  -6.994253e+05
   1.276741e+06  -5.589763e+05
   7.600435e+05   1.793436e+05
  -1.065351e+05   8.888381e+05
  -5.590570e+05   8.656410e+05
  -4.276253e+05   1.444946e+05
  -4.865995e+04  -5.054310e+05
   2.553082e+05  -4.403319e+05
   3.710955e+05   1.669990e+05
   2.584750e+05   5.971445e+05
  -6.634572e+04   4.283428e+05
  -4.054787e+05  -5.373887e+04
  -4.786864e+05  -2.823395e+05
  -2.445955e+05  -9.051989e+04
   2.139492e+04   1.469104e+05
   7.230594e+04   2.062001e+04
   4.046121e+03  -3.845910e+05
   9.016084e+04  -5.657614e+05
   3.525148e+05  -2.026254e+05
   4.613227e+05   4.193331e+05
   1.358727e+05   6.838477e+05
  -4.324278e+05   3.203629e+05
  -6.799183e+05  -3.037610e+05
  -2.566233e+05  -6.012324e+05
   5.204734e+05  -3.714976e+05
   9.046871e+05   9.016324e+04
   4.891770e+05   3.926447e+05
  -3.092613e+05   4.015573e+05
  -6.624232e+05   2.191453e+05
  -2.484850e+05   1.019379e+04
   3.784114e+05  -6.746790e+04
   4.347247e+05   7.815383e+04
  -1.806944e+05   3.161514e+05
  -7.868907e+05   2.899938e+05
