
 $NMID
 id='ANONYMOUS ', fmtdat='(2E16.6)'
 volume=1.0
 tramp=1.0
 $END
   1.879484e+07  -3.134024e+06
   1.475949e+07   6.745835e+06
   2.379658e+06   1.237080e+07
  -7.348237e+06   9.802900e+06
  -7.514024e+06   1.962463e+06
  -1.102237e+06  -3.682284e+06
   4.043068e+06  -2.462713e+06
   3.662685e+06   2.927296e+06
  -3.196368e+05   5.831347e+06
  -3.535384e+06   3.042093e+06
  -3.490068e+06  -2.128733e+06
  -8.462028e+05  -4.058170e+06
   1.735285e+06  -1.029030e+06
   1.786957e+06   3.330260e+06
  -7.876444e+05   4.286317e+06
  -3.348867e+06   8.763678e+05
  -3.024262e+06  -3.546235e+06
   1.803848e+05  -5.041707e+06
   3.332644e+06  -2.835682e+06
   3.793793e+06   5.449856e+05
   1.901428e+06   2.283159e+06
   1.785806e+05   1.939383e+06
   3.802603e+05   1.223075e+06
   1.732515e+06   1.660650e+06
   1.912585e+06   2.922932e+06
  -4.042032e+05   3.401911e+06
  -3.839867e+06   2.081766e+06
  -5.283598e+06  -3.577631e+05
  -3.055594e+06  -2.164627e+06
   9.200472e+05  -2.071871e+06
   2.817491e+06  -3.487997e+05
   1.039339e+06   1.425993e+06
  -2.074659e+06   1.616253e+06
  -3.124178e+06  -9.556103e+04
  -1.470549e+06  -2.279007e+06
   6.401495e+05  -2.889766e+06
   1.186474e+06  -1.279607e+06
   3.866007e+05   8.944482e+05
  -3.444001e+05   1.246621e+06
  -2.269172e+05  -6.135734e+05
   5.493328e+05  -2.407421e+06
   1.399524e+06  -1.761576e+06
   1.578770e+06   8.437988e+05
   5.135874e+05   2.479313e+06
  -1.277686e+06   1.216079e+06
  -2.013002e+06  -1.582753e+06
  -3.810529e+05  -2.880057e+06
   2.523148e+06  -1.362777e+06
   3.858034e+06   1.398333e+06
   2.033976e+06   2.912774e+06
  -1.414590e+06   2.190075e+06
  -3.363239e+06   2.065541e+05
  -2.281545e+06  -1.341235e+06
   4.159343e+05  -1.431330e+06
   2.040630e+06  -3.267665e+05
   1.336776e+06   7.565386e+05
  -4.910747e+05   7.358318e+05
  -1.260076e+06  -2.814222e+05
  -1.875860e+05  -1.084470e+06
   1.307366e+06  -6.769752e+05
   1.265154e+06   5.924611e+05
  -4.932732e+05   1.380130e+06
  -2.059053e+06   7.311038e+05
  -1.558212e+06  -1.008579e+06
   7.631767e+05  -2.499619e+06
   2.878731e+06  -2.467987e+06
   3.178432e+06  -6.933850e+05
   1.903334e+06   1.716805e+06
   4.480572e+05   3.132828e+06
  -2.571714e+05   2.834773e+06
  -4.086720e+05   1.653396e+06
  -6.864402e+05   9.131388e+05
  -1.353911e+06   8.262470e+05
  -2.003829e+06   4.157311e+05
  -1.967180e+06  -8.750858e+05
  -9.352076e+05  -2.096125e+06
   6.447994e+05  -1.817802e+06
   1.728880e+06   1.865172e+04
   1.432126e+06   1.842864e+06
  -1.394215e+05   2.092449e+06
  -1.810082e+06   7.254583e+05
  -2.286953e+06  -9.891979e+05
  -1.339039e+06  -1.841407e+06
   2.626656e+04  -1.637131e+06
   6.785803e+05  -1.036626e+06
   5.972090e+05  -7.445474e+05
   7.710566e+05  -8.470865e+05
   1.798588e+06  -7.836018e+05
   2.867243e+06   4.479330e+04
   2.500257e+06   1.545277e+06
   3.452710e+05   2.804558e+06
  -2.126212e+06   2.797769e+06
  -2.971376e+06   1.342404e+06
  -1.728550e+06  -6.024887e+05
   1.923809e+05  -1.647153e+06
   1.025359e+06  -1.154067e+06
   3.351325e+05   1.559412e+05
  -8.248190e+05   8.652196e+05
  -1.180584e+06   3.055091e+05
  -4.731773e+05  -7.031300e+05
   4.567977e+05  -8.016707e+05
   5.910206e+05   2.088303e+05
  -2.867500e+05   9.813083e+05
  -1.369351e+06   1.973482e+05
  -1.503921e+06  -1.721884e+06
  -2.219181e+05  -2.907594e+06
   1.735005e+06  -2.058726e+06
   2.922931e+06   1.805796e+05
   2.409052e+06   1.976198e+06
   6.358157e+05   2.156905e+06
  -9.388075e+05   1.121536e+06
  -1.185702e+06   1.254725e+05
  -3.500812e+05  -1.184847e+04
   2.979501e+05   4.992421e+05
  -1.128878e+05   8.464038e+05
  -1.089150e+06   4.900113e+05
  -1.370222e+06  -3.205143e+05
  -4.491834e+05  -8.208486e+05
   7.375816e+05  -5.233072e+05
   8.103615e+05   2.569887e+05
  -4.601930e+05   6.840522e+05
  -1.792710e+06   2.115488e+05
  -1.715738e+06  -8.773376e+05
  -1.256490e+05  -1.692217e+06
   1.598322e+06  -1.501526e+06
   1.990891e+06  -3.950623e+05
   9.001614e+05   7.300040e+05
  -4.906213e+05   9.405236e+05
  -8.938199e+05   1.764629e+05
  -9.570835e+04  -6.401143e+05
   9.863617e+05  -5.539814e+05
   1.266165e+06   3.724806e+05
   4.933414e+05   1.130550e+06
  -5.811320e+05   9.240813e+05
  -9.616339e+05   5.726433e+04
  -3.755537e+05  -4.714073e+05
   4.519640e+05  -1.161954e+05
   5.217391e+05   6.709982e+05
  -3.821790e+05   9.905934e+05
  -1.397736e+06   4.093172e+05
  -1.443017e+06  -6.733314e+05
  -3.669338e+05  -1.409752e+06
   8.657123e+05  -1.224389e+06
   1.179069e+06  -3.033327e+05
   4.717865e+05   5.507554e+05
  -3.849748e+05   6.475849e+05
  -5.424170e+05   7.241255e+04
  -1.235746e+04  -4.420352e+05
   4.879568e+05  -3.511883e+05
   3.796321e+05   1.015250e+05
  -1.804281e+05   2.268792e+05
  -4.955036e+05  -2.472933e+05
  -6.120537e+04  -8.183139e+05
   8.783054e+05  -7.429291e+05
   1.488804e+06   1.622483e+05
   1.117879e+06   1.289624e+06
  -4.330670e+04   1.765085e+06
  -1.108257e+06   1.214360e+06
  -1.348012e+06   9.124565e+04
  -8.541418e+05  -7.312912e+05
  -3.091819e+05  -7.622021e+05
  -1.790407e+05  -3.189983e+05
  -2.676671e+05  -1.123204e+05
  -7.800426e+04  -4.089913e+05
   5.170714e+05  -7.207628e+05
   1.056943e+06  -4.052217e+05
   9.252005e+05   5.053629e+05
  -1.922917e+04   1.219221e+06
  -1.196658e+06   9.647609e+05
  -1.692052e+06  -2.046526e+05
  -1.006773e+06  -1.410480e+06
   4.521718e+05  -1.726001e+06
   1.648772e+06  -9.704490e+05
   1.788241e+06   1.939172e+05
   9.747597e+05   9.084273e+05
   1.499344e+04   8.836600e+05
  -3.982716e+05   5.563775e+05
  -2.711550e+05   5.066290e+05
  -1.299641e+05   7.739332e+05
  -3.686915e+05   8.325563e+05
  -8.239999e+05   2.515534e+05
  -9.632065e+05  -7.224145e+05
  -4.616914e+05  -1.333175e+06
   4.005136e+05  -1.051456e+06
   9.338508e+05  -8.960173e+04
   6.859554e+05   8.035320e+05
  -9.108884e+04   1.005111e+06
  -6.743285e+05   4.934534e+05
  -6.023072e+05  -2.360838e+05
  -1.211986e+05  -6.538952e+05
   1.526920e+05  -6.169466e+05
  -3.447275e+04  -3.824129e+05
  -2.856733e+05  -2.612659e+05
  -3.521123e+04  -2.873788e+05
   7.419906e+05  -2.306011e+05
   1.391255e+06   9.774643e+04
   1.200507e+06   5.968767e+05
   1.621339e+05   9.375598e+05
  -9.366231e+05   8.505610e+05
  -1.244619e+06   3.719803e+05
  -6.680384e+05  -1.555508e+05
   9.306318e+04  -3.452238e+05
   3.229651e+05  -1.146882e+05
  -4.198556e+03   2.010395e+05
  -3.550281e+05   1.727177e+05
  -3.389882e+05  -2.255395e+05
  -9.217553e+04  -5.333636e+05
   2.201200e+04  -3.406047e+05
  -1.112575e+05   1.543972e+05
  -2.820367e+05   3.174552e+05
  -2.297099e+05  -1.417733e+05
   1.185081e+05  -7.477950e+05
   5.885591e+05  -7.772927e+05
   8.222439e+05  -1.117360e+05
   5.088769e+05   6.141486e+05
  -2.426429e+05   7.206961e+05
  -7.986519e+05   1.846009e+05
  -5.281755e+05  -4.154697e+05
   4.446849e+05  -5.196611e+05
   1.196967e+06  -6.450815e+04
   9.169157e+05   5.508653e+05
  -1.930372e+05   8.340599e+05
  -1.094344e+06   5.738582e+05
  -1.004625e+06  -1.111969e+03
  -1.785369e+05  -3.944752e+05
   4.434604e+05  -2.789499e+05
   2.526181e+05   1.556257e+05
  -4.496635e+05   3.396988e+05
  -8.367584e+05  -9.584430e+04
  -4.219997e+05  -8.605277e+05
   4.781678e+05  -1.196476e+06
   1.088989e+06  -6.135147e+05
   9.271627e+05   5.423280e+05
   1.974539e+05   1.314754e+06
  -4.924590e+05   1.028142e+06
  -7.041279e+05  -2.130850e+04
  -4.361395e+05  -8.430651e+05
   2.896864e+04  -7.729299e+05
   3.787916e+05  -1.258547e+05
   4.223316e+05   2.766617e+05
   1.998559e+05   1.230929e+05
   3.412777e+03  -9.720161e+04
   1.074547e+05   1.435179e+05
   3.679495e+05   6.568544e+05
   2.731342e+05   8.000673e+05
  -3.985442e+05   3.390776e+05
  -1.106267e+06  -2.850114e+05
  -1.051394e+06  -5.647021e+05
  -1.734138e+05  -4.829449e+05
   6.801287e+05  -3.233925e+05
   7.392455e+05  -1.971981e+05
   2.031110e+05  -2.475280e+04
  -1.265305e+05   1.593436e+05
   6.793150e+04   2.010696e+05
   2.869884e+05   1.168564e+05
   3.740246e+03   9.814807e+04
  -5.706941e+05   1.499780e+05
  -7.441755e+05  -2.695057e+03
  -1.978422e+05  -4.622932e+05
   6.577231e+05  -8.156179e+05
   1.137989e+06  -5.345212e+05
   9.142793e+05   3.144183e+05
   2.032908e+05   1.022271e+06
  -4.863278e+05   9.881581e+05
  -7.363890e+05   3.573263e+05
  -4.904152e+05  -2.009757e+05
  -6.753319e+04  -2.507158e+05
   1.246823e+05   9.598002e+03
  -3.276900e+04   7.867073e+04
  -2.726651e+05  -2.320170e+05
  -2.394007e+05  -5.786635e+05
   1.267901e+05  -4.751017e+05
   5.089684e+05   1.297432e+05
   5.034103e+05   7.218040e+05
   1.561040e+04   7.251001e+05
  -5.837934e+05   1.122150e+05
  -7.334340e+05  -5.679030e+05
  -2.251249e+05  -7.683504e+05
   5.057901e+05  -4.439507e+05
   7.651520e+05   4.526210e+04
   3.554466e+05   3.656209e+05
  -1.773436e+05   4.197858e+05
  -1.922800e+05   2.622406e+05
   2.536611e+05   3.497319e+04
   4.871964e+05  -3.207078e+04
   8.854696e+04   2.015532e+05
  -5.779411e+05   5.233817e+05
  -8.322676e+05   4.870992e+05
  -4.825059e+05  -4.129415e+04
   5.063952e+04  -5.988394e+05
   3.058469e+05  -6.059873e+05
   2.224231e+05  -7.805022e+04
   8.710643e+03   3.731174e+05
  -1.726758e+05   2.778986e+05
  -2.575217e+05  -1.653115e+05
  -1.874157e+05  -4.117450e+05
   4.099414e+04  -2.457393e+05
   2.781148e+05   5.189079e+04
   3.297360e+05   1.405252e+05
   1.797316e+05   2.034373e+04
   2.193771e+03  -5.121988e+04
  -6.745248e+04   8.221426e+04
  -8.053119e+04   2.921080e+05
  -1.516767e+05   3.133208e+05
  -2.590005e+05   3.763813e+04
  -2.433005e+05  -3.371539e+05
  -6.963121e+03  -4.655011e+05
   3.190613e+05  -2.005807e+05
   4.369879e+05   2.274646e+05
   1.600342e+05   4.324504e+05
  -3.356092e+05   2.673760e+05
  -5.953580e+05  -6.074610e+04
  -3.341247e+05  -2.608077e+05
   1.983816e+05  -2.443754e+05
   4.322517e+05  -1.183278e+05
   1.257090e+05  -1.216391e+04
  -3.191061e+05  -2.746657e+03
  -3.195170e+05  -1.145975e+05
   1.787966e+05  -2.553640e+05
   6.300036e+05  -2.037515e+05
