
 $NMID
 id='ANONYMOUS ', fmtdat='(2E16.6)'
 volume=1.0
 tramp=1.0
 $END
  -2.227531e+07   1.150042e+06
  -1.594129e+07  -9.063466e+06
  -1.400288e+06  -1.407225e+07
   9.059193e+06  -1.074060e+07
   8.610338e+06  -2.100964e+06
   1.109935e+06   4.168349e+06
  -4.709290e+06   2.800834e+06
  -4.166446e+06  -3.463247e+06
   5.285243e+05  -6.871476e+06
   4.241399e+06  -3.422114e+06
   3.974914e+06   2.860025e+06
   6.793807e+05   4.997493e+06
  -2.260559e+06   1.042918e+06
  -2.030539e+06  -4.258745e+06
   1.122757e+06  -5.151178e+06
   3.945565e+06  -8.297236e+05
   3.267384e+06   4.401073e+06
  -6.422339e+05   5.892668e+06
  -4.231048e+06   2.954626e+06
  -4.429728e+06  -1.190394e+06
  -1.823431e+06  -3.060344e+06
   2.999220e+05  -2.235168e+06
  -2.584563e+05  -1.133567e+06
  -2.256612e+06  -1.849306e+06
  -2.478150e+06  -3.734488e+06
   6.561388e+05  -4.348391e+06
   5.036217e+06  -2.383363e+06
   6.615500e+06   8.973992e+05
   3.552923e+06   3.021351e+06
  -1.477692e+06   2.586620e+06
  -3.725788e+06   2.346937e+05
  -1.343293e+06  -2.002126e+06
   2.689158e+06  -2.155825e+06
   4.057832e+06   1.422217e+05
   1.861575e+06   3.014199e+06
  -9.970057e+05   3.718411e+06
  -1.688810e+06   1.457573e+06
  -4.112740e+05  -1.381183e+06
   7.169067e+05  -1.630493e+06
   4.352134e+05   9.288197e+05
  -7.836154e+05   3.121420e+06
  -1.809710e+06   2.125141e+06
  -1.794663e+06  -1.070246e+06
  -4.709168e+05  -2.816680e+06
   1.407793e+06  -1.137322e+06
   2.038030e+06   2.058116e+06
   1.311963e+05   3.292334e+06
  -3.118062e+06   1.306842e+06
  -4.556628e+06  -1.945962e+06
  -2.330214e+06  -3.610654e+06
   1.797363e+06  -2.599171e+06
   4.092626e+06  -1.381219e+05
   2.723334e+06   1.672937e+06
  -5.338684e+05   1.641277e+06
  -2.418434e+06   2.512649e+05
  -1.522180e+06  -9.532093e+05
   6.380481e+05  -8.152218e+05
   1.527563e+06   3.869867e+05
   2.886025e+05   1.285722e+06
  -1.460816e+06   8.528337e+05
  -1.475209e+06  -5.330194e+05
   5.245074e+05  -1.439964e+06
   2.359127e+06  -7.523850e+05
   1.729189e+06   1.245655e+06
  -1.166441e+06   2.986796e+06
  -3.790407e+06   2.849081e+06
  -4.013971e+06   5.738201e+05
  -2.185095e+06  -2.350854e+06
  -2.803859e+05  -3.911186e+06
   4.496835e+05  -3.414606e+06
   4.624521e+05  -2.019748e+06
   8.263263e+05  -1.235570e+06
   1.805905e+06  -1.122764e+06
   2.676965e+06  -4.687501e+05
   2.538558e+06   1.256558e+06
   1.120716e+06   2.775126e+06
  -9.085247e+05   2.339960e+06
  -2.228419e+06  -5.457908e+04
  -1.764449e+06  -2.385895e+06
   2.833560e+05  -2.640810e+06
   2.348132e+06  -7.851787e+05
   2.793485e+06   1.448657e+06
   1.460951e+06   2.424729e+06
  -2.445780e+05   1.978558e+06
  -9.350023e+05   1.127705e+06
  -7.335768e+05   8.077017e+05
  -9.423901e+05   9.986688e+05
  -2.239105e+06   8.993356e+05
  -3.543641e+06  -1.827502e+05
  -3.032841e+06  -2.033827e+06
  -3.046942e+05  -3.512379e+06
   2.794627e+06  -3.407121e+06
   3.817734e+06  -1.539764e+06
   2.166820e+06   8.743839e+05
  -3.373667e+05   2.105860e+06
  -1.381638e+06   1.413097e+06
  -4.231742e+05  -2.286305e+05
   1.089977e+06  -1.050907e+06
   1.488524e+06  -3.100040e+05
   5.346321e+05   9.177382e+05
  -6.196892e+05   9.949490e+05
  -7.444209e+05  -2.607857e+05
   3.331726e+05  -1.203416e+06
   1.626211e+06  -2.529524e+05
   1.796569e+06   2.088969e+06
   2.684678e+05   3.560711e+06
  -2.123754e+06   2.532211e+06
  -3.615706e+06  -2.574846e+05
  -2.983826e+06  -2.519970e+06
  -7.467486e+05  -2.728974e+06
   1.228221e+06  -1.376569e+06
   1.503913e+06  -1.054664e+05
   4.369859e+05   3.041382e+04
  -3.501127e+05  -6.365948e+05
   1.833333e+05  -1.035727e+06
   1.371067e+06  -5.417572e+05
   1.672697e+06   4.597994e+05
   5.155992e+05   1.027120e+06
  -9.379893e+05   6.204159e+05
  -1.012663e+06  -3.417680e+05
   5.711656e+05  -8.452458e+05
   2.236207e+06  -2.332573e+05
   2.137072e+06   1.131386e+06
   1.255948e+05   2.121717e+06
  -2.046182e+06   1.828075e+06
  -2.503343e+06   4.156785e+05
  -1.081214e+06  -9.479394e+05
   6.663446e+05  -1.135082e+06
   1.115851e+06  -1.585763e+05
   7.303519e+04   8.080113e+05
  -1.259719e+06   6.420801e+05
  -1.558931e+06  -5.143593e+05
  -5.761322e+05  -1.417573e+06
   7.413365e+05  -1.127755e+06
   1.188352e+06  -4.806774e+04
   4.522239e+05   5.872114e+05
  -5.616584e+05   1.184786e+05
  -6.184900e+05  -8.652574e+05
   5.276578e+05  -1.225720e+06
   1.774015e+06  -4.482686e+05
   1.776010e+06   9.113478e+05
   3.933308e+05   1.777311e+06
  -1.132255e+06   1.485502e+06
  -1.478283e+06   3.283610e+05
  -5.656375e+05  -7.005170e+05
   5.039672e+05  -7.920938e+05
   6.903296e+05  -7.425060e+04
   1.909908e+04   5.598969e+05
  -6.191992e+05   4.462577e+05
  -4.973283e+05  -1.193532e+05
   1.999305e+05  -2.811516e+05
   5.962905e+05   3.061747e+05
   4.952977e+04   1.009143e+06
  -1.121889e+06   8.894157e+05
  -1.852102e+06  -2.648831e+05
  -1.340546e+06  -1.661225e+06
   1.269899e+05  -2.208823e+06
   1.427646e+06  -1.482648e+06
   1.689444e+06  -7.636185e+04
   1.062572e+06   9.405265e+05
   3.870896e+05   9.817632e+05
   2.167380e+05   4.347111e+05
   3.099411e+05   1.642474e+05
   6.716770e+04   5.076642e+05
  -6.681991e+05   8.762141e+05
  -1.331228e+06   4.745349e+05
  -1.149940e+06  -6.587943e+05
   5.247826e+04  -1.526881e+06
   1.527393e+06  -1.167233e+06
   2.110013e+06   3.185433e+05
   1.203760e+06   1.796412e+06
  -6.297807e+05   2.125836e+06
  -2.086258e+06   1.140911e+06
  -2.219083e+06  -3.005557e+05
  -1.195905e+06  -1.156608e+06
  -7.757159e+03  -1.108518e+06
   5.149811e+05  -7.045669e+05
   3.807104e+05  -6.439570e+05
   2.190366e+05  -9.631731e+05
   5.049789e+05  -1.013522e+06
   1.039900e+06  -2.692361e+05
   1.173296e+06   9.501718e+05
   5.200327e+05   1.691176e+06
  -5.482530e+05   1.301023e+06
  -1.171092e+06   7.578369e+04
  -8.205115e+05  -1.025794e+06
   1.496528e+05  -1.241968e+06
   8.419860e+05  -5.859772e+05
   7.222907e+05   3.070503e+05
   1.232755e+05   8.007630e+05
  -2.014322e+05   7.499417e+05
   3.926501e+04   4.783138e+05
   3.476228e+05   3.450254e+05
   3.204145e+04   3.641889e+05
  -9.308924e+05   2.528282e+05
  -1.726476e+06  -1.869329e+05
  -1.470874e+06  -7.936161e+05
  -1.630249e+05  -1.163495e+06
   1.202483e+06  -1.008950e+06
   1.562092e+06  -4.135244e+05
   8.180290e+05   2.082188e+05
  -1.334140e+05   4.169760e+05
  -3.999708e+05   1.305639e+05
   2.582858e+04  -2.485696e+05
   4.575365e+05  -2.031782e+05
   4.131778e+05   2.986697e+05
   8.712237e+04   6.843527e+05
  -4.941197e+04   4.359739e+05
   1.390603e+05  -1.955780e+05
   3.637728e+05  -4.013120e+05
   2.825052e+05   1.835198e+05
  -1.799006e+05   9.391605e+05
  -7.713184e+05   9.464751e+05
  -1.031735e+06   8.720077e+04
  -6.016897e+05  -8.034927e+05
   3.446191e+05  -8.842281e+05
   1.012409e+06  -1.815938e+05
   6.455017e+05   5.471310e+05
  -5.743887e+05   6.303252e+05
  -1.498627e+06   3.938298e+04
  -1.132850e+06  -7.117055e+05
   2.595345e+05  -1.032280e+06
   1.381325e+06  -6.870798e+05
   1.257579e+06   2.769635e+04
   2.138521e+05   4.979384e+05
  -5.611412e+05   3.333187e+05
  -3.038263e+05  -2.066786e+05
   5.870601e+05  -4.075135e+05
   1.051622e+06   1.632270e+05
   4.883815e+05   1.109386e+06
  -6.637161e+05   1.486935e+06
  -1.402573e+06   7.217841e+05
  -1.142378e+06  -7.231012e+05
  -1.929262e+05  -1.659749e+06
   6.551111e+05  -1.272657e+06
   8.766586e+05   4.896187e+04
   5.161346e+05   1.067418e+06
  -5.649359e+04   9.631126e+05
  -4.743517e+05   1.424921e+05
  -5.247980e+05  -3.592358e+05
  -2.535954e+05  -1.574651e+05
  -3.982630e+03   1.206342e+05
  -1.155396e+05  -1.909666e+05
  -4.284307e+05  -8.413430e+05
  -3.173126e+05  -1.007187e+06
   5.044103e+05  -3.995964e+05
   1.376505e+06   4.026232e+05
   1.301115e+06   7.438222e+05
   1.962897e+05   6.102885e+05
  -8.729409e+05   3.834150e+05
  -9.346187e+05   2.211303e+05
  -2.464851e+05   1.985395e+04
   1.685655e+05  -1.965861e+05
  -8.776381e+04  -2.496440e+05
  -3.673958e+05  -1.534136e+05
   1.521527e+03  -1.274394e+05
   7.336680e+05  -1.709044e+05
   9.356042e+05   3.894748e+04
   2.160762e+05   6.010880e+05
  -8.732773e+05   9.992277e+05
  -1.453202e+06   6.094456e+05
  -1.129851e+06  -4.500039e+05
  -2.092476e+05  -1.296533e+06
   6.545138e+05  -1.213944e+06
   9.458950e+05  -4.113328e+05
   6.130533e+05   2.762436e+05
   7.069996e+04   3.215942e+05
  -1.676755e+05  -1.360569e+04
   3.598320e+04  -9.915960e+04
   3.326295e+05   2.966432e+05
   2.779403e+05   7.331000e+05
  -1.835812e+05   5.912308e+05
  -6.409036e+05  -1.882781e+05
  -6.019514e+05  -9.385149e+05
   2.125242e+04  -9.201959e+05
   7.506704e+05  -1.137583e+05
   9.013310e+05   7.545263e+05
   2.435771e+05   9.799689e+05
  -6.622705e+05   5.313159e+05
  -9.577844e+05  -9.703549e+04
  -4.202354e+05  -4.752021e+05
   2.487679e+05  -5.125265e+05
   2.495058e+05  -3.121216e+05
  -3.258804e+05  -4.954588e+04
  -6.158882e+05   1.985550e+04
  -9.856567e+04  -2.584767e+05
   7.476047e+05  -6.322016e+05
   1.055109e+06  -5.722628e+05
   5.914292e+05   7.646224e+04
  -9.398142e+04   7.477695e+05
  -4.088117e+05   7.375956e+05
  -2.823766e+05   7.570607e+04
   5.588189e+03  -4.755436e+05
   2.346275e+05  -3.394176e+05
   3.234260e+05   2.239651e+05
   2.163677e+05   5.266607e+05
  -7.049980e+04   3.036666e+05
  -3.498269e+05  -8.032638e+04
  -4.007557e+05  -1.899204e+05
  -2.201375e+05  -3.021382e+04
  -1.346257e+04   6.361765e+04
   7.652097e+04  -1.089708e+05
   1.171347e+05  -3.767968e+05
   2.232788e+05  -3.949154e+05
   3.436337e+05  -3.020948e+04
   2.917618e+05   4.504901e+05
  -2.070998e+04   5.986504e+05
  -4.160635e+05   2.385761e+05
  -5.397740e+05  -3.137774e+05
  -1.817424e+05  -5.562489e+05
   4.328871e+05  -3.177334e+05
   7.450246e+05   1.098606e+05
   4.064446e+05   3.449146e+05
  -2.657020e+05   2.938471e+05
  -5.534929e+05   1.220279e+05
  -1.552057e+05   2.918126e+03
   4.127401e+05   1.424412e+04
   4.067521e+05   1.614116e+05
  -2.361828e+05   3.230015e+05
  -8.089476e+05   2.381235e+05
