
 $NMID
 id='ANONYMOUS ', fmtdat='(2E16.6)'
 volume=1.0
 tramp=1.0
 $END
  -4.743647e+07   2.112670e+06
  -3.037533e+07  -2.704035e+07
   3.867998e+06  -3.211102e+07
   2.231576e+07  -1.456865e+07
   1.471662e+07   4.084969e+06
  -1.840214e+06   8.117363e+06
  -8.572250e+06   1.629543e+05
  -3.484260e+06  -8.061546e+06
   4.435899e+06  -8.939255e+06
   8.203551e+06  -2.696185e+06
   6.409187e+06   5.118749e+06
   1.043452e+06   7.649543e+06
  -3.455354e+06   2.421118e+06
  -2.635166e+06  -5.073379e+06
   2.888917e+06  -6.327396e+06
   6.910144e+06   5.161054e+05
   4.471282e+06   8.564084e+06
  -2.587894e+06   1.039361e+07
  -8.386674e+06   5.463045e+06
  -9.204808e+06  -1.480518e+06
  -5.604857e+06  -6.106862e+06
  -7.243136e+05  -6.935779e+06
   1.862563e+06  -4.870374e+06
   6.799264e+05  -2.573891e+06
  -1.518725e+06  -2.577170e+06
  -1.184376e+05  -4.224307e+06
   5.192098e+06  -4.020318e+06
   8.859482e+06  -4.102171e+05
   6.259419e+06   3.627973e+06
  -5.217451e+04   4.395589e+06
  -3.646163e+06   2.053919e+06
  -2.160905e+06  -4.509847e+05
   1.158991e+06  -1.266481e+06
   2.752184e+06  -3.645571e+05
   2.138891e+06   1.805138e+06
   3.478423e+05   3.858716e+06
  -1.653787e+06   3.276471e+06
  -2.477288e+06  -3.336624e+05
  -1.181940e+06  -3.042379e+06
   6.067029e+05  -1.188122e+06
   9.814920e+04   2.629780e+06
  -2.235907e+06   2.340358e+06
  -2.391022e+06  -2.566899e+06
   1.461337e+06  -5.364657e+06
   5.462311e+06  -1.294154e+06
   4.545305e+06   5.480891e+06
  -1.091859e+06   7.229265e+06
  -6.227309e+06   2.369160e+06
  -6.485337e+06  -3.593020e+06
  -2.169740e+06  -5.371322e+06
   2.972923e+06  -2.806261e+06
   5.035157e+06   9.381451e+05
   2.631392e+06   2.960623e+06
  -1.858760e+06   2.143690e+06
  -4.020724e+06  -4.712612e+05
  -1.935913e+06  -2.204010e+06
   1.394361e+06  -1.284514e+06
   1.727853e+06   8.138188e+05
  -8.732995e+05   1.078052e+06
  -2.292784e+06  -9.798766e+05
  -7.267411e+04  -2.711348e+06
   3.485418e+06  -1.955165e+06
   4.594308e+06   6.205914e+05
   2.305833e+06   3.193153e+06
  -1.482061e+06   4.733591e+06
  -4.565589e+06   4.475362e+06
  -5.585682e+06   1.622526e+06
  -4.051480e+06  -2.815784e+06
  -9.537326e+05  -5.569279e+06
   1.353679e+06  -4.500396e+06
   1.400961e+06  -1.509125e+06
   3.709597e+05  -1.485927e+05
   4.487924e+05  -1.004871e+06
   1.849190e+06  -1.473713e+06
   2.740793e+06   9.012163e+04
   1.840727e+06   2.116772e+06
  -1.752004e+05   2.209240e+06
  -1.745880e+06   1.699424e+05
  -1.769877e+06  -2.139626e+06
  -4.629118e+03  -2.881163e+06
   2.626136e+06  -1.509945e+06
   4.082700e+06   1.136899e+06
   2.882888e+06   3.325466e+06
   4.150690e+04   3.650694e+06
  -1.842478e+06   2.383145e+06
  -1.811797e+06   1.133361e+06
  -1.595459e+06   8.330458e+05
  -2.775216e+06   6.812722e+05
  -4.203157e+06  -4.936774e+05
  -3.479395e+06  -2.505827e+06
  -2.890520e+05  -4.006855e+06
   3.029036e+06  -3.897071e+06
   4.066094e+06  -2.097471e+06
   2.560813e+06   4.754398e+05
   1.717032e+05   2.212496e+06
  -1.134371e+06   1.841499e+06
  -5.314285e+05  -7.217106e+04
   1.066232e+06  -1.283686e+06
   1.807711e+06  -4.327534e+05
   8.633067e+05   1.115419e+06
  -5.223230e+05   1.108113e+06
  -5.296256e+05  -3.537551e+05
   8.733330e+05  -8.768962e+05
   1.869405e+06   8.433988e+05
   1.063589e+06   3.154368e+06
  -1.033912e+06   3.554073e+06
  -2.898378e+06   1.592663e+06
  -3.479233e+06  -1.070484e+06
  -2.559134e+06  -2.683861e+06
  -5.977899e+05  -2.665862e+06
   1.216077e+06  -1.489552e+06
   1.571223e+06  -2.381912e+05
   4.859588e+05   2.974763e+04
  -3.805811e+05  -7.233328e+05
   3.228846e+05  -1.292869e+06
   1.779546e+06  -6.300888e+05
   1.994755e+06   7.353536e+05
   4.630690e+05   1.328063e+06
  -1.114836e+06   6.226471e+05
  -9.447992e+05  -4.132778e+05
   7.817608e+05  -6.338291e+05
   2.238303e+06   1.328670e+05
   1.901509e+06   1.281239e+06
  -1.125774e+05   2.045470e+06
  -2.234711e+06   1.777786e+06
  -2.736507e+06   3.828022e+05
  -1.233383e+06  -1.170780e+06
   8.260937e+05  -1.454704e+06
   1.463477e+06  -2.281494e+05
   2.014033e+05   1.019602e+06
  -1.453283e+06   7.629083e+05
  -1.723599e+06  -6.822240e+05
  -4.435335e+05  -1.611187e+06
   9.985478e+05  -1.057672e+06
   1.269235e+06   1.966406e+05
   3.209740e+05   7.412255e+05
  -7.488873e+05   9.364377e+04
  -7.454933e+05  -1.001551e+06
   5.341075e+05  -1.408915e+06
   1.962106e+06  -5.789382e+05
   2.026160e+06   9.765755e+05
   4.455868e+05   2.019939e+06
  -1.341918e+06   1.664833e+06
  -1.684968e+06   2.864076e+05
  -5.471744e+05  -8.281874e+05
   6.104361e+05  -8.289584e+05
   6.536850e+05  -9.120352e+04
  -8.093257e+04   4.186113e+05
  -5.273029e+05   2.789675e+05
  -2.161519e+05  -8.192265e+04
   4.003612e+05  -2.353626e+04
   5.644912e+05   5.803505e+05
  -1.162965e+05   1.167340e+06
  -1.315141e+06   9.419420e+05
  -2.064476e+06  -3.298286e+05
  -1.504498e+06  -1.862531e+06
   1.359635e+05  -2.406547e+06
   1.556799e+06  -1.488605e+06
   1.716348e+06   3.818306e+04
   9.385280e+05   9.004826e+05
   3.490038e+05   7.330920e+05
   4.222025e+05   2.589233e+05
   5.676913e+05   2.613974e+05
   1.083770e+05   7.090863e+05
  -8.148683e+05   9.299186e+05
  -1.431987e+06   4.010261e+05
  -1.104535e+06  -6.920126e+05
   1.716724e+05  -1.502216e+06
   1.671608e+06  -1.152378e+06
   2.256146e+06   3.935531e+05
   1.219239e+06   2.026509e+06
  -8.705381e+05   2.366894e+06
  -2.440903e+06   1.137960e+06
  -2.368842e+06  -5.230174e+05
  -1.059633e+06  -1.291781e+06
   1.370086e+05  -1.004000e+06
   4.143728e+05  -5.704250e+05
   1.314968e+05  -7.338181e+05
   9.529836e+04  -1.241510e+06
   6.034925e+05  -1.257231e+06
   1.240213e+06  -3.462014e+05
   1.343242e+06   1.026845e+06
   6.045981e+05   1.854584e+06
  -5.742265e+05   1.438540e+06
  -1.274926e+06   4.948983e+04
  -8.590069e+05  -1.217868e+06
   3.017580e+05  -1.389133e+06
   1.093195e+06  -4.859798e+05
   8.222866e+05   5.922024e+05
  -3.615470e+04   1.029848e+06
  -4.441396e+05   8.016175e+05
  -4.746855e+04   4.393680e+05
   4.265995e+05   3.296995e+05
   6.401561e+04   3.813487e+05
  -1.106394e+06   2.541120e+05
  -2.018620e+06  -2.459897e+05
  -1.630988e+06  -9.495880e+05
  -4.805755e+04  -1.392044e+06
   1.487207e+06  -1.168339e+06
   1.784989e+06  -3.618138e+05
   8.559269e+05   4.126397e+05
  -2.180611e+05   5.487086e+05
  -4.922158e+05   7.082841e+04
  -3.130564e+04  -3.846543e+05
   4.436080e+05  -2.599576e+05
   4.808831e+05   3.223798e+05
   2.383085e+05   7.129675e+05
   7.770757e+04   4.699568e+05
   1.382261e+05  -1.217300e+05
   2.951172e+05  -3.256211e+05
   2.865178e+05   2.169567e+05
  -1.249808e+05   9.892513e+05
  -8.506539e+05   1.076094e+06
  -1.297548e+06   1.985895e+05
  -8.320231e+05  -8.731864e+05
   3.698912e+05  -1.107513e+06
   1.205910e+06  -3.444862e+05
   7.377718e+05   5.520813e+05
  -6.645135e+05   6.711183e+05
  -1.589054e+06  -2.570180e+04
  -1.066685e+06  -8.155233e+05
   4.167400e+05  -1.023367e+06
   1.479072e+06  -5.670187e+05
   1.256922e+06   1.274425e+05
   1.653720e+05   5.132907e+05
  -6.314145e+05   3.030367e+05
  -3.807853e+05  -2.676272e+05
   5.742929e+05  -5.203730e+05
   1.168606e+06   6.224161e+04
   6.765266e+05   1.155239e+06
  -5.562763e+05   1.691688e+06
  -1.452543e+06   9.064029e+05
  -1.267502e+06  -7.191808e+05
  -2.559156e+05  -1.775876e+06
   6.937846e+05  -1.323016e+06
   9.308326e+05   1.282104e+05
   4.850814e+05   1.168186e+06
  -1.655267e+05   9.840223e+05
  -5.496125e+05   1.120480e+05
  -4.903503e+05  -3.648904e+05
  -1.834062e+05  -1.386862e+05
  -3.919912e+04   1.023750e+05
  -2.645219e+05  -2.690592e+05
  -5.294667e+05  -9.359706e+05
  -2.450030e+05  -1.070515e+06
   6.736251e+05  -4.223489e+05
   1.482863e+06   4.134660e+05
   1.317170e+06   7.903759e+05
   2.097304e+05   6.836558e+05
  -8.481454e+05   4.410688e+05
  -9.774410e+05   2.190273e+05
  -3.484328e+05  -2.974239e+04
   1.424321e+05  -2.265127e+05
   1.256207e+04  -2.158919e+05
  -2.826562e+05  -9.707711e+04
  -4.776823e+04  -1.304978e+05
   6.662254e+05  -2.474092e+05
   1.036109e+06  -1.961281e+04
   4.289184e+05   6.654404e+05
  -8.088020e+05   1.185117e+06
  -1.647549e+06   7.987593e+05
  -1.393829e+06  -3.850966e+05
  -3.149229e+05  -1.387397e+06
   7.085700e+05  -1.386943e+06
   1.020655e+06  -5.602163e+05
   6.591429e+05   2.163814e+05
   1.389382e+05   3.495917e+05
  -7.861332e+04   5.756401e+04
   7.704488e+04  -3.007050e+04
   3.183347e+05   3.514015e+05
   2.790067e+05   7.944207e+05
  -1.562277e+05   6.768183e+05
  -6.810307e+05  -1.050899e+05
  -7.579108e+05  -9.244239e+05
  -1.386373e+05  -1.014979e+06
   7.427439e+05  -2.602518e+05
   1.046708e+06   6.868183e+05
   3.778678e+05   1.065925e+06
  -6.827689e+05   6.893381e+05
  -1.106094e+06  -3.544997e+04
  -5.448841e+05  -5.793003e+05
   2.570911e+05  -6.733252e+05
   3.535348e+05  -3.784013e+05
  -2.544733e+05  -6.076330e+03
  -6.450704e+05   6.041134e+04
  -1.537810e+05  -2.976096e+05
   7.947721e+05  -7.045388e+05
   1.223547e+06  -5.902834e+05
   7.551574e+05   1.388554e+05
  -6.392815e+04   8.620089e+05
  -5.077821e+05   8.676396e+05
  -4.057229e+05   1.719601e+05
  -6.526397e+04  -4.757335e+05
   2.216463e+05  -4.355577e+05
   3.531094e+05   1.406840e+05
   2.721115e+05   5.632770e+05
  -3.657952e+04   4.183733e+05
  -3.882603e+05  -3.293465e+04
  -4.810406e+05  -2.548911e+05
  -2.453429e+05  -8.206525e+04
   3.757762e+04   1.408126e+05
   8.699949e+04   2.799933e+04
  -1.361979e+04  -3.518819e+05
   4.070036e+04  -5.355053e+05
   3.087613e+05  -2.144676e+05
   4.569367e+05   3.644443e+05
   1.672837e+05   6.338826e+05
  -3.954797e+05   3.229761e+05
  -6.637106e+05  -2.550860e+05
  -2.692498e+05  -5.608342e+05
   4.873231e+05  -3.814483e+05
   8.735857e+05   4.310349e+04
   4.875730e+05   3.560024e+05
  -2.746015e+05   4.034473e+05
  -6.215902e+05   2.453202e+05
  -2.425527e+05   2.843726e+04
   3.457455e+05  -7.369823e+04
   4.069158e+05   5.532228e+04
  -1.624728e+05   2.973312e+05
  -7.356025e+05   2.942530e+05
