
 $NMID
 id='ANONYMOUS ', fmtdat='(2E16.6)'
 volume=1.0
 tramp=1.0
 $END
   6.104010e+07   7.923541e+05
   3.597725e+07   3.865338e+07
  -8.975379e+06   4.126638e+07
  -3.019077e+07   1.502891e+07
  -1.749914e+07  -8.246333e+06
   3.927087e+06  -9.989596e+06
   1.050618e+07   1.752588e+06
   2.586572e+06   1.061341e+07
  -6.970438e+06   9.704455e+06
  -1.040012e+07   1.797404e+06
  -7.395747e+06  -6.743256e+06
  -7.763009e+05  -9.169599e+06
   4.290118e+06  -2.945557e+06
   2.723894e+06   5.701011e+06
  -4.155486e+06   6.792079e+06
  -8.414770e+06  -1.664728e+06
  -4.551514e+06  -1.105612e+07
   4.304220e+06  -1.261018e+07
   1.099064e+07  -6.229196e+06
   1.168650e+07   2.306605e+06
   7.178053e+06   8.194478e+06
   6.951385e+05   9.513726e+06
  -3.385599e+06   6.638458e+06
  -2.329594e+06   2.779664e+06
   1.014781e+06   2.032784e+06
   3.471762e+05   4.271705e+06
  -5.606100e+06   4.686624e+06
  -1.021863e+07   5.856605e+05
  -7.539225e+06  -4.401923e+06
  -3.863711e+05  -5.457409e+06
   3.846677e+06  -2.862532e+06
   2.678813e+06  -1.948941e+05
  -3.974623e+05   8.744985e+05
  -2.172813e+06   5.911733e+05
  -2.308563e+06  -1.320683e+06
  -8.711045e+05  -4.079253e+06
   1.900484e+06  -4.183047e+06
   3.610972e+06   2.797217e+04
   1.956589e+06   3.962637e+06
  -8.754456e+05   2.245700e+06
  -4.685555e+05  -2.473223e+06
   2.593325e+06  -2.366542e+06
   2.535293e+06   3.496467e+06
  -2.833545e+06   6.561662e+06
  -7.662330e+06   9.297446e+05
  -5.457413e+06  -7.631683e+06
   2.257477e+06  -9.215514e+06
   8.055580e+06  -2.504020e+06
   7.313136e+06   4.860813e+06
   1.795249e+06   6.422127e+06
  -3.739304e+06   2.760508e+06
  -5.483830e+06  -1.759855e+06
  -2.426085e+06  -3.758910e+06
   2.674181e+06  -2.275237e+06
   4.829591e+06   1.103286e+06
   2.010553e+06   2.973429e+06
  -1.877731e+06   1.439297e+06
  -1.795766e+06  -1.124216e+06
   1.507279e+06  -8.832637e+05
   2.599739e+06   2.067424e+06
  -8.779927e+05   3.776332e+06
  -5.149835e+06   1.927440e+06
  -5.689639e+06  -1.646660e+06
  -2.386539e+06  -4.356841e+06
   1.960761e+06  -5.610155e+06
   5.304569e+06  -5.133506e+06
   6.592845e+06  -1.857239e+06
   4.915253e+06   3.368260e+06
   9.841764e+05   6.570205e+06
  -2.080088e+06   5.008267e+06
  -1.929633e+06   1.159666e+06
  -8.784039e+04  -3.891628e+05
   1.991635e+05   1.020562e+06
  -1.574721e+06   1.977372e+06
  -2.947087e+06   3.765283e+05
  -2.184414e+06  -1.929881e+06
  -1.123554e+05  -2.209697e+06
   1.545085e+06  -2.432666e+05
   1.724338e+06   2.117359e+06
   1.905438e+04   3.061126e+06
  -2.909017e+06   1.775796e+06
  -4.767832e+06  -1.237721e+06
  -3.457671e+06  -4.032501e+06
   6.030175e+04  -4.571370e+06
   2.501674e+06  -2.926662e+06
   2.451641e+06  -1.177657e+06
   1.974871e+06  -6.569750e+05
   3.102601e+06  -4.345419e+05
   4.559985e+06   8.703494e+05
   3.625559e+06   2.950722e+06
   9.159911e+04   4.326256e+06
  -3.380390e+06   4.063485e+06
  -4.369215e+06   2.229435e+06
  -2.801297e+06  -4.074110e+05
  -3.358470e+05  -2.334931e+06
   1.125117e+06  -2.053562e+06
   5.998499e+05   2.138736e+04
  -1.135422e+06   1.377565e+06
  -2.020029e+06   4.085260e+05
  -9.852202e+05  -1.285997e+06
   5.316714e+05  -1.165413e+06
   4.073764e+05   4.148643e+05
  -1.176984e+06   6.552691e+05
  -1.920098e+06  -1.504005e+06
  -5.140136e+05  -3.741388e+06
   1.855805e+06  -3.482314e+06
   3.343521e+06  -9.734391e+05
   3.368162e+06   1.633580e+06
   2.260397e+06   2.885446e+06
   4.249802e+05   2.687674e+06
  -1.295112e+06   1.519241e+06
  -1.645468e+06   2.408764e+05
  -5.166890e+05  -5.250739e+04
   3.665268e+05   7.949807e+05
  -4.665979e+05   1.420161e+06
  -2.043199e+06   5.867384e+05
  -2.140016e+06  -9.863397e+05
  -3.707135e+05  -1.515154e+06
   1.245783e+06  -5.759698e+05
   9.019083e+05   4.902644e+05
  -9.139387e+05   4.904398e+05
  -2.244285e+06  -4.133617e+05
  -1.747261e+06  -1.440059e+06
   3.148744e+05  -2.017148e+06
   2.432381e+06  -1.674671e+06
   2.907716e+06  -2.456870e+05
   1.267227e+06   1.359976e+06
  -9.972579e+05   1.594440e+06
  -1.674169e+06   1.864615e+05
  -2.152070e+05  -1.157113e+06
   1.610529e+06  -7.639749e+05
   1.793742e+06   8.575203e+05
   3.050197e+05   1.742600e+06
  -1.182395e+06   9.808082e+05
  -1.305504e+06  -3.804775e+05
  -2.191577e+05  -8.349688e+05
   8.568677e+05  -4.000692e+04
   7.709976e+05   1.123430e+06
  -6.141061e+05   1.499618e+06
  -2.117306e+06   5.616356e+05
  -2.138191e+06  -1.121715e+06
  -3.812834e+05  -2.193366e+06
   1.546341e+06  -1.712303e+06
   1.823146e+06  -1.881489e+05
   5.041305e+05   9.257713e+05
  -7.091161e+05   8.278780e+05
  -6.486655e+05   7.653793e+04
   1.421256e+05  -3.431355e+05
   4.897241e+05  -1.812213e+05
   7.483755e+04   5.658154e+04
  -4.941405e+05  -1.354830e+05
  -5.165355e+05  -7.496769e+05
   2.597114e+05  -1.250146e+06
   1.474211e+06  -9.167003e+05
   2.184647e+06   4.650085e+05
   1.520991e+06   2.063034e+06
  -2.528132e+05   2.535374e+06
  -1.705967e+06   1.441465e+06
  -1.746219e+06  -1.688000e+05
  -8.545556e+05  -9.239831e+05
  -3.195793e+05  -6.291391e+05
  -5.326980e+05  -2.028208e+05
  -6.905009e+05  -3.533388e+05
  -8.984144e+04  -8.288957e+05
   9.427075e+05  -9.286678e+05
   1.516243e+06  -3.045901e+05
   1.067131e+06   7.617759e+05
  -2.950697e+05   1.497326e+06
  -1.815565e+06   1.084150e+06
  -2.342217e+06  -5.387102e+05
  -1.147603e+06  -2.223437e+06
   1.116925e+06  -2.473158e+06
   2.702565e+06  -1.031446e+06
   2.444058e+06   7.495956e+05
   9.444179e+05   1.414183e+06
  -2.475280e+05   9.508734e+05
  -3.845071e+05   4.993395e+05
  -4.200136e+04   7.994680e+05
  -1.010992e+05   1.404294e+06
  -7.281993e+05   1.368558e+06
  -1.378559e+06   3.275384e+05
  -1.402182e+06  -1.145657e+06
  -5.704743e+05  -1.993930e+06
   6.627422e+05  -1.503863e+06
   1.346285e+06   2.166482e+04
   8.293857e+05   1.370451e+06
  -4.491754e+05   1.462334e+06
  -1.250528e+06   3.821671e+05
  -8.435709e+05  -7.854813e+05
   1.737391e+05  -1.150108e+06
   6.099667e+05  -8.065642e+05
   1.079065e+05  -4.186221e+05
  -4.604155e+05  -3.488714e+05
  -6.458552e+04  -4.001901e+05
   1.222123e+06  -2.025845e+05
   2.182633e+06   3.798456e+05
   1.687474e+06   1.118981e+06
  -8.061592e+04   1.523236e+06
  -1.710771e+06   1.188065e+06
  -1.935517e+06   2.541929e+05
  -8.581797e+05  -5.598740e+05
   2.946538e+05  -6.096148e+05
   5.455560e+05  -1.573958e+04
   3.700189e+04   4.642729e+05
  -4.568964e+05   2.754331e+05
  -5.077082e+05  -3.627545e+05
  -2.878971e+05  -7.566097e+05
  -1.223160e+05  -5.047882e+05
  -1.403871e+05   8.031119e+04
  -2.732653e+05   2.836962e+05
  -2.817983e+05  -2.492930e+05
   1.424390e+05  -1.027244e+06
   9.552411e+05  -1.117808e+06
   1.466355e+06  -1.888705e+05
   9.212306e+05   9.691444e+05
  -4.468672e+05   1.220369e+06
  -1.345612e+06   3.713686e+05
  -7.724493e+05  -5.982160e+05
   7.497873e+05  -6.689066e+05
   1.652849e+06   1.296093e+05
   1.008651e+06   9.197082e+05
  -5.440706e+05   1.006989e+06
  -1.565950e+06   4.475902e+05
  -1.263298e+06  -2.314712e+05
  -1.211075e+05  -5.322669e+05
   6.867344e+05  -2.618181e+05
   4.107010e+05   3.227000e+05
  -6.040993e+05   5.624736e+05
  -1.248341e+06  -6.660760e+04
  -7.319417e+05  -1.234068e+06
   5.909977e+05  -1.803808e+06
   1.546883e+06  -9.509817e+05
   1.320163e+06   7.867761e+05
   2.120657e+05   1.874616e+06
  -7.805134e+05   1.336839e+06
  -9.616778e+05  -2.117628e+05
  -4.222775e+05  -1.254146e+06
   2.650013e+05  -9.952979e+05
   5.985439e+05  -7.103647e+04
   4.644773e+05   3.909785e+05
   1.456702e+05   1.343521e+05
   6.074803e+04  -9.079606e+04
   3.284378e+05   3.324998e+05
   5.444641e+05   1.025229e+06
   1.640569e+05   1.123613e+06
  -7.880449e+05   4.021671e+05
  -1.540592e+06  -4.919131e+05
  -1.308985e+06  -8.801714e+05
  -1.871788e+05  -7.401949e+05
   8.691239e+05  -4.435733e+05
   1.022018e+06  -1.785178e+05
   4.011383e+05   7.585072e+04
  -1.421746e+05   2.407409e+05
  -7.060316e+04   1.952183e+05
   2.429271e+05   7.624920e+04
   6.797724e+04   1.388779e+05
  -6.561280e+05   2.667172e+05
  -1.106392e+06   1.244231e+03
  -5.123458e+05  -7.381121e+05
   8.471526e+05  -1.267511e+06
   1.814121e+06  -8.274678e+05
   1.536368e+06   4.304637e+05
   3.110287e+05   1.472734e+06
  -8.134190e+05   1.462601e+06
  -1.105235e+06   5.977516e+05
  -6.867652e+05  -2.187612e+05
  -1.596405e+05  -3.786567e+05
   4.103389e+04  -9.679567e+04
  -9.612490e+04  -1.033661e+04
  -2.978825e+05  -3.964762e+05
  -2.472766e+05  -8.484285e+05
   1.773802e+05  -7.252654e+05
   7.118555e+05   9.451007e+04
   8.111690e+05   9.708000e+05
   1.748487e+05   1.093024e+06
  -7.687543e+05   3.087106e+05
  -1.111694e+06  -7.136687e+05
  -4.028970e+05  -1.148473e+06
   7.406900e+05  -7.505184e+05
   1.199694e+06   5.879662e+04
   5.861393e+05   6.704387e+05
  -3.022989e+05   7.538117e+05
  -4.310684e+05   3.967562e+05
   2.241212e+05  -9.937417e+03
   6.740738e+05  -5.378840e+04
   1.695767e+05   3.314295e+05
  -8.632932e+05   7.160752e+05
  -1.351999e+06   5.476474e+05
  -8.398784e+05  -2.133948e+05
   9.166662e+04  -9.316832e+05
   6.087778e+05  -9.195064e+05
   4.872184e+05  -1.994044e+05
   8.284342e+04   4.895685e+05
  -2.418238e+05   4.824816e+05
  -3.725640e+05  -1.164835e+05
  -2.791452e+05  -6.044569e+05
   4.386484e+04  -4.833365e+05
   4.148842e+05   2.745086e+04
   5.144366e+05   3.161405e+05
   2.551923e+05   1.212034e+05
  -5.367922e+04  -1.867739e+05
  -8.413972e+04  -1.023792e+05
   6.756091e+04   3.526607e+05
   2.135678e+04   6.241494e+05
  -3.153022e+05   3.009050e+05
  -5.379187e+05  -3.544584e+05
  -2.374135e+05  -6.790808e+05
   4.089412e+05  -3.556614e+05
   7.294417e+05   2.634577e+05
   2.944581e+05   5.874721e+05
  -5.414617e+05   3.961235e+05
  -9.538060e+05  -5.320806e+04
  -5.206197e+05  -3.915615e+05
   3.061632e+05  -4.532618e+05
   6.826098e+05  -2.821085e+05
   2.932224e+05  -2.666495e+04
  -3.248383e+05   1.094693e+05
  -4.169318e+05  -1.868086e+04
   1.378186e+05  -2.862831e+05
   7.241085e+05  -3.014069e+05
