
 $NMID
 id='ANONYMOUS ', fmtdat='(2E16.6)'
 volume=1.0
 tramp=1.0
 $END
   1.522314e+07   1.147876e+06
   9.771811e+06   7.621690e+06
  -4.723478e+05   9.560471e+06
  -6.941095e+06   6.251078e+06
  -5.735739e+06   5.808062e+05
  -3.238719e+05  -2.804161e+06
   3.256055e+06  -1.402448e+06
   2.391111e+06   2.587852e+06
  -8.799311e+05   4.405680e+06
  -3.039406e+06   1.876121e+06
  -2.434005e+06  -2.207860e+06
  -1.024407e+05  -3.374301e+06
   1.596217e+06  -5.571506e+05
   1.074671e+06   2.928064e+06
  -1.099953e+06   3.280705e+06
  -2.660218e+06   2.080950e+05
  -1.803639e+06  -3.192210e+06
   9.203389e+05  -3.871255e+06
   3.098496e+06  -1.641818e+06
   2.932691e+06   1.160745e+06
   1.027934e+06   2.272277e+06
  -4.183962e+05   1.579779e+06
  -3.957765e+04   7.915015e+05
   1.279730e+06   1.284537e+06
   1.407469e+06   2.533173e+06
  -6.600830e+05   2.817753e+06
  -3.470630e+06   1.298115e+06
  -4.351774e+06  -9.932173e+05
  -2.194190e+06  -2.256963e+06
   1.122451e+06  -1.679313e+06
   2.485905e+06   1.676331e+04
   8.179095e+05   1.367197e+06
  -1.822101e+06   1.269091e+06
  -2.624434e+06  -2.829689e+05
  -1.080848e+06  -2.056260e+06
   8.359746e+05  -2.410941e+06
   1.232464e+06  -9.008095e+05
   2.655791e+05   9.512862e+05
  -5.518368e+05   1.103262e+06
  -2.872879e+05  -5.867600e+05
   6.595708e+05  -2.003705e+06
   1.321124e+06  -1.277687e+06
   1.087701e+06   8.516313e+05
   3.638040e+04   1.876267e+06
  -1.082758e+06   5.626933e+05
  -1.182844e+06  -1.603699e+06
   2.335086e+05  -2.216942e+06
   2.210794e+06  -6.183455e+05
   2.865424e+06   1.621791e+06
   1.264596e+06   2.529908e+06
  -1.355567e+06   1.569232e+06
  -2.675384e+06  -1.942276e+05
  -1.649944e+06  -1.276970e+06
   4.832344e+05  -1.020199e+06
   1.612015e+06   3.044489e+04
   9.196231e+05   7.479159e+05
  -4.907220e+05   4.874163e+05
  -9.696299e+05  -3.545159e+05
  -9.450619e+04  -8.217872e+05
   9.758492e+05  -4.105086e+05
   8.462792e+05   4.467352e+05
  -5.070068e+05   8.468495e+05
  -1.602459e+06   2.669186e+05
  -1.022107e+06  -9.739563e+05
   9.873834e+05  -1.917428e+06
   2.701794e+06  -1.660871e+06
   2.719404e+06  -1.272247e+05
   1.323679e+06   1.720399e+06
  -6.822571e+04   2.627274e+06
  -5.387728e+05   2.208430e+06
  -4.285846e+05   1.259238e+06
  -5.755079e+05   7.466371e+05
  -1.211771e+06   6.592941e+05
  -1.781417e+06   1.935353e+05
  -1.618048e+06  -9.461535e+05
  -6.043252e+05  -1.879038e+06
   7.071945e+05  -1.490138e+06
   1.445201e+06   1.466024e+05
   1.020454e+06   1.653326e+06
  -3.362455e+05   1.720586e+06
  -1.603010e+06   3.872811e+05
  -1.778926e+06  -1.132612e+06
  -8.252706e+05  -1.725516e+06
   3.094487e+05  -1.325369e+06
   7.296500e+05  -6.897401e+05
   5.605392e+05  -4.658736e+05
   6.851829e+05  -5.771660e+05
   1.521773e+06  -4.383244e+05
   2.311596e+06   3.495546e+05
   1.861637e+06   1.526967e+06
  -1.761943e+04   2.322673e+06
  -2.040956e+06   2.068442e+06
  -2.602591e+06   7.914099e+05
  -1.383581e+06  -6.963180e+05
   3.327423e+05  -1.370557e+06
   9.881391e+05  -8.597503e+05
   2.690774e+05   1.715680e+05
  -7.770974e+05   6.286818e+05
  -9.993848e+05   1.118794e+05
  -2.990241e+05  -6.420736e+05
   4.610706e+05  -6.188906e+05
   4.624425e+05   2.090646e+05
  -2.910346e+05   7.440653e+05
  -1.053285e+06   3.862555e+04
  -1.007766e+06  -1.474734e+06
   6.083762e+04  -2.307822e+06
   1.528095e+06  -1.489116e+06
   2.323572e+06   3.932779e+05
   1.789433e+06   1.811855e+06
   3.277810e+05   1.820480e+06
  -8.847973e+05   8.312325e+05
  -9.935342e+05  -1.626179e+04
  -2.851010e+05  -4.614367e+04
   1.900151e+05   4.383560e+05
  -1.892671e+05   6.674755e+05
  -9.376823e+05   2.659957e+05
  -1.065546e+06  -4.107141e+05
  -2.687431e+05  -7.048016e+05
   6.512201e+05  -3.456129e+05
   6.366235e+05   2.812300e+05
  -4.221017e+05   5.071925e+05
  -1.464251e+06   1.297739e+04
  -1.320103e+06  -8.604781e+05
   4.485685e+04  -1.384700e+06
   1.445244e+06  -1.069156e+06
   1.663508e+06  -1.201723e+05
   6.495160e+05   6.901613e+05
  -5.120196e+05   7.060430e+05
  -7.473401e+05   3.240473e+04
   1.229572e+03  -5.393113e+05
   8.667737e+05  -3.440548e+05
   9.874805e+05   4.337931e+05
   2.865145e+05   9.595854e+05
  -5.527082e+05   6.852008e+05
  -7.736510e+05  -4.450621e+04
  -2.542725e+05  -4.086148e+05
   3.764829e+05  -3.835999e+04
   3.519273e+05   6.075034e+05
  -4.213670e+05   7.732700e+05
  -1.192388e+06   1.873258e+05
  -1.110984e+06  -7.063087e+05
  -1.489236e+05  -1.190389e+06
   8.346607e+05  -9.035330e+05
   9.880575e+05  -1.233347e+05
   3.255758e+05   4.917615e+05
  -3.775081e+05   4.857999e+05
  -4.537773e+05   1.036058e+04
   1.912353e+04  -3.597148e+05
   4.234790e+05  -2.529615e+05
   3.113647e+05   9.888507e+04
  -1.457232e+05   1.601524e+05
  -3.638960e+05  -2.410944e+05
   3.480898e+04  -6.618484e+05
   7.908169e+05  -5.118763e+05
   1.197710e+06   2.878512e+05
   7.777941e+05   1.171977e+06
  -2.161103e+05   1.439901e+06
  -1.021247e+06   8.827273e+05
  -1.105657e+06  -5.102778e+04
  -6.383400e+05  -6.714436e+05
  -2.023326e+05  -6.568439e+05
  -1.262977e+05  -2.980788e+05
  -1.965606e+05  -1.349942e+05
  -9.812119e+03  -3.421527e+05
   4.929125e+05  -5.313798e+05
   8.983796e+05  -2.279331e+05
   7.112704e+05   4.974487e+05
  -1.254667e+05   9.910069e+05
  -1.068991e+06   6.694538e+05
  -1.361321e+06  -3.363812e+05
  -6.760975e+05  -1.248889e+06
   5.467777e+05  -1.350937e+06
   1.436863e+06  -6.146649e+05
   1.429386e+06   3.338346e+05
   7.072973e+05   8.238515e+05
  -5.961375e+04   7.179028e+05
  -3.710392e+05   4.299214e+05
  -2.822968e+05   4.075767e+05
  -2.032006e+05   6.265683e+05
  -3.972974e+05   6.360230e+05
  -7.016268e+05   1.121507e+05
  -7.133432e+05  -6.948347e+05
  -2.394473e+05  -1.140715e+06
   4.375252e+05  -8.205061e+05
   7.707553e+05   2.168728e+04
   4.720635e+05   7.230006e+05
  -1.772497e+05   8.017663e+05
  -5.870024e+05   3.245665e+05
  -4.484196e+05  -2.520862e+05
  -2.389559e+04  -5.312290e+05
   1.822737e+05  -4.724687e+05
   2.858020e+03  -3.112088e+05
  -2.096929e+05  -2.475037e+05
  -1.637508e+02  -2.413420e+05
   6.272391e+05  -1.064206e+05
   1.122531e+06   2.317951e+05
   9.142499e+05   6.117202e+05
   2.980717e+04   7.714302e+05
  -8.550925e+05   5.851977e+05
  -1.047908e+06   1.724237e+05
  -5.172425e+05  -1.891664e+05
   1.170864e+05  -2.655202e+05
   2.694423e+05  -5.807301e+04
  -3.361083e+04   1.661986e+05
  -3.119781e+05   1.085005e+05
  -2.539154e+05  -2.214175e+05
  -2.053794e+04  -4.572734e+05
   5.514761e+04  -2.864390e+05
  -1.001673e+05   1.179878e+05
  -2.570902e+05   2.409804e+05
  -1.729838e+05  -1.376761e+05
   1.722018e+05  -6.061740e+05
   5.645211e+05  -5.743703e+05
   6.888326e+05   7.919386e+03
   3.502320e+05   5.680913e+05
  -2.833186e+05   5.624544e+05
  -6.813907e+05   5.865946e+04
  -3.923404e+05  -3.974105e+05
   4.149388e+05  -3.771372e+05
   9.816525e+05   6.480462e+04
   6.943945e+05   5.309430e+05
  -2.327264e+05   6.547074e+05
  -9.409030e+05   3.633727e+05
  -8.169076e+05  -9.311468e+04
  -1.093153e+05  -3.365200e+05
   3.864628e+05  -1.824969e+05
   1.864896e+05   1.561955e+05
  -4.099098e+05   2.353304e+05
  -6.831767e+05  -1.681979e+05
  -2.583395e+05  -7.593220e+05
   5.224196e+05  -9.412003e+05
   9.643063e+05  -3.938977e+05
   7.078514e+05   5.416002e+05
   2.868223e+04   1.100002e+06
  -5.036531e+05   7.936914e+05
  -5.688207e+05  -8.609661e+04
  -2.717984e+05  -7.285460e+05
   9.583421e+04  -6.229859e+05
   3.190034e+05  -6.259259e+04
   3.209241e+05   2.640388e+05
   1.552441e+05   1.148729e+05
   9.817413e+03  -7.708307e+04
   6.583092e+04   1.377165e+05
   2.310914e+05   5.794407e+05
   1.456244e+05   6.754420e+05
  -3.573049e+05   2.275126e+05
  -8.782125e+05  -3.455757e+05
  -8.060395e+05  -5.623793e+05
  -9.121558e+04  -4.122271e+05
   5.933633e+05  -2.023955e+05
   6.242099e+05  -8.928255e+04
   1.632612e+05   5.506941e+03
  -1.215524e+05   1.202450e+05
   4.149149e+04   1.643839e+05
   2.305849e+05   1.175524e+05
  -7.343647e+03   8.470146e+04
  -4.896513e+05   7.320214e+04
  -6.130184e+05  -8.088691e+04
  -1.099116e+05  -4.129317e+05
   6.317391e+05  -6.088958e+05
   9.946835e+05  -3.133919e+05
   7.206248e+05   3.651586e+05
   6.197412e+04   8.643185e+05
  -5.039685e+05   7.579166e+05
  -6.478371e+05   2.155931e+05
  -3.873480e+05  -2.157020e+05
  -2.841307e+04  -2.168303e+05
   1.086302e+05   1.417827e+04
  -2.822174e+04   5.973293e+04
  -1.981312e+05  -2.138822e+05
  -1.374288e+05  -4.963095e+05
   1.557778e+05  -3.783968e+05
   4.110908e+05   1.590117e+05
   3.433678e+05   6.518031e+05
  -6.561112e+04   6.068252e+05
  -5.009213e+05   3.502194e+04
  -5.509198e+05  -5.472611e+05
  -1.035127e+05  -6.602291e+05
   4.683726e+05  -3.122645e+05
   6.255349e+05   1.214285e+05
   2.470722e+05   3.409256e+05
  -1.970593e+05   3.241560e+05
  -1.855030e+05   1.879458e+05
   2.095697e+05   4.785342e+04
   4.053921e+05   2.237077e+04
   4.973108e+04   1.771570e+05
  -5.279949e+05   3.702936e+05
  -7.268102e+05   3.084790e+05
  -3.841532e+05  -9.039311e+04
   1.070264e+05  -4.867375e+05
   3.158152e+05  -4.585588e+05
   1.947853e+05  -3.194730e+04
  -2.923378e+04   3.124098e+05
  -1.753441e+05   2.110033e+05
  -2.016008e+05  -1.636919e+05
  -1.113135e+05  -3.590258e+05
   6.608524e+04  -1.981758e+05
   2.262202e+05   7.253593e+04
   2.508972e+05   1.511070e+05
   1.411540e+05   3.445084e+04
   1.348640e+04  -4.422112e+04
  -5.244138e+04   6.301429e+04
  -9.415855e+04   2.426012e+05
  -1.681279e+05   2.540442e+05
  -2.307692e+05   5.648939e+03
  -1.713592e+05  -3.137541e+05
   4.429460e+04  -3.962944e+05
   2.874887e+05  -1.346128e+05
   3.393572e+05   2.382450e+05
   8.872283e+04   3.765079e+05
  -3.043137e+05   1.825758e+05
  -4.854874e+05  -1.168027e+05
  -2.473077e+05  -2.513526e+05
   1.939068e+05  -1.791078e+05
   3.738712e+05  -4.894954e+04
   1.045177e+05   8.933579e+03
  -2.696143e+05  -2.885596e+04
  -2.594996e+05  -1.261200e+05
   1.701972e+05  -1.988768e+05
   5.418364e+05  -1.125644e+05
