
 $NMID
 id='ANONYMOUS ', fmtdat='(2E16.6)'
 volume=1.0
 tramp=1.0
 $END
  -2.788257e+07  -1.124697e+06
  -1.726021e+07  -1.539616e+07
   2.178983e+06  -1.801340e+07
   1.299475e+07  -9.490014e+06
   9.284477e+06   9.363297e+05
  -4.129932e+05   4.828898e+06
  -5.366128e+06   1.150059e+06
  -3.002027e+06  -4.691526e+06
   2.175177e+06  -6.445406e+06
   5.127658e+06  -2.337884e+06
   4.022511e+06   3.564620e+06
   3.385269e+05   5.298519e+06
  -2.497710e+06   1.197538e+06
  -1.738792e+06  -4.119797e+06
   1.862254e+06  -4.742521e+06
   4.388403e+06   6.486121e+04
   2.818118e+06   5.438166e+06
  -1.727154e+06   6.497875e+06
  -5.348894e+06   2.982028e+06
  -5.379082e+06  -1.611597e+06
  -2.528108e+06  -3.981285e+06
   2.961800e+05  -3.549672e+06
   7.385198e+05  -2.112435e+06
  -8.822653e+05  -1.789568e+06
  -1.750777e+06  -2.942714e+06
   5.072320e+05  -3.778752e+06
   4.658766e+06  -2.389325e+06
   6.562259e+06   7.801496e+05
   3.830238e+06   3.158019e+06
  -1.042508e+06   2.874882e+06
  -3.348285e+06   6.427219e+05
  -1.444084e+06  -1.347692e+06
   1.894389e+06  -1.560783e+06
   3.143490e+06   6.459898e+04
   1.654796e+06   2.339472e+06
  -6.045310e+05   3.333456e+06
  -1.636879e+06   1.801126e+06
  -1.039272e+06  -1.000947e+06
   1.559818e+05  -1.968855e+06
   5.173485e+05   1.449796e+05
  -5.071172e+05   2.584848e+06
  -1.831826e+06   1.824472e+06
  -1.632921e+06  -1.544165e+06
   4.969235e+05  -3.213377e+06
   2.626741e+06  -7.502895e+05
   2.319349e+06   3.163240e+06
  -6.622918e+05   4.112062e+06
  -3.871635e+06   1.174134e+06
  -4.439606e+06  -2.560472e+06
  -1.722585e+06  -3.834374e+06
   2.088193e+06  -2.194393e+06
   3.835740e+06   4.712268e+05
   2.204082e+06   2.005034e+06
  -1.005336e+06   1.502096e+06
  -2.613580e+06  -2.181671e+05
  -1.354197e+06  -1.338009e+06
   8.704209e+05  -7.960777e+05
   1.360963e+06   5.590148e+05
  -1.752891e+05   1.002945e+06
  -1.485048e+06   2.975176e+04
  -6.802378e+05  -1.168900e+06
   1.527923e+06  -1.235601e+06
   2.755138e+06   2.838009e+04
   1.534890e+06   1.842196e+06
  -1.359724e+06   3.118147e+06
  -3.794018e+06   2.813471e+06
  -4.116171e+06   5.764334e+05
  -2.394242e+06  -2.415908e+06
  -1.960515e+05  -4.019966e+06
   9.070457e+05  -3.273570e+06
   7.754729e+05  -1.524725e+06
   5.666674e+05  -7.122231e+05
   1.177159e+06  -9.401504e+05
   2.148338e+06  -6.681520e+05
   2.298191e+06   8.409474e+05
   1.131105e+06   2.302934e+06
  -6.506253e+05   2.005840e+06
  -1.801252e+06  -4.574005e+04
  -1.452925e+06  -2.085772e+06
   2.852140e+05  -2.393733e+06
   2.223047e+06  -8.044630e+05
   2.821847e+06   1.364539e+06
   1.585927e+06   2.565936e+06
  -3.050311e+05   2.287577e+06
  -1.240179e+06   1.305936e+06
  -1.052252e+06   7.188181e+05
  -1.075064e+06   7.392062e+05
  -2.163488e+06   5.834899e+05
  -3.291576e+06  -4.596446e+05
  -2.682144e+06  -2.097065e+06
  -7.519772e+04  -3.248818e+06
   2.703712e+06  -3.003343e+06
   3.523562e+06  -1.345180e+06
   2.009480e+06   7.534943e+05
  -2.281045e+05   1.891820e+06
  -1.215502e+06   1.330002e+06
  -4.047676e+05  -1.734131e+05
   1.006209e+06  -9.486381e+05
   1.428403e+06  -2.268132e+05
   5.236791e+05   9.108503e+05
  -5.609622e+05   8.858817e+05
  -5.634903e+05  -2.794273e+05
   5.042796e+05  -8.992239e+05
   1.450818e+06   2.266004e+05
   1.175348e+06   2.217001e+06
  -3.533539e+05   3.050451e+06
  -2.172902e+06   1.766264e+06
  -3.060505e+06  -6.476542e+05
  -2.348489e+06  -2.368574e+06
  -4.854151e+05  -2.392025e+06
   1.139130e+06  -1.187250e+06
   1.350595e+06  -6.464125e+04
   3.972562e+05   4.883399e+04
  -2.828123e+05  -6.029060e+05
   2.675097e+05  -9.745168e+05
   1.363373e+06  -4.181364e+05
   1.533115e+06   5.863722e+05
   3.707074e+05   1.017672e+06
  -9.065118e+05   4.913566e+05
  -8.440359e+05  -3.637866e+05
   5.947540e+05  -6.318013e+05
   1.946425e+06   1.715935e+04
   1.732709e+06   1.121608e+06
  -5.941038e+04   1.823138e+06
  -1.931575e+06   1.480200e+06
  -2.283969e+06   2.271349e+05
  -9.409203e+05  -9.600587e+05
   7.048593e+05  -1.059394e+06
   1.101948e+06  -9.173556e+04
   5.787739e+04   7.872136e+05
  -1.201579e+06   5.339434e+05
  -1.385485e+06  -5.846405e+05
  -3.858309e+05  -1.322241e+06
   7.797116e+05  -9.156997e+05
   1.054408e+06   9.624805e+04
   3.174305e+05   5.769712e+05
  -5.566056e+05   5.940010e+04
  -5.359712e+05  -8.368655e+05
   5.294772e+05  -1.108426e+06
   1.641694e+06  -3.445431e+05
   1.591540e+06   9.130782e+05
   2.675827e+05   1.655640e+06
  -1.136728e+06   1.295977e+06
  -1.373935e+06   1.953844e+05
  -4.502773e+05  -6.791743e+05
   5.134478e+05  -6.764955e+05
   5.961672e+05  -4.191959e+04
  -3.311497e+04   4.381656e+05
  -5.216910e+05   3.127271e+05
  -3.391687e+05  -9.812325e+04
   2.387310e+05  -1.403845e+05
   4.815496e+05   3.832996e+05
  -6.592286e+04   9.276972e+05
  -1.088327e+06   7.338198e+05
  -1.674771e+06  -3.487134e+05
  -1.140618e+06  -1.589543e+06
   2.246950e+05  -1.991626e+06
   1.358615e+06  -1.227787e+06
   1.484005e+06   4.827246e+04
   8.491569e+05   8.503919e+05
   2.965922e+05   7.924967e+05
   2.479529e+05   3.442654e+05
   3.429527e+05   2.046780e+05
   3.768426e+04   5.160206e+05
  -6.756389e+05   7.458057e+05
  -1.215155e+06   3.251463e+05
  -9.596426e+05  -6.366364e+05
   1.524965e+05  -1.318647e+06
   1.435598e+06  -9.393104e+05
   1.875657e+06   4.067553e+05
   9.643083e+05   1.702487e+06
  -7.397107e+05   1.897101e+06
  -1.993196e+06   8.830751e+05
  -1.964591e+06  -4.444533e+05
  -9.418569e+05  -1.102250e+06
   8.451777e+04  -9.274913e+05
   4.413432e+05  -5.550819e+05
   2.852364e+05  -5.904475e+05
   2.103279e+05  -9.317839e+05
   5.339242e+05  -9.386888e+05
   9.923978e+05  -2.026086e+05
   1.035469e+06   9.191654e+05
   3.974761e+05   1.561798e+06
  -5.546144e+05   1.157540e+06
  -1.060702e+06  -9.012940e+02
  -6.733858e+05  -9.998055e+05
   2.452893e+05  -1.119575e+06
   8.398509e+05  -4.274096e+05
   6.344935e+05   4.007528e+05
   6.105158e+03   7.722835e+05
  -2.927653e+05   6.499858e+05
  -1.333331e+04   4.024304e+05
   3.155789e+05   3.171496e+05
   2.115765e+04   3.276790e+05
  -8.837721e+05   1.695790e+05
  -1.594984e+06  -2.776268e+05
  -1.294969e+06  -8.211034e+05
  -3.926777e+04  -1.093801e+06
   1.200421e+06  -8.646770e+05
   1.455711e+06  -2.617748e+05
   7.069740e+05   2.883209e+05
  -1.710154e+05   3.972753e+05
  -3.827192e+05   7.123543e+04
   2.295153e+04  -2.645430e+05
   4.083025e+05  -1.768112e+05
   3.690928e+05   2.916857e+05
   9.360175e+04   6.210734e+05
  -2.294865e+04   3.979178e+05
   1.259134e+05  -1.406334e+05
   3.093054e+05  -3.138704e+05
   2.382230e+05   1.845969e+05
  -1.845577e+05   8.334124e+05
  -7.511285e+05   8.314716e+05
  -1.000638e+06   5.098906e+04
  -5.620910e+05  -7.665147e+05
   3.626405e+05  -8.302206e+05
   9.672670e+05  -1.557136e+05
   5.703790e+05   5.147788e+05
  -5.629544e+05   5.339617e+05
  -1.339116e+06  -5.948252e+04
  -9.315257e+05  -7.039157e+05
   3.246493e+05  -8.795369e+05
   1.264694e+06  -4.940245e+05
   1.093124e+06   1.134415e+05
   1.479448e+05   4.475158e+05
  -5.272797e+05   2.524230e+05
  -2.783083e+05  -2.189989e+05
   5.343701e+05  -3.680944e+05
   9.572536e+05   1.636323e+05
   4.367933e+05   1.018760e+06
  -6.241242e+05   1.345032e+06
  -1.286970e+06   6.265154e+05
  -1.008628e+06  -6.900382e+05
  -1.082990e+05  -1.502939e+06
   6.460204e+05  -1.098561e+06
   7.780890e+05   1.114221e+05
   3.876190e+05   9.885041e+05
  -1.297241e+05   8.406688e+05
  -4.444092e+05   8.894842e+04
  -4.314154e+05  -3.377121e+05
  -1.928436e+05  -1.388376e+05
  -1.939464e+04   9.732365e+04
  -1.369494e+05  -2.067074e+05
  -3.648572e+05  -7.924630e+05
  -2.050235e+05  -9.121364e+05
   5.162842e+05  -3.246035e+05
   1.220812e+06   4.238400e+05
   1.107737e+06   7.254870e+05
   1.444914e+05   5.677705e+05
  -7.763082e+05   3.167852e+05
  -8.417185e+05   1.483749e+05
  -2.472017e+05  -1.599211e+04
   1.494659e+05  -1.758628e+05
  -3.458264e+04  -2.054199e+05
  -2.900096e+05  -1.272216e+05
  -8.952519e+03  -1.153269e+05
   6.319639e+05  -1.457492e+05
   8.534249e+05   6.267986e+04
   2.283474e+05   5.693297e+05
  -7.986640e+05   9.001467e+05
  -1.373994e+06   5.189922e+05
  -1.059145e+06  -4.386037e+05
  -1.543764e+05  -1.180016e+06
   6.551293e+05  -1.086619e+06
   8.794793e+05  -3.620647e+05
   5.427051e+05   2.522440e+05
   6.822103e+04   2.977758e+05
  -1.209951e+05   9.200554e+03
   4.538496e+04  -6.001225e+04
   2.698290e+05   2.916610e+05
   2.070776e+05   6.741614e+05
  -1.831583e+05   5.388555e+05
  -5.704308e+05  -1.684718e+05
  -5.367781e+05  -8.527317e+05
   1.281396e+04  -8.448237e+05
   6.679656e+05  -1.145499e+05
   8.066812e+05   6.869257e+05
   2.083227e+05   9.046115e+05
  -6.193781e+05   4.860011e+05
  -8.861502e+05  -1.163280e+05
  -3.812773e+05  -4.762294e+05
   2.528604e+05  -4.897047e+05
   2.704160e+05  -2.775980e+05
  -2.620319e+05  -3.947532e+04
  -5.518096e+05   1.367354e+03
  -9.051716e+04  -2.467252e+05
   7.023001e+05  -5.407101e+05
   1.005389e+06  -4.494821e+05
   5.642944e+05   1.235684e+05
  -1.125864e+05   6.894675e+05
  -4.310009e+05   6.640635e+05
  -2.967237e+05   7.799047e+04
   2.920596e+03  -4.201080e+05
   2.219201e+05  -3.188714e+05
   2.876347e+05   1.848406e+05
   1.818988e+05   4.858786e+05
  -7.089296e+04   3.022861e+05
  -3.179407e+05  -7.264049e+04
  -3.647573e+05  -2.102420e+05
  -1.965252e+05  -5.484752e+04
  -2.383756e+03   8.344989e+04
   6.724219e+04  -4.625638e+04
   7.491771e+04  -3.239518e+05
   1.612922e+05  -3.925368e+05
   3.014132e+05  -7.368975e+04
   2.945001e+05   3.886888e+05
   1.479962e+04   5.455625e+05
  -3.729685e+05   2.190792e+05
  -5.024729e+05  -2.867604e+05
  -1.625970e+05  -5.015470e+05
   4.146979e+05  -2.763734e+05
   6.932130e+05   1.151405e+05
   3.662262e+05   3.284534e+05
  -2.550395e+05   2.807463e+05
  -5.194486e+05   1.185261e+05
  -1.661864e+05  -1.139620e+03
   3.436487e+05  -1.904306e+03
   3.549825e+05   1.245803e+05
  -1.953877e+05   2.679397e+05
  -6.977134e+05   1.948804e+05
