
 $NMID
 id='ANONYMOUS ', fmtdat='(2E16.6)'
 volume=1.0
 tramp=1.0
 $END
   4.776280e+07  -9.566694e+05
   2.971502e+07   2.797884e+07
  -4.797813e+06   3.211157e+07
  -2.269603e+07   1.395039e+07
  -1.450720e+07  -4.510285e+06
   2.091794e+06  -8.029297e+06
   8.506993e+06   1.013591e+05
   3.222084e+06   8.111093e+06
  -4.629512e+06   8.749987e+06
  -8.227117e+06   2.463959e+06
  -6.306537e+06  -5.255801e+06
  -9.061330e+05  -7.668466e+06
   3.516356e+06  -2.370815e+06
   2.566071e+06   5.089802e+06
  -2.991464e+06   6.225987e+06
  -6.880786e+06  -6.913777e+05
  -4.272547e+06  -8.670448e+06
   2.830842e+06  -1.034502e+07
   8.543033e+06  -5.294895e+06
   9.236648e+06   1.691845e+06
   5.518338e+06   6.300117e+06
   5.411932e+05   7.042181e+06
  -2.061012e+06   4.841599e+06
  -7.874814e+05   2.462654e+06
   1.511779e+06   2.501415e+06
   1.186181e+05   4.217222e+06
  -5.237124e+06   3.995955e+06
  -8.894911e+06   3.093329e+05
  -6.233170e+06  -3.746201e+06
   1.078085e+05  -4.453505e+06
   3.691231e+06  -2.061541e+06
   2.215456e+06   4.505515e+05
  -1.086003e+06   1.280679e+06
  -2.715745e+06   4.070709e+05
  -2.163311e+06  -1.776676e+06
  -3.575823e+05  -3.877342e+06
   1.718306e+06  -3.289501e+06
   2.544010e+06   3.886060e+05
   1.153485e+06   3.127313e+06
  -6.889319e+05   1.224196e+06
  -1.235694e+05  -2.628092e+06
   2.249089e+06  -2.300826e+06
   2.317978e+06   2.618692e+06
  -1.623109e+06   5.310380e+06
  -5.538360e+06   1.111456e+06
  -4.420812e+06  -5.643841e+06
   1.298020e+06  -7.226877e+06
   6.311826e+06  -2.232366e+06
   6.406059e+06   3.713746e+06
   2.055660e+06   5.380888e+06
  -3.002428e+06   2.728920e+06
  -4.974288e+06  -1.021019e+06
  -2.543468e+06  -2.978486e+06
   1.908522e+06  -2.076622e+06
   3.999067e+06   5.681827e+05
   1.870620e+06   2.242044e+06
  -1.427662e+06   1.248403e+06
  -1.697247e+06  -8.350059e+05
   8.966544e+05  -1.014651e+06
   2.223138e+06   1.064167e+06
  -6.102488e+04   2.696055e+06
  -3.565656e+06   1.826851e+06
  -4.562931e+06  -7.562394e+05
  -2.215640e+06  -3.251278e+06
   1.564552e+06  -4.723517e+06
   4.629869e+06  -4.432331e+06
   5.628302e+06  -1.552461e+06
   4.036808e+06   2.893099e+06
   8.750335e+05   5.595848e+06
  -1.427954e+06   4.451236e+06
  -1.400913e+06   1.442360e+06
  -3.152809e+05   1.357111e+05
  -4.112660e+05   1.042798e+06
  -1.859193e+06   1.508522e+06
  -2.766748e+06  -8.227823e+04
  -1.855774e+06  -2.119094e+06
   1.633872e+05  -2.212145e+06
   1.727757e+06  -1.802657e+05
   1.751215e+06   2.126411e+06
  -1.318153e+04   2.873604e+06
  -2.646182e+06   1.491543e+06
  -4.088239e+06  -1.187583e+06
  -2.847197e+06  -3.387726e+06
   2.974541e+04  -3.675240e+06
   1.908080e+06  -2.355439e+06
   1.842575e+06  -1.085936e+06
   1.598447e+06  -7.910636e+05
   2.763934e+06  -6.364572e+05
   4.174477e+06   5.436833e+05
   3.433797e+06   2.532711e+06
   2.469039e+05   3.989395e+06
  -3.050108e+06   3.854990e+06
  -4.071329e+06   2.064655e+06
  -2.561415e+06  -4.896756e+05
  -1.670498e+05  -2.216540e+06
   1.143663e+06  -1.839189e+06
   5.336735e+05   7.533989e+04
  -1.073445e+06   1.273578e+06
  -1.807769e+06   4.093770e+05
  -8.503081e+05  -1.128128e+06
   5.263812e+05  -1.100529e+06
   5.134232e+05   3.505568e+05
  -8.755741e+05   8.367919e+05
  -1.818327e+06  -8.860910e+05
  -9.806883e+05  -3.137525e+06
   1.079354e+06  -3.472947e+06
   2.870851e+06  -1.511844e+06
   3.412929e+06   1.096279e+06
   2.507080e+06   2.664482e+06
   5.771190e+05   2.640768e+06
  -1.217579e+06   1.474828e+06
  -1.565694e+06   2.290705e+05
  -4.828175e+05  -3.355994e+04
   3.707853e+05   7.235356e+05
  -3.413470e+05   1.282562e+06
  -1.783192e+06   6.019674e+05
  -1.972383e+06  -7.604982e+05
  -4.378549e+05  -1.326093e+06
   1.115616e+06  -6.036564e+05
   9.303841e+05   4.167744e+05
  -7.787326e+05   6.125783e+05
  -2.208453e+06  -1.539823e+05
  -1.868385e+06  -1.277821e+06
   1.268246e+05  -2.018621e+06
   2.230150e+06  -1.743336e+06
   2.721325e+06  -3.554321e+05
   1.212325e+06   1.179184e+06
  -8.434275e+05   1.440426e+06
  -1.464035e+06   2.069524e+05
  -1.889406e+05  -1.022706e+06
   1.455818e+06  -7.443460e+05
   1.703966e+06   6.972265e+05
   4.197175e+05   1.600899e+06
  -1.001245e+06   1.031520e+06
  -1.250808e+06  -2.127566e+05
  -3.036682e+05  -7.369710e+05
   7.492929e+05  -8.060028e+04
   7.332606e+05   1.007542e+06
  -5.449715e+05   1.400909e+06
  -1.960496e+06   5.608451e+05
  -2.009591e+06  -9.907817e+05
  -4.236135e+05  -2.014709e+06
   1.352236e+06  -1.641120e+06
   1.676175e+06  -2.660067e+05
   5.318081e+05   8.270619e+05
  -6.151253e+05   8.151375e+05
  -6.482089e+05   8.729097e+04
   8.161887e+04  -4.084258e+05
   5.176734e+05  -2.725685e+05
   2.083308e+05   7.253069e+04
  -3.941938e+05   8.353584e+03
  -5.475221e+05  -5.847517e+05
   1.309594e+05  -1.156604e+06
   1.316990e+06  -9.228589e+05
   2.050377e+06   3.473421e+05
   1.480295e+06   1.867175e+06
  -1.548734e+05   2.391475e+06
  -1.555849e+06   1.463510e+06
  -1.698627e+06  -5.110339e+04
  -9.237275e+05  -8.920254e+05
  -3.498537e+05  -7.199237e+05
  -4.296294e+05  -2.608227e+05
  -5.663290e+05  -2.737743e+05
  -9.895063e+04  -7.111998e+05
   8.185471e+05  -9.154400e+05
   1.423281e+06  -3.859726e+05
   1.090747e+06   6.910522e+05
  -1.799708e+05   1.485037e+06
  -1.668078e+06   1.129802e+06
  -2.238024e+06  -4.093915e+05
  -1.191085e+06  -2.024292e+06
   8.919021e+05  -2.342009e+06
   2.437631e+06  -1.103100e+06
   2.343256e+06   5.433926e+05
   1.035130e+06   1.286276e+06
  -1.420630e+05   9.870939e+05
  -4.065725e+05   5.631667e+05
  -1.302413e+05   7.382295e+05
  -1.071600e+05   1.242976e+06
  -6.165480e+05   1.247226e+06
  -1.240418e+06   3.319537e+05
  -1.328986e+06  -1.033898e+06
  -5.862948e+05  -1.850480e+06
   5.830457e+05  -1.426684e+06
   1.267048e+06  -3.749572e+04
   8.399173e+05   1.219820e+06
  -3.164530e+05   1.375340e+06
  -1.091104e+06   4.645160e+05
  -8.058311e+05  -6.037339e+05
   5.391787e+04  -1.022779e+06
   4.540495e+05  -7.861079e+05
   5.089631e+04  -4.312636e+05
  -4.244326e+05  -3.311524e+05
  -6.221480e+04  -3.801010e+05
   1.103970e+06  -2.405973e+05
   2.007880e+06   2.661046e+05
   1.612223e+06   9.608267e+05
   2.873175e+04   1.384276e+06
  -1.495532e+06   1.145981e+06
  -1.777225e+06   3.398124e+05
  -8.408332e+05  -4.215959e+05
   2.261213e+05  -5.442459e+05
   4.893632e+05  -6.282604e+04
   2.662839e+04   3.874841e+05
  -4.422449e+05   2.576543e+05
  -4.763293e+05  -3.249172e+05
  -2.363880e+05  -7.138977e+05
  -7.732366e+04  -4.715666e+05
  -1.351279e+05   1.179645e+05
  -2.900935e+05   3.216093e+05
  -2.827565e+05  -2.178143e+05
   1.287222e+05  -9.842022e+05
   8.563513e+05  -1.064590e+06
   1.300297e+06  -1.849024e+05
   8.255201e+05   8.802687e+05
  -3.809165e+05   1.102599e+06
  -1.209070e+06   3.339748e+05
  -7.313424e+05  -5.544922e+05
   6.665604e+05  -6.602023e+05
   1.576151e+06   3.889889e+04
   1.048008e+06   8.153514e+05
  -4.231392e+05   1.007148e+06
  -1.468823e+06   5.474624e+05
  -1.242541e+06  -1.362497e+05
  -1.591737e+05  -5.088140e+05
   6.291269e+05  -2.936830e+05
   3.765360e+05   2.721422e+05
  -5.758432e+05   5.169227e+05
  -1.165607e+06  -6.889165e+04
  -6.689383e+05  -1.156928e+06
   5.641310e+05  -1.684328e+06
   1.452718e+06  -8.950130e+05
   1.256886e+06   7.238548e+05
   2.423661e+05   1.767900e+06
  -6.979362e+05   1.308455e+06
  -9.215146e+05  -1.364277e+05
  -4.704460e+05  -1.163316e+06
   1.737751e+05  -9.721777e+05
   5.472420e+05  -1.047426e+05
   4.830646e+05   3.637158e+05
   1.794645e+05   1.358232e+05
   3.995994e+04  -9.947892e+04
   2.630399e+05   2.756235e+05
   5.199277e+05   9.373211e+05
   2.325659e+05   1.062489e+06
  -6.764182e+05   4.102845e+05
  -1.471057e+06  -4.218969e+05
  -1.300744e+06  -7.928878e+05
  -2.023990e+05  -6.818130e+05
   8.443906e+05  -4.353958e+05
   9.717096e+05  -2.104244e+05
   3.470073e+05   3.620895e+04
  -1.425925e+05   2.254901e+05
  -1.565171e+04   2.095863e+05
   2.790307e+05   9.335235e+04
   4.819813e+04   1.315451e+05
  -6.623818e+05   2.463858e+05
  -1.032697e+06   1.233389e+04
  -4.263748e+05  -6.711489e+05
   8.124544e+05  -1.178655e+06
   1.650330e+06  -7.827503e+05
   1.390486e+06   3.958547e+05
   3.051822e+05   1.383723e+06
  -7.174734e+05   1.375301e+06
  -1.022443e+06   5.523822e+05
  -6.559780e+05  -2.178133e+05
  -1.371594e+05  -3.506698e+05
   7.778167e+04  -6.184093e+04
  -7.565482e+04   2.590249e+04
  -3.115658e+05  -3.515443e+05
  -2.702919e+05  -7.914087e+05
   1.606943e+05  -6.738970e+05
   6.787651e+05   1.067357e+05
   7.517903e+05   9.254917e+05
   1.338502e+05   1.015322e+06
  -7.423452e+05   2.588388e+05
  -1.040876e+06  -6.892717e+05
  -3.703825e+05  -1.066045e+06
   6.865008e+05  -6.842159e+05
   1.103370e+06   4.398330e+04
   5.378463e+05   5.848339e+05
  -2.641014e+05   6.712596e+05
  -3.582551e+05   3.720805e+05
   2.513024e+05   3.644559e+03
   6.422259e+05  -5.680727e+04
   1.514137e+05   2.989450e+05
  -7.957671e+05   6.950117e+05
  -1.222442e+06   5.737195e+05
  -7.512343e+05  -1.490766e+05
   7.084592e+04  -8.589603e+05
   5.155860e+05  -8.585131e+05
   4.102740e+05  -1.674607e+05
   6.440160e+04   4.743255e+05
  -2.247945e+05   4.342004e+05
  -3.529787e+05  -1.396698e+05
  -2.673549e+05  -5.629728e+05
   4.114712e+04  -4.194110e+05
   3.875379e+05   3.452260e+04
   4.760410e+05   2.600534e+05
   2.419501e+05   8.516604e+04
  -3.563958e+04  -1.439753e+05
  -8.205227e+04  -3.297702e+04
   1.654888e+04   3.523732e+05
  -4.194707e+04   5.410968e+05
  -3.120851e+05   2.179757e+05
  -4.591115e+05  -3.663873e+05
  -1.673119e+05  -6.365871e+05
   3.959435e+05  -3.214707e+05
   6.625973e+05   2.586385e+05
   2.665998e+05   5.605522e+05
  -4.890991e+05   3.758921e+05
  -8.722674e+05  -4.951592e+04
  -4.837413e+05  -3.586465e+05
   2.783193e+05  -4.017319e+05
   6.237936e+05  -2.415550e+05
   2.442111e+05  -2.490106e+04
  -3.439161e+05   7.605841e+04
  -4.065210e+05  -5.374327e+04
   1.596016e+05  -2.954292e+05
   7.304479e+05  -2.918215e+05
