
 $NMID
 id='ANONYMOUS ', fmtdat='(2E16.6)'
 volume=1.0
 tramp=1.0
 $END
   5.113065e+07   1.256754e+05
   3.099682e+07   3.129588e+07
  -6.381124e+06   3.453514e+07
  -2.499725e+07   1.380783e+07
  -1.529429e+07  -5.895766e+06
   2.762335e+06  -8.568095e+06
   9.093793e+06   7.736014e+05
   2.860169e+06   8.903320e+06
  -5.511558e+06   8.879554e+06
  -8.880950e+06   2.078193e+06
  -6.454202e+06  -5.737042e+06
  -7.062983e+05  -8.010718e+06
   3.715488e+06  -2.450588e+06
   2.432042e+06   5.228248e+06
  -3.464903e+06   6.244011e+06
  -7.271352e+06  -1.104350e+06
  -4.159038e+06  -9.360693e+06
   3.410546e+06  -1.085607e+07
   9.237029e+06  -5.383706e+06
   9.807430e+06   1.956850e+06
   5.879224e+06   6.812864e+06
   5.539837e+05   7.693253e+06
  -2.465275e+06   5.365009e+06
  -1.352098e+06   2.608039e+06
   1.170875e+06   2.361856e+06
   5.642682e+04   4.098058e+06
  -5.287331e+06   3.974336e+06
  -9.081656e+06   2.113973e+05
  -6.436221e+06  -3.961662e+06
  -3.396440e+03  -4.627567e+06
   3.640065e+06  -2.169941e+06
   2.241612e+06   2.496895e+05
  -8.967919e+05   1.008702e+06
  -2.449435e+06   3.189754e+05
  -2.049707e+06  -1.632134e+06
  -4.067130e+05  -3.804515e+06
   1.767757e+06  -3.458646e+06
   2.793820e+06   2.491482e+05
   1.363336e+06   3.294774e+06
  -6.853822e+05   1.532680e+06
  -1.360594e+05  -2.473601e+06
   2.374805e+06  -2.210464e+06
   2.314847e+06   2.905296e+06
  -2.060910e+06   5.638851e+06
  -6.161031e+06   1.016201e+06
  -4.633270e+06  -6.221417e+06
   1.658842e+06  -7.740425e+06
   6.779348e+06  -2.200649e+06
   6.507653e+06   4.136783e+06
   1.816286e+06   5.675589e+06
  -3.259134e+06   2.625321e+06
  -5.037384e+06  -1.368704e+06
  -2.398119e+06  -3.259504e+06
   2.170406e+06  -2.090888e+06
   4.199046e+06   7.974070e+05
   1.854693e+06   2.482086e+06
  -1.566906e+06   1.271374e+06
  -1.680736e+06  -9.596461e+05
   1.125880e+06  -9.656129e+05
   2.341736e+06   1.419398e+06
  -3.343815e+05   3.059693e+06
  -4.058969e+06   1.827467e+06
  -4.870690e+06  -1.096463e+06
  -2.196720e+06  -3.597443e+06
   1.739131e+06  -4.872158e+06
   4.817854e+06  -4.445447e+06
   5.823119e+06  -1.504654e+06
   4.164899e+06   3.033584e+06
   7.819438e+05   5.790244e+06
  -1.714344e+06   4.523744e+06
  -1.617631e+06   1.301950e+06
  -2.796903e+05  -8.091778e+04
  -2.264069e+05   9.363343e+05
  -1.716676e+06   1.538445e+06
  -2.705850e+06   6.676049e+02
  -1.827906e+06  -2.027329e+06
   1.385715e+05  -2.119409e+06
   1.616891e+06  -1.234611e+05
   1.620274e+06   2.123952e+06
  -8.224183e+04   2.853137e+06
  -2.686544e+06   1.480171e+06
  -4.168371e+06  -1.250172e+06
  -2.915784e+06  -3.555450e+06
   8.657213e+04  -3.878730e+06
   2.087401e+06  -2.469949e+06
   2.027438e+06  -1.075769e+06
   1.719822e+06  -7.004138e+05
   2.839089e+06  -4.847635e+05
   4.195810e+06   7.478203e+05
   3.350953e+06   2.702795e+06
   8.103387e+04   4.011861e+06
  -3.187535e+06   3.740782e+06
  -4.112089e+06   1.949837e+06
  -2.547108e+06  -5.130948e+05
  -1.559002e+05  -2.184760e+06
   1.148693e+06  -1.820418e+06
   5.350415e+05   6.664273e+04
  -1.097476e+06   1.242638e+06
  -1.843412e+06   3.557205e+05
  -8.487469e+05  -1.167269e+06
   5.447679e+05  -1.075493e+06
   4.572307e+05   3.881404e+05
  -9.967723e+05   7.479245e+05
  -1.824488e+06  -1.123720e+06
  -7.391172e+05  -3.327780e+06
   1.431089e+06  -3.407907e+06
   3.048395e+06  -1.227918e+06
   3.309081e+06   1.369074e+06
   2.279382e+06   2.770685e+06
   4.229374e+05   2.613789e+06
  -1.255529e+06   1.412871e+06
  -1.555254e+06   1.801661e+05
  -4.812647e+05  -5.278408e+04
   3.408838e+05   7.399485e+05
  -4.051563e+05   1.292539e+06
  -1.842744e+06   5.426284e+05
  -1.968171e+06  -8.675648e+05
  -3.752649e+05  -1.373952e+06
   1.150444e+06  -5.518789e+05
   8.869137e+05   4.626213e+05
  -8.326749e+05   5.382417e+05
  -2.173647e+06  -3.094666e+05
  -1.743969e+06  -1.369775e+06
   2.556245e+05  -1.971969e+06
   2.300129e+06  -1.612029e+06
   2.728958e+06  -2.318222e+05
   1.172686e+06   1.243909e+06
  -9.072167e+05   1.437369e+06
  -1.503411e+06   1.631305e+05
  -1.703406e+05  -1.043786e+06
   1.490350e+06  -6.945853e+05
   1.676684e+06   7.816108e+05
   3.271850e+05   1.628083e+06
  -1.073789e+06   9.673703e+05
  -1.241789e+06  -3.009119e+05
  -2.508359e+05  -7.671017e+05
   7.699497e+05  -4.938906e+04
   7.011298e+05   1.038536e+06
  -5.909746e+05   1.381281e+06
  -1.975921e+06   4.923308e+05
  -1.973498e+06  -1.063640e+06
  -3.444698e+05  -2.036008e+06
   1.429322e+06  -1.589785e+06
   1.694851e+06  -1.878619e+05
   4.885434e+05   8.580199e+05
  -6.558039e+05   7.843654e+05
  -6.342256e+05   5.999494e+04
   1.183711e+05  -3.766115e+05
   5.095227e+05  -2.139450e+05
   1.527519e+05   8.284898e+04
  -4.291479e+05  -4.633878e+04
  -5.148855e+05  -6.454748e+05
   2.025801e+05  -1.161432e+06
   1.364394e+06  -8.627323e+05
   2.035350e+06   4.354097e+05
   1.405139e+06   1.926932e+06
  -2.526366e+05   2.375328e+06
  -1.614287e+06   1.374489e+06
  -1.674942e+06  -1.434671e+05
  -8.462505e+05  -9.153546e+05
  -2.970137e+05  -6.835099e+05
  -4.381606e+05  -2.395559e+05
  -5.893847e+05  -3.014741e+05
  -7.837312e+04  -7.346624e+05
   8.675551e+05  -8.758809e+05
   1.433744e+06  -3.061154e+05
   1.033192e+06   7.345819e+05
  -2.637634e+05   1.449946e+06
  -1.712460e+06   1.037379e+06
  -2.206218e+06  -5.087205e+05
  -1.090737e+06  -2.077957e+06
   1.010691e+06  -2.308611e+06
   2.501445e+06  -9.874910e+05
   2.310096e+06   6.686407e+05
   9.424024e+05   1.336029e+06
  -2.103522e+05   9.510049e+05
  -4.121745e+05   5.097307e+05
  -1.165130e+05   7.259056e+05
  -1.304994e+05   1.258132e+06
  -6.688163e+05   1.241532e+06
  -1.263544e+06   2.907662e+05
  -1.290425e+06  -1.081127e+06
  -5.137959e+05  -1.867619e+06
   6.351707e+05  -1.399342e+06
   1.264158e+06   1.960594e+04
   7.840180e+05   1.265339e+06
  -3.915152e+05   1.366269e+06
  -1.136707e+06   4.001677e+05
  -7.906349e+05  -6.720082e+05
   1.166684e+05  -1.045035e+06
   5.185738e+05  -7.685772e+05
   8.438522e+04  -4.180546e+05
  -4.145012e+05  -3.392655e+05
  -4.973874e+04  -3.779315e+05
   1.123807e+06  -1.931914e+05
   2.010089e+06   3.504685e+05
   1.572519e+06   1.035181e+06
  -4.391326e+04   1.401946e+06
  -1.560809e+06   1.095138e+06
  -1.799106e+06   2.545301e+05
  -8.204357e+05  -4.832074e+05
   2.557573e+05  -5.488920e+05
   5.005198e+05  -3.324494e+04
   2.236882e+04   4.023621e+05
  -4.422658e+05   2.423238e+05
  -4.655119e+05  -3.422663e+05
  -2.260438e+05  -7.118645e+05
  -7.692045e+04  -4.682697e+05
  -1.403510e+05   9.763984e+04
  -2.901995e+05   2.882856e+05
  -2.691743e+05  -2.318066e+05
   1.598533e+05  -9.671402e+05
   8.968272e+05  -1.031153e+06
   1.324753e+06  -1.506982e+05
   8.116072e+05   9.050798e+05
  -4.198438e+05   1.103379e+06
  -1.228856e+06   3.072740e+05
  -7.091944e+05  -5.750702e+05
   6.975626e+05  -6.287639e+05
   1.563809e+06   1.156757e+05
   9.861425e+05   8.665582e+05
  -4.862991e+05   9.744292e+05
  -1.487121e+06   4.565280e+05
  -1.217801e+06  -2.049828e+05
  -1.265606e+05  -5.109758e+05
   6.433514e+05  -2.582617e+05
   3.724292e+05   2.911817e+05
  -5.826715e+05   5.003183e+05
  -1.157802e+06  -9.883719e+04
  -6.382296e+05  -1.167554e+06
   6.046318e+05  -1.659871e+06
   1.469214e+06  -8.468568e+05
   1.223282e+06   7.622006e+05
   1.739645e+05   1.764719e+06
  -7.482497e+05   1.264221e+06
  -9.106662e+05  -1.858639e+05
  -4.090357e+05  -1.180983e+06
   2.304911e+05  -9.542336e+05
   5.552477e+05  -7.621242e+04
   4.531045e+05   3.805504e+05
   1.584128e+05   1.404075e+05
   4.993566e+04  -9.424423e+04
   2.728905e+05   2.902445e+05
   4.889916e+05   9.559748e+05
   1.721182e+05   1.066820e+06
  -7.093586e+05   3.824346e+05
  -1.444457e+06  -4.778006e+05
  -1.247196e+06  -8.435138e+05
  -1.731898e+05  -6.903021e+05
   8.431342e+05  -3.990527e+05
   9.710498e+05  -1.648764e+05
   3.574042e+05   5.572699e+04
  -1.448969e+05   2.194085e+05
  -4.201922e+04   2.030662e+05
   2.543991e+05   9.753112e+04
   4.956509e+04   1.301174e+05
  -6.482784e+05   2.230255e+05
  -1.029543e+06  -2.070237e+04
  -4.258106e+05  -6.818719e+05
   8.339323e+05  -1.150362e+06
   1.681551e+06  -7.331320e+05
   1.389439e+06   4.314885e+05
   2.587385e+05   1.384435e+06
  -7.689078e+05   1.349250e+06
  -1.036231e+06   5.239887e+05
  -6.403377e+05  -2.317355e+05
  -1.312048e+05  -3.528112e+05
   6.243185e+04  -6.597207e+04
  -8.429850e+04   1.221099e+04
  -2.900059e+05  -3.683988e+05
  -2.328700e+05  -7.992775e+05
   1.802989e+05  -6.680313e+05
   6.660116e+05   1.199308e+05
   7.227526e+05   9.351896e+05
   1.156971e+05   1.013845e+06
  -7.349419e+05   2.451021e+05
  -1.013775e+06  -7.076381e+05
  -3.413299e+05  -1.073492e+06
   7.030603e+05  -6.681788e+05
   1.104171e+06   7.725713e+04
   5.260468e+05   6.111590e+05
  -2.853088e+05   6.740420e+05
  -3.829821e+05   3.637845e+05
   2.339450e+05   9.988610e+03
   6.369535e+05  -3.489502e+04
   1.457040e+05   3.050171e+05
  -8.179006e+05   6.610250e+05
  -1.253109e+06   5.180980e+05
  -7.600418e+05  -1.845254e+05
   9.900682e+04  -8.584430e+05
   5.563712e+05  -8.449808e+05
   4.274141e+05  -1.658520e+05
   5.378291e+04   4.667308e+05
  -2.349322e+05   4.318163e+05
  -3.428415e+05  -1.384575e+05
  -2.480202e+05  -5.691249e+05
   4.983505e+04  -4.277537e+05
   3.840014e+05   4.212150e+04
   4.713409e+05   2.844685e+05
   2.397078e+05   1.019582e+05
  -3.936340e+04  -1.538702e+05
  -8.518995e+04  -5.781048e+04
   2.107451e+04   3.388262e+05
  -3.114828e+04   5.468064e+05
  -3.048527e+05   2.290977e+05
  -4.589546e+05  -3.611684e+05
  -1.677902e+05  -6.326638e+05
   3.972546e+05  -3.113768e+05
   6.577979e+05   2.699888e+05
   2.514843e+05   5.605098e+05
  -5.039375e+05   3.597558e+05
  -8.735387e+05  -7.227481e+04
  -4.729728e+05  -3.729525e+05
   2.891505e+05  -4.004863e+05
   6.307343e+05  -2.319600e+05
   2.544303e+05  -2.055791e+04
  -3.276786e+05   7.174654e+04
  -3.938177e+05  -5.354493e+04
   1.587038e+05  -2.768183e+05
   7.169956e+05  -2.613438e+05
