
 $NMID
 id='ANONYMOUS ', fmtdat='(2E16.6)'
 volume=1.0
 tramp=1.0
 $END
   3.021541e+07  -5.418409e+05
   1.985490e+07   1.506997e+07
  -7.885230e+05   1.947466e+07
  -1.326578e+07   1.160966e+07
  -1.033497e+07   1.198904e+05
  -1.265956e+05  -5.297538e+06
   5.827244e+06  -1.953356e+06
   3.887818e+06   4.843296e+06
  -1.738189e+06   7.475051e+06
  -5.454115e+06   3.144504e+06
  -4.703748e+06  -3.667503e+06
  -7.205722e+05  -5.901815e+06
   2.713943e+06  -1.436432e+06
   2.244114e+06   4.606200e+06
  -1.687966e+06   5.545002e+06
  -4.846482e+06   3.506723e+05
  -3.546518e+06  -5.757570e+06
   1.384373e+06  -7.273146e+06
   5.637990e+06  -3.610609e+06
   5.930178e+06   1.475952e+06
   2.869121e+06   4.172712e+06
  -1.867105e+05   3.714167e+06
  -5.090716e+05   2.171353e+06
   1.420954e+06   1.970895e+06
   2.317769e+06   3.423299e+06
  -4.138448e+05   4.443342e+06
  -5.247886e+06   2.939273e+06
  -7.481840e+06  -5.880953e+05
  -4.421149e+06  -3.358717e+06
   1.149744e+06  -3.243893e+06
   3.857821e+06  -8.003344e+05
   1.688859e+06   1.615147e+06
  -2.249124e+06   2.019190e+06
  -3.784727e+06   7.984404e+04
  -2.051133e+06  -2.726653e+06
   6.083609e+05  -3.903987e+06
   1.783567e+06  -2.037035e+06
   1.080638e+06   1.186071e+06
  -2.222114e+05   2.164988e+06
  -5.877068e+05  -3.302925e+05
   5.039139e+05  -3.086267e+06
   1.972924e+06  -2.227758e+06
   1.954566e+06   1.549770e+06
  -1.774962e+05   3.547362e+06
  -2.633694e+06   1.049075e+06
  -2.691693e+06  -3.204185e+06
   3.708761e+05  -4.473518e+06
   4.139738e+06  -1.537173e+06
   5.168068e+06   2.529109e+06
   2.281397e+06   4.190073e+06
  -2.177790e+06   2.679256e+06
  -4.415887e+06  -1.923429e+05
  -2.713151e+06  -2.071017e+06
   9.472127e+05  -1.774578e+06
   2.913033e+06   8.395303e+03
   1.632156e+06   1.351566e+06
  -8.894447e+05   9.441574e+05
  -1.605203e+06  -5.210369e+05
   3.127063e+04  -1.203689e+06
   1.658095e+06  -3.057672e+05
   1.008152e+06   1.120474e+06
  -1.421720e+06   1.504250e+06
  -3.009372e+06   2.850147e+05
  -1.863781e+06  -1.861635e+06
   1.341666e+06  -3.561027e+06
   4.155067e+06  -3.379799e+06
   4.606450e+06  -8.521617e+05
   2.777025e+06   2.605371e+06
   4.378269e+05   4.512982e+06
  -7.523650e+05   3.775767e+06
  -7.176572e+05   1.878194e+06
  -6.595438e+05   9.658985e+05
  -1.435350e+06   1.178254e+06
  -2.531010e+06   8.235368e+05
  -2.708981e+06  -9.352457e+05
  -1.399979e+06  -2.665984e+06
   6.941148e+05  -2.388441e+06
   2.144953e+06  -4.269736e+04
   1.828394e+06   2.356516e+06
  -2.000962e+05   2.783554e+06
  -2.507624e+06   1.017572e+06
  -3.256072e+06  -1.426936e+06
  -1.888356e+06  -2.794851e+06
   2.241116e+05  -2.528458e+06
   1.269127e+06  -1.490249e+06
   1.076905e+06  -8.808968e+05
   1.143572e+06  -9.499719e+05
   2.432725e+06  -8.447873e+05
   3.804473e+06   2.867115e+05
   3.223011e+06   2.220117e+06
   3.053666e+05   3.733477e+06
  -2.927417e+06   3.632192e+06
  -3.990184e+06   1.748598e+06
  -2.352170e+06  -7.805311e+05
   1.876889e+05  -2.206684e+06
   1.349278e+06  -1.588581e+06
   4.722172e+05   1.894258e+05
  -1.110761e+06   1.149659e+06
  -1.618770e+06   3.482560e+05
  -6.403451e+05  -1.006786e+06
   6.036129e+05  -1.057930e+06
   6.950837e+05   2.806459e+05
  -4.793889e+05   1.113165e+06
  -1.686836e+06  -6.564893e+04
  -1.587570e+06  -2.409050e+06
   8.968415e+04  -3.582346e+06
   2.346480e+06  -2.290907e+06
   3.623496e+06   4.776573e+05
   2.931751e+06   2.590480e+06
   7.367539e+05   2.760637e+06
  -1.249172e+06   1.447516e+06
  -1.562089e+06   1.523431e+05
  -4.613790e+05  -3.053946e+04
   3.667122e+05   6.754698e+05
  -2.333657e+05   1.129513e+06
  -1.522284e+06   5.704233e+05
  -1.795705e+06  -5.550898e+05
  -5.049528e+05  -1.133294e+06
   1.007173e+06  -6.326218e+05
   1.013748e+06   3.617815e+05
  -6.324525e+05   7.956809e+05
  -2.269666e+06   1.423883e+05
  -2.114716e+06  -1.179223e+06
  -7.282948e+04  -2.135561e+06
   2.134986e+06  -1.856976e+06
   2.623879e+06  -4.192031e+05
   1.146071e+06   1.034940e+06
  -7.350596e+05   1.251472e+06
  -1.244983e+06   1.744633e+05
  -1.082678e+05  -8.930143e+05
   1.345973e+06  -6.907680e+05
   1.637788e+06   5.733988e+05
   5.496718e+05   1.497297e+06
  -8.242905e+05   1.125550e+06
  -1.228027e+06  -1.960356e+04
  -4.205505e+05  -6.374282e+05
   6.272350e+05  -1.089843e+05
   6.683441e+05   9.263088e+05
  -5.422580e+05   1.309123e+06
  -1.871566e+06   4.983115e+05
  -1.891149e+06  -9.514930e+05
  -4.170336e+05  -1.888132e+06
   1.218410e+06  -1.568745e+06
   1.568456e+06  -3.229062e+05
   5.714608e+05   7.496638e+05
  -5.434706e+05   8.188507e+05
  -6.949947e+05   8.638048e+04
   9.940325e+02  -5.261222e+05
   5.962800e+05  -4.138386e+05
   4.274855e+05   9.655619e+04
  -2.512769e+05   2.040153e+05
  -5.902885e+05  -3.893773e+05
  -4.701167e+02  -1.070943e+06
   1.201123e+06  -9.224946e+05
   1.954358e+06   2.887870e+05
   1.419085e+06   1.756906e+06
  -1.286997e+05   2.316350e+06
  -1.489517e+06   1.519693e+06
  -1.729696e+06   5.238351e+04
  -1.056483e+06  -9.387173e+05
  -4.002256e+05  -9.267001e+05
  -2.917540e+05  -4.000570e+05
  -3.895022e+05  -2.056895e+05
  -7.498490e+04  -5.797109e+05
   7.239188e+05  -9.089153e+05
   1.384893e+06  -4.661660e+05
   1.164142e+06   6.753016e+05
  -7.965475e+04   1.548781e+06
  -1.596882e+06   1.190808e+06
  -2.198355e+06  -3.424761e+05
  -1.235052e+06  -1.898053e+06
   7.131627e+05  -2.237198e+06
   2.230563e+06  -1.161819e+06
   2.304695e+06   3.668832e+05
   1.182947e+06   1.209812e+06
  -2.429376e+04   1.096193e+06
  -4.873356e+05   6.876739e+05
  -3.160093e+05   6.971927e+05
  -1.938346e+05   1.072890e+06
  -5.498507e+05   1.106413e+06
  -1.123688e+06   2.951558e+05
  -1.251302e+06  -9.945225e+05
  -5.588336e+05  -1.777456e+06
   5.666858e+05  -1.372237e+06
   1.226052e+06  -7.177524e+04
   8.475385e+05   1.102197e+06
  -1.971586e+05   1.307250e+06
  -9.272079e+05   5.635549e+05
  -7.574214e+05  -3.981015e+05
  -7.378562e+04  -8.785920e+05
   2.754386e+05  -7.726455e+05
  -1.887573e+04  -4.735955e+05
  -3.811180e+05  -3.496661e+05
  -4.337895e+04  -3.785437e+05
   1.001943e+06  -2.564479e+05
   1.849310e+06   2.114496e+05
   1.548351e+06   8.558694e+05
   1.294986e+05   1.250782e+06
  -1.314158e+06   1.072783e+06
  -1.657898e+06   4.066462e+05
  -8.398432e+05  -2.701155e+05
   1.645902e+05  -4.621742e+05
   4.327906e+05  -1.141451e+05
  -1.399251e+04   2.967834e+05
  -4.649521e+05   2.275461e+05
  -4.429673e+05  -3.129138e+05
  -1.361050e+05  -7.139327e+05
   1.211903e+04  -4.613074e+05
  -1.377665e+05   1.789526e+05
  -3.462522e+05   3.927277e+05
  -2.894458e+05  -1.961679e+05
   1.648466e+05  -9.780436e+05
   8.121502e+05  -1.006379e+06
   1.137075e+06  -1.162248e+05
   6.842415e+05   8.483078e+05
  -3.643416e+05   9.703736e+05
  -1.097760e+06   2.309096e+05
  -6.897882e+05  -5.611274e+05
   6.119735e+05  -6.556768e+05
   1.555588e+06  -2.545200e+04
   1.138017e+06   7.491246e+05
  -3.056035e+05   1.047367e+06
  -1.431958e+06   6.703807e+05
  -1.281217e+06  -5.079883e+04
  -2.063943e+05  -5.102852e+05
   5.911441e+05  -3.318964e+05
   3.317489e+05   2.307648e+05
  -5.988520e+05   4.534921e+05
  -1.114523e+06  -1.363167e+05
  -5.587284e+05  -1.152776e+06
   6.473364e+05  -1.588400e+06
   1.452292e+06  -7.977384e+05
   1.208724e+06   7.370467e+05
   2.199268e+05   1.732415e+06
  -6.762180e+05   1.317685e+06
  -9.089720e+05  -7.089099e+04
  -5.199960e+05  -1.116626e+06
   8.546793e+04  -9.862882e+05
   5.049383e+05  -1.360638e+05
   5.279973e+05   3.645334e+05
   2.402000e+05   1.510428e+05
   1.299113e+04  -1.164786e+05
   1.596872e+05   2.238669e+05
   4.682872e+05   8.897879e+05
   3.059253e+05   1.043363e+06
  -5.641820e+05   4.107575e+05
  -1.440121e+06  -4.117084e+05
  -1.336825e+06  -7.675941e+05
  -2.048187e+05  -6.449416e+05
   8.853791e+05  -4.147351e+05
   9.666719e+05  -2.287154e+05
   2.797601e+05  -2.709384e+03
  -1.647910e+05   2.118101e+05
   6.297569e+04   2.405390e+05
   3.538003e+05   1.346385e+05
   1.348879e+04   1.332492e+05
  -7.324037e+05   2.040737e+05
  -9.886295e+05  -2.171574e+04
  -2.840867e+05  -6.412102e+05
   8.760766e+05  -1.083649e+06
   1.547358e+06  -6.784260e+05
   1.237866e+06   4.459003e+05
   2.482414e+05   1.355404e+06
  -6.856634e+05   1.293090e+06
  -9.929571e+05   4.662665e+05
  -6.442476e+05  -2.633608e+05
  -9.290620e+04  -3.394618e+05
   1.482691e+05  -1.172534e+04
  -4.539900e+04   7.947052e+04
  -3.350886e+05  -3.169159e+05
  -2.858268e+05  -7.659143e+05
   1.799720e+05  -6.316873e+05
   6.714687e+05   1.661472e+05
   6.669601e+05   9.584838e+05
   2.638548e+04   9.754128e+05
  -7.705825e+05   1.638726e+05
  -9.711494e+05  -7.525625e+05
  -2.902405e+05  -1.031393e+06
   6.868064e+05  -5.923847e+05
   1.025841e+06   8.211808e+04
   4.644191e+05   5.193799e+05
  -2.607660e+05   5.722225e+05
  -2.867519e+05   3.354879e+05
   3.142332e+05   3.303183e+04
   6.397670e+05  -3.435700e+04
   1.167594e+05   2.775466e+05
  -7.776850e+05   6.696261e+05
  -1.125735e+06   5.889062e+05
  -6.505306e+05  -1.002324e+05
   8.796185e+04  -7.997909e+05
   4.484996e+05  -7.902919e+05
   3.286343e+05  -1.020280e+05
   1.774323e+04   4.892007e+05
  -2.382445e+05   3.770902e+05
  -3.441118e+05  -2.039126e+05
  -2.389104e+05  -5.503127e+05
   6.528626e+04  -3.460018e+05
   3.713573e+05   6.786684e+04
   4.315700e+05   2.144682e+05
   2.304130e+05   4.601349e+04
   1.667283e+03  -8.998997e+04
  -7.489094e+04   7.104305e+04
  -7.811572e+04   3.840172e+05
  -1.782867e+05   4.540477e+05
  -3.486551e+05   8.849382e+04
  -3.529916e+05  -4.405717e+05
  -3.595868e+04  -6.304095e+05
   4.215192e+05  -2.718706e+05
   5.924502e+05   3.057748e+05
   2.143831e+05   5.726658e+05
  -4.594876e+05   3.435974e+05
  -8.028393e+05  -9.402466e+04
  -4.407675e+05  -3.570473e+05
   2.772547e+05  -3.337140e+05
   5.903880e+05  -1.611859e+05
   1.854434e+05  -7.643930e+03
  -4.059773e+05   1.644592e+04
  -4.212191e+05  -1.315253e+05
   2.168525e+05  -3.270360e+05
   8.063811e+05  -2.674897e+05
