
 $NMID
 id='ANONYMOUS ', fmtdat='(2E16.6)'
 volume=1.0
 tramp=1.0
 $END
  -3.996929e+07  -1.122333e+06
  -2.433951e+07  -2.343064e+07
   4.226813e+06  -2.638707e+07
   1.916825e+07  -1.207993e+07
   1.261989e+07   3.054577e+06
  -1.416810e+06   6.801813e+06
  -7.405382e+06   4.753433e+05
  -3.227034e+06  -6.864995e+06
   3.766634e+06  -8.069287e+06
   7.164663e+06  -2.443149e+06
   5.375555e+06   4.833332e+06
   4.736080e+05   6.933642e+06
  -3.253660e+06   1.794975e+06
  -2.162516e+06  -5.012669e+06
   2.729585e+06  -5.824354e+06
   5.986746e+06   5.173213e+05
   3.597307e+06   7.583562e+06
  -2.630413e+06   8.887888e+06
  -7.474893e+06   4.194760e+06
  -7.678284e+06  -1.971198e+06
  -4.073955e+06  -5.544277e+06
   3.188940e+04  -5.550728e+06
   1.514226e+06  -3.601815e+06
  -9.161691e+04  -2.306952e+06
  -1.692481e+06  -3.049523e+06
   3.735632e+05  -4.310714e+06
   5.431669e+06  -3.228171e+06
   8.252114e+06   5.348793e+05
   5.235262e+06   3.848175e+06
  -7.730659e+05   3.862470e+06
  -3.831869e+06   1.280263e+06
  -1.902239e+06  -1.078372e+06
   1.722346e+06  -1.501335e+06
   3.214461e+06  -5.446231e+04
   1.972429e+06   2.331299e+06
  -3.015870e+05   3.876674e+06
  -1.882373e+06   2.631031e+06
  -1.830141e+06  -8.267781e+05
  -4.019285e+05  -2.700685e+06
   6.409468e+05  -4.890199e+05
  -3.317086e+05   2.819319e+06
  -2.257930e+06   2.157878e+06
  -2.061549e+06  -2.256261e+06
   1.190872e+06  -4.500715e+06
   4.296549e+06  -9.076756e+05
   3.442051e+06   4.722109e+06
  -1.163082e+06   5.966196e+06
  -5.437471e+06   1.665313e+06
  -5.704628e+06  -3.492780e+06
  -1.912251e+06  -4.982712e+06
   2.789294e+06  -2.581853e+06
   4.715098e+06   9.047704e+05
   2.501500e+06   2.728909e+06
  -1.580459e+06   1.884007e+06
  -3.511934e+06  -4.909231e+05
  -1.683936e+06  -1.939865e+06
   1.242952e+06  -1.059072e+06
   1.628049e+06   7.867357e+05
  -5.723237e+05   1.093411e+06
  -1.977248e+06  -5.452076e+05
  -3.454292e+05  -2.035715e+06
   2.691746e+06  -1.583279e+06
   3.877268e+06   4.735848e+05
   1.942013e+06   2.740238e+06
  -1.683474e+06   4.130145e+06
  -4.631219e+06   3.724399e+06
  -5.235765e+06   9.655435e+05
  -3.324948e+06  -2.941540e+06
  -4.112183e+05  -5.149688e+06
   1.347967e+06  -4.108286e+06
   1.199409e+06  -1.596614e+06
   5.208278e+05  -4.772914e+05
   9.424823e+05  -1.033430e+06
   2.220699e+06  -1.063304e+06
   2.701472e+06   6.235362e+05
   1.507618e+06   2.455596e+06
  -5.375293e+05   2.263217e+06
  -1.924336e+06   1.226841e+03
  -1.659009e+06  -2.338598e+06
   2.566875e+05  -2.830575e+06
   2.652550e+06  -1.136846e+06
   3.642905e+06   1.492817e+06
   2.255043e+06   3.245544e+06
  -2.737600e+05   3.154861e+06
  -1.717917e+06   1.890812e+06
  -1.553557e+06   9.263452e+05
  -1.449374e+06   7.947509e+05
  -2.666679e+06   5.897505e+05
  -3.997893e+06  -6.500695e+05
  -3.216740e+06  -2.583825e+06
  -5.828892e+04  -3.899952e+06
   3.211596e+06  -3.594801e+06
   4.147648e+06  -1.698123e+06
   2.431635e+06   7.583125e+05
  -1.186993e+05   2.210202e+06
  -1.332457e+06   1.656156e+06
  -4.978843e+05  -1.537679e+05
   1.159013e+06  -1.157776e+06
   1.746858e+06  -2.895580e+05
   6.994502e+05   1.114116e+06
  -6.224061e+05   1.051157e+06
  -5.801595e+05  -3.563919e+05
   7.580941e+05  -9.323725e+05
   1.750323e+06   6.138790e+05
   1.112976e+06   2.899653e+06
  -8.369103e+05   3.516193e+06
  -2.763409e+06   1.729180e+06
  -3.483633e+06  -1.023992e+06
  -2.557306e+06  -2.801043e+06
  -4.944150e+05  -2.742104e+06
   1.318121e+06  -1.395142e+06
   1.577803e+06  -1.058609e+05
   4.728115e+05   5.883969e+04
  -3.309282e+05  -7.241126e+05
   3.587171e+05  -1.201705e+06
   1.701726e+06  -5.001081e+05
   1.863622e+06   7.725961e+05
   4.037240e+05   1.269540e+06
  -1.103848e+06   5.600526e+05
  -9.487260e+05  -4.488074e+05
   7.575045e+05  -6.584119e+05
   2.245885e+06   1.494242e+05
   1.915725e+06   1.354255e+06
  -1.573655e+05   2.078291e+06
  -2.297142e+06   1.676226e+06
  -2.707288e+06   2.347413e+05
  -1.125320e+06  -1.182675e+06
   8.692694e+05  -1.315694e+06
   1.378781e+06  -1.201180e+05
   1.011677e+05   9.731510e+05
  -1.449095e+06   6.442570e+05
  -1.644259e+06  -7.364640e+05
  -3.937113e+05  -1.587766e+06
   9.862026e+05  -1.028238e+06
   1.240396e+06   1.952583e+05
   3.206360e+05   7.157790e+05
  -7.007019e+05   5.652899e+04
  -6.511732e+05  -1.011378e+06
   6.207855e+05  -1.330896e+06
   1.953647e+06  -4.256585e+05
   1.905831e+06   1.084537e+06
   3.127021e+05   1.986069e+06
  -1.385057e+06   1.541698e+06
  -1.649636e+06   2.023333e+05
  -5.082586e+05  -8.259275e+05
   6.301356e+05  -7.873217e+05
   6.757048e+05  -4.866305e+04
  -7.373977e+04   4.610272e+05
  -5.760196e+05   3.036281e+05
  -3.022885e+05  -1.054050e+05
   3.400934e+05  -8.045376e+04
   5.435015e+05   5.314178e+05
  -1.343606e+05   1.119160e+06
  -1.320601e+06   8.547008e+05
  -1.994580e+06  -4.345715e+05
  -1.354469e+06  -1.903563e+06
   2.764775e+05  -2.355857e+06
   1.615807e+06  -1.407114e+06
   1.719058e+06   1.026577e+05
   9.335445e+05   9.745595e+05
   3.232059e+05   8.381842e+05
   3.468804e+05   3.431542e+05
   4.747690e+05   2.681473e+05
   5.319537e+04   6.581476e+05
  -8.302844e+05   8.721329e+05
  -1.435388e+06   3.430130e+05
  -1.087640e+06  -7.519702e+05
   2.232576e+05  -1.511931e+06
   1.707511e+06  -1.067732e+06
   2.205108e+06   5.063857e+05
   1.103985e+06   2.041924e+06
  -9.419015e+05   2.257248e+06
  -2.415274e+06   1.002746e+06
  -2.308664e+06  -5.965113e+05
  -1.035003e+06  -1.320500e+06
   1.501957e+05  -1.036292e+06
   4.820597e+05  -5.942096e+05
   2.551673e+05  -7.056576e+05
   2.099864e+05  -1.158991e+06
   6.526273e+05  -1.154388e+06
   1.207840e+06  -2.506041e+05
   1.239848e+06   1.090930e+06
   4.730450e+05   1.854145e+06
  -6.559245e+05   1.373027e+06
  -1.255171e+06  -1.719113e+04
  -7.811095e+05  -1.217645e+06
   3.384830e+05  -1.335148e+06
   1.050296e+06  -4.557163e+05
   7.605265e+05   5.557320e+05
  -4.804499e+04   9.624614e+05
  -4.182875e+05   7.639247e+05
  -4.572255e+04   4.518232e+05
   3.861022e+05   3.629427e+05
   3.201311e+04   3.832217e+05
  -1.075019e+06   1.897330e+05
  -1.928151e+06  -3.498308e+05
  -1.537005e+06  -1.004804e+06
  -1.487968e+03  -1.333029e+06
   1.479014e+06  -1.038216e+06
   1.749850e+06  -2.750348e+05
   8.251564e+05   4.016536e+05
  -2.262450e+05   4.981520e+05
  -4.708020e+05   6.079964e+04
   1.003443e+04  -3.472217e+05
   4.673659e+05  -2.185272e+05
   4.445357e+05   3.461671e+05
   1.506565e+05   7.250755e+05
   1.043475e+04   4.686997e+05
   1.462203e+05  -1.380943e+05
   3.378235e+05  -3.355086e+05
   2.747051e+05   2.252231e+05
  -2.017818e+05   9.749613e+05
  -8.968052e+05   9.935792e+05
  -1.236859e+06   8.676215e+04
  -7.144159e+05  -9.090312e+05
   4.316194e+05  -1.024245e+06
   1.176254e+06  -2.237394e+05
   6.824629e+05   5.989743e+05
  -6.810531e+05   6.242665e+05
  -1.571647e+06  -9.885425e+04
  -1.048025e+06  -8.512435e+05
   4.301766e+05  -1.009105e+06
   1.492585e+06  -5.225047e+05
   1.259286e+06   1.704037e+05
   1.519558e+05   5.219392e+05
  -6.318202e+05   2.775975e+05
  -3.433575e+05  -2.734582e+05
   6.144769e+05  -4.554660e+05
   1.138457e+06   1.640135e+05
   5.547164e+05   1.191413e+06
  -6.953912e+05   1.609363e+06
  -1.503266e+06   7.703128e+05
  -1.196509e+06  -8.014300e+05
  -1.334630e+05  -1.769369e+06
   7.650018e+05  -1.277232e+06
   9.132628e+05   1.590606e+05
   4.297887e+05   1.174087e+06
  -1.901425e+05   9.749133e+05
  -5.366674e+05   8.977440e+04
  -4.838936e+05  -3.945057e+05
  -1.991210e+05  -1.558755e+05
  -3.417451e+04   1.064004e+05
  -2.031905e+05  -2.633305e+05
  -4.464051e+05  -9.455511e+05
  -2.068382e+05  -1.072977e+06
   6.505329e+05  -3.778381e+05
   1.437262e+06   5.009433e+05
   1.276452e+06   8.592513e+05
   1.666625e+05   6.785229e+05
  -8.892750e+05   3.772108e+05
  -9.847791e+05   1.640535e+05
  -3.169405e+05  -3.554433e+04
   1.653134e+05  -2.108359e+05
  -6.776414e+03  -2.267797e+05
  -3.065822e+05  -1.315265e+05
  -2.486532e+04  -1.338568e+05
   7.082064e+05  -1.869153e+05
   1.014540e+06   6.015607e+04
   3.257431e+05   6.774933e+05
  -9.066767e+05   1.089468e+06
  -1.648014e+06   6.476287e+05
  -1.300005e+06  -4.924816e+05
  -2.023204e+05  -1.389481e+06
   7.798858e+05  -1.301892e+06
   1.039521e+06  -4.574885e+05
   6.378882e+05   2.760505e+05
   9.779821e+04   3.523524e+05
  -1.114178e+05   3.169967e+04
   6.587109e+04  -4.730380e+04
   3.044689e+05   3.554857e+05
   2.339977e+05   7.978893e+05
  -2.064458e+05   6.464086e+05
  -6.685089e+05  -1.724103e+05
  -6.609685e+05  -9.821056e+05
  -2.915663e+04  -1.002856e+06
   7.678336e+05  -1.727974e+05
   9.698931e+05   7.762653e+05
   2.755629e+05   1.070807e+06
  -7.235768e+05   6.050497e+05
  -1.066839e+06  -1.211145e+05
  -4.752253e+05  -5.841210e+05
   2.973542e+05  -6.129647e+05
   3.462614e+05  -3.389733e+05
  -2.792038e+05  -3.406887e+04
  -6.450919e+05   1.016124e+04
  -1.198899e+05  -2.971789e+05
   8.281972e+05  -6.406803e+05
   1.215036e+06  -5.165553e+05
   7.009995e+05   1.657907e+05
  -1.252691e+05   8.295478e+05
  -5.324899e+05   8.032035e+05
  -3.809866e+05   1.181967e+05
  -1.563867e+04  -4.840477e+05
   2.538653e+05  -3.959566e+05
   3.391745e+05   1.890478e+05
   2.235348e+05   5.727430e+05
  -7.303389e+04   3.837397e+05
  -3.778051e+05  -7.118756e+04
  -4.441867e+05  -2.652405e+05
  -2.341695e+05  -8.089348e+04
   1.284866e+04   1.202133e+05
   8.157556e+04  -9.893180e+03
   4.792496e+04  -3.645963e+05
   1.312318e+05  -4.947104e+05
   3.364608e+05  -1.402875e+05
   3.879844e+05   4.227681e+05
   7.193252e+04   6.394019e+05
  -4.248598e+05   2.760630e+05
  -6.156530e+05  -3.155932e+05
  -2.110224e+05  -5.805230e+05
   4.969901e+05  -3.355324e+05
   8.382402e+05   1.167013e+05
   4.450723e+05   3.846166e+05
  -2.985618e+05   3.560210e+05
  -6.205865e+05   1.715000e+05
  -2.188373e+05   5.706866e+03
   3.748202e+05  -2.689929e+04
   4.079045e+05   1.130539e+05
  -2.042400e+05   2.990396e+05
  -7.825191e+05   2.366330e+05
