
 $NMID
 id='ANONYMOUS ', fmtdat='(2E16.6)'
 volume=1.0
 tramp=1.0
 $END
   2.655662e+07  -7.557045e+05
   1.774590e+07   1.242770e+07
  -3.042147e+04   1.685678e+07
  -1.120743e+07   1.091424e+07
  -9.234002e+06   9.093998e+05
  -4.837584e+05  -4.649063e+06
   5.139789e+06  -2.230836e+06
   3.863117e+06   4.098588e+06
  -1.132716e+06   6.980140e+06
  -4.767741e+06   3.174676e+06
  -4.333375e+06  -3.233268e+06
  -7.502698e+05  -5.405752e+06
   2.483597e+06  -1.281566e+06
   2.196623e+06   4.323431e+06
  -1.334552e+06   5.244592e+06
  -4.340452e+06   5.484970e+05
  -3.371844e+06  -5.055907e+06
   1.024660e+06  -6.551738e+06
   4.954937e+06  -3.294327e+06
   5.253136e+06   1.323311e+06
   2.427022e+06   3.696957e+06
  -2.710630e+05   3.113512e+06
  -2.760395e+05   1.682735e+06
   1.716200e+06   1.743214e+06
   2.441525e+06   3.353092e+06
  -3.702000e+05   4.326511e+06
  -5.007503e+06   2.792147e+06
  -7.025900e+06  -5.622944e+05
  -4.054238e+06  -3.120253e+06
   1.216360e+06  -2.993786e+06
   3.747718e+06  -6.726798e+05
   1.609006e+06   1.697329e+06
  -2.269971e+06   2.120794e+06
  -3.795432e+06   1.359311e+05
  -2.033173e+06  -2.709787e+06
   6.368181e+05  -3.784236e+06
   1.702360e+06  -1.816464e+06
   8.685321e+05   1.261582e+06
  -3.852622e+05   1.977968e+06
  -5.911672e+05  -5.280091e+05
   4.962902e+05  -3.057047e+06
   1.808727e+06  -2.169536e+06
   1.836403e+06   1.303268e+06
   7.319936e+04   3.134818e+06
  -2.099321e+06   9.963654e+05
  -2.362541e+06  -2.714154e+06
   1.842070e+05  -3.902253e+06
   3.654012e+06  -1.426064e+06
   4.825984e+06   2.176424e+06
   2.293018e+06   3.804765e+06
  -1.920299e+06   2.597655e+06
  -4.152673e+06   1.609196e+04
  -2.654433e+06  -1.798056e+06
   7.464835e+05  -1.659351e+06
   2.634366e+06  -1.079905e+05
   1.540817e+06   1.143238e+06
  -7.680867e+05   8.705451e+05
  -1.533065e+06  -4.249468e+05
  -1.195062e+05  -1.165506e+06
   1.478204e+06  -5.099904e+05
   1.109158e+06   8.111106e+05
  -1.037899e+06   1.387093e+06
  -2.643371e+06   4.556574e+05
  -1.753509e+06  -1.557806e+06
   1.200975e+06  -3.282465e+06
   3.870680e+06  -3.181852e+06
   4.277311e+06  -8.013194e+05
   2.541706e+06   2.427477e+06
   4.347950e+05   4.182229e+06
  -5.582766e+05   3.533169e+06
  -5.394559e+05   1.866179e+06
  -6.398422e+05   1.068274e+06
  -1.494643e+06   1.208049e+06
  -2.526820e+06   7.670049e+05
  -2.637142e+06  -9.620659e+05
  -1.350969e+06  -2.621457e+06
   6.890747e+05  -2.348081e+06
   2.124990e+06  -7.526817e+04
   1.824507e+06   2.258711e+06
  -1.615379e+05   2.671746e+06
  -2.379434e+06   9.619341e+05
  -3.047752e+06  -1.351876e+06
  -1.727467e+06  -2.579711e+06
   2.108026e+05  -2.275196e+06
   1.112533e+06  -1.323912e+06
   9.092234e+05  -8.261002e+05
   1.009586e+06  -9.526142e+05
   2.269162e+06  -8.899544e+05
   3.606843e+06   1.611413e+05
   3.111770e+06   2.022256e+06
   3.793979e+05   3.545729e+06
  -2.721184e+06   3.523784e+06
  -3.792556e+06   1.722604e+06
  -2.254630e+06  -7.456818e+05
   1.834135e+05  -2.132320e+06
   1.297721e+06  -1.523951e+06
   4.514652e+05   1.916098e+05
  -1.052371e+06   1.113055e+06
  -1.524303e+06   3.556461e+05
  -6.040470e+05  -9.424375e+05
   5.716912e+05  -1.024617e+06
   6.997460e+05   2.435254e+05
  -3.764045e+05   1.113291e+06
  -1.590256e+06   8.762539e+04
  -1.651489e+06  -2.165622e+06
  -1.350714e+05  -3.441344e+06
   2.114964e+06  -2.354506e+06
   3.510526e+06   2.861525e+05
   2.933856e+06   2.405873e+06
   7.945610e+05   2.651487e+06
  -1.173332e+06   1.415826e+06
  -1.498716e+06   1.693980e+05
  -4.405085e+05  -1.930013e+04
   3.659294e+05   6.355652e+05
  -1.883037e+05   1.068185e+06
  -1.416114e+06   5.715936e+05
  -1.709732e+06  -4.707863e+05
  -5.142091e+05  -1.051735e+06
   9.413252e+05  -6.322676e+05
   9.951525e+05   3.181414e+05
  -5.664651e+05   8.046160e+05
  -2.183487e+06   2.317060e+05
  -2.093605e+06  -1.068366e+06
  -1.480458e+05  -2.065161e+06
   1.996358e+06  -1.847060e+06
   2.498266e+06  -4.673878e+05
   1.111314e+06   9.512523e+05
  -6.688007e+05   1.189940e+06
  -1.162897e+06   1.847283e+05
  -1.086305e+05  -8.404758e+05
   1.265649e+06  -6.837315e+05
   1.575632e+06   5.001027e+05
   5.766922e+05   1.410919e+06
  -7.423242e+05   1.109580e+06
  -1.174712e+06   3.338806e+04
  -4.319335e+05  -5.891183e+05
   5.851344e+05  -1.210304e+05
   6.543611e+05   8.666325e+05
  -4.932621e+05   1.259581e+06
  -1.777817e+06   5.112307e+05
  -1.822493e+06  -8.696985e+05
  -4.391112e+05  -1.788655e+06
   1.119728e+06  -1.521845e+06
   1.484108e+06  -3.497293e+05
   5.685687e+05   6.975177e+05
  -4.959968e+05   7.982674e+05
  -6.739111e+05   9.763583e+04
  -2.406608e+04  -5.230716e+05
   5.738925e+05  -4.339282e+05
   4.461948e+05   8.290043e+04
  -2.124272e+05   2.283093e+05
  -5.792290e+05  -3.313820e+05
  -4.254727e+04  -1.014924e+06
   1.117262e+06  -9.121963e+05
   1.871018e+06   2.270834e+05
   1.393029e+06   1.642939e+06
  -7.017790e+04   2.218367e+06
  -1.388108e+06   1.500139e+06
  -1.663736e+06   1.035342e+05
  -1.055005e+06  -8.829162e+05
  -4.152498e+05  -9.096385e+05
  -2.721009e+05  -3.994817e+05
  -3.532375e+05  -1.816440e+05
  -8.035394e+04  -5.365946e+05
   6.610034e+05  -8.874298e+05
   1.313262e+06  -4.911059e+05
   1.144687e+06   6.181881e+05
  -2.560307e+04   1.497747e+06
  -1.496829e+06   1.188696e+06
  -2.114503e+06  -2.709189e+05
  -1.233974e+06  -1.779103e+06
   6.126412e+05  -2.149458e+06
   2.088835e+06  -1.171241e+06
   2.215441e+06   2.778897e+05
   1.183282e+06   1.124065e+06
   1.906942e+04   1.067947e+06
  -4.626531e+05   6.907106e+05
  -3.152556e+05   6.742810e+05
  -1.777128e+05   1.012817e+06
  -4.970943e+05   1.054629e+06
  -1.057872e+06   3.014328e+05
  -1.213303e+06  -9.242198e+05
  -5.713454e+05  -1.686727e+06
   5.133402e+05  -1.323820e+06
   1.171149e+06  -1.000476e+05
   8.385682e+05   1.024451e+06
  -1.449873e+05   1.249787e+06
  -8.545751e+05   5.738234e+05
  -7.273053e+05  -3.376380e+05
  -1.063562e+05  -8.209259e+05
   2.228645e+05  -7.446721e+05
  -3.872881e+04  -4.598060e+05
  -3.681234e+05  -3.303817e+05
  -4.769376e+04  -3.625377e+05
   9.424698e+05  -2.697996e+05
   1.759225e+06   1.562321e+05
   1.497109e+06   7.745619e+05
   1.645672e+05   1.179869e+06
  -1.215234e+06   1.047766e+06
  -1.567227e+06   4.349468e+05
  -8.112117e+05  -2.201646e+05
   1.403019e+05  -4.355240e+05
   4.047453e+05  -1.258744e+05
  -1.357120e+04   2.727580e+05
  -4.449160e+05   2.245638e+05
  -4.273972e+05  -2.895050e+05
  -1.323682e+05  -6.839582e+05
   1.429365e+04  -4.431549e+05
  -1.277497e+05   1.837151e+05
  -3.310829e+05   3.963382e+05
  -2.838263e+05  -1.782946e+05
   1.411157e+05  -9.431872e+05
   7.524882e+05  -9.772373e+05
   1.068447e+06  -1.259599e+05
   6.564885e+05   7.972514e+05
  -3.278106e+05   9.220906e+05
  -1.035383e+06   2.304972e+05
  -6.694280e+05  -5.253740e+05
   5.659807e+05  -6.421948e+05
   1.490564e+06  -6.752498e+04
   1.122034e+06   6.843033e+05
  -2.534350e+05   1.017417e+06
  -1.354708e+06   6.927209e+05
  -1.237006e+06  -8.054583e+03
  -2.162528e+05  -4.855946e+05
   5.553359e+05  -3.369294e+05
   3.173860e+05   2.094391e+05
  -5.696624e+05   4.406692e+05
  -1.068038e+06  -1.165233e+05
  -5.468991e+05  -1.096416e+06
   6.000401e+05  -1.528233e+06
   1.379163e+06  -7.847838e+05
   1.171039e+06   6.841623e+05
   2.458211e+05   1.655225e+06
  -6.177191e+05   1.282249e+06
  -8.727122e+05  -3.900435e+04
  -5.309157e+05  -1.054718e+06
   4.787778e+04  -9.511329e+05
   4.762118e+05  -1.460619e+05
   5.219965e+05   3.384289e+05
   2.429773e+05   1.415564e+05
   6.064552e+03  -1.142486e+05
   1.434471e+05   2.055284e+05
   4.618256e+05   8.389022e+05
   3.268390e+05   9.927335e+05
  -5.175722e+05   4.060366e+05
  -1.388611e+06  -3.630507e+05
  -1.306401e+06  -7.044323e+05
  -2.110707e+05  -6.100434e+05
   8.476437e+05  -4.155102e+05
   9.231045e+05  -2.435925e+05
   2.589587e+05  -1.359184e+04
  -1.570851e+05   2.053665e+05
   7.712785e+04   2.331567e+05
   3.541017e+05   1.265701e+05
   1.128508e+04   1.284637e+05
  -7.096610e+05   2.071602e+05
  -9.449593e+05  -4.337121e+03
  -2.669100e+05  -6.073036e+05
   8.281511e+05  -1.048023e+06
   1.458877e+06  -6.702936e+05
   1.178527e+06   4.098659e+05
   2.601182e+05   1.293733e+06
  -6.268065e+05   1.246082e+06
  -9.408066e+05   4.577931e+05
  -6.239856e+05  -2.453726e+05
  -9.060911e+04  -3.232056e+05
   1.526340e+05  -8.312358e+03
  -3.708533e+04   8.461777e+04
  -3.320708e+05  -2.921464e+05
  -2.935229e+05  -7.263068e+05
   1.623706e+05  -6.055254e+05
   6.487813e+05   1.534031e+05
   6.505157e+05   9.122208e+05
   3.117780e+04   9.324195e+05
  -7.419521e+05   1.612845e+05
  -9.406615e+05  -7.115747e+05
  -2.899905e+05  -9.807761e+05
   6.479662e+05  -5.715451e+05
   9.772640e+05   6.242470e+04
   4.469700e+05   4.805224e+05
  -2.384819e+05   5.419339e+05
  -2.586857e+05   3.230686e+05
   3.116655e+05   2.836193e+04
   6.139378e+05  -4.398753e+04
   1.132621e+05   2.614552e+05
  -7.304588e+05   6.568726e+05
  -1.055333e+06   5.918388e+05
  -6.127845e+05  -7.621931e+04
   7.002947e+04  -7.624427e+05
   4.049577e+05  -7.591317e+05
   3.027443e+05  -9.533653e+04
   2.139492e+04   4.722511e+05
  -2.230697e+05   3.597627e+05
  -3.345301e+05  -1.974751e+05
  -2.375874e+05  -5.221299e+05
   5.923625e+04  -3.239053e+05
   3.564524e+05   6.194170e+04
   4.127877e+05   1.907348e+05
   2.204198e+05   3.378553e+04
   5.359223e+03  -7.935645e+04
  -6.840825e+04   8.442063e+04
  -7.963072e+04   3.761456e+05
  -1.813613e+05   4.293816e+05
  -3.395038e+05   7.486048e+04
  -3.347201e+05  -4.271032e+05
  -2.991997e+04  -6.054531e+05
   4.031746e+05  -2.638394e+05
   5.667258e+05   2.881051e+05
   2.114578e+05   5.478556e+05
  -4.301953e+05   3.355326e+05
  -7.643771e+05  -7.963489e+04
  -4.254129e+05  -3.336920e+05
   2.596986e+05  -3.172551e+05
   5.599862e+05  -1.562006e+05
   1.699110e+05  -8.378856e+03
  -3.991814e+05   1.689509e+04
  -4.105143e+05  -1.280246e+05
   2.090381e+05  -3.240635e+05
   7.800503e+05  -2.720357e+05
