
 $NMID
 id='ANONYMOUS ', fmtdat='(2E16.6)'
 volume=1.0
 tramp=1.0
 $END
   2.770630e+07   1.413851e+06
   1.715932e+07   1.487647e+07
  -1.881474e+06   1.763829e+07
  -1.269795e+07   9.877889e+06
  -9.388947e+06  -3.445987e+05
   1.383874e+05  -4.801932e+06
   5.387250e+06  -1.539118e+06
   3.330494e+06   4.580643e+06
  -1.915807e+06   6.773876e+06
  -5.131246e+06   2.623524e+06
  -4.126160e+06  -3.638721e+06
  -3.431427e+05  -5.493785e+06
   2.602548e+06  -1.163497e+06
   1.858691e+06   4.398125e+06
  -1.811132e+06   5.039512e+06
  -4.447406e+06   7.640446e+04
  -2.937848e+06  -5.470018e+06
   1.672913e+06  -6.589099e+06
   5.389598e+06  -2.974026e+06
   5.360162e+06   1.741287e+06
   2.342507e+06   4.039975e+06
  -4.654866e+05   3.377976e+06
  -6.061416e+05   1.875912e+06
   1.289156e+06   1.825029e+06
   2.058188e+06   3.306880e+06
  -6.004096e+05   4.151632e+06
  -5.065832e+06   2.470391e+06
  -6.940614e+06  -9.625002e+05
  -3.905621e+06  -3.380522e+06
   1.290421e+06  -2.968948e+06
   3.680652e+06  -5.356783e+05
   1.520435e+06   1.636866e+06
  -2.206510e+06   1.838399e+06
  -3.579222e+06  -7.815078e+04
  -1.813786e+06  -2.672072e+06
   7.763964e+05  -3.645534e+06
   1.797503e+06  -1.782949e+06
   9.326803e+05   1.224513e+06
  -3.776758e+05   2.021840e+06
  -5.761339e+05  -3.860247e+05
   6.181653e+05  -2.890472e+06
   1.937920e+06  -1.978551e+06
   1.710632e+06   1.514630e+06
  -3.365928e+05   3.206825e+06
  -2.419747e+06   7.707139e+05
  -2.240542e+06  -3.091274e+06
   6.047017e+05  -4.047518e+06
   3.889237e+06  -1.159309e+06
   4.635427e+06   2.598945e+06
   1.908837e+06   3.973384e+06
  -2.132534e+06   2.375100e+06
  -4.071977e+06  -3.738384e+05
  -2.415847e+06  -2.025334e+06
   9.454853e+05  -1.575318e+06
   2.669219e+06   1.568387e+05
   1.427765e+06   1.316578e+06
  -8.663453e+05   8.152224e+05
  -1.462395e+06  -5.534063e+05
   5.260387e+04  -1.102511e+06
   1.504279e+06  -2.344054e+05
   8.758476e+05   1.012671e+06
  -1.340269e+06   1.265843e+06
  -2.744131e+06   1.137908e+05
  -1.602533e+06  -1.791371e+06
   1.443609e+06  -3.220370e+06
   4.050670e+06  -2.917747e+06
   4.328687e+06  -5.320807e+05
   2.425459e+06   2.588170e+06
   1.557826e+05   4.212744e+06
  -8.752425e+05   3.449463e+06
  -7.224870e+05   1.713479e+06
  -6.461025e+05   9.069396e+05
  -1.421491e+06   1.068302e+06
  -2.441487e+06   6.512197e+05
  -2.509307e+06  -1.025571e+06
  -1.186378e+06  -2.583432e+06
   7.690305e+05  -2.218783e+06
   2.021229e+06   5.083520e+04
   1.607543e+06   2.288853e+06
  -3.233104e+05   2.592064e+06
  -2.397486e+06   8.159061e+05
  -2.955494e+06  -1.513739e+06
  -1.587370e+06  -2.705958e+06
   3.652455e+05  -2.320588e+06
   1.259146e+06  -1.287452e+06
   1.028342e+06  -7.439909e+05
   1.092610e+06  -8.257271e+05
   2.293612e+06  -6.733924e+05
   3.519515e+06   4.456434e+05
   2.890990e+06   2.217413e+06
   1.075755e+05   3.489813e+06
  -2.902723e+06   3.245679e+06
  -3.812212e+06   1.436715e+06
  -2.162044e+06  -8.519893e+05
   2.879359e+05  -2.061530e+06
   1.346392e+06  -1.419220e+06
   4.335733e+05   2.039461e+05
  -1.094677e+06   1.019437e+06
  -1.523235e+06   2.431178e+05
  -5.414031e+05  -9.718338e+05
   6.158766e+05  -9.607567e+05
   6.395071e+05   2.865714e+05
  -4.785277e+05   1.013971e+06
  -1.543599e+06  -1.176258e+05
  -1.368398e+06  -2.281784e+06
   2.149983e+05  -3.314325e+06
   2.256905e+06  -2.039133e+06
   3.348882e+06   5.874210e+05
   2.628511e+06   2.538377e+06
   5.692001e+05   2.610003e+06
  -1.234481e+06   1.293915e+06
  -1.467385e+06   6.787427e+04
  -4.285384e+05  -5.027717e+04
   3.097204e+05   6.461214e+05
  -2.710498e+05   1.035861e+06
  -1.440321e+06   4.538047e+05
  -1.639353e+06  -5.997867e+05
  -4.155677e+05  -1.073376e+06
   9.652519e+05  -5.419245e+05
   9.307137e+05   3.803095e+05
  -6.171673e+05   7.150897e+05
  -2.118570e+06   3.943275e+04
  -1.924595e+06  -1.187873e+06
   2.069709e+04  -1.994703e+06
   2.072263e+06  -1.636013e+06
   2.463889e+06  -2.696890e+05
   1.015966e+06   1.016423e+06
  -7.460550e+05   1.125471e+06
  -1.164502e+06   9.810077e+04
  -5.366065e+04  -8.370687e+05
   1.286539e+06  -5.780439e+05
   1.496879e+06   6.088259e+05
   4.451441e+05   1.416087e+06
  -8.131477e+05   1.010468e+06
  -1.139139e+06  -6.960969e+04
  -3.638868e+05  -6.079833e+05
   5.860610e+05  -7.018700e+04
   5.769949e+05   8.949416e+05
  -5.690401e+05   1.194334e+06
  -1.769230e+06   3.746000e+05
  -1.716912e+06  -9.775279e+05
  -2.985199e+05  -1.778140e+06
   1.207637e+06  -1.402249e+06
   1.474069e+06  -2.278172e+05
   4.978742e+05   7.226224e+05
  -5.427729e+05   7.374189e+05
  -6.542629e+05   4.995951e+04
   1.921595e+04  -4.924108e+05
   5.739869e+05  -3.655796e+05
   4.021000e+05   1.041135e+05
  -2.338124e+05   1.807443e+05
  -5.287353e+05  -3.833625e+05
   4.727275e+04  -9.932923e+05
   1.160161e+06  -8.025359e+05
   1.806516e+06   3.605002e+05
   1.238836e+06   1.703817e+06
  -2.281122e+05   2.153378e+06
  -1.456742e+06   1.349906e+06
  -1.615026e+06  -2.660034e+04
  -9.484724e+05  -9.224419e+05
  -3.385723e+05  -8.883416e+05
  -2.538119e+05  -3.951690e+05
  -3.467509e+05  -2.130058e+05
  -3.877903e+04  -5.412734e+05
   7.148536e+05  -8.122266e+05
   1.310724e+06  -3.728530e+05
   1.057496e+06   6.812759e+05
  -1.406222e+05   1.441170e+06
  -1.541518e+06   1.038008e+06
  -2.033301e+06  -4.199295e+05
  -1.063299e+06  -1.823559e+06
   7.662785e+05  -2.047252e+06
   2.127692e+06  -9.777070e+05
   2.128266e+06   4.442628e+05
   1.050930e+06   1.177155e+06
  -6.631536e+04   1.022102e+06
  -4.854029e+05   6.257181e+05
  -3.339667e+05   6.404886e+05
  -2.379465e+05   9.899751e+05
  -5.662858e+05   1.001297e+06
  -1.060076e+06   2.192924e+05
  -1.118838e+06  -9.870528e+05
  -4.369297e+05  -1.683587e+06
   5.932510e+05  -1.252804e+06
   1.145609e+06  -1.043979e+04
   7.372893e+05   1.064108e+06
  -2.425381e+05   1.205712e+06
  -8.835949e+05   4.816764e+05
  -6.812712e+05  -4.016033e+05
  -2.815790e+04  -8.154407e+05
   2.876064e+05  -7.029899e+05
   8.049853e+02  -4.422375e+05
  -3.389082e+05  -3.457694e+05
  -2.246889e+04  -3.558641e+05
   9.435376e+05  -1.908216e+05
   1.710198e+06   2.854089e+05
   1.401037e+06   8.688598e+05
   6.253432e+04   1.166584e+06
  -1.272747e+06   9.334824e+05
  -1.560800e+06   3.018896e+05
  -7.671370e+05  -2.862029e+05
   1.754201e+05  -4.195706e+05
   4.060389e+05  -8.656935e+04
  -3.059783e+04   2.748010e+05
  -4.460657e+05   1.907548e+05
  -3.977382e+05  -3.130890e+05
  -9.114136e+04  -6.756416e+05
   3.557595e+04  -4.323710e+05
  -1.351321e+05   1.626632e+05
  -3.409442e+05   3.545207e+05
  -2.607736e+05  -1.955621e+05
   2.001387e+05  -9.063030e+05
   8.047911e+05  -8.990671e+05
   1.063846e+06  -4.935198e+04
   5.944838e+05   8.265259e+05
  -3.881037e+05   8.845785e+05
  -1.034996e+06   1.586626e+05
  -6.170320e+05  -5.569670e+05
   5.999122e+05  -5.821960e+05
   1.450827e+06   4.643947e+04
   1.028715e+06   7.470219e+05
  -3.286983e+05   9.614753e+05
  -1.362887e+06   5.626190e+05
  -1.192399e+06  -1.026237e+05
  -1.706829e+05  -4.845271e+05
   5.648477e+05  -2.826960e+05
   2.965085e+05   2.307341e+05
  -5.824600e+05   3.945303e+05
  -1.034566e+06  -1.820818e+05
  -4.650557e+05  -1.104930e+06
   6.827214e+05  -1.452504e+06
   1.395260e+06  -6.748910e+05
   1.093358e+06   7.454636e+05
   1.238764e+05   1.626920e+06
  -6.909518e+05   1.198618e+06
  -8.429895e+05  -1.063570e+05
  -4.342120e+05  -1.063447e+06
   1.220518e+05  -9.146570e+05
   4.754302e+05  -1.035209e+05
   4.775282e+05   3.633105e+05
   2.195858e+05   1.507566e+05
   1.617036e+04  -1.078693e+05
   1.341073e+05   2.177575e+05
   3.932516e+05   8.522326e+05
   2.392623e+05   9.853587e+05
  -5.421306e+05   3.542393e+05
  -1.324191e+06  -4.511886e+05
  -1.212998e+06  -7.762462e+05
  -1.605330e+05  -6.102868e+05
   8.474491e+05  -3.469854e+05
   9.122414e+05  -1.694474e+05
   2.580963e+05   1.110610e+04
  -1.646608e+05   1.903695e+05
   5.102605e+04   2.260983e+05
   3.275786e+05   1.410507e+05
   5.457415e+03   1.260767e+05
  -6.964732e+05   1.575570e+05
  -9.215523e+05  -6.808051e+04
  -2.304778e+05  -6.148766e+05
   8.724033e+05  -9.702420e+05
   1.475586e+06  -5.559423e+05
   1.131841e+06   4.791774e+05
   1.668124e+05   1.277503e+06
  -7.009876e+05   1.172140e+06
  -9.499993e+05   3.860992e+05
  -5.902726e+05  -2.772248e+05
  -6.943766e+04  -3.221168e+05
   1.425646e+05  -4.645090e+03
  -4.355338e+04   7.285763e+04
  -2.979458e+05  -3.095216e+05
  -2.313206e+05  -7.269211e+05
   1.988932e+05  -5.806870e+05
   6.206956e+05   1.880269e+05
   5.768855e+05   9.289314e+05
  -2.469864e+04   9.136862e+05
  -7.305190e+05   1.154375e+05
  -8.716658e+05  -7.511778e+05
  -2.200313e+05  -9.774470e+05
   6.710794e+05  -5.186028e+05
   9.526019e+05   1.272754e+05
   4.055036e+05   5.063523e+05
  -2.725330e+05   5.190625e+05
  -2.820057e+05   2.967980e+05
   2.945954e+05   4.436265e+04
   5.993906e+05  -1.882322e+03
   9.454602e+04   2.648179e+05
  -7.569784e+05   5.880235e+05
  -1.074592e+06   4.956101e+05
  -5.981695e+05  -1.249352e+05
   1.211585e+05  -7.412593e+05
   4.549760e+05  -7.130784e+05
   3.108846e+05  -7.575126e+04
  -6.938739e+03   4.593032e+05
  -2.418249e+05   3.397033e+05
  -3.134475e+05  -2.084095e+05
  -1.964694e+05  -5.251580e+05
   7.973746e+04  -3.184519e+05
   3.440207e+05   8.193233e+04
   3.903248e+05   2.199670e+05
   2.114852e+05   5.269385e+04
   8.406482e+03  -8.336571e+04
  -6.993772e+04   6.584617e+04
  -9.256643e+04   3.586127e+05
  -1.940250e+05   4.169596e+05
  -3.344291e+05   6.367136e+04
  -3.081634e+05  -4.328761e+05
  -3.667055e+02  -5.937814e+05
   4.082272e+05  -2.336289e+05
   5.382195e+05   3.161838e+05
   1.725392e+05   5.463453e+05
  -4.447813e+05   2.977660e+05
  -7.443104e+05  -1.280913e+05
  -3.936760e+05  -3.547910e+05
   2.761229e+05  -2.966602e+05
   5.598694e+05  -1.198747e+05
   1.721685e+05   3.634288e+03
  -3.833772e+05  -3.347386e+03
  -3.898741e+05  -1.441160e+05
   2.183172e+05  -2.979475e+05
   7.681088e+05  -2.140658e+05
