
 $NMID
 id='ANONYMOUS ', fmtdat='(2E16.6)'
 volume=1.0
 tramp=1.0
 $END
  -4.118060e+07   2.146280e+06
  -2.717718e+07  -2.213704e+07
   2.080035e+06  -2.764877e+07
   1.892282e+07  -1.411701e+07
   1.347596e+07   2.164151e+06
  -8.996297e+05   7.234035e+06
  -7.743530e+06   1.089353e+06
  -3.930344e+06  -6.937670e+06
   3.347479e+06  -8.726802e+06
   7.295614e+06  -3.101541e+06
   5.908375e+06   4.589757e+06
   9.758425e+05   7.117444e+06
  -3.202305e+06   2.075967e+06
  -2.538344e+06  -5.041181e+06
   2.449276e+06  -6.248561e+06
   6.265246e+06   6.865196e+04
   4.309907e+06   7.569473e+06
  -2.027103e+06   9.391795e+06
  -7.363065e+06   4.908983e+06
  -8.024057e+06  -1.407998e+06
  -4.622164e+06  -5.318469e+06
  -4.760310e+05  -5.660277e+06
   1.183358e+06  -3.881142e+06
  -2.692869e+05  -2.518451e+06
  -1.859578e+06  -3.119887e+06
   1.722383e+05  -4.441824e+06
   5.369609e+06  -3.620457e+06
   8.487746e+06   2.179721e+04
   5.630457e+06   3.574138e+06
  -5.200067e+05   3.958932e+06
  -3.812564e+06   1.511323e+06
  -1.945635e+06  -9.874885e+05
   1.757746e+06  -1.576265e+06
   3.307799e+06  -1.563362e+05
   2.099125e+06   2.306511e+06
  -1.167653e+05   3.961139e+06
  -1.724847e+06   2.803678e+06
  -1.871332e+06  -6.699196e+05
  -6.116031e+05  -2.672327e+06
   5.332216e+05  -5.325742e+05
  -2.263572e+05   2.894841e+06
  -2.209744e+06   2.368668e+06
  -2.319781e+06  -2.188361e+06
   8.578603e+05  -4.795619e+06
   4.360527e+06  -1.360942e+06
   3.957843e+06   4.557601e+06
  -6.887839e+05   6.263776e+06
  -5.463080e+06   2.151410e+06
  -6.150769e+06  -3.208435e+06
  -2.325629e+06  -5.050091e+06
   2.733392e+06  -2.873629e+06
   4.972406e+06   6.363302e+05
   2.793785e+06   2.690813e+06
  -1.504923e+06   2.096037e+06
  -3.685462e+06  -2.411079e+05
  -1.902595e+06  -1.893013e+06
   1.203293e+06  -1.196477e+06
   1.746154e+06   7.171888e+05
  -5.370615e+05   1.221732e+06
  -2.159411e+06  -4.067093e+05
  -5.818898e+05  -2.142557e+06
   2.655008e+06  -1.920322e+06
   4.086780e+06   1.692288e+05
   2.242391e+06   2.691530e+06
  -1.439584e+06   4.361533e+06
  -4.512277e+06   4.118026e+06
  -5.303101e+06   1.339536e+06
  -3.601323e+06  -2.775895e+06
  -7.686136e+05  -5.261975e+06
   1.122762e+06  -4.357089e+06
   1.177696e+06  -1.762461e+06
   5.707875e+05  -5.040533e+05
   9.353763e+05  -1.051480e+06
   2.197345e+06  -1.168912e+06
   2.768922e+06   5.015188e+05
   1.651553e+06   2.431742e+06
  -4.494859e+05   2.336262e+06
  -1.984642e+06   7.752418e+04
  -1.827749e+06  -2.334985e+06
   1.081683e+05  -2.927274e+06
   2.648380e+06  -1.323264e+06
   3.822304e+06   1.294413e+06
   2.534921e+06   3.164910e+06
  -4.034150e+04   3.251792e+06
  -1.611272e+06   2.079610e+06
  -1.534976e+06   1.088238e+06
  -1.460808e+06   9.302393e+05
  -2.733956e+06   7.770366e+05
  -4.179196e+06  -4.293220e+05
  -3.481719e+06  -2.479912e+06
  -2.882076e+05  -4.028539e+06
   3.108805e+06  -3.894025e+06
   4.173471e+06  -1.980977e+06
   2.533774e+06   6.415635e+05
  -5.667977e+03   2.267751e+06
  -1.274083e+06   1.768468e+06
  -5.161567e+05  -1.290122e+05
   1.127334e+06  -1.256511e+06
   1.785060e+06  -4.062531e+05
   7.899469e+05   1.099406e+06
  -5.849023e+05   1.116182e+06
  -6.265023e+05  -3.474717e+05
   7.465667e+05  -1.034062e+06
   1.894504e+06   5.221424e+05
   1.360398e+06   2.969136e+06
  -6.729676e+05   3.745380e+06
  -2.808637e+06   1.977952e+06
  -3.697726e+06  -8.789288e+05
  -2.802608e+06  -2.784577e+06
  -6.524297e+05  -2.818804e+06
   1.285712e+06  -1.510233e+06
   1.620268e+06  -1.936338e+05
   4.919470e+05   3.420954e+04
  -3.847204e+05  -7.296594e+05
   2.941433e+05  -1.267381e+06
   1.727320e+06  -6.263791e+05
   1.980706e+06   6.839362e+05
   5.003549e+05   1.293613e+06
  -1.111163e+06   6.473669e+05
  -1.010105e+06  -4.163604e+05
   7.564603e+05  -7.326271e+05
   2.348212e+06   3.359955e+04
   2.061766e+06   1.310650e+06
  -5.573499e+04   2.170390e+06
  -2.289914e+06   1.863847e+06
  -2.788875e+06   3.957022e+05
  -1.236105e+06  -1.156341e+06
   8.140660e+05  -1.412670e+06
   1.414976e+06  -2.128608e+05
   1.654904e+05   9.942024e+05
  -1.458278e+06   7.514512e+05
  -1.747157e+06  -6.666073e+05
  -5.011962e+05  -1.627766e+06
   9.683033e+05  -1.129375e+06
   1.305829e+06   1.308921e+05
   3.788934e+05   7.294879e+05
  -7.210517e+05   1.057166e+05
  -7.325336e+05  -1.003745e+06
   5.626803e+05  -1.407633e+06
   1.990222e+06  -5.507799e+05
   2.029378e+06   1.009430e+06
   4.387588e+05   2.034010e+06
  -1.342341e+06   1.676405e+06
  -1.697361e+06   3.057004e+05
  -5.761033e+05  -8.286821e+05
   6.081452e+05  -8.534111e+05
   6.968462e+05  -8.437440e+04
  -5.706111e+04   4.868531e+05
  -5.881129e+05   3.417227e+05
  -3.187626e+05  -1.063780e+05
   3.576948e+05  -1.123436e+05
   6.027475e+05   5.204196e+05
  -7.171119e+04   1.170824e+06
  -1.317018e+06   9.616173e+05
  -2.087085e+06  -3.345271e+05
  -1.508793e+06  -1.888763e+06
   1.536623e+05  -2.450550e+06
   1.597287e+06  -1.546414e+06
   1.789477e+06   1.458841e+04
   1.015621e+06   9.667056e+05
   3.658659e+05   8.549507e+05
   3.658966e+05   3.286438e+05
   5.070206e+05   2.390375e+05
   9.819098e+04   6.737393e+05
  -8.096506e+05   9.513251e+05
  -1.468985e+06   4.345488e+05
  -1.165412e+06  -7.230984e+05
   1.525788e+05  -1.581119e+06
   1.709765e+06  -1.200237e+06
   2.309607e+06   4.010782e+05
   1.259869e+06   2.051837e+06
  -8.424048e+05   2.393989e+06
  -2.443376e+06   1.180952e+06
  -2.429452e+06  -4.873581e+05
  -1.147837e+06  -1.317843e+06
   1.050486e+05  -1.088215e+06
   4.753399e+05  -6.362655e+05
   2.253102e+05  -7.303630e+05
   1.445807e+05  -1.201468e+06
   6.023337e+05  -1.230967e+06
   1.230993e+06  -3.313241e+05
   1.341855e+06   1.055064e+06
   5.933832e+05   1.888093e+06
  -6.000592e+05   1.454932e+06
  -1.299955e+06   5.323087e+04
  -8.808346e+05  -1.215229e+06
   2.718170e+05  -1.405115e+06
   1.065260e+06  -5.397108e+05
   8.287386e+05   5.274323e+05
   1.336073e+04   1.003712e+06
  -3.877535e+05   8.236109e+05
  -2.474750e+04   4.747200e+05
   4.165135e+05   3.518411e+05
   5.330324e+04   3.929619e+05
  -1.100359e+06   2.606125e+05
  -2.012684e+06  -2.466972e+05
  -1.648566e+06  -9.499688e+05
  -8.372382e+04  -1.382300e+06
   1.465235e+06  -1.163625e+06
   1.796599e+06  -3.873687e+05
   8.845329e+05   3.684529e+05
  -2.008053e+05   5.298631e+05
  -4.858385e+05   9.251876e+04
  -1.335167e+04  -3.554311e+05
   4.699370e+05  -2.488487e+05
   4.783135e+05   3.317627e+05
   1.930345e+05   7.348246e+05
   3.532528e+04   4.779326e+05
   1.477309e+05  -1.510922e+05
   3.362763e+05  -3.621590e+05
   2.970667e+05   2.178744e+05
  -1.563604e+05   1.015567e+06
  -8.686165e+05   1.076891e+06
  -1.266366e+06   1.659428e+05
  -7.871747e+05  -8.911976e+05
   3.820340e+05  -1.080848e+06
   1.195245e+06  -3.001791e+05
   7.364634e+05   5.798400e+05
  -6.693636e+05   6.852969e+05
  -1.633657e+06  -1.554933e+04
  -1.134487e+06  -8.284670e+05
   3.914194e+05  -1.074288e+06
   1.522093e+06  -6.244077e+05
   1.316812e+06   1.096692e+05
   1.857400e+05   5.343955e+05
  -6.400148e+05   3.240855e+05
  -3.717496e+05  -2.604772e+05
   6.066252e+05  -5.013923e+05
   1.180281e+06   1.058006e+05
   6.360989e+05   1.194251e+06
  -6.271862e+05   1.693959e+06
  -1.506062e+06   8.755526e+05
  -1.278217e+06  -7.611839e+05
  -2.349666e+05  -1.819687e+06
   7.223504e+05  -1.362792e+06
   9.565406e+05   1.134846e+05
   5.111736e+05   1.192854e+06
  -1.435290e+05   1.023818e+06
  -5.511153e+05   1.249627e+05
  -5.219878e+05  -3.845663e+05
  -2.142010e+05  -1.545264e+05
  -3.033725e+04   1.139025e+05
  -2.260057e+05  -2.536302e+05
  -5.146560e+05  -9.492070e+05
  -2.739561e+05  -1.102499e+06
   6.503814e+05  -4.329349e+05
   1.512737e+06   4.383310e+05
   1.367748e+06   8.214897e+05
   2.111287e+05   6.919055e+05
  -8.981906e+05   4.346307e+05
  -1.010147e+06   2.231075e+05
  -3.309730e+05  -1.471462e+04
   1.590351e+05  -2.252158e+05
  -1.829137e+04  -2.396940e+05
  -3.223344e+05  -1.248916e+05
  -3.227823e+04  -1.346239e+05
   7.201711e+05  -2.260114e+05
   1.048904e+06   5.183581e+03
   3.728893e+05   6.729233e+05
  -8.733195e+05   1.169230e+06
  -1.660150e+06   7.631419e+05
  -1.364494e+06  -4.299479e+05
  -2.847553e+05  -1.421101e+06
   7.301659e+05  -1.388281e+06
   1.043618e+06  -5.293188e+05
   6.709200e+05   2.508592e+05
   1.201217e+05   3.557461e+05
  -1.112112e+05   3.335202e+04
   6.856109e+04  -5.523260e+04
   3.364399e+05   3.519963e+05
   2.867765e+05   8.126677e+05
  -1.760365e+05   6.773659e+05
  -6.962439e+05  -1.425735e+05
  -7.326138e+05  -9.744797e+05
  -8.505285e+04  -1.027388e+06
   7.786086e+05  -2.166002e+05
   1.039027e+06   7.466486e+05
   3.433963e+05   1.086196e+06
  -7.093495e+05   6.627990e+05
  -1.105435e+06  -6.333021e+04
  -5.257210e+05  -5.722738e+05
   2.677642e+05  -6.481530e+05
   3.360435e+05  -3.731366e+05
  -2.895059e+05  -2.487510e+04
  -6.646669e+05   4.495914e+04
  -1.407164e+05  -2.981094e+05
   8.196429e+05  -7.075433e+05
   1.227582e+06  -6.058425e+05
   7.351068e+05   1.263243e+05
  -8.127371e+04   8.621494e+05
  -5.016907e+05   8.621483e+05
  -3.818548e+05   1.469375e+05
  -4.045151e+04  -4.966580e+05
   2.375888e+05  -4.210981e+05
   3.563752e+05   1.776224e+05
   2.622109e+05   5.779069e+05
  -5.043366e+04   3.978213e+05
  -3.919100e+05  -5.272444e+04
  -4.756854e+05  -2.466450e+05
  -2.487719e+05  -6.967062e+04
   2.270959e+04   1.202542e+05
   9.048814e+04  -1.672122e+04
   3.348640e+04  -3.737364e+05
   1.055003e+05  -5.081116e+05
   3.323504e+05  -1.586554e+05
   4.172323e+05   4.103587e+05
   1.070465e+05   6.483302e+05
  -4.214507e+05   3.057083e+05
  -6.490917e+05  -2.892512e+05
  -2.476960e+05  -5.854302e+05
   4.930520e+05  -3.749399e+05
   8.686620e+05   7.169694e+04
   4.801493e+05   3.707668e+05
  -2.849822e+05   3.830654e+05
  -6.264735e+05   2.115727e+05
  -2.238652e+05   2.120481e+04
   3.830694e+05  -4.301249e+04
   4.228872e+05   9.710067e+04
  -1.979781e+05   3.168648e+05
  -7.957242e+05   2.813391e+05
