
 $NMID
 id='ANONYMOUS ', fmtdat='(2E16.6)'
 volume=1.0
 tramp=1.0
 $END
   5.743543e+07   1.176740e+06
   3.368507e+07   3.647521e+07
  -8.584248e+06   3.874556e+07
  -2.848271e+07   1.411796e+07
  -1.651783e+07  -7.711787e+06
   3.680382e+06  -9.403532e+06
   9.929150e+06   1.604908e+06
   2.477480e+06   1.001278e+07
  -6.580088e+06   9.219385e+06
  -9.835694e+06   1.713061e+06
  -6.950676e+06  -6.428509e+06
  -6.600357e+05  -8.700524e+06
   4.087523e+06  -2.729224e+06
   2.542844e+06   5.480158e+06
  -3.966889e+06   6.465831e+06
  -7.947873e+06  -1.582492e+06
  -4.255223e+06  -1.046316e+07
   4.121011e+06  -1.188636e+07
   1.040186e+07  -5.798410e+06
   1.097998e+07   2.277652e+06
   6.655756e+06   7.763891e+06
   5.641221e+05   8.903460e+06
  -3.170796e+06   6.176731e+06
  -2.095895e+06   2.648947e+06
   1.003418e+06   2.052484e+06
   2.436677e+05   4.127725e+06
  -5.435490e+06   4.372213e+06
  -9.726655e+06   4.057594e+05
  -7.079924e+06  -4.264391e+06
  -2.500102e+05  -5.150968e+06
   3.730237e+06  -2.614200e+06
   2.523122e+06  -7.641162e+04
  -4.940405e+05   8.759698e+05
  -2.175883e+06   5.035036e+05
  -2.184742e+06  -1.367016e+06
  -7.201863e+05  -3.923278e+06
   1.859829e+06  -3.910305e+06
   3.351326e+06   1.038238e+05
   1.750637e+06   3.741947e+06
  -8.350099e+05   2.035941e+06
  -3.688952e+05  -2.412469e+06
   2.500952e+06  -2.250332e+06
   2.392601e+06   3.307681e+06
  -2.662215e+06   6.177910e+06
  -7.167424e+06   8.541032e+05
  -5.080669e+06  -7.196358e+06
   2.159344e+06  -8.656962e+06
   7.609369e+06  -2.306396e+06
   6.916120e+06   4.651117e+06
   1.695965e+06   6.117921e+06
  -3.568140e+06   2.627237e+06
  -5.233351e+06  -1.682814e+06
  -2.322338e+06  -3.579785e+06
   2.523253e+06  -2.153373e+06
   4.565437e+06   1.056111e+06
   1.898762e+06   2.813961e+06
  -1.779129e+06   1.350536e+06
  -1.714861e+06  -1.077320e+06
   1.399181e+06  -8.623628e+05
   2.460236e+06   1.906436e+06
  -7.805066e+05   3.524869e+06
  -4.812407e+06   1.810419e+06
  -5.359871e+06  -1.543047e+06
  -2.246797e+06  -4.110082e+06
   1.912862e+06  -5.296854e+06
   5.110710e+06  -4.814296e+06
   6.280372e+06  -1.680576e+06
   4.605852e+06   3.254914e+06
   8.604123e+05   6.248516e+06
  -1.995185e+06   4.759624e+06
  -1.824988e+06   1.139736e+06
  -1.188900e+05  -3.175759e+05
   1.005441e+05   9.799539e+05
  -1.579323e+06   1.824901e+06
  -2.825261e+06   2.660870e+05
  -2.039166e+06  -1.917704e+06
  -3.996091e+04  -2.134588e+06
   1.521001e+06  -1.995948e+05
   1.639740e+06   2.077683e+06
  -2.834095e+04   2.938757e+06
  -2.803196e+06   1.644372e+06
  -4.511107e+06  -1.248967e+06
  -3.222536e+06  -3.860376e+06
   1.039333e+05  -4.311067e+06
   2.377926e+06  -2.735759e+06
   2.311673e+06  -1.104583e+06
   1.876829e+06  -6.311872e+05
   2.971311e+06  -4.065587e+05
   4.358862e+06   8.617084e+05
   3.449255e+06   2.853904e+06
   4.998450e+04   4.149627e+06
  -3.287104e+06   3.862610e+06
  -4.221337e+06   2.077102e+06
  -2.672956e+06  -4.421422e+05
  -2.708098e+05  -2.246350e+06
   1.117979e+06  -1.942754e+06
   5.708153e+05   3.552081e+04
  -1.110011e+06   1.304418e+06
  -1.934951e+06   3.692625e+05
  -9.204320e+05  -1.237060e+06
   5.307338e+05  -1.111779e+06
   4.030941e+05   4.023964e+05
  -1.115539e+06   6.462911e+05
  -1.837069e+06  -1.404716e+06
  -5.129934e+05  -3.563529e+06
   1.751448e+06  -3.358480e+06
   3.203573e+06  -9.696112e+05
   3.252473e+06   1.565775e+06
   2.179485e+06   2.804820e+06
   3.905182e+05   2.605162e+06
  -1.265724e+06   1.446674e+06
  -1.585791e+06   2.082101e+05
  -4.953391e+05  -5.561176e+04
   3.448536e+05   7.662429e+05
  -4.544277e+05   1.353136e+06
  -1.954320e+06   5.445747e+05
  -2.040403e+06  -9.553311e+05
  -3.483112e+05  -1.450266e+06
   1.199191e+06  -5.451132e+05
   8.711119e+05   4.798362e+05
  -8.776426e+05   4.795998e+05
  -2.167319e+06  -4.004914e+05
  -1.688228e+06  -1.402645e+06
   3.117852e+05  -1.952032e+06
   2.355808e+06  -1.597015e+06
   2.796976e+06  -2.113887e+05
   1.202811e+06   1.311725e+06
  -9.668406e+05   1.512089e+06
  -1.597319e+06   1.621063e+05
  -1.903250e+05  -1.105899e+06
   1.550660e+06  -7.159573e+05
   1.715435e+06   8.352293e+05
   2.861713e+05   1.676187e+06
  -1.137978e+06   9.417778e+05
  -1.254901e+06  -3.660218e+05
  -2.122431e+05  -8.014466e+05
   8.175951e+05  -3.354407e+04
   7.273731e+05   1.083561e+06
  -6.059838e+05   1.431407e+06
  -2.037970e+06   5.150474e+05
  -2.039195e+06  -1.098708e+06
  -3.449944e+05  -2.107135e+06
   1.496739e+06  -1.629076e+06
   1.750684e+06  -1.672219e+05
   4.793907e+05   8.921804e+05
  -6.870895e+05   7.910966e+05
  -6.294163e+05   6.538109e+04
   1.365583e+05  -3.398769e+05
   4.824444e+05  -1.790718e+05
   8.825072e+04   6.092142e+04
  -4.666870e+05  -1.180558e+05
  -4.961829e+05  -7.131057e+05
   2.518453e+05  -1.197015e+06
   1.420896e+06  -8.691932e+05
   2.093018e+06   4.652898e+05
   1.440010e+06   1.994118e+06
  -2.677254e+05   2.433978e+06
  -1.654719e+06   1.375185e+06
  -1.684099e+06  -1.741981e+05
  -8.221676e+05  -9.049035e+05
  -3.011496e+05  -6.258468e+05
  -4.979919e+05  -2.091928e+05
  -6.490813e+05  -3.393726e+05
  -7.830451e+04  -7.887237e+05
   9.103226e+05  -8.855008e+05
   1.461972e+06  -2.842133e+05
   1.025673e+06   7.448854e+05
  -2.934688e+05   1.445591e+06
  -1.755910e+06   1.030807e+06
  -2.248415e+06  -5.382444e+05
  -1.086945e+06  -2.145285e+06
   1.087229e+06  -2.365330e+06
   2.599632e+06  -9.722651e+05
   2.346100e+06   7.345081e+05
   9.068176e+05   1.369203e+06
  -2.417072e+05   9.235689e+05
  -3.840735e+05   4.848675e+05
  -6.255208e+04   7.631952e+05
  -1.162705e+05   1.336974e+06
  -7.087287e+05   1.300665e+06
  -1.321849e+06   2.997414e+05
  -1.332916e+06  -1.114374e+06
  -5.269979e+05  -1.920742e+06
   6.525544e+05  -1.437469e+06
   1.294082e+06   3.221914e+04
   7.866853e+05   1.320276e+06
  -4.382610e+05   1.400596e+06
  -1.198002e+06   3.649828e+05
  -8.040389e+05  -7.492083e+05
   1.675101e+05  -1.097237e+06
   5.824849e+05  -7.725015e+05
   1.040129e+05  -4.064904e+05
  -4.360427e+05  -3.414931e+05
  -5.656578e+04  -3.855894e+05
   1.171748e+06  -1.850199e+05
   2.087092e+06   3.823311e+05
   1.610314e+06   1.086945e+06
  -8.409761e+04   1.458110e+06
  -1.645628e+06   1.123551e+06
  -1.859196e+06   2.309683e+05
  -8.231901e+05  -5.371495e+05
   2.842150e+05  -5.788573e+05
   5.222452e+05  -1.420440e+04
   2.925754e+04   4.397935e+05
  -4.440519e+05   2.575208e+05
  -4.826430e+05  -3.532963e+05
  -2.614674e+05  -7.298675e+05
  -1.057145e+05  -4.850378e+05
  -1.373165e+05   8.043330e+04
  -2.718365e+05   2.747837e+05
  -2.698135e+05  -2.414621e+05
   1.507036e+05  -9.867185e+05
   9.276524e+05  -1.062878e+06
   1.400814e+06  -1.640259e+05
   8.667578e+05   9.383387e+05
  -4.398768e+05   1.160885e+06
  -1.289649e+06   3.373884e+05
  -7.341755e+05  -5.842282e+05
   7.251440e+05  -6.367311e+05
   1.590055e+06   1.375073e+05
   9.695093e+05   8.933324e+05
  -5.267195e+05   9.691343e+05
  -1.512521e+06   4.240972e+05
  -1.218748e+06  -2.308775e+05
  -1.144092e+05  -5.149600e+05
   6.621687e+05  -2.482988e+05
   3.894896e+05   3.113717e+05
  -5.885375e+05   5.300169e+05
  -1.196540e+06  -8.186429e+04
  -6.833006e+05  -1.194174e+06
   5.933164e+05  -1.722036e+06
   1.498283e+06  -8.917079e+05
   1.258976e+06   7.721892e+05
   1.828270e+05   1.804626e+06
  -7.647674e+05   1.280148e+06
  -9.242105e+05  -2.091886e+05
  -3.977469e+05  -1.209914e+06
   2.596335e+05  -9.585382e+05
   5.746969e+05  -6.514271e+04
   4.465417e+05   3.825415e+05
   1.431702e+05   1.333343e+05
   5.780248e+04  -8.855660e+04
   3.059036e+05   3.179574e+05
   5.102206e+05   9.888102e+05
   1.516427e+05   1.083939e+06
  -7.549125e+05   3.809227e+05
  -1.476266e+06  -4.891907e+05
  -1.254337e+06  -8.607134e+05
  -1.731435e+05  -7.121675e+05
   8.445629e+05  -4.154160e+05
   9.862301e+05  -1.623120e+05
   3.811742e+05   7.317309e+04
  -1.409913e+05   2.288219e+05
  -6.476806e+04   1.910372e+05
   2.380654e+05   8.060524e+04
   6.136894e+04   1.340015e+05
  -6.393223e+05   2.452633e+05
  -1.061673e+06  -1.255861e+04
  -4.752575e+05  -7.115046e+05
   8.327140e+05  -1.203160e+06
   1.746453e+06  -7.712951e+05
   1.462529e+06   4.321498e+05
   2.797977e+05   1.418561e+06
  -7.953180e+05   1.394249e+06
  -1.067115e+06   5.578122e+05
  -6.573686e+05  -2.213605e+05
  -1.465520e+05  -3.647783e+05
   4.494932e+04  -8.767804e+04
  -9.119837e+04  -6.364997e+03
  -2.850553e+05  -3.829340e+05
  -2.306072e+05  -8.182595e+05
   1.794243e+05  -6.930824e+05
   6.829516e+05   1.031406e+05
   7.636607e+05   9.447530e+05
   1.491184e+05   1.049565e+06
  -7.440928e+05   2.812238e+05
  -1.056439e+06  -7.029021e+05
  -3.701539e+05  -1.106340e+06
   7.197889e+05  -7.078471e+05
   1.148240e+06   7.104999e+04
   5.529824e+05   6.457462e+05
  -2.971859e+05   7.153582e+05
  -4.134246e+05   3.760846e+05
   2.201076e+05  -3.712459e+03
   6.491743e+05  -4.285358e+04
   1.575189e+05   3.187538e+05
  -8.373983e+05   6.786995e+05
  -1.301091e+06   5.157340e+05
  -7.999020e+05  -2.090480e+05
   9.859666e+04  -8.915209e+05
   5.899513e+05  -8.750995e+05
   4.639851e+05  -1.833843e+05
   7.065669e+04   4.726284e+05
  -2.380562e+05   4.574876e+05
  -3.556456e+05  -1.209100e+05
  -2.603737e+05  -5.836941e+05
   4.791690e+04  -4.590253e+05
   3.974237e+05   3.316939e+04
   4.895352e+05   3.057925e+05
   2.443316e+05   1.163279e+05
  -4.788951e+04  -1.756879e+05
  -8.137702e+04  -9.152750e+04
   5.347042e+04   3.409666e+05
   5.145294e+03   5.921665e+05
  -3.072199e+05   2.758851e+05
  -5.047751e+05  -3.508043e+05
  -2.114693e+05  -6.536240e+05
   3.986991e+05  -3.338630e+05
   6.934751e+05   2.638762e+05
   2.730483e+05   5.689199e+05
  -5.229389e+05   3.737659e+05
  -9.119617e+05  -6.364520e+04
  -4.939462e+05  -3.818453e+05
   2.984308e+05  -4.280941e+05
   6.564423e+05  -2.588276e+05
   2.779058e+05  -2.230484e+04
  -3.176167e+05   9.618492e+04
  -4.009651e+05  -2.871171e+04
   1.408041e+05  -2.755165e+05
   7.059622e+05  -2.791024e+05
