
 $NMID
 id='ANONYMOUS ', fmtdat='(2E16.6)'
 volume=1.0
 tramp=1.0
 $END
   4.418802e+07   5.338181e+05
   2.711906e+07   2.584637e+07
  -4.554841e+06   2.933270e+07
  -2.110478e+07   1.325695e+07
  -1.379452e+07  -3.586611e+06
   1.662783e+06  -7.495713e+06
   8.090505e+06  -3.603990e+05
   3.409434e+06   7.554963e+06
  -4.178719e+06   8.684693e+06
  -7.822485e+06   2.592066e+06
  -5.922176e+06  -5.191569e+06
  -6.312292e+05  -7.498413e+06
   3.495186e+06  -2.054022e+06
   2.401354e+06   5.291804e+06
  -2.927841e+06   6.244780e+06
  -6.542866e+06  -5.789087e+05
  -3.984276e+06  -8.267466e+06
   2.804889e+06  -9.752619e+06
   8.148679e+06  -4.726654e+06
   8.508647e+06   1.984937e+06
   4.690797e+06   6.034741e+06
   1.305671e+05   6.249316e+06
  -1.739090e+06   4.129062e+06
  -1.393087e+05   2.464074e+06
   1.741790e+06   3.051366e+06
  -2.451409e+05   4.512185e+06
  -5.654796e+06   3.622969e+06
  -8.863279e+06  -3.108517e+05
  -5.793228e+06  -4.011338e+06
   6.230629e+05  -4.232843e+06
   3.994319e+06  -1.573999e+06
   2.094311e+06   9.587663e+05
  -1.632468e+06   1.527705e+06
  -3.246825e+06   1.649771e+05
  -2.135088e+06  -2.297330e+06
   1.283526e+05  -4.082840e+06
   1.932592e+06  -2.952809e+06
   2.125100e+06   7.499200e+05
   6.337184e+05   2.961078e+06
  -6.894824e+05   7.170083e+05
   2.155200e+05  -2.916709e+06
   2.367235e+06  -2.315059e+06
   2.243735e+06   2.468684e+06
  -1.361182e+06   4.957892e+06
  -4.857317e+06   1.017572e+06
  -3.898389e+06  -5.213421e+06
   1.247909e+06  -6.623025e+06
   5.956096e+06  -1.918712e+06
   6.201765e+06   3.720747e+06
   2.063300e+06   5.345427e+06
  -2.986285e+06   2.763747e+06
  -5.033666e+06  -9.713094e+05
  -2.649459e+06  -2.933506e+06
   1.749003e+06  -2.039356e+06
   3.830094e+06   5.297301e+05
   1.827165e+06   2.121040e+06
  -1.356440e+06   1.169848e+06
  -1.734307e+06  -8.370677e+05
   6.873767e+05  -1.130170e+06
   2.147372e+06   7.106790e+05
   2.560517e+05   2.320053e+06
  -3.066647e+06   1.736333e+06
  -4.266022e+06  -5.678392e+05
  -2.122789e+06  -3.017992e+06
   1.729846e+06  -4.511076e+06
   4.864137e+06  -4.123000e+06
   5.614526e+06  -1.188321e+06
   3.700134e+06   3.075202e+06
   5.711128e+05   5.540374e+06
  -1.430833e+06   4.418954e+06
  -1.312566e+06   1.639066e+06
  -4.889966e+05   4.097663e+05
  -8.425936e+05   1.094050e+06
  -2.235425e+06   1.248628e+06
  -2.863915e+06  -4.999278e+05
  -1.690233e+06  -2.488683e+06
   4.563982e+05  -2.370997e+06
   1.972154e+06  -5.718550e+04
   1.778847e+06   2.398122e+06
  -1.955657e+05   2.991926e+06
  -2.787458e+06   1.300651e+06
  -3.959571e+06  -1.478998e+06
  -2.542004e+06  -3.449673e+06
   2.153842e+05  -3.462635e+06
   1.856094e+06  -2.119237e+06
   1.711151e+06  -1.020373e+06
   1.562778e+06  -8.381153e+05
   2.829801e+06  -6.403581e+05
   4.255493e+06   6.440123e+05
   3.450316e+06   2.695750e+06
   1.237122e+05   4.127476e+06
  -3.324841e+06   3.862304e+06
  -4.339107e+06   1.898529e+06
  -2.597287e+06  -7.180904e+05
   4.032902e+04  -2.328730e+06
   1.346810e+06  -1.797264e+06
   5.351389e+05   1.391231e+05
  -1.192995e+06   1.253879e+06
  -1.854663e+06   3.425096e+05
  -7.806263e+05  -1.174944e+06
   6.261056e+05  -1.122457e+06
   5.940089e+05   3.709334e+05
  -8.258626e+05   9.569833e+05
  -1.860290e+06  -7.144360e+05
  -1.142046e+06  -3.111059e+06
   9.361937e+05  -3.688492e+06
   2.930168e+06  -1.767146e+06
   3.647615e+06   1.086912e+06
   2.684886e+06   2.901989e+06
   5.509395e+05   2.855802e+06
  -1.355617e+06   1.493345e+06
  -1.656939e+06   1.492981e+05
  -5.004441e+05  -5.389940e+04
   3.613970e+05   7.607581e+05
  -3.691505e+05   1.287601e+06
  -1.811510e+06   5.589087e+05
  -1.993104e+06  -8.043802e+05
  -4.381371e+05  -1.350445e+06
   1.162902e+06  -6.051375e+05
   9.951082e+05   4.598889e+05
  -7.996284e+05   6.822566e+05
  -2.352208e+06  -1.512215e+05
  -2.006625e+06  -1.397522e+06
   1.506119e+05  -2.170470e+06
   2.393525e+06  -1.788669e+06
   2.851821e+06  -2.875810e+05
   1.211164e+06   1.240640e+06
  -9.042684e+05   1.421090e+06
  -1.474153e+06   1.537290e+05
  -1.333168e+05  -1.037641e+06
   1.524838e+06  -7.096024e+05
   1.748629e+06   7.594254e+05
   4.260892e+05   1.673158e+06
  -1.038685e+06   1.085895e+06
  -1.308721e+06  -2.063199e+05
  -3.353533e+05  -7.580011e+05
   7.499180e+05  -6.859013e+04
   7.105612e+05   1.060591e+06
  -6.281866e+05   1.420949e+06
  -2.055850e+06   4.904231e+05
  -2.036566e+06  -1.110006e+06
  -3.648961e+05  -2.096630e+06
   1.444147e+06  -1.653181e+06
   1.742682e+06  -2.347806e+05
   5.438941e+05   8.682212e+05
  -6.565901e+05   8.382865e+05
  -7.038333e+05   6.417319e+04
   7.741412e+04  -4.708755e+05
   5.885496e+05  -3.133023e+05
   2.929626e+05   1.001045e+05
  -3.713718e+05   6.551589e+04
  -5.736267e+05  -5.717204e+05
   1.373730e+05  -1.187379e+06
   1.385693e+06  -9.212078e+05
   2.114668e+06   4.277524e+05
   1.464583e+06   1.988933e+06
  -2.511706e+05   2.489215e+06
  -1.679736e+06   1.500567e+06
  -1.803433e+06  -8.900950e+04
  -9.825208e+05  -1.000366e+06
  -3.499951e+05  -8.491516e+05
  -3.884161e+05  -3.381256e+05
  -5.246267e+05  -2.824809e+05
  -6.971894e+04  -7.063706e+05
   8.678074e+05  -9.311224e+05
   1.505298e+06  -3.763854e+05
   1.146862e+06   7.712135e+05
  -2.186405e+05   1.583554e+06
  -1.782236e+06   1.144885e+06
  -2.330128e+06  -4.999629e+05
  -1.191107e+06  -2.140053e+06
   9.706562e+05  -2.400359e+06
   2.544079e+06  -1.089186e+06
   2.440045e+06   6.063111e+05
   1.093058e+06   1.376800e+06
  -1.524071e+05   1.077396e+06
  -4.848227e+05   6.184856e+05
  -2.328132e+05   7.524068e+05
  -1.901339e+05   1.242941e+06
  -6.737780e+05   1.241522e+06
  -1.278962e+06   2.890623e+05
  -1.331839e+06  -1.128850e+06
  -5.338262e+05  -1.948538e+06
   6.663969e+05  -1.461196e+06
   1.323904e+06  -5.483387e+02
   8.412913e+05   1.279257e+06
  -3.461711e+05   1.416448e+06
  -1.114398e+06   4.848750e+05
  -8.136461e+05  -5.952519e+05
   4.937238e+04  -1.028696e+06
   4.472267e+05  -8.107042e+05
   4.798728e+04  -4.699952e+05
  -4.175077e+05  -3.723046e+05
  -4.281174e+04  -4.022316e+05
   1.138130e+06  -2.162611e+05
   2.050849e+06   3.399866e+05
   1.640236e+06   1.040680e+06
   1.295965e+04   1.416026e+06
  -1.557376e+06   1.125549e+06
  -1.847575e+06   3.120628e+05
  -8.734785e+05  -4.252894e+05
   2.366160e+05  -5.370027e+05
   4.999921e+05  -6.584479e+04
  -6.011055e+01   3.761460e+05
  -4.845951e+05   2.417239e+05
  -4.772225e+05  -3.573767e+05
  -1.834999e+05  -7.597066e+05
  -3.021468e+04  -4.941123e+05
  -1.503254e+05   1.402925e+05
  -3.413568e+05   3.504531e+05
  -2.915891e+05  -2.339376e+05
   1.898281e+05  -1.028714e+06
   9.295562e+05  -1.066935e+06
   1.317883e+06  -1.210691e+05
   7.840148e+05   9.467099e+05
  -4.376074e+05   1.099808e+06
  -1.245816e+06   2.681939e+05
  -7.329541e+05  -6.163681e+05
   7.108353e+05  -6.684267e+05
   1.655073e+06   8.321723e+04
   1.105214e+06   8.826562e+05
  -4.475494e+05   1.062321e+06
  -1.562259e+06   5.610297e+05
  -1.320901e+06  -1.661140e+05
  -1.634856e+05  -5.451142e+05
   6.631146e+05  -2.983904e+05
   3.709635e+05   2.862924e+05
  -6.348599e+05   4.976118e+05
  -1.205741e+06  -1.436761e+05
  -6.178503e+05  -1.242864e+06
   6.918965e+05  -1.715699e+06
   1.566114e+06  -8.484197e+05
   1.277598e+06   8.190179e+05
   1.748719e+05   1.861005e+06
  -7.830560e+05   1.354589e+06
  -9.634827e+05  -1.584453e+05
  -4.667087e+05  -1.230990e+06
   1.924610e+05  -1.025498e+06
   5.670488e+05  -1.001275e+05
   5.102177e+05   4.052160e+05
   2.048929e+05   1.578897e+05
   3.713967e+04  -1.102141e+05
   2.304244e+05   2.798495e+05
   4.922081e+05   9.914055e+05
   2.279366e+05   1.125463e+06
  -6.901383e+05   4.080832e+05
  -1.522891e+06  -5.015869e+05
  -1.352260e+06  -8.823523e+05
  -1.869154e+05  -7.142468e+05
   9.226576e+05  -4.152334e+05
   1.032156e+06  -1.880677e+05
   3.414655e+05   3.669230e+04
  -1.673102e+05   2.263427e+05
   1.929151e+03   2.339037e+05
   3.157654e+05   1.270791e+05
   3.280531e+04   1.401365e+05
  -7.324712e+05   2.148461e+05
  -1.072558e+06  -4.084888e+04
  -3.715434e+05  -7.103893e+05
   9.257242e+05  -1.173055e+06
   1.732786e+06  -7.223655e+05
   1.393511e+06   4.887178e+05
   2.445407e+05   1.459945e+06
  -7.999877e+05   1.391714e+06
  -1.087878e+06   5.098010e+05
  -6.769276e+05  -2.729326e+05
  -1.144791e+05  -3.700086e+05
   1.082921e+05  -4.183125e+04
  -7.162988e+04   4.425520e+04
  -3.233309e+05  -3.719297e+05
  -2.584279e+05  -8.370088e+05
   2.030294e+05  -6.881838e+05
   7.068166e+05   1.617968e+05
   7.228381e+05   1.016401e+06
   6.159287e+04   1.058672e+06
  -8.008328e+05   2.071595e+05
  -1.041984e+06  -7.907800e+05
  -3.184403e+05  -1.124724e+06
   7.497573e+05  -6.599209e+05
   1.132643e+06   1.037036e+05
   5.183722e+05   6.133509e+05
  -3.022271e+05   6.613186e+05
  -3.664190e+05   3.664512e+05
   2.865795e+05   2.682418e+04
   6.779964e+05  -2.510613e+04
   1.353910e+05   3.128347e+05
  -8.608323e+05   6.911738e+05
  -1.278733e+06   5.624290e+05
  -7.513416e+05  -1.679502e+05
   1.148347e+05  -8.811046e+05
   5.533476e+05  -8.613723e+05
   4.083579e+05  -1.384590e+05
   3.093808e+04   5.067924e+05
  -2.582578e+05   4.275762e+05
  -3.612650e+05  -1.847889e+05
  -2.486288e+05  -5.993891e+05
   6.731087e+04  -4.134905e+05
   4.004143e+05   6.400654e+04
   4.765926e+05   2.763605e+05
   2.486403e+05   8.551867e+04
  -1.984382e+04  -1.327964e+05
  -8.572823e+04  -6.725183e+02
  -3.212469e+04   3.807498e+05
  -1.130406e+05   5.335108e+05
  -3.473955e+05   1.693187e+05
  -4.285754e+05  -4.288920e+05
  -1.029693e+05  -6.720682e+05
   4.385939e+05  -3.039071e+05
   6.613153e+05   3.151430e+05
   2.386450e+05   6.049507e+05
  -5.198104e+05   3.652750e+05
  -8.914646e+05  -1.024252e+05
  -4.797943e+05  -3.964624e+05
   3.077725e+05  -3.876849e+05
   6.534614e+05  -2.009454e+05
   2.370067e+05  -1.165473e+04
  -3.862673e+05   4.267845e+04
  -4.293923e+05  -1.019149e+05
   2.020567e+05  -3.145048e+05
   8.089043e+05  -2.662998e+05
