
 $NMID
 id='ANONYMOUS ', fmtdat='(2E16.6)'
 volume=1.0
 tramp=1.0
 $END
   4.315968e+07   1.652778e+04
   2.685114e+07   2.515610e+07
  -4.212597e+06   2.887063e+07
  -2.067661e+07   1.307010e+07
  -1.359723e+07  -3.593355e+06
   1.640638e+06  -7.402283e+06
   7.975249e+06  -2.944012e+05
   3.315027e+06   7.454749e+06
  -4.158616e+06   8.470385e+06
  -7.678013e+06   2.508127e+06
  -5.780533e+06  -5.019099e+06
  -6.376469e+05  -7.258401e+06
   3.356253e+06  -2.024494e+06
   2.293938e+06   5.086441e+06
  -2.885614e+06   6.042266e+06
  -6.407209e+06  -5.664936e+05
  -3.917898e+06  -8.056763e+06
   2.692850e+06  -9.532824e+06
   7.904505e+06  -4.680255e+06
   8.306283e+06   1.821480e+06
   4.679066e+06   5.796680e+06
   2.703974e+05   6.120912e+06
  -1.654778e+06   4.150219e+06
  -2.501789e+05   2.483208e+06
   1.553668e+06   2.916605e+06
  -2.508537e+05   4.272692e+06
  -5.382007e+06   3.475189e+06
  -8.502551e+06  -2.511354e+05
  -5.621894e+06  -3.814887e+06
   5.147015e+05  -4.057609e+06
   3.761069e+06  -1.534479e+06
   1.968477e+06   8.441267e+05
  -1.542495e+06   1.352802e+06
  -3.030396e+06   1.006490e+05
  -1.984652e+06  -2.155083e+06
   1.027851e+05  -3.854659e+06
   1.808202e+06  -2.872310e+06
   2.068094e+06   6.215786e+05
   7.025422e+05   2.823177e+06
  -5.977676e+05   7.693677e+05
   2.156417e+05  -2.731331e+06
   2.291885e+06  -2.210619e+06
   2.194518e+06   2.417911e+06
  -1.336202e+06   4.890337e+06
  -4.805038e+06   1.072834e+06
  -3.892222e+06  -5.064908e+06
   1.166841e+06  -6.512241e+06
   5.792679e+06  -1.925822e+06
   6.019785e+06   3.610895e+06
   1.973014e+06   5.199521e+06
  -2.917736e+06   2.658870e+06
  -4.871504e+06  -9.864852e+05
  -2.542156e+06  -2.881253e+06
   1.725257e+06  -1.996542e+06
   3.741118e+06   5.158161e+05
   1.784227e+06   2.078455e+06
  -1.320277e+06   1.149045e+06
  -1.670486e+06  -8.260932e+05
   7.213805e+05  -1.104521e+06
   2.140883e+06   7.441460e+05
   2.416274e+05   2.354441e+06
  -3.045874e+06   1.752440e+06
  -4.205340e+06  -5.605210e+05
  -2.088765e+06  -2.960047e+06
   1.646528e+06  -4.371161e+06
   4.657538e+06  -3.981552e+06
   5.397849e+06  -1.177442e+06
   3.594052e+06   2.924756e+06
   5.768435e+05   5.337722e+06
  -1.407160e+06   4.280022e+06
  -1.324714e+06   1.564211e+06
  -4.905080e+05   3.265177e+05
  -7.642374e+05   9.838066e+05
  -2.077305e+06   1.181794e+06
  -2.696239e+06  -4.507765e+05
  -1.595315e+06  -2.340170e+06
   4.336144e+05  -2.227847e+06
   1.855732e+06  -2.758449e+04
   1.666348e+06   2.296315e+06
  -1.956376e+05   2.853748e+06
  -2.659285e+06   1.253590e+06
  -3.806587e+06  -1.392401e+06
  -2.482205e+06  -3.304197e+06
   1.689448e+05  -3.360876e+06
   1.785006e+06  -2.087611e+06
   1.675524e+06  -1.008452e+06
   1.532171e+06  -8.011141e+05
   2.736846e+06  -5.938041e+05
   4.093579e+06   6.455038e+05
   3.302091e+06   2.610234e+06
   9.475042e+04   3.961780e+06
  -3.203629e+06   3.682673e+06
  -4.150950e+06   1.801467e+06
  -2.474285e+06  -6.807220e+05
   3.677439e+04  -2.209019e+06
   1.278039e+06  -1.711213e+06
   5.083527e+05   1.278647e+05
  -1.141853e+06   1.193920e+06
  -1.782337e+06   3.251142e+05
  -7.539901e+05  -1.125605e+06
   6.006392e+05  -1.066543e+06
   5.579842e+05   3.711523e+05
  -8.309538e+05   9.112396e+05
  -1.817174e+06  -7.358668e+05
  -1.067730e+06  -3.049669e+06
   9.823725e+05  -3.557329e+06
   2.878547e+06  -1.647645e+06
   3.494436e+06   1.110611e+06
   2.523377e+06   2.817782e+06
   4.899659e+05   2.734134e+06
  -1.304091e+06   1.416520e+06
  -1.581202e+06   1.341746e+05
  -4.791514e+05  -5.455725e+04
   3.418687e+05   7.321531e+05
  -3.615087e+05   1.240828e+06
  -1.748077e+06   5.338400e+05
  -1.917456e+06  -7.870332e+05
  -4.135561e+05  -1.307361e+06
   1.123029e+06  -5.726406e+05
   9.451957e+05   4.539456e+05
  -7.858931e+05   6.423434e+05
  -2.256859e+06  -1.819337e+05
  -1.897660e+06  -1.367869e+06
   1.771534e+05  -2.075713e+06
   2.311577e+06  -1.688787e+06
   2.735678e+06  -2.536976e+05
   1.158090e+06   1.199714e+06
  -8.722316e+05   1.366298e+06
  -1.420302e+06   1.474540e+05
  -1.298011e+05  -9.958519e+05
   1.466059e+06  -6.742456e+05
   1.674386e+06   7.429176e+05
   3.919278e+05   1.613780e+06
  -1.014906e+06   1.032678e+06
  -1.259126e+06  -2.167119e+05
  -3.128484e+05  -7.376529e+05
   7.249724e+05  -6.374040e+04
   6.779040e+05   1.020394e+06
  -6.073004e+05   1.357958e+06
  -1.970279e+06   4.600733e+05
  -1.945710e+06  -1.073230e+06
  -3.386007e+05  -2.012933e+06
   1.396790e+06  -1.578694e+06
   1.675639e+06  -2.127667e+05
   5.144941e+05   8.398664e+05
  -6.379152e+05   7.990560e+05
  -6.704001e+05   5.382261e+04
   8.748926e+04  -4.465286e+05
   5.670240e+05  -2.833570e+05
   2.659947e+05   1.067665e+05
  -3.723037e+05   5.555171e+04
  -5.503724e+05  -5.635386e+05
   1.438170e+05  -1.144353e+06
   1.337688e+06  -8.748335e+05
   2.025357e+06   4.240301e+05
   1.392465e+06   1.915217e+06
  -2.573448e+05   2.382046e+06
  -1.623026e+06   1.420891e+06
  -1.725774e+06  -1.061538e+05
  -9.217752e+05  -9.671941e+05
  -3.156028e+05  -8.052558e+05
  -3.696473e+05  -3.122194e+05
  -5.119033e+05  -2.696370e+05
  -6.843672e+04  -6.816829e+05
   8.414878e+05  -8.877464e+05
   1.447261e+06  -3.452499e+05
   1.086637e+06   7.502645e+05
  -2.297677e+05   1.512714e+06
  -1.718776e+06   1.080059e+06
  -2.228007e+06  -4.977830e+05
  -1.124941e+06  -2.063195e+06
   9.511603e+05  -2.300127e+06
   2.453566e+06  -1.027351e+06
   2.337208e+06   6.062029e+05
   1.029282e+06   1.335128e+06
  -1.654660e+05   1.027835e+06
  -4.694412e+05   5.767355e+05
  -2.163038e+05   7.108716e+05
  -1.787875e+05   1.191570e+06
  -6.506621e+05   1.191917e+06
  -1.229089e+06   2.736643e+05
  -1.269965e+06  -1.087649e+06
  -4.998261e+05  -1.868871e+06
   6.465397e+05  -1.394843e+06
   1.268906e+06   9.748997e+03
   7.989624e+05   1.235748e+06
  -3.451903e+05   1.360051e+06
  -1.082168e+06   4.568021e+05
  -7.849674e+05  -5.841505e+05
   5.553181e+04  -9.963635e+05
   4.427968e+05  -7.801492e+05
   5.524478e+04  -4.496479e+05
  -3.975980e+05  -3.560575e+05
  -3.886350e+04  -3.839564e+05
   1.095604e+06  -2.016058e+05
   1.968313e+06   3.365922e+05
   1.567598e+06   1.010035e+06
   1.987204e+03   1.365127e+06
  -1.503507e+06   1.075756e+06
  -1.777529e+06   2.856851e+05
  -8.383829e+05  -4.213972e+05
   2.298878e+05  -5.186215e+05
   4.837546e+05  -5.882037e+04
   3.383203e+03   3.625714e+05
  -4.623744e+05   2.278599e+05
  -4.556572e+05  -3.443590e+05
  -1.749242e+05  -7.228413e+05
  -3.038858e+04  -4.688823e+05
  -1.474169e+05   1.294459e+05
  -3.291338e+05   3.257521e+05
  -2.774169e+05  -2.273626e+05
   1.872093e+05  -9.802631e+05
   8.963664e+05  -1.017493e+06
   1.266068e+06  -1.166120e+05
   7.509943e+05   9.060697e+05
  -4.215992e+05   1.055542e+06
  -1.193964e+06   2.573091e+05
  -6.975977e+05  -5.924505e+05
   6.872550e+05  -6.359866e+05
   1.585044e+06   9.495755e+04
   1.047420e+06   8.598167e+05
  -4.442074e+05   1.014887e+06
  -1.504920e+06   5.189601e+05
  -1.262771e+06  -1.754485e+05
  -1.493467e+05  -5.242652e+05
   6.398007e+05  -2.796407e+05
   3.565892e+05   2.766601e+05
  -6.063826e+05   4.729735e+05
  -1.150783e+06  -1.406600e+05
  -5.869572e+05  -1.187672e+06
   6.655875e+05  -1.635589e+06
   1.498767e+06  -8.039230e+05
   1.216558e+06   7.896680e+05
   1.554992e+05   1.780675e+06
  -7.604345e+05   1.288867e+06
  -9.231611e+05  -1.619073e+05
  -4.358443e+05  -1.184782e+06
   1.973550e+05  -9.817260e+05
   5.463843e+05  -9.148245e+04
   4.819162e+05   3.932014e+05
   1.905526e+05   1.544081e+05
   3.858783e+04  -1.053429e+05
   2.260157e+05   2.673148e+05
   4.676439e+05   9.514437e+05
   2.059563e+05   1.081658e+06
  -6.688089e+05   3.897076e+05
  -1.453547e+06  -4.902907e+05
  -1.284567e+06  -8.567205e+05
  -1.746143e+05  -6.861228e+05
   8.817560e+05  -3.888902e+05
   9.889117e+05  -1.709288e+05
   3.314702e+05   3.677280e+04
  -1.597984e+05   2.147349e+05
  -5.673195e+03   2.254502e+05
   2.947841e+05   1.250626e+05
   3.205801e+04   1.324877e+05
  -6.958764e+05   1.987156e+05
  -1.025467e+06  -4.350517e+04
  -3.586537e+05  -6.768742e+05
   8.859320e+05  -1.116065e+06
   1.662330e+06  -6.872288e+05
   1.333898e+06   4.681562e+05
   2.267369e+05   1.395987e+06
  -7.732820e+05   1.329649e+06
  -1.041226e+06   4.847441e+05
  -6.433039e+05  -2.630658e+05
  -1.094341e+05  -3.530574e+05
   9.767773e+04  -3.864032e+04
  -7.289206e+04   4.019180e+04
  -3.063785e+05  -3.608949e+05
  -2.407616e+05  -8.039483e+05
   1.963777e+05  -6.574647e+05
   6.718529e+05   1.565314e+05
   6.859690e+05   9.712130e+05
   5.832361e+04   1.009420e+06
  -7.610128e+05   1.956368e+05
  -9.905021e+05  -7.571339e+05
  -3.015194e+05  -1.075505e+06
   7.173979e+05  -6.297951e+05
   1.084044e+06   1.022884e+05
   4.975772e+05   5.903710e+05
  -2.896177e+05   6.351567e+05
  -3.552237e+05   3.525839e+05
   2.688873e+05   2.912774e+04
   6.472084e+05  -2.005417e+04
   1.298160e+05   2.995897e+05
  -8.278155e+05   6.560147e+05
  -1.232304e+06   5.311145e+05
  -7.244079e+05  -1.643980e+05
   1.129445e+05  -8.435464e+05
   5.360222e+05  -8.256206e+05
   3.927766e+05  -1.364328e+05
   2.749320e+04   4.815991e+05
  -2.467802e+05   4.090910e+05
  -3.413473e+05  -1.754868e+05
  -2.350636e+05  -5.741076e+05
   6.286954e+04  -3.975150e+05
   3.815024e+05   6.171708e+04
   4.577956e+05   2.682494e+05
   2.393573e+05   8.526318e+04
  -2.242792e+04  -1.282951e+05
  -8.705504e+04  -6.654465e+03
  -2.993692e+04   3.575516e+05
  -1.007574e+05   5.074766e+05
  -3.253871e+05   1.644995e+05
  -4.086234e+05  -4.042938e+05
  -1.006230e+05  -6.373795e+05
   4.178298e+05  -2.885467e+05
   6.311857e+05   3.005234e+05
   2.256427e+05   5.769090e+05
  -4.997174e+05   3.481318e+05
  -8.528502e+05  -9.921082e+04
  -4.578317e+05  -3.807157e+05
   2.940731e+05  -3.718426e+05
   6.241674e+05  -1.928610e+05
   2.289987e+05  -1.292305e+04
  -3.633403e+05   3.820515e+04
  -4.051878e+05  -9.714882e+04
   1.938455e+05  -2.946355e+05
   7.698102e+05  -2.460589e+05
