
 $NMID
 id='ANONYMOUS ', fmtdat='(2E16.6)'
 volume=1.0
 tramp=1.0
 $END
  -1.222304e+07  -1.338086e+06
  -6.770163e+06  -7.540873e+06
   1.942869e+06  -7.806840e+06
   6.055472e+06  -3.329186e+06
   3.724817e+06   1.125430e+06
  -6.144370e+05   2.206966e+06
  -2.398794e+06   2.396452e+05
  -1.064266e+06  -2.176298e+06
   1.185688e+06  -2.655034e+06
   2.304956e+06  -7.398986e+05
   1.651900e+06   1.774846e+06
  -6.860878e+04   2.391741e+06
  -1.287188e+06   4.932381e+05
  -8.081502e+05  -1.799045e+06
   8.456425e+05  -1.926612e+06
   1.811714e+06   2.211568e+05
   9.293233e+05   2.374486e+06
  -1.039900e+06   2.563351e+06
  -2.403242e+06   9.385989e+05
  -2.239941e+06  -9.655347e+05
  -9.491917e+05  -1.901917e+06
   3.375329e+05  -1.662835e+06
   6.361403e+05  -8.968487e+05
  -7.916797e+04  -5.344534e+05
  -6.633078e+05  -9.541525e+05
   9.743495e+04  -1.478941e+06
   1.868203e+06  -1.079304e+06
   2.812288e+06   2.837663e+05
   1.717991e+06   1.464467e+06
  -4.121528e+05   1.458537e+06
  -1.499631e+06   4.805378e+05
  -7.794032e+05  -4.747157e+05
   6.020318e+05  -6.781534e+05
   1.176100e+06  -5.829709e+04
   6.318997e+05   9.113662e+05
  -3.018483e+05   1.381317e+06
  -8.031552e+05   7.304516e+05
  -5.759418e+05  -5.327355e+05
   3.182117e+04  -9.936965e+05
   3.095553e+05  -5.916560e+04
  -1.144830e+05   1.021343e+06
  -7.273688e+05   6.770265e+05
  -6.137999e+05  -7.567399e+05
   3.698311e+05  -1.351388e+06
   1.241563e+06  -1.665398e+05
   9.555955e+05   1.485648e+06
  -4.001874e+05   1.749800e+06
  -1.676122e+06   4.243987e+05
  -1.778282e+06  -1.101835e+06
  -6.034825e+05  -1.561060e+06
   9.131787e+05  -8.493788e+05
   1.537490e+06   2.785047e+05
   7.799334e+05   9.328760e+05
  -5.730743e+05   6.587323e+05
  -1.165884e+06  -1.955988e+05
  -5.196990e+05  -7.145406e+05
   4.434787e+05  -3.812064e+05
   5.625399e+05   2.872731e+05
  -1.418971e+05   4.086756e+05
  -6.081685e+05  -1.199094e+05
  -1.483677e+05  -5.800790e+05
   7.567812e+05  -4.237048e+05
   1.123385e+06   1.931541e+05
   5.263370e+05   8.397993e+05
  -6.284425e+05   1.220525e+06
  -1.563294e+06   1.060628e+06
  -1.687717e+06   1.746061e+05
  -9.724213e+05  -1.045735e+06
   3.447203e+02  -1.685718e+06
   5.073486e+05  -1.284831e+06
   3.837160e+05  -4.640205e+05
   1.473754e+05  -1.477309e+05
   3.180224e+05  -3.780810e+05
   7.761069e+05  -3.890758e+05
   9.578450e+05   2.200467e+05
   5.481820e+05   8.972995e+05
  -1.991828e+05   8.589876e+05
  -7.305440e+05   5.018432e+04
  -6.263518e+05  -8.158116e+05
   1.007549e+05  -9.955777e+05
   9.341741e+05  -3.562382e+05
   1.181217e+06   5.813458e+05
   6.210214e+05   1.117073e+06
  -2.073659e+05   9.713583e+05
  -5.870973e+05   4.889576e+05
  -4.608113e+05   2.048984e+05
  -4.188234e+05   2.324484e+05
  -8.239614e+05   2.043075e+05
  -1.257013e+06  -1.977647e+05
  -1.021827e+06  -8.351252e+05
  -2.714939e+04  -1.270935e+06
   1.043673e+06  -1.174938e+06
   1.395702e+06  -5.416379e+05
   8.461871e+05   2.921707e+05
  -5.074495e+04   7.815643e+05
  -5.113011e+05   5.713006e+05
  -2.193282e+05  -7.170120e+04
   3.953620e+05  -4.222787e+05
   6.209149e+05  -1.082675e+05
   2.426506e+05   4.058773e+05
  -2.450233e+05   4.124394e+05
  -2.620442e+05  -8.400629e+04
   1.757162e+05  -3.546231e+05
   5.343512e+05   9.001239e+04
   3.926451e+05   8.561683e+05
  -1.876923e+05   1.138105e+06
  -8.253421e+05   6.149679e+05
  -1.125835e+06  -2.930037e+05
  -8.726470e+05  -9.160707e+05
  -1.865658e+05  -9.117936e+05
   4.457793e+05  -4.518212e+05
   5.425835e+05  -1.402720e+04
   1.580505e+05   3.337335e+04
  -1.291946e+05  -2.377633e+05
   9.684674e+04  -4.059324e+05
   5.613535e+05  -1.838834e+05
   6.452290e+05   2.426540e+05
   1.730762e+05   4.435595e+05
  -3.602742e+05   2.467063e+05
  -3.683504e+05  -1.022476e+05
   1.737143e+05  -2.393459e+05
   7.101916e+05  -2.196513e+04
   6.645663e+05   3.960060e+05
  -3.532308e+03   6.898078e+05
  -7.418197e+05   5.790858e+05
  -9.049378e+05   8.188462e+04
  -3.769854e+05  -4.070676e+05
   2.999993e+05  -4.445457e+05
   4.732529e+05  -3.087649e+04
   4.278918e+04   3.416375e+05
  -4.827768e+05   2.346273e+05
  -5.628709e+05  -2.314140e+05
  -1.565344e+05  -5.381691e+05
   3.185214e+05  -3.782140e+05
   4.401250e+05   3.264987e+04
   1.551783e+05   2.460329e+05
  -2.052173e+05   6.617040e+04
  -2.313983e+05  -2.876280e+05
   1.664952e+05  -4.246859e+05
   6.164429e+05  -1.523393e+05
   6.225474e+05   3.435463e+05
   1.080666e+05   6.526116e+05
  -4.590446e+05   5.128813e+05
  -5.636496e+05   6.254983e+04
  -1.938586e+05  -2.971112e+05
   2.051381e+05  -2.979994e+05
   2.630892e+05  -3.942959e+04
   3.458765e+04   1.696238e+05
  -1.653095e+05   1.501362e+05
  -1.334818e+05   6.280577e+03
   5.322727e+04  -2.871535e+04
   1.472344e+05   1.354606e+05
  -3.315445e+04   3.269127e+05
  -4.046502e+05   2.662982e+05
  -6.331765e+05  -1.315227e+05
  -4.345459e+05  -6.098848e+05
   9.628682e+04  -7.740491e+05
   5.376958e+05  -4.763538e+05
   5.776179e+05   2.921843e+04
   3.224472e+05   3.461199e+05
   1.077807e+05   3.218614e+05
   8.575439e+04   1.433512e+05
   1.101535e+05   7.759140e+04
  -9.216828e+03   1.771137e+05
  -2.579443e+05   2.527494e+05
  -4.338224e+05   1.048215e+05
  -3.356813e+05  -2.335795e+05
   6.045882e+04  -4.785880e+05
   5.299592e+05  -3.439237e+05
   7.065076e+05   1.535536e+05
   3.761034e+05   6.462099e+05
  -2.736578e+05   7.286690e+05
  -7.658285e+05   3.437633e+05
  -7.651277e+05  -1.700174e+05
  -3.745168e+05  -4.282568e+05
   2.400345e+04  -3.638269e+05
   1.706262e+05  -2.217482e+05
   1.218393e+05  -2.347692e+05
   9.723946e+04  -3.623575e+05
   2.160336e+05  -3.598823e+05
   3.854781e+05  -7.323495e+04
   4.004864e+05   3.602058e+05
   1.540423e+05   6.091855e+05
  -2.171320e+05   4.543930e+05
  -4.151058e+05   7.096617e+03
  -2.639839e+05  -3.803479e+05
   8.984363e+04  -4.307398e+05
   3.137573e+05  -1.711633e+05
   2.358386e+05   1.409163e+05
   7.759136e+03   2.850340e+05
  -9.703360e+04   2.489584e+05
  -1.245617e+02   1.640587e+05
   1.080778e+05   1.291648e+05
  -2.936817e+03   1.214651e+05
  -3.289486e+05   5.358980e+04
  -5.921733e+05  -1.129717e+05
  -4.930312e+05  -3.109082e+05
  -2.897300e+04  -4.105103e+05
   4.507640e+05  -3.270383e+05
   5.632578e+05  -1.052737e+05
   2.782024e+05   9.880383e+04
  -6.451656e+04   1.423636e+05
  -1.401746e+05   2.750600e+04
   2.846488e+04  -9.042031e+04
   1.726023e+05  -5.298234e+04
   1.340474e+05   1.240657e+05
   1.206053e+04   2.470660e+05
  -2.460148e+04   1.585341e+05
   4.720193e+04  -5.401419e+04
   1.156744e+05  -1.287030e+05
   7.697595e+04   5.737860e+04
  -8.182925e+04   3.054079e+05
  -2.777744e+05   3.046849e+05
  -3.569163e+05   7.986072e+03
  -1.937177e+05  -2.939497e+05
   1.434528e+05  -3.014588e+05
   3.639719e+05  -3.630698e+04
   2.114855e+05   2.093391e+05
  -2.207538e+05   2.006895e+05
  -5.193756e+05  -3.099683e+04
  -3.640941e+05  -2.730536e+05
   1.217566e+05  -3.395891e+05
   4.899030e+05  -1.959826e+05
   4.279811e+05   3.856058e+04
   6.187638e+04   1.753173e+05
  -2.025469e+05   1.051020e+05
  -1.062973e+05  -7.844814e+04
   2.099711e+05  -1.356944e+05
   3.682275e+05   7.431937e+04
   1.521817e+05   4.021301e+05
  -2.680137e+05   5.129663e+05
  -5.143594e+05   2.214479e+05
  -3.839977e+05  -2.851461e+05
  -2.405103e+04  -5.874515e+05
   2.594025e+05  -4.258357e+05
   2.997386e+05   3.941179e+04
   1.528980e+05   3.795441e+05
  -3.710108e+04   3.286879e+05
  -1.630979e+05   3.965348e+04
  -1.746160e+05  -1.302425e+05
  -8.766267e+04  -5.457946e+04
  -5.806167e+03   4.223192e+04
  -3.735798e+04  -7.394079e+04
  -1.325311e+05  -3.082417e+05
  -8.782308e+04  -3.595603e+05
   1.885930e+05  -1.246716e+05
   4.737004e+05   1.751469e+05
   4.348729e+05   2.893388e+05
   5.048809e+04   2.161537e+05
  -3.146956e+05   1.136687e+05
  -3.297852e+05   5.456310e+04
  -8.444042e+04  -3.447713e+03
   6.627688e+04  -6.839033e+04
  -2.110275e+04  -8.496233e+04
  -1.235069e+05  -5.293886e+04
   3.789772e+02  -4.103263e+04
   2.572471e+05  -4.717336e+04
   3.274562e+05   3.308068e+04
   6.392386e+04   2.213884e+05
  -3.315622e+05   3.357002e+05
  -5.293478e+05   1.768707e+05
  -3.883948e+05  -1.908703e+05
  -4.154981e+04  -4.599104e+05
   2.586540e+05  -4.058133e+05
   3.394541e+05  -1.221653e+05
   2.082609e+05   1.056896e+05
   2.018959e+04   1.125118e+05
  -5.723339e+04  -4.024842e+03
   1.193867e+04  -3.089879e+04
   1.075479e+05   1.082418e+05
   8.313443e+04   2.604031e+05
  -7.531206e+04   2.071054e+05
  -2.239583e+05  -7.502253e+04
  -1.962500e+05  -3.445646e+05
   2.722398e+04  -3.296556e+05
   2.710481e+05  -2.656977e+04
   3.029198e+05   2.880467e+05
   6.129556e+04   3.527101e+05
  -2.478068e+05   1.705980e+05
  -3.334604e+05  -5.827363e+04
  -1.338426e+05  -1.767076e+05
   9.985674e+04  -1.728719e+05
   9.339338e+04  -1.029278e+05
  -1.135233e+05  -2.494918e+04
  -2.147205e+05  -8.046574e+03
  -2.651439e+04  -9.404406e+04
   2.777008e+05  -2.037124e+05
   3.830327e+05  -1.717206e+05
   2.043287e+05   4.650561e+04
  -5.317682e+04   2.620985e+05
  -1.644651e+05   2.458204e+05
  -1.038138e+05   1.562522e+04
   1.284488e+04  -1.681091e+05
   9.249376e+04  -1.131142e+05
   1.102599e+05   8.634000e+04
   6.275513e+04   1.903446e+05
  -3.506606e+04   1.062242e+05
  -1.229509e+05  -3.645182e+04
  -1.348537e+05  -7.856758e+04
  -7.434641e+04  -1.739081e+04
  -7.599474e+03   2.388441e+04
   2.449264e+04  -3.494514e+04
   4.688162e+04  -1.337070e+05
   9.045643e+04  -1.409488e+05
   1.276643e+05  -5.389470e+03
   9.632738e+04   1.694721e+05
  -2.068701e+04   2.152405e+05
  -1.529173e+05   7.480592e+04
  -1.833385e+05  -1.249498e+05
  -5.147834e+04  -1.998513e+05
   1.596341e+05  -9.937224e+04
   2.602603e+05   5.792166e+04
   1.349643e+05   1.318894e+05
  -1.031559e+05   9.827875e+04
  -2.021667e+05   2.951689e+04
  -5.677160e+04  -6.855392e+03
   1.475750e+05   8.925661e+03
   1.442296e+05   6.445616e+04
  -8.757052e+04   1.116972e+05
  -2.899237e+05   6.956290e+04
