
 $NMID
 id='ANONYMOUS ', fmtdat='(2E16.6)'
 volume=1.0
 tramp=1.0
 $END
  -5.754535e+07   1.177849e+06
  -3.531084e+07  -3.503051e+07
   6.887320e+06  -3.913989e+07
   2.793100e+07  -1.544705e+07
   1.695437e+07   6.927005e+06
  -3.235967e+06   9.599479e+06
  -1.005936e+07  -1.114440e+06
  -2.980170e+06  -9.939347e+06
   6.186414e+06  -9.607303e+06
   9.813614e+06  -2.186721e+06
   7.249432e+06   6.177484e+06
   1.007707e+06   8.733408e+06
  -4.001303e+06   2.889716e+06
  -2.776471e+06  -5.454359e+06
   3.722623e+06  -6.711768e+06
   8.056816e+06   1.230405e+06
   4.722998e+06   1.032620e+07
  -3.631556e+06   1.210819e+07
  -1.019049e+07   6.239513e+06
  -1.108297e+07  -1.849485e+06
  -6.950632e+06  -7.497661e+06
  -9.185020e+05  -8.848124e+06
   2.870331e+06  -6.286724e+06
   1.909971e+06  -2.788223e+06
  -1.119655e+06  -2.118887e+06
  -3.622036e+05  -4.194130e+06
   5.355745e+06  -4.586993e+06
   9.791473e+06  -7.400547e+05
   7.268545e+06   4.030662e+06
   4.064994e+05   5.148139e+06
  -3.687241e+06   2.723040e+06
  -2.514013e+06   1.156722e+05
   5.488126e+05  -9.261137e+05
   2.247923e+06  -5.513834e+05
   2.247715e+06   1.362670e+06
   8.203662e+05   3.950165e+06
  -1.732359e+06   3.977658e+06
  -3.320283e+06  -1.905293e+02
  -1.860377e+06  -3.667079e+06
   7.409812e+05  -2.020159e+06
   4.187109e+05   2.454593e+06
  -2.448862e+06   2.381195e+06
  -2.555003e+06  -3.216331e+06
   2.376015e+06  -6.316450e+06
   7.106535e+06  -1.179352e+06
   5.383063e+06   6.977118e+06
  -1.784148e+06   8.757831e+06
  -7.531486e+06   2.624580e+06
  -7.161925e+06  -4.398514e+06
  -1.980359e+06  -6.106519e+06
   3.492364e+06  -2.815202e+06
   5.372988e+06   1.470054e+06
   2.518854e+06   3.515152e+06
  -2.433302e+06   2.284870e+06
  -4.637058e+06  -8.599952e+05
  -2.038104e+06  -2.743574e+06
   1.727397e+06  -1.432536e+06
   1.785265e+06   1.016456e+06
  -1.350175e+06   9.551343e+05
  -2.568798e+06  -1.767282e+06
   5.794675e+05  -3.551588e+06
   4.711298e+06  -2.039499e+06
   5.447242e+06   1.292265e+06
   2.442055e+06   4.021170e+06
  -1.722976e+06   5.401167e+06
  -4.983632e+06   5.035027e+06
  -6.263339e+06   1.917054e+06
  -4.741819e+06  -3.108113e+06
  -1.096652e+06  -6.262163e+06
   1.811037e+06  -4.892728e+06
   1.788746e+06  -1.262322e+06
   1.675602e+05   2.810728e+05
  -7.933414e+04  -9.807100e+05
   1.564880e+06  -1.863463e+06
   2.846009e+06  -3.268722e+05
   2.108628e+06   1.899485e+06
   8.490073e+04   2.170263e+06
  -1.560745e+06   2.419365e+05
  -1.742865e+06  -2.070003e+06
  -6.788318e+04  -2.983616e+06
   2.777573e+06  -1.751004e+06
   4.586484e+06   1.106619e+06
   3.377773e+06   3.763235e+06
   6.025703e+04   4.325924e+06
  -2.271136e+06   2.835317e+06
  -2.268135e+06   1.210793e+06
  -1.866344e+06   7.269447e+05
  -2.995925e+06   5.376249e+05
  -4.452321e+06  -7.003121e+05
  -3.607358e+06  -2.760593e+06
  -2.072450e+05  -4.209076e+06
   3.196715e+06  -4.039123e+06
   4.211764e+06  -2.249376e+06
   2.719373e+06   3.660787e+05
   3.369549e+05   2.269153e+06
  -1.074660e+06   1.999808e+06
  -5.767513e+05  -2.060395e+04
   1.082680e+06  -1.359904e+06
   1.944817e+06  -4.455051e+05
   9.721689e+05   1.215494e+06
  -5.037079e+05   1.146841e+06
  -4.358438e+05  -3.948320e+05
   1.096276e+06  -7.203559e+05
   1.928936e+06   1.317189e+06
   6.964930e+05   3.581316e+06
  -1.611436e+06   3.506312e+06
  -3.213093e+06   1.153673e+06
  -3.389937e+06  -1.448363e+06
  -2.342876e+06  -2.781414e+06
  -4.967361e+05  -2.647260e+06
   1.237827e+06  -1.515537e+06
   1.604953e+06  -2.644818e+05
   5.050861e+05   3.833774e+04
  -3.791062e+05  -7.648565e+05
   4.052824e+05  -1.387310e+06
   1.954922e+06  -6.275686e+05
   2.105415e+06   8.847982e+05
   4.138646e+05   1.454521e+06
  -1.195664e+06   6.014147e+05
  -9.093088e+05  -4.558104e+05
   8.717906e+05  -5.321341e+05
   2.229266e+06   3.154756e+05
   1.783570e+06   1.366847e+06
  -2.391546e+05   2.008142e+06
  -2.337826e+06   1.717591e+06
  -2.835271e+06   3.204210e+05
  -1.270413e+06  -1.283041e+06
   9.204422e+05  -1.565536e+06
   1.607539e+06  -2.246722e+05
   2.314829e+05   1.110181e+06
  -1.545674e+06   7.833973e+05
  -1.774703e+06  -7.808010e+05
  -3.602574e+05  -1.692786e+06
   1.116853e+06  -1.007820e+06
   1.292909e+06   3.167496e+05
   2.530116e+05   8.049987e+05
  -8.247964e+05   6.728498e+04
  -7.770317e+05  -1.071130e+06
   5.637012e+05  -1.473527e+06
   2.049781e+06  -5.953118e+05
   2.109088e+06   1.041002e+06
   4.285297e+05   2.125374e+06
  -1.456566e+06   1.710300e+06
  -1.771250e+06   2.379642e+05
  -5.235532e+05  -8.875346e+05
   6.672000e+05  -8.313805e+05
   6.407893e+05  -8.814581e+04
  -1.247582e+05   3.586572e+05
  -4.915798e+05   2.055346e+05
  -1.032966e+05  -6.441995e+04
   4.753437e+05   9.020470e+04
   5.365715e+05   6.984333e+05
  -2.048778e+05   1.225262e+06
  -1.408923e+06   9.376067e+05
  -2.142845e+06  -3.938317e+05
  -1.535688e+06  -1.971072e+06
   1.827097e+05  -2.483370e+06
   1.632627e+06  -1.463137e+06
   1.724070e+06   1.121866e+05
   8.754297e+05   8.968468e+05
   3.275496e+05   6.384720e+05
   5.041381e+05   2.000087e+05
   6.644934e+05   3.151330e+05
   1.090670e+05   7.924198e+05
  -8.897563e+05   9.352396e+05
  -1.477385e+06   3.464613e+05
  -1.074761e+06  -7.222035e+05
   2.429860e+05  -1.487222e+06
   1.747760e+06  -1.116483e+06
   2.306828e+06   4.632038e+05
   1.187733e+06   2.138709e+06
  -1.010415e+06   2.444086e+06
  -2.601164e+06   1.089635e+06
  -2.415502e+06  -6.535049e+05
  -9.813802e+05  -1.359966e+06
   2.087873e+05  -9.568639e+05
   3.804148e+05  -5.123815e+05
   4.567556e+04  -7.731823e+05
   7.197549e+04  -1.354064e+06
   6.685571e+05  -1.342841e+06
   1.327664e+06  -3.525710e+05
   1.393022e+06   1.082988e+06
   6.049161e+05   1.931657e+06
  -6.108939e+05   1.483760e+06
  -1.316728e+06   1.608641e+04
  -8.505480e+05  -1.309477e+06
   3.882674e+05  -1.439838e+06
   1.199359e+06  -4.228214e+05
   8.464882e+05   7.217686e+05
  -1.215968e+05   1.117439e+06
  -5.553331e+05   8.098010e+05
  -8.838199e+04   4.211077e+05
   4.532933e+05   3.322019e+05
   7.032543e+04   3.900064e+05
  -1.180820e+06   2.329694e+05
  -2.130398e+06  -3.086205e+05
  -1.676387e+06  -1.041893e+06
   2.547451e+04  -1.481794e+06
   1.623576e+06  -1.201878e+06
   1.878914e+06  -3.074269e+05
   8.599318e+05   5.090819e+05
  -2.636915e+05   5.960650e+05
  -5.289792e+05   3.697545e+04
  -4.501449e+04  -4.409065e+05
   4.434592e+05  -2.759032e+05
   5.023011e+05   3.410861e+05
   2.867400e+05   7.316308e+05
   1.202646e+05   4.876326e+05
   1.382334e+05  -9.001704e+04
   2.712904e+05  -2.921302e+05
   2.839806e+05   2.351133e+05
  -1.200505e+05   1.008643e+06
  -9.027245e+05   1.112599e+06
  -1.409720e+06   2.163615e+05
  -9.086428e+05  -9.196581e+05
   4.028230e+05  -1.190421e+06
   1.292571e+06  -3.859959e+05
   7.657457e+05   5.680017e+05
  -7.123031e+05   6.747920e+05
  -1.623464e+06  -7.930729e+04
  -1.024858e+06  -8.728116e+05
   4.959271e+05  -1.009685e+06
   1.524738e+06  -4.930400e+05
   1.252472e+06   1.875962e+05
   1.373704e+05   5.210499e+05
  -6.637765e+05   2.791826e+05
  -4.059154e+05  -2.998894e+05
   5.801204e+05  -5.565821e+05
   1.216711e+06   4.327176e+04
   7.322185e+05   1.188712e+06
  -5.450771e+05   1.767120e+06
  -1.491274e+06   9.558391e+05
  -1.306141e+06  -7.408026e+05
  -2.499868e+05  -1.827936e+06
   7.317048e+05  -1.331207e+06
   9.487437e+05   1.761240e+05
   4.516251e+05   1.215706e+06
  -2.255122e+05   9.873580e+05
  -5.809133e+05   8.933249e+04
  -4.705789e+05  -3.743251e+05
  -1.534871e+05  -1.325876e+05
  -5.453145e+04   9.364970e+04
  -3.180930e+05  -3.078964e+05
  -5.527429e+05  -9.846440e+05
  -1.974150e+05  -1.098230e+06
   7.486832e+05  -4.168645e+05
   1.518584e+06   4.440521e+05
   1.309891e+06   8.306021e+05
   2.024946e+05   7.167341e+05
  -8.466297e+05   4.510674e+05
  -9.981044e+05   2.015085e+05
  -3.876820e+05  -5.746205e+04
   1.362756e+05  -2.367746e+05
   5.543009e+04  -1.999632e+05
  -2.484435e+05  -7.722670e+04
  -6.531963e+04  -1.336136e+05
   6.449532e+05  -2.688081e+05
   1.077998e+06  -2.412510e+04
   5.019833e+05   7.028537e+05
  -8.062288e+05   1.247966e+06
  -1.742458e+06   8.437277e+05
  -1.494790e+06  -3.874198e+05
  -3.328863e+05  -1.431239e+06
   7.564138e+05  -1.443651e+06
   1.062965e+06  -6.017402e+05
   6.754693e+05   2.040860e+05
   1.599955e+05   3.645802e+05
  -4.548188e+04   8.676070e+04
   9.244084e+04  -2.687978e+02
   3.057520e+05   3.781547e+05
   2.652719e+05   8.235221e+05
  -1.581006e+05   7.091791e+05
  -6.972643e+05  -8.367479e+04
  -8.057720e+05  -9.344839e+05
  -1.841910e+05  -1.058721e+06
   7.470273e+05  -3.071097e+05
   1.095375e+06   6.798128e+05
   4.125711e+05   1.109432e+06
  -7.056036e+05   7.411753e+05
  -1.166305e+06  -3.190147e+04
  -5.831647e+05  -6.325450e+05
   2.748562e+05  -7.334010e+05
   4.027705e+05  -3.969364e+05
  -2.267632e+05   8.825955e+03
  -6.586574e+05   6.561860e+04
  -1.702362e+05  -3.169876e+05
   8.266288e+05  -7.196750e+05
   1.300919e+06  -5.740788e+05
   8.171038e+05   1.796219e+05
  -6.831094e+04   9.074004e+05
  -5.642696e+05   9.093582e+05
  -4.600188e+05   2.012355e+05
  -8.596931e+04  -4.784483e+05
   2.256021e+05  -4.707839e+05
   3.645888e+05   1.136912e+05
   2.845561e+05   5.835735e+05
  -3.228101e+04   4.644697e+05
  -4.041759e+05  -2.106936e+04
  -5.076477e+05  -2.904324e+05
  -2.529716e+05  -1.073301e+05
   5.402846e+04   1.734575e+05
   8.770987e+04   8.446336e+04
  -6.084645e+04  -3.450362e+05
  -2.064833e+04  -5.951917e+05
   3.023455e+05  -2.840371e+05
   5.191115e+05   3.410273e+05
   2.315596e+05   6.548691e+05
  -3.943263e+05   3.508650e+05
  -7.105455e+05  -2.450355e+05
  -2.951583e+05  -5.689707e+05
   5.166904e+05  -3.979169e+05
   9.258688e+05   3.330098e+04
   5.140861e+05   3.701039e+05
  -2.870988e+05   4.427112e+05
  -6.555474e+05   2.831628e+05
  -2.785453e+05   3.281979e+04
   3.220693e+05  -1.048123e+05
   4.084460e+05   1.941194e+04
  -1.371931e+05   2.860748e+05
  -7.122452e+05   3.065076e+05
