
 $NMID
 id='ANONYMOUS ', fmtdat='(2E16.6)'
 volume=1.0
 tramp=1.0
 $END
   5.207080e+07   1.762112e+05
   3.091155e+07   3.300695e+07
  -7.578300e+06   3.540259e+07
  -2.580119e+07   1.274698e+07
  -1.489739e+07  -7.263596e+06
   3.447242e+06  -8.548557e+06
   8.954673e+06   1.656559e+06
   2.076900e+06   9.095126e+06
  -6.038521e+06   8.122683e+06
  -8.851303e+06   1.424710e+06
  -6.272080e+06  -5.663926e+06
  -7.008120e+05  -7.693451e+06
   3.578513e+06  -2.545746e+06
   2.275785e+06   4.687998e+06
  -3.537872e+06   5.640653e+06
  -7.143856e+06  -1.452679e+06
  -3.867009e+06  -9.373136e+06
   3.628152e+06  -1.070846e+07
   9.298981e+06  -5.365800e+06
   9.968557e+06   1.826946e+06
   6.258140e+06   6.899975e+06
   7.422134e+05   8.188424e+06
  -2.915901e+06   5.805604e+06
  -2.197838e+06   2.367271e+06
   6.947198e+05   1.526645e+06
   3.632435e+05   3.423860e+06
  -4.521412e+06   3.966655e+06
  -8.481580e+06   6.473165e+05
  -6.395360e+06  -3.585617e+06
  -4.936712e+05  -4.587256e+06
   3.072720e+06  -2.510231e+06
   2.231042e+06  -3.401372e+05
  -1.649428e+05   5.839917e+05
  -1.601405e+06   5.127957e+05
  -1.874551e+06  -9.279491e+05
  -8.522071e+05  -3.287629e+06
   1.504539e+06  -3.576953e+06
   3.128376e+06  -1.229809e+05
   1.809992e+06   3.328869e+06
  -6.948322e+05   2.051077e+06
  -4.679038e+05  -1.929014e+06
   2.138660e+06  -1.939959e+06
   2.134050e+06   2.982198e+06
  -2.467429e+06   5.610379e+06
  -6.636408e+06   8.267057e+05
  -4.734918e+06  -6.507638e+06
   1.902381e+06  -7.897424e+06
   6.835333e+06  -2.184436e+06
   6.142955e+06   4.081695e+06
   1.455739e+06   5.384510e+06
  -3.148667e+06   2.267919e+06
  -4.548376e+06  -1.529360e+06
  -1.965290e+06  -3.181199e+06
   2.301810e+06  -1.911582e+06
   4.088850e+06   9.501384e+05
   1.685969e+06   2.535624e+06
  -1.594969e+06   1.225015e+06
  -1.477989e+06  -9.537044e+05
   1.350963e+06  -7.073223e+05
   2.219077e+06   1.862542e+06
  -8.340374e+05   3.313568e+06
  -4.481014e+06   1.656799e+06
  -4.862577e+06  -1.450934e+06
  -2.018666e+06  -3.726578e+06
   1.593427e+06  -4.727359e+06
   4.345539e+06  -4.334803e+06
   5.482082e+06  -1.637403e+06
   4.181557e+06   2.744616e+06
   8.914862e+05   5.479026e+06
  -1.766183e+06   4.176562e+06
  -1.670465e+06   8.917991e+05
  -3.556369e+04  -4.428467e+05
   3.105473e+05   7.906661e+05
  -1.164835e+06   1.695974e+06
  -2.384925e+06   4.359524e+05
  -1.833101e+06  -1.475349e+06
  -1.688129e+05  -1.758826e+06
   1.191114e+06  -2.130515e+05
   1.388188e+06   1.683475e+06
   4.928847e+04   2.494178e+06
  -2.369741e+06   1.517181e+06
  -3.987546e+06  -9.472327e+05
  -2.961521e+06  -3.335666e+06
  -6.559073e+03  -3.872143e+06
   2.102553e+06  -2.515062e+06
   2.094405e+06  -1.002297e+06
   1.669637e+06  -5.211992e+05
   2.568078e+06  -3.337769e+05
   3.759381e+06   7.287075e+05
   2.982845e+06   2.429328e+06
   7.808059e+04   3.548352e+06
  -2.749374e+06   3.337716e+06
  -3.547686e+06   1.863980e+06
  -2.299435e+06  -2.801172e+05
  -3.282892e+05  -1.889722e+06
   8.757290e+05  -1.701169e+06
   4.942085e+05  -9.186679e+02
  -9.115721e+05   1.137566e+06
  -1.665382e+06   3.471302e+05
  -8.343611e+05  -1.056261e+06
   4.180649e+05  -9.518780e+05
   3.068326e+05   3.492905e+05
  -1.015986e+06   5.010767e+05
  -1.594127e+06  -1.333177e+06
  -3.483634e+05  -3.150789e+06
   1.645067e+06  -2.830053e+06
   2.800514e+06  -6.918514e+05
   2.715607e+06   1.412882e+06
   1.778709e+06   2.355319e+06
   3.244294e+05   2.165368e+06
  -1.043073e+06   1.238291e+06
  -1.333971e+06   2.093244e+05
  -4.224471e+05  -4.190664e+04
   3.004441e+05   6.514339e+05
  -3.890422e+05   1.177569e+06
  -1.694465e+06   4.890023e+05
  -1.767855e+06  -8.235156e+05
  -2.972575e+05  -1.258519e+06
   1.026441e+06  -4.678366e+05
   7.222499e+05   4.055008e+05
  -7.645486e+05   3.759755e+05
  -1.817930e+06  -3.748489e+05
  -1.386563e+06  -1.183611e+06
   2.825983e+05  -1.623875e+06
   1.986424e+06  -1.348514e+06
   2.374291e+06  -1.968727e+05
   1.042749e+06   1.121340e+06
  -8.190945e+05   1.324988e+06
  -1.389650e+06   1.625974e+05
  -1.906801e+05  -9.563095e+05
   1.320692e+06  -6.326678e+05
   1.469006e+06   7.095301e+05
   2.335678e+05   1.431033e+06
  -9.852531e+05   7.876426e+05
  -1.067078e+06  -3.340806e+05
  -1.643768e+05  -6.940294e+05
   7.135156e+05  -3.257537e+04
   6.389026e+05   9.205318e+05
  -4.939313e+05   1.231394e+06
  -1.728633e+06   4.704419e+05
  -1.754891e+06  -9.098325e+05
  -3.164884e+05  -1.797353e+06
   1.269967e+06  -1.404994e+06
   1.495815e+06  -1.492939e+05
   4.063475e+05   7.626455e+05
  -5.846129e+05   6.740802e+05
  -5.198635e+05   6.259551e+04
   1.280115e+05  -2.633639e+05
   3.879950e+05  -1.265658e+05
   2.895196e+04   4.579990e+04
  -4.248384e+05  -1.348318e+05
  -4.174497e+05  -6.360482e+05
   2.258701e+05  -1.029213e+06
   1.211020e+06  -7.484880e+05
   1.788256e+06   3.800321e+05
   1.248607e+06   1.685983e+06
  -2.031584e+05   2.068958e+06
  -1.392376e+06   1.165640e+06
  -1.414504e+06  -1.495120e+05
  -6.748089e+05  -7.439511e+05
  -2.492581e+05  -4.809937e+05
  -4.498817e+05  -1.410257e+05
  -5.874987e+05  -2.919917e+05
  -8.010013e+04  -6.906319e+05
   7.765808e+05  -7.574976e+05
   1.236227e+06  -2.389317e+05
   8.565928e+05   6.194519e+05
  -2.522388e+05   1.207689e+06
  -1.482226e+06   8.753125e+05
  -1.908190e+06  -4.417444e+05
  -9.311342e+05  -1.820984e+06
   9.256798e+05  -2.027099e+06
   2.221986e+06  -8.370060e+05
   1.993243e+06   6.287204e+05
   7.488861e+05   1.159574e+06
  -2.180944e+05   7.583980e+05
  -3.016806e+05   3.864431e+05
  -5.177209e+03   6.513549e+05
  -6.409243e+04   1.162602e+06
  -5.956125e+05   1.133230e+06
  -1.134188e+06   2.755864e+05
  -1.151689e+06  -9.314226e+05
  -4.716992e+05  -1.626969e+06
   5.365129e+05  -1.229632e+06
   1.099046e+06   1.935269e+04
   6.764875e+05   1.127610e+06
  -3.778258e+05   1.199333e+06
  -1.039412e+06   3.010537e+05
  -6.965576e+05  -6.645231e+05
   1.546757e+05  -9.565573e+05
   5.189153e+05  -6.607577e+05
   9.766623e+04  -3.350999e+05
  -3.799567e+05  -2.787735e+05
  -5.579160e+04  -3.243625e+05
   1.006110e+06  -1.660509e+05
   1.795299e+06   3.092776e+05
   1.382291e+06   9.188487e+05
  -7.466404e+04   1.257173e+06
  -1.410740e+06   9.809010e+05
  -1.588507e+06   2.022157e+05
  -7.003081e+05  -4.745533e+05
   2.453395e+05  -5.080432e+05
   4.516625e+05  -7.378983e+03
   3.823360e+04   3.888035e+05
  -3.664594e+05   2.280067e+05
  -4.174875e+05  -2.946298e+05
  -2.491786e+05  -6.115113e+05
  -1.130924e+05  -4.091937e+05
  -1.144619e+05   5.654334e+04
  -2.143696e+05   2.194698e+05
  -2.284431e+05  -2.047920e+05
   1.084049e+05  -8.337584e+05
   7.781998e+05  -9.178096e+05
   1.211467e+06  -1.688007e+05
   7.700087e+05   7.866312e+05
  -3.603436e+05   1.010214e+06
  -1.105170e+06   3.204652e+05
  -6.335692e+05  -4.823501e+05
   6.149925e+05  -5.456425e+05
   1.345438e+06   1.112475e+05
   8.082463e+05   7.556762e+05
  -4.573503e+05   8.143397e+05
  -1.277380e+06   3.488815e+05
  -1.021463e+06  -1.985989e+05
  -9.238816e+04  -4.323459e+05
   5.629574e+05  -2.088983e+05
   3.410656e+05   2.662156e+05
  -4.846792e+05   4.661461e+05
  -1.019108e+06  -4.123693e+04
  -6.119049e+05  -9.986075e+05
   4.627674e+05  -1.476809e+06
   1.251787e+06  -7.881590e+05
   1.079138e+06   6.333992e+05
   1.790843e+05   1.525358e+06
  -6.343260e+05   1.085100e+06
  -7.836775e+05  -1.793219e+05
  -3.385849e+05  -1.024487e+06
   2.261668e+05  -8.077063e+05
   4.921544e+05  -5.503895e+04
   3.711327e+05   3.171379e+05
   1.094976e+05   1.077265e+05
   5.334768e+04  -7.186005e+04
   2.828535e+05   2.746821e+05
   4.518362e+05   8.368084e+05
   1.248918e+05   9.156020e+05
  -6.548318e+05   3.297273e+05
  -1.255511e+06  -3.974241e+05
  -1.058916e+06  -7.162617e+05
  -1.534750e+05  -6.055668e+05
   6.981963e+05  -3.635421e+05
   8.300214e+05  -1.440619e+05
   3.359520e+05   6.515950e+04
  -1.115582e+05   1.971239e+05
  -6.883052e+04   1.555584e+05
   1.857725e+05   5.690613e+04
   6.038015e+04   1.116332e+05
  -5.210788e+05   2.222810e+05
  -9.034020e+05   8.632246e+03
  -4.379114e+05  -5.996267e+05
   6.743472e+05  -1.042309e+06
   1.483352e+06  -6.913617e+05
   1.268215e+06   3.366330e+05
   2.635423e+05   1.197411e+06
  -6.604836e+05   1.200488e+06
  -8.983174e+05   4.998024e+05
  -5.584402e+05  -1.695429e+05
  -1.367674e+05  -3.077168e+05
   2.207845e+04  -8.446153e+04
  -8.334420e+04  -1.531474e+04
  -2.396837e+05  -3.265729e+05
  -2.003955e+05  -6.919494e+05
   1.391178e+05  -5.945144e+05
   5.777257e+05   6.680162e+04
   6.713930e+05   7.800316e+05
   1.598529e+05   8.903006e+05
  -6.174386e+05   2.648422e+05
  -9.120240e+05  -5.668371e+05
  -3.409693e+05  -9.346314e+05
   5.979349e+05  -6.233490e+05
   9.838899e+05   3.873081e+04
   4.884967e+05   5.509396e+05
  -2.425623e+05   6.263918e+05
  -3.586093e+05   3.292974e+05
   1.722606e+05  -1.141604e+04
   5.467560e+05  -4.804653e+04
   1.435078e+05   2.710264e+05
  -7.013800e+05   5.864673e+05
  -1.110221e+06   4.463229e+05
  -6.971722e+05  -1.768119e+05
   6.924330e+04  -7.642770e+05
   5.007118e+05  -7.581485e+05
   4.054131e+05  -1.735211e+05
   7.442727e+04   3.940793e+05
  -1.923857e+05   3.997952e+05
  -3.025341e+05  -8.453422e+04
  -2.318289e+05  -4.912532e+05
   2.992913e+04  -4.022919e+05
   3.383756e+05   1.649954e+04
   4.251835e+05   2.613296e+05
   2.096565e+05   1.032992e+05
  -5.024088e+04  -1.584703e+05
  -7.144458e+04  -9.766611e+04
   6.835126e+04   2.797224e+05
   3.952321e+04   5.162651e+05
  -2.476510e+05   2.625006e+05
  -4.508320e+05  -2.740880e+05
  -2.126800e+05  -5.489962e+05
   3.266115e+05  -2.958790e+05
   6.014451e+05   2.044578e+05
   2.471602e+05   4.734436e+05
  -4.422833e+05   3.275130e+05
  -7.830956e+05  -3.386787e+04
  -4.292782e+05  -3.162485e+05
   2.465250e+05  -3.780530e+05
   5.566669e+05  -2.421805e+05
   2.459530e+05  -2.569282e+04
  -2.534118e+05   9.673171e+04
  -3.347766e+05  -3.623735e+03
   1.037636e+05  -2.269403e+05
   5.757368e+05  -2.478318e+05
