
 $NMID
 id='ANONYMOUS ', fmtdat='(2E16.6)'
 volume=1.0
 tramp=1.0
 $END
  -4.593417e+07  -1.004722e+06
  -2.742674e+07  -2.791955e+07
   5.803190e+06  -3.057302e+07
   2.225595e+07  -1.261647e+07
   1.375931e+07   4.739470e+06
  -2.250741e+06   7.618722e+06
  -8.153015e+06  -3.183599e+05
  -2.865633e+06  -7.869224e+06
   4.693624e+06  -8.302833e+06
   7.985648e+06  -2.128269e+06
   5.897474e+06   5.309333e+06
   5.933482e+05   7.462820e+06
  -3.505409e+06   2.147399e+06
  -2.328546e+06  -5.053896e+06
   3.077576e+06  -5.943798e+06
   6.593013e+06   8.891885e+05
   3.805381e+06   8.500405e+06
  -3.103266e+06   9.855105e+06
  -8.432079e+06   4.759029e+06
  -8.821144e+06  -2.021221e+06
  -5.018767e+06  -6.301927e+06
  -1.908676e+05  -6.762440e+06
   2.155132e+06  -4.506045e+06
   7.489875e+05  -2.314687e+06
  -1.461501e+06  -2.530278e+06
   4.227538e+04  -4.159798e+06
   5.284463e+06  -3.693500e+06
   8.675179e+06   5.948191e+04
   5.889143e+06   3.892280e+06
  -3.273700e+05   4.324857e+06
  -3.721176e+06   1.843747e+06
  -2.156845e+06  -5.838731e+05
   1.149785e+06  -1.285093e+06
   2.738490e+06  -3.172680e+05
   2.077166e+06   1.866304e+06
   1.726758e+05   3.837328e+06
  -1.824260e+06   3.104752e+06
  -2.423855e+06  -5.387035e+05
  -9.375353e+05  -3.083671e+06
   7.432084e+05  -1.094222e+06
   1.354596e+04   2.617627e+06
  -2.266147e+06   2.172021e+06
  -2.146434e+06  -2.594376e+06
   1.723223e+06  -5.029388e+06
   5.312740e+06  -8.451358e+05
   4.008139e+06   5.582468e+06
  -1.515010e+06   6.875557e+06
  -6.158471e+06   1.900922e+06
  -6.067983e+06  -3.810201e+06
  -1.827296e+06  -5.272811e+06
   2.988975e+06  -2.558750e+06
   4.796493e+06   1.129314e+06
   2.387434e+06   2.952559e+06
  -1.893917e+06   1.940973e+06
  -3.834490e+06  -6.786519e+05
  -1.731845e+06  -2.218365e+06
   1.417599e+06  -1.152376e+06
   1.626608e+06   8.589026e+05
  -8.611618e+05   9.588226e+05
  -2.086754e+06  -1.054023e+06
   1.225628e+05  -2.535355e+06
   3.447413e+06  -1.612721e+06
   4.344174e+06   8.680712e+05
   2.017748e+06   3.193406e+06
  -1.701144e+06   4.512341e+06
  -4.680466e+06   4.127323e+06
  -5.528487e+06   1.279463e+06
  -3.790338e+06  -2.979210e+06
  -6.297440e+05  -5.466910e+06
   1.524043e+06  -4.267893e+06
   1.376690e+06  -1.376377e+06
   3.151141e+05  -1.720059e+05
   4.871190e+05  -1.036267e+06
   1.919397e+06  -1.396978e+06
   2.723949e+06   2.149536e+05
   1.739479e+06   2.175152e+06
  -2.545449e+05   2.184854e+06
  -1.724651e+06   1.242329e+05
  -1.658283e+06  -2.150842e+06
   1.167321e+05  -2.816412e+06
   2.645242e+06  -1.349419e+06
   3.930756e+06   1.327014e+06
   2.617734e+06   3.403158e+06
  -1.839701e+05   3.545745e+06
  -1.932517e+06   2.187004e+06
  -1.805850e+06   9.762814e+05
  -1.564832e+06   7.214227e+05
  -2.706975e+06   5.379418e+05
  -4.047995e+06  -6.625898e+05
  -3.265286e+06  -2.581661e+06
  -1.107414e+05  -3.903065e+06
   3.112057e+06  -3.664947e+06
   4.059903e+06  -1.873709e+06
   2.490873e+06   5.821699e+05
   7.392080e+04   2.185389e+06
  -1.197033e+06   1.758183e+06
  -5.210927e+05  -9.770489e+04
   1.097213e+06  -1.208756e+06
   1.777059e+06  -3.368980e+05
   7.844867e+05   1.131497e+06
  -5.560504e+05   1.062875e+06
  -5.008196e+05  -3.511502e+05
   8.569653e+05  -7.982148e+05
   1.727971e+06   8.856067e+05
   8.759003e+05   3.054759e+06
  -1.115327e+06   3.353563e+06
  -2.817894e+06   1.418645e+06
  -3.307312e+06  -1.148287e+06
  -2.391991e+06  -2.680015e+06
  -4.912773e+05  -2.609819e+06
   1.243676e+06  -1.405216e+06
   1.544054e+06  -1.696717e+05
   4.712346e+05   4.904003e+04
  -3.392156e+05  -7.183422e+05
   3.728088e+05  -1.235739e+06
   1.753875e+06  -5.259464e+05
   1.895743e+06   8.011637e+05
   3.872279e+05   1.302351e+06
  -1.105583e+06   5.561208e+05
  -9.019675e+05  -4.322416e+05
   7.699985e+05  -5.809863e+05
   2.155117e+06   2.049546e+05
   1.800495e+06   1.301455e+06
  -1.760059e+05   1.975821e+06
  -2.234321e+06   1.640712e+06
  -2.672534e+06   2.619296e+05
  -1.144184e+06  -1.188994e+06
   8.713711e+05  -1.372951e+06
   1.431338e+06  -1.496510e+05
   1.459111e+05   1.003512e+06
  -1.445965e+06   6.779942e+05
  -1.641846e+06  -7.327797e+05
  -3.650738e+05  -1.574565e+06
   1.002886e+06  -9.807287e+05
   1.214197e+06   2.382254e+05
   2.791136e+05   7.240401e+05
  -7.287088e+05   5.436875e+04
  -6.805974e+05  -1.007019e+06
   5.806066e+05  -1.349551e+06
   1.935420e+06  -4.809343e+05
   1.930176e+06   1.036219e+06
   3.471817e+05   1.981720e+06
  -1.372879e+06   1.558423e+06
  -1.645198e+06   2.075564e+05
  -4.959793e+05  -8.230782e+05
   6.247534e+05  -7.785342e+05
   6.409963e+05  -6.659014e+04
  -8.525555e+04   4.015501e+05
  -5.161959e+05   2.598173e+05
  -2.136733e+05  -7.345125e+04
   3.741773e+05  -1.866707e+03
   5.147948e+05   5.796090e+05
  -1.611483e+05   1.121291e+06
  -1.314291e+06   8.587001e+05
  -1.991462e+06  -4.058572e+05
  -1.384447e+06  -1.873249e+06
   2.295212e+05  -2.334460e+06
   1.567649e+06  -1.385947e+06
   1.662926e+06   9.886128e+04
   8.849783e+05   9.043391e+05
   3.269744e+05   7.276470e+05
   4.080560e+05   2.805753e+05
   5.345210e+05   2.871189e+05
   6.890764e+04   6.935130e+05
  -8.274068e+05   8.675390e+05
  -1.403254e+06   3.347335e+05
  -1.049431e+06  -7.105297e+05
   2.181524e+05  -1.450394e+06
   1.666070e+06  -1.054309e+06
   2.176188e+06   4.711344e+05
   1.101407e+06   2.014399e+06
  -9.422593e+05   2.256614e+06
  -2.412073e+06   1.000958e+06
  -2.273207e+06  -5.994397e+05
  -9.796257e+05  -1.286660e+06
   1.620826e+05  -9.662652e+05
   4.183323e+05  -5.475479e+05
   1.627724e+05  -7.214428e+05
   1.540072e+05  -1.207645e+06
   6.443000e+05  -1.193388e+06
   1.221007e+06  -2.805727e+05
   1.264056e+06   1.055977e+06
   5.117439e+05   1.829348e+06
  -6.178509e+05   1.376282e+06
  -1.240042e+06  -3.028591e+03
  -7.815629e+05  -1.215931e+06
   3.495356e+05  -1.331288e+06
   1.072959e+06  -4.217778e+05
   7.627025e+05   6.074403e+05
  -8.218915e+04   9.896277e+05
  -4.606516e+05   7.508326e+05
  -5.883893e+04   4.219401e+05
   4.031226e+05   3.406446e+05
   4.728308e+04   3.749686e+05
  -1.083804e+06   1.982641e+05
  -1.949034e+06  -3.267930e+05
  -1.543002e+06  -9.895264e+05
   1.394065e+04  -1.347660e+06
   1.494362e+06  -1.066440e+06
   1.744815e+06  -2.767026e+05
   8.070040e+05   4.317800e+05
  -2.378055e+05   5.199995e+05
  -4.772844e+05   4.719132e+04
  -8.743924e+03  -3.766386e+05
   4.442676e+05  -2.369965e+05
   4.542672e+05   3.343245e+05
   2.026926e+05   7.100994e+05
   5.514152e+04   4.664422e+05
   1.350586e+05  -1.146204e+05
   2.960707e+05  -3.110319e+05
   2.694228e+05   2.212812e+05
  -1.606544e+05   9.607485e+05
  -8.726544e+05   1.010973e+06
  -1.272535e+06   1.310493e+05
  -7.716230e+05  -8.911614e+05
   4.114019e+05  -1.060372e+06
   1.192172e+06  -2.794483e+05
   6.967063e+05   5.687782e+05
  -6.719409e+05   6.240013e+05
  -1.541200e+06  -8.619180e+04
  -1.004383e+06  -8.274213e+05
   4.399265e+05  -9.730101e+05
   1.452578e+06  -4.951046e+05
   1.213713e+06   1.680243e+05
   1.423017e+05   5.028708e+05
  -6.230479e+05   2.688858e+05
  -3.567435e+05  -2.775112e+05
   5.839522e+05  -4.849386e+05
   1.139009e+06   1.103279e+05
   6.118399e+05   1.158202e+06
  -6.147645e+05   1.629432e+06
  -1.455602e+06   8.247027e+05
  -1.206302e+06  -7.524004e+05
  -1.780610e+05  -1.739573e+06
   7.251992e+05  -1.260073e+06
   8.965768e+05   1.601590e+05
   4.251604e+05   1.151664e+06
  -1.962973e+05   9.459267e+05
  -5.364742e+05   8.570348e+04
  -4.643276e+05  -3.710468e+05
  -1.754529e+05  -1.382387e+05
  -4.041853e+04   9.662186e+04
  -2.416579e+05  -2.782059e+05
  -4.752352e+05  -9.342091e+05
  -1.974629e+05  -1.046240e+06
   6.698579e+05  -3.776108e+05
   1.426461e+06   4.614402e+05
   1.250939e+06   8.171213e+05
   1.754668e+05   6.727540e+05
  -8.448504e+05   3.992329e+05
  -9.586648e+05   1.757001e+05
  -3.341177e+05  -4.618117e+04
   1.487408e+05  -2.162779e+05
   1.687527e+04  -2.048863e+05
  -2.757655e+05  -1.010532e+05
  -4.096865e+04  -1.313303e+05
   6.623802e+05  -2.192759e+05
   1.010982e+06   2.439417e+04
   3.872218e+05   6.735011e+05
  -8.406965e+05   1.125224e+06
  -1.639835e+06   7.052733e+05
  -1.342661e+06  -4.398653e+05
  -2.502691e+05  -1.366161e+06
   7.481237e+05  -1.319320e+06
   1.020542e+06  -5.025510e+05
   6.363378e+05   2.376704e+05
   1.202315e+05   3.485356e+05
  -8.354671e+04   5.689547e+04
   7.191327e+04  -2.528610e+04
   2.945191e+05   3.520764e+05
   2.396584e+05   7.826240e+05
  -1.814027e+05   6.534468e+05
  -6.629447e+05  -1.301526e+05
  -7.029650e+05  -9.355827e+05
  -9.114465e+04  -1.000057e+06
   7.401499e+05  -2.249150e+05
   9.956182e+05   7.148711e+05
   3.230085e+05   1.057070e+06
  -6.974838e+05   6.431380e+05
  -1.076618e+06  -8.303829e+04
  -5.023544e+05  -5.886967e+05
   2.828769e+05  -6.435448e+05
   3.598873e+05  -3.492355e+05
  -2.507060e+05  -1.194157e+04
  -6.318257e+05   3.344857e+04
  -1.361587e+05  -2.975993e+05
   8.022197e+05  -6.536435e+05
   1.210981e+06  -5.213348e+05
   7.245691e+05   1.701475e+05
  -9.974373e+04   8.367841e+05
  -5.310647e+05   8.192844e+05
  -4.045002e+05   1.449916e+05
  -4.538375e+04  -4.691315e+05
   2.366750e+05  -4.153511e+05
   3.425872e+05   1.523650e+05
   2.418647e+05   5.605387e+05
  -5.716970e+04   4.061437e+05
  -3.786962e+05  -4.873644e+04
  -4.545493e+05  -2.688039e+05
  -2.327981e+05  -8.935326e+04
   2.676386e+04   1.400531e+05
   7.637210e+04   2.909074e+04
  -7.661985e+01  -3.501842e+05
   6.877920e+04  -5.274243e+05
   3.183898e+05  -1.969359e+05
   4.338755e+05   3.810466e+05
   1.355569e+05   6.324082e+05
  -4.013119e+05   3.000397e+05
  -6.382394e+05  -2.795391e+05
  -2.404159e+05  -5.601572e+05
   4.907319e+05  -3.500015e+05
   8.505458e+05   8.113209e+04
   4.600659e+05   3.682359e+05
  -2.874806e+05   3.808416e+05
  -6.194308e+05   2.111051e+05
  -2.372645e+05   1.401379e+04
   3.447164e+05  -6.154297e+04
   3.996233e+05   7.000260e+04
  -1.685572e+05   2.877458e+05
  -7.305881e+05   2.629193e+05
