
 $NMID
 id='ANONYMOUS ', fmtdat='(2E16.6)'
 volume=1.0
 tramp=1.0
 $END
  -3.047758e+07   3.659685e+05
  -2.016399e+07  -1.487006e+07
   5.014023e+05  -1.952515e+07
   1.329606e+07  -1.213479e+07
   1.066928e+07  -5.628653e+05
   3.467564e+05   5.401601e+06
  -5.994709e+06   2.280044e+06
  -4.218452e+06  -4.883847e+06
   1.617486e+06  -7.882796e+06
   5.584935e+06  -3.412077e+06
   4.841847e+06   3.794594e+06
   7.039097e+05   6.139865e+06
  -2.828135e+06   1.414839e+06
  -2.323559e+06  -4.907791e+06
   1.722380e+06  -5.864616e+06
   4.987581e+06  -4.559837e+05
   3.687565e+06   5.886806e+06
  -1.376567e+06   7.461125e+06
  -5.750740e+06   3.653067e+06
  -5.982260e+06  -1.592551e+06
  -2.760319e+06  -4.247379e+06
   2.893054e+05  -3.608450e+06
   3.737231e+05  -2.044380e+06
  -1.749731e+06  -2.096520e+06
  -2.527590e+06  -3.806129e+06
   5.539818e+05  -4.780320e+06
   5.651725e+06  -2.977265e+06
   7.852679e+06   7.992559e+05
   4.507682e+06   3.590791e+06
  -1.372241e+06   3.322057e+06
  -4.151745e+06   6.743243e+05
  -1.723641e+06  -1.873902e+06
   2.569221e+06  -2.210147e+06
   4.173789e+06   2.429655e+03
   2.148370e+06   3.049482e+06
  -8.012400e+05   4.173131e+06
  -1.929825e+06   2.026746e+06
  -9.770914e+05  -1.356943e+06
   4.043286e+05  -2.200023e+06
   6.006914e+05   5.305337e+05
  -6.479614e+05   3.348398e+06
  -2.109444e+06   2.361888e+06
  -2.048878e+06  -1.562493e+06
   5.455264e+04  -3.622002e+06
   2.516480e+06  -1.116233e+06
   2.683872e+06   3.181990e+06
  -3.199660e+05   4.499835e+06
  -4.211619e+06   1.546572e+06
  -5.389337e+06  -2.628077e+06
  -2.436035e+06  -4.390133e+06
   2.273983e+06  -2.851082e+06
   4.679619e+06   1.590552e+05
   2.913683e+06   2.152367e+06
  -9.266923e+05   1.867607e+06
  -3.009213e+06   3.027129e+04
  -1.717153e+06  -1.366815e+06
   9.021962e+05  -9.737321e+05
   1.708127e+06   5.410499e+05
   4.630693e+04   1.318882e+06
  -1.732029e+06   4.651435e+05
  -1.200560e+06  -1.049551e+06
   1.303008e+06  -1.582021e+06
   3.069621e+06  -4.014320e+05
   1.952674e+06   1.861094e+06
  -1.442559e+06   3.678742e+06
  -4.431094e+06   3.467817e+06
  -4.830596e+06   7.958537e+05
  -2.813724e+06  -2.781092e+06
  -3.819579e+05  -4.721267e+06
   7.677170e+05  -3.972823e+06
   7.190643e+05  -2.060758e+06
   7.634798e+05  -1.116948e+06
   1.666333e+06  -1.253147e+06
   2.791038e+06  -7.733546e+05
   2.880321e+06   1.126429e+06
   1.416221e+06   2.930235e+06
  -8.309640e+05   2.567606e+06
  -2.344957e+06   2.617778e+03
  -1.940522e+06  -2.573337e+06
   2.652390e+05  -2.970888e+06
   2.680568e+06  -1.012513e+06
   3.382201e+06   1.584641e+06
   1.894528e+06   2.943730e+06
  -2.786039e+05   2.581237e+06
  -1.299018e+06   1.495356e+06
  -1.078611e+06   9.177717e+05
  -1.188553e+06   1.027971e+06
  -2.584007e+06   9.049648e+05
  -4.038761e+06  -3.179934e+05
  -3.411660e+06  -2.380309e+06
  -2.948195e+05  -3.979664e+06
   3.164210e+06  -3.839428e+06
   4.286512e+06  -1.796980e+06
   2.487833e+06   8.930980e+05
  -2.647421e+05   2.359775e+06
  -1.484587e+06   1.658913e+06
  -4.961390e+05  -2.203751e+05
   1.206936e+06  -1.206343e+06
   1.718243e+06  -3.503245e+05
   6.533719e+05   1.071333e+06
  -6.670647e+05   1.121974e+06
  -7.625704e+05  -3.029629e+05
   4.858588e+05  -1.222309e+06
   1.801643e+06  -1.809296e+03
   1.749234e+06   2.526998e+06
  -2.840242e+04   3.861994e+06
  -2.491661e+06   2.521170e+06
  -3.909547e+06  -4.864098e+05
  -3.162583e+06  -2.806320e+06
  -7.758467e+05  -2.983333e+06
   1.358813e+06  -1.535223e+06
   1.675622e+06  -1.377278e+05
   4.920725e+05   3.725819e+04
  -3.856423e+05  -7.231665e+05
   2.496731e+05  -1.192822e+06
   1.609868e+06  -5.936088e+05
   1.901812e+06   5.911273e+05
   5.377745e+05   1.200263e+06
  -1.075593e+06   6.710583e+05
  -1.092575e+06  -3.943072e+05
   6.731191e+05  -8.677865e+05
   2.445330e+06  -1.592539e+05
   2.282687e+06   1.279783e+06
   7.506137e+04   2.305746e+06
  -2.300855e+06   1.981017e+06
  -2.808299e+06   4.283200e+05
  -1.211516e+06  -1.106016e+06
   7.884708e+05  -1.314021e+06
   1.312527e+06  -1.717004e+05
   9.839029e+04   9.437698e+05
  -1.438535e+06   7.208108e+05
  -1.743749e+06  -6.189582e+05
  -5.879209e+05  -1.601537e+06
   8.779399e+05  -1.209631e+06
   1.315835e+06   1.342600e+04
   4.573743e+05   6.783815e+05
  -6.609402e+05   1.139097e+05
  -7.000535e+05  -9.915816e+05
   5.951117e+05  -1.387997e+06
   2.002453e+06  -5.075541e+05
   2.004923e+06   1.036034e+06
   4.266923e+05   2.015504e+06
  -1.308633e+06   1.662036e+06
  -1.674129e+06   3.361190e+05
  -6.093773e+05  -8.020208e+05
   5.841428e+05  -8.729433e+05
   7.512234e+05  -8.418253e+04
   5.246504e+02   5.779085e+05
  -6.542235e+05   4.517912e+05
  -4.811630e+05  -1.132209e+05
   2.581198e+05  -2.389404e+05
   6.354592e+05   4.031628e+05
   3.896591e+03   1.140526e+06
  -1.285715e+06   9.771430e+05
  -2.082804e+06  -3.240675e+05
  -1.496734e+06  -1.887244e+06
   1.600962e+05  -2.474621e+06
   1.607414e+06  -1.619922e+06
   1.859817e+06  -4.807013e+04
   1.136632e+06   1.024609e+06
   4.225203e+05   1.021178e+06
   2.921285e+05   4.461025e+05
   3.968784e+05   2.157837e+05
   7.278201e+04   6.080145e+05
  -7.759556e+05   9.670856e+05
  -1.487057e+06   4.938831e+05
  -1.249348e+06  -7.360638e+05
   9.215154e+04  -1.668114e+06
   1.718603e+06  -1.266814e+06
   2.350131e+06   3.839520e+05
   1.309405e+06   2.035868e+06
  -7.691704e+05   2.381531e+06
  -2.382901e+06   1.229535e+06
  -2.464885e+06  -3.993843e+05
  -1.271968e+06  -1.303548e+06
   2.641903e+04  -1.188287e+06
   5.402372e+05  -7.448667e+05
   3.664744e+05  -7.378956e+05
   2.275616e+05  -1.128988e+06
   5.932708e+05  -1.165656e+06
   1.195202e+06  -3.011567e+05
   1.322739e+06   1.075350e+06
   5.772494e+05   1.904079e+06
  -6.206359e+05   1.459462e+06
  -1.311441e+06   6.744598e+04
  -8.985952e+05  -1.178662e+06
   2.122908e+05  -1.393403e+06
   9.836828e+05  -6.064028e+05
   8.045535e+05   4.124766e+05
   8.466978e+04   9.285502e+05
  -2.844059e+05   8.257676e+05
   2.217108e+04   5.133242e+05
   4.000024e+05   3.807587e+05
   4.035861e+04   4.060950e+05
  -1.066383e+06   2.666844e+05
  -1.964181e+06  -2.397352e+05
  -1.645022e+06  -9.229694e+05
  -1.371940e+05  -1.329234e+06
   1.400774e+06  -1.129643e+06
   1.770033e+06  -4.260872e+05
   8.989486e+05   2.825160e+05
  -1.741341e+05   4.854891e+05
  -4.597349e+05   1.237584e+05
   2.174654e+04  -3.078616e+05
   5.032160e+05  -2.354283e+05
   4.680649e+05   3.387722e+05
   1.272212e+05   7.661105e+05
  -2.770039e+04   4.925593e+05
   1.505876e+05  -1.970246e+05
   3.825102e+05  -4.245336e+05
   3.092813e+05   2.113309e+05
  -1.914149e+05   1.046100e+06
  -8.767825e+05   1.064419e+06
  -1.202381e+06   1.061802e+05
  -7.093889e+05  -9.124752e+05
   3.983806e+05  -1.022413e+06
   1.166695e+06  -2.253979e+05
   7.289405e+05   6.096588e+05
  -6.575150e+05   6.964039e+05
  -1.666821e+06   1.731227e+04
  -1.222526e+06  -8.095841e+05
   3.268987e+05  -1.125305e+06
   1.540185e+06  -7.167765e+05
   1.378412e+06   5.975121e+04
   2.207904e+05   5.501138e+05
  -6.338534e+05   3.538551e+05
  -3.487220e+05  -2.462508e+05
   6.491281e+05  -4.725764e+05
   1.187486e+06   1.653636e+05
   5.744832e+05   1.240871e+06
  -7.198368e+05   1.684960e+06
  -1.565189e+06   8.288620e+05
  -1.282679e+06  -8.046810e+05
  -2.146144e+05  -1.856121e+06
   7.374440e+05  -1.406772e+06
   9.732493e+05   7.884695e+04
   5.510962e+05   1.198619e+06
  -9.316421e+04   1.059115e+06
  -5.387394e+05   1.441167e+05
  -5.670366e+05  -3.973056e+05
  -2.623272e+05  -1.668905e+05
  -1.245520e+04   1.268504e+05
  -1.580652e+05  -2.352362e+05
  -4.871741e+05  -9.537008e+05
  -3.246297e+05  -1.120864e+06
   5.973938e+05  -4.353630e+05
   1.536503e+06   4.560192e+05
   1.429218e+06   8.355233e+05
   2.131434e+05   6.899110e+05
  -9.582580e+05   4.323309e+05
  -1.038783e+06   2.366089e+05
  -2.931344e+05   4.685985e+03
   1.813175e+05  -2.235973e+05
  -7.311070e+04  -2.627460e+05
  -3.856298e+05  -1.535146e+05
  -9.211734e+03  -1.429239e+05
   7.948510e+05  -2.054848e+05
   1.054833e+06   3.750092e+04
   2.824264e+05   6.861339e+05
  -9.574236e+05   1.141451e+06
  -1.654655e+06   7.000969e+05
  -1.305492e+06  -4.957845e+05
  -2.453317e+05  -1.452606e+06
   7.453429e+05  -1.370499e+06
   1.065964e+06  -4.799919e+05
   6.862599e+05   2.943851e+05
   9.118221e+04   3.634373e+05
  -1.662885e+05   4.825813e+03
   4.680996e+04  -9.081812e+04
   3.587163e+05   3.400467e+05
   2.999438e+05   8.219041e+05
  -2.016904e+05   6.706350e+05
  -7.168512e+05  -1.919907e+05
  -6.950858e+05  -1.037976e+06
  -6.241585e+03  -1.040904e+06
   8.302776e+05  -1.566383e+05
   1.024920e+06   8.239269e+05
   2.914968e+05   1.104697e+06
  -7.421935e+05   6.177127e+05
  -1.090407e+06  -1.027833e+05
  -4.849702e+05  -5.543181e+05
   2.846592e+05  -6.000696e+05
   3.031416e+05  -3.533152e+05
  -3.431239e+05  -4.266850e+04
  -6.859642e+05   2.737078e+04
  -1.186034e+05  -2.962670e+05
   8.391552e+05  -7.068992e+05
   1.203377e+06  -6.216426e+05
   6.860586e+05   1.084106e+05
  -1.044505e+05   8.501058e+05
  -4.817629e+05   8.357789e+05
  -3.440695e+05   9.949335e+04
  -8.428370e+03  -5.259482e+05
   2.605513e+05  -3.954349e+05
   3.651742e+05   2.293339e+05
   2.471573e+05   5.911267e+05
  -7.573553e+04   3.621348e+05
  -3.953965e+05  -8.033918e+04
  -4.560470e+05  -2.293924e+05
  -2.457062e+05  -4.753564e+04
  -6.301301e+03   9.028055e+04
   8.132955e+04  -8.668425e+04
   9.857224e+04  -4.134425e+05
   2.101196e+05  -4.741765e+05
   3.775550e+05  -7.666915e+04
   3.614493e+05   4.833475e+05
   1.743342e+04   6.744740e+05
  -4.573111e+05   2.812671e+05
  -6.238907e+05  -3.388708e+05
  -2.177956e+05  -6.172825e+05
   4.930189e+05  -3.601738e+05
   8.519450e+05   1.138531e+05
   4.640713e+05   3.871676e+05
  -3.002312e+05   3.474341e+05
  -6.304821e+05   1.579375e+05
  -1.924068e+05   4.856681e+03
   4.416684e+05  -6.075071e+03
   4.510637e+05   1.542666e+05
  -2.426700e+05   3.511553e+05
  -8.756630e+05   2.745449e+05
