
 $NMID
 id='ANONYMOUS ', fmtdat='(2E16.6)'
 volume=1.0
 tramp=1.0
 $END
  -2.401757e+07  -1.558375e+06
  -1.453533e+07  -1.349674e+07
   2.202244e+06  -1.540271e+07
   1.132029e+07  -8.005565e+06
   7.979600e+06   8.796378e+05
  -4.091130e+05   4.193393e+06
  -4.669283e+06   1.016925e+06
  -2.604703e+06  -4.075585e+06
   1.908868e+06  -5.624037e+06
   4.472909e+06  -2.001362e+06
   3.455371e+06   3.198892e+06
   1.921545e+05   4.672400e+06
  -2.254778e+06   9.984219e+05
  -1.517164e+06  -3.666608e+06
   1.645896e+06  -4.143005e+06
   3.785754e+06   1.007016e+05
   2.343952e+06   4.740628e+06
  -1.617329e+06   5.561751e+06
  -4.689519e+06   2.427071e+06
  -4.600478e+06  -1.560493e+06
  -2.042367e+06  -3.528286e+06
   3.999287e+05  -3.034775e+06
   6.917234e+05  -1.735681e+06
  -8.015477e+05  -1.513168e+06
  -1.553434e+06  -2.604596e+06
   4.816925e+05  -3.339345e+06
   4.142727e+06  -2.048293e+06
   5.772286e+06   7.877015e+05
   3.316174e+06   2.859542e+06
  -9.952956e+05   2.554024e+06
  -3.014349e+06   5.378594e+05
  -1.294135e+06  -1.244257e+06
   1.702580e+06  -1.418588e+06
   2.813569e+06   7.544404e+04
   1.435545e+06   2.128902e+06
  -6.270082e+05   2.965335e+06
  -1.512262e+06   1.521314e+06
  -8.847358e+05  -9.734743e+05
   2.180296e+05  -1.749011e+06
   4.830172e+05   1.819461e+05
  -4.783410e+05   2.302816e+06
  -1.621598e+06   1.577918e+06
  -1.399542e+06  -1.361550e+06
   4.426297e+05  -2.756209e+06
   2.228261e+06  -5.910392e+05
   1.930373e+06   2.753149e+06
  -6.205759e+05   3.508493e+06
  -3.356121e+06   9.464396e+05
  -3.832503e+06  -2.266445e+06
  -1.473330e+06  -3.349795e+06
   1.841923e+06  -1.909938e+06
   3.355943e+06   4.314529e+05
   1.914079e+06   1.779204e+06
  -8.930915e+05   1.318647e+06
  -2.282026e+06  -2.150763e+05
  -1.169105e+06  -1.195004e+06
   7.710680e+05  -6.964603e+05
   1.198706e+06   5.049135e+05
  -1.336596e+05   8.940269e+05
  -1.282328e+06   4.998083e+04
  -6.106528e+05  -9.811600e+05
   1.289166e+06  -1.035027e+06
   2.358359e+06   4.936067e+04
   1.294720e+06   1.599972e+06
  -1.247703e+06   2.678424e+06
  -3.374757e+06   2.381176e+06
  -3.607360e+06   4.176060e+05
  -2.034180e+06  -2.169399e+06
  -9.160198e+04  -3.524197e+06
   8.361611e+05  -2.845565e+06
   6.839269e+05  -1.325911e+06
   5.052667e+05  -6.333610e+05
   1.063392e+06  -8.296623e+05
   1.919199e+06  -5.681515e+05
   2.032418e+06   7.775044e+05
   9.835067e+05   2.067651e+06
  -6.010575e+05   1.792779e+06
  -1.614791e+06  -4.201247e+04
  -1.283377e+06  -1.861153e+06
   2.778436e+05  -2.119435e+06
   1.978036e+06  -6.769050e+05
   2.455420e+06   1.255689e+06
   1.325525e+06   2.280839e+06
  -3.269359e+05   1.978098e+06
  -1.104274e+06   1.088737e+06
  -9.107730e+05   5.908038e+05
  -9.311656e+05   6.330035e+05
  -1.889101e+06   4.970440e+05
  -2.869873e+06  -4.292936e+05
  -2.326800e+06  -1.862721e+06
  -3.832339e+04  -2.851527e+06
   2.402193e+06  -2.611131e+06
   3.120703e+06  -1.142347e+06
   1.771473e+06   6.958791e+05
  -2.252025e+05   1.677132e+06
  -1.103211e+06   1.164811e+06
  -3.686303e+05  -1.612646e+05
   8.966974e+05  -8.343892e+05
   1.266845e+06  -1.905210e+05
   4.534806e+05   8.137732e+05
  -5.104399e+05   7.924303e+05
  -5.130502e+05  -2.379826e+05
   4.237878e+05  -8.000931e+05
   1.255887e+06   1.715878e+05
   1.026378e+06   1.922143e+06
  -2.998497e+05   2.673556e+06
  -1.895049e+06   1.555700e+06
  -2.683421e+06  -5.767756e+05
  -2.060028e+06  -2.101672e+06
  -4.144506e+05  -2.112900e+06
   1.017474e+06  -1.032471e+06
   1.196051e+06  -3.875081e+04
   3.500262e+05   5.006776e+04
  -2.483016e+05  -5.312549e+05
   2.367505e+05  -8.539341e+05
   1.198422e+06  -3.595090e+05
   1.347951e+06   5.222362e+05
   3.292647e+05   9.001488e+05
  -7.966745e+05   4.401386e+05
  -7.530129e+05  -3.127763e+05
   5.062395e+05  -5.559445e+05
   1.703007e+06   1.103008e+04
   1.525180e+06   9.869736e+05
  -5.297713e+04   1.605090e+06
  -1.706913e+06   1.292993e+06
  -2.013595e+06   1.815901e+05
  -8.203332e+05  -8.552741e+05
   6.313079e+05  -9.258261e+05
   9.720024e+05  -6.845453e+04
   4.546643e+04   6.960028e+05
  -1.060878e+06   4.636885e+05
  -1.217565e+06  -5.213778e+05
  -3.371211e+05  -1.167940e+06
   6.880109e+05  -8.100119e+05
   9.330977e+05   8.149573e+04
   2.891326e+05   5.091599e+05
  -4.794943e+05   5.842723e+04
  -4.649049e+05  -7.277481e+05
   4.672897e+05  -9.637342e+05
   1.439081e+06  -2.886462e+05
   1.388149e+06   8.145134e+05
   2.211586e+05   1.456717e+06
  -1.010579e+06   1.130085e+06
  -1.214382e+06   1.600798e+05
  -3.985407e+05  -6.056304e+05
   4.544550e+05  -6.003552e+05
   5.351357e+05  -3.920788e+04
  -1.588743e+04   3.891818e+05
  -4.548425e+05   2.846106e+05
  -3.082947e+05  -7.779540e+04
   1.936500e+05  -1.226158e+05
   4.109921e+05   3.296682e+05
  -6.341896e+04   8.031166e+05
  -9.555657e+05   6.303945e+05
  -1.462398e+06  -3.195989e+05
  -9.842162e+05  -1.403799e+06
   2.172154e+05  -1.749156e+06
   1.206672e+06  -1.072496e+06
   1.308817e+06   5.264745e+04
   7.468789e+05   7.627469e+05
   2.572169e+05   7.155106e+05
   2.068128e+05   3.169390e+05
   2.844530e+05   1.816383e+05
   1.922243e+04   4.433142e+05
  -5.975035e+05   6.404629e+05
  -1.062226e+06   2.724475e+05
  -8.336324e+05  -5.663381e+05
   1.421543e+05  -1.154698e+06
   1.262987e+06  -8.109708e+05
   1.640616e+06   3.717544e+05
   8.355694e+05   1.497737e+06
  -6.568562e+05   1.655322e+06
  -1.750467e+06   7.616872e+05
  -1.724086e+06  -3.992757e+05
  -8.295710e+05  -9.740869e+05
   7.325839e+04  -8.219361e+05
   3.967500e+05  -4.939199e+05
   2.693975e+05  -5.187611e+05
   2.034743e+05  -8.114916e+05
   4.787292e+05  -8.134893e+05
   8.705106e+05  -1.654300e+05
   8.994133e+05   8.185044e+05
   3.342763e+05   1.376640e+06
  -4.987750e+05   1.013226e+06
  -9.325993e+05  -6.717716e+03
  -5.841814e+05  -8.784797e+05
   2.190739e+05  -9.784639e+05
   7.309365e+05  -3.739113e+05
   5.480062e+05   3.448852e+05
   4.924868e+03   6.678354e+05
  -2.502466e+05   5.664065e+05
  -9.670433e+03   3.579529e+05
   2.696341e+05   2.857502e+05
   1.159786e+04   2.879954e+05
  -7.715655e+05   1.378415e+05
  -1.387285e+06  -2.596758e+05
  -1.126589e+06  -7.283394e+05
  -3.205340e+04  -9.519700e+05
   1.052748e+06  -7.429497e+05
   1.277402e+06  -2.211407e+05
   6.194906e+05   2.487647e+05
  -1.516103e+05   3.405530e+05
  -3.323056e+05   6.124341e+04
   3.095430e+04  -2.260910e+05
   3.670463e+05  -1.473450e+05
   3.188529e+05   2.630706e+05
   6.565280e+04   5.513958e+05
  -3.243976e+04   3.522381e+05
   1.114853e+05  -1.258347e+05
   2.763728e+05  -2.795291e+05
   2.038495e+05   1.606389e+05
  -1.754482e+05   7.284268e+05
  -6.646073e+05   7.171923e+05
  -8.663851e+05   2.666439e+04
  -4.742031e+05  -6.799019e+05
   3.286529e+05  -7.158657e+05
   8.465904e+05  -1.155492e+05
   4.936625e+05   4.621804e+05
  -4.987520e+05   4.631906e+05
  -1.177968e+06  -6.313732e+04
  -8.193662e+05  -6.241588e+05
   2.863271e+05  -7.726335e+05
   1.115353e+06  -4.312591e+05
   9.641984e+05   1.033251e+05
   1.300773e+05   3.955440e+05
  -4.636448e+05   2.211500e+05
  -2.398063e+05  -1.919726e+05
   4.767726e+05  -3.145948e+05
   8.393296e+05   1.596151e+05
   3.656852e+05   9.045643e+05
  -5.740365e+05   1.173785e+06
  -1.144932e+06   5.304121e+05
  -8.788687e+05  -6.227827e+05
  -7.611339e+04  -1.325247e+06
   5.800032e+05  -9.626757e+05
   6.826265e+05   1.008533e+05
   3.353949e+05   8.703620e+05
  -1.135221e+05   7.396122e+05
  -3.872287e+05   7.662714e+04
  -3.812613e+05  -3.005762e+05
  -1.753047e+05  -1.240089e+05
  -1.575314e+04   8.733579e+04
  -1.086036e+05  -1.804592e+05
  -3.089691e+05  -6.998794e+05
  -1.785900e+05  -8.049320e+05
   4.488360e+05  -2.796925e+05
   1.070507e+06   3.867457e+05
   9.728067e+05   6.492309e+05
   1.204635e+05   4.987159e+05
  -6.929588e+05   2.695943e+05
  -7.434329e+05   1.234981e+05
  -2.107219e+05  -1.454023e+04
   1.366413e+05  -1.534442e+05
  -3.524772e+04  -1.833471e+05
  -2.616135e+05  -1.167469e+05
  -3.865083e+03  -1.012626e+05
   5.656093e+05  -1.191627e+05
   7.486714e+05   6.740579e+04
   1.820024e+05   5.043218e+05
  -7.219175e+05   7.788085e+05
  -1.210569e+06   4.321932e+05
  -9.166041e+05  -4.059831e+05
  -1.176128e+05  -1.041247e+06
   5.876662e+05  -9.430091e+05
   7.775077e+05  -3.015471e+05
   4.753438e+05   2.317030e+05
   5.325504e+04   2.621977e+05
  -1.137743e+05   3.400726e+03
   3.672414e+04  -5.678124e+04
   2.366111e+05   2.559689e+05
   1.776929e+05   5.938952e+05
  -1.687025e+05   4.706725e+05
  -5.021984e+05  -1.590990e+05
  -4.585410e+05  -7.624879e+05
   3.046616e+04  -7.443224e+05
   5.955457e+05  -8.606362e+04
   6.996923e+05   6.222347e+05
   1.660041e+05   7.988967e+05
  -5.534415e+05   4.134884e+05
  -7.737614e+05  -1.168439e+05
  -3.232874e+05  -4.186102e+05
   2.289326e+05  -4.195765e+05
   2.344629e+05  -2.379226e+05
  -2.375256e+05  -4.014195e+04
  -4.867397e+05  -7.108704e+03
  -7.326266e+04  -2.172514e+05
   6.243957e+05  -4.672759e+05
   8.828295e+05  -3.860843e+05
   4.865183e+05   1.123511e+05
  -1.093763e+05   6.024347e+05
  -3.824177e+05   5.739084e+05
  -2.560228e+05   5.772113e+04
   1.146515e+04  -3.730588e+05
   2.016141e+05  -2.735808e+05
   2.520733e+05   1.726971e+05
   1.523820e+05   4.300429e+05
  -6.941953e+04   2.594678e+05
  -2.791085e+05  -7.086608e+04
  -3.149250e+05  -1.859239e+05
  -1.710823e+05  -4.717295e+04
  -7.320585e+03   6.903351e+04
   5.732872e+04  -4.990136e+04
   7.789358e+04  -2.899649e+05
   1.611416e+05  -3.391146e+05
   2.728908e+05  -5.016157e+04
   2.471380e+05   3.553775e+05
  -5.468226e+03   4.835183e+05
  -3.348300e+05   1.849874e+05
  -4.343791e+05  -2.641805e+05
  -1.333423e+05  -4.462156e+05
   3.665176e+05  -2.357717e+05
   6.046997e+05   1.143022e+05
   3.157857e+05   2.943364e+05
  -2.292021e+05   2.388955e+05
  -4.584114e+05   9.106935e+04
  -1.417198e+05  -5.827913e+03
   3.105858e+05   5.939523e+03
   3.153657e+05   1.207860e+05
  -1.800021e+05   2.389156e+05
  -6.258281e+05   1.640320e+05
