
 $NMID
 id='ANONYMOUS ', fmtdat='(2E16.6)'
 volume=1.0
 tramp=1.0
 $END
  -4.072004e+07  -6.695320e+05
  -2.412216e+07  -2.591230e+07
   5.990957e+06  -2.766403e+07
   2.036618e+07  -1.007584e+07
   1.188871e+07   5.585830e+06
  -2.641110e+06   6.765176e+06
  -7.161182e+06  -1.198617e+06
  -1.748185e+06  -7.219847e+06
   4.799551e+06  -6.573901e+06
   7.063349e+06  -1.178723e+06
   4.902965e+06   4.574412e+06
   4.202436e+05   6.145448e+06
  -2.872529e+06   1.917222e+06
  -1.711543e+06  -3.876721e+06
   2.903161e+06  -4.560490e+06
   5.675024e+06   1.154949e+06
   3.003174e+06   7.452017e+06
  -2.947657e+06   8.442306e+06
  -7.368159e+06   4.116498e+06
  -7.761994e+06  -1.577881e+06
  -4.746963e+06  -5.440419e+06
  -4.881200e+05  -6.299275e+06
   2.197919e+06  -4.465899e+06
   1.563398e+06  -1.994159e+06
  -5.579340e+05  -1.483534e+06
  -8.565472e+04  -2.840714e+06
   3.809102e+06  -2.979109e+06
   6.789095e+06  -2.202329e+05
   4.954464e+06   3.004597e+06
   1.972156e+05   3.570080e+06
  -2.559627e+06   1.782390e+06
  -1.695307e+06   8.313681e+04
   3.779919e+05  -4.860863e+05
   1.467447e+06  -2.360124e+05
   1.429056e+06   9.587346e+05
   4.531328e+05   2.682393e+06
  -1.284256e+06   2.733955e+06
  -2.332206e+06  -2.472006e+03
  -1.268510e+06  -2.581800e+06
   5.109026e+05  -1.469502e+06
   1.947584e+05   1.629068e+06
  -1.799593e+06   1.543770e+06
  -1.697859e+06  -2.373142e+06
   1.907495e+06  -4.436578e+06
   5.127595e+06  -6.713194e+05
   3.649430e+06   5.091861e+06
  -1.513294e+06   6.175485e+06
  -5.391735e+06   1.643721e+06
  -4.871411e+06  -3.343749e+06
  -1.139759e+06  -4.371759e+06
   2.575157e+06  -1.826339e+06
   3.706097e+06   1.273322e+06
   1.611254e+06   2.597103e+06
  -1.820705e+06   1.537240e+06
  -3.251277e+06  -7.709975e+05
  -1.345080e+06  -2.021083e+06
   1.268072e+06  -9.592244e+05
   1.203519e+06   7.934386e+05
  -1.041826e+06   6.332022e+05
  -1.805168e+06  -1.390337e+06
   5.371870e+05  -2.586408e+06
   3.454219e+06  -1.340304e+06
   3.849615e+06   1.109876e+06
   1.602997e+06   2.943146e+06
  -1.367425e+06   3.720534e+06
  -3.609637e+06   3.331198e+06
  -4.407820e+06   1.145871e+06
  -3.218024e+06  -2.285620e+06
  -5.685567e+05  -4.390930e+06
   1.467551e+06  -3.360824e+06
   1.358015e+06  -7.945368e+05
   1.277536e+05   2.814061e+05
  -7.662816e+04  -6.032328e+05
   1.064906e+06  -1.215575e+06
   1.916731e+06  -1.621531e+05
   1.359607e+06   1.328327e+06
  -1.110656e+04   1.445842e+06
  -1.041695e+06   8.075898e+04
  -1.082125e+06  -1.484125e+06
   6.784951e+04  -2.042377e+06
   1.962472e+06  -1.118190e+06
   3.138314e+06   8.953593e+05
   2.251041e+06   2.713838e+06
  -6.855396e+04   3.037385e+06
  -1.676376e+06   1.942081e+06
  -1.650855e+06   7.892183e+05
  -1.353540e+06   4.306171e+05
  -2.112930e+06   2.394612e+05
  -3.061055e+06  -6.748375e+05
  -2.382029e+06  -2.062208e+06
   3.479728e+04  -2.914793e+06
   2.365742e+06  -2.647723e+06
   2.972574e+06  -1.380500e+06
   1.844210e+06   3.386177e+05
   1.557347e+05   1.548856e+06
  -7.956684e+05   1.327728e+06
  -3.919314e+05  -2.792978e+04
   7.922565e+05  -8.901085e+05
   1.362406e+06  -2.342934e+05
   6.343700e+05   8.723038e+05
  -3.882704e+05   7.618058e+05
  -2.722807e+05  -3.059569e+05
   8.285185e+05  -4.487359e+05
   1.321916e+06   1.039697e+06
   3.174541e+05   2.574035e+06
  -1.338871e+06   2.382269e+06
  -2.337949e+06   6.222333e+05
  -2.279860e+06  -1.201356e+06
  -1.454434e+06  -2.041388e+06
  -2.031393e+05  -1.836770e+06
   9.118158e+05  -9.829115e+05
   1.106983e+06  -1.151491e+05
   3.460523e+05   4.781316e+04
  -2.288283e+05  -5.441461e+05
   3.380719e+05  -9.500011e+05
   1.384303e+06  -3.608126e+05
   1.428257e+06   7.043365e+05
   2.255611e+05   1.033116e+06
  -8.555850e+05   3.633227e+05
  -6.000650e+05  -3.617694e+05
   6.424756e+05  -3.212545e+05
   1.526536e+06   3.407484e+05
   1.148974e+06   1.038057e+06
  -2.750369e+05   1.368675e+06
  -1.692086e+06   1.069784e+06
  -1.967652e+06   9.409143e+04
  -8.265855e+05  -9.422513e+05
   6.969362e+05  -1.051715e+06
   1.125306e+06  -9.774099e+04
   1.227683e+05   7.754662e+05
  -1.098613e+06   4.782594e+05
  -1.193304e+06  -6.191289e+05
  -1.681179e+05  -1.191258e+06
   8.287055e+05  -6.446083e+05
   8.851088e+05   2.872852e+05
   1.351340e+05   5.771633e+05
  -5.785083e+05   1.479855e+04
  -4.941492e+05  -7.702562e+05
   4.464778e+05  -9.910025e+05
   1.433343e+06  -3.261949e+05
   1.409269e+06   8.029969e+05
   2.067718e+05   1.483932e+06
  -1.079597e+06   1.119971e+06
  -1.235418e+06   8.626218e+04
  -3.209460e+05  -6.395503e+05
   4.996399e+05  -5.439759e+05
   4.396228e+05  -2.906482e+04
  -1.142794e+05   2.365425e+05
  -3.487297e+05   1.039715e+05
  -5.062497e+04  -6.018513e+04
   3.436699e+05   8.855388e+04
   3.450169e+05   5.190955e+05
  -1.994172e+05   8.442669e+05
  -1.015371e+06   5.863417e+05
  -1.460794e+06  -3.639448e+05
  -9.750265e+05  -1.423144e+06
   2.335242e+05  -1.700114e+06
   1.192105e+06  -9.293584e+05
   1.180162e+06   1.633169e+05
   5.471999e+05   6.583281e+05
   1.795943e+05   4.402725e+05
   3.378320e+05   1.411660e+05
   4.579234e+05   2.397185e+05
   4.892596e+04   5.556551e+05
  -6.577604e+05   6.070043e+05
  -1.035089e+06   1.677646e+05
  -6.995068e+05  -5.483618e+05
   2.440710e+05  -1.009360e+06
   1.255973e+06  -6.865804e+05
   1.566461e+06   4.228354e+05
   7.225976e+05   1.529957e+06
  -8.078878e+05   1.647594e+06
  -1.849135e+06   6.385838e+05
  -1.639106e+06  -5.660242e+05
  -6.055643e+05  -9.900490e+05
   2.009007e+05  -6.455104e+05
   2.852773e+05  -3.201434e+05
   5.001453e+04  -5.192998e+05
   9.329292e+04  -9.313822e+05
   5.142937e+05  -9.042392e+05
   9.314650e+05  -1.919269e+05
   9.138887e+05   8.023039e+05
   3.344865e+05   1.353949e+06
  -4.826945e+05   9.941039e+05
  -9.078160e+05  -4.777802e+04
  -5.307716e+05  -9.440009e+05
   3.347742e+05  -9.811823e+05
   8.583279e+05  -2.389180e+05
   5.636043e+05   5.441022e+05
  -1.336478e+05   7.781869e+05
  -4.286156e+05   5.417763e+05
  -8.695381e+04   2.857691e+05
   2.976177e+05   2.438996e+05
   3.214590e+04   2.692666e+05
  -8.276113e+05   1.118334e+05
  -1.460304e+06  -3.009621e+05
  -1.112812e+06  -7.923393e+05
   8.276045e+04  -1.029678e+06
   1.174523e+06  -7.670715e+05
   1.313580e+06  -1.290887e+05
   5.756661e+05   3.979896e+05
  -2.067177e+05   4.061667e+05
  -3.712050e+05   1.431418e+03
  -1.949518e+04  -3.080744e+05
   3.127258e+05  -1.699113e+05
   3.319606e+05   2.550003e+05
   1.708512e+05   5.079511e+05
   6.759438e+04   3.347462e+05
   1.022425e+05  -5.093057e+04
   1.991774e+05  -1.794823e+05
   1.848013e+05   1.756737e+05
  -1.244020e+05   6.837866e+05
  -6.677431e+05   7.286537e+05
  -9.828631e+05   1.000387e+05
  -5.933884e+05  -6.643278e+05
   3.223275e+05  -8.079557e+05
   9.044452e+05  -2.207537e+05
   5.017443e+05   4.203810e+05
  -5.218059e+05   4.340600e+05
  -1.114036e+06  -1.303189e+05
  -6.606394e+05  -6.539997e+05
   3.957776e+05  -6.737864e+05
   1.076724e+06  -2.630144e+05
   8.520727e+05   1.929917e+05
   6.734363e+04   3.658703e+05
  -4.722630e+05   1.611774e+05
  -2.704111e+05  -2.238125e+05
   4.167896e+05  -3.584995e+05
   8.311511e+05   7.610938e+04
   4.566000e+05   8.406919e+05
  -4.406781e+05   1.188034e+06
  -1.058518e+06   5.950945e+05
  -8.643143e+05  -5.620744e+05
  -9.324897e+04  -1.264640e+06
   5.629359e+05  -8.799126e+05
   6.469636e+05   1.670081e+05
   2.543326e+05   8.593895e+05
  -2.057915e+05   6.706933e+05
  -4.068707e+05   3.557098e+04
  -3.023868e+05  -2.801457e+05
  -9.397322e+04  -1.002957e+05
  -4.451392e+04   6.215565e+04
  -2.146811e+05  -2.225564e+05
  -3.412276e+05  -6.995355e+05
  -8.206674e+04  -7.670516e+05
   5.395951e+05  -2.589078e+05
   1.023329e+06   3.709812e+05
   8.591951e+05   6.316222e+05
   1.087300e+05   5.028481e+05
  -5.960068e+05   2.701195e+05
  -6.942647e+05   9.240663e+04
  -2.701848e+05  -5.539282e+04
   1.015439e+05  -1.557500e+05
   5.442829e+04  -1.370914e+05
  -1.588925e+05  -6.560493e+04
  -4.115436e+04  -9.220102e+04
   4.462811e+05  -1.540650e+05
   7.406618e+05   2.656100e+04
   3.244421e+05   4.974344e+05
  -5.978272e+05   8.218125e+05
  -1.232463e+06   5.138017e+05
  -1.014564e+06  -3.194157e+05
  -1.698199e+05  -9.939547e+05
   5.800307e+05  -9.629751e+05
   7.519715e+05  -3.726361e+05
   4.516782e+05   1.660442e+05
   9.715310e+04   2.550123e+05
  -2.695029e+04   5.668927e+04
   6.875750e+04   5.932920e+03
   1.929815e+05   2.766339e+05
   1.453612e+05   5.788003e+05
  -1.360679e+05   4.806242e+05
  -4.708490e+05  -8.380678e+04
  -5.142859e+05  -6.687156e+05
  -8.893599e+04  -7.298658e+05
   5.177239e+05  -1.820448e+05
   7.211431e+05   5.059658e+05
   2.408467e+05   7.760999e+05
  -5.109343e+05   4.827334e+05
  -8.007885e+05  -6.657757e+04
  -3.804450e+05  -4.596127e+05
   2.152960e+05  -4.974053e+05
   2.965407e+05  -2.608917e+05
  -1.494707e+05  -5.845499e+03
  -4.529697e+05   1.724068e+04
  -1.062161e+05  -2.241918e+05
   5.982435e+05  -4.589778e+05
   9.247374e+05  -3.399127e+05
   5.619074e+05   1.569587e+05
  -8.256282e+04   6.217728e+05
  -4.278779e+05   6.066961e+05
  -3.259882e+05   1.269187e+05
  -3.991366e+04  -3.277208e+05
   1.711778e+05  -3.156836e+05
   2.414070e+05   8.907747e+04
   1.716402e+05   4.116939e+05
  -3.670015e+04   3.205211e+05
  -2.750788e+05  -2.914820e+04
  -3.407405e+05  -2.222206e+05
  -1.717116e+05  -8.693779e+04
   3.520556e+04   1.228262e+05
   6.315394e+04   6.876919e+04
  -3.107823e+04  -2.310827e+05
  -2.544258e+03  -4.065902e+05
   2.093504e+05  -1.880724e+05
   3.434337e+05   2.451041e+05
   1.390874e+05   4.514418e+05
  -2.809957e+05   2.247116e+05
  -4.779511e+05  -1.920187e+05
  -1.797440e+05  -3.989463e+05
   3.719155e+05  -2.535986e+05
   6.350467e+05   5.682279e+04
   3.388018e+05   2.740427e+05
  -2.124237e+05   2.953725e+05
  -4.592661e+05   1.724363e+05
  -1.954397e+05   1.482707e+04
   2.172829e+05  -5.788205e+04
   2.731775e+05   2.691518e+04
  -1.046231e+05   1.841173e+05
  -4.947649e+05   1.752445e+05
