
 $NMID
 id='ANONYMOUS ', fmtdat='(2E16.6)'
 volume=1.0
 tramp=1.0
 $END
  -2.079804e+07   2.518779e+05
  -1.322795e+07  -1.202468e+07
   1.978623e+06  -1.415835e+07
   1.032667e+07  -6.521027e+06
   6.906601e+06   1.998754e+06
  -9.116196e+05   4.199753e+06
  -4.361510e+06   4.945176e+05
  -2.007653e+06  -3.890669e+06
   2.043589e+06  -4.655270e+06
   4.034896e+06  -1.396644e+06
   2.987078e+06   2.783032e+06
   1.247704e+05   3.956962e+06
  -2.036397e+06   1.046577e+06
  -1.410723e+06  -2.743683e+06
   1.360611e+06  -3.176413e+06
   3.153230e+06   2.547062e+05
   1.800710e+06   3.927710e+06
  -1.510359e+06   4.429137e+06
  -3.897454e+06   1.893959e+06
  -3.854918e+06  -1.182768e+06
  -2.024922e+06  -2.887703e+06
   2.266006e+04  -2.915683e+06
   9.066013e+05  -1.964316e+06
   2.527309e+05  -1.164510e+06
  -6.641975e+05  -1.354832e+06
   1.027970e+05  -2.055964e+06
   2.615146e+06  -1.757581e+06
   4.306029e+06   9.052621e+04
   2.961806e+06   2.036633e+06
  -2.421244e+05   2.317997e+06
  -2.059987e+06   9.855961e+05
  -1.134901e+06  -4.214811e+05
   7.970063e+05  -7.443291e+05
   1.538310e+06   3.419006e+04
   7.840020e+05   1.271196e+06
  -4.022731e+05   1.980554e+06
  -1.113680e+06   1.254777e+06
  -1.023707e+06  -5.388052e+05
  -3.010263e+05  -1.488392e+06
   2.665447e+05  -3.489062e+05
  -1.473267e+05   1.354979e+06
  -1.132425e+06   1.016474e+06
  -1.126575e+06  -1.283863e+06
   5.271790e+05  -2.489049e+06
   2.280337e+06  -6.465276e+05
   2.015331e+06   2.331486e+06
  -3.563999e+05   3.109394e+06
  -2.706917e+06   1.005675e+06
  -2.958850e+06  -1.652092e+06
  -9.904844e+05  -2.536546e+06
   1.503309e+06  -1.395572e+06
   2.504417e+06   4.852518e+05
   1.263212e+06   1.631293e+06
  -9.856543e+05   1.245323e+06
  -2.034174e+06  -2.194172e+05
  -9.770923e+05  -1.236628e+06
   7.038137e+05  -7.435866e+05
   9.279376e+05   4.823498e+05
  -3.604146e+05   7.483823e+05
  -1.214700e+06  -3.021866e+05
  -3.140296e+05  -1.278426e+06
   1.400511e+06  -9.728798e+05
   2.053550e+06   2.773469e+05
   9.950913e+05   1.437003e+06
  -8.758402e+05   1.975181e+06
  -2.305407e+06   1.709880e+06
  -2.571650e+06   4.289799e+05
  -1.637369e+06  -1.469244e+06
  -1.540863e+05  -2.639052e+06
   8.375836e+05  -2.119013e+06
   8.070292e+05  -6.927845e+05
   3.196830e+05   1.577477e+04
   3.194468e+05  -3.437186e+05
   9.125664e+05  -5.751041e+05
   1.291044e+06   1.746963e+05
   8.185606e+05   1.184615e+06
  -2.279015e+05   1.200871e+06
  -1.015102e+06   6.305366e+04
  -9.061696e+05  -1.190813e+06
   1.114323e+05  -1.488079e+06
   1.361752e+06  -6.214772e+05
   1.847798e+06   7.476650e+05
   1.114198e+06   1.659018e+06
  -1.719345e+05   1.596354e+06
  -8.892978e+05   9.102337e+05
  -7.909920e+05   3.949774e+05
  -7.136812e+05   3.504132e+05
  -1.284056e+06   2.879765e+05
  -1.920547e+06  -3.180152e+05
  -1.550568e+06  -1.282827e+06
  -3.998261e+04  -1.919793e+06
   1.548498e+06  -1.751455e+06
   2.051601e+06  -8.281328e+05
   1.262147e+06   3.706685e+05
  -1.964041e+04   1.118544e+06
  -7.180803e+05   8.757308e+05
  -3.511928e+05  -6.871522e+04
   5.551370e+05  -6.546543e+05
   9.610552e+05  -2.164993e+05
   4.302779e+05   6.027855e+05
  -3.471475e+05   6.495915e+05
  -3.941587e+05  -1.295713e+05
   3.293127e+05  -5.452579e+05
   8.985351e+05   2.165165e+05
   5.658583e+05   1.452752e+06
  -4.621332e+05   1.802409e+06
  -1.413610e+06   8.416833e+05
  -1.707154e+06  -6.001759e+05
  -1.214958e+06  -1.459872e+06
  -2.125575e+05  -1.356923e+06
   6.712222e+05  -6.512051e+05
   8.087954e+05  -1.516336e+04
   2.439489e+05   5.775854e+04
  -2.051408e+05  -3.528912e+05
   1.263153e+05  -6.404683e+05
   8.645249e+05  -3.232695e+05
   1.029414e+06   3.572630e+05
   3.036703e+05   7.039484e+05
  -5.342646e+05   4.050071e+05
  -5.499407e+05  -1.368603e+05
   2.707797e+05  -3.252894e+05
   1.048254e+06   2.418087e+04
   9.429291e+05   6.270898e+05
  -5.393064e+04   1.019174e+06
  -1.131079e+06   8.397609e+05
  -1.372912e+06   1.093163e+05
  -5.951878e+05  -6.315669e+05
   4.404265e+05  -7.133787e+05
   7.455369e+05  -8.356936e+04
   1.073343e+05   5.198054e+05
  -7.210394e+05   3.779683e+05
  -8.670437e+05  -3.511242e+05
  -2.350339e+05  -8.400109e+05
   5.100315e+05  -5.880019e+05
   6.958305e+05   5.798788e+04
   2.551012e+05   3.927470e+05
  -2.952783e+05   1.278562e+05
  -3.497419e+05  -3.978873e+05
   2.243955e+05  -6.125617e+05
   8.953190e+05  -2.291658e+05
   9.265875e+05   5.035002e+05
   1.677047e+05   9.833752e+05
  -7.012968e+05   7.857039e+05
  -8.773439e+05   9.282702e+04
  -3.121553e+05  -4.689868e+05
   3.065840e+05  -4.688581e+05
   3.948782e+05  -7.244845e+04
   5.100846e+04   2.317806e+05
  -2.267368e+05   1.951034e+05
  -1.565180e+05   4.493251e+03
   1.074485e+05  -1.100807e+04
   2.083911e+05   2.372502e+05
  -7.651143e+04   4.926100e+05
  -6.138556e+05   3.808831e+05
  -9.388030e+05  -2.084051e+05
  -6.399393e+05  -9.149596e+05
   1.598849e+05  -1.158078e+06
   8.285330e+05  -6.993716e+05
   8.713188e+05   7.773080e+04
   4.523639e+05   5.478038e+05
   1.194663e+05   4.793532e+05
   1.140973e+05   1.930494e+05
   1.719268e+05   1.081041e+05
  -2.207704e+04   2.669754e+05
  -4.094898e+05   3.573620e+05
  -6.463509e+05   1.126585e+05
  -4.585332e+05  -3.742352e+05
   1.352767e+05  -6.958454e+05
   8.012295e+05  -4.753256e+05
   1.039889e+06   2.532878e+05
   5.479174e+05   9.744740e+05
  -4.211813e+05   1.095197e+06
  -1.164364e+06   5.092834e+05
  -1.156501e+06  -2.798349e+05
  -5.458391e+05  -6.676646e+05
   6.409002e+04  -5.429403e+05
   2.653992e+05  -3.046835e+05
   1.683330e+05  -3.301931e+05
   1.310042e+05  -5.441395e+05
   3.228288e+05  -5.500595e+05
   5.803763e+05  -1.146621e+05
   5.963290e+05   5.391465e+05
   2.256392e+05   9.103679e+05
  -3.262119e+05   6.778079e+05
  -6.218467e+05   8.020278e+03
  -3.945493e+05  -5.758834e+05
   1.441106e+05  -6.533217e+05
   4.879338e+05  -2.567862e+05
   3.658010e+05   2.224056e+05
   9.353823e+03   4.417724e+05
  -1.559915e+05   3.828414e+05
  -1.029888e+04   2.512206e+05
   1.519296e+05   1.962059e+05
  -1.476456e+04   1.786650e+05
  -4.966377e+05   7.001327e+04
  -8.816512e+05  -1.805123e+05
  -7.327836e+05  -4.733357e+05
  -4.360085e+04  -6.201220e+05
   6.766793e+05  -4.922775e+05
   8.538864e+05  -1.529112e+05
   4.269233e+05   1.576702e+05
  -9.739205e+04   2.171220e+05
  -2.155349e+05   3.654606e+04
   4.517024e+04  -1.367787e+05
   2.658205e+05  -7.022370e+04
   1.990278e+05   1.940605e+05
   8.496918e+03   3.661270e+05
  -3.869704e+04   2.316900e+05
   7.882114e+04  -7.178243e+04
   1.739118e+05  -1.753868e+05
   9.943537e+04   8.810213e+04
  -1.390209e+05   4.390842e+05
  -4.147450e+05   4.383003e+05
  -5.200258e+05   1.059857e+04
  -2.800088e+05  -4.319007e+05
   2.140109e+05  -4.454133e+05
   5.389934e+05  -4.955265e+04
   3.085383e+05   3.190312e+05
  -3.405289e+05   2.962834e+05
  -7.819409e+05  -6.744528e+04
  -5.342339e+05  -4.311209e+05
   2.036520e+05  -5.092631e+05
   7.483527e+05  -2.732585e+05
   6.406987e+05   7.665235e+04
   8.582957e+04   2.666121e+05
  -3.069766e+05   1.553634e+05
  -1.611734e+05  -1.132663e+05
   3.081113e+05  -1.946131e+05
   5.409607e+05   1.144537e+05
   2.176649e+05   5.957689e+05
  -4.087051e+05   7.549485e+05
  -7.719128e+05   3.164600e+05
  -5.663554e+05  -4.378769e+05
  -1.807269e+04  -8.804437e+05
   4.038717e+05  -6.290293e+05
   4.498556e+05   6.913888e+04
   2.179485e+05   5.734173e+05
  -6.463652e+04   4.922232e+05
  -2.428205e+05   5.641145e+04
  -2.547358e+05  -1.999920e+05
  -1.286301e+05  -8.505781e+04
  -1.155067e+04   6.648512e+04
  -5.772381e+04  -1.037998e+05
  -1.941390e+05  -4.611591e+05
  -1.238136e+05  -5.461699e+05
   2.861704e+05  -1.892220e+05
   7.052196e+05   2.747939e+05
   6.425533e+05   4.495688e+05
   6.875979e+04   3.248488e+05
  -4.742189e+05   1.563281e+05
  -4.957175e+05   7.060574e+04
  -1.283286e+05  -4.825192e+03
   1.008602e+05  -1.012673e+05
  -2.442988e+04  -1.342663e+05
  -1.769678e+05  -8.571019e+04
   2.676920e+03  -5.518987e+04
   3.809984e+05  -5.664641e+04
   4.845593e+05   5.529494e+04
   9.120736e+04   3.232032e+05
  -4.994482e+05   4.889866e+05
  -7.912253e+05   2.551654e+05
  -5.720235e+05  -2.891527e+05
  -4.827440e+04  -6.855379e+05
   3.945292e+05  -5.980413e+05
   5.031637e+05  -1.719261e+05
   3.021146e+05   1.618904e+05
   2.736955e+04   1.628153e+05
  -8.068090e+04  -1.285039e+04
   2.200480e+04  -4.687211e+04
   1.585419e+05   1.652872e+05
   1.193841e+05   3.901424e+05
  -1.127459e+05   3.062658e+05
  -3.275644e+05  -1.152421e+05
  -2.830696e+05  -5.137337e+05
   4.627649e+04  -4.865106e+05
   4.008782e+05  -3.122352e+04
   4.414105e+05   4.361190e+05
   8.247319e+04   5.250637e+05
  -3.707100e+05   2.466423e+05
  -4.931362e+05  -9.321362e+04
  -1.972049e+05  -2.620589e+05
   1.473673e+05  -2.531157e+05
   1.375152e+05  -1.552402e+05
  -1.688115e+05  -4.665783e+04
  -3.187364e+05  -2.010665e+04
  -3.698168e+04  -1.397137e+05
   4.202326e+05  -2.975129e+05
   5.792175e+05  -2.513650e+05
   3.076985e+05   7.012401e+04
  -8.389809e+04   3.903007e+05
  -2.499743e+05   3.666540e+05
  -1.519031e+05   2.400649e+04
   2.611622e+04  -2.487226e+05
   1.391343e+05  -1.646610e+05
   1.582640e+05   1.329778e+05
   8.825752e+04   2.850211e+05
  -5.162264e+04   1.562104e+05
  -1.811359e+05  -5.706431e+04
  -2.025563e+05  -1.188825e+05
  -1.132355e+05  -2.814888e+04
  -8.659462e+03   3.264822e+04
   4.399322e+04  -5.211445e+04
   7.595457e+04  -1.930788e+05
   1.347316e+05  -2.003549e+05
   1.841808e+05  -1.978625e+03
   1.346762e+05   2.507898e+05
  -3.784684e+04   3.138228e+05
  -2.283907e+05   1.050228e+05
  -2.667635e+05  -1.889712e+05
  -6.923656e+04  -2.969297e+05
   2.397168e+05  -1.446103e+05
   3.842322e+05   9.063863e+04
   1.979954e+05   1.986808e+05
  -1.530197e+05   1.444488e+05
  -2.992970e+05   4.065066e+04
  -8.491617e+04  -9.074736e+03
   2.169268e+05   1.999960e+04
   2.104212e+05   1.010514e+05
  -1.354646e+05   1.618452e+05
  -4.347408e+05   9.155741e+04
