
 $NMID
 id='ANONYMOUS ', fmtdat='(2E16.6)'
 volume=1.0
 tramp=1.0
 $END
   3.330264e+07   7.671168e+04
   2.134865e+07   1.754442e+07
  -1.718466e+06   2.159876e+07
  -1.508357e+07   1.197647e+07
  -1.117991e+07  -6.492825e+05
   2.486581e+05  -5.787519e+06
   6.379834e+06  -1.632560e+06
   3.820761e+06   5.480560e+06
  -2.315940e+06   7.827823e+06
  -6.033614e+06   3.040170e+06
  -4.957836e+06  -4.077292e+06
  -6.308321e+05  -6.310328e+06
   2.919449e+06  -1.525747e+06
   2.235596e+06   4.865997e+06
  -2.033520e+06   5.768185e+06
  -5.258898e+06   1.284396e+05
  -3.623252e+06  -6.375375e+06
   1.760009e+06  -7.853339e+06
   6.245867e+06  -3.812235e+06
   6.484426e+06   1.674598e+06
   3.187394e+06   4.619123e+06
  -1.823312e+05   4.221546e+06
  -7.476563e+05   2.550231e+06
   1.168939e+06   2.138043e+06
   2.217924e+06   3.492475e+06
  -4.759731e+05   4.555822e+06
  -5.492799e+06   3.031046e+06
  -7.876928e+06  -6.838673e+05
  -4.692881e+06  -3.615464e+06
   1.144811e+06  -3.452400e+06
   3.978511e+06  -8.705739e+05
   1.758172e+06   1.574248e+06
  -2.240769e+06   1.939025e+06
  -3.786212e+06   2.610648e+04
  -2.067202e+06  -2.750012e+06
   6.022468e+05  -4.008934e+06
   1.873775e+06  -2.210707e+06
   1.253834e+06   1.147432e+06
  -1.184525e+05   2.336313e+06
  -6.062777e+05  -1.732513e+05
   5.240013e+05  -3.121414e+06
   2.125285e+06  -2.265771e+06
   2.026309e+06   1.770644e+06
  -4.372802e+05   3.871179e+06
  -3.089561e+06   1.034177e+06
  -2.911639e+06  -3.661672e+06
   5.974480e+05  -4.943190e+06
   4.571993e+06  -1.575042e+06
   5.429026e+06   2.878465e+06
   2.232611e+06   4.527314e+06
  -2.411277e+06   2.721462e+06
  -4.624381e+06  -4.025880e+05
  -2.735144e+06  -2.307312e+06
   1.131222e+06  -1.840783e+06
   3.133714e+06   1.439251e+05
   1.680386e+06   1.534255e+06
  -1.003721e+06   9.857080e+05
  -1.654524e+06  -6.126645e+05
   1.645831e+05  -1.218235e+06
   1.787618e+06  -1.146945e+05
   8.888582e+05   1.367976e+06
  -1.758832e+06   1.562393e+06
  -3.302717e+06   1.049696e+05
  -1.927724e+06  -2.131064e+06
   1.492988e+06  -3.788862e+06
   4.427329e+06  -3.523052e+06
   4.900372e+06  -8.579293e+05
   2.957927e+06   2.788480e+06
   4.002675e+05   4.798853e+06
  -9.424819e+05   3.963968e+06
  -8.639299e+05   1.876614e+06
  -6.647585e+05   8.889760e+05
  -1.394457e+06   1.167767e+06
  -2.558845e+06   8.673989e+05
  -2.782154e+06  -9.348038e+05
  -1.431504e+06  -2.723869e+06
   7.151427e+05  -2.426019e+06
   2.166261e+06  -3.846610e+03
   1.819171e+06   2.452837e+06
  -2.531944e+05   2.879422e+06
  -2.629815e+06   1.045412e+06
  -3.426944e+06  -1.522010e+06
  -2.000005e+06  -2.999187e+06
   2.640134e+05  -2.742035e+06
   1.418702e+06  -1.615685e+06
   1.223586e+06  -9.139079e+05
   1.259839e+06  -9.384768e+05
   2.576433e+06  -7.908510e+05
   3.972144e+06   4.178213e+05
   3.304714e+06   2.409161e+06
   2.184007e+05   3.897347e+06
  -3.128993e+06   3.710765e+06
  -4.174946e+06   1.748159e+06
  -2.433843e+06  -8.291356e+05
   2.069918e+05  -2.275184e+06
   1.406354e+06  -1.635716e+06
   4.871277e+05   1.943672e+05
  -1.172193e+06   1.173355e+06
  -1.701396e+06   3.257438e+05
  -6.599378e+05  -1.068677e+06
   6.400087e+05  -1.079276e+06
   6.873924e+05   3.183160e+05
  -5.730135e+05   1.105616e+06
  -1.760968e+06  -2.088314e+05
  -1.512706e+06  -2.617764e+06
   2.973967e+05  -3.689889e+06
   2.545780e+06  -2.220426e+06
   3.711227e+06   6.538728e+05
   2.917752e+06   2.757327e+06
   6.754541e+05   2.857592e+06
  -1.321757e+06   1.469735e+06
  -1.617233e+06   1.293679e+05
  -4.781990e+05  -4.230301e+04
   3.620313e+05   7.132320e+05
  -2.827404e+05   1.179405e+06
  -1.618023e+06   5.549554e+05
  -1.861365e+06  -6.426337e+05
  -4.835494e+05  -1.205334e+06
   1.070662e+06  -6.225782e+05
   1.027438e+06   4.086964e+05
  -6.944873e+05   7.865501e+05
  -2.345663e+06   5.511252e+04
  -2.128498e+06  -1.284610e+06
   1.846382e+03  -2.196494e+06
   2.264106e+06  -1.853819e+06
   2.733050e+06  -3.620397e+05
   1.166372e+06   1.113386e+06
  -8.024021e+05   1.296579e+06
  -1.315202e+06   1.536698e+05
  -9.833207e+04  -9.399101e+05
   1.421108e+06  -6.861718e+05
   1.685704e+06   6.478165e+05
   5.150235e+05   1.572560e+06
  -9.008043e+05   1.130339e+06
  -1.270193e+06  -7.481487e+04
  -4.025319e+05  -6.809673e+05
   6.677925e+05  -9.187233e+04
   6.761023e+05   9.863293e+05
  -5.945034e+05   1.352666e+06
  -1.959100e+06   4.770883e+05
  -1.946368e+06  -1.034628e+06
  -3.858964e+05  -1.976790e+06
   1.312879e+06  -1.600094e+06
   1.640202e+06  -2.889907e+05
   5.657737e+05   7.967756e+05
  -5.909308e+05   8.306241e+05
  -7.133739e+05   7.034908e+04
   2.666223e+04  -5.306047e+05
   6.197589e+05  -3.950325e+05
   4.134625e+05   1.101556e+05
  -2.842457e+05   1.833885e+05
  -5.984047e+05  -4.406780e+05
   4.020293e+04  -1.119475e+06
   1.278665e+06  -9.262246e+05
   2.026086e+06   3.526177e+05
   1.432683e+06   1.863982e+06
  -1.916242e+05   2.400098e+06
  -1.583950e+06   1.527669e+06
  -1.785039e+06   1.030100e+02
  -1.052865e+06  -9.890892e+05
  -3.848426e+05  -9.410368e+05
  -3.090823e+05  -4.023332e+05
  -4.209464e+05  -2.296945e+05
  -6.864087e+04  -6.179647e+05
   7.812022e+05  -9.251899e+05
   1.449251e+06  -4.407500e+05
   1.180436e+06   7.280443e+05
  -1.313120e+05   1.593119e+06
  -1.689291e+06   1.186722e+06
  -2.270331e+06  -4.150305e+05
  -1.225696e+06  -2.008244e+06
   8.137161e+05  -2.309127e+06
   2.359730e+06  -1.140133e+06
   2.378195e+06   4.568600e+05
   1.174784e+06   1.288907e+06
  -6.691170e+04   1.119144e+06
  -5.107435e+05   6.831706e+05
  -3.199810e+05   7.171725e+05
  -2.144383e+05   1.124689e+06
  -6.024690e+05   1.147815e+06
  -1.182783e+06   2.829328e+05
  -1.278954e+06  -1.062699e+06
  -5.380807e+05  -1.859487e+06
   6.208597e+05  -1.411047e+06
   1.274085e+06  -3.985165e+04
   8.486465e+05   1.174773e+06
  -2.502280e+05   1.355349e+06
  -9.932130e+05   5.480900e+05
  -7.805078e+05  -4.556974e+05
  -3.952814e+04  -9.288846e+05
   3.262927e+05  -7.944863e+05
   1.106583e+03  -4.845039e+05
  -3.914940e+05  -3.675558e+05
  -3.882129e+04  -3.925344e+05
   1.054949e+06  -2.401207e+05
   1.927455e+06   2.687808e+05
   1.588496e+06   9.351364e+05
   9.091407e+04   1.313744e+06
  -1.407212e+06   1.087254e+06
  -1.738460e+06   3.719869e+05
  -8.619818e+05  -3.190587e+05
   1.885791e+05  -4.846918e+05
   4.576405e+05  -1.014888e+05
  -1.502298e+04   3.177834e+05
  -4.819957e+05   2.282067e+05
  -4.546941e+05  -3.346919e+05
  -1.370852e+05  -7.400947e+05
   1.179734e+04  -4.770151e+05
  -1.465661e+05   1.741833e+05
  -3.609857e+05   3.884054e+05
  -2.949195e+05  -2.128888e+05
   1.884936e+05  -1.008449e+06
   8.694978e+05  -1.029237e+06
   1.199709e+06  -1.028543e+05
   7.057533e+05   8.966884e+05
  -4.012099e+05   1.011683e+06
  -1.153889e+06   2.267353e+05
  -7.048697e+05  -5.949619e+05
   6.548165e+05  -6.638870e+05
   1.610930e+06   1.872492e+04
   1.146994e+06   8.101793e+05
  -3.559563e+05   1.070595e+06
  -1.501171e+06   6.429555e+05
  -1.318314e+06  -9.449163e+04
  -1.948618e+05  -5.323248e+05
   6.240802e+05  -3.237305e+05
   3.431745e+05   2.519267e+05
  -6.266749e+05   4.624137e+05
  -1.154813e+06  -1.587181e+05
  -5.641068e+05  -1.204538e+06
   6.953200e+05  -1.637737e+06
   1.518862e+06  -8.023603e+05
   1.237458e+06   7.881174e+05
   1.892259e+05   1.799596e+06
  -7.329572e+05   1.344327e+06
  -9.396778e+05  -1.034832e+05
  -5.043927e+05  -1.172859e+06
   1.239436e+05  -1.015946e+06
   5.311488e+05  -1.245613e+05
   5.309804e+05   3.897405e+05
   2.363272e+05   1.604174e+05
   1.981078e+04  -1.177985e+05
   1.735673e+05   2.414622e+05
   4.694796e+05   9.365317e+05
   2.813316e+05   1.088167e+06
  -6.075876e+05   4.114032e+05
  -1.482136e+06  -4.609317e+05
  -1.358291e+06  -8.285392e+05
  -1.963061e+05  -6.762274e+05
   9.190397e+05  -4.099747e+05
   1.005073e+06  -2.108877e+05
   2.983336e+05   8.540027e+03
  -1.722030e+05   2.163836e+05
   4.894270e+04   2.463209e+05
   3.524111e+05   1.427926e+05
   1.532611e+04   1.379173e+05
  -7.523000e+05   1.986052e+05
  -1.026721e+06  -4.146142e+04
  -2.971919e+05  -6.724659e+05
   9.220971e+05  -1.110788e+06
   1.627925e+06  -6.784022e+05
   1.288273e+06   4.826119e+05
   2.319312e+05   1.409787e+06
  -7.431044e+05   1.330997e+06
  -1.040759e+06   4.697425e+05
  -6.608594e+05  -2.816232e+05
  -9.375166e+04  -3.544580e+05
   1.439634e+05  -1.481002e+04
  -5.318519e+04   7.416935e+04
  -3.357949e+05  -3.403381e+05
  -2.749071e+05  -8.018757e+05
   1.985476e+05  -6.537614e+05
   6.904383e+05   1.801122e+05
   6.770004e+05   1.001511e+06
   1.828930e+04   1.012933e+06
  -7.956663e+05   1.631950e+05
  -9.941700e+05  -7.918872e+05
  -2.861237e+05  -1.076639e+06
   7.231397e+05  -6.079055e+05
   1.068132e+06   1.038119e+05
   4.776727e+05   5.561557e+05
  -2.830926e+05   5.983532e+05
  -3.138333e+05   3.450283e+05
   3.152410e+05   3.792899e+04
   6.621186e+05  -2.331722e+04
   1.188366e+05   2.921703e+05
  -8.217407e+05   6.767259e+05
  -1.190113e+06   5.800953e+05
  -6.833746e+05  -1.249223e+05
   1.073511e+05  -8.319057e+05
   4.907200e+05  -8.153028e+05
   3.524276e+05  -1.068614e+05
   1.281843e+04   5.035703e+05
  -2.529765e+05   3.915029e+05
  -3.514613e+05  -2.102411e+05
  -2.375867e+05  -5.757992e+05
   7.203023e+04  -3.655431e+05
   3.839631e+05   7.448440e+04
   4.469178e+05   2.376785e+05
   2.387368e+05   5.812637e+04
  -1.394101e+03  -9.991804e+04
  -8.068323e+04   5.782673e+04
  -7.753203e+04   3.900698e+05
  -1.763621e+05   4.755148e+05
  -3.565911e+05   1.000730e+05
  -3.677893e+05  -4.530434e+05
  -3.962745e+04  -6.521614e+05
   4.382857e+05  -2.773027e+05
   6.139055e+05   3.233473e+05
   2.147309e+05   5.949204e+05
  -4.867203e+05   3.485677e+05
  -8.362372e+05  -1.099899e+05
  -4.525693e+05  -3.793924e+05
   2.941544e+05  -3.471507e+05
   6.176812e+05  -1.632619e+05
   1.993834e+05  -6.208341e+03
  -4.111874e+05   1.466683e+04
  -4.294795e+05  -1.357574e+05
   2.245243e+05  -3.280482e+05
   8.292520e+05  -2.597577e+05
