
 $NMID
 id='ANONYMOUS ', fmtdat='(2E16.6)'
 volume=1.0
 tramp=1.0
 $END
   5.770403e+07  -3.938887e+04
   3.450446e+07   3.576294e+07
  -7.759773e+06   3.894443e+07
  -2.811987e+07   1.482448e+07
  -1.663785e+07  -7.229020e+06
   3.435837e+06  -9.454895e+06
   9.919036e+06   1.306856e+06
   2.751518e+06   9.898422e+06
  -6.271227e+06   9.406505e+06
  -9.768722e+06   1.997833e+06
  -7.158475e+06  -6.284391e+06
  -9.050701e+05  -8.752806e+06
   4.068523e+06  -2.849001e+06
   2.763362e+06   5.468107e+06
  -3.756500e+06   6.624521e+06
  -7.991679e+06  -1.366604e+06
  -4.539313e+06  -1.038192e+07
   3.832840e+06  -1.202708e+07
   1.031517e+07  -6.063993e+06
   1.109652e+07   2.063472e+06
   6.835302e+06   7.692589e+06
   6.986239e+05   8.928801e+06
  -3.070518e+06   6.196579e+06
  -1.958880e+06   2.619329e+06
   1.194888e+06   2.034160e+06
   4.070748e+05   4.228176e+06
  -5.412948e+06   4.620941e+06
  -9.865647e+06   6.817467e+05
  -7.268094e+06  -4.143483e+06
  -3.427461e+05  -5.239167e+06
   3.772022e+06  -2.764900e+06
   2.611435e+06  -9.717602e+04
  -4.709689e+05   1.013903e+06
  -2.256695e+06   6.519486e+05
  -2.328621e+06  -1.347693e+06
  -8.506410e+05  -4.017785e+06
   1.811423e+06  -3.999238e+06
   3.396353e+06   9.442317e+04
   1.812743e+06   3.776301e+06
  -8.575377e+05   2.030829e+06
  -4.744594e+05  -2.495272e+06
   2.442925e+06  -2.368584e+06
   2.484449e+06   3.242087e+06
  -2.502170e+06   6.223908e+06
  -7.130755e+06   9.780152e+05
  -5.233182e+06  -7.110918e+06
   1.972478e+06  -8.713018e+06
   7.590829e+06  -2.490584e+06
   7.093398e+06   4.471973e+06
   1.908741e+06   6.084737e+06
  -3.488431e+06   2.762261e+06
  -5.312963e+06  -1.497375e+06
  -2.456135e+06  -3.495582e+06
   2.456488e+06  -2.219030e+06
   4.603116e+06   9.319748e+05
   1.978331e+06   2.760802e+06
  -1.750327e+06   1.399005e+06
  -1.763398e+06  -1.018314e+06
   1.339530e+06  -8.884845e+05
   2.470092e+06   1.814855e+06
  -7.019106e+05   3.482469e+06
  -4.746632e+06   1.890275e+06
  -5.379946e+06  -1.402036e+06
  -2.349891e+06  -4.048505e+06
   1.790583e+06  -5.397480e+06
   5.042532e+06  -5.026204e+06
   6.313947e+06  -1.870513e+06
   4.741835e+06   3.186158e+06
   1.042602e+06   6.296406e+06
  -1.847826e+06   4.847655e+06
  -1.752551e+06   1.208024e+06
  -9.642693e+04  -2.621147e+05
   1.075885e+05   1.060984e+06
  -1.601756e+06   1.931957e+06
  -2.911278e+06   3.456885e+05
  -2.164947e+06  -1.918058e+06
  -1.151210e+05  -2.208576e+06
   1.564691e+06  -2.842792e+05
   1.768609e+06   2.050768e+06
   7.669208e+04   2.996048e+06
  -2.805945e+06   1.756330e+06
  -4.614923e+06  -1.147764e+06
  -3.354429e+06  -3.826315e+06
   9.503535e+03  -4.348618e+06
   2.331442e+06  -2.800604e+06
   2.284158e+06  -1.160526e+06
   1.852437e+06  -6.966033e+05
   2.976387e+06  -5.227631e+05
   4.433576e+06   7.100743e+05
   3.593449e+06   2.759854e+06
   2.063386e+05   4.201115e+06
  -3.192203e+06   4.042609e+06
  -4.222036e+06   2.264174e+06
  -2.743845e+06  -3.663793e+05
  -3.506993e+05  -2.293833e+06
   1.082020e+06  -2.021799e+06
   5.863103e+05   2.207931e+04
  -1.084776e+06   1.368216e+06
  -1.947943e+06   4.394449e+05
  -9.693075e+05  -1.228188e+06
   5.009314e+05  -1.154657e+06
   4.300857e+05   3.788531e+05
  -1.073862e+06   6.902092e+05
  -1.868753e+06  -1.325861e+06
  -6.475040e+05  -3.532674e+06
   1.594874e+06  -3.428571e+06
   3.146367e+06  -1.116703e+06
   3.339991e+06   1.419911e+06
   2.342440e+06   2.732910e+06
   5.169560e+05   2.627205e+06
  -1.230576e+06   1.522425e+06
  -1.607793e+06   2.723292e+05
  -5.045035e+05  -3.770326e+04
   3.786646e+05   7.631728e+05
  -4.117409e+05   1.380971e+06
  -1.955414e+06   6.156467e+05
  -2.092905e+06  -8.905680e+05
  -4.039076e+05  -1.448212e+06
   1.190871e+06  -5.977782e+05
   9.057444e+05   4.449874e+05
  -8.547310e+05   5.225313e+05
  -2.203647e+06  -3.020287e+05
  -1.777659e+06  -1.337520e+06
   2.216832e+05  -1.989575e+06
   2.318505e+06  -1.718060e+06
   2.826218e+06  -3.251135e+05
   1.264023e+06   1.282543e+06
  -9.285342e+05   1.561533e+06
  -1.609810e+06   2.145846e+05
  -2.269258e+05  -1.116079e+06
   1.545877e+06  -7.818184e+05
   1.767282e+06   7.781818e+05
   3.580502e+05   1.679961e+06
  -1.105438e+06   9.967480e+05
  -1.277925e+06  -3.144267e+05
  -2.472688e+05  -7.950896e+05
   8.230168e+05  -6.156586e+04
   7.761514e+05   1.072136e+06
  -5.628181e+05   1.475701e+06
  -2.050394e+06   5.985876e+05
  -2.109927e+06  -1.039266e+06
  -4.282734e+05  -2.122714e+06
   1.453931e+06  -1.705288e+06
   1.764609e+06  -2.366272e+05
   5.203281e+05   8.820307e+05
  -6.632790e+05   8.279952e+05
  -6.395506e+05   9.470209e+04
   1.140729e+05  -3.515476e+05
   4.778420e+05  -2.129269e+05
   1.033639e+05   4.578070e+04
  -4.606737e+05  -1.011769e+05
  -5.231051e+05  -6.932469e+05
   2.066636e+05  -1.214920e+06
   1.403608e+06  -9.341567e+05
   2.138449e+06   3.909763e+05
   1.535337e+06   1.967103e+06
  -1.766984e+05   2.479819e+06
  -1.619757e+06   1.463206e+06
  -1.713703e+06  -1.024212e+05
  -8.806581e+05  -8.803025e+05
  -3.459726e+05  -6.296289e+05
  -5.170318e+05  -2.066124e+05
  -6.616998e+05  -3.261216e+05
  -1.027012e+05  -7.939091e+05
   8.852278e+05  -9.307437e+05
   1.467373e+06  -3.495524e+05
   1.074740e+06   7.098371e+05
  -2.311034e+05   1.477545e+06
  -1.735630e+06   1.117411e+06
  -2.301213e+06  -4.549984e+05
  -1.186289e+06  -2.128086e+06
   1.007458e+06  -2.433005e+06
   2.590240e+06  -1.083867e+06
   2.402053e+06   6.460127e+05
   9.790170e+05   1.342641e+06
  -1.964909e+05   9.461238e+05
  -3.666066e+05   5.186396e+05
  -4.307464e+04   7.876532e+05
  -7.793535e+04   1.361442e+06
  -6.731707e+05   1.340608e+06
  -1.328505e+06   3.496951e+05
  -1.394280e+06  -1.081472e+06
  -6.080622e+05  -1.929321e+06
   6.074700e+05  -1.484220e+06
   1.312837e+06  -1.884645e+04
   8.465089e+05   1.304407e+06
  -3.874824e+05   1.431228e+06
  -1.189764e+06   4.140881e+05
  -8.331988e+05  -7.227681e+05
   1.287755e+05  -1.108078e+06
   5.536848e+05  -7.975617e+05
   8.370253e+04  -4.150515e+05
  -4.561679e+05  -3.326783e+05
  -7.223545e+04  -3.905254e+05
   1.177882e+06  -2.302062e+05
   2.126473e+06   3.108260e+05
   1.671764e+06   1.038537e+06
  -2.977512e+04   1.473630e+06
  -1.623411e+06   1.194800e+06
  -1.871127e+06   3.059702e+05
  -8.494296e+05  -5.060388e+05
   2.675651e+05  -5.925937e+05
   5.246373e+05  -3.449643e+04
   4.036222e+04   4.441273e+05
  -4.435983e+05   2.796252e+05
  -5.025822e+05  -3.409652e+05
  -2.909072e+05  -7.370693e+05
  -1.225769e+05  -4.935359e+05
  -1.326992e+05   9.009309e+04
  -2.632324e+05   2.968384e+05
  -2.830306e+05  -2.328720e+05
   1.148870e+05  -1.010677e+06
   9.010044e+05  -1.112807e+06
   1.413932e+06  -2.110462e+05
   9.109797e+05   9.253982e+05
  -4.070166e+05   1.190946e+06
  -1.298227e+06   3.841280e+05
  -7.684003e+05  -5.667243e+05
   7.090388e+05  -6.730518e+05
   1.616810e+06   7.370150e+04
   1.021514e+06   8.603071e+05
  -4.884723e+05   1.001019e+06
  -1.511057e+06   4.955391e+05
  -1.244621e+06  -1.791457e+05
  -1.393233e+05  -5.159936e+05
   6.590333e+05  -2.786705e+05
   4.041554e+05   3.015215e+05
  -5.813932e+05   5.612224e+05
  -1.221222e+06  -4.058369e+04
  -7.378798e+05  -1.192320e+06
   5.424886e+05  -1.774966e+06
   1.492330e+06  -9.627227e+05
   1.309486e+06   7.371914e+05
   2.558835e+05   1.826430e+06
  -7.238311e+05   1.331162e+06
  -9.433508e+05  -1.729739e+05
  -4.527622e+05  -1.208551e+06
   2.202410e+05  -9.801677e+05
   5.777342e+05  -8.846146e+04
   4.714137e+05   3.680285e+05
   1.545232e+05   1.267936e+05
   5.300249e+04  -9.149494e+04
   3.162441e+05   3.145852e+05
   5.536065e+05   9.852739e+05
   2.001465e+05   1.090374e+06
  -7.468800e+05   4.111629e+05
  -1.518264e+06  -4.387149e+05
  -1.309804e+06  -8.206630e+05
  -2.027874e+05  -7.149835e+05
   8.445028e+05  -4.579418e+05
   9.944411e+05  -2.054686e+05
   3.851092e+05   6.116564e+04
  -1.358328e+05   2.389806e+05
  -5.283951e+04   1.934641e+05
   2.509608e+05   6.960906e+04
   6.645154e+04   1.358080e+05
  -6.453522e+05   2.775129e+05
  -1.079627e+06   2.623789e+04
  -5.038976e+05  -7.109383e+05
   8.059269e+05  -1.256190e+06
   1.745353e+06  -8.440750e+05
   1.500194e+06   3.910873e+05
   3.377351e+05   1.432480e+06
  -7.551724e+05   1.443798e+06
  -1.065674e+06   6.047390e+05
  -6.792845e+05  -2.009487e+05
  -1.611954e+05  -3.669088e+05
   4.815648e+04  -9.292041e+04
  -8.844988e+04  -2.206230e+03
  -3.042528e+05  -3.747073e+05
  -2.667837e+05  -8.202652e+05
   1.575784e+05  -7.110288e+05
   7.015287e+05   8.013599e+04
   8.127200e+05   9.356967e+05
   1.870456e+05   1.065285e+06
  -7.517040e+05   3.134913e+05
  -1.102875e+06  -6.784422e+05
  -4.155053e+05  -1.112601e+06
   7.082536e+05  -7.445887e+05
   1.168721e+06   3.186097e+04
   5.811588e+05   6.353038e+05
  -2.786785e+05   7.345805e+05
  -4.039460e+05   3.932276e+05
   2.280100e+05  -1.509429e+04
   6.592303e+05  -6.876416e+04
   1.702332e+05   3.186606e+05
  -8.242628e+05   7.215666e+05
  -1.296306e+06   5.718877e+05
  -8.141497e+05  -1.838285e+05
   6.830561e+04  -9.085023e+05
   5.651815e+05  -9.063678e+05
   4.643892e+05  -1.975151e+05
   8.980161e+04   4.808727e+05
  -2.273340e+05   4.728927e+05
  -3.697409e+05  -1.117988e+05
  -2.863037e+05  -5.837838e+05
   3.546706e+04  -4.666677e+05
   4.065222e+05   2.001497e+04
   5.052997e+05   2.915674e+05
   2.502185e+05   1.072876e+05
  -5.098958e+04  -1.764518e+05
  -7.997596e+04  -8.558626e+04
   6.588434e+04   3.513381e+05
   1.812935e+04   6.058478e+05
  -3.102864e+05   2.893181e+05
  -5.269580e+05  -3.455756e+05
  -2.353031e+05  -6.631871e+05
   3.957073e+05  -3.548137e+05
   7.151981e+05   2.462518e+05
   2.990131e+05   5.707347e+05
  -5.169152e+05   3.979207e+05
  -9.290185e+05  -3.373459e+04
  -5.155259e+05  -3.705161e+05
   2.899167e+05  -4.441502e+05
   6.599550e+05  -2.841727e+05
   2.799736e+05  -2.969840e+04
  -3.251650e+05   1.116823e+05
  -4.139205e+05  -1.548433e+04
   1.325916e+05  -2.905019e+05
   7.109550e+05  -3.156946e+05
