
 $NMID
 id='ANONYMOUS ', fmtdat='(2E16.6)'
 volume=1.0
 tramp=1.0
 $END
   4.974481e+07  -1.141442e+06
   3.055233e+07   3.043848e+07
  -6.042274e+06   3.395150e+07
  -2.424442e+07   1.320361e+07
  -1.462247e+07  -6.210427e+06
   2.898451e+06  -8.310354e+06
   8.693985e+06   1.111267e+06
   2.452929e+06   8.637892e+06
  -5.453390e+06   8.181089e+06
  -8.483612e+06   1.779494e+06
  -6.217365e+06  -5.309605e+06
  -8.608039e+05  -7.466520e+06
   3.413932e+06  -2.503878e+06
   2.341438e+06   4.608411e+06
  -3.244803e+06   5.684551e+06
  -6.939754e+06  -1.117793e+06
  -4.032149e+06  -8.907877e+06
   3.158349e+06  -1.042183e+07
   8.781779e+06  -5.389634e+06
   9.571382e+06   1.545406e+06
   6.070713e+06   6.443261e+06
   8.652307e+05   7.698746e+06
  -2.519407e+06   5.523805e+06
  -1.805853e+06   2.409212e+06
   8.357469e+05   1.701556e+06
   3.348302e+05   3.475358e+06
  -4.471533e+06   3.915013e+06
  -8.303217e+06   6.952087e+05
  -6.239239e+06  -3.398003e+06
  -4.420789e+05  -4.400307e+06
   3.053177e+06  -2.379840e+06
   2.130832e+06  -2.074416e+05
  -3.651743e+05   6.818071e+05
  -1.773735e+06   4.648270e+05
  -1.866906e+06  -1.055107e+06
  -7.620358e+05  -3.284299e+06
   1.433280e+06  -3.434946e+06
   2.898761e+06  -8.936526e+04
   1.689233e+06   3.137601e+06
  -6.079160e+05   1.834368e+06
  -3.926160e+05  -1.998299e+06
   2.079385e+06  -1.993314e+06
   2.177757e+06   2.791383e+06
  -2.112015e+06   5.463241e+06
  -6.216186e+06   1.019414e+06
  -4.682136e+06  -6.048493e+06
   1.558742e+06  -7.589473e+06
   6.495565e+06  -2.272396e+06
   6.108478e+06   3.789761e+06
   1.634212e+06   5.226483e+06
  -3.005406e+06   2.360398e+06
  -4.553053e+06  -1.315185e+06
  -2.093140e+06  -3.035507e+06
   2.127228e+06  -1.947477e+06
   3.985405e+06   7.680185e+05
   1.732473e+06   2.380238e+06
  -1.494135e+06   1.230074e+06
  -1.503030e+06  -8.837960e+05
   1.216846e+06  -7.916933e+05
   2.218985e+06   1.604954e+06
  -5.688644e+05   3.134434e+06
  -4.140833e+06   1.757411e+06
  -4.713205e+06  -1.169172e+06
  -2.085107e+06  -3.493788e+06
   1.458682e+06  -4.621284e+06
   4.207990e+06  -4.298167e+06
   5.324632e+06  -1.664862e+06
   4.076040e+06   2.618346e+06
   9.554774e+05   5.331571e+06
  -1.582292e+06   4.158558e+06
  -1.571824e+06   1.019567e+06
  -1.214308e+05  -3.205211e+05
   1.575406e+05   7.885083e+05
  -1.238160e+06   1.604812e+06
  -2.369761e+06   3.452733e+05
  -1.789159e+06  -1.534893e+06
  -1.105050e+05  -1.788157e+06
   1.263572e+06  -2.025404e+05
   1.438308e+06   1.715669e+06
   6.578787e+04   2.499057e+06
  -2.331982e+06   1.501140e+06
  -3.903486e+06  -9.030967e+05
  -2.910925e+06  -3.195417e+06
  -7.425504e+04  -3.720123e+06
   1.952572e+06  -2.454610e+06
   1.968167e+06  -1.036934e+06
   1.607869e+06  -5.941725e+05
   2.540388e+06  -4.253664e+05
   3.757767e+06   6.180107e+05
   3.030630e+06   2.345036e+06
   1.579453e+05   3.543412e+06
  -2.692755e+06   3.387784e+06
  -3.529481e+06   1.896689e+06
  -2.286056e+06  -2.840721e+05
  -3.075698e+05  -1.892196e+06
   8.812478e+05  -1.687673e+06
   4.859586e+05   7.370948e+03
  -9.037082e+05   1.144032e+06
  -1.643829e+06   3.749530e+05
  -8.304505e+05  -1.026984e+06
   4.169872e+05  -9.596596e+05
   3.473131e+05   3.412094e+05
  -9.608117e+05   5.795159e+05
  -1.634673e+06  -1.182141e+06
  -5.256669e+05  -3.074833e+06
   1.454017e+06  -2.932212e+06
   2.752545e+06  -8.890374e+05
   2.819144e+06   1.284240e+06
   1.909614e+06   2.347127e+06
   3.888511e+05   2.205557e+06
  -1.036187e+06   1.264236e+06
  -1.341199e+06   2.227524e+05
  -4.240594e+05  -3.374004e+04
   3.155663e+05   6.449542e+05
  -3.507685e+05   1.174499e+06
  -1.660011e+06   5.256085e+05
  -1.777099e+06  -7.628105e+05
  -3.382511e+05  -1.236580e+06
   1.012049e+06  -4.980692e+05
   7.517366e+05   3.905136e+05
  -7.471578e+05   4.271396e+05
  -1.861315e+06  -3.001012e+05
  -1.464438e+06  -1.161925e+06
   2.275359e+05  -1.669929e+06
   1.970575e+06  -1.418458e+06
   2.380954e+06  -2.538147e+05
   1.066214e+06   1.089129e+06
  -7.814614e+05   1.325092e+06
  -1.364442e+06   1.892780e+05
  -1.997115e+05  -9.394925e+05
   1.303842e+06  -6.565841e+05
   1.489062e+06   6.690524e+05
   2.849761e+05   1.428141e+06
  -9.552465e+05   8.329190e+05
  -1.085233e+06  -2.868577e+05
  -1.996838e+05  -6.852184e+05
   7.014505e+05  -5.320144e+04
   6.534146e+05   9.040526e+05
  -4.744938e+05   1.238147e+06
  -1.722144e+06   4.980909e+05
  -1.770879e+06  -8.786573e+05
  -3.537964e+05  -1.789476e+06
   1.234467e+06  -1.433608e+06
   1.492378e+06  -1.893423e+05
   4.322796e+05   7.516899e+05
  -5.672640e+05   6.936509e+05
  -5.315668e+05   7.082694e+04
   1.149567e+05  -2.897049e+05
   4.064982e+05  -1.555229e+05
   6.506889e+04   5.568446e+04
  -4.137265e+05  -9.294317e+04
  -4.453462e+05  -6.045938e+05
   1.862466e+05  -1.033518e+06
   1.191434e+06  -7.807803e+05
   1.799428e+06   3.401921e+05
   1.284347e+06   1.661691e+06
  -1.623315e+05   2.082268e+06
  -1.376710e+06   1.213076e+06
  -1.439391e+06  -1.100123e+05
  -7.151477e+05  -7.506078e+05
  -2.629962e+05  -5.162416e+05
  -4.309902e+05  -1.533159e+05
  -5.719823e+05  -2.687958e+05
  -9.295780e+04  -6.743962e+05
   7.555225e+05  -7.806704e+05
   1.240697e+06  -2.775235e+05
   8.888867e+05   6.099662e+05
  -2.187554e+05   1.237689e+06
  -1.472078e+06   9.225091e+05
  -1.931058e+06  -4.005387e+05
  -9.834439e+05  -1.803973e+06
   8.675899e+05  -2.052134e+06
   2.198018e+06  -8.999629e+05
   2.023253e+06   5.702832e+05
   8.030247e+05   1.149770e+06
  -1.907760e+05   7.908442e+05
  -3.143385e+05   4.137460e+05
  -2.266022e+04   6.464904e+05
  -5.361636e+04   1.145759e+06
  -5.670596e+05   1.134354e+06
  -1.121040e+06   2.956586e+05
  -1.168454e+06  -9.121235e+05
  -5.028280e+05  -1.622734e+06
   5.161573e+05  -1.243330e+06
   1.104941e+06  -6.500983e+03
   7.077625e+05   1.108397e+06
  -3.393496e+05   1.210499e+06
  -1.020902e+06   3.429512e+05
  -7.131852e+05  -6.244519e+05
   1.147918e+05  -9.492334e+05
   4.833226e+05  -6.793551e+05
   8.260871e+04  -3.489515e+05
  -3.813351e+05  -2.766730e+05
  -5.917474e+04  -3.259388e+05
   9.974115e+05  -1.909544e+05
   1.795073e+06   2.674797e+05
   1.405255e+06   8.851076e+05
  -3.332592e+04   1.252560e+06
  -1.376570e+06   1.008995e+06
  -1.583688e+06   2.463963e+05
  -7.197786e+05  -4.425380e+05
   2.266850e+05  -5.060034e+05
   4.484037e+05  -2.529523e+04
   4.147750e+04   3.763387e+05
  -3.689340e+05   2.313841e+05
  -4.219094e+05  -2.873433e+05
  -2.464201e+05  -6.106022e+05
  -1.073478e+05  -4.072795e+05
  -1.166848e+05   6.896717e+04
  -2.237092e+05   2.355291e+05
  -2.361988e+05  -1.995341e+05
   1.003237e+05  -8.423295e+05
   7.612312e+05  -9.328887e+05
   1.192763e+06  -1.853609e+05
   7.699378e+05   7.720734e+05
  -3.398729e+05   1.006076e+06
  -1.090043e+06   3.297428e+05
  -6.417194e+05  -4.759684e+05
   6.026426e+05  -5.628691e+05
   1.359559e+06   7.755409e+04
   8.462413e+05   7.407841e+05
  -4.296650e+05   8.404461e+05
  -1.281612e+06   3.959493e+05
  -1.043988e+06  -1.697728e+05
  -1.085733e+05  -4.366426e+05
   5.599301e+05  -2.281786e+05
   3.431537e+05   2.550443e+05
  -4.834030e+05   4.686544e+05
  -1.020210e+06  -3.311327e+04
  -6.181886e+05  -9.943258e+05
   4.521344e+05  -1.482364e+06
   1.247871e+06  -8.027232e+05
   1.093249e+06   6.215332e+05
   2.053149e+05   1.531406e+06
  -6.182990e+05   1.109507e+06
  -7.946228e+05  -1.563472e+05
  -3.694662e+05  -1.022781e+06
   2.003293e+05  -8.246587e+05
   4.902721e+05  -7.052146e+04
   3.877791e+05   3.151721e+05
   1.218958e+05   1.110099e+05
   4.872957e+04  -7.699404e+04
   2.753531e+05   2.613433e+05
   4.642291e+05   8.282876e+05
   1.547149e+05   9.216315e+05
  -6.375984e+05   3.478065e+05
  -1.270650e+06  -3.767435e+05
  -1.088924e+06  -7.016957e+05
  -1.671855e+05  -6.031542e+05
   7.049116e+05  -3.752012e+05
   8.356273e+05  -1.633386e+05
   3.307593e+05   5.176521e+04
  -1.124038e+05   1.982872e+05
  -5.492449e+04   1.654718e+05
   1.996344e+05   6.289024e+04
   5.734226e+04   1.110699e+05
  -5.326140e+05   2.250839e+05
  -9.044641e+05   2.042953e+04
  -4.308920e+05  -5.893117e+05
   6.704363e+05  -1.047860e+06
   1.466813e+06  -7.106916e+05
   1.261180e+06   3.215035e+05
   2.790636e+05   1.198856e+06
  -6.385894e+05   1.212091e+06
  -8.915670e+05   5.077700e+05
  -5.640481e+05  -1.684114e+05
  -1.367917e+05  -3.054559e+05
   3.081884e+04  -7.573472e+04
  -8.104544e+04  -4.535390e+03
  -2.526572e+05  -3.207282e+05
  -2.178875e+05  -6.917976e+05
   1.319919e+05  -5.957243e+05
   5.820313e+05   6.664627e+04
   6.774914e+05   7.791276e+05
   1.610160e+05   8.872018e+05
  -6.210156e+05   2.624105e+05
  -9.184208e+05  -5.647602e+05
  -3.490485e+05  -9.303660e+05
   5.905436e+05  -6.255140e+05
   9.811062e+05   2.572293e+04
   4.932064e+05   5.353828e+05
  -2.307222e+05   6.212406e+05
  -3.439460e+05   3.350601e+05
   1.831456e+05  -8.161569e+03
   5.504870e+05  -5.469172e+04
   1.447830e+05   2.668586e+05
  -6.945401e+05   6.012841e+05
  -1.098472e+06   4.756246e+05
  -6.925177e+05  -1.556538e+05
   5.755593e+04  -7.632998e+05
   4.797196e+05  -7.655912e+05
   3.915460e+05  -1.741605e+05
   7.425848e+04   3.979091e+05
  -1.878740e+05   3.977272e+05
  -3.039501e+05  -9.013612e+04
  -2.386680e+05  -4.893458e+05
   2.499842e+04  -3.944475e+05
   3.386070e+05   1.560544e+04
   4.282229e+05   2.479099e+05
   2.128293e+05   9.401142e+04
  -4.901494e+04  -1.494921e+05
  -7.557326e+04  -8.044437e+04
   5.789513e+04   2.838939e+05
   2.947609e+04   5.031054e+05
  -2.478973e+05   2.477157e+05
  -4.411794e+05  -2.779611e+05
  -2.035923e+05  -5.462671e+05
   3.274725e+05  -2.960085e+05
   5.986341e+05   2.015694e+05
   2.493408e+05   4.744336e+05
  -4.353467e+05   3.343035e+05
  -7.793003e+05  -2.561855e+04
  -4.323844e+05  -3.104448e+05
   2.403246e+05  -3.753470e+05
   5.504859e+05  -2.424715e+05
   2.380609e+05  -2.913429e+04
  -2.626646e+05   9.090883e+04
  -3.385039e+05  -1.066275e+04
   1.108886e+05  -2.346270e+05
   5.887904e+05  -2.545779e+05
