
 $NMID
 id='ANONYMOUS ', fmtdat='(2E16.6)'
 volume=1.0
 tramp=1.0
 $END
  -3.082484e+07  -1.594541e+05
  -2.011827e+07  -1.564479e+07
   1.014662e+06  -1.987250e+07
   1.383257e+07  -1.183358e+07
   1.078770e+07  -9.652181e+04
   1.252603e+05   5.490638e+06
  -6.124124e+06   2.014122e+06
  -4.030399e+06  -5.092524e+06
   1.933970e+06  -7.812813e+06
   5.733224e+06  -3.209477e+06
   4.757229e+06   3.913985e+06
   5.593431e+05   6.134722e+06
  -2.840421e+06   1.370124e+06
  -2.167895e+06  -4.905350e+06
   1.910663e+06  -5.770110e+06
   5.033228e+06  -2.922306e+05
   3.546602e+06   6.019136e+06
  -1.577463e+06   7.471062e+06
  -5.865706e+06   3.565102e+06
  -6.001346e+06  -1.682109e+06
  -2.764081e+06  -4.307905e+06
   2.884725e+05  -3.690084e+06
   4.537059e+05  -2.159335e+06
  -1.559002e+06  -2.172683e+06
  -2.320012e+06  -3.778291e+06
   6.557040e+05  -4.659998e+06
   5.616615e+06  -2.818908e+06
   7.746410e+06   9.358851e+05
   4.423996e+06   3.641219e+06
  -1.368714e+06   3.265934e+06
  -4.066825e+06   6.045384e+05
  -1.645612e+06  -1.822161e+06
   2.541243e+06  -2.040901e+06
   4.040418e+06   1.222475e+05
   2.013367e+06   3.005146e+06
  -8.555752e+05   4.056942e+06
  -1.925688e+06   1.998109e+06
  -9.798577e+05  -1.293578e+06
   3.730579e+05  -2.172953e+06
   5.523779e+05   4.582270e+05
  -7.072617e+05   3.236898e+06
  -2.150846e+06   2.269940e+06
  -2.005835e+06  -1.639362e+06
   1.967135e+05  -3.671146e+06
   2.648524e+06  -1.081137e+06
   2.677944e+06   3.293313e+06
  -4.379851e+05   4.567254e+06
  -4.277847e+06   1.475272e+06
  -5.304437e+06  -2.770571e+06
  -2.280030e+06  -4.445054e+06
   2.354487e+06  -2.753830e+06
   4.635278e+06   3.194693e+05
   2.808943e+06   2.244098e+06
  -1.006050e+06   1.839738e+06
  -3.021020e+06  -6.409391e+04
  -1.675363e+06  -1.430935e+06
   9.356260e+05  -9.553824e+05
   1.672495e+06   5.936898e+05
  -3.898985e+04   1.302356e+06
  -1.767192e+06   3.490946e+05
  -1.123646e+06  -1.163180e+06
   1.426746e+06  -1.572241e+06
   3.123367e+06  -2.840289e+05
   1.908802e+06   1.946338e+06
  -1.509852e+06   3.636024e+06
  -4.454349e+06   3.344379e+06
  -4.806216e+06   7.004576e+05
  -2.754683e+06  -2.802332e+06
  -2.844087e+05  -4.694734e+06
   8.869932e+05  -3.926708e+06
   8.054854e+05  -1.994420e+06
   7.781443e+05  -1.028403e+06
   1.623005e+06  -1.159830e+06
   2.718034e+06  -7.040701e+05
   2.785892e+06   1.143735e+06
   1.321820e+06   2.882882e+06
  -8.653509e+05   2.480355e+06
  -2.280266e+06  -6.439013e+04
  -1.825643e+06  -2.572511e+06
   3.332521e+05  -2.911986e+06
   2.660089e+06  -9.454535e+05
   3.315410e+06   1.624474e+06
   1.837421e+06   2.957063e+06
  -3.153402e+05   2.581761e+06
  -1.334114e+06   1.487692e+06
  -1.119766e+06   8.958026e+05
  -1.222077e+06   9.770201e+05
  -2.584439e+06   8.122741e+05
  -3.982194e+06  -4.316287e+05
  -3.301216e+06  -2.445770e+06
  -1.797277e+05  -3.931834e+06
   3.218297e+06  -3.696702e+06
   4.259656e+06  -1.662472e+06
   2.423960e+06   9.289476e+05
  -3.084970e+05   2.304836e+06
  -1.490072e+06   1.596460e+06
  -4.819029e+05  -2.239694e+05
   1.215738e+06  -1.156578e+06
   1.706143e+06  -3.018845e+05
   6.241159e+05   1.073189e+06
  -6.824884e+05   1.083655e+06
  -7.326205e+05  -3.264152e+05
   5.370291e+05  -1.180422e+06
   1.791825e+06   8.798830e+04
   1.630264e+06   2.579288e+06
  -1.880699e+05   3.805428e+06
  -2.558931e+06   2.377187e+06
  -3.827492e+06  -6.221099e+05
  -3.008039e+06  -2.856689e+06
  -6.683628e+05  -2.949327e+06
   1.375653e+06  -1.470903e+06
   1.648513e+06  -9.222668e+04
   4.833520e+05   5.011140e+04
  -3.595324e+05  -7.237596e+05
   2.816973e+05  -1.174519e+06
   1.610906e+06  -5.440251e+05
   1.864116e+06   6.416361e+05
   4.941710e+05   1.205270e+06
  -1.081969e+06   6.292254e+05
  -1.059145e+06  -4.228816e+05
   6.966481e+05  -8.274862e+05
   2.409466e+06  -7.190353e+04
   2.196175e+06   1.330871e+06
  -3.169823e+03   2.265137e+06
  -2.322824e+06   1.877588e+06
  -2.776777e+06   3.404643e+05
  -1.164819e+06  -1.126550e+06
   8.136289e+05  -1.279994e+06
   1.304520e+06  -1.371850e+05
   7.628227e+04   9.350339e+05
  -1.438163e+06   6.722538e+05
  -1.701139e+06  -6.622291e+05
  -5.276673e+05  -1.597382e+06
   9.072526e+05  -1.161871e+06
   1.296844e+06   5.982636e+04
   4.257811e+05   6.866446e+05
  -6.596860e+05   9.404205e+04
  -6.649480e+05  -9.970794e+05
   6.221177e+05  -1.351970e+06
   1.985039e+06  -4.474122e+05
   1.947385e+06   1.073881e+06
   3.652356e+05   1.998256e+06
  -1.337642e+06   1.601999e+06
  -1.660299e+06   2.821388e+05
  -5.751462e+05  -8.096380e+05
   6.023259e+05  -8.420680e+05
   7.379700e+05  -6.042902e+04
  -2.220270e+04   5.636222e+05
  -6.543693e+05   4.170115e+05
  -4.582470e+05  -1.277444e+05
   2.711328e+05  -2.205978e+05
   6.146774e+05   4.243466e+05
  -3.294334e+04   1.127417e+06
  -1.296266e+06   9.262834e+05
  -2.043099e+06  -3.778170e+05
  -1.422714e+06  -1.900383e+06
   2.265389e+05  -2.430729e+06
   1.628827e+06  -1.544561e+06
   1.828571e+06   1.071624e+04
   1.080121e+06   1.038289e+06
   3.799935e+05   1.005216e+06
   2.789404e+05   4.366255e+05
   3.942613e+05   2.231401e+05
   5.843164e+04   6.055212e+05
  -7.937807e+05   9.305854e+05
  -1.478108e+06   4.405588e+05
  -1.203537e+06  -7.599806e+05
   1.432626e+05  -1.634854e+06
   1.728508e+06  -1.194854e+06
   2.301333e+06   4.455581e+05
   1.229454e+06   2.044011e+06
  -8.295601e+05   2.326779e+06
  -2.387048e+06   1.141939e+06
  -2.415443e+06  -4.697683e+05
  -1.206800e+06  -1.322903e+06
   6.735593e+04  -1.163230e+06
   5.497958e+05  -7.087161e+05
   3.704273e+05  -7.131750e+05
   2.475572e+05  -1.109666e+06
   6.162145e+05  -1.136844e+06
   1.187808e+06  -2.664027e+05
   1.273950e+06   1.094010e+06
   5.164319e+05   1.889889e+06
  -6.504619e+05   1.419374e+06
  -1.292978e+06   2.843701e+04
  -8.515439e+05  -1.189276e+06
   2.524385e+05  -1.368620e+06
   9.936380e+05  -5.661681e+05
   7.852408e+05   4.373583e+05
   5.337538e+04   9.243895e+05
  -3.114741e+05   8.073674e+05
   2.953447e+03   5.040124e+05
   3.841741e+05   3.833493e+05
   2.936884e+04   3.997271e+05
  -1.060521e+06   2.333509e+05
  -1.932029e+06  -2.901635e+05
  -1.595460e+06  -9.569389e+05
  -9.487770e+04  -1.318510e+06
   1.415660e+06  -1.077721e+06
   1.758128e+06  -3.677409e+05
   8.781067e+05   3.105556e+05
  -1.862117e+05   4.774522e+05
  -4.589721e+05   1.071826e+05
   2.603633e+04  -3.056034e+05
   4.990103e+05  -2.182520e+05
   4.521934e+05   3.457762e+05
   1.087097e+05   7.540728e+05
  -3.620705e+04   4.818175e+05
   1.544400e+05  -1.861805e+05
   3.861776e+05  -4.016646e+05
   2.981693e+05   2.174341e+05
  -2.151757e+05   1.021942e+06
  -8.922479e+05   1.025084e+06
  -1.191296e+06   7.746747e+04
  -6.792805e+05  -9.151020e+05
   4.182251e+05  -1.000369e+06
   1.156079e+06  -1.962720e+05
   7.009702e+05   6.180928e+05
  -6.680717e+05   6.669441e+05
  -1.640073e+06  -3.256997e+04
  -1.174879e+06  -8.346261e+05
   3.594218e+05  -1.096446e+06
   1.537292e+06  -6.553533e+05
   1.352049e+06   1.024647e+05
   1.990017e+05   5.474220e+05
  -6.353098e+05   3.285774e+05
  -3.387897e+05  -2.529930e+05
   6.485042e+05  -4.488888e+05
   1.163206e+06   1.912511e+05
   5.353228e+05   1.233084e+06
  -7.481267e+05   1.638268e+06
  -1.558776e+06   7.753466e+05
  -1.239613e+06  -8.247173e+05
  -1.606724e+05  -1.830621e+06
   7.650892e+05  -1.361149e+06
   9.557662e+05   1.078499e+05
   5.061368e+05   1.196264e+06
  -1.260652e+05   1.038832e+06
  -5.361101e+05   1.257111e+05
  -5.435607e+05  -4.070398e+05
  -2.495662e+05  -1.717462e+05
  -1.753057e+04   1.238820e+05
  -1.550602e+05  -2.361580e+05
  -4.554125e+05  -9.519316e+05
  -2.840022e+05  -1.112563e+06
   6.048564e+05  -4.130932e+05
   1.498301e+06   4.909298e+05
   1.379123e+06   8.627975e+05
   1.906717e+05   6.856182e+05
  -9.508445e+05   3.980864e+05
  -1.027643e+06   2.024723e+05
  -2.923341e+05  -4.277993e+03
   1.829575e+05  -2.147902e+05
  -5.978233e+04  -2.600625e+05
  -3.698569e+05  -1.609537e+05
  -6.842058e+03  -1.399221e+05
   7.820870e+05  -1.804081e+05
   1.036750e+06   6.376834e+04
   2.661700e+05   6.806433e+05
  -9.672921e+05   1.098060e+06
  -1.648243e+06   6.487717e+05
  -1.275396e+06  -5.179518e+05
  -2.038103e+05  -1.434091e+06
   7.705542e+05  -1.330276e+06
   1.060387e+06  -4.467146e+05
   6.656147e+05   3.058170e+05
   8.191936e+04   3.593034e+05
  -1.588447e+05   1.297747e+03
   5.115762e+04  -8.573192e+04
   3.423239e+05   3.463554e+05
   2.712932e+05   8.174348e+05
  -2.151252e+05   6.549340e+05
  -6.980123e+05  -2.054929e+05
  -6.574150e+05  -1.035725e+06
   1.670846e+04  -1.022581e+06
   8.166155e+05  -1.349353e+05
   9.860217e+05   8.333974e+05
   2.602221e+05   1.093500e+06
  -7.445123e+05   5.907392e+05
  -1.071499e+06  -1.279903e+05
  -4.659876e+05  -5.600472e+05
   2.946435e+05  -5.867106e+05
   3.106983e+05  -3.419025e+05
  -3.319710e+05  -5.123930e+04
  -6.742674e+05   8.899059e+03
  -1.104350e+05  -2.947554e+05
   8.445418e+05  -6.725338e+05
   1.204812e+06  -5.780354e+05
   6.770577e+05   1.262488e+05
  -1.243702e+05   8.348420e+05
  -4.987733e+05   8.123468e+05
  -3.436914e+05   9.312010e+04
   4.329712e+03  -5.151603e+05
   2.651724e+05  -3.838321e+05
   3.514580e+05   2.319858e+05
   2.279459e+05   5.876733e+05
  -8.182678e+04   3.569272e+05
  -3.863158e+05  -8.795293e+04
  -4.447494e+05  -2.395969e+05
  -2.413945e+05  -5.537605e+04
  -5.710082e+03   9.057236e+04
   8.476068e+04  -7.761414e+04
   1.041378e+05  -3.998318e+05
   2.108837e+05  -4.616847e+05
   3.685343e+05  -7.071272e+04
   3.455224e+05   4.789519e+05
   5.162995e+03   6.607172e+05
  -4.547751e+05   2.655391e+05
  -6.060526e+05  -3.465031e+05
  -1.991193e+05  -6.107900e+05
   4.952745e+05  -3.422546e+05
   8.363907e+05   1.320200e+05
   4.472627e+05   3.925495e+05
  -3.033607e+05   3.364100e+05
  -6.238713e+05   1.422888e+05
  -1.918210e+05   1.443241e+03
   4.296209e+05   4.576128e+03
   4.364285e+05   1.604519e+05
  -2.458908e+05   3.353497e+05
  -8.634294e+05   2.448757e+05
