
 $NMID
 id='ANONYMOUS ', fmtdat='(2E16.6)'
 volume=1.0
 tramp=1.0
 $END
   4.623882e+07  -1.606449e+06
   2.928801e+07   2.618199e+07
  -3.819963e+06   3.095955e+07
  -2.151410e+07   1.428691e+07
  -1.423270e+07  -3.617139e+06
   1.654259e+06  -7.809299e+06
   8.263604e+06  -3.889831e+05
   3.551991e+06   7.708476e+06
  -4.096459e+06   8.845906e+06
  -7.932569e+06   2.787031e+06
  -6.318367e+06  -5.040830e+06
  -1.042207e+06  -7.594759e+06
   3.461301e+06  -2.351402e+06
   2.708277e+06   5.114786e+06
  -2.725506e+06   6.345121e+06
  -6.736234e+06  -4.206718e+05
  -4.414033e+06  -8.358293e+06
   2.504692e+06  -1.017094e+07
   8.231227e+06  -5.298063e+06
   8.994390e+06   1.576328e+06
   5.330654e+06   6.072731e+06
   5.118809e+05   6.699325e+06
  -1.816059e+06   4.542410e+06
  -3.873293e+05   2.412802e+06
   1.784770e+06   2.677911e+06
   1.420077e+05   4.400794e+06
  -5.334590e+06   4.071300e+06
  -8.952029e+06   3.464036e+05
  -6.203363e+06  -3.695723e+06
   2.128640e+05  -4.422030e+06
   3.822610e+06  -2.009444e+06
   2.240926e+06   6.243746e+05
  -1.267693e+06   1.508821e+06
  -2.985101e+06   4.604991e+05
  -2.281745e+06  -1.948417e+06
  -2.961763e+05  -4.024761e+06
   1.740531e+06  -3.221557e+06
   2.405855e+06   5.187198e+05
   1.003740e+06   3.072246e+06
  -7.066329e+05   1.009603e+06
  -9.739066e+04  -2.804727e+06
   2.217911e+06  -2.408157e+06
   2.364312e+06   2.471424e+06
  -1.342366e+06   5.175166e+06
  -5.187131e+06   1.192259e+06
  -4.335104e+06  -5.340024e+06
   1.076056e+06  -6.986385e+06
   6.100473e+06  -2.278893e+06
   6.453960e+06   3.502159e+06
   2.259385e+06   5.288556e+06
  -2.889774e+06   2.858941e+06
  -5.038573e+06  -8.029380e+05
  -2.701965e+06  -2.851097e+06
   1.761422e+06  -2.113841e+06
   3.939124e+06   4.204754e+05
   1.920922e+06   2.122298e+06
  -1.357998e+06   1.257925e+06
  -1.748289e+06  -7.684688e+05
   7.452444e+05  -1.079278e+06
   2.185583e+06   8.220341e+05
   1.456428e+05   2.482583e+06
  -3.272291e+06   1.857961e+06
  -4.429293e+06  -5.319767e+05
  -2.266141e+06  -3.070055e+06
   1.492566e+06  -4.703718e+06
   4.615164e+06  -4.490191e+06
   5.611260e+06  -1.590019e+06
   4.010132e+06   2.871196e+06
   9.343784e+05   5.577698e+06
  -1.267214e+06   4.492672e+06
  -1.281623e+06   1.577832e+06
  -3.589431e+05   2.984347e+05
  -5.702729e+05   1.136418e+06
  -2.014060e+06   1.503208e+06
  -2.869821e+06  -1.639851e+05
  -1.904583e+06  -2.247096e+06
   1.997238e+05  -2.332571e+06
   1.854421e+06  -2.178312e+05
   1.880191e+06   2.187908e+06
   2.311514e+04   2.955485e+06
  -2.682923e+06   1.519166e+06
  -4.110514e+06  -1.189068e+06
  -2.838579e+06  -3.349995e+06
   6.457978e+03  -3.600132e+06
   1.825033e+06  -2.309191e+06
   1.747987e+06  -1.107855e+06
   1.546336e+06  -8.695504e+05
   2.771956e+06  -7.513442e+05
   4.247932e+06   4.238574e+05
   3.559207e+06   2.479950e+06
   3.563401e+05   4.063336e+06
  -3.035872e+06   4.009921e+06
  -4.143950e+06   2.173662e+06
  -2.627337e+06  -4.977446e+05
  -1.661700e+05  -2.291093e+06
   1.177462e+06  -1.889043e+06
   5.462124e+05   8.558993e+04
  -1.085393e+06   1.320934e+06
  -1.824742e+06   4.521940e+05
  -8.664571e+05  -1.128124e+06
   5.303918e+05  -1.144759e+06
   5.687598e+05   3.308056e+05
  -8.054156e+05   9.220896e+05
  -1.851595e+06  -7.300721e+05
  -1.173509e+06  -3.069323e+06
   8.537565e+05  -3.600767e+06
   2.811782e+06  -1.750198e+06
   3.566636e+06   9.346216e+05
   2.723160e+06   2.662613e+06
   6.913986e+05   2.726150e+06
  -1.226104e+06   1.547392e+06
  -1.611501e+06   2.613882e+05
  -4.953114e+05  -2.304977e+04
   3.987828e+05   7.288558e+05
  -3.054142e+05   1.302380e+06
  -1.780516e+06   6.531229e+05
  -2.018264e+06  -7.046968e+05
  -4.919636e+05  -1.322482e+06
   1.115863e+06  -6.536427e+05
   9.835807e+05   3.938353e+05
  -7.564964e+05   6.783427e+05
  -2.283282e+06  -5.084654e+04
  -1.998608e+06  -1.247378e+06
   4.277008e+04  -2.099853e+06
   2.237673e+06  -1.870648e+06
   2.780257e+06  -4.422862e+05
   1.264816e+06   1.163826e+06
  -8.210551e+05   1.471813e+06
  -1.468914e+06   2.382998e+05
  -2.033305e+05  -1.030525e+06
   1.465835e+06  -7.921844e+05
   1.760656e+06   6.572780e+05
   4.927003e+05   1.619968e+06
  -9.741033e+05   1.101022e+06
  -1.286934e+06  -1.551344e+05
  -3.500326e+05  -7.323493e+05
   7.482195e+05  -1.040687e+05
   7.678513e+05   1.007835e+06
  -5.288786e+05   1.441993e+06
  -1.994150e+06   6.137635e+05
  -2.075769e+06  -9.686226e+05
  -4.822664e+05  -2.046187e+06
   1.333409e+06  -1.710428e+06
   1.703026e+06  -3.227488e+05
   5.745727e+05   8.260244e+05
  -6.016123e+05   8.555851e+05
  -6.751759e+05   1.079993e+05
   5.579596e+04  -4.411581e+05
   5.360279e+05  -3.209885e+05
   2.551656e+05   6.687403e+04
  -3.755509e+05   4.757522e+04
  -5.803358e+05  -5.545903e+05
   8.650479e+04  -1.177179e+06
   1.315437e+06  -9.806637e+05
   2.104955e+06   3.002551e+05
   1.559159e+06   1.872026e+06
  -9.846626e+04   2.457142e+06
  -1.556026e+06   1.556204e+06
  -1.756279e+06   7.865703e+03
  -9.993577e+05  -9.023586e+05
  -3.931027e+05  -7.691185e+05
  -4.292710e+05  -2.868559e+05
  -5.577375e+05  -2.616239e+05
  -1.110671e+05  -7.086870e+05
   8.057899e+05  -9.599648e+05
   1.449223e+06  -4.453408e+05
   1.153670e+06   6.813103e+05
  -1.301595e+05   1.544044e+06
  -1.678436e+06   1.214587e+06
  -2.309553e+06  -3.566717e+05
  -1.282738e+06  -2.035302e+06
   8.337949e+05  -2.414505e+06
   2.449523e+06  -1.202578e+06
   2.419154e+06   4.729519e+05
   1.123446e+06   1.283910e+06
  -9.843939e+04   1.037578e+06
  -4.161229e+05   6.150492e+05
  -1.498644e+05   7.629356e+05
  -1.000056e+05   1.257771e+06
  -5.977297e+05   1.275437e+06
  -1.252128e+06   3.633001e+05
  -1.381846e+06  -1.029135e+06
  -6.436911e+05  -1.882564e+06
   5.649045e+05  -1.476322e+06
   1.298059e+06  -7.498555e+04
   8.946202e+05   1.216718e+06
  -2.735082e+05   1.411309e+06
  -1.082490e+06   5.188745e+05
  -8.317175e+05  -5.681765e+05
   1.210617e+04  -1.027389e+06
   4.178880e+05  -8.146519e+05
   2.834380e+04  -4.517358e+05
  -4.387067e+05  -3.358466e+05
  -6.992158e+04  -3.908099e+05
   1.114499e+06  -2.749790e+05
   2.048180e+06   2.201973e+05
   1.672544e+06   9.347890e+05
   7.785522e+04   1.400800e+06
  -1.484639e+06   1.200984e+06
  -1.802267e+06   4.028309e+05
  -8.734180e+05  -3.874527e+05
   2.114404e+05  -5.507345e+05
   4.918164e+05  -8.419130e+04
   2.689683e+04   3.842949e+05
  -4.551218e+05   2.718750e+05
  -4.931532e+05  -3.225894e+05
  -2.434998e+05  -7.337608e+05
  -7.521110e+04  -4.854726e+05
  -1.352457e+05   1.357048e+05
  -2.990053e+05   3.529746e+05
  -2.971455e+05  -2.136102e+05
   1.153981e+05  -1.018095e+06
   8.509193e+05  -1.107438e+06
   1.309657e+06  -2.057727e+05
   8.472154e+05   8.861914e+05
  -3.667651e+05   1.122879e+06
  -1.222438e+06   3.526665e+05
  -7.609377e+05  -5.565817e+05
   6.620557e+05  -6.950931e+05
   1.621628e+06  -9.229099e+03
   1.115166e+06   8.012137e+05
  -3.899879e+05   1.053113e+06
  -1.491860e+06   6.214983e+05
  -1.289585e+06  -9.378426e+04
  -1.851436e+05  -5.199146e+05
   6.339656e+05  -3.242372e+05
   3.860908e+05   2.653366e+05
  -5.871694e+05   5.368905e+05
  -1.197107e+06  -5.575394e+04
  -6.989551e+05  -1.179604e+06
   5.582164e+05  -1.737069e+06
   1.479683e+06  -9.418144e+05
   1.306423e+06   7.198039e+05
   2.883860e+05   1.812477e+06
  -6.838695e+05   1.368098e+06
  -9.499183e+05  -1.068610e+05
  -5.213744e+05  -1.178846e+06
   1.391807e+05  -1.007133e+06
   5.534495e+05  -1.258676e+05
   5.153054e+05   3.621105e+05
   1.997847e+05   1.365599e+05
   3.351427e+04  -1.059136e+05
   2.582877e+05   2.716741e+05
   5.489673e+05   9.473428e+05
   2.786293e+05   1.085009e+06
  -6.678319e+05   4.367838e+05
  -1.522369e+06  -3.982504e+05
  -1.367183e+06  -7.805744e+05
  -2.248536e+05  -6.918286e+05
   8.684358e+05  -4.674310e+05
   9.959376e+05  -2.440560e+05
   3.457842e+05   2.390793e+04
  -1.459635e+05   2.344418e+05
   3.810205e+03   2.198732e+05
   3.046002e+05   9.453664e+04
   4.683357e+04   1.357187e+05
  -6.909662e+05   2.649624e+05
  -1.058272e+06   3.081415e+04
  -4.302178e+05  -6.807798e+05
   8.233709e+05  -1.221025e+06
   1.668228e+06  -8.265803e+05
   1.418643e+06   3.876694e+05
   3.378580e+05   1.416765e+06
  -7.031870e+05   1.420927e+06
  -1.038486e+06   5.787964e+05
  -6.813045e+05  -2.169785e+05
  -1.419444e+05  -3.576212e+05
   9.268792e+04  -5.884269e+04
  -7.045612e+04   3.720989e+04
  -3.332436e+05  -3.481424e+05
  -3.004086e+05  -8.048152e+05
   1.537840e+05  -6.923146e+05
   7.033533e+05   1.041158e+05
   7.843491e+05   9.446931e+05
   1.428094e+05   1.040351e+06
  -7.673877e+05   2.692624e+05
  -1.080331e+06  -6.989043e+05
  -3.930330e+05  -1.086979e+06
   6.942347e+05  -7.064333e+05
   1.126740e+06   2.733480e+04
   5.542639e+05   5.806082e+05
  -2.582387e+05   6.812521e+05
  -3.487223e+05   3.841019e+05
   2.714747e+05   1.051845e+03
   6.614019e+05  -7.027485e+04
   1.567313e+05   3.019241e+05
  -8.014840e+05   7.315892e+05
  -1.229496e+06   6.218577e+05
  -7.594007e+05  -1.296190e+05
   5.677233e+04  -8.779695e+05
   5.009302e+05  -8.843210e+05
   4.065605e+05  -1.687781e+05
   7.019843e+04   4.918288e+05
  -2.253497e+05   4.437005e+05
  -3.679105e+05  -1.471614e+05
  -2.842230e+05  -5.728561e+05
   3.860736e+04  -4.213667e+05
   3.988000e+05   3.250150e+04
   4.883079e+05   2.497986e+05
   2.485257e+05   7.531025e+04
  -3.209375e+04  -1.391327e+05
  -8.114539e+04  -1.368945e+04
   9.808118e+03   3.715724e+05
  -5.682690e+04   5.478172e+05
  -3.269730e+05   2.105756e+05
  -4.659726e+05  -3.830846e+05
  -1.646709e+05  -6.554463e+05
   4.066303e+05  -3.333009e+05
   6.788499e+05   2.610343e+05
   2.798690e+05   5.754654e+05
  -4.910530e+05   3.931977e+05
  -8.900988e+05  -3.961664e+04
  -5.002171e+05  -3.591167e+05
   2.790854e+05  -4.092021e+05
   6.341025e+05  -2.492794e+05
   2.414306e+05  -2.686831e+04
  -3.657778e+05   7.818101e+04
  -4.256947e+05  -5.886714e+04
   1.666557e+05  -3.160729e+05
   7.607233e+05  -3.169584e+05
