
 $NMID
 id='ANONYMOUS ', fmtdat='(2E16.6)'
 volume=1.0
 tramp=1.0
 $END
  -2.358407e+07  -1.032496e+06
  -1.353359e+07  -1.477800e+07
   3.703944e+06  -1.563937e+07
   1.176620e+07  -5.974448e+06
   6.890846e+06   3.021014e+06
  -1.531732e+06   4.288723e+06
  -4.456485e+06  -1.002681e+05
  -1.545823e+06  -4.227329e+06
   2.508813e+06  -4.465313e+06
   4.280861e+06  -1.026615e+06
   3.082881e+06   3.088768e+06
   6.541015e+04   4.172197e+06
  -2.214509e+06   1.126731e+06
  -1.481521e+06  -2.781326e+06
   1.514799e+06  -3.124610e+06
   3.313825e+06   5.538623e+05
   1.696912e+06   4.349689e+06
  -1.890494e+06   4.734821e+06
  -4.410480e+06   1.956705e+06
  -4.360039e+06  -1.423725e+06
  -2.303249e+06  -3.439722e+06
   2.029655e+05  -3.532056e+06
   1.430900e+06  -2.203608e+06
   6.271407e+05  -8.953511e+05
  -7.428315e+05  -9.965468e+05
  -1.517717e+05  -2.068671e+06
   2.629493e+06  -2.066916e+06
   4.614576e+06  -8.638925e+04
   3.253302e+06   2.191781e+06
  -1.527372e+05   2.648538e+06
  -2.154205e+06   1.292321e+06
  -1.398407e+06  -2.490083e+05
   4.369368e+05  -8.129952e+05
   1.359367e+06  -2.673841e+05
   9.771389e+05   1.016441e+06
  -1.100331e+05   2.049009e+06
  -1.164351e+06   1.494319e+06
  -1.374023e+06  -5.426145e+05
  -4.642760e+05  -1.807116e+06
   4.872699e+05  -6.197864e+05
   1.114658e+05   1.345325e+06
  -1.100491e+06   1.036330e+06
  -1.068011e+06  -1.440619e+06
   9.059819e+05  -2.584306e+06
   2.739168e+06  -3.538741e+05
   2.073856e+06   2.876895e+06
  -7.341605e+05   3.452904e+06
  -3.095695e+06   9.622530e+05
  -3.059494e+06  -1.845276e+06
  -9.049343e+05  -2.610693e+06
   1.558082e+06  -1.329364e+06
   2.457222e+06   5.763162e+05
   1.135374e+06   1.656975e+06
  -1.145851e+06   1.159485e+06
  -2.115432e+06  -3.889397e+05
  -9.028932e+05  -1.357774e+06
   8.137421e+05  -7.297124e+05
   8.929390e+05   5.027689e+05
  -4.656065e+05   5.863455e+05
  -1.109460e+06  -5.773577e+05
   6.441679e+04  -1.379741e+06
   1.761631e+06  -7.847432e+05
   2.148223e+06   5.646032e+05
   9.182043e+05   1.643753e+06
  -9.280852e+05   2.154409e+06
  -2.364294e+06   1.930401e+06
  -2.761423e+06   5.577904e+05
  -1.868810e+06  -1.564085e+06
  -2.208637e+05  -2.815283e+06
   9.160194e+05  -2.122535e+06
   7.896871e+05  -5.264660e+05
   1.004909e+05   9.779910e+04
   7.397604e+04  -4.981682e+05
   8.494944e+05  -8.548783e+05
   1.423305e+06  -4.803560e+04
   1.027230e+06   1.092120e+06
  -5.109339e+04   1.234976e+06
  -9.451448e+05   1.894897e+05
  -9.671967e+05  -1.076430e+06
   1.668300e+04  -1.505912e+06
   1.394793e+06  -7.426005e+05
   2.029214e+06   7.033504e+05
   1.266918e+06   1.792790e+06
  -2.017596e+05   1.794126e+06
  -1.042243e+06   1.002643e+06
  -9.030309e+05   3.633956e+05
  -7.303348e+05   2.972985e+05
  -1.271743e+06   2.812363e+05
  -1.932689e+06  -2.862253e+05
  -1.589022e+06  -1.243813e+06
  -1.069521e+05  -1.917997e+06
   1.464481e+06  -1.835795e+06
   2.017761e+06  -9.752231e+05
   1.333436e+06   2.770714e+05
   1.011481e+05   1.152589e+06
  -6.582438e+05   9.606633e+05
  -3.725664e+05  -5.208509e+04
   5.297459e+05  -7.010737e+05
   9.793986e+05  -2.357582e+05
   4.664119e+05   6.271970e+05
  -3.141103e+05   6.648887e+05
  -3.570346e+05  -1.098815e+05
   3.372957e+05  -4.565292e+05
   8.178983e+05   3.285210e+05
   4.311644e+05   1.437795e+06
  -5.146778e+05   1.630998e+06
  -1.319172e+06   6.931917e+05
  -1.573289e+06  -5.633770e+05
  -1.181155e+06  -1.305770e+06
  -2.762909e+05  -1.270018e+06
   6.115908e+05  -6.843167e+05
   7.961870e+05  -7.129282e+04
   2.409886e+05   4.665707e+04
  -2.154192e+05  -3.495591e+05
   1.348411e+05  -6.538809e+05
   8.896212e+05  -3.315046e+05
   1.033579e+06   3.677442e+05
   2.858353e+05   7.110739e+05
  -5.355669e+05   4.064946e+05
  -5.360871e+05  -1.155888e+05
   2.500872e+05  -2.991550e+05
   9.875833e+05  -2.210572e+03
   9.111198e+05   5.441906e+05
  -1.196514e+04   9.586112e+05
  -1.062851e+06   8.565283e+05
  -1.345590e+06   1.574112e+05
  -6.036360e+05  -6.233269e+05
   4.442687e+05  -7.396396e+05
   7.704660e+05  -9.053833e+04
   1.242405e+05   5.446983e+05
  -7.203601e+05   4.044512e+05
  -8.655182e+05  -3.331714e+05
  -2.327146e+05  -8.149331e+05
   4.957429e+05  -5.598416e+05
   6.669434e+05   6.722872e+04
   2.301787e+05   3.857536e+05
  -3.165716e+05   1.262546e+05
  -3.815327e+05  -3.998339e+05
   1.923852e+05  -6.433198e+05
   8.930874e+05  -2.861001e+05
   9.583492e+05   4.609594e+05
   2.049516e+05   9.790552e+05
  -6.780434e+05   8.020952e+05
  -8.627190e+05   1.079631e+05
  -3.045700e+05  -4.575225e+05
   2.978894e+05  -4.655573e+05
   3.806853e+05  -8.952890e+04
   6.227793e+04   2.064202e+05
  -1.867624e+05   1.982754e+05
  -1.268819e+05   4.465464e+04
   1.002909e+05   2.607624e+04
   1.898368e+05   2.399285e+05
  -7.103649e+04   4.845270e+05
  -5.942999e+05   4.006851e+05
  -9.434077e+05  -1.656314e+05
  -6.810984e+05  -8.831372e+05
   1.024205e+05  -1.150436e+06
   7.751136e+05  -7.100756e+05
   8.342383e+05   4.199185e+04
   4.482534e+05   4.812081e+05
   1.550665e+05   4.118293e+05
   1.638687e+05   1.672680e+05
   2.020260e+05   1.225719e+05
  -9.188658e+03   2.831509e+05
  -3.863726e+05   3.646160e+05
  -6.156064e+05   1.403644e+05
  -4.580685e+05  -3.204221e+05
   9.218030e+04  -6.627059e+05
   7.547583e+05  -5.004050e+05
   1.032742e+06   1.968422e+05
   5.743687e+05   9.406225e+05
  -3.924759e+05   1.099570e+06
  -1.142730e+06   5.328739e+05
  -1.134552e+06  -2.458428e+05
  -5.343787e+05  -6.209408e+05
   4.212683e+04  -5.016427e+05
   2.124301e+05  -2.987029e+05
   1.148244e+05  -3.595981e+05
   9.936770e+04  -5.788586e+05
   3.118666e+05  -5.739696e+05
   5.865237e+05  -1.396370e+05
   6.245282e+05   5.085261e+05
   2.702027e+05   8.944794e+05
  -2.903313e+05   6.902973e+05
  -6.140860e+05   3.181569e+04
  -4.068046e+05  -5.630260e+05
   1.328731e+05  -6.482803e+05
   4.843134e+05  -2.446349e+05
   3.605882e+05   2.389953e+05
  -2.506501e+03   4.464692e+05
  -1.658426e+05   3.703187e+05
  -6.654793e+03   2.311527e+05
   1.688274e+05   1.795059e+05
   1.545863e+03   1.742804e+05
  -4.955727e+05   8.706762e+04
  -8.956865e+05  -1.451841e+05
  -7.471065e+05  -4.446661e+05
  -4.806276e+04  -6.227332e+05
   6.743664e+05  -5.192113e+05
   8.427598e+05  -1.729940e+05
   4.131730e+05   1.604007e+05
  -1.004897e+05   2.275441e+05
  -2.135482e+05   3.427026e+04
   3.489599e+04  -1.526522e+05
   2.496423e+05  -8.819547e+04
   2.075204e+05   1.813330e+05
   4.775160e+04   3.613212e+05
  -9.013716e+03   2.363271e+05
   6.473531e+04  -6.353148e+04
   1.421413e+05  -1.758544e+05
   1.031603e+05   7.836775e+04
  -9.740947e+04   4.394226e+05
  -3.890810e+05   4.638510e+05
  -5.443116e+05   4.580125e+04
  -3.246690e+05  -4.207037e+05
   1.950386e+05  -4.714243e+05
   5.503402e+05  -9.121460e+04
   3.262990e+05   2.940333e+05
  -3.246153e+05   3.033329e+05
  -7.621266e+05  -3.490900e+04
  -5.219421e+05  -3.931032e+05
   1.869366e+05  -4.891805e+05
   7.094350e+05  -2.828407e+05
   6.147887e+05   5.061435e+04
   8.993671e+04   2.511165e+05
  -2.962943e+05   1.586536e+05
  -1.704540e+05  -1.141870e+05
   2.903120e+05  -2.230078e+05
   5.502538e+05   7.150626e+04
   2.671537e+05   5.778154e+05
  -3.469370e+05   7.826130e+05
  -7.404702e+05   3.692344e+05
  -5.848837e+05  -3.953314e+05
  -6.845575e+04  -8.634109e+05
   3.607101e+05  -6.314784e+05
   4.397864e+05   5.474600e+04
   2.329420e+05   5.518369e+05
  -5.066163e+04   4.761124e+05
  -2.403739e+05   6.142068e+04
  -2.523561e+05  -1.772825e+05
  -1.203798e+05  -6.953936e+04
  -1.219257e+04   5.967128e+04
  -7.897990e+04  -1.154109e+05
  -2.213972e+05  -4.519789e+05
  -1.346445e+05  -5.244681e+05
   2.903641e+05  -1.923310e+05
   7.070662e+05   2.326940e+05
   6.419748e+05   4.039154e+05
   8.291548e+04   3.186457e+05
  -4.456329e+05   1.853440e+05
  -4.782568e+05   9.304885e+04
  -1.353185e+05  -9.052738e+03
   8.994404e+04  -1.075801e+05
  -1.814993e+04  -1.168316e+05
  -1.670121e+05  -5.981385e+04
  -9.017147e+03  -5.660099e+04
   3.571504e+05  -9.067063e+04
   4.868871e+05   2.265797e+04
   1.327511e+05   3.252935e+05
  -4.536066e+05   5.268127e+05
  -7.831643e+05   3.058708e+05
  -6.056425e+05  -2.496744e+05
  -9.493689e+04  -6.736401e+05
   3.611652e+05  -6.189836e+05
   4.917257e+05  -2.120000e+05
   3.101006e+05   1.319545e+05
   4.487048e+04   1.629482e+05
  -6.910769e+04   7.147940e+03
   2.086022e+04  -3.478504e+04
   1.576295e+05   1.571935e+05
   1.341071e+05   3.784899e+05
  -9.265612e+04   3.153923e+05
  -3.324242e+05  -8.323007e+04
  -3.233546e+05  -4.851210e+05
   5.696373e+02  -4.917413e+05
   3.898939e+05  -7.246420e+04
   4.715440e+05   3.927227e+05
   1.228326e+05   5.183795e+05
  -3.527523e+05   2.787737e+05
  -5.031466e+05  -6.020349e+04
  -2.177271e+05  -2.615472e+05
   1.358421e+05  -2.748129e+05
   1.421803e+05  -1.624955e+05
  -1.556149e+05  -2.628025e+04
  -3.130849e+05   3.139480e+03
  -4.927496e+04  -1.399023e+05
   3.978407e+05  -3.168485e+05
   5.678664e+05  -2.677932e+05
   3.195605e+05   6.720649e+04
  -6.082906e+04   3.971510e+05
  -2.402042e+05   3.796554e+05
  -1.661856e+05   3.942249e+04
   1.519477e+03  -2.434253e+05
   1.269042e+05  -1.799830e+05
   1.671351e+05   1.085387e+05
   1.066496e+05   2.767257e+05
  -4.153363e+04   1.706727e+05
  -1.849030e+05  -4.027239e+04
  -2.094303e+05  -1.163735e+05
  -1.112675e+05  -2.932922e+04
  -2.754444e+03   4.535571e+04
   3.458656e+04  -3.262458e+04
   4.298000e+04  -1.923655e+05
   9.949173e+04  -2.280864e+05
   1.804482e+05  -3.926016e+04
   1.701536e+05   2.292362e+05
   5.640151e+03   3.171509e+05
  -2.145316e+05   1.263187e+05
  -2.869279e+05  -1.641374e+05
  -9.528943e+04  -2.861546e+05
   2.328986e+05  -1.588332e+05
   3.956552e+05   6.246073e+04
   2.121618e+05   1.856069e+05
  -1.458526e+05   1.622230e+05
  -3.009511e+05   6.915638e+04
  -9.512059e+04  -4.906426e+03
   2.048942e+05  -7.763540e+03
   2.127240e+05   7.136633e+04
  -1.103356e+05   1.629184e+05
  -4.054789e+05   1.227110e+05
