
 $NMID
 id='ANONYMOUS ', fmtdat='(2E16.6)'
 volume=1.0
 tramp=1.0
 $END
  -4.674841e+07   9.300564e+05
  -2.936336e+07  -2.691566e+07
   4.246553e+06  -3.134161e+07
   2.209327e+07  -1.421952e+07
   1.451197e+07   3.889065e+06
  -1.775609e+06   7.957457e+06
  -8.474635e+06   2.836682e+05
  -3.523937e+06  -7.938268e+06
   4.354386e+06  -8.977507e+06
   8.149546e+06  -2.712447e+06
   6.307882e+06   5.235342e+06
   8.871727e+05   7.721971e+06
  -3.541978e+06   2.302392e+06
  -2.601992e+06  -5.263701e+06
   2.929688e+06  -6.408629e+06
   6.851262e+06   5.406969e+05
   4.331943e+06   8.563913e+06
  -2.721929e+06   1.027334e+07
  -8.420474e+06   5.217800e+06
  -9.046914e+06  -1.744442e+06
  -5.274890e+06  -6.190562e+06
  -4.460405e+05  -6.740481e+06
   1.846635e+06  -4.593586e+06
   4.244238e+05  -2.541744e+06
  -1.683098e+06  -2.832323e+06
   2.418726e+04  -4.448798e+06
   5.501633e+06  -3.938290e+06
   9.039581e+06  -1.076948e+05
   6.173097e+06   3.868133e+06
  -3.162191e+05   4.419017e+06
  -3.889241e+06   1.890593e+06
  -2.191149e+06  -6.974299e+05
   1.390485e+06  -1.441526e+06
   3.045696e+06  -3.073801e+05
   2.200973e+06   2.067603e+06
   1.459425e+05   4.053382e+06
  -1.819654e+06   3.192503e+06
  -2.368651e+06  -5.486166e+05
  -9.453680e+05  -3.073987e+06
   6.725297e+05  -9.852924e+05
  -2.823178e+04   2.826265e+06
  -2.327634e+06   2.381697e+06
  -2.367014e+06  -2.558677e+06
   1.429535e+06  -5.258538e+06
   5.264451e+06  -1.179564e+06
   4.319592e+06   5.448346e+06
  -1.178515e+06   7.064605e+06
  -6.206469e+06   2.205435e+06
  -6.476093e+06  -3.696832e+06
  -2.176736e+06  -5.442336e+06
   3.018475e+06  -2.847094e+06
   5.124556e+06   9.470767e+05
   2.696512e+06   2.986474e+06
  -1.832057e+06   2.135561e+06
  -4.001649e+06  -4.969629e+05
  -1.923267e+06  -2.198710e+06
   1.398415e+06  -1.256993e+06
   1.765761e+06   8.310929e+05
  -7.897268e+05   1.119153e+06
  -2.254119e+06  -8.605202e+05
  -1.600546e+05  -2.558564e+06
   3.339521e+06  -1.878948e+06
   4.511253e+06   5.997613e+05
   2.260979e+06   3.158899e+06
  -1.617215e+06   4.719732e+06
  -4.782928e+06   4.409108e+06
  -5.703833e+06   1.462679e+06
  -3.970718e+06  -2.986800e+06
  -8.058211e+05  -5.660900e+06
   1.398898e+06  -4.545455e+06
   1.370936e+06  -1.598971e+06
   4.235904e+05  -2.827736e+05
   6.385434e+05  -1.082434e+06
   2.069257e+06  -1.413941e+06
   2.863928e+06   2.721959e+05
   1.824778e+06   2.330913e+06
  -2.971338e+05   2.338878e+06
  -1.889761e+06   1.369791e+05
  -1.825824e+06  -2.292444e+06
   7.447235e+04  -2.992499e+06
   2.751066e+06  -1.452558e+06
   4.110786e+06   1.309847e+06
   2.784381e+06   3.443996e+06
  -7.594088e+04   3.630845e+06
  -1.881423e+06   2.301965e+06
  -1.792996e+06   1.099445e+06
  -1.601748e+06   8.541638e+05
  -2.845603e+06   6.871173e+05
  -4.305761e+06  -5.541498e+05
  -3.541482e+06  -2.625486e+06
  -2.366151e+05  -4.137332e+06
   3.206701e+06  -3.970426e+06
   4.265612e+06  -2.065251e+06
   2.634480e+06   5.882127e+05
   8.686512e+04   2.314541e+06
  -1.250881e+06   1.865799e+06
  -5.465800e+05  -1.029658e+05
   1.140604e+06  -1.301638e+06
   1.863263e+06  -4.072835e+05
   8.460094e+05   1.162948e+06
  -5.758403e+05   1.142063e+06
  -5.731597e+05  -3.615684e+05
   8.559181e+05  -9.327947e+05
   1.893278e+06   7.851683e+05
   1.131504e+06   3.176512e+06
  -9.813959e+05   3.678683e+06
  -2.946634e+06   1.718174e+06
  -3.623878e+06  -1.073883e+06
  -2.684009e+06  -2.817973e+06
  -6.049735e+05  -2.801694e+06
   1.297595e+06  -1.527205e+06
   1.642247e+06  -2.093383e+05
   5.024484e+05   3.948921e+04
  -3.828664e+05  -7.523644e+05
   3.444179e+05  -1.315334e+06
   1.824656e+06  -6.160515e+05
   2.034181e+06   7.715032e+05
   4.669721e+05   1.360256e+06
  -1.153867e+06   6.329555e+05
  -9.893973e+05  -4.348720e+05
   7.969162e+05  -6.716821e+05
   2.330891e+06   1.284027e+05
   1.994694e+06   1.345051e+06
  -1.178210e+05   2.141903e+06
  -2.340152e+06   1.829527e+06
  -2.840584e+06   3.601673e+05
  -1.251776e+06  -1.219926e+06
   8.726819e+05  -1.470148e+06
   1.495682e+06  -2.031165e+05
   1.776914e+05   1.047542e+06
  -1.510806e+06   7.598703e+05
  -1.771156e+06  -7.218220e+05
  -4.530105e+05  -1.667054e+06
   1.028363e+06  -1.096057e+06
   1.311378e+06   1.962964e+05
   3.386266e+05   7.594912e+05
  -7.613347e+05   8.732765e+04
  -7.477319e+05  -1.043658e+06
   5.810863e+05  -1.443635e+06
   2.040466e+06  -5.582154e+05
   2.074513e+06   1.047787e+06
   4.261942e+05   2.092047e+06
  -1.406936e+06   1.697377e+06
  -1.742521e+06   2.762253e+05
  -5.610246e+05  -8.594412e+05
   6.384153e+05  -8.528357e+05
   6.902078e+05  -8.556880e+04
  -7.517650e+04   4.508309e+05
  -5.620714e+05   3.057676e+05
  -2.582187e+05  -8.689125e+04
   3.900803e+05  -4.424283e+04
   5.795070e+05   5.826125e+05
  -1.227248e+05   1.196968e+06
  -1.367494e+06   9.556563e+05
  -2.128065e+06  -3.715921e+05
  -1.523257e+06  -1.949562e+06
   1.801619e+05  -2.492115e+06
   1.635353e+06  -1.531524e+06
   1.789740e+06   5.217128e+04
   9.841014e+05   9.585297e+05
   3.636028e+05   8.010300e+05
   4.168353e+05   3.019962e+05
   5.572266e+05   2.753819e+05
   9.348998e+04   7.201338e+05
  -8.500902e+05   9.508635e+05
  -1.489947e+06   4.043726e+05
  -1.149014e+06  -7.354212e+05
   1.874455e+05  -1.568832e+06
   1.747777e+06  -1.179284e+06
   2.335149e+06   4.386661e+05
   1.239573e+06   2.110427e+06
  -9.210601e+05   2.429931e+06
  -2.527863e+06   1.148417e+06
  -2.448550e+06  -5.581107e+05
  -1.103394e+06  -1.348119e+06
   1.386406e+05  -1.057845e+06
   4.510232e+05  -6.085347e+05
   1.795341e+05  -7.600931e+05
   1.379819e+05  -1.267053e+06
   6.428571e+05  -1.275779e+06
   1.280303e+06  -3.311061e+05
   1.368695e+06   1.087990e+06
   5.924160e+05   1.931240e+06
  -6.211461e+05   1.479894e+06
  -1.321626e+06   3.456576e+04
  -8.726406e+05  -1.264346e+06
   3.206536e+05  -1.428355e+06
   1.118763e+06  -4.994696e+05
   8.339289e+05   5.995073e+05
  -3.840556e+04   1.046320e+06
  -4.482724e+05   8.211069e+05
  -4.486011e+04   4.620025e+05
   4.321648e+05   3.547518e+05
   5.696604e+04   3.984527e+05
  -1.140234e+06   2.457549e+05
  -2.071905e+06  -2.857743e+05
  -1.670142e+06  -1.001672e+06
  -3.938098e+04  -1.427232e+06
   1.541927e+06  -1.175921e+06
   1.845148e+06  -3.544450e+05
   8.809432e+05   4.203536e+05
  -2.287189e+05   5.533709e+05
  -5.037238e+05   7.211082e+04
  -1.720144e+04  -3.878372e+05
   4.711078e+05  -2.588612e+05
   4.898435e+05   3.431081e+05
   2.200286e+05   7.492488e+05
   5.848429e+04   4.914464e+05
   1.450470e+05  -1.340177e+05
   3.199376e+05  -3.466508e+05
   2.948861e+05   2.271385e+05
  -1.530774e+05   1.027852e+06
  -8.985391e+05   1.095874e+06
  -1.330382e+06   1.699611e+05
  -8.285159e+05  -9.219195e+05
   4.046528e+05  -1.125879e+06
   1.246800e+06  -3.191885e+05
   7.526420e+05   5.897923e+05
  -6.951945e+05   6.857268e+05
  -1.650113e+06  -4.425835e+04
  -1.109867e+06  -8.551134e+05
   4.320635e+05  -1.062444e+06
   1.541617e+06  -5.840088e+05
   1.311197e+06   1.396671e+05
   1.710733e+05   5.366058e+05
  -6.559142e+05   3.101907e+05
  -3.840708e+05  -2.796332e+05
   6.121329e+05  -5.227716e+05
   1.209719e+06   9.656126e+04
   6.674845e+05   1.216868e+06
  -6.238355e+05   1.739545e+06
  -1.530925e+06   9.039706e+05
  -1.300806e+06  -7.741279e+05
  -2.318411e+05  -1.849274e+06
   7.416334e+05  -1.367311e+06
   9.638666e+05   1.392920e+05
   4.921792e+05   1.216479e+06
  -1.746725e+05   1.022306e+06
  -5.668225e+05   1.113679e+05
  -5.117463e+05  -3.874143e+05
  -1.987874e+05  -1.484806e+05
  -3.789430e+04   1.080952e+05
  -2.532762e+05  -2.789742e+05
  -5.263158e+05  -9.776963e+05
  -2.483082e+05  -1.114598e+06
   6.910199e+05  -4.259281e+05
   1.532563e+06   4.551057e+05
   1.363805e+06   8.409162e+05
   2.062730e+05   7.097901e+05
  -8.981174e+05   4.426652e+05
  -1.020698e+06   2.142902e+05
  -3.507796e+05  -3.235323e+04
   1.561383e+05  -2.319553e+05
   3.556760e+03  -2.277687e+05
  -3.056370e+05  -1.106532e+05
  -4.204952e+04  -1.377396e+05
   7.103468e+05  -2.412880e+05
   1.073416e+06   3.645530e+03
   4.120775e+05   6.991253e+05
  -8.751560e+05   1.207200e+06
  -1.715992e+06   7.849212e+05
  -1.422270e+06  -4.365924e+05
  -2.946268e+05  -1.447490e+06
   7.586394e+05  -1.418781e+06
   1.070046e+06  -5.517189e+05
   6.821049e+05   2.441081e+05
   1.314741e+05   3.657221e+05
  -9.527515e+04   5.231289e+04
   7.464556e+04  -3.781434e+04
   3.285366e+05   3.653451e+05
   2.790551e+05   8.278099e+05
  -1.782576e+05   6.961567e+05
  -7.079092e+05  -1.306217e+05
  -7.611309e+05  -9.831592e+05
  -1.090792e+05  -1.055951e+06
   7.849884e+05  -2.440240e+05
   1.069113e+06   7.451004e+05
   3.618401e+05   1.113249e+06
  -7.252631e+05   6.917967e+05
  -1.140141e+06  -6.372069e+04
  -5.444321e+05  -6.040036e+05
   2.810775e+05  -6.810902e+05
   3.641048e+05  -3.806302e+05
  -2.757727e+05  -1.391296e+04
  -6.731302e+05   4.826342e+04
  -1.490492e+05  -3.100669e+05
   8.376675e+05  -7.159253e+05
   1.268863e+06  -5.941915e+05
   7.670683e+05   1.521499e+05
  -8.543523e+04   8.878879e+05
  -5.346949e+05   8.826906e+05
  -4.141177e+05   1.597838e+05
  -5.276692e+04  -5.002035e+05
   2.418500e+05  -4.411347e+05
   3.655687e+05   1.630656e+05
   2.690135e+05   5.900799e+05
  -5.085954e+04   4.240644e+05
  -4.021344e+05  -4.662881e+04
  -4.885942e+05  -2.675137e+05
  -2.514019e+05  -8.371250e+04
   2.950291e+04   1.395921e+05
   8.650865e+04   1.421005e+04
   6.152226e+03  -3.741371e+05
   7.539381e+04  -5.465564e+05
   3.342789e+05  -1.983626e+05
   4.546450e+05   4.018557e+05
   1.423285e+05   6.653669e+05
  -4.227662e+05   3.223958e+05
  -6.769722e+05  -2.862605e+05
  -2.628683e+05  -5.919951e+05
   5.101938e+05  -3.831749e+05
   8.992768e+05   6.855607e+04
   4.949625e+05   3.799373e+05
  -2.943971e+05   4.047410e+05
  -6.483393e+05   2.313519e+05
  -2.442240e+05   2.129633e+04
   3.727866e+05  -6.290948e+04
   4.272187e+05   7.661559e+04
  -1.826782e+05   3.134301e+05
  -7.840402e+05   2.919749e+05
