
 $NMID
 id='ANONYMOUS ', fmtdat='(2E16.6)'
 volume=1.0
 tramp=1.0
 $END
   3.132388e+07   1.692421e+06
   1.897349e+07   1.758685e+07
  -2.844539e+06   2.010249e+07
  -1.461841e+07   1.031463e+07
  -1.020680e+07  -1.216761e+06
   5.724376e+05  -5.325386e+06
   5.916360e+06  -1.171498e+06
   3.226090e+06   5.219662e+06
  -2.468225e+06   7.079738e+06
  -5.697595e+06   2.513146e+06
  -4.461707e+06  -4.015629e+06
  -3.542476e+05  -5.917129e+06
   2.813611e+06  -1.335248e+06
   1.951142e+06   4.579745e+06
  -2.078913e+06   5.240512e+06
  -4.869518e+06  -1.352714e+05
  -3.074385e+06  -6.096387e+06
   2.008357e+06  -7.229529e+06
   6.032255e+06  -3.275726e+06
   6.040403e+06   1.874767e+06
   2.809697e+06   4.542646e+06
  -4.147722e+05   4.037197e+06
  -9.382432e+05   2.341707e+06
   9.318895e+05   1.898364e+06
   1.991133e+06   3.198494e+06
  -5.088253e+05   4.215060e+06
  -5.191060e+06   2.715122e+06
  -7.353480e+06  -8.463423e+05
  -4.297983e+06  -3.551340e+06
   1.160827e+06  -3.264814e+06
   3.757969e+06  -7.732626e+05
   1.671447e+06   1.481388e+06
  -2.035480e+06   1.780518e+06
  -3.479939e+06   6.188487e+03
  -1.897197e+06  -2.564687e+06
   6.196662e+05  -3.740370e+06
   1.847492e+06  -2.040356e+06
   1.222239e+06   1.143469e+06
  -1.669276e+05   2.260278e+06
  -6.398739e+05  -1.288062e+05
   5.083664e+05  -2.888735e+06
   2.024365e+06  -2.031716e+06
   1.789511e+06   1.734912e+06
  -6.234141e+05   3.548193e+06
  -2.970043e+06   7.408170e+05
  -2.539575e+06  -3.609118e+06
   8.274131e+05  -4.588884e+06
   4.358259e+06  -1.265141e+06
   4.927763e+06   2.875376e+06
   1.893758e+06   4.254554e+06
  -2.316397e+06   2.421039e+06
  -4.238308e+06  -5.281570e+05
  -2.422629e+06  -2.215873e+06
   1.134763e+06  -1.641544e+06
   2.901113e+06   2.748430e+05
   1.482064e+06   1.499959e+06
  -9.827440e+05   8.747433e+05
  -1.503669e+06  -6.185057e+05
   1.965563e+05  -1.075201e+06
   1.603795e+06   5.098614e+03
   6.791035e+05   1.280476e+06
  -1.741494e+06   1.305414e+06
  -3.047013e+06  -8.995577e+04
  -1.671290e+06  -2.072383e+06
   1.530675e+06  -3.487054e+06
   4.235123e+06  -3.159136e+06
   4.610570e+06  -6.507873e+05
   2.692663e+06   2.714882e+06
   2.193735e+05   4.497673e+06
  -1.017372e+06   3.626291e+06
  -8.419607e+05   1.662026e+06
  -5.807051e+05   7.927594e+05
  -1.271120e+06   1.093227e+06
  -2.392418e+06   8.023115e+05
  -2.593797e+06  -8.976373e+05
  -1.306761e+06  -2.552851e+06
   6.868123e+05  -2.249108e+06
   1.996398e+06   1.581944e+04
   1.638126e+06   2.294131e+06
  -2.952963e+05   2.667852e+06
  -2.481377e+06   9.163310e+05
  -3.169743e+06  -1.517103e+06
  -1.778601e+06  -2.882817e+06
   3.594285e+05  -2.571764e+06
   1.411307e+06  -1.452392e+06
   1.184301e+06  -7.810501e+05
   1.188949e+06  -8.089167e+05
   2.394049e+06  -6.499100e+05
   3.654253e+06   4.998531e+05
   2.987223e+06   2.317250e+06
   1.014640e+05   3.607414e+06
  -2.984409e+06   3.357127e+06
  -3.911945e+06   1.527731e+06
  -2.252241e+06  -8.207958e+05
   2.295590e+05  -2.115771e+06
   1.342729e+06  -1.499475e+06
   4.561676e+05   1.896043e+05
  -1.112745e+06   1.065575e+06
  -1.589391e+06   2.574508e+05
  -5.881492e+05  -1.017153e+06
   6.153108e+05  -9.913168e+05
   6.212920e+05   3.000606e+05
  -5.492439e+05   9.811104e+05
  -1.582592e+06  -2.606885e+05
  -1.282951e+06  -2.440282e+06
   3.805165e+05  -3.346251e+06
   2.374779e+06  -1.942795e+06
   3.372695e+06   6.948183e+05
   2.615599e+06   2.591248e+06
   5.618618e+05   2.641029e+06
  -1.253473e+06   1.329555e+06
  -1.500909e+06   8.527613e+04
  -4.413600e+05  -5.147991e+04
   3.173378e+05   6.678955e+05
  -2.967758e+05   1.082798e+06
  -1.516063e+06   4.661914e+05
  -1.701773e+06  -6.487799e+05
  -4.107021e+05  -1.127586e+06
   1.003409e+06  -5.481730e+05
   9.362870e+05   3.946948e+05
  -6.503502e+05   6.976298e+05
  -2.147612e+06  -4.821821e+03
  -1.924262e+06  -1.221341e+06
   4.891049e+04  -2.013533e+06
   2.127571e+06  -1.653895e+06
   2.531693e+06  -2.673123e+05
   1.047971e+06   1.062489e+06
  -7.826460e+05   1.181188e+06
  -1.227628e+06   1.032297e+05
  -6.737802e+04  -8.790814e+05
   1.333253e+06  -5.998452e+05
   1.539044e+06   6.417757e+05
   4.328525e+05   1.460792e+06
  -8.572521e+05   1.013832e+06
  -1.163689e+06  -1.027644e+05
  -3.505568e+05  -6.352558e+05
   6.192818e+05  -6.551021e+04
   6.009630e+05   9.285605e+05
  -5.812284e+05   1.237210e+06
  -1.823278e+06   3.952801e+05
  -1.775438e+06  -1.004353e+06
  -3.069380e+05  -1.837706e+06
   1.255368e+06  -1.444348e+06
   1.522521e+06  -2.234239e+05
   5.013206e+05   7.497737e+05
  -5.654860e+05   7.521646e+05
  -6.603607e+05   5.320937e+04
   3.009271e+04  -4.814935e+05
   5.693902e+05  -3.522037e+05
   3.741072e+05   9.690087e+04
  -2.588170e+05   1.488060e+05
  -5.295937e+05  -4.229530e+05
   7.040689e+04  -1.026712e+06
   1.203293e+06  -8.199387e+05
   1.861428e+06   3.765482e+05
   1.277205e+06   1.758136e+06
  -2.347434e+05   2.212442e+06
  -1.495576e+06   1.370737e+06
  -1.642221e+06  -4.108012e+04
  -9.487325e+05  -9.295012e+05
  -3.431661e+05  -8.700696e+05
  -2.866089e+05  -3.819758e+05
  -3.836721e+05  -2.320931e+05
  -4.229674e+04  -5.757777e+05
   7.447099e+05  -8.303476e+05
   1.342947e+06  -3.692362e+05
   1.068788e+06   6.946915e+05
  -1.564064e+05   1.459402e+06
  -1.583404e+06   1.051691e+06
  -2.083348e+06  -4.370281e+05
  -1.079762e+06  -1.881451e+06
   8.115051e+05  -2.107241e+06
   2.205883e+06  -9.886702e+05
   2.177901e+06   4.807158e+05
   1.048868e+06   1.210498e+06
  -8.371100e+04   1.023062e+06
  -4.781469e+05   6.204096e+05
  -3.087879e+05   6.657603e+05
  -2.296865e+05   1.042676e+06
  -5.908026e+05   1.046737e+06
  -1.103228e+06   2.300486e+05
  -1.157401e+06  -1.014395e+06
  -4.528984e+05  -1.732033e+06
   6.074675e+05  -1.289943e+06
   1.176615e+06  -6.190108e+03
   7.515886e+05   1.105604e+06
  -2.672349e+05   1.241403e+06
  -9.278096e+05   4.734616e+05
  -7.009060e+05  -4.451745e+05
  -5.553533e+03  -8.551203e+05
   3.233662e+05  -7.174221e+05
   1.112105e+04  -4.430487e+05
  -3.546903e+05  -3.501160e+05
  -2.693143e+04  -3.640444e+05
   9.805741e+05  -1.920998e+05
   1.773664e+06   3.005786e+05
   1.441786e+06   9.040302e+05
   4.622100e+04   1.212530e+06
  -1.330897e+06   9.650666e+05
  -1.612919e+06   2.975581e+05
  -7.813304e+05  -3.169311e+05
   1.905443e+05  -4.418086e+05
   4.232649e+05  -7.931134e+04
  -2.548627e+04   2.970713e+05
  -4.518551e+05   2.013052e+05
  -4.123302e+05  -3.216954e+05
  -1.116854e+05  -6.918639e+05
   2.031665e+04  -4.452342e+05
  -1.359845e+05   1.560095e+05
  -3.364790e+05   3.517926e+05
  -2.652998e+05  -2.027127e+05
   1.963763e+05  -9.279344e+05
   8.289626e+05  -9.292382e+05
   1.116056e+06  -6.123947e+04
   6.326180e+05   8.513405e+05
  -4.000972e+05   9.267758e+05
  -1.078036e+06   1.796861e+05
  -6.386382e+05  -5.673343e+05
   6.210677e+05  -5.955527e+05
   1.484250e+06   5.600332e+04
   1.035476e+06   7.705523e+05
  -3.532006e+05   9.734821e+05
  -1.394876e+06   5.555538e+05
  -1.209853e+06  -1.163576e+05
  -1.672197e+05  -4.934002e+05
   5.822209e+05  -2.825600e+05
   3.102468e+05   2.431380e+05
  -5.914889e+05   4.155618e+05
  -1.067282e+06  -1.733398e+05
  -4.961137e+05  -1.130610e+06
   6.820609e+05  -1.503141e+06
   1.425809e+06  -7.088357e+05
   1.126794e+06   7.579466e+05
   1.329214e+05   1.668073e+06
  -7.069253e+05   1.223672e+06
  -8.621558e+05  -1.184650e+05
  -4.362268e+05  -1.092461e+06
   1.377605e+05  -9.304092e+05
   4.921181e+05  -1.005082e+05
   4.808155e+05   3.691428e+05
   2.144633e+05   1.497767e+05
   2.062382e+04  -1.067463e+05
   1.541959e+05   2.330998e+05
   4.113211e+05   8.789408e+05
   2.333235e+05   1.007889e+06
  -5.723695e+05   3.606287e+05
  -1.358596e+06  -4.606077e+05
  -1.233843e+06  -7.941261e+05
  -1.640695e+05  -6.293357e+05
   8.582636e+05  -3.604595e+05
   9.319729e+05  -1.716549e+05
   2.744583e+05   1.882793e+04
  -1.642777e+05   1.975428e+05
   3.964793e+04   2.239547e+05
   3.228644e+05   1.348512e+05
   1.186822e+04   1.291767e+05
  -6.998791e+05   1.709940e+05
  -9.497245e+05  -6.270877e+04
  -2.605434e+05  -6.355422e+05
   8.801089e+05  -1.010365e+06
   1.525881e+06  -5.867252e+05
   1.184289e+06   4.815648e+05
   1.821787e+05   1.310540e+06
  -7.207474e+05   1.212212e+06
  -9.763633e+05   4.105456e+05
  -6.064265e+05  -2.743789e+05
  -7.898902e+04  -3.317025e+05
   1.344674e+05  -1.504260e+04
  -4.849960e+04   6.470709e+04
  -3.002464e+05  -3.210705e+05
  -2.345643e+05  -7.461698e+05
   1.995409e+05  -6.012025e+05
   6.368307e+05   1.807629e+05
   6.063401e+05   9.437216e+05
  -5.727912e+03   9.423003e+05
  -7.429567e+05   1.362348e+05
  -9.050673e+05  -7.560353e+05
  -2.398003e+05  -1.005488e+06
   6.861690e+05  -5.468637e+05
   9.873724e+05   1.230496e+05
   4.265893e+05   5.291013e+05
  -2.798401e+05   5.477392e+05
  -3.005027e+05   3.086524e+05
   2.907172e+05   3.844638e+04
   6.130943e+05  -6.943820e+03
   1.026495e+05   2.746549e+05
  -7.756538e+05   6.061462e+05
  -1.113002e+06   5.038678e+05
  -6.276136e+05  -1.367957e+05
   1.205040e+05  -7.679036e+05
   4.761870e+05  -7.396996e+05
   3.327122e+05  -8.766785e+04
   2.142028e+03   4.675055e+05
  -2.451228e+05   3.575558e+05
  -3.233516e+05  -2.013690e+05
  -2.063738e+05  -5.387581e+05
   7.808879e+04  -3.385379e+05
   3.549932e+05   7.759084e+04
   4.058922e+05   2.326249e+05
   2.173418e+05   6.036347e+04
   3.050294e+03  -9.519082e+04
  -7.051560e+04   4.935899e+04
  -7.694106e+04   3.628848e+05
  -1.755985e+05   4.439103e+05
  -3.376975e+05   8.868166e+04
  -3.353240e+05  -4.308477e+05
  -2.403186e+04  -6.101260e+05
   4.130764e+05  -2.484815e+05
   5.633753e+05   3.151425e+05
   1.865518e+05   5.566485e+05
  -4.594474e+05   3.100210e+05
  -7.733410e+05  -1.230512e+05
  -4.101847e+05  -3.627334e+05
   2.829702e+05  -3.152487e+05
   5.789502e+05  -1.367199e+05
   1.863007e+05   1.551600e+03
  -3.821011e+05   8.792241e+03
  -3.975013e+05  -1.327817e+05
   2.119573e+05  -3.004462e+05
   7.715714e+05  -2.258318e+05
