
 $NMID
 id='ANONYMOUS ', fmtdat='(2E16.6)'
 volume=1.0
 tramp=1.0
 $END
   2.609633e+07  -5.387946e+05
   1.790997e+07   1.155866e+07
   6.597611e+05   1.647349e+07
  -1.095257e+07   1.165365e+07
  -9.703993e+06   1.715403e+06
  -9.136895e+05  -4.761164e+06
   5.364821e+06  -2.789677e+06
   4.400216e+06   4.099552e+06
  -9.161189e+05   7.579785e+06
  -4.911449e+06   3.591401e+06
  -4.449867e+06  -3.370842e+06
  -6.750307e+05  -5.675187e+06
   2.601055e+06  -1.191947e+06
   2.225569e+06   4.758185e+06
  -1.404521e+06   5.684006e+06
  -4.493670e+06   7.278211e+05
  -3.533824e+06  -5.151229e+06
   9.813833e+05  -6.708457e+06
   4.997992e+06  -3.273627e+06
   5.157475e+06   1.478218e+06
   2.145437e+06   3.666230e+06
  -4.007269e+05   2.777984e+06
   4.759783e+04   1.428225e+06
   2.266817e+06   2.017644e+06
   2.671210e+06   4.024339e+06
  -6.961440e+05   4.788791e+06
  -5.602733e+06   2.688313e+06
  -7.441662e+06  -1.001119e+06
  -4.043166e+06  -3.448867e+06
   1.594572e+06  -2.984531e+06
   4.137212e+06  -3.533150e+05
   1.555891e+06   2.131617e+06
  -2.849899e+06   2.337951e+06
  -4.392303e+06  -1.148022e+05
  -2.079145e+06  -3.257856e+06
   1.036647e+06  -4.128522e+06
   1.911251e+06  -1.709364e+06
   6.023611e+05   1.508232e+06
  -7.144200e+05   1.925957e+06
  -5.384785e+05  -8.957408e+05
   8.121779e+05  -3.419287e+06
   2.035236e+06  -2.328179e+06
   1.966247e+06   1.296041e+06
   3.147054e+05   3.208174e+06
  -1.811726e+06   1.146458e+06
  -2.295714e+06  -2.553308e+06
   5.463507e+04  -3.833808e+06
   3.657723e+06  -1.403209e+06
   5.075284e+06   2.319803e+06
   2.484587e+06   4.089623e+06
  -2.069793e+06   2.829975e+06
  -4.531534e+06   3.652714e+04
  -2.946964e+06  -1.933564e+06
   6.902936e+05  -1.799506e+06
   2.741645e+06  -1.768471e+05
   1.663262e+06   1.145034e+06
  -7.642270e+05   9.026446e+05
  -1.679208e+06  -4.655136e+05
  -2.439279e+05  -1.372152e+06
   1.615340e+06  -7.939261e+05
   1.475506e+06   6.933836e+05
  -7.832340e+05   1.534996e+06
  -2.702893e+06   6.692826e+05
  -1.879452e+06  -1.517059e+06
   1.366561e+06  -3.378823e+06
   4.276953e+06  -3.191912e+06
   4.543368e+06  -6.314408e+05
   2.493605e+06   2.675996e+06
   2.845343e+05   4.424063e+06
  -5.992130e+05   3.797377e+06
  -5.667015e+05   2.163036e+06
  -8.608121e+05   1.297943e+06
  -1.905386e+06   1.250778e+06
  -2.920095e+06   5.826376e+05
  -2.825734e+06  -1.329183e+06
  -1.277817e+06  -3.034694e+06
   9.626244e+05  -2.577848e+06
   2.424627e+06   4.602935e+04
   1.932673e+06   2.617552e+06
  -3.147570e+05   2.924164e+06
  -2.622268e+06   8.878691e+05
  -3.151898e+06  -1.623255e+06
  -1.657953e+06  -2.768519e+06
   3.063141e+05  -2.286778e+06
   1.124938e+06  -1.289722e+06
   8.882266e+05  -8.760459e+05
   1.079150e+06  -1.064790e+06
   2.495177e+06  -9.472921e+05
   3.928252e+06   2.594665e+05
   3.338038e+06   2.295939e+06
   2.999480e+05   3.894055e+06
  -3.120757e+06   3.753557e+06
  -4.236933e+06   1.698633e+06
  -2.412217e+06  -9.590247e+05
   3.541039e+05  -2.332962e+06
   1.522614e+06  -1.579252e+06
   4.746270e+05   2.459887e+05
  -1.208564e+06   1.163910e+06
  -1.660938e+06   3.320405e+05
  -5.981456e+05  -1.032461e+06
   6.829244e+05  -1.100060e+06
   8.004117e+05   2.904765e+05
  -3.981849e+05   1.285874e+06
  -1.775109e+06   1.932607e+05
  -1.888803e+06  -2.354991e+06
  -1.927947e+05  -3.882094e+06
   2.374139e+06  -2.692321e+06
   3.944600e+06   3.522465e+05
   3.235182e+06   2.787869e+06
   7.970421e+05   2.997194e+06
  -1.361098e+06   1.513753e+06
  -1.662104e+06   1.138394e+05
  -4.835940e+05  -3.717265e+04
   3.806705e+05   7.078847e+05
  -2.229333e+05   1.149626e+06
  -1.537954e+06   5.823768e+05
  -1.848953e+06  -5.403837e+05
  -5.500756e+05  -1.148882e+06
   1.045036e+06  -6.717571e+05
   1.104339e+06   3.839000e+05
  -6.408119e+05   9.061483e+05
  -2.450109e+06   2.194206e+05
  -2.323704e+06  -1.259969e+06
  -1.123396e+05  -2.322194e+06
   2.271012e+06  -1.989465e+06
   2.768572e+06  -4.341739e+05
   1.187145e+06   1.066278e+06
  -7.572670e+05   1.259895e+06
  -1.251160e+06   1.634506e+05
  -7.825715e+04  -9.049281e+05
   1.403639e+06  -7.008879e+05
   1.716645e+06   5.892410e+05
   6.119661e+05   1.570250e+06
  -8.353987e+05   1.224412e+06
  -1.305033e+06   2.891780e+04
  -4.816185e+05  -6.536499e+05
   6.285177e+05  -1.198648e+05
   6.783019e+05   9.667683e+05
  -5.931578e+05   1.355128e+06
  -1.968273e+06   4.848814e+05
  -1.960916e+06  -1.023428e+06
  -4.187342e+05  -1.972906e+06
   1.271390e+06  -1.632340e+06
   1.639130e+06  -3.446616e+05
   6.136470e+05   7.804964e+05
  -5.657839e+05   8.672367e+05
  -7.570691e+05   8.001859e+04
  -1.501467e+04  -6.034037e+05
   6.729325e+05  -4.782730e+05
   5.288699e+05   1.244495e+05
  -2.276414e+05   2.859496e+05
  -6.443942e+05  -3.571417e+05
  -3.332258e+04  -1.115531e+06
   1.252700e+06  -9.690844e+05
   2.046333e+06   3.123721e+05
   1.468746e+06   1.851677e+06
  -1.586048e+05   2.440113e+06
  -1.586678e+06   1.618789e+06
  -1.856790e+06   6.617186e+04
  -1.156455e+06  -1.034628e+06
  -4.244710e+05  -1.065346e+06
  -2.535004e+05  -4.740566e+05
  -3.532882e+05  -1.958905e+05
  -6.765370e+04  -5.727825e+05
   7.511586e+05  -9.589470e+05
   1.471410e+06  -5.060087e+05
   1.256735e+06   7.327587e+05
  -7.408804e+04   1.673990e+06
  -1.695432e+06   1.269135e+06
  -2.325225e+06  -3.718166e+05
  -1.307346e+06  -1.997130e+06
   7.268075e+05  -2.341927e+06
   2.322663e+06  -1.232118e+06
   2.441371e+06   3.615054e+05
   1.295887e+06   1.283365e+06
  -4.191605e+03   1.208294e+06
  -5.604220e+05   7.659867e+05
  -4.092234e+05   7.183069e+05
  -2.463282e+05   1.078664e+06
  -5.740272e+05   1.124047e+06
  -1.159631e+06   2.892351e+05
  -1.292979e+06  -1.061097e+06
  -5.626186e+05  -1.875026e+06
   6.157958e+05  -1.435102e+06
   1.293688e+06  -7.193526e+04
   8.931093e+05   1.145742e+06
  -1.854690e+05   1.369633e+06
  -9.421379e+05   6.260179e+05
  -7.906263e+05  -3.626017e+05
  -1.143709e+05  -8.910877e+05
   2.425714e+05  -8.197315e+05
  -3.611268e+04  -5.212444e+05
  -3.856873e+05  -3.828452e+05
  -3.455084e+04  -4.027938e+05
   1.036285e+06  -2.675980e+05
   1.914000e+06   2.278439e+05
   1.618188e+06   8.955962e+05
   1.586627e+05   1.291181e+06
  -1.350419e+06   1.104181e+06
  -1.732414e+06   4.360874e+05
  -8.947602e+05  -2.475383e+05
   1.582269e+05  -4.636063e+05
   4.447155e+05  -1.348196e+05
  -3.012693e+04   2.835814e+05
  -5.051562e+05   2.249312e+05
  -4.563371e+05  -3.342635e+05
  -1.005917e+05  -7.592661e+05
   4.978185e+04  -4.848930e+05
  -1.520253e+05   2.096273e+05
  -3.959461e+05   4.361400e+05
  -3.087110e+05  -2.060083e+05
   2.015955e+05  -1.036459e+06
   8.625606e+05  -1.041857e+06
   1.154875e+06  -8.896153e+04
   6.692996e+05   8.980807e+05
  -3.921596e+05   9.835438e+05
  -1.131196e+06   1.984553e+05
  -7.123252e+05  -6.083564e+05
   6.421129e+05  -6.898162e+05
   1.652016e+06  -2.794232e+04
   1.234431e+06   7.938797e+05
  -3.010778e+05   1.128596e+06
  -1.525634e+06   7.371080e+05
  -1.379716e+06  -4.406640e+04
  -2.287544e+05  -5.483181e+05
   6.224012e+05  -3.592935e+05
   3.358584e+05   2.349994e+05
  -6.502969e+05   4.520326e+05
  -1.165545e+06  -1.826195e+05
  -5.410650e+05  -1.230935e+06
   7.375076e+05  -1.647140e+06
   1.554880e+06  -7.957965e+05
   1.260018e+06   8.050456e+05
   2.032076e+05   1.835315e+06
  -7.316044e+05   1.397673e+06
  -9.647819e+05  -6.549866e+04
  -5.564138e+05  -1.182124e+06
   7.521206e+04  -1.056726e+06
   5.262232e+05  -1.497254e+05
   5.725491e+05   3.974015e+05
   2.739889e+05   1.713394e+05
   6.717981e+03  -1.304704e+05
   1.330191e+05   2.198751e+05
   4.698474e+05   9.364087e+05
   3.367524e+05   1.111111e+06
  -5.682104e+05   4.329890e+05
  -1.517624e+06  -4.543756e+05
  -1.426043e+06  -8.287799e+05
  -2.110021e+05  -6.772446e+05
   9.622173e+05  -4.209396e+05
   1.031596e+06  -2.363679e+05
   2.761401e+05  -1.429570e+04
  -1.856499e+05   2.178667e+05
   8.974936e+04   2.700246e+05
   3.993183e+05   1.648489e+05
   5.050129e+02   1.417336e+05
  -8.056930e+05   1.904091e+05
  -1.036508e+06  -4.748920e+04
  -2.456377e+05  -6.724145e+05
   9.672930e+05  -1.107259e+06
   1.619138e+06  -6.680289e+05
   1.258295e+06   5.049258e+05
   2.266115e+05   1.435653e+06
  -7.351838e+05   1.340332e+06
  -1.051511e+06   4.539470e+05
  -6.770727e+05  -3.049102e+05
  -7.928749e+04  -3.577455e+05
   1.807597e+05   8.889036e+03
  -4.072566e+04   1.032633e+05
  -3.614954e+05  -3.311365e+05
  -2.996127e+05  -8.115147e+05
   2.060021e+05  -6.551339e+05
   7.084848e+05   2.066452e+05
   6.666741e+05   1.039000e+06
  -2.131453e+04   1.022275e+06
  -8.297984e+05   1.302516e+05
  -9.978716e+05  -8.347786e+05
  -2.681504e+05  -1.088280e+06
   7.371866e+05  -5.897619e+05
   1.063719e+06   1.126948e+05
   4.640937e+05   5.351469e+05
  -2.817526e+05   5.719553e+05
  -2.846088e+05   3.428203e+05
   3.548693e+05   5.150697e+04
   6.803708e+05  -1.996012e+04
   1.092277e+05   2.888828e+05
  -8.307451e+05   6.940254e+05
  -1.174569e+06   6.193879e+05
  -6.583773e+05  -9.617777e+04
   1.090555e+05  -8.297523e+05
   4.637911e+05  -8.139919e+05
   3.215349e+05  -8.407660e+04
  -4.414737e+03   5.249576e+05
  -2.619537e+05   3.783070e+05
  -3.586607e+05  -2.437504e+05
  -2.373206e+05  -5.842837e+05
   8.048225e+04  -3.417183e+05
   3.879932e+05   8.845913e+04
   4.427239e+05   2.175576e+05
   2.419683e+05   3.849111e+04
   1.421883e+04  -7.621941e+04
  -8.142255e+04   1.104420e+05
  -1.219870e+05   4.158786e+05
  -2.403655e+05   4.471501e+05
  -3.812048e+05   4.389329e+04
  -3.311591e+05  -4.964140e+05
   1.538998e+04  -6.658570e+05
   4.600405e+05  -2.658575e+05
   6.012392e+05   3.480631e+05
   2.019992e+05   6.155316e+05
  -4.831208e+05   3.492891e+05
  -8.286122e+05  -1.246445e+05
  -4.497092e+05  -3.846532e+05
   2.975887e+05  -3.282193e+05
   6.171771e+05  -1.368013e+05
   1.769492e+05  -1.399474e+03
  -4.520529e+05  -1.052216e+04
  -4.494191e+05  -1.730991e+05
   2.561279e+05  -3.543192e+05
   8.878439e+05  -2.628741e+05
