
 $NMID
 id='ANONYMOUS ', fmtdat='(2E16.6)'
 volume=1.0
 tramp=1.0
 $END
   5.215516e+07   3.288231e+05
   3.134382e+07   3.172685e+07
  -6.532402e+06   3.492648e+07
  -2.520704e+07   1.411614e+07
  -1.540163e+07  -5.723821e+06
   2.713445e+06  -8.614710e+06
   9.127441e+06   6.192670e+05
   3.008203e+06   8.902084e+06
  -5.383886e+06   9.087144e+06
  -8.943564e+06   2.237479e+06
  -6.649330e+06  -5.840375e+06
  -7.952452e+05  -8.245552e+06
   3.845253e+06  -2.522827e+06
   2.636088e+06   5.400665e+06
  -3.396514e+06   6.468896e+06
  -7.381300e+06  -1.044910e+06
  -4.299909e+06  -9.508794e+06
   3.420120e+06  -1.108155e+07
   9.435933e+06  -5.497748e+06
   1.003801e+07   2.058415e+06
   5.935653e+06   7.041937e+06
   4.251064e+05   7.835020e+06
  -2.550154e+06   5.316807e+06
  -1.193775e+06   2.514596e+06
   1.463850e+06   2.441195e+06
   1.623923e+05   4.370180e+06
  -5.529981e+06   4.242163e+06
  -9.486966e+06   2.835836e+05
  -6.677452e+06  -4.104187e+06
   6.582514e+04  -4.852866e+06
   3.892619e+06  -2.294855e+06
   2.429333e+06   3.472519e+05
  -9.378674e+05   1.265994e+06
  -2.685182e+06   4.880961e+05
  -2.284578e+06  -1.741957e+06
  -4.624102e+05  -4.075494e+06
   1.877079e+06  -3.579294e+06
   2.889304e+06   3.901438e+05
   1.316047e+06   3.467025e+06
  -8.172817e+05   1.483568e+06
  -2.101515e+05  -2.692987e+06
   2.405735e+06  -2.358570e+06
   2.379917e+06   2.919334e+06
  -2.037102e+06   5.682324e+06
  -6.185229e+06   9.627615e+05
  -4.660423e+06  -6.342887e+06
   1.693176e+06  -7.840123e+06
   6.923786e+06  -2.242439e+06
   6.729759e+06   4.158048e+06
   1.982457e+06   5.771571e+06
  -3.271173e+06   2.768392e+06
  -5.195796e+06  -1.263633e+06
  -2.540261e+06  -3.249251e+06
   2.159586e+06  -2.138149e+06
   4.279553e+06   7.666082e+05
   1.912212e+06   2.493011e+06
  -1.588568e+06   1.301994e+06
  -1.753340e+06  -9.369566e+05
   1.057849e+06  -9.782621e+05
   2.315310e+06   1.353974e+06
  -3.200619e+05   2.977262e+06
  -4.047110e+06   1.801808e+06
  -4.904491e+06  -1.063144e+06
  -2.247004e+06  -3.619584e+06
   1.769057e+06  -5.041153e+06
   4.978794e+06  -4.673583e+06
   6.042106e+06  -1.596379e+06
   4.324516e+06   3.153145e+06
   8.536345e+05   5.998618e+06
  -1.666764e+06   4.672000e+06
  -1.553414e+06   1.385220e+06
  -2.425534e+05   3.003673e+04
  -2.837066e+05   1.103234e+06
  -1.879965e+06   1.674705e+06
  -2.918648e+06   4.532053e+03
  -1.994918e+06  -2.163415e+06
   1.089515e+05  -2.295856e+06
   1.742736e+06  -2.086736e+05
   1.794939e+06   2.190781e+06
  -2.356155e+04   3.006383e+06
  -2.807645e+06   1.580632e+06
  -4.362566e+06  -1.286021e+06
  -3.026146e+06  -3.682845e+06
   1.015493e+05  -3.990630e+06
   2.143182e+06  -2.516648e+06
   2.046759e+06  -1.097376e+06
   1.726816e+06  -7.567998e+05
   2.913718e+06  -5.819640e+05
   4.366965e+06   6.685574e+05
   3.549567e+06   2.725010e+06
   1.890187e+05   4.178019e+06
  -3.239274e+06   3.991510e+06
  -4.277585e+06   2.137159e+06
  -2.698525e+06  -5.057910e+05
  -1.991486e+05  -2.321578e+06
   1.191731e+06  -1.943529e+06
   5.693578e+05   6.986564e+04
  -1.128728e+06   1.330556e+06
  -1.912724e+06   4.057642e+05
  -8.959516e+05  -1.208852e+06
   5.497427e+05  -1.148913e+06
   5.008491e+05   3.693686e+05
  -9.608666e+05   8.005563e+05
  -1.856344e+06  -1.063853e+06
  -8.591043e+05  -3.344401e+06
   1.298785e+06  -3.530599e+06
   3.036807e+06  -1.398361e+06
   3.470397e+06   1.258815e+06
   2.506368e+06   2.787222e+06
   5.504311e+05   2.723382e+06
  -1.278653e+06   1.521694e+06
  -1.633087e+06   2.299675e+05
  -5.042063e+05  -4.238586e+04
   3.754319e+05   7.620745e+05
  -3.909378e+05   1.344653e+06
  -1.897012e+06   5.976049e+05
  -2.055920e+06  -8.492233e+05
  -4.226521e+05  -1.406721e+06
   1.178007e+06  -6.064421e+05
   9.469725e+05   4.451136e+05
  -8.258848e+05   5.923755e+05
  -2.266001e+06  -2.250903e+05
  -1.883843e+06  -1.349885e+06
   1.780222e+05  -2.067121e+06
   2.343490e+06  -1.762832e+06
   2.840770e+06  -3.234518e+05
   1.248438e+06   1.262764e+06
  -9.167567e+05   1.508689e+06
  -1.556318e+06   1.928547e+05
  -1.909609e+05  -1.086647e+06
   1.537924e+06  -7.592333e+05
   1.765142e+06   7.640098e+05
   3.944912e+05   1.676068e+06
  -1.072086e+06   1.038658e+06
  -1.291071e+06  -2.629663e+05
  -2.870862e+05  -7.771219e+05
   7.931426e+05  -6.629285e+04
   7.544226e+05   1.067194e+06
  -5.858172e+05   1.459400e+06
  -2.056080e+06   5.637122e+05
  -2.089132e+06  -1.062924e+06
  -4.112883e+05  -2.114857e+06
   1.445792e+06  -1.692365e+06
   1.757098e+06  -2.435703e+05
   5.346109e+05   8.745754e+05
  -6.574086e+05   8.364109e+05
  -6.678851e+05   8.687975e+04
   9.379424e+04  -4.014247e+05
   5.209274e+05  -2.606201e+05
   1.845830e+05   6.256494e+04
  -4.196041e+05  -3.214415e+04
  -5.445856e+05  -6.396094e+05
   1.732968e+05  -1.204093e+06
   1.394314e+06  -9.359395e+05
   2.134482e+06   3.979272e+05
   1.517557e+06   1.974224e+06
  -1.966092e+05   2.490389e+06
  -1.639559e+06   1.490089e+06
  -1.753871e+06  -8.662251e+04
  -9.320235e+05  -9.249363e+05
  -3.573428e+05  -7.207352e+05
  -4.687116e+05  -2.633133e+05
  -6.055267e+05  -3.093055e+05
  -9.008507e+04  -7.589266e+05
   8.750334e+05  -9.357340e+05
   1.483004e+06  -3.689907e+05
   1.111425e+06   7.296074e+05
  -2.164953e+05   1.524718e+06
  -1.751808e+06   1.139732e+06
  -2.320049e+06  -4.632148e+05
  -1.200063e+06  -2.130709e+06
   9.834457e+05  -2.426456e+06
   2.569697e+06  -1.098121e+06
   2.423306e+06   6.183700e+05
   1.035266e+06   1.351197e+06
  -1.702525e+05   1.002066e+06
  -4.113693e+05   5.662555e+05
  -1.199664e+05   7.797559e+05
  -1.222490e+05   1.317490e+06
  -6.712158e+05   1.304220e+06
  -1.309919e+06   3.294418e+05
  -1.376503e+06  -1.098379e+06
  -5.872189e+05  -1.939613e+06
   6.269540e+05  -1.481258e+06
   1.319862e+06  -1.750858e+04
   8.507782e+05   1.292122e+06
  -3.647038e+05   1.427732e+06
  -1.156066e+06   4.475436e+05
  -8.258391e+05  -6.672652e+05
   9.300991e+04  -1.074788e+06
   5.059524e+05  -8.036766e+05
   6.540939e+04  -4.380139e+05
  -4.433026e+05  -3.488103e+05
  -6.212150e+04  -3.965178e+05
   1.162343e+06  -2.288854e+05
   2.100206e+06   3.160400e+05
   1.665813e+06   1.034293e+06
  -6.900707e+03   1.450598e+06
  -1.594754e+06   1.173048e+06
  -1.862489e+06   3.167883e+05
  -8.607221e+05  -4.684430e+05
   2.539322e+05  -5.705216e+05
   5.140342e+05  -4.932669e+04
   2.353031e+04   4.173197e+05
  -4.612618e+05   2.673591e+05
  -4.947297e+05  -3.468108e+05
  -2.503669e+05  -7.494302e+05
  -8.635358e+04  -4.966294e+05
  -1.384123e+05   1.123336e+05
  -2.934020e+05   3.231613e+05
  -2.880851e+05  -2.321160e+05
   1.413280e+05  -1.022378e+06
   9.105453e+05  -1.100145e+06
   1.377442e+06  -1.773342e+05
   8.639915e+05   9.352187e+05
  -4.176552e+05   1.157286e+06
  -1.279822e+06   3.405354e+05
  -7.587032e+05  -5.858896e+05
   7.079315e+05  -6.753754e+05
   1.635831e+06   6.936926e+04
   1.062595e+06   8.638887e+05
  -4.657672e+05   1.029182e+06
  -1.530584e+06   5.320068e+05
  -1.278820e+06  -1.661067e+05
  -1.528255e+05  -5.276148e+05
   6.598812e+05  -2.904520e+05
   3.917949e+05   2.947116e+05
  -6.039172e+05   5.396142e+05
  -1.219715e+06  -7.869471e+04
  -6.956052e+05  -1.215365e+06
   5.994977e+05  -1.759573e+06
   1.524374e+06  -9.252042e+05
   1.303789e+06   7.675277e+05
   2.316278e+05   1.844796e+06
  -7.429834e+05   1.347933e+06
  -9.535349e+05  -1.622890e+05
  -4.654000e+05  -1.217270e+06
   2.031721e+05  -1.000784e+06
   5.733674e+05  -9.579034e+04
   4.910990e+05   3.808705e+05
   1.773162e+05   1.378332e+05
   4.548653e+04  -9.925169e+04
   2.812116e+05   3.015567e+05
   5.333767e+05   9.885662e+05
   2.180424e+05   1.104970e+06
  -7.224588e+05   4.122316e+05
  -1.526262e+06  -4.586650e+05
  -1.335022e+06  -8.405348e+05
  -1.996599e+05  -7.152708e+05
   8.776312e+05  -4.468295e+05
   1.011272e+06  -2.040886e+05
   3.669767e+05   5.053003e+04
  -1.484961e+05   2.355763e+05
  -2.794993e+04   2.093354e+05
   2.804337e+05   9.074862e+04
   5.320828e+04   1.384836e+05
  -6.833252e+05   2.571377e+05
  -1.080086e+06   2.890927e+03
  -4.524488e+05  -7.133043e+05
   8.539769e+05  -1.230374e+06
   1.742372e+06  -8.019289e+05
   1.462354e+06   4.288221e+05
   3.065116e+05   1.447263e+06
  -7.700075e+05   1.428848e+06
  -1.076543e+06   5.713659e+05
  -6.822929e+05  -2.283598e+05
  -1.436347e+05  -3.693630e+05
   7.445448e+04  -7.362992e+04
  -8.020386e+04   1.715281e+04
  -3.143079e+05  -3.721629e+05
  -2.678923e+05  -8.275156e+05
   1.742661e+05  -7.045520e+05
   7.075081e+05   1.110953e+05
   7.828845e+05   9.697783e+05
   1.394502e+05   1.066881e+06
  -7.750418e+05   2.742776e+05
  -1.085349e+06  -7.232352e+05
  -3.808831e+05  -1.120249e+06
   7.257501e+05  -7.146590e+05
   1.157568e+06   5.772580e+04
   5.579800e+05   6.262300e+05
  -2.877324e+05   7.069402e+05
  -3.878185e+05   3.833491e+05
   2.540127e+05  -2.921622e+02
   6.690108e+05  -5.412029e+04
   1.571735e+05   3.169297e+05
  -8.383994e+05   7.147098e+05
  -1.288549e+06   5.741472e+05
  -7.894374e+05  -1.755802e+05
   8.455760e+04  -9.000372e+05
   5.582569e+05  -8.910943e+05
   4.424336e+05  -1.735672e+05
   6.822215e+04   4.937322e+05
  -2.397837e+05   4.565460e+05
  -3.693590e+05  -1.410900e+05
  -2.740546e+05  -5.909726e+05
   4.827330e+04  -4.461795e+05
   4.059325e+05   3.679304e+04
   4.949141e+05   2.841724e+05
   2.497848e+05   9.724561e+04
  -3.756441e+04  -1.591070e+05
  -8.043277e+04  -4.963653e+04
   2.739837e+04   3.667097e+05
  -3.610165e+04   5.801787e+05
  -3.284440e+05   2.419930e+05
  -4.905323e+05  -3.814250e+05
  -1.835170e+05  -6.706507e+05
   4.141110e+05  -3.370630e+05
   6.968094e+05   2.737723e+05
   2.777621e+05   5.862928e+05
  -5.180314e+05   3.872703e+05
  -9.168131e+05  -5.941297e+04
  -5.037632e+05  -3.806221e+05
   2.974407e+05  -4.230036e+05
   6.593366e+05  -2.525590e+05
   2.627911e+05  -2.221247e+04
  -3.527178e+05   8.620851e+04
  -4.235862e+05  -4.936334e+04
   1.598539e+05  -3.035954e+05
   7.530112e+05  -3.015464e+05
