
 $NMID
 id='ANONYMOUS ', fmtdat='(2E16.6)'
 volume=1.0
 tramp=1.0
 $END
  -2.840468e+07  -3.356856e+05
  -1.876565e+07  -1.441301e+07
   7.941629e+05  -1.843699e+07
   1.297149e+07  -1.115238e+07
   1.029991e+07  -1.711979e+05
   1.871420e+05   5.208058e+06
  -5.867777e+06   1.952381e+06
  -3.865441e+06  -4.852769e+06
   1.895384e+06  -7.455207e+06
   5.461520e+06  -3.036154e+06
   4.393872e+06   3.726144e+06
   4.024782e+05   5.760180e+06
  -2.662174e+06   1.201245e+06
  -1.903054e+06  -4.701660e+06
   1.916013e+06  -5.458177e+06
   4.750186e+06  -2.620979e+05
   3.279174e+06   5.665572e+06
  -1.529951e+06   6.973206e+06
  -5.472505e+06   3.251797e+06
  -5.495227e+06  -1.629321e+06
  -2.454346e+06  -3.950746e+06
   2.682423e+05  -3.293513e+06
   2.889043e+05  -1.983411e+06
  -1.546113e+06  -2.212945e+06
  -2.068366e+06  -3.766733e+06
   8.262629e+05  -4.395600e+06
   5.388879e+06  -2.431654e+06
   7.220452e+06   1.132795e+06
   4.012011e+06   3.504785e+06
  -1.405024e+06   2.944930e+06
  -3.833558e+06   3.618970e+05
  -1.415240e+06  -1.822974e+06
   2.587810e+06  -1.831275e+06
   3.879585e+06   3.301600e+05
   1.756433e+06   2.975310e+06
  -1.007747e+06   3.784618e+06
  -1.842273e+06   1.767461e+06
  -7.720282e+05  -1.230687e+06
   4.509164e+05  -1.934357e+06
   4.234074e+05   5.302511e+05
  -8.424564e+05   3.046964e+06
  -2.108782e+06   2.095630e+06
  -1.889618e+06  -1.556445e+06
   1.481824e+05  -3.471410e+06
   2.404904e+06  -1.084757e+06
   2.471478e+06   3.011051e+06
  -3.848535e+05   4.236689e+06
  -3.974091e+06   1.331573e+06
  -4.948975e+06  -2.696229e+06
  -2.088332e+06  -4.260519e+06
   2.291762e+06  -2.579844e+06
   4.415277e+06   3.936033e+05
   2.652409e+06   2.196819e+06
  -9.554178e+05   1.752237e+06
  -2.846824e+06  -7.974246e+04
  -1.580432e+06  -1.362316e+06
   8.793576e+05  -8.900102e+05
   1.583520e+06   6.021261e+05
  -4.675104e+04   1.293772e+06
  -1.736743e+06   3.716187e+05
  -1.167401e+06  -1.120363e+06
   1.284768e+06  -1.541629e+06
   2.957011e+06  -2.956889e+05
   1.802884e+06   1.829441e+06
  -1.493196e+06   3.359427e+06
  -4.278417e+06   2.997187e+06
  -4.510227e+06   5.150158e+05
  -2.473796e+06  -2.683653e+06
  -1.403408e+05  -4.400405e+06
   9.118281e+05  -3.707671e+06
   8.249830e+05  -1.928761e+06
   8.389448e+05  -9.761006e+05
   1.645542e+06  -9.997400e+05
   2.609795e+06  -5.041085e+05
   2.563478e+06   1.226720e+06
   1.105616e+06   2.794070e+06
  -9.460969e+05   2.312159e+06
  -2.182210e+06  -1.689924e+05
  -1.640243e+06  -2.527613e+06
   4.233354e+05  -2.745746e+06
   2.532977e+06  -7.900947e+05
   3.043628e+06   1.631109e+06
   1.626914e+06   2.798761e+06
  -3.411040e+05   2.377388e+06
  -1.244460e+06   1.357824e+06
  -1.047488e+06   8.423050e+05
  -1.182279e+06   9.186509e+05
  -2.481708e+06   7.103320e+05
  -3.768924e+06  -5.180126e+05
  -3.061585e+06  -2.416436e+06
  -4.981525e+04  -3.738117e+06
   3.174431e+06  -3.400327e+06
   4.091807e+06  -1.421211e+06
   2.248910e+06   9.726520e+05
  -3.916530e+05   2.163861e+06
  -1.471487e+06   1.444384e+06
  -4.420873e+05  -2.320243e+05
   1.192448e+06  -1.050133e+06
   1.621350e+06  -2.351540e+05
   5.525518e+05   1.025779e+06
  -6.885340e+05   1.002031e+06
  -6.989087e+05  -3.412035e+05
   5.455323e+05  -1.139385e+06
   1.737417e+06   9.679824e+04
   1.530478e+06   2.505564e+06
  -2.664320e+05   3.672469e+06
  -2.531986e+06   2.240487e+06
  -3.664370e+06  -7.053027e+05
  -2.789031e+06  -2.842674e+06
  -5.349466e+05  -2.844995e+06
   1.361221e+06  -1.348787e+06
   1.568379e+06  -2.643218e+04
   4.575448e+05   6.336405e+04
  -3.192669e+05  -6.984350e+05
   2.952261e+05  -1.105521e+06
   1.536717e+06  -4.737140e+05
   1.753453e+06   6.553641e+05
   4.424487e+05   1.157521e+06
  -1.046810e+06   5.685062e+05
  -1.000133e+06  -4.401578e+05
   6.935070e+05  -7.795305e+05
   2.313629e+06   3.899917e+03
   2.061175e+06   1.350932e+06
  -7.791534e+04   2.171872e+06
  -2.277248e+06   1.716563e+06
  -2.653120e+06   2.354764e+05
  -1.073694e+06  -1.101974e+06
   8.034156e+05  -1.185930e+06
   1.233473e+06  -9.508295e+04
   4.289727e+04   8.815068e+05
  -1.383479e+06   5.926860e+05
  -1.598990e+06  -6.795557e+05
  -4.588989e+05  -1.540052e+06
   8.993976e+05  -1.088491e+06
   1.241014e+06   9.048565e+04
   3.929779e+05   6.688222e+05
  -6.255029e+05   7.423204e+04
  -5.983035e+05  -9.641394e+05
   6.344802e+05  -1.259711e+06
   1.896716e+06  -3.574166e+05
   1.811537e+06   1.081984e+06
   2.840063e+05   1.907659e+06
  -1.318374e+06   1.481299e+06
  -1.587693e+06   2.193421e+05
  -5.257258e+05  -7.885601e+05
   5.986748e+05  -7.845162e+05
   7.067431e+05  -2.980929e+04
  -4.242183e+04   5.453344e+05
  -6.482234e+05   3.770273e+05
  -4.413889e+05  -1.499041e+05
   2.684630e+05  -2.174481e+05
   5.820960e+05   4.177890e+05
  -5.999135e+04   1.074082e+06
  -1.260233e+06   8.418393e+05
  -1.929169e+06  -4.233111e+05
  -1.289896e+06  -1.849670e+06
   2.954770e+05  -2.303119e+06
   1.603785e+06  -1.419609e+06
   1.747148e+06   7.035065e+04
   9.965221e+05   1.035493e+06
   3.187117e+05   9.837325e+05
   2.358728e+05   4.258128e+05
   3.614619e+05   2.138324e+05
   3.945565e+04   5.704332e+05
  -7.832590e+05   8.622138e+05
  -1.424482e+06   3.731419e+05
  -1.123226e+06  -7.688672e+05
   1.920346e+05  -1.559395e+06
   1.686530e+06  -1.083135e+06
   2.175959e+06   4.993399e+05
   1.107240e+06   1.983984e+06
  -8.562233e+05   2.188971e+06
  -2.303951e+06   1.016962e+06
  -2.289545e+06  -5.203026e+05
  -1.114099e+06  -1.304778e+06
   1.041011e+05  -1.116488e+06
   5.586541e+05  -6.577559e+05
   3.852050e+05  -6.543115e+05
   2.703695e+05  -1.034298e+06
   6.156476e+05  -1.056559e+06
   1.131889e+06  -2.160142e+05
   1.172202e+06   1.079819e+06
   4.277308e+05   1.811596e+06
  -6.650519e+05   1.326191e+06
  -1.231137e+06  -1.418582e+04
  -7.752062e+05  -1.155843e+06
   2.784002e+05  -1.296231e+06
   9.618380e+05  -5.175873e+05
   7.398107e+05   4.304892e+05
   3.240826e+04   8.804803e+05
  -3.145572e+05   7.657404e+05
  -1.317755e+04   4.855969e+05
   3.490169e+05   3.773050e+05
   1.291211e+04   3.805687e+05
  -1.013092e+06   1.907956e+05
  -1.823102e+06  -3.331805e+05
  -1.486901e+06  -9.579197e+05
  -5.619406e+04  -1.256115e+06
   1.371840e+06  -9.813976e+05
   1.683299e+06  -2.981270e+05
   8.324521e+05   3.181450e+05
  -1.866440e+05   4.466556e+05
  -4.402030e+05   9.144406e+04
   3.323764e+04  -2.833083e+05
   4.825382e+05  -1.876402e+05
   4.172581e+05   3.427700e+05
   7.175060e+04   7.167568e+05
  -5.553699e+04   4.524349e+05
   1.567802e+05  -1.748581e+05
   3.881122e+05  -3.696264e+05
   2.773672e+05   2.167437e+05
  -2.424705e+05   9.630225e+05
  -8.799798e+05   9.433427e+05
  -1.124446e+06   3.627635e+04
  -6.085135e+05  -8.861540e+05
   4.257244e+05  -9.313076e+05
   1.096336e+06  -1.463368e+05
   6.430982e+05   6.112318e+05
  -6.561939e+05   6.139718e+05
  -1.562190e+06  -8.398757e+04
  -1.097188e+06  -8.365888e+05
   3.763283e+05  -1.039090e+06
   1.490406e+06  -5.783453e+05
   1.289643e+06   1.422355e+05
   1.727119e+05   5.304381e+05
  -6.160205e+05   2.944723e+05
  -3.132560e+05  -2.481618e+05
   6.310239e+05  -4.000217e+05
   1.094412e+06   2.237790e+05
   4.607644e+05   1.186776e+06
  -7.691187e+05   1.524092e+06
  -1.506129e+06   6.784068e+05
  -1.147979e+06  -8.267547e+05
  -8.946816e+04  -1.745239e+06
   7.752150e+05  -1.270472e+06
   9.085459e+05   1.320092e+05
   4.448328e+05   1.156324e+06
  -1.523063e+05   9.894316e+05
  -5.139161e+05   1.046010e+05
  -5.054615e+05  -4.086800e+05
  -2.340207e+05  -1.759385e+05
  -2.039606e+04   1.195741e+05
  -1.363501e+05  -2.223598e+05
  -3.998184e+05  -9.169481e+05
  -2.363481e+05  -1.071524e+06
   5.842107e+05  -3.776161e+05
   1.407925e+06   5.176245e+05
   1.285775e+06   8.699470e+05
   1.594160e+05   6.574734e+05
  -9.202365e+05   3.425709e+05
  -9.859149e+05   1.580002e+05
  -2.764408e+05  -8.949592e+03
   1.821614e+05  -1.962901e+05
  -5.047528e+04  -2.552003e+05
  -3.483257e+05  -1.720143e+05
   3.782266e+02  -1.317621e+05
   7.524140e+05  -1.386386e+05
   9.805667e+05   9.661130e+04
   2.234255e+05   6.486189e+05
  -9.578709e+05   1.003230e+06
  -1.581026e+06   5.594079e+05
  -1.185339e+06  -5.328534e+05
  -1.421800e+05  -1.367939e+06
   7.743128e+05  -1.236449e+06
   1.019177e+06  -3.849154e+05
   6.199645e+05   3.162431e+05
   6.355819e+04   3.420606e+05
  -1.525417e+05  -1.047606e+04
   5.270553e+04  -8.414419e+04
   3.166587e+05   3.409509e+05
   2.317286e+05   7.869229e+05
  -2.265762e+05   6.126610e+05
  -6.538842e+05  -2.227868e+05
  -5.834364e+05  -1.006426e+06
   5.539933e+04  -9.654021e+05
   7.788992e+05  -9.347053e+04
   9.026464e+05   8.277392e+05
   2.068814e+05   1.044234e+06
  -7.248915e+05   5.313569e+05
  -1.009447e+06  -1.575694e+05
  -4.232160e+05  -5.422948e+05
   2.959700e+05  -5.429946e+05
   3.020444e+05  -3.160908e+05
  -3.161841e+05  -6.504355e+04
  -6.409152e+05  -1.622050e+04
  -9.399670e+04  -2.816173e+05
   8.252166e+05  -6.101838e+05
   1.162631e+06  -5.136488e+05
   6.370929e+05   1.363153e+05
  -1.455837e+05   7.863465e+05
  -4.962710e+05   7.554671e+05
  -3.228680e+05   7.710161e+04
   2.536082e+04  -4.887562e+05
   2.637849e+05  -3.523806e+05
   3.228338e+05   2.361289e+05
   1.955242e+05   5.653110e+05
  -8.807768e+04   3.317952e+05
  -3.621638e+05  -9.820925e+04
  -4.148359e+05  -2.390032e+05
  -2.291525e+05  -5.850383e+04
  -7.959543e+03   8.129587e+04
   8.809678e+04  -7.682500e+04
   1.197035e+05  -3.740191e+05
   2.199059e+05  -4.207994e+05
   3.489144e+05  -4.573396e+04
   3.028732e+05   4.667738e+05
  -2.490564e+04   6.223748e+05
  -4.411346e+05   2.329576e+05
  -5.587241e+05  -3.501316e+05
  -1.647828e+05  -5.864639e+05
   4.802606e+05  -3.081770e+05
   7.856438e+05   1.539050e+05
   4.098024e+05   3.871117e+05
  -2.971360e+05   3.060452e+05
  -5.931247e+05   1.109936e+05
  -1.786897e+05  -3.377578e+03
   4.091735e+05   2.556528e+04
   4.068199e+05   1.728357e+05
  -2.503624e+05   3.095137e+05
  -8.333118e+05   1.979174e+05
