
 $NMID
 id='ANONYMOUS ', fmtdat='(2E16.6)'
 volume=1.0
 tramp=1.0
 $END
  -1.034751e+07   6.148784e+05
  -7.442763e+06  -3.835655e+06
  -9.281963e+05  -6.349285e+06
   3.899556e+06  -5.274686e+06
   3.979194e+06  -1.408771e+06
   7.369094e+05   1.829223e+06
  -2.067937e+06   1.520597e+06
  -2.090435e+06  -1.440448e+06
  -5.080374e+03  -3.278243e+06
   1.874187e+06  -1.771273e+06
   1.937500e+06   1.261035e+06
   4.388658e+05   2.367882e+06
  -1.036638e+06   5.181785e+05
  -1.047213e+06  -2.033064e+06
   4.135146e+05  -2.517927e+06
   1.845020e+06  -5.020142e+05
   1.650298e+06   2.028059e+06
  -1.827318e+05   2.836907e+06
  -1.973279e+06   1.484059e+06
  -2.124193e+06  -5.333509e+05
  -8.452398e+05  -1.451204e+06
   1.845907e+05  -9.975867e+05
  -1.892020e+05  -4.225939e+05
  -1.279120e+06  -8.381555e+05
  -1.375923e+06  -1.873257e+06
   2.754634e+05  -2.217483e+06
   2.501286e+06  -1.229089e+06
   3.261871e+06   3.931921e+05
   1.724374e+06   1.429658e+06
  -7.495130e+05   1.239377e+06
  -1.853460e+06   1.077370e+05
  -6.827112e+05  -1.035262e+06
   1.343193e+06  -1.177593e+06
   2.092342e+06  -1.976015e+04
   1.036232e+06   1.505967e+06
  -4.259294e+05   1.906647e+06
  -8.218806e+05   7.348192e+05
  -1.850408e+05  -7.167701e+05
   4.013866e+05  -7.962338e+05
   2.620530e+05   5.321932e+05
  -3.516203e+05   1.612934e+06
  -8.586631e+05   1.100580e+06
  -8.822251e+05  -4.425835e+05
  -3.152052e+05  -1.275684e+06
   5.501139e+05  -5.238668e+05
   9.131112e+05   9.215501e+05
   9.112013e+04   1.500694e+06
  -1.461735e+06   6.274408e+05
  -2.234576e+06  -8.715483e+05
  -1.222226e+06  -1.707340e+06
   8.003010e+05  -1.311663e+06
   1.993688e+06  -1.812059e+05
   1.398193e+06   7.119868e+05
  -1.642036e+05   7.732492e+05
  -1.117901e+06   1.845669e+05
  -7.514593e+05  -3.767894e+05
   2.676485e+05  -3.753809e+05
   7.527630e+05   1.365420e+05
   2.246916e+05   6.064821e+05
  -6.410379e+05   5.110222e+05
  -7.544172e+05  -1.194024e+05
   1.453319e+05  -6.598670e+05
   1.077899e+06  -4.445795e+05
   8.527946e+05   5.351990e+05
  -5.382536e+05   1.485723e+06
  -1.852906e+06   1.473687e+06
  -1.982882e+06   3.267672e+05
  -1.092153e+06  -1.147989e+06
  -1.915433e+05  -1.915298e+06
   1.206421e+05  -1.681488e+06
   1.368061e+05  -1.048825e+06
   3.922715e+05  -7.085522e+05
   9.466211e+05  -6.363812e+05
   1.392718e+06  -2.581690e+05
   1.310125e+06   6.334369e+05
   5.975966e+05   1.398717e+06
  -4.277374e+05   1.194214e+06
  -1.124663e+06   1.276542e+04
  -9.279338e+05  -1.160861e+06
   9.750009e+04  -1.317516e+06
   1.156619e+06  -4.138398e+05
   1.397541e+06   6.931027e+05
   7.368438e+05   1.176924e+06
  -1.057554e+05   9.562392e+05
  -4.358624e+05   5.461335e+05
  -3.286459e+05   4.075429e+05
  -4.367647e+05   5.220405e+05
  -1.094929e+06   4.943387e+05
  -1.770306e+06  -2.434753e+04
  -1.552599e+06  -9.557544e+05
  -2.157830e+05  -1.746198e+06
   1.342533e+06  -1.753846e+06
   1.888602e+06  -8.343023e+05
   1.093103e+06   4.088613e+05
  -1.457192e+05   1.063409e+06
  -6.670625e+05   7.253024e+05
  -2.020532e+05  -1.075527e+05
   5.284588e+05  -5.323324e+05
   7.182798e+05  -1.734261e+05
   2.672660e+05   4.383441e+05
  -2.835650e+05   4.953447e+05
  -3.669699e+05  -1.116488e+05
   1.266760e+05  -5.992312e+05
   7.824819e+05  -1.752235e+05
   9.487333e+05   9.727633e+05
   2.502494e+05   1.760684e+06
  -9.779742e+05   1.333544e+06
  -1.821588e+06  -2.185032e+04
  -1.569278e+06  -1.188761e+06
  -4.391702e+05  -1.357323e+06
   5.905669e+05  -7.197556e+05
   7.515648e+05  -8.533473e+04
   2.189965e+05   2.801867e+03
  -1.809877e+05  -3.095581e+05
   7.551203e+04  -5.068139e+05
   6.616107e+05  -2.831428e+05
   8.220317e+05   1.922946e+05
   2.670786e+05   4.817530e+05
  -4.493369e+05   3.105237e+05
  -5.014413e+05  -1.558963e+05
   2.756050e+05  -4.337556e+05
   1.119873e+06  -1.619437e+05
   1.099173e+06   5.243710e+05
   1.093984e+05   1.062340e+06
  -9.858465e+05   9.568533e+05
  -1.238716e+06   2.596707e+05
  -5.526271e+05  -4.425264e+05
   3.074216e+05  -5.654546e+05
   5.395905e+05  -9.573670e+04
   4.111689e+04   3.926490e+05
  -6.129860e+05   3.345682e+05
  -7.792799e+05  -2.238811e+05
  -3.162941e+05  -6.845176e+05
   3.351736e+05  -5.705063e+05
   5.778384e+05  -5.237806e+04
   2.294806e+05   2.701623e+05
  -2.764423e+05   5.308760e+04
  -3.142293e+05  -4.326970e+05
   2.560249e+05  -6.235723e+05
   8.876784e+05  -2.490138e+05
   9.038064e+05   4.289296e+05
   2.271766e+05   8.786397e+05
  -5.325308e+05   7.594698e+05
  -7.223511e+05   1.971898e+05
  -2.920272e+05  -3.258635e+05
   2.316559e+05  -3.948902e+05
   3.359847e+05  -4.782901e+04
   1.382170e+04   2.783966e+05
  -3.078430e+05   2.333181e+05
  -2.563155e+05  -5.445922e+04
   9.576129e+04  -1.501639e+05
   3.097901e+05   1.407274e+05
   4.573079e+04   5.083932e+05
  -5.487911e+05   4.691837e+05
  -9.355731e+05  -1.001642e+05
  -7.027557e+05  -8.096398e+05
   1.895396e+04  -1.109210e+06
   6.800699e+05  -7.728620e+05
   8.436439e+05  -7.968349e+04
   5.611406e+05   4.422531e+05
   2.271770e+05   4.848340e+05
   1.234633e+05   2.211036e+05
   1.582192e+05   8.357890e+04
   4.377778e+04   2.592747e+05
  -3.188497e+05   4.602138e+05
  -6.670915e+05   2.702479e+05
  -6.025280e+05  -3.100758e+05
  -8.517847e+03  -7.755033e+05
   7.484167e+05  -6.205958e+05
   1.068711e+06   1.197011e+05
   6.355320e+05   8.772083e+05
  -2.775562e+05   1.071940e+06
  -1.019341e+06   6.073695e+05
  -1.111468e+06  -1.037925e+05
  -6.221348e+05  -5.480840e+05
  -3.152889e+04  -5.530564e+05
   2.412726e+05  -3.691049e+05
   1.813063e+05  -3.367835e+05
   9.537101e+04  -4.879764e+05
   2.349922e+05  -5.145566e+05
   5.156015e+05  -1.519653e+05
   6.054492e+05   4.549208e+05
   2.917681e+05   8.374119e+05
  -2.502216e+05   6.610661e+05
  -5.828585e+05   5.882295e+04
  -4.269658e+05  -4.974921e+05
   5.162179e+04  -6.209679e+05
   4.060293e+05  -3.048979e+05
   3.614885e+05   1.411484e+05
   7.305852e+04   3.947073e+05
  -8.701435e+04   3.730959e+05
   3.188060e+04   2.350803e+05
   1.858111e+05   1.675231e+05
   2.591850e+04   1.853053e+05
  -4.639600e+05   1.448613e+05
  -8.728365e+05  -6.407631e+04
  -7.512666e+05  -3.717065e+05
  -9.763058e+04  -5.769253e+05
   5.869356e+05  -5.233402e+05
   7.707469e+05  -2.348079e+05
   4.069574e+05   8.785126e+04
  -6.157229e+04   2.108320e+05
  -1.971360e+05   7.226318e+04
   7.629237e+03  -1.293131e+05
   2.241723e+05  -1.168084e+05
   2.154726e+05   1.400084e+05
   6.244459e+04   3.456501e+05
  -1.394819e+04   2.230534e+05
   6.393953e+04  -1.028639e+05
   1.741021e+05  -2.109152e+05
   1.487949e+05   9.064909e+04
  -7.049276e+04   4.826533e+05
  -3.746449e+05   4.923154e+05
  -5.250585e+05   5.790262e+04
  -3.204929e+05  -3.988580e+05
   1.606256e+05  -4.532700e+05
   5.109116e+05  -1.108608e+05
   3.379000e+05   2.613993e+05
  -2.742272e+05   3.278757e+05
  -7.492872e+05   5.318606e+04
  -5.822686e+05  -3.290564e+05
   1.061086e+05  -5.202387e+05
   6.739779e+05  -3.734046e+05
   6.283545e+05  -1.389315e+04
   1.175353e+05   2.431742e+05
  -2.728299e+05   1.759458e+05
  -1.540618e+05  -1.005235e+05
   2.895544e+05  -2.181104e+05
   5.345781e+05   6.165946e+04
   2.701259e+05   5.508270e+05
  -3.024296e+05   7.652849e+05
  -6.907482e+05   3.954889e+05
  -5.908190e+05  -3.377895e+05
  -1.338673e+05  -8.295448e+05
   2.999072e+05  -6.524507e+05
   4.387711e+05   6.961400e+03
   2.792226e+05   5.235932e+05
  -9.852464e+03   4.802487e+05
  -2.355242e+05   7.820727e+04
  -2.699231e+05  -1.679022e+05
  -1.290327e+05  -7.099736e+04
   1.567136e+03   5.858276e+04
  -6.137923e+04  -9.923196e+04
  -2.315644e+05  -4.151710e+05
  -1.786672e+05  -4.939125e+05
   2.459200e+05  -2.060131e+05
   6.989228e+05   1.723609e+05
   6.674195e+05   3.426737e+05
   1.108872e+05   3.030718e+05
  -4.292082e+05   2.148184e+05
  -4.633694e+05   1.312613e+05
  -1.232970e+05   1.175690e+04
   7.940763e+04  -1.030941e+05
  -5.047399e+04  -1.192111e+05
  -1.882839e+05  -6.600245e+04
  -1.925324e+03  -6.685547e+04
   3.656395e+05  -1.058676e+05
   4.726102e+05   1.026244e+03
   1.230281e+05   3.038843e+05
  -4.184590e+05   5.248748e+05
  -7.217702e+05   3.354993e+05
  -5.825004e+05  -2.059828e+05
  -1.341359e+05  -6.490715e+05
   3.064050e+05  -6.244751e+05
   4.711841e+05  -2.275714e+05
   3.162366e+05   1.258997e+05
   4.208439e+04   1.629139e+05
  -8.579192e+04   9.564201e+02
   1.433885e+04  -4.813662e+04
   1.711606e+05   1.417424e+05
   1.528639e+05   3.615770e+05
  -8.142423e+04   3.012180e+05
  -3.277740e+05  -8.053571e+04
  -3.247356e+05  -4.603066e+05
  -1.007888e+04  -4.667263e+05
   3.769137e+05  -7.687454e+04
   4.729068e+05   3.595785e+05
   1.444561e+05   4.903129e+05
  -3.245257e+05   2.835854e+05
  -4.864210e+05  -3.030282e+04
  -2.198075e+05  -2.347172e+05
   1.190440e+05  -2.649332e+05
   1.223738e+05  -1.587167e+05
  -1.645572e+05  -1.299587e+04
  -3.101283e+05   2.428237e+04
  -5.539408e+04  -1.296849e+05
   3.621744e+05  -3.333179e+05
   5.175696e+05  -3.055517e+05
   2.982327e+05   3.058310e+04
  -3.251778e+04   3.787982e+05
  -1.930111e+05   3.775623e+05
  -1.450214e+05   4.236567e+04
  -9.914312e+03  -2.404285e+05
   1.124062e+05  -1.777795e+05
   1.705877e+05   1.037756e+05
   1.204540e+05   2.609263e+05
  -3.131417e+04   1.567218e+05
  -1.788711e+05  -3.242026e+04
  -2.039084e+05  -8.922291e+04
  -1.096261e+05  -1.144375e+04
  -7.167614e+03   3.523408e+04
   3.131867e+04  -5.359294e+04
   4.671781e+04  -1.949668e+05
   1.037290e+05  -2.110919e+05
   1.763907e+05  -2.766204e+04
   1.622390e+05   2.221848e+05
   5.984131e+03   3.067723e+05
  -2.050327e+05   1.314526e+05
  -2.817649e+05  -1.474443e+05
  -1.053668e+05  -2.773093e+05
   2.124094e+05  -1.685320e+05
   3.797862e+05   4.074949e+04
   2.122858e+05   1.658753e+05
  -1.296660e+05   1.545186e+05
  -2.787295e+05   7.387274e+04
  -7.969901e+04   3.197516e+03
   2.080229e+05  -5.782268e+03
   2.101191e+05   6.920439e+04
  -1.084402e+05   1.685508e+05
  -3.992049e+05   1.412401e+05
