
 $NMID
 id='ANONYMOUS ', fmtdat='(2E16.6)'
 volume=1.0
 tramp=1.0
 $END
  -5.953688e+07  -1.143539e+06
  -3.492290e+07  -3.801405e+07
   9.025732e+06  -4.028908e+07
   2.965340e+07  -1.445251e+07
   1.708987e+07   8.249029e+06
  -3.929938e+06   9.759045e+06
  -1.029246e+07  -1.833782e+06
  -2.426160e+06  -1.043470e+07
   6.948155e+06  -9.419048e+06
   1.020108e+07  -1.646851e+06
   7.144833e+06   6.637305e+06
   6.637895e+05   8.928807e+06
  -4.188063e+06   2.830616e+06
  -2.561282e+06  -5.568504e+06
   4.152648e+06  -6.572114e+06
   8.213459e+06   1.707719e+06
   4.346867e+06   1.083386e+07
  -4.305365e+06   1.227329e+07
  -1.076065e+07   5.998759e+06
  -1.137065e+07  -2.312829e+06
  -6.960184e+06  -8.011361e+06
  -6.566693e+05  -9.282266e+06
   3.329254e+06  -6.499343e+06
   2.341506e+06  -2.751294e+06
  -8.899620e+05  -1.995556e+06
  -2.647010e+05  -4.116421e+06
   5.470617e+06  -4.465275e+06
   9.906289e+06  -4.639250e+05
   7.283009e+06   4.334466e+06
   3.508625e+05   5.279346e+06
  -3.720990e+06   2.727109e+06
  -2.563581e+06   1.913965e+05
   4.002306e+05  -7.737675e+05
   2.073754e+06  -4.998568e+05
   2.177705e+06   1.289324e+06
   7.966764e+05   3.925109e+06
  -1.861343e+06   4.047024e+06
  -3.501378e+06  -1.098863e+04
  -1.897926e+06  -3.841347e+06
   8.283950e+05  -2.203400e+06
   4.076926e+05   2.366521e+06
  -2.557581e+06   2.259031e+06
  -2.444417e+06  -3.443718e+06
   2.828785e+06  -6.406955e+06
   7.510011e+06  -8.810314e+05
   5.290876e+06   7.482941e+06
  -2.265340e+06   8.993455e+06
  -7.875053e+06   2.386150e+06
  -7.075264e+06  -4.819478e+06
  -1.665908e+06  -6.291246e+06
   3.689497e+06  -2.640211e+06
   5.326167e+06   1.801319e+06
   2.313717e+06   3.712203e+06
  -2.642839e+06   2.199770e+06
  -4.706575e+06  -1.126325e+06
  -1.934490e+06  -2.927620e+06
   1.845973e+06  -1.388370e+06
   1.733035e+06   1.124947e+06
  -1.505807e+06   8.568995e+05
  -2.549236e+06  -2.061978e+06
   8.836871e+05  -3.724463e+06
   5.064745e+06  -1.868385e+06
   5.562306e+06   1.660626e+06
   2.298437e+06   4.283480e+06
  -1.957133e+06   5.437864e+06
  -5.197912e+06   4.924566e+06
  -6.416213e+06   1.741200e+06
  -4.744700e+06  -3.305992e+06
  -8.913383e+05  -6.390227e+06
   2.093102e+06  -4.856948e+06
   1.923068e+06  -1.104854e+06
   1.014163e+05   4.125508e+05
  -1.955787e+05  -9.486233e+05
   1.516401e+06  -1.878005e+06
   2.828590e+06  -3.360826e+05
   2.070588e+06   1.875584e+06
   7.574048e+04   2.115510e+06
  -1.483966e+06   1.942474e+05
  -1.620256e+06  -2.078348e+06
   2.788205e+04  -2.959117e+06
   2.833152e+06  -1.685404e+06
   4.607070e+06   1.243754e+06
   3.325585e+06   3.943201e+06
  -8.827908e+04   4.447779e+06
  -2.456247e+06   2.838190e+06
  -2.406602e+06   1.133448e+06
  -1.942408e+06   6.155824e+05
  -3.029677e+06   3.736657e+05
  -4.420982e+06  -9.156535e+05
  -3.476981e+06  -2.921602e+06
  -2.047447e+04  -4.200467e+06
   3.340393e+06  -3.886141e+06
   4.260303e+06  -2.092926e+06
   2.698979e+06   4.285729e+05
   2.930276e+05   2.253108e+06
  -1.110448e+06   1.966413e+06
  -5.768655e+05  -2.630705e+04
   1.118501e+06  -1.315123e+06
   1.965597e+06  -3.681115e+05
   9.408954e+05   1.257561e+06
  -5.320398e+05   1.116177e+06
  -3.846421e+05  -4.188227e+05
   1.173564e+06  -6.219828e+05
   1.869312e+06   1.507521e+06
   4.445708e+05   3.675878e+06
  -1.889352e+06   3.375853e+06
  -3.300075e+06   8.839436e+05
  -3.252030e+06  -1.665938e+06
  -2.129681e+06  -2.852995e+06
  -3.549434e+05  -2.613597e+06
   1.279086e+06  -1.447875e+06
   1.594507e+06  -2.063012e+05
   4.999690e+05   5.909987e+04
  -3.425973e+05  -7.776670e+05
   4.742753e+05  -1.375242e+06
   1.994781e+06  -5.426314e+05
   2.067179e+06   9.920348e+05
   3.371408e+05   1.481494e+06
  -1.221195e+06   5.384244e+05
  -8.644878e+05  -4.964591e+05
   9.057143e+05  -4.601418e+05
   2.177014e+06   4.505963e+05
   1.664187e+06   1.438475e+06
  -3.508949e+05   1.953002e+06
  -2.392539e+06   1.579339e+06
  -2.825176e+06   1.883923e+05
  -1.210171e+06  -1.340507e+06
   9.894909e+05  -1.535226e+06
   1.628710e+06  -1.601072e+05
   1.946607e+05   1.124479e+06
  -1.574155e+06   7.166245e+05
  -1.728271e+06  -8.631955e+05
  -2.647237e+05  -1.700735e+06
   1.171046e+06  -9.328892e+05
   1.265485e+06   3.963454e+05
   1.975776e+05   8.198772e+05
  -8.355250e+05   2.717690e+04
  -7.317842e+05  -1.101960e+06
   6.181787e+05  -1.444428e+06
   2.060798e+06  -5.115543e+05
   2.055629e+06   1.120772e+06
   3.354060e+05   2.133993e+06
  -1.528543e+06   1.637821e+06
  -1.773624e+06   1.524790e+05
  -4.732333e+05  -9.089325e+05
   7.037722e+05  -7.914084e+05
   6.280425e+05  -6.020221e+04
  -1.511928e+05   3.302032e+05
  -4.816625e+05   1.598096e+05
  -6.490404e+04  -6.473691e+04
   4.880715e+05   1.389652e+05
   4.941357e+05   7.420140e+05
  -2.734789e+05   1.213976e+06
  -1.447130e+06   8.666173e+05
  -2.112621e+06  -4.867537e+05
  -1.442601e+06  -2.025472e+06
   2.874254e+05  -2.453837e+06
   1.681582e+06  -1.366699e+06
   1.691231e+06   1.983901e+05
   8.056394e+05   9.136899e+05
   2.887026e+05   6.110343e+05
   5.105699e+05   1.963596e+05
   6.702812e+05   3.490832e+05
   7.869324e+04   8.070353e+05
  -9.314581e+05   8.870615e+05
  -1.478280e+06   2.680279e+05
  -1.019128e+06  -7.598229e+05
   3.172623e+05  -1.447457e+06
   1.781988e+06  -1.019387e+06
   2.262761e+06   5.633522e+05
   1.075856e+06   2.178987e+06
  -1.126350e+06   2.385448e+06
  -2.643634e+06   9.576221e+05
  -2.361649e+06  -7.726297e+05
  -8.883910e+05  -1.394320e+06
   2.642775e+05  -9.181823e+05
   3.840208e+05  -4.700661e+05
   4.805070e+04  -7.670561e+05
   1.134976e+05  -1.359225e+06
   7.255627e+05  -1.318911e+06
   1.342523e+06  -2.984548e+05
   1.341267e+06   1.132289e+06
   5.207263e+05   1.941960e+06
  -6.667976e+05   1.446685e+06
  -1.305902e+06  -4.429253e+04
  -7.833935e+05  -1.345533e+06
   4.615222e+05  -1.414894e+06
   1.226442e+06  -3.517648e+05
   8.127604e+05   7.794357e+05
  -1.863539e+05   1.119964e+06
  -6.095444e+05   7.779346e+05
  -1.156504e+05   4.050501e+05
   4.402661e+05   3.435858e+05
   5.621881e+04   3.879631e+05
  -1.190614e+06   1.784135e+05
  -2.113781e+06  -4.014481e+05
  -1.620456e+06  -1.113924e+06
   1.025860e+05  -1.481670e+06
   1.679995e+06  -1.129665e+06
   1.884889e+06  -2.147187e+05
   8.272688e+05   5.617233e+05
  -2.945020e+05   5.899962e+05
  -5.322994e+05   6.487341e+03
  -3.267075e+04  -4.511133e+05
   4.452167e+05  -2.586215e+05
   4.866492e+05   3.590883e+05
   2.683810e+05   7.335444e+05
   1.125163e+05   4.875529e+05
   1.397435e+05  -7.353366e+04
   2.710727e+05  -2.656701e+05
   2.694814e+05   2.473130e+05
  -1.546315e+05   9.911493e+05
  -9.438088e+05   1.069275e+06
  -1.425432e+06   1.657005e+05
  -8.804317e+05  -9.499670e+05
   4.493793e+05  -1.178425e+06
   1.308588e+06  -3.434275e+05
   7.383605e+05   5.909849e+05
  -7.392024e+05   6.368413e+05
  -1.601413e+06  -1.556731e+05
  -9.606269e+05  -9.139696e+05
   5.496022e+05  -9.691721e+05
   1.530385e+06  -4.037402e+05
   1.221643e+06   2.505448e+05
   1.064220e+05   5.194641e+05
  -6.723439e+05   2.417643e+05
  -3.949615e+05  -3.192156e+05
   5.917541e+05  -5.348896e+05
   1.206407e+06   8.260364e+04
   6.902825e+05   1.203578e+06
  -5.978349e+05   1.735572e+06
  -1.510670e+06   8.963363e+05
  -1.265255e+06  -7.827881e+05
  -1.743339e+05  -1.819051e+06
   7.804257e+05  -1.281324e+06
   9.305671e+05   2.234552e+05
   3.872069e+05   1.225356e+06
  -2.774514e+05   9.623845e+05
  -5.834718e+05   5.902310e+04
  -4.415332e+05  -3.887093e+05
  -1.362543e+05  -1.347978e+05
  -6.191626e+04   8.741732e+04
  -3.173110e+05  -3.250727e+05
  -5.124993e+05  -1.001673e+06
  -1.375464e+05  -1.094488e+06
   7.735225e+05  -3.800617e+05
   1.484380e+06   5.026199e+05
   1.251929e+06   8.776688e+05
   1.696481e+05   7.212500e+05
  -8.473530e+05   4.130848e+05
  -9.937124e+05   1.544644e+05
  -3.906832e+05  -7.889383e+04
   1.407021e+05  -2.300335e+05
   7.536215e+04  -1.900820e+05
  -2.300486e+05  -8.004465e+04
  -6.433329e+04  -1.342848e+05
   6.363080e+05  -2.450450e+05
   1.071302e+06   1.559047e+04
   4.884682e+05   7.188304e+05
  -8.369735e+05   1.212514e+06
  -1.770016e+06   7.764562e+05
  -1.482509e+06  -4.362222e+05
  -2.779850e+05  -1.430071e+06
   8.110799e+05  -1.405667e+06
   1.078182e+06  -5.630526e+05
   6.596722e+05   2.222015e+05
   1.496482e+05   3.680623e+05
  -3.733670e+04   9.158546e+04
   9.600292e+04   1.202313e+04
   2.821870e+05   3.912107e+05
   2.249863e+05   8.273815e+05
  -1.823668e+05   6.995968e+05
  -6.854232e+05  -1.021374e+05
  -7.693784e+05  -9.499809e+05
  -1.547322e+05  -1.058212e+06
   7.451003e+05  -2.869234e+05
   1.063262e+06   7.059877e+05
   3.736077e+05   1.116923e+06
  -7.267002e+05   7.163447e+05
  -1.161390e+06  -7.383339e+04
  -5.606034e+05  -6.585132e+05
   3.021018e+05  -7.276927e+05
   4.250993e+05  -3.805918e+05
  -2.140944e+05   3.966220e+03
  -6.528344e+05   4.095002e+04
  -1.602666e+05  -3.231242e+05
   8.481013e+05  -6.795980e+05
   1.322338e+06  -5.099027e+05
   8.144690e+05   2.187738e+05
  -1.023084e+05   9.015622e+05
  -6.049168e+05   8.843836e+05
  -4.750154e+05   1.897884e+05
  -7.233198e+04  -4.731489e+05
   2.399315e+05  -4.640630e+05
   3.563094e+05   1.171067e+05
   2.609747e+05   5.894451e+05
  -4.727933e+04   4.684182e+05
  -4.003463e+05  -3.227923e+04
  -4.957265e+05  -3.147405e+05
  -2.469157e+05  -1.225471e+05
   5.199876e+04   1.818703e+05
   8.417035e+04   1.034002e+05
  -6.065789e+04  -3.378349e+05
  -1.725593e+04  -6.016769e+05
   3.041934e+05  -2.880973e+05
   5.146612e+05   3.461635e+05
   2.220139e+05   6.565162e+05
  -3.994709e+05   3.375744e+05
  -7.018071e+05  -2.637215e+05
  -2.757884e+05  -5.715682e+05
   5.308628e+05  -3.761843e+05
   9.228683e+05   6.422183e+04
   4.985265e+05   3.866476e+05
  -3.017127e+05   4.355204e+05
  -6.636247e+05   2.648230e+05
  -2.853983e+05   2.358008e+04
   3.121905e+05  -9.940987e+04
   3.997163e+05   2.379738e+04
  -1.381561e+05   2.714567e+05
  -7.032505e+05   2.765991e+05
