
 $NMID
 id='ANONYMOUS ', fmtdat='(2E16.6)'
 volume=1.0
 tramp=1.0
 $END
  -2.055781e+07  -4.012510e+05
  -1.347008e+07  -1.040424e+07
   6.133979e+05  -1.324468e+07
   9.330460e+06  -8.076346e+06
   7.417019e+06  -2.129937e+05
   1.674727e+05   3.738628e+06
  -4.219476e+06   1.470098e+06
  -2.833792e+06  -3.471796e+06
   1.314034e+06  -5.427017e+06
   3.935456e+06  -2.234836e+06
   3.196036e+06   2.714812e+06
   2.935960e+05   4.207379e+06
  -1.954314e+06   8.652675e+05
  -1.413601e+06  -3.449985e+06
   1.364591e+06  -3.996064e+06
   3.436468e+06  -2.075093e+05
   2.381993e+06   4.105303e+06
  -1.109587e+06   5.054586e+06
  -3.979687e+06   2.339483e+06
  -3.982130e+06  -1.222541e+06
  -1.735557e+06  -2.896937e+06
   2.532163e+05  -2.368097e+06
   2.142306e+05  -1.377302e+06
  -1.192035e+06  -1.572372e+06
  -1.579780e+06  -2.770235e+06
   5.915757e+05  -3.258584e+06
   3.976586e+06  -1.799881e+06
   5.312766e+06   8.384250e+05
   2.930085e+06   2.583881e+06
  -1.063378e+06   2.170363e+06
  -2.849609e+06   2.635688e+05
  -1.062370e+06  -1.370602e+06
   1.909598e+06  -1.401014e+06
   2.890288e+06   2.098453e+05
   1.325113e+06   2.205509e+06
  -7.423547e+05   2.812002e+06
  -1.370987e+06   1.286217e+06
  -5.574025e+05  -9.459967e+05
   3.686256e+05  -1.431146e+06
   3.400122e+05   4.243177e+05
  -6.093617e+05   2.271434e+06
  -1.537337e+06   1.549989e+06
  -1.374680e+06  -1.119363e+06
   8.858003e+04  -2.495481e+06
   1.703605e+06  -7.611394e+05
   1.758226e+06   2.181777e+06
  -2.870307e+05   3.048158e+06
  -2.885744e+06   9.509551e+05
  -3.615005e+06  -1.954485e+06
  -1.547528e+06  -3.098005e+06
   1.657285e+06  -1.898824e+06
   3.229610e+06   2.566851e+05
   1.954829e+06   1.581224e+06
  -6.788771e+05   1.273341e+06
  -2.065101e+06  -4.957722e+04
  -1.151415e+06  -9.799684e+05
   6.368634e+05  -6.448799e+05
   1.162922e+06   4.297002e+05
  -5.098231e+03   9.429304e+05
  -1.241680e+06   3.037763e+05
  -8.626165e+05  -7.661123e+05
   8.967197e+05  -1.099102e+06
   2.125227e+06  -2.304662e+05
   1.307075e+06   1.313576e+06
  -1.096581e+06   2.454700e+06
  -3.143733e+06   2.201624e+06
  -3.310605e+06   3.719772e+05
  -1.805586e+06  -1.979324e+06
  -9.978234e+04  -3.225960e+06
   6.480225e+05  -2.710838e+06
   5.743640e+05  -1.423492e+06
   6.055338e+05  -7.481823e+05
   1.226940e+06  -7.670915e+05
   1.947236e+06  -3.832845e+05
   1.910009e+06   9.091682e+05
   8.302884e+05   2.073041e+06
  -6.928793e+05   1.722695e+06
  -1.621011e+06  -1.079682e+05
  -1.228957e+06  -1.857423e+06
   3.022042e+05  -2.027375e+06
   1.867625e+06  -5.837936e+05
   2.238228e+06   1.204651e+06
   1.183370e+06   2.057043e+06
  -2.621956e+05   1.732082e+06
  -9.103593e+05   9.774789e+05
  -7.537641e+05   6.088006e+05
  -8.532206e+05   6.793412e+05
  -1.813995e+06   5.365331e+05
  -2.767951e+06  -3.609859e+05
  -2.259997e+06  -1.760180e+06
  -5.485080e+04  -2.748040e+06
   2.321285e+06  -2.517087e+06
   3.011249e+06  -1.062311e+06
   1.663467e+06   7.142067e+05
  -2.843537e+05   1.603028e+06
  -1.085307e+06   1.070867e+06
  -3.278602e+05  -1.722466e+05
   8.759594e+05  -7.787384e+05
   1.190681e+06  -1.777908e+05
   4.062969e+05   7.540070e+05
  -5.044433e+05   7.428513e+05
  -5.199972e+05  -2.429284e+05
   3.821175e+05  -8.421865e+05
   1.264020e+06   4.560030e+04
   1.142934e+06   1.811275e+06
  -1.518382e+05   2.693287e+06
  -1.828195e+06   1.673643e+06
  -2.698366e+06  -4.816710e+05
  -2.079615e+06  -2.070124e+06
  -4.160298e+05  -2.093528e+06
   9.966638e+05  -1.001682e+06
   1.156956e+06  -2.657028e+04
   3.370033e+05   4.444141e+04
  -2.383893e+05  -5.120028e+05
   2.116035e+05  -8.113095e+05
   1.124792e+06  -3.526575e+05
   1.288671e+06   4.717206e+05
   3.307536e+05   8.453818e+05
  -7.655686e+05   4.238200e+05
  -7.406935e+05  -3.161073e+05
   5.001767e+05  -5.801347e+05
   1.701392e+06  -1.804996e+04
   1.530564e+06   9.773990e+05
  -3.858486e+04   1.600252e+06
  -1.664492e+06   1.278934e+06
  -1.950756e+06   1.882950e+05
  -7.935597e+05  -8.041100e+05
   5.863733e+05  -8.725718e+05
   9.043425e+05  -7.247887e+04
   3.257389e+04   6.480896e+05
  -1.014857e+06   4.416266e+05
  -1.178767e+06  -4.902273e+05
  -3.479799e+05  -1.127965e+06
   6.512663e+05  -8.063581e+05
   9.114068e+05   5.586285e+04
   2.942919e+05   4.866456e+05
  -4.575094e+05   5.693854e+04
  -4.437827e+05  -7.064633e+05
   4.618352e+05  -9.300429e+05
   1.394939e+06  -2.714153e+05
   1.337998e+06   7.882495e+05
   2.178294e+05   1.401664e+06
  -9.615632e+05   1.095280e+06
  -1.165545e+06   1.699635e+05
  -3.914219e+05  -5.759262e+05
   4.352399e+05  -5.805008e+05
   5.218778e+05  -2.672088e+04
  -2.426962e+04   4.035002e+05
  -4.749024e+05   2.861796e+05
  -3.315166e+05  -1.046526e+05
   1.899611e+05  -1.637031e+05
   4.289224e+05   2.994140e+05
  -3.659247e+04   7.876927e+05
  -9.213421e+05   6.256147e+05
  -1.421035e+06  -3.012914e+05
  -9.579268e+05  -1.354418e+06
   2.053941e+05  -1.696915e+06
   1.171493e+06  -1.055416e+06
   1.286901e+06   3.913592e+04
   7.439535e+05   7.562433e+05
   2.450559e+05   7.268699e+05
   1.755516e+05   3.178764e+05
   2.625138e+05   1.569828e+05
   2.956873e+04   4.175668e+05
  -5.702500e+05   6.380597e+05
  -1.045326e+06   2.842772e+05
  -8.334709e+05  -5.585040e+05
   1.292616e+05  -1.149943e+06
   1.234046e+06  -8.080057e+05
   1.604432e+06   3.547574e+05
   8.261605e+05   1.452311e+06
  -6.163803e+05   1.612772e+06
  -1.686621e+06   7.603669e+05
  -1.686465e+06  -3.672162e+05
  -8.304514e+05  -9.510862e+05
   6.591220e+04  -8.238444e+05
   4.076417e+05  -4.920622e+05
   2.849913e+05  -4.866566e+05
   1.982215e+05  -7.614949e+05
   4.486587e+05  -7.778969e+05
   8.310018e+05  -1.628212e+05
   8.676408e+05   7.896058e+05
   3.236737e+05   1.331552e+06
  -4.831794e+05   9.796928e+05
  -9.059520e+05  -3.393176e+03
  -5.760761e+05  -8.447032e+05
   1.963221e+05  -9.533573e+05
   7.006109e+05  -3.863496e+05
   5.431225e+05   3.092992e+05
   2.929296e+04   6.433492e+05
  -2.237263e+05   5.628245e+05
  -4.707701e+03   3.577232e+05
   2.586776e+05   2.771964e+05
   1.123275e+04   2.806375e+05
  -7.429627e+05   1.449970e+05
  -1.340994e+06  -2.366133e+05
  -1.098075e+06  -6.962498e+05
  -4.856766e+04  -9.207732e+05
   1.002644e+06  -7.263981e+05
   1.235111e+06  -2.287320e+05
   6.127530e+05   2.264045e+05
  -1.350216e+05   3.273639e+05
  -3.217627e+05   7.008330e+04
   2.533184e+04  -2.075936e+05
   3.555506e+05  -1.406775e+05
   3.084677e+05   2.505442e+05
   5.467877e+04   5.294791e+05
  -4.054509e+04   3.350143e+05
   1.135600e+05  -1.311472e+05
   2.839593e+05  -2.771665e+05
   2.054340e+05   1.574864e+05
  -1.740833e+05   7.115166e+05
  -6.430978e+05   6.982005e+05
  -8.259687e+05   2.890745e+04
  -4.498102e+05  -6.512436e+05
   3.102887e+05  -6.855349e+05
   8.063606e+05  -1.098994e+05
   4.765759e+05   4.476550e+05
  -4.789738e+05   4.551642e+05
  -1.150207e+06  -5.196708e+04
  -8.142174e+05  -6.073260e+05
   2.681534e+05  -7.668161e+05
   1.092214e+06  -4.367896e+05
   9.506681e+05   9.495160e+04
   1.313698e+05   3.891845e+05
  -4.508520e+05   2.207382e+05
  -2.306022e+05  -1.809447e+05
   4.643497e+05  -2.973734e+05
   8.078229e+05   1.610638e+05
   3.437727e+05   8.737636e+05
  -5.616542e+05   1.126815e+06
  -1.107749e+06   5.062993e+05
  -8.498372e+05  -6.039024e+05
  -7.470945e+04  -1.285257e+06
   5.634769e+05  -9.405273e+05
   6.689448e+05   9.087969e+04
   3.347201e+05   8.477861e+05
  -1.044159e+05   7.289086e+05
  -3.766825e+05   8.001915e+04
  -3.758605e+05  -2.975860e+05
  -1.750910e+05  -1.276715e+05
  -1.347903e+04   8.816839e+04
  -9.858213e+04  -1.636636e+05
  -2.979054e+05  -6.733110e+05
  -1.815647e+05  -7.867155e+05
   4.259007e+05  -2.797469e+05
   1.039672e+06   3.738007e+05
   9.528881e+05   6.326837e+05
   1.206501e+05   4.827606e+05
  -6.775036e+05   2.578850e+05
  -7.252772e+05   1.223498e+05
  -2.016234e+05  -5.274371e+03
   1.338740e+05  -1.457511e+05
  -4.090736e+04  -1.871641e+05
  -2.600493e+05  -1.244627e+05
   2.593964e+02  -9.771784e+04
   5.559852e+05  -1.066609e+05
   7.227868e+05   6.713207e+04
   1.646553e+05   4.784450e+05
  -7.032537e+05   7.437108e+05
  -1.161439e+06   4.171720e+05
  -8.739893e+05  -3.896428e+05
  -1.107820e+05  -1.007634e+06
   5.642869e+05  -9.132451e+05
   7.496862e+05  -2.870415e+05
   4.591915e+05   2.307501e+05
   4.761884e+04   2.522136e+05
  -1.148836e+05  -6.799776e+03
   3.679604e+04  -6.300773e+04
   2.352584e+05   2.483088e+05
   1.751718e+05   5.778106e+05
  -1.646454e+05   4.521931e+05
  -4.839979e+05  -1.619303e+05
  -4.343360e+05  -7.405660e+05
   3.843591e+04  -7.126916e+05
   5.757156e+05  -7.163434e+04
   6.694004e+05   6.074928e+05
   1.560051e+05   7.689545e+05
  -5.327447e+05   3.936468e+05
  -7.437233e+05  -1.125429e+05
  -3.122497e+05  -3.970073e+05
   2.166037e+05  -3.995836e+05
   2.198161e+05  -2.326719e+05
  -2.352725e+05  -4.576784e+04
  -4.727386e+05  -8.865362e+03
  -6.973466e+04  -2.071029e+05
   6.047279e+05  -4.534913e+05
   8.515080e+05  -3.838609e+05
   4.672262e+05   9.743566e+04
  -1.042109e+05   5.793014e+05
  -3.610934e+05   5.569257e+05
  -2.367613e+05   5.582973e+04
   1.672420e+04  -3.614468e+05
   1.936521e+05  -2.601292e+05
   2.401187e+05   1.737781e+05
   1.464485e+05   4.156988e+05
  -6.479063e+04   2.437786e+05
  -2.676537e+05  -7.134480e+04
  -3.053249e+05  -1.735117e+05
  -1.682998e+05  -4.113500e+04
  -7.133416e+03   5.936968e+04
   6.260504e+04  -5.932611e+04
   8.769682e+04  -2.785999e+05
   1.641824e+05  -3.116746e+05
   2.598492e+05  -3.338323e+04
   2.247030e+05   3.457088e+05
  -1.787734e+04   4.608526e+05
  -3.251784e+05   1.734927e+05
  -4.129553e+05  -2.570904e+05
  -1.237945e+05  -4.324089e+05
   3.520637e+05  -2.286235e+05
   5.790538e+05   1.111225e+05
   3.032171e+05   2.836497e+05
  -2.183572e+05   2.256900e+05
  -4.370790e+05   8.279843e+04
  -1.306763e+05  -2.845923e+03
   3.040821e+05   1.683034e+04
   3.024171e+05   1.265777e+05
  -1.835211e+05   2.311826e+05
  -6.151181e+05   1.512891e+05
