
 $NMID
 id='ANONYMOUS ', fmtdat='(2E16.6)'
 volume=1.0
 tramp=1.0
 $END
   5.629467e+07  -1.772180e+06
   3.504144e+07   3.403780e+07
  -6.342015e+06   3.852280e+07
  -2.735238e+07   1.539046e+07
  -1.679281e+07  -6.750882e+06
   3.120453e+06  -9.501818e+06
   9.953707e+06   1.068308e+06
   2.982791e+06   9.805113e+06
  -6.093741e+06   9.474747e+06
  -9.659622e+06   2.183185e+06
  -7.119548e+06  -5.996711e+06
  -1.016867e+06  -8.511877e+06
   3.866870e+06  -2.845300e+06
   2.680730e+06   5.300360e+06
  -3.665229e+06   6.570625e+06
  -7.925448e+06  -1.168558e+06
  -4.691718e+06  -1.009185e+07
   3.476093e+06  -1.188695e+07
   9.911756e+06  -6.193550e+06
   1.083949e+07   1.683654e+06
   6.890017e+06   7.222312e+06
   1.050130e+06   8.641613e+06
  -2.716673e+06   6.252962e+06
  -1.920029e+06   2.841263e+06
   9.761874e+05   2.079995e+06
   3.170136e+05   4.019662e+06
  -5.155637e+06   4.427653e+06
  -9.474618e+06   7.511355e+05
  -7.087278e+06  -3.863040e+06
  -4.619540e+05  -4.961694e+06
   3.505852e+06  -2.636075e+06
   2.377519e+06  -1.644697e+05
  -5.461835e+05   7.899838e+05
  -2.121405e+06   4.556095e+05
  -2.105044e+06  -1.298264e+06
  -7.902361e+05  -3.766625e+06
   1.629200e+06  -3.873543e+06
   3.213285e+06  -9.248808e+04
   1.878197e+06   3.510775e+06
  -6.382289e+05   2.009915e+06
  -3.755936e+05  -2.322391e+06
   2.396373e+06  -2.302711e+06
   2.525682e+06   3.150155e+06
  -2.293300e+06   6.247570e+06
  -6.986812e+06   1.267688e+06
  -5.365984e+06  -6.775009e+06
   1.659823e+06  -8.616895e+06
   7.344073e+06  -2.637448e+06
   7.011960e+06   4.282894e+06
   1.930594e+06   5.984239e+06
  -3.431279e+06   2.748167e+06
  -5.260062e+06  -1.464357e+06
  -2.458551e+06  -3.467942e+06
   2.390312e+06  -2.262456e+06
   4.554783e+06   8.236839e+05
   2.013728e+06   2.689957e+06
  -1.684185e+06   1.416600e+06
  -1.742221e+06  -1.005115e+06
   1.358276e+06  -9.617680e+05
   2.578983e+06   1.745413e+06
  -5.284943e+05   3.557140e+06
  -4.632751e+06   2.081673e+06
  -5.382336e+06  -1.236013e+06
  -2.429436e+06  -3.939912e+06
   1.648734e+06  -5.266790e+06
   4.816875e+06  -4.895413e+06
   6.069319e+06  -1.889571e+06
   4.623947e+06   2.979253e+06
   1.090224e+06   6.080125e+06
  -1.777163e+06   4.786214e+06
  -1.795011e+06   1.234069e+06
  -2.011448e+05  -3.254968e+05
   9.561054e+04   8.785831e+05
  -1.462949e+06   1.770130e+06
  -2.704031e+06   3.247170e+05
  -2.004301e+06  -1.808461e+06
  -6.989407e+04  -2.060612e+06
   1.489115e+06  -1.979445e+05
   1.650479e+06   2.015967e+06
   5.117248e+04   2.879237e+06
  -2.678116e+06   1.695238e+06
  -4.442537e+06  -1.050019e+06
  -3.307098e+06  -3.631261e+06
  -1.003363e+05  -4.214878e+06
   2.190032e+06  -2.795245e+06
   2.219641e+06  -1.208004e+06
   1.839022e+06  -7.104650e+05
   2.929296e+06  -5.073902e+05
   4.332062e+06   7.029438e+05
   3.493767e+06   2.701470e+06
   1.771368e+05   4.088040e+06
  -3.119894e+06   3.895856e+06
  -4.078639e+06   2.155254e+06
  -2.617027e+06  -3.550258e+05
  -3.188162e+05  -2.176469e+06
   1.034688e+06  -1.921202e+06
   5.529043e+05   1.720075e+04
  -1.050727e+06   1.308377e+06
  -1.889027e+06   4.280319e+05
  -9.452084e+05  -1.175888e+06
   4.924736e+05  -1.101979e+06
   4.165345e+05   4.002695e+05
  -1.099289e+06   7.032994e+05
  -1.912733e+06  -1.312438e+06
  -6.675110e+05  -3.537153e+06
   1.633203e+06  -3.439005e+06
   3.188894e+06  -1.093920e+06
   3.300114e+06   1.467810e+06
   2.231941e+06   2.743039e+06
   4.434092e+05   2.572471e+06
  -1.208700e+06   1.454358e+06
  -1.550762e+06   2.443479e+05
  -4.894008e+05  -4.042260e+04
   3.633039e+05   7.450675e+05
  -3.985843e+05   1.351416e+06
  -1.904795e+06   6.078030e+05
  -2.049254e+06  -8.711021e+05
  -3.976149e+05  -1.422682e+06
   1.168310e+06  -5.774310e+05
   8.766745e+05   4.565873e+05
  -8.653481e+05   5.102006e+05
  -2.171520e+06  -3.397096e+05
  -1.711455e+06  -1.358223e+06
   2.641267e+05  -1.950044e+06
   2.288652e+06  -1.643301e+06
   2.754352e+06  -2.885484e+05
   1.229580e+06   1.254020e+06
  -8.965290e+05   1.520522e+06
  -1.563463e+06   2.182506e+05
  -2.253052e+05  -1.075920e+06
   1.503355e+06  -7.532832e+05
   1.720878e+06   7.717316e+05
   3.355194e+05   1.653629e+06
  -1.102348e+06   9.734914e+05
  -1.261820e+06  -3.235371e+05
  -2.400268e+05  -7.925271e+05
   8.049502e+05  -6.475765e+04
   7.499797e+05   1.042137e+06
  -5.528169e+05   1.424340e+06
  -1.988059e+06   5.656732e+05
  -2.038420e+06  -1.020115e+06
  -4.039921e+05  -2.064760e+06
   1.425099e+06  -1.653259e+06
   1.723851e+06  -2.192329e+05
   5.023252e+05   8.690655e+05
  -6.560014e+05   8.031827e+05
  -6.193343e+05   7.655389e+04
   1.343130e+05  -3.471039e+05
   4.839069e+05  -1.845066e+05
   9.014898e+04   7.654166e+04
  -4.768074e+05  -8.922861e+04
  -5.240467e+05  -6.903341e+05
   2.083819e+05  -1.195347e+06
   1.375929e+06  -9.021536e+05
   2.077318e+06   3.962625e+05
   1.477673e+06   1.921235e+06
  -1.952999e+05   2.405970e+06
  -1.599202e+06   1.403536e+06
  -1.673085e+06  -1.298319e+05
  -8.313501e+05  -8.828600e+05
  -2.959624e+05  -6.168711e+05
  -4.818295e+05  -1.842601e+05
  -6.508001e+05  -3.018374e+05
  -1.077363e+05  -7.708224e+05
   8.723633e+05  -9.033142e+05
   1.439290e+06  -3.215884e+05
   1.031911e+06   7.138648e+05
  -2.562275e+05   1.441234e+06
  -1.707838e+06   1.067137e+06
  -2.233930e+06  -4.688313e+05
  -1.136801e+06  -2.087712e+06
   9.993161e+05  -2.371442e+06
   2.538194e+06  -1.042422e+06
   2.344547e+06   6.579345e+05
   9.372487e+05   1.337280e+06
  -2.219094e+05   9.279566e+05
  -3.780286e+05   4.828055e+05
  -4.201206e+04   7.372035e+05
  -6.781322e+04   1.310083e+06
  -6.523307e+05   1.302771e+06
  -1.289740e+06   3.380855e+05
  -1.343607e+06  -1.056978e+06
  -5.736823e+05  -1.875612e+06
   6.016305e+05  -1.433387e+06
   1.278096e+06  -5.161783e+03
   8.186928e+05   1.279537e+06
  -3.884938e+05   1.400045e+06
  -1.176673e+06   4.055584e+05
  -8.277307e+05  -7.101672e+05
   1.228503e+05  -1.093642e+06
   5.500899e+05  -7.907656e+05
   9.453390e+04  -4.098056e+05
  -4.359440e+05  -3.221170e+05
  -6.527040e+04  -3.768640e+05
   1.149406e+06  -2.208474e+05
   2.067950e+06   3.095016e+05
   1.621967e+06   1.022930e+06
  -3.283783e+04   1.444995e+06
  -1.583631e+06   1.162819e+06
  -1.829637e+06   2.859719e+05
  -8.375131e+05  -5.056565e+05
   2.573795e+05  -5.813160e+05
   5.175552e+05  -3.288730e+04
   4.686030e+04   4.275875e+05
  -4.289209e+05   2.625218e+05
  -4.849379e+05  -3.328991e+05
  -2.743330e+05  -7.040963e+05
  -1.157466e+05  -4.675339e+05
  -1.384557e+05   8.354634e+04
  -2.678179e+05   2.741284e+05
  -2.738344e+05  -2.312314e+05
   1.236277e+05  -9.728278e+05
   8.813629e+05  -1.073445e+06
   1.367375e+06  -2.096827e+05
   8.780134e+05   8.901024e+05
  -3.925505e+05   1.154056e+06
  -1.251524e+06   3.726802e+05
  -7.369126e+05  -5.536803e+05
   6.970504e+05  -6.502852e+05
   1.575290e+06   9.235830e+04
   9.850718e+05   8.621012e+05
  -4.957865e+05   9.788704e+05
  -1.489306e+06   4.614584e+05
  -1.214597e+06  -1.983622e+05
  -1.264908e+05  -5.085137e+05
   6.487110e+05  -2.653361e+05
   3.943853e+05   2.924028e+05
  -5.615004e+05   5.341060e+05
  -1.174472e+06  -4.719438e+04
  -7.019613e+05  -1.149967e+06
   5.343546e+05  -1.703120e+06
   1.445522e+06  -9.149192e+05
   1.258126e+06   7.251527e+05
   2.284599e+05   1.771025e+06
  -7.215151e+05   1.282746e+06
  -9.212552e+05  -1.804856e+05
  -4.273885e+05  -1.185430e+06
   2.311387e+05  -9.587442e+05
   5.664851e+05  -8.288094e+04
   4.504110e+05   3.693977e+05
   1.442519e+05   1.331250e+05
   5.567189e+04  -9.130844e+04
   3.120149e+05   2.959033e+05
   5.309076e+05   9.561856e+05
   1.798166e+05   1.070062e+06
  -7.322434e+05   4.039511e+05
  -1.467340e+06  -4.418195e+05
  -1.260530e+06  -8.189046e+05
  -1.917925e+05  -6.968830e+05
   8.206434e+05  -4.268966e+05
   9.691067e+05  -1.856705e+05
   3.795244e+05   5.608574e+04
  -1.323730e+05   2.269389e+05
  -6.020936e+04   1.970615e+05
   2.344473e+05   8.040930e+04
   6.310911e+04   1.275608e+05
  -6.213909e+05   2.512110e+05
  -1.042765e+06   1.765632e+04
  -4.863263e+05  -6.764952e+05
   7.831291e+05  -1.199582e+06
   1.690682e+06  -8.110819e+05
   1.445110e+06   3.767753e+05
   3.130162e+05   1.385367e+06
  -7.408224e+05   1.395171e+06
  -1.029528e+06   5.776301e+05
  -6.492775e+05  -2.012573e+05
  -1.538140e+05  -3.517667e+05
   3.908273e+04  -8.069831e+04
  -9.399997e+04  -4.631574e+02
  -2.939148e+05  -3.714544e+05
  -2.504036e+05  -8.012629e+05
   1.559908e+05  -6.851014e+05
   6.704129e+05   8.473697e+04
   7.721386e+05   9.049721e+05
   1.750000e+05   1.020639e+06
  -7.185571e+05   2.919006e+05
  -1.052197e+06  -6.610714e+05
  -3.942613e+05  -1.073370e+06
   6.835610e+05  -7.140503e+05
   1.128606e+06   3.504825e+04
   5.654509e+05   6.148984e+05
  -2.662779e+05   7.109135e+05
  -3.934596e+05   3.864326e+05
   2.154313e+05  -3.394334e+03
   6.366270e+05  -5.847887e+04
   1.644701e+05   3.067871e+05
  -8.054613e+05   6.910475e+05
  -1.268511e+06   5.495729e+05
  -7.958060e+05  -1.763568e+05
   6.987328e+04  -8.784622e+05
   5.521848e+05  -8.816655e+05
   4.455680e+05  -1.981697e+05
   7.951085e+04   4.602405e+05
  -2.183984e+05   4.546597e+05
  -3.479200e+05  -1.105224e+05
  -2.719088e+05  -5.659150e+05
   2.982233e+04  -4.501706e+05
   3.893423e+05   2.183795e+04
   4.931652e+05   2.843448e+05
   2.467939e+05   1.067660e+05
  -5.553126e+04  -1.677919e+05
  -9.114651e+04  -8.567192e+04
   5.698012e+04   3.271955e+05
   2.499289e+04   5.703176e+05
  -2.854622e+05   2.742435e+05
  -4.981277e+05  -3.252438e+05
  -2.231186e+05  -6.275000e+05
   3.806661e+05  -3.360320e+05
   6.847712e+05   2.373578e+05
   2.815113e+05   5.494680e+05
  -5.025488e+05   3.834579e+05
  -8.952165e+05  -3.453650e+04
  -4.957549e+05  -3.600769e+05
   2.774529e+05  -4.282673e+05
   6.328966e+05  -2.730617e+05
   2.707741e+05  -3.366317e+04
  -3.066023e+05   9.654322e+04
  -3.895272e+05  -2.074760e+04
   1.354352e+05  -2.707874e+05
   6.878403e+05  -2.860738e+05
