
 $NMID
 id='ANONYMOUS ', fmtdat='(2E16.6)'
 volume=1.0
 tramp=1.0
 $END
   4.839803e+07   5.246375e+05
   2.924209e+07   2.954628e+07
  -6.027026e+06   3.254861e+07
  -2.364911e+07   1.322474e+07
  -1.458945e+07  -5.338849e+06
   2.504420e+06  -8.122441e+06
   8.667814e+06   5.576748e+05
   2.867003e+06   8.424683e+06
  -5.150620e+06   8.607449e+06
  -8.461908e+06   2.091755e+06
  -6.150119e+06  -5.526719e+06
  -6.181835e+05  -7.717740e+06
   3.595621e+06  -2.279356e+06
   2.329562e+06   5.142613e+06
  -3.312358e+06   6.082702e+06
  -6.939486e+06  -1.007340e+06
  -3.966880e+06  -8.930925e+06
   3.265797e+06  -1.034165e+07
   8.814798e+06  -5.055654e+06
   9.276412e+06   1.978352e+06
   5.434487e+06   6.513710e+06
   4.035605e+05   7.191869e+06
  -2.271965e+06   4.953226e+06
  -1.064979e+06   2.519462e+06
   1.248382e+06   2.479555e+06
  -4.853877e+04   4.096300e+06
  -5.277161e+06   3.761017e+06
  -8.822719e+06   2.211554e+04
  -6.114437e+06  -3.924978e+06
   1.694238e+05  -4.426595e+06
   3.647930e+06  -1.954294e+06
   2.147839e+06   4.200233e+05
  -1.056407e+06   1.088464e+06
  -2.575154e+06   2.496687e+05
  -2.002949e+06  -1.761902e+06
  -2.447189e+05  -3.778283e+06
   1.785378e+06  -3.250633e+06
   2.571658e+06   3.705159e+05
   1.146064e+06   3.146934e+06
  -6.734197e+05   1.308215e+06
  -2.988331e+04  -2.515094e+06
   2.337144e+06  -2.166349e+06
   2.229147e+06   2.757464e+06
  -1.891158e+06   5.349421e+06
  -5.734461e+06   9.613617e+05
  -4.326377e+06  -5.879663e+06
   1.574484e+06  -7.304729e+06
   6.453352e+06  -2.045056e+06
   6.264739e+06   3.994884e+06
   1.791932e+06   5.488965e+06
  -3.145067e+06   2.575574e+06
  -4.916615e+06  -1.285889e+06
  -2.379532e+06  -3.132771e+06
   2.041366e+06  -2.019915e+06
   4.017442e+06   7.466490e+05
   1.791478e+06   2.357931e+06
  -1.492477e+06   1.209984e+06
  -1.648829e+06  -9.235461e+05
   1.010467e+06  -9.772337e+05
   2.241837e+06   1.242620e+06
  -2.083729e+05   2.827181e+06
  -3.755523e+06   1.745813e+06
  -4.621210e+06  -9.821223e+05
  -2.109554e+06  -3.400677e+06
   1.730298e+06  -4.667250e+06
   4.749135e+06  -4.235180e+06
   5.652002e+06  -1.357530e+06
   3.942203e+06   3.000594e+06
   6.756313e+05   5.606204e+06
  -1.644338e+06   4.387746e+06
  -1.525365e+06   1.339830e+06
  -3.252894e+05   2.758030e+04
  -3.694416e+05   9.425266e+05
  -1.803762e+06   1.419532e+06
  -2.675030e+06  -1.347996e+05
  -1.735003e+06  -2.098224e+06
   2.262365e+05  -2.123839e+06
   1.660956e+06  -8.943977e+04
   1.600391e+06   2.152014e+06
  -1.291678e+05   2.818119e+06
  -2.657821e+06   1.384627e+06
  -4.014857e+06  -1.302812e+06
  -2.739590e+06  -3.468889e+06
   1.383789e+05  -3.694707e+06
   2.002509e+06  -2.321540e+06
   1.917421e+06  -1.027156e+06
   1.652154e+06  -7.045525e+05
   2.778180e+06  -4.877669e+05
   4.109985e+06   7.396323e+05
   3.277392e+06   2.666385e+06
   5.735344e+04   3.948403e+06
  -3.176052e+06   3.658203e+06
  -4.084582e+06   1.860632e+06
  -2.494693e+06  -5.676972e+05
  -8.985860e+04  -2.166956e+06
   1.181041e+06  -1.763063e+06
   5.216130e+05   8.568472e+04
  -1.103856e+06   1.207730e+06
  -1.806835e+06   3.305363e+05
  -8.051625e+05  -1.148310e+06
   5.595988e+05  -1.056688e+06
   4.751106e+05   3.805703e+05
  -9.436229e+05   7.727234e+05
  -1.787495e+06  -1.019901e+06
  -7.909046e+05  -3.213537e+06
   1.315565e+06  -3.388984e+06
   2.967916e+06  -1.300491e+06
   3.303598e+06   1.302891e+06
   2.297218e+06   2.759340e+06
   4.199720e+05   2.614028e+06
  -1.261277e+06   1.388559e+06
  -1.544057e+06   1.562456e+05
  -4.742769e+05  -5.567884e+04
   3.319970e+05   7.307672e+05
  -3.976013e+05   1.259572e+06
  -1.798342e+06   5.204461e+05
  -1.923447e+06  -8.488765e+05
  -3.707881e+05  -1.341161e+06
   1.132137e+06  -5.425969e+05
   8.879388e+05   4.595524e+05
  -8.120726e+05   5.528662e+05
  -2.164415e+06  -2.849758e+05
  -1.753392e+06  -1.361155e+06
   2.431452e+05  -1.971570e+06
   2.283375e+06  -1.597183e+06
   2.697394e+06  -2.172401e+05
   1.145473e+06   1.224321e+06
  -8.967422e+05   1.394337e+06
  -1.463911e+06   1.462345e+05
  -1.502463e+05  -1.019704e+06
   1.469912e+06  -6.706318e+05
   1.649396e+06   7.724096e+05
   3.293255e+05   1.605048e+06
  -1.050241e+06   9.645572e+05
  -1.227641e+06  -2.829047e+05
  -2.585260e+05  -7.506078e+05
   7.487198e+05  -4.704585e+04
   6.794336e+05   1.025507e+06
  -5.968711e+05   1.354265e+06
  -1.953068e+06   4.650557e+05
  -1.934656e+06  -1.065649e+06
  -3.252820e+05  -2.006521e+06
   1.413053e+06  -1.557220e+06
   1.669249e+06  -1.808701e+05
   4.833518e+05   8.452566e+05
  -6.477465e+05   7.738487e+05
  -6.361566e+05   5.394430e+04
   1.103571e+05  -3.890820e+05
   5.186776e+05  -2.269145e+05
   1.802691e+05   8.762584e+04
  -4.072619e+05  -2.248932e+04
  -5.125494e+05  -6.186678e+05
   1.922115e+05  -1.140258e+06
   1.345485e+06  -8.460016e+05
   2.004108e+06   4.399998e+05
   1.371651e+06   1.908617e+06
  -2.657354e+05   2.345478e+06
  -1.604341e+06   1.359017e+06
  -1.665631e+06  -1.419557e+05
  -8.500467e+05  -9.217441e+05
  -2.952465e+05  -7.082935e+05
  -4.140958e+05  -2.591223e+05
  -5.593967e+05  -2.940236e+05
  -6.950691e+04  -7.121173e+05
   8.551294e+05  -8.620735e+05
   1.420574e+06  -3.035925e+05
   1.029647e+06   7.352243e+05
  -2.599303e+05   1.445908e+06
  -1.698502e+06   1.024643e+06
  -2.180656e+06  -5.131794e+05
  -1.072477e+06  -2.054372e+06
   9.971874e+05  -2.270056e+06
   2.463125e+06  -9.688805e+05
   2.282930e+06   6.582863e+05
   9.446358e+05   1.323848e+06
  -2.010892e+05   9.571589e+05
  -4.243434e+05   5.188693e+05
  -1.459222e+05   7.132806e+05
  -1.503103e+05   1.224582e+06
  -6.641459e+05   1.208370e+06
  -1.240629e+06   2.741367e+05
  -1.261948e+06  -1.077644e+06
  -4.917505e+05  -1.847786e+06
   6.391021e+05  -1.376562e+06
   1.249185e+06   2.479902e+04
   7.695860e+05   1.246440e+06
  -3.832548e+05   1.344311e+06
  -1.109958e+06   4.019913e+05
  -7.738145e+05  -6.456672e+05
   1.064713e+05  -1.017625e+06
   4.969886e+05  -7.576685e+05
   7.800206e+04  -4.201244e+05
  -4.028857e+05  -3.421777e+05
  -4.395476e+04  -3.751551e+05
   1.103338e+06  -1.854659e+05
   1.971360e+06   3.556886e+05
   1.544461e+06   1.025599e+06
  -4.074709e+04   1.373795e+06
  -1.533329e+06   1.065602e+06
  -1.771971e+06   2.477053e+05
  -8.109247e+05  -4.659831e+05
   2.496209e+05  -5.321041e+05
   4.897099e+05  -3.612108e+04
   1.410337e+04   3.872235e+05
  -4.436066e+05   2.328870e+05
  -4.548743e+05  -3.415505e+05
  -2.054322e+05  -7.077504e+05
  -6.081662e+04  -4.635426e+05
  -1.406451e+05   1.039078e+05
  -2.980847e+05   2.930685e+05
  -2.664318e+05  -2.292970e+05
   1.709293e+05  -9.576460e+05
   8.920780e+05  -1.008867e+06
   1.294056e+06  -1.307927e+05
   7.797809e+05   8.997727e+05
  -4.225780e+05   1.074287e+06
  -1.206741e+06   2.821086e+05
  -6.937319e+05  -5.769777e+05
   6.899551e+05  -6.181204e+05
   1.548567e+06   1.185067e+05
   9.840636e+05   8.593710e+05
  -4.748664e+05   9.690567e+05
  -1.475109e+06   4.577969e+05
  -1.212482e+06  -2.018949e+05
  -1.278118e+05  -5.085180e+05
   6.356891e+05  -2.564334e+05
   3.615633e+05   2.862814e+05
  -5.850109e+05   4.834315e+05
  -1.141200e+06  -1.159665e+05
  -6.095709e+05  -1.162714e+06
   6.237599e+05  -1.629395e+06
   1.464235e+06  -8.159139e+05
   1.201505e+06   7.675963e+05
   1.558870e+05   1.747870e+06
  -7.497206e+05   1.250033e+06
  -9.009412e+05  -1.829066e+05
  -4.033894e+05  -1.169326e+06
   2.246786e+05  -9.474954e+05
   5.462258e+05  -7.560485e+04
   4.526296e+05   3.815897e+05
   1.640744e+05   1.429272e+05
   4.681533e+04  -9.549233e+04
   2.550860e+05   2.828796e+05
   4.710848e+05   9.460697e+05
   1.721422e+05   1.057899e+06
  -6.921534e+05   3.744968e+05
  -1.425653e+06  -4.841147e+05
  -1.235951e+06  -8.437933e+05
  -1.669304e+05  -6.815589e+05
   8.452029e+05  -3.864320e+05
   9.644045e+05  -1.583968e+05
   3.455337e+05   5.265050e+04
  -1.484104e+05   2.146565e+05
  -3.302916e+04   2.056369e+05
   2.614368e+05   1.046287e+05
   4.357827e+04   1.296189e+05
  -6.542091e+05   2.102951e+05
  -1.015597e+06  -3.299823e+04
  -3.984916e+05  -6.754424e+05
   8.446897e+05  -1.122150e+06
   1.660466e+06  -7.009342e+05
   1.355038e+06   4.450992e+05
   2.384307e+05   1.371954e+06
  -7.691385e+05   1.322222e+06
  -1.028224e+06   5.005846e+05
  -6.319134e+05  -2.410235e+05
  -1.216253e+05  -3.495106e+05
   7.158501e+04  -5.802302e+04
  -8.000334e+04   1.869261e+04
  -2.881822e+05  -3.634359e+05
  -2.269496e+05  -7.917865e+05
   1.866036e+05  -6.558693e+05
   6.587858e+05   1.321475e+05
   6.984701e+05   9.378070e+05
   9.273845e+04   1.001273e+06
  -7.345912e+05   2.247063e+05
  -9.909406e+05  -7.183379e+05
  -3.198039e+05  -1.063073e+06
   7.026100e+05  -6.453952e+05
   1.084750e+06   9.007835e+04
   5.078315e+05   6.016851e+05
  -2.875695e+05   6.536057e+05
  -3.733464e+05   3.535018e+05
   2.402578e+05   1.593892e+04
   6.319657e+05  -2.664763e+04
   1.377085e+05   3.008517e+05
  -8.144106e+05   6.462582e+05
  -1.234973e+06   5.067135e+05
  -7.397106e+05  -1.821952e+05
   1.070379e+05  -8.432233e+05
   5.496277e+05  -8.254528e+05
   4.143619e+05  -1.529489e+05
   4.344104e+04   4.653536e+05
  -2.380652e+05   4.190629e+05
  -3.376624e+05  -1.485708e+05
  -2.379336e+05  -5.649549e+05
   5.568429e+04  -4.142824e+05
   3.784510e+05   4.918094e+04
   4.598387e+05   2.797979e+05
   2.357371e+05   9.784027e+04
  -3.316629e+04  -1.456977e+05
  -8.363331e+04  -4.424632e+04
   5.550806e+03   3.401577e+05
  -5.286878e+04   5.302340e+05
  -3.085684e+05   2.076317e+05
  -4.382098e+05  -3.713673e+05
  -1.441589e+05  -6.277414e+05
   3.998476e+05  -2.991880e+05
   6.411656e+05   2.790417e+05
   2.381808e+05   5.596022e+05
  -4.988859e+05   3.489129e+05
  -8.569414e+05  -8.419666e+04
  -4.607512e+05  -3.734510e+05
   2.896650e+05  -3.861565e+05
   6.229740e+05  -2.147199e+05
   2.447879e+05  -1.638533e+04
  -3.336949e+05   6.040789e+04
  -3.919698e+05  -6.663105e+04
   1.674291e+05  -2.773664e+05
   7.235560e+05  -2.500932e+05
