
 $NMID
 id='ANONYMOUS ', fmtdat='(2E16.6)'
 volume=1.0
 tramp=1.0
 $END
   1.063033e+07  -1.460984e+05
   7.217542e+06   4.821362e+06
   1.572055e+05   6.719347e+06
  -4.506325e+06   4.634975e+06
  -3.908641e+06   5.994215e+05
  -3.207859e+05  -1.927687e+06
   2.170180e+06  -1.070458e+06
   1.730323e+06   1.679475e+06
  -4.150507e+05   3.027164e+06
  -1.995105e+06   1.408404e+06
  -1.785689e+06  -1.373136e+06
  -2.601620e+05  -2.285245e+06
   1.051031e+06  -4.819757e+05
   8.848957e+05   1.905218e+06
  -5.842766e+05   2.268131e+06
  -1.814623e+06   2.658778e+05
  -1.403851e+06  -2.095731e+06
   4.251391e+05  -2.707238e+06
   2.036763e+06  -1.312838e+06
   2.095703e+06   6.059464e+05
   8.800592e+05   1.497978e+06
  -1.621231e+05   1.152432e+06
  -1.096161e+04   5.998995e+05
   8.698371e+05   8.054753e+05
   1.052097e+06   1.590203e+06
  -2.736950e+05   1.905088e+06
  -2.236811e+06   1.079896e+06
  -2.984641e+06  -3.977255e+05
  -1.630276e+06  -1.388247e+06
   6.278431e+05  -1.206867e+06
   1.650110e+06  -1.542983e+05
   6.283838e+05   8.365579e+05
  -1.119548e+06   9.220679e+05
  -1.735741e+06  -4.236588e+04
  -8.288151e+05  -1.286904e+06
   4.041227e+05  -1.645313e+06
   7.655385e+05  -6.954939e+05
   2.601296e+05   5.950941e+05
  -2.708516e+05   7.833789e+05
  -2.194729e+05  -3.366637e+05
   3.168751e+05  -1.356687e+06
   8.164908e+05  -9.254689e+05
   7.835637e+05   5.335469e+05
   9.788691e+04   1.297725e+06
  -7.618374e+05   4.475603e+05
  -9.284224e+05  -1.056749e+06
   4.533052e+04  -1.561295e+06
   1.489126e+06  -5.587984e+05
   2.032550e+06   9.478755e+05
   9.793589e+05   1.646339e+06
  -8.383294e+05   1.123451e+06
  -1.809985e+06  -2.493461e+03
  -1.166659e+06  -7.847001e+05
   2.909222e+05  -7.173835e+05
   1.105282e+06  -5.698125e+04
   6.617460e+05   4.705965e+05
  -3.136491e+05   3.614279e+05
  -6.686681e+05  -1.916657e+05
  -8.450795e+04  -5.418667e+05
   6.479210e+05  -2.945085e+05
   5.680943e+05   2.959568e+05
  -3.431017e+05   6.089678e+05
  -1.094855e+06   2.456043e+05
  -7.477915e+05  -6.254995e+05
   5.535112e+05  -1.359064e+06
   1.715332e+06  -1.279765e+06
   1.825464e+06  -2.537197e+05
   1.006547e+06   1.075397e+06
   1.118259e+05   1.777829e+06
  -2.533283e+05   1.518691e+06
  -2.356122e+05   8.527625e+05
  -3.367698e+05   5.056814e+05
  -7.455585e+05   4.975200e+05
  -1.156358e+06   2.407195e+05
  -1.127495e+06  -5.205479e+05
  -5.138583e+05  -1.203869e+06
   3.782719e+05  -1.025085e+06
   9.606120e+05   1.757340e+04
   7.669838e+05   1.041137e+06
  -1.259219e+05   1.166141e+06
  -1.048485e+06   3.571004e+05
  -1.265557e+06  -6.486087e+05
  -6.687427e+05  -1.114742e+06
   1.248325e+05  -9.262136e+05
   4.601260e+05  -5.222139e+05
   3.652168e+05  -3.485379e+05
   4.362765e+05  -4.196406e+05
   9.983599e+05  -3.713406e+05
   1.568358e+06   1.112842e+05
   1.329173e+06   9.221172e+05
   1.144295e+05   1.554362e+06
  -1.248470e+06   1.494687e+06
  -1.690903e+06   6.765810e+05
  -9.634888e+05  -3.809627e+05
   1.384688e+05  -9.300250e+05
   6.059753e+05  -6.314407e+05
   1.900728e+05   9.721943e+04
  -4.823506e+05   4.643107e+05
  -6.647027e+05   1.309299e+05
  -2.397364e+05  -4.141339e+05
   2.723358e+05  -4.383583e+05
   3.160981e+05   1.169510e+05
  -1.643209e+05   5.071339e+05
  -7.067452e+05   6.412899e+04
  -7.399593e+05  -9.476364e+05
  -6.024157e+04  -1.542015e+06
   9.527872e+05  -1.058160e+06
   1.565946e+06   1.515970e+05
   1.279870e+06   1.113047e+06
   3.128705e+05   1.192299e+06
  -5.430719e+05   6.019989e+05
  -6.622912e+05   4.473844e+04
  -1.928042e+05  -1.539664e+04
   1.509348e+05   2.829804e+05
  -9.171537e+04   4.595112e+05
  -6.167407e+05   2.302683e+05
  -7.378047e+05  -2.202725e+05
  -2.165888e+05  -4.606844e+05
   4.183610e+05  -2.660580e+05
   4.384331e+05   1.544266e+05
  -2.573422e+05   3.576201e+05
  -9.743398e+05   8.154316e+04
  -9.208017e+05  -5.044767e+05
  -4.033854e+04  -9.228527e+05
   9.072262e+05  -7.884928e+05
   1.104152e+06  -1.692005e+05
   4.722620e+05   4.279600e+05
  -3.048251e+05   5.033348e+05
  -5.015507e+05   6.369299e+04
  -3.105114e+04  -3.625553e+05
   5.613641e+05  -2.783179e+05
   6.837470e+05   2.381419e+05
   2.402284e+05   6.270661e+05
  -3.360639e+05   4.851811e+05
  -5.196861e+05   7.607765e+03
  -1.894304e+05  -2.619562e+05
   2.520647e+05  -4.664195e+04
   2.700876e+05   3.868312e+05
  -2.375935e+05   5.404423e+05
  -7.856317e+05   1.920264e+05
  -7.815159e+05  -4.101734e+05
  -1.647068e+05  -7.878344e+05
   5.098729e+05  -6.495193e+05
   6.544459e+05  -1.346008e+05
   2.429073e+05   3.124862e+05
  -2.271846e+05   3.447190e+05
  -3.011138e+05   3.127948e+04
  -4.785817e+03  -2.386803e+05
   2.670013e+05  -1.883538e+05
   2.077706e+05   4.905487e+04
  -9.215095e+04   1.107371e+05
  -2.551621e+05  -1.451711e+05
  -1.035118e+04  -4.449816e+05
   5.012123e+05  -3.844956e+05
   8.157520e+05   1.272389e+05
   5.837610e+05   7.403488e+05
  -6.597051e+04   9.725332e+05
  -6.341522e+05   6.422729e+05
  -7.388230e+05   2.330462e+04
  -4.578763e+05  -4.121757e+05
  -1.678384e+05  -4.217955e+05
  -1.026443e+05  -1.875037e+05
  -1.426438e+05  -7.961063e+04
  -2.640566e+04  -2.298455e+05
   3.011874e+05  -3.809591e+05
   5.865839e+05  -1.990409e+05
   4.987217e+05   2.928543e+05
  -3.213414e+04   6.653856e+05
  -6.770206e+05   5.028937e+05
  -9.259787e+05  -1.511265e+05
  -5.179588e+05  -7.980859e+05
   2.941808e+05  -9.329674e+05
   9.287203e+05  -4.872823e+05
   9.720268e+05   1.486625e+05
   5.127653e+05   5.129680e+05
  -4.067036e+03   4.794829e+05
  -2.225193e+05   3.030932e+05
  -1.613013e+05   2.866776e+05
  -9.840144e+04   4.317890e+05
  -2.308882e+05   4.487962e+05
  -4.637183e+05   1.143075e+05
  -5.148739e+05  -4.244883e+05
  -2.225152e+05  -7.482882e+05
   2.469289e+05  -5.716536e+05
   5.157658e+05  -2.691381e+04
   3.542624e+05   4.586425e+05
  -7.685387e+04   5.458983e+05
  -3.776991e+05   2.467676e+05
  -3.146794e+05  -1.479214e+05
  -4.272692e+04  -3.565574e+05
   9.971389e+04  -3.260081e+05
  -1.306840e+04  -2.069175e+05
  -1.538088e+05  -1.526574e+05
  -1.361954e+04  -1.604600e+05
   4.141862e+05  -1.051573e+05
   7.639170e+05   9.355554e+04
   6.441999e+05   3.596609e+05
   6.040822e+04   5.158829e+05
  -5.413433e+05   4.390417e+05
  -6.917600e+05   1.709079e+05
  -3.557955e+05  -1.013989e+05
   6.442336e+04  -1.853970e+05
   1.778325e+05  -5.248145e+04
  -1.196446e+04   1.141249e+05
  -2.011521e+05   8.948319e+04
  -1.817835e+05  -1.337875e+05
  -4.061027e+04  -3.026620e+05
   1.916149e+04  -1.933856e+05
  -6.054350e+04   8.253837e+04
  -1.571651e+05   1.725492e+05
  -1.226040e+05  -8.250965e+04
   8.074870e+04  -4.126658e+05
   3.451072e+05  -4.147744e+05
   4.622235e+05  -3.493648e+04
   2.674634e+05   3.589650e+05
  -1.575751e+05   3.929847e+05
  -4.523116e+05   7.905555e+04
  -2.836347e+05  -2.429440e+05
   2.570802e+05  -2.740253e+05
   6.580251e+05  -8.677069e+03
   4.895199e+05   3.179619e+05
  -1.223918e+05   4.483609e+05
  -6.084518e+05   2.904315e+05
  -5.487245e+05  -1.985625e+04
  -8.997868e+04  -2.184568e+05
   2.486252e+05  -1.419391e+05
   1.340477e+05   9.453377e+04
  -2.592291e+05   1.802969e+05
  -4.648120e+05  -7.304704e+04
  -2.157348e+05  -4.910089e+05
   2.944001e+05  -6.566725e+05
   6.201830e+05  -3.166825e+05
   5.016595e+05   3.217371e+05
   7.938572e+04   7.315820e+05
  -2.929340e+05   5.557408e+05
  -3.841694e+05  -2.785862e+04
  -2.197457e+05  -4.717817e+05
   3.203420e+04  -4.204062e+05
   2.101769e+05  -5.866415e+04
   2.270762e+05   1.586854e+05
   1.082211e+05   6.817262e+04
   3.121011e+03  -5.167814e+04
   5.399444e+04   8.856772e+04
   1.867970e+05   3.740898e+05
   1.320720e+05   4.429192e+05
  -2.281425e+05   1.716606e+05
  -6.043260e+05  -1.825915e+05
  -5.666020e+05  -3.316542e+05
  -8.328014e+04  -2.703606e+05
   3.831030e+05  -1.670633e+05
   4.110682e+05  -9.290991e+04
   1.107593e+05  -4.795478e+03
  -7.389733e+04   8.680795e+04
   3.452901e+04   1.070493e+05
   1.580018e+05   6.532366e+04
   5.375377e+02   5.648543e+04
  -3.202171e+05   7.576391e+04
  -4.133762e+05  -1.953434e+04
  -9.895573e+04  -2.686924e+05
   3.856483e+05  -4.413936e+05
   6.469770e+05  -2.656272e+05
   5.026787e+05   2.019462e+05
   8.955689e+04   5.724217e+05
  -2.946097e+05   5.340634e+05
  -4.197235e+05   1.808427e+05
  -2.696001e+05  -1.214886e+05
  -3.180009e+04  -1.427745e+05
   7.117042e+04   2.915783e+03
  -1.659003e+04   4.033636e+04
  -1.432829e+05  -1.326028e+05
  -1.183157e+05  -3.237631e+05
   8.249478e+04  -2.613075e+05
   2.821849e+05   8.220766e+04
   2.656834e+05   4.141644e+05
  -8.163981e+03   4.078360e+05
  -3.304247e+05   5.235897e+04
  -3.976252e+05  -3.327263e+05
  -1.067101e+05  -4.342576e+05
   2.943160e+05  -2.353431e+05
   4.245768e+05   4.554930e+04
   1.851306e+05   2.145355e+05
  -1.129766e+05   2.287762e+05
  -1.146547e+05   1.365958e+05
   1.405183e+05   2.035425e+04
   2.710379e+05  -7.589904e+03
   4.362252e+04   1.154877e+05
  -3.317797e+05   2.758900e+05
  -4.695594e+05   2.451602e+05
  -2.632907e+05  -3.976104e+04
   4.412359e+04  -3.311329e+05
   1.864715e+05  -3.244594e+05
   1.293016e+05  -3.384790e+04
  -1.631026e+03   2.089560e+05
  -1.046194e+05   1.511632e+05
  -1.428416e+05  -9.660664e+04
  -9.429457e+04  -2.331282e+05
   3.221549e+04  -1.369978e+05
   1.547083e+05   3.520345e+04
   1.765823e+05   8.773771e+04
   9.639013e+04   1.608497e+04
   5.363550e+03  -3.110861e+04
  -3.241058e+04   4.255816e+04
  -4.769803e+04   1.652937e+05
  -9.458174e+04   1.792382e+05
  -1.516503e+05   1.884759e+04
  -1.329180e+05  -1.972751e+05
   5.092825e+03  -2.655014e+05
   1.832295e+05  -1.061245e+05
   2.400988e+05   1.387185e+05
   8.055641e+04   2.452675e+05
  -1.931697e+05   1.389967e+05
  -3.308482e+05  -4.999235e+04
  -1.792764e+05  -1.537195e+05
   1.189788e+05  -1.312993e+05
   2.465121e+05  -5.485230e+04
   7.125566e+04  -4.828532e+02
  -1.793522e+05  -3.726901e+03
  -1.787890e+05  -6.834164e+04
   1.015428e+05  -1.405796e+05
   3.529081e+05  -1.043114e+05
