
 $NMID
 id='ANONYMOUS ', fmtdat='(2E16.6)'
 volume=1.0
 tramp=1.0
 $END
  -4.036601e+07  -1.479342e+06
  -2.383793e+07  -2.438961e+07
   5.129178e+06  -2.656758e+07
   1.942759e+07  -1.125299e+07
   1.212444e+07   3.777221e+06
  -1.813985e+06   6.653145e+06
  -7.165655e+06  -1.226654e+04
  -2.733005e+06  -6.833895e+06
   3.949416e+06  -7.534961e+06
   7.031075e+06  -2.056847e+06
   5.254864e+06   4.776397e+06
   4.912818e+05   6.747456e+06
  -3.198426e+06   1.850323e+06
  -2.144940e+06  -4.692751e+06
   2.683939e+06  -5.460162e+06
   5.840627e+06   7.086646e+05
   3.394488e+06   7.536068e+06
  -2.755006e+06   8.734567e+06
  -7.503513e+06   4.128963e+06
  -7.757975e+06  -1.957948e+06
  -4.228328e+06  -5.660133e+06
   4.006754e+04  -5.836683e+06
   1.846886e+06  -3.746435e+06
   3.360393e+05  -2.023965e+06
  -1.561144e+06  -2.513320e+06
   1.080868e+05  -3.985928e+06
   5.015870e+06  -3.325468e+06
   7.980657e+06   2.296295e+05
   5.249199e+06   3.652490e+06
  -5.165730e+05   3.914750e+06
  -3.581756e+06   1.543643e+06
  -1.990238e+06  -7.632106e+05
   1.255066e+06  -1.386861e+06
   2.780568e+06  -2.913549e+05
   1.982117e+06   1.922620e+06
   1.056189e+04   3.661678e+06
  -1.767692e+06   2.724044e+06
  -2.066785e+06  -6.903642e+05
  -6.247247e+05  -2.792000e+06
   7.359650e+05  -7.643681e+05
  -6.937237e+04   2.573042e+06
  -2.086686e+06   2.036521e+06
  -1.935285e+06  -2.270938e+06
   1.422475e+06  -4.399939e+06
   4.514916e+06  -7.030247e+05
   3.420133e+06   4.897660e+06
  -1.343462e+06   5.989934e+06
  -5.458290e+06   1.620205e+06
  -5.487900e+06  -3.415241e+06
  -1.741069e+06  -4.758632e+06
   2.672822e+06  -2.389055e+06
   4.407470e+06   9.260287e+05
   2.261560e+06   2.617233e+06
  -1.627079e+06   1.753701e+06
  -3.416482e+06  -5.693570e+05
  -1.570350e+06  -1.944114e+06
   1.252867e+06  -1.022015e+06
   1.512117e+06   7.545667e+05
  -6.539850e+05   9.106124e+05
  -1.828254e+06  -7.717902e+05
  -2.170059e+04  -2.085119e+06
   2.891181e+06  -1.403383e+06
   3.799929e+06   6.799486e+05
   1.806397e+06   2.780906e+06
  -1.592882e+06   4.058011e+06
  -4.359841e+06   3.715225e+06
  -5.064011e+06   1.070815e+06
  -3.362077e+06  -2.794610e+06
  -5.001745e+05  -4.988614e+06
   1.331561e+06  -3.894649e+06
   1.161773e+06  -1.354822e+06
   3.263977e+05  -3.183812e+05
   6.273812e+05  -1.040056e+06
   1.947235e+06  -1.232360e+06
   2.593452e+06   3.417957e+05
   1.591623e+06   2.158173e+06
  -3.176114e+05   2.113653e+06
  -1.705203e+06   1.149339e+05
  -1.595452e+06  -2.061947e+06
   1.354399e+05  -2.651174e+06
   2.486028e+06  -1.197198e+06
   3.581442e+06   1.309770e+06
   2.297408e+06   3.135891e+06
  -2.354707e+05   3.157724e+06
  -1.737480e+06   1.899764e+06
  -1.576701e+06   8.654244e+05
  -1.390621e+06   6.979443e+05
  -2.489269e+06   5.420134e+05
  -3.751408e+06  -5.795678e+05
  -3.044934e+06  -2.379214e+06
  -1.198741e+05  -3.638672e+06
   2.911654e+06  -3.429086e+06
   3.823862e+06  -1.726622e+06
   2.328557e+06   5.983142e+05
   1.632397e+04   2.074356e+06
  -1.168522e+06   1.628703e+06
  -4.861781e+05  -1.123621e+05
   1.042515e+06  -1.125575e+06
   1.646651e+06  -3.073873e+05
   7.044682e+05   1.052349e+06
  -5.362833e+05   1.001363e+06
  -5.033993e+05  -3.111666e+05
   7.279367e+05  -7.906540e+05
   1.582968e+06   6.927585e+05
   9.169331e+05   2.733745e+06
  -8.662845e+05   3.154139e+06
  -2.537196e+06   1.465441e+06
  -3.141052e+06  -9.580108e+05
  -2.338813e+06  -2.493891e+06
  -5.052199e+05  -2.477366e+06
   1.175572e+06  -1.327684e+06
   1.459460e+06  -1.523621e+05
   4.413093e+05   4.491648e+04
  -3.206358e+05  -6.689212e+05
   3.342379e+05  -1.138102e+06
   1.610384e+06  -4.884477e+05
   1.755435e+06   7.204683e+05
   3.752780e+05   1.192970e+06
  -1.022265e+06   5.306623e+05
  -8.660170e+05  -3.922090e+05
   6.928062e+05  -5.779188e+05
   2.035498e+06   1.320237e+05
   1.743879e+06   1.196271e+06
  -1.201963e+05   1.879298e+06
  -2.083167e+06   1.573648e+06
  -2.503484e+06   2.645881e+05
  -1.068173e+06  -1.096134e+06
   8.059070e+05  -1.263240e+06
   1.314523e+06  -1.330860e+05
   1.229989e+05   9.276990e+05
  -1.345876e+06   6.324712e+05
  -1.537273e+06  -6.669101e+05
  -3.692522e+05  -1.463072e+06
   9.096082e+05  -9.397959e+05
   1.136785e+06   1.879604e+05
   2.830349e+05   6.615086e+05
  -6.657736e+05   5.490029e+04
  -6.324458e+05  -9.363979e+05
   5.457788e+05  -1.260456e+06
   1.812411e+06  -4.473962e+05
   1.804471e+06   9.686710e+05
   3.294639e+05   1.848316e+06
  -1.270148e+06   1.459297e+06
  -1.532203e+06   2.078776e+05
  -4.754978e+05  -7.608261e+05
   5.746426e+05  -7.357133e+05
   6.133488e+05  -6.680287e+04
  -6.064556e+04   3.970267e+05
  -4.948509e+05   2.746337e+05
  -2.408125e+05  -6.471079e+04
   3.214056e+05  -3.179217e+04
   4.884542e+05   5.099734e+05
  -1.283653e+05   1.039655e+06
  -1.217667e+06   8.113541e+05
  -1.863072e+06  -3.691471e+05
  -1.299544e+06  -1.746715e+06
   2.063702e+05  -2.191131e+06
   1.461741e+06  -1.321690e+06
   1.572210e+06   6.836846e+04
   8.634037e+05   8.541217e+05
   3.273042e+05   7.198710e+05
   3.673191e+05   2.923821e+05
   4.726557e+05   2.635632e+05
   5.870961e+04   6.325026e+05
  -7.618585e+05   8.174614e+05
  -1.313989e+06   3.336123e+05
  -1.005378e+06  -6.615852e+05
   1.810528e+05  -1.377517e+06
   1.554589e+06  -1.009512e+06
   2.047139e+06   4.266650e+05
   1.050496e+06   1.874527e+06
  -8.541543e+05   2.109713e+06
  -2.235940e+06   9.567866e+05
  -2.135696e+06  -5.285432e+05
  -9.525615e+05  -1.192888e+06
   1.252692e+05  -9.276762e+05
   4.025574e+05  -5.429194e+05
   1.846697e+05  -6.812583e+05
   1.620693e+05  -1.114476e+06
   5.974796e+05  -1.102436e+06
   1.132978e+06  -2.588737e+05
   1.182561e+06   9.883918e+05
   4.825513e+05   1.713777e+06
  -5.774605e+05   1.291795e+06
  -1.162607e+06   6.191130e+03
  -7.395987e+05  -1.124597e+06
   3.069189e+05  -1.242301e+06
   9.796778e+05  -4.135515e+05
   7.067140e+05   5.368319e+05
  -5.694838e+04   9.052160e+05
  -4.017128e+05   7.020087e+05
  -4.045132e+04   4.035248e+05
   3.749398e+05   3.249018e+05
   4.264440e+04   3.542105e+05
  -1.004309e+06   1.902498e+05
  -1.811975e+06  -2.975688e+05
  -1.445742e+06  -9.127269e+05
  -4.577941e+03  -1.245837e+06
   1.378218e+06  -9.933318e+05
   1.623475e+06  -2.750055e+05
   7.580910e+05   3.785292e+05
  -2.148668e+05   4.754348e+05
  -4.388448e+05   5.318703e+04
   6.861670e+02  -3.412405e+05
   4.236593e+05  -2.208682e+05
   4.238763e+05   3.131662e+05
   1.764882e+05   6.732721e+05
   3.784872e+04   4.415927e+05
   1.253978e+05  -1.193450e+05
   2.855910e+05  -3.090753e+05
   2.555154e+05   2.038533e+05
  -1.546693e+05   9.078005e+05
  -8.145611e+05   9.460467e+05
  -1.175051e+06   1.107523e+05
  -7.061422e+05  -8.380074e+05
   3.863483e+05  -9.791447e+05
   1.108917e+06  -2.463504e+05
   6.528844e+05   5.371500e+05
  -6.229007e+05   5.888863e+05
  -1.449682e+06  -6.541010e+04
  -9.645939e+05  -7.629735e+05
   3.900728e+05  -9.231260e+05
   1.359019e+06  -4.927490e+05
   1.150307e+06   1.380609e+05
   1.444338e+05   4.728998e+05
  -5.793917e+05   2.614717e+05
  -3.286583e+05  -2.551083e+05
   5.558099e+05  -4.498173e+05
   1.069369e+06   1.135202e+05
   5.626252e+05   1.094520e+06
  -5.924111e+05   1.527016e+06
  -1.374780e+06   7.670198e+05
  -1.133808e+06  -7.100846e+05
  -1.692318e+05  -1.636513e+06
   6.761078e+05  -1.193223e+06
   8.426504e+05   1.370384e+05
   4.125829e+05   1.076016e+06
  -1.660543e+05   8.932274e+05
  -4.977635e+05   8.685165e+04
  -4.476133e+05  -3.472110e+05
  -1.772778e+05  -1.303999e+05
  -3.254950e+04   9.339625e+04
  -2.094227e+05  -2.564325e+05
  -4.414766e+05  -8.739425e+05
  -2.023096e+05  -9.813014e+05
   6.116184e+05  -3.551275e+05
   1.342831e+06   4.298789e+05
   1.189484e+06   7.613742e+05
   1.672244e+05   6.280824e+05
  -8.041287e+05   3.778353e+05
  -9.030306e+05   1.723566e+05
  -3.025859e+05  -3.799223e+04
   1.440216e+05  -2.031590e+05
   4.720234e+02  -1.961389e+05
  -2.751826e+05  -9.894568e+04
  -3.320905e+04  -1.253390e+05
   6.382662e+05  -2.045380e+05
   9.482079e+05   2.682284e+04
   3.422825e+05   6.343074e+05
  -8.041285e+05   1.051215e+06
  -1.531578e+06   6.501111e+05
  -1.244567e+06  -4.245315e+05
  -2.303408e+05  -1.286111e+06
   6.989606e+05  -1.233005e+06
   9.596574e+05  -4.622091e+05
   6.012494e+05   2.304104e+05
   1.067223e+05   3.282409e+05
  -9.267184e+04   4.778598e+04
   6.067082e+04  -3.238428e+04
   2.822422e+05   3.245170e+05
   2.309513e+05   7.331246e+05
  -1.737339e+05   6.110163e+05
  -6.272621e+05  -1.310541e+05
  -6.535669e+05  -8.895650e+05
  -6.959670e+04  -9.407877e+05
   7.062979e+05  -1.995240e+05
   9.327588e+05   6.848548e+05
   2.936538e+05   9.937213e+05
  -6.595199e+05   5.938189e+05
  -1.004708e+06  -8.385625e+04
  -4.614079e+05  -5.452159e+05
   2.676354e+05  -5.913305e+05
   3.273846e+05  -3.222128e+05
  -2.487261e+05  -1.330119e+04
  -5.968032e+05   2.986997e+04
  -1.228558e+05  -2.779946e+05
   7.528619e+05  -6.150317e+05
   1.124213e+06  -4.958809e+05
   6.655519e+05   1.530819e+05
  -9.621369e+04   7.807874e+05
  -4.892146e+05   7.612896e+05
  -3.695039e+05   1.241251e+05
  -3.694546e+04  -4.470145e+05
   2.263092e+05  -3.835687e+05
   3.247256e+05   1.541131e+05
   2.250040e+05   5.271907e+05
  -5.928141e+04   3.717753e+05
  -3.561062e+05  -5.101585e+04
  -4.208421e+05  -2.458054e+05
  -2.167566e+05  -7.713159e+04
   1.740746e+04   1.240631e+05
   6.733401e+04   9.359730e+03
   1.401441e+04  -3.394664e+05
   8.979285e+04  -4.878909e+05
   3.108124e+05  -1.658637e+05
   3.951923e+05   3.748421e+05
   1.072193e+05   6.001630e+05
  -3.840234e+05   2.770173e+05
  -5.930923e+05  -2.722907e+05
  -2.203707e+05  -5.319682e+05
   4.580713e+05  -3.255945e+05
   7.928784e+05   8.370189e+04
   4.282068e+05   3.472616e+05
  -2.722691e+05   3.487784e+05
  -5.811324e+05   1.864217e+05
  -2.143696e+05   9.019007e+03
   3.381529e+05  -5.117070e+04
   3.828741e+05   7.766995e+04
  -1.669658e+05   2.798124e+05
  -7.029488e+05   2.493183e+05
