
 $NMID
 id='ANONYMOUS ', fmtdat='(2E16.6)'
 volume=1.0
 tramp=1.0
 $END
   4.740595e+07  -9.474685e+05
   2.933444e+07   2.802754e+07
  -5.014702e+06   3.192188e+07
  -2.259857e+07   1.354012e+07
  -1.423412e+07  -4.768830e+06
   2.220760e+06  -7.932240e+06
   8.367333e+06   2.933095e+05
   3.008932e+06   8.049983e+06
  -4.681914e+06   8.471740e+06
  -8.116582e+06   2.289852e+06
  -6.196835e+06  -5.174480e+06
  -9.016779e+05  -7.509433e+06
   3.447464e+06  -2.372248e+06
   2.513312e+06   4.900345e+06
  -2.960926e+06   6.013139e+06
  -6.765355e+06  -7.600039e+05
  -4.154925e+06  -8.565510e+06
   2.846678e+06  -1.018392e+07
   8.456730e+06  -5.225186e+06
   9.165829e+06   1.644520e+06
   5.540222e+06   6.249809e+06
   5.741755e+05   7.076557e+06
  -2.146878e+06   4.883585e+06
  -9.758830e+05   2.368346e+06
   1.389586e+06   2.268868e+06
   1.985980e+05   4.010630e+06
  -4.991509e+06   3.957757e+06
  -8.653819e+06   4.206114e+05
  -6.159537e+06  -3.610290e+06
  -1.445108e+04  -4.401017e+06
   3.517508e+06  -2.130229e+06
   2.195633e+06   3.037894e+05
  -8.955531e+05   1.175252e+06
  -2.487055e+06   4.573304e+05
  -2.103566e+06  -1.591634e+06
  -4.610270e+05  -3.718312e+06
   1.640227e+06  -3.281371e+06
   2.598709e+06   3.021054e+05
   1.246284e+06   3.104156e+06
  -6.876722e+05   1.331234e+06
  -2.067733e+05  -2.472578e+06
   2.163397e+06  -2.212353e+06
   2.249831e+06   2.603586e+06
  -1.693878e+06   5.237133e+06
  -5.579535e+06   1.052425e+06
  -4.392068e+06  -5.639660e+06
   1.335489e+06  -7.172628e+06
   6.245958e+06  -2.204199e+06
   6.245301e+06   3.647674e+06
   1.952196e+06   5.242992e+06
  -2.935825e+06   2.616866e+06
  -4.800400e+06  -1.038115e+06
  -2.415624e+06  -2.921872e+06
   1.913636e+06  -2.014388e+06
   3.926827e+06   5.920511e+05
   1.812508e+06   2.227630e+06
  -1.415467e+06   1.226197e+06
  -1.632042e+06  -8.209192e+05
   9.340723e+05  -9.429697e+05
   2.165534e+06   1.151086e+06
  -1.753090e+05   2.718630e+06
  -3.617446e+06   1.763077e+06
  -4.503127e+06  -8.284845e+05
  -2.146954e+06  -3.239985e+06
   1.510226e+06  -4.633455e+06
   4.462525e+06  -4.357212e+06
   5.481678e+06  -1.568675e+06
   3.995477e+06   2.790374e+06
   8.946500e+05   5.458010e+06
  -1.419347e+06   4.318130e+06
  -1.394614e+06   1.328939e+06
  -2.528390e+05   4.963770e+04
  -2.782384e+05   9.993872e+05
  -1.706470e+06   1.533399e+06
  -2.661983e+06   2.636342e+04
  -1.842605e+06  -1.963271e+06
   8.348381e+04  -2.105970e+06
   1.608934e+06  -2.061966e+05
   1.683281e+06   1.994262e+06
   2.366096e+04   2.757695e+06
  -2.540522e+06   1.487706e+06
  -4.000972e+06  -1.099334e+06
  -2.826769e+06  -3.296147e+06
   7.388473e+03  -3.630848e+06
   1.889405e+06  -2.337154e+06
   1.835452e+06  -1.054117e+06
   1.565086e+06  -7.397860e+05
   2.664418e+06  -5.969906e+05
   4.021122e+06   5.268131e+05
   3.309303e+06   2.433189e+06
   2.498173e+05   3.832258e+06
  -2.904564e+06   3.719238e+06
  -3.888702e+06   2.027081e+06
  -2.476316e+06  -4.252576e+05
  -2.101224e+05  -2.122937e+06
   1.064669e+06  -1.793959e+06
   5.200359e+05   5.706640e+04
  -1.014484e+06   1.237146e+06
  -1.744836e+06   4.068382e+05
  -8.398518e+05  -1.088227e+06
   4.881464e+05  -1.062257e+06
   4.738444e+05   3.335729e+05
  -8.646236e+05   7.697378e+05
  -1.739510e+06  -9.192798e+05
  -8.806691e+05  -3.052830e+06
   1.108271e+06  -3.294458e+06
   2.771597e+06  -1.372152e+06
   3.232954e+06   1.086475e+06
   2.365327e+06   2.529770e+06
   5.527947e+05   2.502862e+06
  -1.151324e+06   1.418596e+06
  -1.496058e+06   2.358287e+05
  -4.637435e+05  -3.013247e+04
   3.586450e+05   6.930490e+05
  -3.306020e+05   1.240587e+06
  -1.725747e+06   5.855904e+05
  -1.903640e+06  -7.367895e+05
  -4.181906e+05  -1.282156e+06
   1.070631e+06  -5.802595e+05
   8.819031e+05   3.941333e+05
  -7.495777e+05   5.673501e+05
  -2.096320e+06  -1.622187e+05
  -1.764366e+06  -1.213300e+06
   1.264903e+05  -1.912113e+06
   2.125928e+06  -1.665066e+06
   2.605434e+06  -3.480825e+05
   1.169928e+06   1.134722e+06
  -8.105561e+05   1.398897e+06
  -1.420332e+06   2.068629e+05
  -1.938263e+05  -9.901424e+05
   1.397128e+06  -7.241286e+05
   1.636437e+06   6.683262e+05
   3.965958e+05   1.534592e+06
  -9.655506e+05   9.796652e+05
  -1.195284e+06  -2.141770e+05
  -2.826204e+05  -7.095196e+05
   7.251250e+05  -7.758622e+04
   7.109949e+05   9.650383e+05
  -5.127054e+05   1.348779e+06
  -1.877296e+06   5.520259e+05
  -1.935662e+06  -9.393558e+05
  -4.154739e+05  -1.933926e+06
   1.295989e+06  -1.580703e+06
   1.609728e+06  -2.569764e+05
   5.089155e+05   7.939693e+05
  -5.887168e+05   7.816137e+05
  -6.141448e+05   8.964510e+04
   7.999367e+04  -3.762246e+05
   4.805798e+05  -2.506935e+05
   1.770358e+05   6.045276e+04
  -3.865446e+05  -1.322761e+04
  -5.171781e+05  -5.741970e+05
   1.335933e+05  -1.110519e+06
   1.263294e+06  -8.861378e+05
   1.967693e+06   3.270202e+05
   1.428397e+06   1.785807e+06
  -1.375654e+05   2.291564e+06
  -1.482599e+06   1.400311e+06
  -1.617613e+06  -4.850907e+04
  -8.752279e+05  -8.398762e+05
  -3.371185e+05  -6.645577e+05
  -4.277634e+05  -2.356035e+05
  -5.579685e+05  -2.682915e+05
  -9.757792e+04  -6.917826e+05
   7.862864e+05  -8.768116e+05
   1.358436e+06  -3.669422e+05
   1.036651e+06   6.540350e+05
  -1.725576e+05   1.410003e+06
  -1.591553e+06   1.080249e+06
  -2.141364e+06  -3.850856e+05
  -1.142638e+06  -1.936856e+06
   8.567309e+05  -2.248261e+06
   2.340010e+06  -1.058413e+06
   2.241412e+06   5.226707e+05
   9.804491e+05   1.226689e+06
  -1.390856e+05   9.304060e+05
  -3.744761e+05   5.294212e+05
  -1.024225e+05   7.133691e+05
  -8.962680e+04   1.206182e+06
  -5.905585e+05   1.207444e+06
  -1.194680e+06   3.259096e+05
  -1.282214e+06  -9.845219e+05
  -5.724948e+05  -1.771101e+06
   5.505668e+05  -1.371029e+06
   1.212936e+06  -3.966155e+04
   8.064223e+05   1.170825e+06
  -3.067578e+05   1.319518e+06
  -1.052989e+06   4.373331e+05
  -7.736132e+05  -5.925830e+05
   6.063651e+04  -9.883598e+05
   4.462689e+05  -7.510512e+05
   5.181419e+04  -4.067952e+05
  -4.115751e+05  -3.130817e+05
  -6.305814e+04  -3.631334e+05
   1.062325e+06  -2.323406e+05
   1.932806e+06   2.509281e+05
   1.549183e+06   9.191587e+05
   2.357771e+04   1.332241e+06
  -1.439988e+06   1.106690e+06
  -1.705356e+06   3.265791e+05
  -8.026433e+05  -4.119788e+05
   2.203607e+05  -5.276684e+05
   4.713288e+05  -5.667369e+04
   2.932313e+04   3.796070e+05
  -4.197897e+05   2.519356e+05
  -4.598516e+05  -3.096753e+05
  -2.393599e+05  -6.827219e+05
  -8.497964e+04  -4.528630e+05
  -1.269570e+05   1.074026e+05
  -2.679521e+05   3.028585e+05
  -2.694363e+05  -2.082472e+05
   1.142500e+05  -9.414455e+05
   8.166361e+05  -1.025758e+06
   1.257100e+06  -1.872311e+05
   8.061290e+05   8.416077e+05
  -3.615677e+05   1.067306e+06
  -1.165462e+06   3.334449e+05
  -7.058051e+05  -5.256101e+05
   6.381575e+05  -6.337535e+05
   1.506259e+06   3.459001e+04
   9.955894e+05   7.770992e+05
  -4.087821e+05   9.580141e+05
  -1.400520e+06   5.188959e+05
  -1.181878e+06  -1.301160e+05
  -1.505807e+05  -4.838321e+05
   6.017754e+05  -2.799333e+05
   3.646619e+05   2.622831e+05
  -5.457726e+05   5.035599e+05
  -1.119733e+06  -5.335837e+04
  -6.561712e+05  -1.103551e+06
   5.228893e+05  -1.622912e+06
   1.384368e+06  -8.726716e+05
   1.209654e+06   6.837829e+05
   2.432593e+05   1.691006e+06
  -6.607529e+05   1.252445e+06
  -8.806345e+05  -1.313383e+05
  -4.504711e+05  -1.111475e+06
   1.680851e+05  -9.261076e+05
   5.251106e+05  -9.940296e+04
   4.591922e+05   3.432984e+05
   1.668299e+05   1.257458e+05
   3.976427e+04  -9.316683e+04
   2.615154e+05   2.686913e+05
   5.061214e+05   8.976605e+05
   2.212691e+05   1.013649e+06
  -6.541440e+05   3.935053e+05
  -1.410267e+06  -3.958102e+05
  -1.243080e+06  -7.511852e+05
  -1.962194e+05  -6.533950e+05
   8.005341e+05  -4.236261e+05
   9.268723e+05  -2.048726e+05
   3.371089e+05   3.769426e+04
  -1.330711e+05   2.181077e+05
  -2.056093e+04   1.957520e+05
   2.607177e+05   8.190434e+04
   5.006881e+04   1.257248e+05
  -6.253549e+05   2.446643e+05
  -9.910027e+05   2.026290e+04
  -4.239864e+05  -6.442925e+05
   7.649539e+05  -1.140920e+06
   1.583501e+06  -7.650460e+05
   1.345832e+06   3.684394e+05
   3.043867e+05   1.323644e+06
  -6.818387e+05   1.324691e+06
  -9.777047e+05   5.410036e+05
  -6.297174e+05  -1.999972e+05
  -1.369974e+05  -3.359321e+05
   6.828375e+04  -6.572120e+04
  -7.378598e+04   1.945244e+04
  -2.966424e+05  -3.365745e+05
  -2.609292e+05  -7.561552e+05
   1.483621e+05  -6.489639e+05
   6.507991e+05   9.228608e+04
   7.323419e+05   8.780358e+05
   1.432507e+05   9.750399e+05
  -7.068802e+05   2.612650e+05
  -1.006219e+06  -6.476745e+05
  -3.668640e+05  -1.020978e+06
   6.535720e+05  -6.661730e+05
   1.062111e+06   3.355485e+04
   5.225755e+05   5.630082e+05
  -2.506345e+05   6.517840e+05
  -3.472967e+05   3.593785e+05
   2.348440e+05  -2.039824e+03
   6.137192e+05  -6.005348e+04
   1.491331e+05   2.873995e+05
  -7.581396e+05   6.705484e+05
  -1.172886e+06   5.517367e+05
  -7.268235e+05  -1.446986e+05
   6.220788e+04  -8.267884e+05
   4.951286e+05  -8.279874e+05
   3.999535e+05  -1.667090e+05
   6.900373e+04   4.522783e+05
  -2.121260e+05   4.216562e+05
  -3.401804e+05  -1.254955e+05
  -2.610755e+05  -5.379074e+05
   3.613930e+04  -4.082395e+05
   3.726015e+05   2.786176e+04
   4.594308e+05   2.507807e+05
   2.318386e+05   8.385989e+04
  -3.724317e+04  -1.431505e+05
  -7.698048e+04  -4.093621e+04
   2.750659e+04   3.355375e+05
  -2.592045e+04   5.282178e+05
  -2.961846e+05   2.230216e+05
  -4.522814e+05  -3.425583e+05
  -1.757774e+05  -6.104529e+05
   3.749345e+05  -3.145792e+05
   6.419581e+05   2.401983e+05
   2.630921e+05   5.337582e+05
  -4.683693e+05   3.642705e+05
  -8.408488e+05  -3.942370e+04
  -4.681630e+05  -3.407285e+05
   2.649876e+05  -3.917506e+05
   5.992649e+05  -2.412980e+05
   2.390641e+05  -2.555635e+04
  -3.234713e+05   8.173313e+04
  -3.889590e+05  -4.123185e+04
   1.445534e+05  -2.814280e+05
   6.893063e+05  -2.870593e+05
