
 $NMID
 id='ANONYMOUS ', fmtdat='(2E16.6)'
 volume=1.0
 tramp=1.0
 $END
  -5.209252e+07  -1.167882e+05
  -3.126368e+07  -3.220009e+07
   6.878766e+06  -3.516773e+07
   2.545452e+07  -1.359463e+07
   1.523071e+07   6.369044e+06
  -3.011969e+06   8.609266e+06
  -9.076324e+06  -1.054029e+06
  -2.627386e+06  -8.999078e+06
   5.669216e+06  -8.691153e+06
   8.914225e+06  -1.901788e+06
   6.492647e+06   5.751156e+06
   7.625543e+05   7.999387e+06
  -3.718229e+06   2.536204e+06
  -2.472846e+06  -5.086174e+06
   3.460850e+06  -6.114637e+06
   7.287422e+06   1.209512e+06
   4.130700e+06   9.444629e+06
  -3.489258e+06   1.092814e+07
  -9.360224e+06   5.460473e+06
  -1.000332e+07  -1.929331e+06
  -6.091441e+06  -6.951438e+06
  -5.961039e+05  -7.977946e+06
   2.682148e+06  -5.546998e+06
   1.632368e+06  -2.479074e+06
  -1.106853e+06  -2.053951e+06
  -2.377938e+05  -3.945697e+06
   5.078724e+06  -4.107673e+06
   9.029554e+06  -4.438420e+05
   6.548358e+06   3.862350e+06
   1.877637e+05   4.718979e+06
  -3.517207e+06   2.378131e+06
  -2.323560e+06  -4.251758e+04
   6.115606e+05  -9.471271e+05
   2.204797e+06  -4.775022e+05
   2.086576e+06   1.387449e+06
   6.245880e+05   3.715577e+06
  -1.702333e+06   3.572495e+06
  -2.981133e+06  -1.493522e+05
  -1.539329e+06  -3.387834e+06
   7.436923e+05  -1.731895e+06
   3.108209e+05   2.347951e+06
  -2.291709e+06   2.172903e+06
  -2.280706e+06  -2.945525e+06
   2.211504e+06  -5.665283e+06
   6.382073e+06  -9.318445e+05
   4.713354e+06   6.397462e+06
  -1.761067e+06   7.872115e+06
  -6.877045e+06   2.232950e+06
  -6.478009e+06  -4.119322e+06
  -1.755597e+06  -5.607095e+06
   3.221219e+06  -2.552873e+06
   4.919113e+06   1.382555e+06
   2.293665e+06   3.226011e+06
  -2.220873e+06   2.047529e+06
  -4.200732e+06  -8.398015e+05
  -1.820269e+06  -2.511155e+06
   1.588797e+06  -1.272254e+06
   1.634522e+06   9.461485e+05
  -1.190648e+06   8.693097e+05
  -2.289237e+06  -1.573170e+06
   5.287366e+05  -3.138434e+06
   4.235127e+06  -1.760057e+06
   4.897338e+06   1.220747e+06
   2.158573e+06   3.664973e+06
  -1.685328e+06   4.901276e+06
  -4.693991e+06   4.519651e+06
  -5.787538e+06   1.615818e+06
  -4.257813e+06  -2.963657e+06
  -8.730936e+05  -5.764010e+06
   1.709805e+06  -4.459420e+06
   1.613659e+06  -1.175102e+06
   1.640956e+05   1.829316e+05
   2.731931e+04  -9.499698e+05
   1.558930e+06  -1.669409e+06
   2.670740e+06  -1.884765e+05
   1.910589e+06   1.858071e+06
   5.746664e+03   2.051247e+06
  -1.498241e+06   2.008553e+05
  -1.607757e+06  -1.972062e+06
  -3.492998e+03  -2.777647e+06
   2.610794e+06  -1.548349e+06
   4.190244e+06   1.133959e+06
   2.997631e+06   3.521699e+06
  -4.582869e+04   3.934308e+06
  -2.117478e+06   2.519912e+06
  -2.066478e+06   1.062076e+06
  -1.705133e+06   6.560228e+05
  -2.765262e+06   4.713260e+05
  -4.101043e+06  -6.987841e+05
  -3.298294e+06  -2.598841e+06
  -1.350373e+05  -3.901376e+06
   3.028408e+06  -3.697923e+06
   3.955646e+06  -2.008574e+06
   2.517061e+06   4.091300e+05
   2.510248e+05   2.126375e+06
  -1.052952e+06   1.831027e+06
  -5.343121e+05  -3.889779e+04
   1.033895e+06  -1.242362e+06
   1.803290e+06  -3.786932e+05
   8.678551e+05   1.140141e+06
  -4.933217e+05   1.059738e+06
  -4.155867e+05  -3.639614e+05
   9.903396e+05  -6.723662e+05
   1.750053e+06   1.183798e+06
   6.380077e+05   3.268879e+06
  -1.459397e+06   3.233452e+06
  -2.946326e+06   1.088875e+06
  -3.144266e+06  -1.336490e+06
  -2.181296e+06  -2.608195e+06
  -4.434845e+05  -2.480988e+06
   1.177686e+06  -1.393613e+06
   1.500630e+06  -2.174686e+05
   4.681376e+05   4.289444e+04
  -3.414279e+05  -7.139080e+05
   3.905601e+05  -1.271465e+06
   1.808117e+06  -5.494726e+05
   1.929830e+06   8.392913e+05
   3.673410e+05   1.342839e+06
  -1.112554e+06   5.443692e+05
  -8.476458e+05  -4.306896e+05
   8.026384e+05  -4.973328e+05
   2.072251e+06   2.966225e+05
   1.663335e+06   1.284033e+06
  -2.300080e+05   1.874276e+06
  -2.191305e+06   1.576691e+06
  -2.636603e+06   2.631891e+05
  -1.157174e+06  -1.201856e+06
   8.739266e+05  -1.427138e+06
   1.482490e+06  -1.794702e+05
   1.903872e+05   1.028176e+06
  -1.442759e+06   7.017081e+05
  -1.634644e+06  -7.425440e+05
  -3.217090e+05  -1.570547e+06
   1.037029e+06  -9.283786e+05
   1.194424e+06   2.963981e+05
   2.329239e+05   7.424990e+05
  -7.583139e+05   5.141537e+04
  -7.021619e+05  -1.003098e+06
   5.471642e+05  -1.357462e+06
   1.911902e+06  -5.193502e+05
   1.939927e+06   9.981184e+05
   3.668541e+05   1.975493e+06
  -1.370613e+06   1.564498e+06
  -1.643115e+06   2.000232e+05
  -4.774530e+05  -8.267180e+05
   6.269227e+05  -7.644501e+05
   6.027266e+05  -7.417423e+04
  -1.113797e+05   3.414795e+05
  -4.649290e+05   1.992972e+05
  -1.155949e+05  -5.876360e+04
   4.246096e+05   7.614384e+04
   4.900283e+05   6.397323e+05
  -1.977510e+05   1.128482e+06
  -1.315443e+06   8.519765e+05
  -1.981753e+06  -3.931760e+05
  -1.396317e+06  -1.849407e+06
   2.036353e+05  -2.304512e+06
   1.534443e+06  -1.344646e+06
   1.605623e+06   1.183469e+05
   8.162394e+05   8.490544e+05
   3.053598e+05   6.167551e+05
   4.577745e+05   2.086158e+05
   5.977234e+05   3.004466e+05
   8.587890e+04   7.286408e+05
  -8.335404e+05   8.566952e+05
  -1.376224e+06   3.090675e+05
  -9.978663e+05  -6.845636e+05
   2.363716e+05  -1.386058e+06
   1.636272e+06  -1.020491e+06
   2.138437e+06   4.580857e+05
   1.078805e+06   1.997203e+06
  -9.614572e+05   2.250718e+06
  -2.419341e+06   9.805709e+05
  -2.234867e+06  -6.272922e+05
  -9.074115e+05  -1.270887e+06
   1.948716e+05  -8.960492e+05
   3.660468e+05  -4.851040e+05
   7.059919e+04  -7.202478e+05
   9.704814e+04  -1.247585e+06
   6.385669e+05  -1.228252e+06
   1.232511e+06  -3.045625e+05
   1.275567e+06   1.026536e+06
   5.332198e+05   1.802554e+06
  -5.893975e+05   1.369181e+06
  -1.222966e+06  -9.040537e+02
  -7.728678e+05  -1.221374e+06
   3.724203e+05  -1.327882e+06
   1.106807e+06  -3.829154e+05
   7.702699e+05   6.669383e+05
  -1.203300e+05   1.024126e+06
  -5.130069e+05   7.420740e+05
  -8.105560e+04   3.935166e+05
   4.143744e+05   3.183176e+05
   5.849345e+04   3.646193e+05
  -1.094128e+06   2.001710e+05
  -1.965785e+06  -3.152615e+05
  -1.540053e+06  -9.859362e+05
   3.789419e+04  -1.366570e+06
   1.514920e+06  -1.087433e+06
   1.743182e+06  -2.641102e+05
   7.911163e+05   4.727744e+05
  -2.501574e+05   5.432365e+05
  -4.873210e+05   3.058279e+04
  -3.036127e+04  -4.042067e+05
   4.196645e+05  -2.487559e+05
   4.601324e+05   3.243793e+05
   2.482077e+05   6.878113e+05
   9.717680e+04   4.570346e+05
   1.289641e+05  -8.747429e+04
   2.602994e+05  -2.760900e+05
   2.615935e+05   2.208248e+05
  -1.289705e+05   9.384754e+05
  -8.537321e+05   1.018388e+06
  -1.303581e+06   1.728157e+05
  -8.209092e+05  -8.695888e+05
   3.930041e+05  -1.091700e+06
   1.202062e+06  -3.304501e+05
   7.022126e+05   5.412837e+05
  -6.682792e+05   6.174800e+05
  -1.508589e+06  -9.090491e+04
  -9.496861e+05  -8.196206e+05
   4.646783e+05  -9.351925e+05
   1.421776e+06  -4.487039e+05
   1.166251e+06   1.835754e+05
   1.251013e+05   4.865937e+05
  -6.182452e+05   2.536728e+05
  -3.693272e+05  -2.823102e+05
   5.516386e+05  -5.055759e+05
   1.130144e+06   6.410040e+04
   6.561297e+05   1.119760e+06
  -5.416579e+05   1.632473e+06
  -1.404832e+06   8.615577e+05
  -1.202968e+06  -7.104801e+05
  -2.050951e+05  -1.704165e+06
   6.980219e+05  -1.230851e+06
   8.792209e+05   1.715705e+05
   4.076294e+05   1.133916e+06
  -2.155326e+05   9.164607e+05
  -5.381623e+05   7.721187e+04
  -4.374363e+05  -3.544262e+05
  -1.469640e+05  -1.257689e+05
  -4.935936e+04   8.746967e+04
  -2.819203e+05  -2.888423e+05
  -4.959793e+05  -9.220361e+05
  -1.750089e+05  -1.022934e+06
   6.934196e+05  -3.758922e+05
   1.406087e+06   4.344206e+05
   1.211953e+06   7.890217e+05
   1.783119e+05   6.673501e+05
  -7.992379e+05   4.077191e+05
  -9.320614e+05   1.756019e+05
  -3.536785e+05  -5.679907e+04
   1.325272e+05  -2.180101e+05
   4.675720e+04  -1.866859e+05
  -2.380067e+05  -7.748544e+04
  -5.600762e+04  -1.262881e+05
   6.118372e+05  -2.393456e+05
   1.001708e+06  -3.731461e+03
   4.448405e+05   6.621784e+05
  -7.761232e+05   1.144755e+06
  -1.628375e+06   7.508815e+05
  -1.375093e+06  -3.892037e+05
  -2.848902e+05  -1.336988e+06
   7.235857e+05  -1.326955e+06
   9.979925e+05  -5.378918e+05
   6.265848e+05   2.037516e+05
   1.399368e+05   3.418766e+05
  -5.089951e+04   7.723849e+04
   8.233297e+04  -3.129251e+03
   2.811229e+05   3.530213e+05
   2.367632e+05   7.685035e+05
  -1.596810e+05   6.553736e+05
  -6.492402e+05  -9.300110e+04
  -7.311929e+05  -8.866379e+05
  -1.466802e+05  -9.878379e+05
   7.048721e+05  -2.680447e+05
   1.006531e+06   6.556633e+05
   3.613629e+05   1.038116e+06
  -6.696610e+05   6.728224e+05
  -1.080318e+06  -5.075219e+04
  -5.268692e+05  -5.931627e+05
   2.679588e+05  -6.707940e+05
   3.751857e+05  -3.596447e+05
  -2.176435e+05   3.790015e+03
  -6.149391e+05   5.005677e+04
  -1.507530e+05  -2.965424e+05
   7.791375e+05  -6.566641e+05
   1.211275e+06  -5.164499e+05
   7.489916e+05   1.763572e+05
  -7.888874e+04   8.397439e+05
  -5.337707e+05   8.321947e+05
  -4.255279e+05   1.736822e+05
  -6.968838e+04  -4.493336e+05
   2.190839e+05  -4.308064e+05
   3.387342e+05   1.168662e+05
   2.543599e+05   5.471980e+05
  -4.013981e+04   4.263491e+05
  -3.756118e+05  -2.849986e+04
  -4.641723e+05  -2.744920e+05
  -2.324221e+05  -1.002459e+05
   4.352200e+04   1.583517e+05
   7.777754e+04   7.079219e+04
  -4.417783e+04  -3.271626e+05
   2.902079e+03  -5.500091e+05
   2.916060e+05  -2.497490e+05
   4.711471e+05   3.337533e+05
   1.949515e+05   6.156242e+05
  -3.755973e+05   3.176600e+05
  -6.535104e+05  -2.437630e+05
  -2.628408e+05  -5.364364e+05
   4.849941e+05  -3.602267e+05
   8.570911e+05   4.916028e+04
   4.701262e+05   3.527132e+05
  -2.749519e+05   4.025304e+05
  -6.134877e+05   2.470044e+05
  -2.551384e+05   2.399023e+04
   3.083581e+05  -8.921990e+04
   3.832908e+05   3.034217e+04
  -1.362361e+05   2.687183e+05
  -6.752312e+05   2.752501e+05
