
 $NMID
 id='ANONYMOUS ', fmtdat='(2E16.6)'
 volume=1.0
 tramp=1.0
 $END
   1.544408e+06  -2.163059e+06
   2.261503e+06  -3.080499e+05
   1.216406e+06   1.357716e+06
  -2.453043e+05   1.433486e+06
  -7.326105e+05   3.709675e+05
  -2.332134e+05  -4.406026e+05
   3.588849e+05  -3.520572e+05
   4.655945e+05   1.922119e+05
   1.703210e+05   5.235630e+05
  -2.164269e+05   4.211959e+05
  -4.398292e+05   6.347099e+04
  -3.305172e+05  -2.391149e+05
   4.288924e+04  -2.360753e+05
   3.059707e+05   6.083653e+04
   1.497079e+05   3.292813e+05
  -2.652098e+05   2.552153e+05
  -4.898705e+05  -1.105031e+05
  -3.182976e+05  -4.396134e+05
   5.863950e+04  -5.048531e+05
   3.586028e+05  -3.272752e+05
   4.497683e+05  -3.703538e+04
   3.359709e+05   2.176614e+05
   1.265068e+05   2.818171e+05
   1.488055e+04   1.310894e+05
   9.099596e+04  -1.434916e+04
   1.777587e+05   8.351600e+04
   4.166410e+04   3.336968e+05
  -2.463432e+05   3.977922e+05
  -3.724477e+05   1.472103e+05
  -2.142388e+05  -1.641496e+05
   1.222275e+04  -2.473075e+05
   8.638299e+04  -1.100975e+05
   3.596757e+04   4.736809e+04
  -2.677490e+04   9.895123e+04
  -9.234184e+04   4.153970e+04
  -1.457044e+05  -7.835629e+04
  -8.023324e+04  -1.628892e+05
   1.042847e+05  -1.052673e+05
   1.931996e+05   4.805253e+04
   5.303133e+04   9.389948e+04
  -1.090686e+05  -4.226348e+04
  -2.593962e+04  -1.433312e+05
   1.891508e+05   6.986959e+03
   1.683593e+05   2.692760e+05
  -1.579403e+05   2.982535e+05
  -4.177068e+05   1.100091e+04
  -2.866116e+05  -3.030860e+05
   1.008416e+05  -3.547875e+05
   3.520829e+05  -1.560036e+05
   2.736444e+05   8.633194e+04
   3.427079e+03   2.072460e+05
  -2.017694e+05   1.545457e+05
  -1.899261e+05  -2.364608e+04
   7.767785e+02  -1.750653e+05
   1.775571e+05  -1.462648e+05
   1.632759e+05   2.460402e+04
  -1.822003e+03   1.205485e+05
  -9.301128e+04   3.048145e+04
   7.601970e+03  -8.954497e+04
   1.476861e+05  -4.069945e+04
   1.199681e+05   1.366912e+05
  -5.667758e+04   2.344353e+05
  -1.958692e+05   1.543155e+05
  -2.070017e+05  -2.322577e+04
  -1.475654e+05  -1.930827e+05
  -5.657408e+04  -2.974674e+05
   8.809278e+04  -2.729714e+05
   2.350219e+05  -9.114329e+04
   2.513853e+05   1.288393e+05
   1.143002e+05   1.953586e+05
  -1.891521e+04   8.205906e+04
  -1.482211e+04  -2.797169e+04
   5.869413e+04   9.205419e+03
   4.928531e+04   1.159751e+05
  -5.806626e+04   1.314140e+05
  -1.353549e+05   3.497920e+04
  -9.043181e+04  -6.087341e+04
   3.486530e+04  -7.386744e+04
   1.300978e+05  -1.239296e+04
   1.151589e+05   8.113583e+04
  -1.103238e+04   1.540434e+05
  -1.632719e+05   1.395566e+05
  -2.237395e+05   2.054924e+04
  -1.535006e+05  -1.131866e+05
  -3.862828e+04  -1.514974e+05
   1.690128e+04  -1.042285e+05
   1.906711e+04  -7.986101e+04
   4.972311e+04  -1.220590e+05
   1.293018e+05  -1.465501e+05
   1.864318e+05  -6.434013e+04
   1.619626e+05   9.505576e+04
   7.515663e+04   2.159308e+05
  -2.121844e+04   2.122480e+05
  -8.903705e+04   9.318194e+04
  -9.858221e+04  -4.774006e+04
  -4.173546e+04  -9.731225e+04
   2.670219e+04  -2.196812e+04
   2.568849e+04   8.303423e+04
  -4.211824e+04   9.043578e+04
  -7.817189e+04  -4.640445e+02
  -2.660610e+04  -6.103042e+04
   3.540261e+04  -1.232790e+04
   4.935220e+03   6.389470e+04
  -9.552611e+04   4.489399e+04
  -1.458877e+05  -6.286263e+04
  -8.345268e+04  -1.464067e+05
   3.783255e+04  -1.408450e+05
   1.310755e+05  -8.043095e+04
   1.541701e+05  -1.404309e+04
   1.079823e+05   4.489771e+04
   2.434175e+04   7.971355e+04
  -3.284435e+04   6.297172e+04
  -1.493065e+04   1.485284e+04
   4.193112e+04   4.202403e+03
   4.595614e+04   5.387055e+04
  -2.796850e+04   9.496896e+04
  -9.530715e+04   5.785419e+04
  -7.395458e+04  -2.835160e+04
   5.777379e+03  -7.197431e+04
   4.699853e+04  -3.199697e+04
   9.839803e+03   4.396902e+04
  -5.788080e+04   7.999954e+04
  -9.275961e+04   3.876684e+04
  -7.165804e+04  -5.555389e+04
  -7.842170e+03  -1.296276e+05
   6.097562e+04  -1.124107e+05
   8.254837e+04  -1.032167e+04
   3.341197e+04   7.939165e+04
  -3.861925e+04   6.700586e+04
  -5.271522e+04  -2.349708e+04
   9.726214e+03  -8.273398e+04
   7.777930e+04  -4.777525e+04
   7.522611e+04   3.327346e+04
   7.934150e+03   7.328612e+04
  -5.097714e+04   4.374504e+04
  -4.527910e+04  -1.392625e+04
   1.264426e+04  -4.200650e+04
   6.171434e+04  -1.275196e+04
   4.932396e+04   5.276130e+04
  -2.129069e+04   9.290293e+04
  -8.917041e+04   5.596481e+04
  -9.064629e+04  -3.666960e+04
  -2.567965e+04  -9.829013e+04
   4.094051e+04  -7.050667e+04
   5.173679e+04   8.467388e+03
   1.506154e+04   5.312063e+04
  -1.848629e+04   3.145942e+04
  -1.981748e+04  -1.285497e+04
  -2.858151e+03  -2.796780e+04
   4.910909e+03  -9.566731e+03
  -8.131500e+03   1.093221e+04
  -3.166199e+04   5.075115e+03
  -3.872518e+04  -3.091874e+04
  -4.171477e+03  -7.063699e+04
   6.230174e+04  -7.038713e+04
   1.078323e+05  -1.112234e+04
   8.549295e+04   6.707174e+04
   1.179025e+04   9.666846e+04
  -4.787583e+04   5.874833e+04
  -5.380062e+04   4.946328e+03
  -2.878264e+04  -8.986092e+03
  -1.526406e+04   1.125835e+04
  -2.183594e+04   1.833590e+04
  -2.659253e+04  -9.943941e+03
  -1.287823e+04  -4.798611e+04
   1.632210e+04  -5.728116e+04
   4.472420e+04  -2.263243e+04
   4.707973e+04   3.928416e+04
   3.521058e+03   8.658344e+04
  -6.832645e+04   7.415493e+04
  -1.083677e+05  -4.501749e+03
  -6.999077e+04  -9.479923e+04
   2.027195e+04  -1.239159e+05
   8.422379e+04  -7.502367e+04
   7.739815e+04  -2.495732e+03
   3.193994e+04   3.325464e+04
   8.129596e+03   2.789632e+04
   2.393528e+04   1.998322e+04
   4.540908e+04   3.404766e+04
   3.275286e+04   5.590219e+04
  -1.824916e+04   5.679439e+04
  -7.296363e+04   2.501690e+04
  -8.590192e+04  -2.443943e+04
  -3.998119e+04  -5.918477e+04
   3.170709e+04  -5.099531e+04
   6.993772e+04  -2.066894e+03
   4.589656e+04   4.861261e+04
  -1.033423e+04   5.710075e+04
  -4.561047e+04   1.832057e+04
  -4.088300e+04  -2.816642e+04
  -2.118447e+04  -4.009901e+04
  -1.485390e+04  -1.590707e+04
  -1.977473e+04   6.894453e+03
  -1.320469e+04  -5.923160e+03
   1.688935e+04  -4.673261e+04
   5.656825e+04  -7.018714e+04
   7.681913e+04  -3.884923e+04
   5.805120e+04   3.309588e+04
   9.723997e+03   8.717454e+04
  -3.338384e+04   7.860058e+04
  -4.114273e+04   2.335433e+04
  -1.660221e+04  -2.138619e+04
   9.692938e+03  -2.082041e+04
   1.303849e+04   6.110497e+03
  -4.234943e+03   1.969450e+04
  -2.297470e+04   7.817155e+03
  -2.795785e+04  -8.591940e+03
  -1.694066e+04  -8.021588e+03
  -3.152233e+02   7.512216e+03
   4.232233e+03   1.833847e+04
  -1.180947e+04   7.222213e+03
  -3.082550e+04  -2.497822e+04
  -2.196521e+04  -5.547645e+04
   1.799475e+04  -5.396179e+04
   4.942845e+04  -1.231199e+04
   3.374280e+04   3.831450e+04
  -1.386205e+04   5.121376e+04
  -3.721461e+04   1.214684e+04
  -7.172304e+03  -4.157926e+04
   4.291103e+04  -5.650251e+04
   5.865408e+04  -1.620380e+04
   2.635339e+04   4.347229e+04
  -1.935132e+04   6.995750e+04
  -3.887768e+04   4.295780e+04
  -2.379086e+04  -8.206351e+03
   5.154442e+03  -3.316604e+04
   2.018922e+04  -9.687349e+03
   5.885188e+03   3.255209e+04
  -2.974433e+04   4.096719e+04
  -5.695211e+04  -3.085235e+03
  -4.580132e+04  -6.032508e+04
   4.309815e+03  -7.291638e+04
   5.735861e+04  -2.618331e+04
   6.942972e+04   3.626020e+04
   2.921376e+04   5.954648e+04
  -2.929010e+04   3.183731e+04
  -5.662779e+04  -1.200858e+04
  -3.420622e+04  -3.306480e+04
   8.517196e+03  -2.478304e+04
   2.695567e+04  -8.213178e+03
   1.169700e+04  -2.105756e+03
  -2.722615e+03  -5.540042e+03
   1.497031e+04  -6.262691e+03
   4.753756e+04   3.266473e+03
   4.775755e+04   2.074496e+04
   5.063700e+02   3.778092e+04
  -5.329535e+04   4.291699e+04
  -6.403818e+04   2.624074e+04
  -3.012655e+04  -9.000660e+03
   7.393392e+03  -3.993173e+04
   1.771634e+04  -4.109014e+04
   8.728709e+03  -1.385322e+04
   3.547951e+03   1.078054e+04
   8.189145e+03   8.661570e+03
   1.155650e+04  -5.884525e+03
   5.191288e+03  -1.077474e+02
  -8.909210e+03   2.760349e+04
  -2.410163e+04   3.814548e+04
  -3.173112e+04   1.805138e+03
  -2.132994e+04  -5.634144e+04
   9.688386e+03  -7.890117e+04
   4.467538e+04  -4.097974e+04
   5.639472e+04   2.289426e+04
   3.394489e+04   5.904615e+04
  -3.031926e+03   4.904042e+04
  -2.312054e+04   1.775431e+04
  -1.548843e+04  -2.071455e+03
   5.475747e+02  -1.499932e+03
  -9.494309e+02   5.500620e+03
  -2.215761e+04   3.276684e+03
  -3.747376e+04  -9.784995e+03
  -2.138092e+04  -2.217830e+04
   2.028414e+04  -2.112662e+04
   5.070209e+04  -3.970434e+03
   3.802071e+04   1.887722e+04
  -9.468138e+03   3.040635e+04
  -4.897060e+04   1.874895e+04
  -4.614862e+04  -1.189942e+04
  -8.554349e+03  -3.947328e+04
   2.672932e+04  -3.908187e+04
   3.391978e+04  -8.397816e+03
   2.005600e+04   2.343260e+04
   7.977945e+03   2.321128e+04
   8.343908e+03  -6.115803e+03
   1.379594e+04  -2.372184e+04
   1.372448e+04   9.408483e+02
   5.352422e+03   4.654621e+04
  -8.423965e+03   6.166368e+04
  -2.279413e+04   2.659478e+04
  -2.971262e+04  -2.305386e+04
  -2.090801e+04  -4.007842e+04
   6.793079e+02  -1.832910e+04
   1.677725e+04   9.698948e+03
   1.038385e+04   1.705286e+04
  -1.263367e+04   6.965021e+03
  -2.653169e+04  -4.054802e+03
  -1.462691e+04  -9.544594e+03
   1.036577e+04  -1.237591e+04
   2.142425e+04  -1.270350e+04
   9.751431e+03  -7.840394e+03
  -6.073280e+03   1.086860e+02
  -5.075734e+03   5.652191e+03
   9.555600e+03   7.954678e+03
   1.554496e+04   1.039759e+04
   7.278378e+02   1.202349e+04
  -2.042492e+04   6.390067e+03
  -2.304946e+04  -7.960308e+03
  -1.372122e+03  -2.043828e+04
   2.323280e+04  -1.693183e+04
   2.516054e+04   4.184091e+03
   2.547180e+03   2.681594e+04
  -2.133002e+04   3.016707e+04
  -2.430950e+04   9.024052e+03
  -8.556395e+03  -1.857249e+04
   5.297887e+03  -2.700317e+04
   3.518581e+03  -9.701826e+03
  -7.357145e+03   1.178634e+04
  -1.205218e+04   1.053018e+04
  -4.195724e+03  -1.381418e+04
   1.077305e+04  -3.208491e+04
