
 $NMID
 id='ANONYMOUS ', fmtdat='(2E16.6)'
 volume=1.0
 tramp=1.0
 $END
   1.267920e+07   2.658920e+06
   6.338015e+06   8.912389e+06
  -2.934238e+06   8.146946e+06
  -6.781368e+06   2.663651e+06
  -3.766785e+06  -1.747706e+06
   8.733865e+05  -2.056059e+06
   2.342471e+06   3.127236e+05
   5.864045e+05   2.348133e+06
  -1.657935e+06   2.290677e+06
  -2.390945e+06   3.346592e+05
  -1.425198e+06  -1.830604e+06
   2.334988e+05  -2.211754e+06
   1.131527e+06  -3.946835e+05
   4.120286e+05   1.680852e+06
  -1.181290e+06   1.659982e+06
  -1.853326e+06  -5.186675e+05
  -6.956537e+05  -2.603260e+06
   1.346571e+06  -2.657492e+06
   2.614270e+06  -9.043587e+05
   2.339110e+06   1.060312e+06
   9.963382e+05   2.009248e+06
  -3.317979e+05   1.793900e+06
  -7.246509e+05   1.066368e+06
  -1.395979e+05   6.960118e+05
   3.668315e+05   1.003025e+06
  -3.238594e+05   1.321662e+06
  -1.866580e+06   7.424626e+05
  -2.572839e+06  -5.945556e+05
  -1.454720e+06  -1.498027e+06
   4.372850e+05  -1.197560e+06
   1.270962e+06  -2.266542e+05
   5.624530e+05   4.183949e+05
  -5.783911e+05   3.807998e+05
  -9.845323e+05  -1.261874e+05
  -5.078828e+05  -8.082859e+05
   2.747684e+05  -1.200745e+06
   7.369550e+05  -7.435486e+05
   5.646818e+05   3.578878e+05
  -2.805345e+03   8.975148e+05
  -2.492708e+05   1.466843e+05
   2.290793e+05  -8.582315e+05
   8.175695e+05  -5.503882e+05
   5.141849e+05   8.318189e+05
  -6.547133e+05   1.346779e+06
  -1.435476e+06   1.830059e+04
  -8.212779e+05  -1.713973e+06
   7.261729e+05  -1.829246e+06
   1.823819e+06  -2.177191e+05
   1.595740e+06   1.417647e+06
   3.148255e+05   1.663067e+06
  -1.014552e+06   6.460183e+05
  -1.414320e+06  -5.473278e+05
  -6.184706e+05  -9.900703e+05
   6.104587e+05  -4.945892e+05
   1.076628e+06   3.600426e+05
   4.135585e+05   7.092501e+05
  -4.551269e+05   2.624644e+05
  -4.616304e+05  -3.353364e+05
   2.475825e+05  -2.934017e+05
   5.756627e+05   3.053953e+05
  -4.143196e+04   6.634041e+05
  -9.618779e+05   3.267947e+05
  -1.192064e+06  -3.894045e+05
  -4.471971e+05  -9.814233e+05
   7.561564e+05  -1.212920e+06
   1.652604e+06  -9.296001e+05
   1.703350e+06  -2.809102e+04
   8.994667e+05   1.107714e+06
  -1.454441e+05   1.645516e+06
  -6.525715e+05   1.207496e+06
  -4.606300e+05   4.146863e+05
  -1.669031e+05   1.103559e+05
  -3.237283e+05   2.848748e+05
  -7.409326e+05   2.389527e+05
  -8.199138e+05  -3.168606e+05
  -3.583337e+05  -8.358187e+05
   2.705169e+05  -6.792175e+05
   5.913709e+05   8.969283e+04
   3.964598e+05   8.053812e+05
  -2.230819e+05   8.694695e+05
  -8.911171e+05   2.231175e+05
  -1.072537e+06  -6.584163e+05
  -5.416792e+05  -1.148295e+06
   2.607871e+05  -9.890154e+05
   6.551238e+05  -5.047679e+05
   5.469471e+05  -1.996985e+05
   4.965430e+05  -1.621252e+05
   8.605330e+05  -3.698282e+04
   1.209692e+06   4.174912e+05
   8.641529e+05   9.758475e+05
  -1.873388e+05   1.216650e+06
  -1.186570e+06   9.523075e+05
  -1.380110e+06   3.182026e+05
  -7.236766e+05  -3.579823e+05
   1.439021e+05  -6.850793e+05
   4.985237e+05  -4.530213e+05
   1.495727e+05   7.220395e+04
  -4.202788e+05   3.025821e+05
  -5.614627e+05  -1.701576e+03
  -1.618670e+05  -3.871755e+05
   2.465306e+05  -2.961635e+05
   1.573981e+05   1.390374e+05
  -2.864326e+05   2.392799e+05
  -5.016899e+05  -2.977213e+05
  -1.737983e+05  -9.612939e+05
   4.575064e+05  -1.030764e+06
   9.442934e+05  -3.716851e+05
   1.014531e+06   5.053273e+05
   6.399589e+05   9.953876e+05
   1.113036e+04   8.712912e+05
  -4.803852e+05   3.658895e+05
  -4.960704e+05  -4.698954e+04
  -1.439693e+05  -4.299652e+04
   6.484728e+04   2.426383e+05
  -1.773657e+05   3.557093e+05
  -5.590857e+05   6.439830e+04
  -5.387894e+05  -3.420884e+05
  -5.585908e+04  -4.174298e+05
   3.729553e+05  -1.150099e+05
   2.690559e+05   1.877525e+05
  -2.686600e+05   1.597873e+05
  -6.833331e+05  -1.663085e+05
  -5.185463e+05  -5.166485e+05
   1.576131e+05  -6.313911e+05
   7.988140e+05  -3.982996e+05
   8.527536e+05   6.909423e+04
   2.873314e+05   4.285391e+05
  -3.422571e+05   3.654291e+05
  -4.385948e+05  -3.635568e+04
   1.904584e+04  -3.108489e+05
   4.855722e+05  -1.247825e+05
   4.716511e+05   3.163534e+05
   3.648071e+04   5.128835e+05
  -3.608311e+05   2.639098e+05
  -3.724243e+05  -1.283665e+05
  -5.906011e+04  -2.388191e+05
   2.221822e+05   2.063277e+04
   1.501720e+05   3.495781e+05
  -2.622240e+05   3.826393e+05
  -6.304089e+05   3.155841e+04
  -5.370639e+05  -4.368382e+05
   6.870948e+03  -6.346295e+05
   5.125504e+05  -4.063711e+05
   5.233553e+05   2.483366e+04
   1.132954e+05   2.833599e+05
  -2.373312e+05   2.108041e+05
  -2.113906e+05  -1.893380e+04
   4.619492e+04  -1.359150e+05
   1.906565e+05  -6.323942e+04
   8.467444e+04   4.441623e+04
  -1.092457e+05   1.683555e+03
  -1.374696e+05  -1.956920e+05
   1.029061e+05  -3.397714e+05
   4.556430e+05  -1.954783e+05
   5.972133e+05   2.398128e+05
   3.217577e+05   6.630092e+05
  -2.085268e+05   7.175203e+05
  -5.740002e+05   3.513090e+05
  -5.258098e+05  -1.217744e+05
  -2.375692e+05  -3.475091e+05
  -5.916803e+04  -2.720105e+05
  -9.451882e+04  -1.236853e+05
  -1.357211e+05  -1.113969e+05
   1.885477e+04  -2.095604e+05
   3.041570e+05  -2.264269e+05
   4.622164e+05  -3.051592e+04
   2.969692e+05   2.882591e+05
  -1.478806e+05   4.546846e+05
  -5.848274e+05   2.411711e+05
  -6.576217e+05  -2.722338e+05
  -2.347909e+05  -6.917998e+05
   4.130545e+05  -6.510602e+05
   8.037257e+05  -1.827122e+05
   6.835686e+05   3.076199e+05
   2.492591e+05   4.621019e+05
  -1.004697e+05   3.099635e+05
  -1.767465e+05   1.583834e+05
  -1.125911e+05   2.092421e+05
  -1.256479e+05   3.531271e+05
  -2.651272e+05   3.261379e+05
  -3.902502e+05   1.458424e+04
  -3.293420e+05  -4.040200e+05
  -5.082253e+04  -6.012171e+05
   2.751767e+05  -3.929469e+05
   3.887351e+05   7.110029e+04
   1.778273e+05   4.199254e+05
  -1.768570e+05   3.962541e+05
  -3.508077e+05   8.312694e+04
  -2.052126e+05  -2.159809e+05
   6.885449e+04  -2.968599e+05
   1.725126e+05  -2.131031e+05
   3.810745e+04  -1.360150e+05
  -1.021139e+05  -1.327054e+05
   9.473771e+03  -1.207700e+05
   3.448062e+05  -1.764421e+03
   5.821428e+05   2.109664e+05
   4.247154e+05   3.935581e+05
  -7.185290e+04   4.145613e+05
  -5.165457e+05   2.446970e+05
  -5.581677e+05  -7.658821e+03
  -2.331322e+05  -1.698376e+05
   9.811685e+04  -1.434830e+05
   1.494382e+05   7.126826e+03
  -2.157631e+04   1.093948e+05
  -1.562328e+05   4.455737e+04
  -1.204759e+05  -1.309649e+05
  -1.122826e+04  -2.340815e+05
   1.939968e+04  -1.473971e+05
  -5.150485e+04   3.420667e+04
  -1.199373e+05   8.621324e+04
  -7.315564e+04  -8.420556e+04
   1.121300e+05  -2.925848e+05
   3.308485e+05  -2.624774e+05
   3.920342e+05   3.776124e+04
   1.769555e+05   3.212950e+05
  -1.887564e+05   2.976602e+05
  -3.798539e+05   9.158114e+03
  -1.817019e+05  -2.213761e+05
   2.444325e+05  -1.578661e+05
   4.818249e+05   1.130197e+05
   2.786431e+05   3.178580e+05
  -1.869225e+05   2.884022e+05
  -4.887279e+05   8.248055e+04
  -3.798812e+05  -1.186392e+05
  -1.943945e+04  -1.690024e+05
   2.104115e+05  -5.237016e+04
   9.268374e+04   1.038812e+05
  -2.145040e+05   1.111735e+05
  -3.465964e+05  -1.089261e+05
  -1.127266e+05  -3.997463e+05
   2.983625e+05  -4.663543e+05
   5.073224e+05  -1.633393e+05
   3.309463e+05   3.106134e+05
  -4.976126e+04   5.566448e+05
  -3.032653e+05   3.563120e+05
  -2.743670e+05  -9.769544e+04
  -7.133756e+04  -3.864138e+05
   1.105199e+05  -2.910945e+05
   1.713899e+05   9.193889e+02
   1.289995e+05   1.465874e+05
   5.287278e+04   5.744323e+04
   1.633346e+04  -3.055108e+04
   5.062545e+04   9.455445e+04
   9.008134e+04   3.178719e+05
   7.339290e+03   3.427695e+05
  -2.232649e+05   8.211314e+04
  -4.204491e+05  -2.299698e+05
  -3.506883e+05  -3.321418e+05
  -1.620648e+04  -2.196597e+05
   2.947864e+05  -7.219658e+04
   3.137196e+05   1.903733e+02
   9.713749e+04   2.900331e+04
  -6.193102e+04   5.745933e+04
  -1.056905e+04   6.899271e+04
   8.756044e+04   5.472732e+04
   1.501344e+03   4.325078e+04
  -2.286034e+05   2.331811e+04
  -3.128835e+05  -7.085693e+04
  -6.834469e+04  -2.294830e+05
   3.374926e+05  -2.939202e+05
   5.478667e+05  -1.165057e+05
   3.813758e+05   2.209220e+05
  -8.111402e+03   4.427156e+05
  -3.106280e+05   3.647205e+05
  -3.477234e+05   8.957086e+04
  -1.845217e+05  -1.177632e+05
  -1.286771e+04  -1.151523e+05
   3.561748e+04  -6.026573e+03
  -2.264484e+04   9.875330e+03
  -7.523030e+04  -1.262134e+05
  -3.089841e+04  -2.597700e+05
   9.753971e+04  -1.909420e+05
   1.994827e+05   8.688349e+04
   1.565166e+05   3.392555e+05
  -4.117415e+04   3.148389e+05
  -2.479097e+05   1.622084e+04
  -2.630703e+05  -2.905373e+05
  -3.133335e+04  -3.480930e+05
   2.568727e+05  -1.521109e+05
   3.266251e+05   9.286825e+04
   1.177542e+05   2.078600e+05
  -1.252315e+05   1.765812e+05
  -1.266587e+05   8.698461e+04
   8.411831e+04   2.351263e+04
   2.009703e+05   2.966694e+04
   2.221559e+04   9.922611e+04
  -2.905466e+05   1.563128e+05
  -4.049979e+05   9.604650e+04
  -2.100341e+05  -8.982550e+04
   8.207918e+04  -2.521839e+05
   2.086900e+05  -2.220138e+05
   1.266686e+05  -1.707716e+04
  -1.899928e+04   1.513385e+05
  -9.968590e+04   1.109783e+05
  -9.655109e+04  -7.505092e+04
  -4.019960e+04  -1.897876e+05
   4.300954e+04  -1.169465e+05
   1.142968e+05   4.114715e+04
   1.242867e+05   1.065937e+05
   6.811879e+04   3.801916e+04
   2.290481e+03  -3.946287e+04
  -2.445527e+04  -3.121283e+03
  -3.145303e+04   1.114038e+05
  -6.493084e+04   1.502266e+05
  -1.127702e+05   2.907319e+04
  -1.015768e+05  -1.512690e+05
   8.293025e+03  -2.040172e+05
   1.462281e+05  -6.503147e+04
   1.766663e+05   1.297113e+05
   3.670671e+04   1.914435e+05
  -1.724140e+05   7.866457e+04
  -2.558940e+05  -7.951004e+04
  -1.190203e+05  -1.428437e+05
   1.119205e+05  -9.629056e+04
   2.030783e+05  -2.224344e+04
   6.948614e+04   1.002515e+04
  -1.173786e+05  -8.968087e+03
  -1.215577e+05  -5.443722e+04
   7.724796e+04  -8.249749e+04
   2.538696e+05  -3.466256e+04
