
 $NMID
 id='ANONYMOUS ', fmtdat='(2E16.6)'
 volume=1.0
 tramp=1.0
 $END
  -5.221375e+07   8.273834e+05
  -3.247027e+07  -3.121501e+07
   5.636550e+06  -3.543739e+07
   2.532627e+07  -1.485931e+07
   1.598387e+07   5.549136e+06
  -2.552431e+06   8.897787e+06
  -9.447081e+06  -4.756308e+05
  -3.257194e+06  -9.114149e+06
   5.467096e+06  -9.396763e+06
   9.136253e+06  -2.407241e+06
   6.739523e+06   5.804875e+06
   8.268794e+05   8.262807e+06
  -3.786319e+06   2.540337e+06
  -2.559502e+06  -5.442671e+06
   3.490062e+06  -6.586296e+06
   7.529345e+06   9.520655e+05
   4.478381e+06   9.548455e+06
  -3.283996e+06   1.123175e+07
  -9.364454e+06   5.679808e+06
  -1.003685e+07  -1.852659e+06
  -6.069617e+06  -6.828965e+06
  -7.055662e+05  -7.755820e+06
   2.303325e+06  -5.493038e+06
   1.194473e+06  -2.824977e+06
  -1.255047e+06  -2.615158e+06
   5.653317e+02  -4.305349e+06
   5.507585e+06  -4.089094e+06
   9.382914e+06  -2.222183e+05
   6.634146e+06   4.033128e+06
  -2.283540e+04   4.704017e+06
  -3.776984e+06   2.161290e+06
  -2.247106e+06  -3.390570e+05
   1.091308e+06  -1.064212e+06
   2.657583e+06  -2.465995e+05
   2.094421e+06   1.797822e+06
   3.393350e+05   3.953172e+06
  -1.795950e+06   3.523736e+06
  -2.763297e+06  -2.523452e+05
  -1.364797e+06  -3.303926e+06
   6.248007e+05  -1.478163e+06
   6.105544e+04   2.610733e+06
  -2.470417e+06   2.336645e+06
  -2.464639e+06  -2.940839e+06
   1.938149e+06  -5.858375e+06
   6.218844e+06  -1.228854e+06
   4.859564e+06   6.230284e+06
  -1.505539e+06   7.951786e+06
  -6.900538e+06   2.377492e+06
  -6.806653e+06  -4.176526e+06
  -2.001038e+06  -5.879451e+06
   3.353160e+06  -2.806542e+06
   5.299711e+06   1.333310e+06
   2.591583e+06   3.358354e+06
  -2.180842e+06   2.228322e+06
  -4.354000e+06  -7.270440e+05
  -1.981242e+06  -2.518818e+06
   1.583777e+06  -1.341510e+06
   1.778981e+06   9.764948e+05
  -1.117418e+06   1.082801e+06
  -2.491512e+06  -1.337800e+06
   1.657770e+05  -3.138580e+06
   4.060064e+06  -2.016181e+06
   5.045424e+06   9.713740e+05
   2.359615e+06   3.640821e+06
  -1.744118e+06   5.036566e+06
  -4.968724e+06   4.612228e+06
  -5.997940e+06   1.579240e+06
  -4.287144e+06  -3.095862e+06
  -8.455098e+05  -5.972831e+06
   1.704659e+06  -4.739422e+06
   1.665073e+06  -1.448741e+06
   3.720750e+05   2.921495e+04
   3.385626e+05  -9.407775e+05
   1.829621e+06  -1.520423e+06
   2.795849e+06   7.285628e+04
   1.852874e+06   2.158305e+06
  -2.037316e+05   2.217808e+06
  -1.732735e+06   9.434369e+04
  -1.700521e+06  -2.261272e+06
   9.800073e+04  -2.985326e+06
   2.789045e+06  -1.523629e+06
   4.299736e+06   1.290335e+06
   3.016636e+06   3.634783e+06
  -4.354631e+04   3.968323e+06
  -2.090278e+06   2.558005e+06
  -2.052963e+06   1.157373e+06
  -1.777955e+06   7.778495e+05
  -2.970503e+06   5.487232e+05
  -4.398414e+06  -7.420029e+05
  -3.527016e+06  -2.804411e+06
  -1.060330e+05  -4.203830e+06
   3.331275e+06  -3.925894e+06
   4.303729e+06  -2.029648e+06
   2.646489e+06   5.544181e+05
   1.329113e+05   2.279431e+06
  -1.213745e+06   1.882456e+06
  -5.514297e+05  -7.715984e+04
   1.151737e+06  -1.295296e+06
   1.920314e+06  -3.799073e+05
   8.815597e+05   1.206098e+06
  -5.782096e+05   1.124279e+06
  -5.021418e+05  -4.125426e+05
   1.028834e+06  -8.352846e+05
   1.955502e+06   1.100536e+06
   8.751726e+05   3.471262e+06
  -1.422065e+06   3.653886e+06
  -3.205227e+06   1.393864e+06
  -3.538026e+06  -1.396162e+06
  -2.443155e+06  -2.933635e+06
  -4.536976e+05  -2.771631e+06
   1.322814e+06  -1.483505e+06
   1.632707e+06  -1.831967e+05
   5.048811e+05   5.401994e+04
  -3.614554e+05  -7.744332e+05
   4.078561e+05  -1.353208e+06
   1.914618e+06  -5.835688e+05
   2.067984e+06   8.844733e+05
   4.123258e+05   1.432941e+06
  -1.203084e+06   5.901914e+05
  -9.448080e+05  -4.866039e+05
   8.734201e+05  -5.919783e+05
   2.310852e+06   3.015762e+05
   1.864509e+06   1.446548e+06
  -2.570021e+05   2.098142e+06
  -2.419014e+06   1.713492e+06
  -2.867833e+06   2.559549e+05
  -1.236978e+06  -1.292608e+06
   9.344438e+05  -1.502465e+06
   1.561143e+06  -1.813729e+05
   1.795183e+05   1.082699e+06
  -1.556035e+06   7.329930e+05
  -1.766481e+06  -8.075964e+05
  -3.624623e+05  -1.712028e+06
   1.119633e+06  -1.037288e+06
   1.316408e+06   2.977602e+05
   2.805291e+05   8.052964e+05
  -8.012469e+05   6.181765e+04
  -7.373054e+05  -1.082158e+06
   6.162992e+05  -1.446326e+06
   2.068572e+06  -5.182852e+05
   2.069513e+06   1.109068e+06
   3.696957e+05   2.131640e+06
  -1.488264e+06   1.675064e+06
  -1.777795e+06   2.093173e+05
  -5.224699e+05  -8.985887e+05
   6.840949e+05  -8.304191e+05
   6.720793e+05  -6.053681e+04
  -1.237358e+05   4.119589e+05
  -5.515253e+05   2.339717e+05
  -1.795636e+05  -1.016567e+05
   4.497099e+05   2.274367e+04
   5.571206e+05   6.639323e+05
  -1.961115e+05   1.222367e+06
  -1.425595e+06   9.151712e+05
  -2.137527e+06  -4.470943e+05
  -1.480509e+06  -2.014849e+06
   2.588057e+05  -2.495487e+06
   1.696402e+06  -1.456308e+06
   1.772098e+06   1.430236e+05
   9.005251e+05   9.752699e+05
   3.056840e+05   7.411969e+05
   4.408974e+05   2.569497e+05
   6.083176e+05   3.009819e+05
   8.796958e+04   7.600005e+05
  -9.040593e+05   9.270375e+05
  -1.510278e+06   3.321722e+05
  -1.095463e+06  -7.756882e+05
   2.717172e+05  -1.537978e+06
   1.799503e+06  -1.102207e+06
   2.323023e+06   5.266452e+05
   1.160050e+06   2.178441e+06
  -1.041286e+06   2.431418e+06
  -2.617827e+06   1.057339e+06
  -2.438780e+06  -6.851804e+05
  -1.010289e+06  -1.407818e+06
   2.166899e+05  -1.017909e+06
   4.482258e+05  -5.435247e+05
   1.371038e+05  -7.500193e+05
   1.353899e+05  -1.304210e+06
   6.898268e+05  -1.298209e+06
   1.317510e+06  -3.096740e+05
   1.354004e+06   1.129956e+06
   5.430125e+05   1.957967e+06
  -6.638408e+05   1.469399e+06
  -1.329189e+06  -1.489374e+04
  -8.331190e+05  -1.321720e+06
   3.971449e+05  -1.439104e+06
   1.187348e+06  -4.399093e+05
   8.398168e+05   6.858127e+05
  -1.027508e+05   1.094364e+06
  -5.287308e+05   8.182303e+05
  -8.480875e+04   4.479901e+05
   4.314365e+05   3.562841e+05
   5.082536e+04   3.966222e+05
  -1.174668e+06   2.108980e+05
  -2.104946e+06  -3.544772e+05
  -1.655970e+06  -1.076277e+06
   2.909944e+04  -1.469592e+06
   1.622298e+06  -1.157003e+06
   1.887024e+06  -2.812502e+05
   8.724249e+05   4.946893e+05
  -2.588538e+05   5.739452e+05
  -5.246896e+05   4.301548e+04
  -2.507817e+04  -4.129690e+05
   4.659117e+05  -2.511202e+05
   4.877694e+05   3.572512e+05
   2.289563e+05   7.436748e+05
   7.349292e+04   4.869514e+05
   1.514237e+05  -1.082300e+05
   3.145983e+05  -3.069060e+05
   2.852922e+05   2.423050e+05
  -1.709600e+05   1.015582e+06
  -9.365422e+05   1.083051e+06
  -1.375853e+06   1.620499e+05
  -8.436156e+05  -9.417027e+05
   4.327032e+05  -1.150623e+06
   1.277634e+06  -3.207091e+05
   7.425852e+05   6.035186e+05
  -7.290237e+05   6.647979e+05
  -1.648185e+06  -1.144144e+05
  -1.050378e+06  -9.111740e+05
   5.033257e+05  -1.036334e+06
   1.569180e+06  -4.942757e+05
   1.290557e+06   2.099352e+05
   1.375845e+05   5.407613e+05
  -6.760023e+05   2.777075e+05
  -3.904615e+05  -3.001563e+05
   6.118147e+05  -5.197947e+05
   1.210483e+06   1.070328e+05
   6.623761e+05   1.222421e+06
  -6.383406e+05   1.734160e+06
  -1.541040e+06   8.830217e+05
  -1.282882e+06  -8.006604e+05
  -1.834881e+05  -1.853350e+06
   7.860375e+05  -1.333219e+06
   9.613908e+05   1.887773e+05
   4.380942e+05   1.241825e+06
  -2.351812e+05   1.011026e+06
  -5.824802e+05   8.565883e+04
  -4.811911e+05  -4.031815e+05
  -1.715052e+05  -1.526514e+05
  -5.107223e+04   1.023226e+05
  -2.808909e+05  -2.948890e+05
  -5.130229e+05  -9.990839e+05
  -1.892199e+05  -1.125586e+06
   7.365279e+05  -4.092373e+05
   1.518602e+06   5.000414e+05
   1.317978e+06   8.875486e+05
   1.848115e+05   7.234797e+05
  -8.901342e+05   4.160695e+05
  -1.022879e+06   1.757499e+05
  -3.723663e+05  -5.119578e+04
   1.537636e+05  -2.285061e+05
   3.879240e+04  -2.211039e+05
  -2.723379e+05  -1.106504e+05
  -4.896714e+04  -1.351474e+05
   6.864382e+05  -2.270915e+05
   1.077961e+06   2.215808e+04
   4.371644e+05   7.069337e+05
  -8.781224e+05   1.198987e+06
  -1.754844e+06   7.685589e+05
  -1.446106e+06  -4.498350e+05
  -2.691139e+05  -1.451650e+06
   8.016120e+05  -1.414980e+06
   1.083222e+06  -5.457192e+05
   6.705436e+05   2.473096e+05
   1.348276e+05   3.678649e+05
  -6.928578e+04   6.087481e+04
   8.904034e+04  -1.949615e+04
   3.095359e+05   3.859690e+05
   2.482305e+05   8.400104e+05
  -1.890298e+05   6.984166e+05
  -6.971719e+05  -1.311258e+05
  -7.515029e+05  -9.826088e+05
  -1.144803e+05  -1.057593e+06
   7.708683e+05  -2.479112e+05
   1.057479e+06   7.466014e+05
   3.542400e+05   1.122369e+06
  -7.348266e+05   6.952088e+05
  -1.153240e+06  -8.014872e+04
  -5.510033e+05  -6.331427e+05
   2.942560e+05  -7.008537e+05
   3.945094e+05  -3.838406e+05
  -2.503596e+05  -1.675635e+04
  -6.690696e+05   3.496723e+04
  -1.515189e+05  -3.171544e+05
   8.578578e+05  -6.948229e+05
   1.311219e+06  -5.526380e+05
   7.938118e+05   1.838981e+05
  -1.022431e+05   8.974201e+05
  -5.755512e+05   8.873239e+05
  -4.387498e+05   1.733889e+05
  -5.160690e+04  -4.900574e+05
   2.452090e+05  -4.486822e+05
   3.564911e+05   1.510588e+05
   2.593638e+05   5.963459e+05
  -5.038645e+04   4.422688e+05
  -4.009095e+05  -4.638878e+04
  -4.948376e+05  -2.926912e+05
  -2.535694e+05  -1.030580e+05
   4.115521e+04   1.549265e+05
   9.499199e+04   5.093461e+04
  -1.180195e+04  -3.541994e+05
   4.016165e+04  -5.599480e+05
   3.168474e+05  -2.273389e+05
   4.693331e+05   3.808612e+05
   1.651370e+05   6.579686e+05
  -4.176682e+05   3.219115e+05
  -6.834911e+05  -2.844023e+05
  -2.594252e+05  -5.881776e+05
   5.259213e+05  -3.776056e+05
   9.108033e+05   7.600288e+04
   4.941981e+05   3.899491e+05
  -3.003571e+05   4.155475e+05
  -6.563578e+05   2.389059e+05
  -2.615053e+05   2.347138e+04
   3.472426e+05  -6.661269e+04
   4.115306e+05   6.424331e+04
  -1.740688e+05   2.910929e+05
  -7.603606e+05   2.687337e+05
