
 $NMID
 id='ANONYMOUS ', fmtdat='(2E16.6)'
 volume=1.0
 tramp=1.0
 $END
  -5.594323e+07   1.688106e+06
  -3.470880e+07  -3.368687e+07
   6.276993e+06  -3.812602e+07
   2.701619e+07  -1.534655e+07
   1.659853e+07   6.528660e+06
  -3.031052e+06   9.381805e+06
  -9.818904e+06  -9.538277e+05
  -3.029910e+06  -9.647700e+06
   5.919151e+06  -9.448491e+06
   9.540721e+06  -2.247166e+06
   7.117861e+06   5.951812e+06
   1.055142e+06   8.504327e+06
  -3.873087e+06   2.841530e+06
  -2.751426e+06  -5.310450e+06
   3.566375e+06  -6.594643e+06
   7.862025e+06   1.109289e+06
   4.703781e+06   1.000837e+07
  -3.415028e+06   1.182459e+07
  -9.855925e+06   6.165641e+06
  -1.079145e+07  -1.702389e+06
  -6.815150e+06  -7.222759e+06
  -9.725486e+05  -8.575660e+06
   2.708773e+06  -6.129206e+06
   1.797301e+06  -2.753043e+06
  -1.119512e+06  -2.096588e+06
  -3.674109e+05  -4.105018e+06
   5.205449e+06  -4.502496e+06
   9.543431e+06  -7.809105e+05
   7.106556e+06   3.874531e+06
   4.186452e+05   5.001655e+06
  -3.585660e+06   2.659866e+06
  -2.438006e+06   1.076622e+05
   5.655846e+05  -9.159458e+05
   2.219011e+06  -5.362247e+05
   2.197407e+06   1.340534e+06
   8.058358e+05   3.853718e+06
  -1.660096e+06   3.876643e+06
  -3.209882e+06   1.703294e+04
  -1.823277e+06  -3.543816e+06
   6.949547e+05  -1.948658e+06
   4.069082e+05   2.405386e+06
  -2.375764e+06   2.348671e+06
  -2.524962e+06  -3.105637e+06
   2.235892e+06  -6.175499e+06
   6.885207e+06  -1.228182e+06
   5.301639e+06   6.725510e+06
  -1.642171e+06   8.534824e+06
  -7.302389e+06   2.624638e+06
  -7.025808e+06  -4.222116e+06
  -1.995649e+06  -5.942592e+06
   3.383015e+06  -2.786431e+06
   5.266928e+06   1.380909e+06
   2.501781e+06   3.407539e+06
  -2.344099e+06   2.255914e+06
  -4.527762e+06  -7.892726e+05
  -2.016624e+06  -2.651549e+06
   1.667628e+06  -1.412501e+06
   1.755870e+06   9.762057e+05
  -1.298646e+06   9.571744e+05
  -2.527991e+06  -1.677616e+06
   5.046958e+05  -3.456992e+06
   4.548734e+06  -2.041730e+06
   5.317690e+06   1.191402e+06
   2.423079e+06   3.887037e+06
  -1.635813e+06   5.275870e+06
  -4.826534e+06   4.943269e+06
  -6.090883e+06   1.911740e+06
  -4.637604e+06  -2.994167e+06
  -1.114727e+06  -6.096372e+06
   1.720270e+06  -4.794178e+06
   1.732379e+06  -1.263999e+06
   1.816843e+05   2.589972e+05
  -5.962715e+04  -9.528730e+05
   1.529005e+06  -1.812956e+06
   2.775413e+06  -3.196256e+05
   2.061429e+06   1.854790e+06
   8.299711e+04   2.123768e+06
  -1.535347e+06   2.395699e+05
  -1.719635e+06  -2.022291e+06
  -8.208422e+04  -2.917691e+06
   2.701149e+06  -1.723099e+06
   4.477262e+06   1.051560e+06
   3.315871e+06   3.640562e+06
   9.368230e+04   4.207742e+06
  -2.182610e+06   2.777662e+06
  -2.193697e+06   1.203144e+06
  -1.814120e+06   7.320581e+05
  -2.924938e+06   5.539237e+05
  -4.358751e+06  -6.474992e+05
  -3.548716e+06  -2.670965e+06
  -2.339338e+05  -4.115422e+06
   3.099512e+06  -3.972288e+06
   4.105172e+06  -2.223445e+06
   2.657858e+06   3.457538e+05
   3.365021e+05   2.216404e+06
  -1.042007e+06   1.957490e+06
  -5.625547e+05  -1.868975e+04
   1.051322e+06  -1.335660e+06
   1.897062e+06  -4.491650e+05
   9.562626e+05   1.179467e+06
  -4.875958e+05   1.124697e+06
  -4.344810e+05  -3.842402e+05
   1.062751e+06  -7.230263e+05
   1.902921e+06   1.257335e+06
   7.263211e+05   3.492167e+06
  -1.534126e+06   3.456562e+06
  -3.135015e+06   1.173502e+06
  -3.339961e+06  -1.384612e+06
  -2.322581e+06  -2.711394e+06
  -5.058961e+05  -2.593618e+06
   1.202895e+06  -1.491115e+06
   1.569176e+06  -2.674859e+05
   4.943792e+05   3.407508e+04
  -3.766321e+05  -7.455390e+05
   3.840055e+05  -1.358954e+06
   1.904339e+06  -6.290858e+05
   2.065748e+06   8.466786e+05
   4.180996e+05   1.418339e+06
  -1.165124e+06   5.986010e+05
  -8.961829e+05  -4.401708e+05
   8.486786e+05  -5.326196e+05
   2.189591e+06   2.882367e+05
   1.762202e+06   1.327260e+06
  -2.178410e+05   1.972879e+06
  -2.277417e+06   1.700681e+06
  -2.773013e+06   3.343690e+05
  -1.252258e+06  -1.244512e+06
   8.871144e+05  -1.535876e+06
   1.567626e+06  -2.316966e+05
   2.332649e+05   1.082118e+06
  -1.505747e+06   7.770619e+05
  -1.742836e+06  -7.498413e+05
  -3.676451e+05  -1.654542e+06
   1.084351e+06  -9.981444e+05
   1.269806e+06   2.973463e+05
   2.566798e+05   7.858593e+05
  -8.049269e+05   7.330222e+04
  -7.674128e+05  -1.041396e+06
   5.413970e+05  -1.444707e+06
   2.000848e+06  -5.957914e+05
   2.069880e+06   1.003765e+06
   4.344503e+05   2.075725e+06
  -1.411730e+06   1.683961e+06
  -1.731253e+06   2.466701e+05
  -5.200681e+05  -8.646414e+05
   6.466113e+05  -8.193913e+05
   6.282191e+05  -8.988703e+04
  -1.190925e+05   3.557418e+05
  -4.833335e+05   2.070830e+05
  -1.064999e+05  -6.511091e+04
   4.646269e+05   7.926830e+04
   5.328754e+05   6.763215e+05
  -1.887787e+05   1.200488e+06
  -1.370961e+06   9.284467e+05
  -2.099395e+06  -3.695096e+05
  -1.516305e+06  -1.917206e+06
   1.616425e+05  -2.431670e+06
   1.588552e+06  -1.445268e+06
   1.690862e+06   9.680313e+04
   8.655249e+05   8.751475e+05
   3.237793e+05   6.284255e+05
   4.903111e+05   1.943679e+05
   6.493614e+05   3.008510e+05
   1.127247e+05   7.718936e+05
  -8.629546e+05   9.223188e+05
  -1.444329e+06   3.510723e+05
  -1.058913e+06  -7.005773e+05
   2.266650e+05  -1.460381e+06
   1.703256e+06  -1.106758e+06
   2.261788e+06   4.367715e+05
   1.179261e+06   2.084351e+06
  -9.685616e+05   2.399481e+06
  -2.536193e+06   1.087314e+06
  -2.370683e+06  -6.200427e+05
  -9.740008e+05  -1.325352e+06
   1.967575e+05  -9.421671e+05
   3.724183e+05  -5.062428e+05
   4.364173e+04  -7.545732e+05
   6.205579e+04  -1.321655e+06
   6.431213e+05  -1.316770e+06
   1.294852e+06  -3.541536e+05
   1.369760e+06   1.049928e+06
   6.049172e+05   1.885849e+06
  -5.878102e+05   1.455909e+06
  -1.288833e+06   2.542911e+04
  -8.427891e+05  -1.274291e+06
   3.675211e+05  -1.412226e+06
   1.169090e+06  -4.258059e+05
   8.346606e+05   6.961041e+05
  -1.074113e+05   1.093100e+06
  -5.343507e+05   7.982130e+05
  -8.271040e+04   4.147012e+05
   4.447871e+05   3.223542e+05
   7.094142e+04   3.811883e+05
  -1.152624e+06   2.371638e+05
  -2.085120e+06  -2.855719e+05
  -1.648010e+06  -1.006441e+06
   1.163981e+04  -1.449293e+06
   1.577265e+06  -1.187672e+06
   1.836033e+06  -3.159154e+05
   8.470228e+05   4.895242e+05
  -2.520944e+05   5.841539e+05
  -5.170071e+05   4.139916e+04
  -4.690941e+04  -4.288793e+05
   4.327047e+05  -2.720057e+05
   4.933838e+05   3.301835e+05
   2.831022e+05   7.135305e+05
   1.188989e+05   4.755547e+05
   1.354836e+05  -9.041061e+04
   2.658359e+05  -2.889035e+05
   2.799899e+05   2.278909e+05
  -1.118202e+05   9.879164e+05
  -8.751651e+05   1.094485e+06
  -1.374553e+06   2.211448e+05
  -8.927733e+05  -8.924811e+05
   3.850166e+05  -1.165437e+06
   1.259590e+06  -3.850697e+05
   7.524530e+05   5.510444e+05
  -6.919183e+05   6.658323e+05
  -1.590543e+06  -6.558799e+04
  -1.012005e+06  -8.476050e+05
   4.768961e+05  -9.941256e+05
   1.490469e+06  -4.958322e+05
   1.229562e+06   1.741216e+05
   1.389441e+05   5.099329e+05
  -6.477971e+05   2.789670e+05
  -3.988667e+05  -2.896348e+05
   5.643859e+05  -5.470618e+05
   1.189883e+06   3.559872e+04
   7.221328e+05   1.158121e+06
  -5.234083e+05   1.730854e+06
  -1.453218e+06   9.432773e+05
  -1.282532e+06  -7.169176e+05
  -2.563242e+05  -1.787400e+06
   7.076449e+05  -1.308754e+06
   9.306418e+05   1.647395e+05
   4.517237e+05   1.187091e+06
  -2.126004e+05   9.696723e+05
  -5.676635e+05   9.242268e+04
  -4.642876e+05  -3.640690e+05
  -1.524319e+05  -1.298908e+05
  -5.237410e+04   9.275345e+04
  -3.116337e+05  -2.971389e+05
  -5.469048e+05  -9.590597e+05
  -2.022611e+05  -1.074612e+06
   7.279068e+05  -4.142644e+05
   1.489362e+06   4.245957e+05
   1.289186e+06   8.048482e+05
   2.033402e+05   6.997469e+05
  -8.269437e+05   4.461822e+05
  -9.762280e+05   2.041920e+05
  -3.788672e+05  -5.214023e+04
   1.323290e+05  -2.321737e+05
   5.151966e+04  -1.977556e+05
  -2.450985e+05  -7.581117e+04
  -6.401531e+04  -1.300776e+05
   6.310428e+05  -2.656082e+05
   1.054122e+06  -3.021080e+04
   4.930791e+05   6.828230e+05
  -7.820172e+05   1.224347e+06
  -1.697430e+06   8.360693e+05
  -1.462172e+06  -3.693432e+05
  -3.341059e+05  -1.398175e+06
   7.298621e+05  -1.417008e+06
   1.035453e+06  -5.943918e+05
   6.620173e+05   1.964625e+05
   1.581198e+05   3.552546e+05
  -4.507759e+04   8.331074e+04
   9.040292e+04  -2.444107e+03
   3.027783e+05   3.678133e+05
   2.657026e+05   8.043605e+05
  -1.502831e+05   6.943271e+05
  -6.825552e+05  -7.879180e+04
  -7.927166e+05  -9.098404e+05
  -1.850514e+05  -1.033514e+06
   7.292216e+05  -3.029767e+05
   1.074697e+06   6.594661e+05
   4.096092e+05   1.082125e+06
  -6.852481e+05   7.281716e+05
  -1.140115e+06  -2.382337e+04
  -5.741419e+05  -6.133661e+05
   2.632908e+05  -7.176914e+05
   3.898123e+05  -3.912435e+05
  -2.231487e+05   8.691839e+03
  -6.442825e+05   6.796863e+04
  -1.681553e+05  -3.084449e+05
   8.042171e+05  -7.096531e+05
   1.268223e+06  -5.719207e+05
   7.995085e+05   1.684320e+05
  -6.085866e+04   8.874726e+05
  -5.444545e+05   8.932694e+05
  -4.465628e+05   1.993724e+05
  -8.597954e+04  -4.678198e+05
   2.176039e+05  -4.609815e+05
   3.568391e+05   1.104188e+05
   2.818603e+05   5.690589e+05
  -2.840113e+04   4.530673e+05
  -3.951951e+05  -1.865906e+04
  -4.984529e+05  -2.796214e+05
  -2.485779e+05  -1.024493e+05
   5.374385e+04   1.678429e+05
   8.741778e+04   7.963590e+04
  -5.921643e+04  -3.371993e+05
  -2.178135e+04  -5.791829e+05
   2.936976e+05  -2.766376e+05
   5.072241e+05   3.312208e+05
   2.279284e+05   6.382283e+05
  -3.839689e+05   3.446672e+05
  -6.952246e+05  -2.357512e+05
  -2.913215e+05  -5.550056e+05
   5.023941e+05  -3.925461e+05
   9.047879e+05   2.697404e+04
   5.048145e+05   3.586472e+05
  -2.775548e+05   4.337952e+05
  -6.384992e+05   2.799627e+05
  -2.709956e+05   3.415445e+04
   3.155388e+05  -1.026129e+05
   3.996021e+05   1.839955e+04
  -1.342253e+05   2.811411e+05
  -6.970606e+05   3.032928e+05
