
 $NMID
 id='ANONYMOUS ', fmtdat='(2E16.6)'
 volume=1.0
 tramp=1.0
 $END
   5.140039e+07   4.133329e+05
   3.057896e+07   3.191009e+07
  -7.015896e+06   3.458080e+07
  -2.510393e+07   1.322964e+07
  -1.488956e+07  -6.335360e+06
   3.028763e+06  -8.431224e+06
   8.898128e+06   1.082118e+06
   2.532280e+06   8.845667e+06
  -5.591683e+06   8.513216e+06
  -8.762207e+06   1.830586e+06
  -6.377177e+06  -5.698271e+06
  -7.261546e+05  -7.894083e+06
   3.692976e+06  -2.484935e+06
   2.452957e+06   5.028207e+06
  -3.402871e+06   6.014761e+06
  -7.159027e+06  -1.217817e+06
  -4.030431e+06  -9.312020e+06
   3.476858e+06  -1.074193e+07
   9.247972e+06  -5.335391e+06
   9.860774e+06   1.958273e+06
   5.968252e+06   6.908481e+06
   5.149765e+05   7.884103e+06
  -2.704980e+06   5.423618e+06
  -1.604547e+06   2.369540e+06
   1.146889e+06   1.990789e+06
   2.695320e+05   3.917003e+06
  -5.029847e+06   4.089179e+06
  -8.946215e+06   4.389035e+05
  -6.469192e+06  -3.845211e+06
  -1.576753e+05  -4.697901e+06
   3.515550e+06  -2.369892e+06
   2.338802e+06   5.615873e+04
  -5.773086e+05   9.864870e+05
  -2.189397e+06   5.234297e+05
  -2.097620e+06  -1.360928e+06
  -6.329327e+05  -3.692818e+06
   1.702536e+06  -3.529114e+06
   2.962750e+06   1.886878e+05
   1.497738e+06   3.383651e+06
  -7.801461e+05   1.705876e+06
  -3.368813e+05  -2.341644e+06
   2.248432e+06  -2.150154e+06
   2.228333e+06   2.905639e+06
  -2.207925e+06   5.553431e+06
  -6.290439e+06   8.570693e+05
  -4.605083e+06  -6.343791e+06
   1.781528e+06  -7.746467e+06
   6.795158e+06  -2.171845e+06
   6.380157e+06   4.065544e+06
   1.728741e+06   5.513319e+06
  -3.166197e+06   2.510813e+06
  -4.835561e+06  -1.353209e+06
  -2.247446e+06  -3.163269e+06
   2.196500e+06  -1.998371e+06
   4.132189e+06   8.453197e+05
   1.774819e+06   2.478523e+06
  -1.575888e+06   1.245950e+06
  -1.607423e+06  -9.296162e+05
   1.165590e+06  -8.366587e+05
   2.221137e+06   1.558241e+06
  -5.578185e+05   3.063528e+06
  -4.176857e+06   1.688670e+06
  -4.799420e+06  -1.226661e+06
  -2.103065e+06  -3.611766e+06
   1.669992e+06  -4.835538e+06
   4.636407e+06  -4.470687e+06
   5.722543e+06  -1.594549e+06
   4.207273e+06   2.941403e+06
   8.568571e+05   5.695720e+06
  -1.683291e+06   4.383695e+06
  -1.565829e+06   1.142125e+06
  -1.288184e+05  -1.672100e+05
  -1.492356e+04   9.781437e+05
  -1.555980e+06   1.685310e+06
  -2.669859e+06   2.000342e+05
  -1.917912e+06  -1.843277e+06
  -2.072431e+04  -2.047552e+06
   1.488013e+06  -2.212087e+05
   1.609502e+06   1.938266e+06
   1.538610e+04   2.750692e+06
  -2.586377e+06   1.538262e+06
  -4.150015e+06  -1.124105e+06
  -2.956166e+06  -3.489207e+06
   6.207484e+04  -3.885706e+06
   2.101165e+06  -2.474008e+06
   2.035137e+06  -1.033155e+06
   1.670143e+06  -6.437237e+05
   2.718137e+06  -4.744371e+05
   4.043264e+06   6.725836e+05
   3.262034e+06   2.549093e+06
   1.511686e+05   3.848864e+06
  -2.972082e+06   3.667748e+06
  -3.903551e+06   2.005473e+06
  -2.498512e+06  -3.979290e+05
  -2.595190e+05  -2.112294e+06
   1.039934e+06  -1.820122e+06
   5.329514e+05   4.070500e+04
  -1.019615e+06   1.235921e+06
  -1.782709e+06   3.768990e+05
  -8.585986e+05  -1.130020e+06
   4.863154e+05  -1.052565e+06
   4.138885e+05   3.525621e+05
  -9.636158e+05   6.603630e+05
  -1.709407e+06  -1.157626e+06
  -6.291215e+05  -3.199182e+06
   1.412669e+06  -3.167847e+06
   2.872037e+06  -1.079284e+06
   3.090495e+06   1.288431e+06
   2.168728e+06   2.545016e+06
   4.594190e+05   2.441301e+06
  -1.153913e+06   1.384236e+06
  -1.482448e+06   2.230615e+05
  -4.616423e+05  -4.056057e+04
   3.408385e+05   7.038346e+05
  -3.828821e+05   1.255651e+06
  -1.784206e+06   5.454528e+05
  -1.905122e+06  -8.240463e+05
  -3.641114e+05  -1.324175e+06
   1.097197e+06  -5.430549e+05
   8.419072e+05   4.179483e+05
  -7.809771e+05   4.954754e+05
  -2.039222e+06  -2.728575e+05
  -1.650419e+06  -1.247097e+06
   2.088262e+05  -1.846769e+06
   2.149273e+06  -1.569359e+06
   2.599496e+06  -2.734272e+05
   1.144409e+06   1.182382e+06
  -8.616078e+05   1.410752e+06
  -1.464228e+06   1.775842e+05
  -1.893134e+05  -1.018410e+06
   1.423282e+06  -6.989742e+05
   1.615547e+06   7.255138e+05
   3.240720e+05   1.545502e+06
  -1.016239e+06   9.182114e+05
  -1.176623e+06  -2.865253e+05
  -2.319560e+05  -7.303209e+05
   7.493560e+05  -5.424670e+04
   7.002945e+05   9.875908e+05
  -5.323028e+05   1.345712e+06
  -1.886279e+06   5.245554e+05
  -1.921351e+06  -9.758990e+05
  -3.711353e+05  -1.948481e+06
   1.345816e+06  -1.548904e+06
   1.619203e+06  -2.031465e+05
   4.733634e+05   8.138698e+05
  -6.158218e+05   7.576215e+05
  -5.971147e+05   7.763223e+04
   1.023065e+05  -3.384371e+05
   4.539983e+05  -2.057128e+05
   1.183810e+05   4.924607e+04
  -4.106451e+05  -7.482118e+04
  -4.816972e+05  -6.238513e+05
   1.883232e+05  -1.109761e+06
   1.291140e+06  -8.468771e+05
   1.956926e+06   3.765946e+05
   1.387655e+06   1.817508e+06
  -1.881925e+05   2.275203e+06
  -1.504442e+06   1.335384e+06
  -1.582420e+06  -1.053404e+05
  -8.121404e+05  -8.289896e+05
  -3.109757e+05  -6.058633e+05
  -4.563966e+05  -2.071346e+05
  -5.890324e+05  -2.964786e+05
  -8.616378e+04  -7.171126e+05
   8.149431e+05  -8.475534e+05
   1.351677e+06  -3.148709e+05
   9.890541e+05   6.643371e+05
  -2.200258e+05   1.365978e+06
  -1.604562e+06   1.017387e+06
  -2.111805e+06  -4.376073e+05
  -1.075676e+06  -1.962645e+06
   9.360801e+05  -2.223469e+06
   2.379637e+06  -9.786649e+05
   2.205500e+06   6.052002e+05
   9.027013e+05   1.244542e+06
  -1.827295e+05   8.832855e+05
  -3.548785e+05   4.844002e+05
  -6.723614e+04   7.167061e+05
  -9.339257e+04   1.233800e+06
  -6.264140e+05   1.213955e+06
  -1.215401e+06   3.051270e+05
  -1.264658e+06  -1.007281e+06
  -5.360777e+05  -1.776885e+06
   5.747256e+05  -1.355216e+06
   1.206875e+06  -6.184709e+03
   7.682233e+05   1.200106e+06
  -3.602047e+05   1.309937e+06
  -1.086718e+06   3.815889e+05
  -7.590975e+05  -6.532429e+05
   1.150167e+05  -1.007555e+06
   5.007931e+05  -7.314793e+05
   7.622909e+04  -3.875913e+05
  -4.108937e+05  -3.122321e+05
  -6.006906e+04  -3.593396e+05
   1.077026e+06  -2.023041e+05
   1.939760e+06   3.014102e+05
   1.523929e+06   9.640072e+05
  -3.082655e+04   1.346456e+06
  -1.489248e+06   1.078704e+06
  -1.717159e+06   2.691854e+05
  -7.805195e+05  -4.609511e+05
   2.449609e+05  -5.356812e+05
   4.789592e+05  -3.233305e+04
   2.989073e+04   3.983741e+05
  -4.132071e+05   2.477040e+05
  -4.550987e+05  -3.179980e+05
  -2.482966e+05  -6.792787e+05
  -9.773861e+04  -4.525203e+05
  -1.247993e+05   8.752537e+04
  -2.533577e+05   2.766903e+05
  -2.594261e+05  -2.146471e+05
   1.206014e+05  -9.273404e+05
   8.362534e+05  -1.009924e+06
   1.285897e+06  -1.756660e+05
   8.144371e+05   8.557620e+05
  -3.835821e+05   1.078847e+06
  -1.185722e+06   3.305590e+05
  -6.961683e+05  -5.307373e+05
   6.553759e+05  -6.121099e+05
   1.487593e+06   8.035839e+04
   9.414180e+05   8.001079e+05
  -4.507799e+05   9.231443e+05
  -1.397122e+06   4.518981e+05
  -1.150617e+06  -1.720882e+05
  -1.269832e+05  -4.784605e+05
   6.077982e+05  -2.538887e+05
   3.654981e+05   2.772105e+05
  -5.429103e+05   5.030389e+05
  -1.117452e+06  -5.758456e+04
  -6.539823e+05  -1.103734e+06
   5.272841e+05  -1.615938e+06
   1.383444e+06  -8.582443e+05
   1.191524e+06   6.950447e+05
   2.119562e+05   1.680883e+06
  -6.808428e+05   1.218766e+06
  -8.673447e+05  -1.634761e+05
  -4.090735e+05  -1.115195e+06
   2.057246e+05  -9.044727e+05
   5.297571e+05  -7.933649e+04
   4.346795e+05   3.460181e+05
   1.469299e+05   1.221358e+05
   4.776913e+04  -8.615482e+04
   2.783130e+05   2.852023e+05
   4.939695e+05   9.079847e+05
   1.791846e+05   1.007172e+06
  -6.813738e+05   3.729941e+05
  -1.390173e+06  -4.207492e+05
  -1.200903e+06  -7.702758e+05
  -1.794663e+05  -6.570730e+05
   7.869990e+05  -4.080304e+05
   9.184249e+05  -1.792346e+05
   3.480156e+05   5.491272e+04
  -1.301340e+05   2.163069e+05
  -4.384023e+04   1.829222e+05
   2.370930e+05   7.347100e+04
   5.620701e+04   1.250270e+05
  -6.037753e+05   2.414507e+05
  -9.892908e+05   8.910484e+03
  -4.415657e+05  -6.536554e+05
   7.615705e+05  -1.135471e+06
   1.604092e+06  -7.483209e+05
   1.359505e+06   3.791847e+05
   2.885334e+05   1.318800e+06
  -7.071709e+05   1.313048e+06
  -9.831663e+05   5.361739e+05
  -6.208405e+05  -1.975466e+05
  -1.399833e+05  -3.374625e+05
   5.132369e+04  -7.779124e+04
  -7.981865e+04   3.420278e+03
  -2.793039e+05  -3.458638e+05
  -2.383374e+05  -7.567598e+05
   1.546139e+05  -6.483168e+05
   6.429555e+05   8.829148e+04
   7.274965e+05   8.729055e+05
   1.491473e+05   9.762879e+05
  -6.964528e+05   2.687453e+05
  -9.983620e+05  -6.429906e+05
  -3.617652e+05  -1.023818e+06
   6.586613e+05  -6.675594e+05
   1.066843e+06   4.514199e+04
   5.220084e+05   5.831128e+05
  -2.621368e+05   6.630931e+05
  -3.683103e+05   3.558484e+05
   2.157306e+05  -6.050982e+03
   6.070076e+05  -5.310476e+04
   1.499137e+05   2.922245e+05
  -7.654026e+05   6.524551e+05
  -1.191378e+06   5.154358e+05
  -7.385597e+05  -1.711609e+05
   7.409560e+04  -8.292842e+05
   5.225685e+05  -8.227923e+05
   4.195558e+05  -1.718690e+05
   7.148617e+04   4.441152e+05
  -2.147832e+05   4.263743e+05
  -3.362716e+05  -1.139317e+05
  -2.539927e+05  -5.389978e+05
   3.867217e+04  -4.209789e+05
   3.715283e+05   2.643565e+04
   4.585910e+05   2.686633e+05
   2.290893e+05   9.743915e+04
  -4.257318e+04  -1.564003e+05
  -7.500845e+04  -6.870141e+04
   4.551224e+04   3.249100e+05
  -2.400923e+03   5.450268e+05
  -2.892750e+05   2.479747e+05
  -4.677623e+05  -3.293414e+05
  -1.950463e+05  -6.090890e+05
   3.699535e+05  -3.160087e+05
   6.469619e+05   2.383109e+05
   2.626723e+05   5.289908e+05
  -4.768467e+05   3.577514e+05
  -8.466981e+05  -4.493580e+04
  -4.658927e+05  -3.461261e+05
   2.703579e+05  -3.984900e+05
   6.054930e+05  -2.462090e+05
   2.515094e+05  -2.380098e+04
  -3.057190e+05   9.077302e+04
  -3.803215e+05  -2.802107e+04
   1.327066e+05  -2.676180e+05
   6.660194e+05  -2.772412e+05
