
 $NMID
 id='ANONYMOUS ', fmtdat='(2E16.6)'
 volume=1.0
 tramp=1.0
 $END
   1.568800e+07  -4.293861e+05
   1.072402e+07   7.249961e+06
   1.682579e+05   1.005724e+07
  -6.755379e+06   6.696993e+06
  -5.734854e+06   6.354006e+05
  -3.498131e+05  -2.881117e+06
   3.225126e+06  -1.427876e+06
   2.434312e+06   2.542800e+06
  -7.297774e+05   4.352944e+06
  -2.955027e+06   1.964524e+06
  -2.586773e+06  -2.001771e+06
  -3.663858e+05  -3.291854e+06
   1.516984e+06  -7.169013e+05
   1.256463e+06   2.705317e+06
  -8.843169e+05   3.229261e+06
  -2.650883e+06   3.408265e+05
  -2.021237e+06  -3.062640e+06
   6.383756e+05  -3.933313e+06
   2.961434e+06  -1.926152e+06
   3.070971e+06   8.310983e+05
   1.365193e+06   2.160161e+06
  -1.574938e+05   1.752383e+06
  -5.945800e+04   9.821040e+05
   1.107806e+06   1.177967e+06
   1.409067e+06   2.188792e+06
  -3.675880e+05   2.642415e+06
  -3.117659e+06   1.552196e+06
  -4.233182e+06  -5.105372e+05
  -2.369659e+06  -1.955726e+06
   8.250684e+05  -1.743459e+06
   2.298282e+06  -2.711990e+05
   8.915107e+05   1.114106e+06
  -1.527583e+06   1.234953e+06
  -2.370717e+06  -7.170586e+04
  -1.130646e+06  -1.761055e+06
   5.455688e+05  -2.278974e+06
   1.060180e+06  -1.014906e+06
   4.147822e+05   7.861727e+05
  -3.080600e+05   1.125133e+06
  -2.870839e+05  -3.962974e+05
   4.280335e+05  -1.864137e+06
   1.156937e+06  -1.293563e+06
   1.124433e+06   8.019966e+05
   8.834914e+04   1.926214e+06
  -1.205439e+06   6.715235e+05
  -1.417356e+06  -1.571384e+06
   6.642678e+04  -2.328663e+06
   2.174774e+06  -8.426627e+05
   2.915371e+06   1.370027e+06
   1.367492e+06   2.366505e+06
  -1.222088e+06   1.582236e+06
  -2.573476e+06  -4.772700e+04
  -1.626331e+06  -1.159120e+06
   4.655167e+05  -1.037652e+06
   1.615158e+06  -5.844314e+04
   9.454305e+05   7.133192e+05
  -4.691446e+05   5.324656e+05
  -9.455177e+05  -2.914013e+05
  -6.579757e+04  -7.698714e+05
   9.620165e+05  -3.490234e+05
   7.684671e+05   5.173126e+05
  -5.798594e+05   9.015869e+05
  -1.619943e+06   3.089299e+05
  -1.076904e+06  -9.387093e+05
   7.744406e+05  -1.946448e+06
   2.407702e+06  -1.825702e+06
   2.585504e+06  -3.880934e+05
   1.459467e+06   1.503586e+06
   1.766231e+05   2.529664e+06
  -3.923356e+05   2.160503e+06
  -3.777014e+05   1.171784e+06
  -4.671592e+05   6.505665e+05
  -9.912531e+05   6.664484e+05
  -1.571135e+06   3.570878e+05
  -1.564545e+06  -6.885764e+05
  -7.276175e+05  -1.655638e+06
   5.141854e+05  -1.420086e+06
   1.326957e+06   2.870732e+04
   1.062674e+06   1.454431e+06
  -1.745650e+05   1.635037e+06
  -1.470550e+06   5.174907e+05
  -1.800155e+06  -8.927634e+05
  -9.776376e+05  -1.576360e+06
   1.571022e+05  -1.341977e+06
   6.626150e+05  -7.723132e+05
   5.423623e+05  -5.017617e+05
   6.331408e+05  -5.819409e+05
   1.413410e+06  -5.099186e+05
   2.209050e+06   1.685766e+05
   1.864577e+06   1.306194e+06
   1.531756e+05   2.185271e+06
  -1.753128e+06   2.093643e+06
  -2.366054e+06   9.507289e+05
  -1.352430e+06  -5.234625e+05
   1.819642e+05  -1.296675e+06
   8.421094e+05  -8.883419e+05
   2.711927e+05   1.333820e+05
  -6.746382e+05   6.554372e+05
  -9.435551e+05   1.856602e+05
  -3.463156e+05  -5.869793e+05
   3.842089e+05  -6.169596e+05
   4.404006e+05   1.714780e+05
  -2.538507e+05   7.066910e+05
  -1.009644e+06   5.497771e+04
  -1.013388e+06  -1.370648e+06
  -2.698265e+04  -2.167149e+06
   1.373796e+06  -1.445625e+06
   2.184815e+06   2.546516e+05
   1.761199e+06   1.574602e+06
   4.204743e+05   1.664709e+06
  -7.606309e+05   8.369211e+05
  -9.254449e+05   5.980863e+04
  -2.701491e+05  -2.399437e+04
   2.123203e+05   3.992429e+05
  -1.320629e+05   6.534694e+05
  -8.772821e+05   3.265260e+05
  -1.046387e+06  -3.199856e+05
  -3.029391e+05  -6.606807e+05
   5.941183e+05  -3.760731e+05
   6.150125e+05   2.200302e+05
  -3.659736e+05   4.951815e+05
  -1.362429e+06   9.857120e+04
  -1.275854e+06  -7.161272e+05
  -4.213252e+04  -1.288221e+06
   1.278406e+06  -1.094158e+06
   1.550946e+06  -2.278114e+05
   6.633527e+05   6.093111e+05
  -4.329499e+05   7.143253e+05
  -7.140713e+05   9.034886e+04
  -4.845961e+04  -5.146686e+05
   7.919574e+05  -3.924669e+05
   9.619358e+05   3.418955e+05
   3.286128e+05   8.878262e+05
  -4.845878e+05   6.778971e+05
  -7.350466e+05  -6.599610e+02
  -2.631501e+05  -3.774842e+05
   3.584916e+05  -7.021599e+04
   3.832358e+05   5.408183e+05
  -3.289670e+05   7.581380e+05
  -1.099431e+06   2.706926e+05
  -1.095970e+06  -5.757998e+05
  -2.285310e+05  -1.107994e+06
   7.224728e+05  -9.108391e+05
   9.237424e+05  -1.816975e+05
   3.384754e+05   4.464322e+05
  -3.244372e+05   4.852609e+05
  -4.230391e+05   4.210649e+04
  -4.062182e+03  -3.320670e+05
   3.713478e+05  -2.580165e+05
   2.819838e+05   6.943603e+04
  -1.349921e+05   1.480127e+05
  -3.546952e+05  -2.108071e+05
  -8.555298e+03  -6.246608e+05
   7.049545e+05  -5.354195e+05
   1.142587e+06   1.820817e+05
   8.154250e+05   1.040101e+06
  -9.859145e+04   1.361828e+06
  -8.951854e+05   8.921815e+05
  -1.033330e+06   2.170466e+04
  -6.291761e+05  -5.814045e+05
  -2.235597e+05  -5.842189e+05
  -1.431921e+05  -2.542238e+05
  -2.053741e+05  -1.097727e+05
  -3.782320e+04  -3.229135e+05
   4.252665e+05  -5.291156e+05
   8.195433e+05  -2.709745e+05
   6.888026e+05   4.120195e+05
  -5.378586e+04   9.255803e+05
  -9.498524e+05   6.962064e+05
  -1.293819e+06  -2.176284e+05
  -7.204546e+05  -1.123055e+06
   4.201202e+05  -1.309811e+06
   1.309761e+06  -6.777706e+05
   1.363213e+06   2.200524e+05
   7.097534e+05   7.269232e+05
  -1.538607e+04   6.688240e+05
  -3.125395e+05   4.156423e+05
  -2.198392e+05   3.969929e+05
  -1.342276e+05   6.071640e+05
  -3.255953e+05   6.322069e+05
  -6.523861e+05   1.604938e+05
  -7.205336e+05  -5.963908e+05
  -3.089017e+05  -1.049502e+06
   3.483359e+05  -8.002100e+05
   7.238592e+05  -3.457266e+04
   4.950556e+05   6.473261e+05
  -1.134484e+05   7.676161e+05
  -5.372714e+05   3.431280e+05
  -4.449871e+05  -2.141248e+05
  -5.663989e+04  -5.060524e+05
   1.465880e+05  -4.598424e+05
  -1.332043e+04  -2.900652e+05
  -2.135500e+05  -2.126021e+05
  -1.784846e+04  -2.228984e+05
   5.820239e+05  -1.452507e+05
   1.071521e+06   1.336645e+05
   9.021216e+05   5.082253e+05
   8.205830e+04   7.280216e+05
  -7.629591e+05   6.169143e+05
  -9.739957e+05   2.349206e+05
  -5.009193e+05  -1.489098e+05
   9.117962e+04  -2.622879e+05
   2.514546e+05  -7.168194e+04
  -1.524613e+04   1.602099e+05
  -2.808969e+05   1.223277e+05
  -2.534531e+05  -1.885987e+05
  -5.622059e+04  -4.205292e+05
   2.583039e+04  -2.682555e+05
  -8.625014e+04   1.123335e+05
  -2.197904e+05   2.366603e+05
  -1.698476e+05  -1.150748e+05
   1.142394e+05  -5.731605e+05
   4.831453e+05  -5.793173e+05
   6.473979e+05  -5.243566e+04
   3.755603e+05   4.999551e+05
  -2.197518e+05   5.516288e+05
  -6.325561e+05   1.123531e+05
  -3.949265e+05  -3.406105e+05
   3.630626e+05  -3.819300e+05
   9.214421e+05  -4.969315e+03
   6.800049e+05   4.522605e+05
  -1.791416e+05   6.267027e+05
  -8.563772e+05   3.981745e+05
  -7.674865e+05  -3.521295e+04
  -1.227512e+05  -3.071509e+05
   3.507445e+05  -1.968734e+05
   1.895586e+05   1.328171e+05
  -3.608657e+05   2.514930e+05
  -6.487179e+05  -1.020017e+05
  -3.009128e+05  -6.850130e+05
   4.121235e+05  -9.157377e+05
   8.669802e+05  -4.397694e+05
   6.991376e+05   4.525394e+05
   1.060309e+05   1.023343e+06
  -4.147721e+05   7.743477e+05
  -5.385064e+05  -4.328271e+04
  -3.034781e+05  -6.632616e+05
   5.008567e+04  -5.893500e+05
   2.956829e+05  -8.119697e+04
   3.151432e+05   2.243150e+05
   1.492116e+05   9.724179e+04
   6.177290e+03  -7.264346e+04
   7.893699e+04   1.225696e+05
   2.609012e+05   5.243172e+05
   1.798178e+05   6.230233e+05
  -3.231916e+05   2.412909e+05
  -8.442899e+05  -2.597113e+05
  -7.888574e+05  -4.698108e+05
  -1.149709e+05  -3.791926e+05
   5.351866e+05  -2.294350e+05
   5.757469e+05  -1.261471e+05
   1.573618e+05  -6.664387e+03
  -1.034186e+05   1.205867e+05
   4.420180e+04   1.511706e+05
   2.172807e+05   9.306819e+04
   1.512311e+03   7.749792e+04
  -4.448811e+05   1.025233e+05
  -5.777178e+05  -2.823460e+04
  -1.405452e+05  -3.730779e+05
   5.384829e+05  -6.144852e+05
   9.060976e+05  -3.713350e+05
   7.030558e+05   2.810144e+05
   1.225388e+05   7.996846e+05
  -4.142504e+05   7.466042e+05
  -5.858820e+05   2.524013e+05
  -3.747750e+05  -1.700027e+05
  -4.506765e+04  -1.985443e+05
   9.612541e+04   5.267660e+03
  -2.561724e+04   5.573992e+04
  -1.996528e+05  -1.877263e+05
  -1.635497e+05  -4.544538e+05
   1.154729e+05  -3.654803e+05
   3.925502e+05   1.150951e+05
   3.695675e+05   5.779366e+05
  -1.097964e+04   5.682620e+05
  -4.591714e+05   7.204731e+04
  -5.530048e+05  -4.649881e+05
  -1.483719e+05  -6.064057e+05
   4.106445e+05  -3.285838e+05
   5.936385e+05   6.392116e+04
   2.606703e+05   3.005238e+05
  -1.566650e+05   3.212183e+05
  -1.617550e+05   1.932100e+05
   1.938015e+05   3.101461e+04
   3.780451e+05  -8.959738e+03
   6.130952e+04   1.612122e+05
  -4.657404e+05   3.840073e+05
  -6.610766e+05   3.411683e+05
  -3.714221e+05  -5.619296e+04
   6.243094e+04  -4.634860e+05
   2.630222e+05  -4.553787e+05
   1.809961e+05  -4.996350e+04
  -3.421590e+03   2.903297e+05
  -1.455118e+05   2.112368e+05
  -1.971543e+05  -1.344870e+05
  -1.308594e+05  -3.260626e+05
   4.354824e+04  -1.922374e+05
   2.154697e+05   4.924644e+04
   2.484664e+05   1.239766e+05
   1.358995e+05   2.395300e+04
   5.276853e+03  -4.365660e+04
  -4.872115e+04   5.695643e+04
  -6.665424e+04   2.273058e+05
  -1.281003e+05   2.480395e+05
  -2.077360e+05   2.706593e+04
  -1.845653e+05  -2.722059e+05
   6.102708e+03  -3.675049e+05
   2.549314e+05  -1.472032e+05
   3.346563e+05   1.927391e+05
   1.114716e+05   3.415769e+05
  -2.708038e+05   1.942247e+05
  -4.623513e+05  -6.953371e+04
  -2.504071e+05  -2.151564e+05
   1.655573e+05  -1.842624e+05
   3.437197e+05  -7.744659e+04
   1.005478e+05  -1.921402e+03
  -2.477266e+05  -6.839085e+03
  -2.470305e+05  -9.564642e+04
   1.426244e+05  -1.935058e+05
   4.917829e+05  -1.414238e+05
