
 $NMID
 id='ANONYMOUS ', fmtdat='(2E16.6)'
 volume=1.0
 tramp=1.0
 $END
   3.322264e+07   7.130570e+05
   2.115102e+07   1.843745e+07
  -2.344600e+06   2.194640e+07
  -1.580377e+07   1.142243e+07
  -1.138729e+07  -1.434827e+06
   5.570436e+05  -5.949695e+06
   6.576384e+06  -1.196667e+06
   3.501615e+06   5.799864e+06
  -2.845892e+06   7.649264e+06
  -6.241607e+06   2.680276e+06
  -4.753853e+06  -4.199823e+06
  -3.831910e+05  -6.199667e+06
   2.866808e+06  -1.448218e+06
   1.896960e+06   4.756983e+06
  -2.357458e+06   5.509808e+06
  -5.280794e+06  -1.494530e+05
  -3.334547e+06  -6.512019e+06
   2.082250e+06  -7.764412e+06
   6.340486e+06  -3.615391e+06
   6.398594e+06   1.767681e+06
   3.163846e+06   4.587469e+06
  -9.686820e+04   4.265870e+06
  -8.057583e+05   2.774281e+06
   7.815104e+05   2.351722e+06
   1.702277e+06   3.436467e+06
  -7.186067e+05   4.211290e+06
  -5.302224e+06   2.613723e+06
  -7.477167e+06  -9.401534e+05
  -4.438542e+06  -3.599567e+06
   1.074971e+06  -3.229896e+06
   3.683738e+06  -6.965193e+05
   1.516767e+06   1.430362e+06
  -2.191137e+06   1.518599e+06
  -3.458823e+06  -2.814008e+05
  -1.718756e+06  -2.653588e+06
   7.384908e+05  -3.699088e+06
   1.820177e+06  -2.104967e+06
   1.207674e+06   9.652883e+05
  -3.660776e+04   2.186542e+06
  -4.393230e+05  -4.195049e+04
   6.775333e+05  -2.824311e+06
   2.187802e+06  -2.036708e+06
   1.940568e+06   1.882896e+06
  -6.498474e+05   3.930908e+06
  -3.267896e+06   1.031856e+06
  -2.892294e+06  -3.740829e+06
   7.457895e+05  -4.979322e+06
   4.582171e+06  -1.440725e+06
   5.169693e+06   3.089872e+06
   1.897401e+06   4.570156e+06
  -2.534205e+06   2.502870e+06
  -4.482682e+06  -7.099728e+05
  -2.517881e+06  -2.472724e+06
   1.243702e+06  -1.798721e+06
   3.116484e+06   2.871582e+05
   1.610827e+06   1.627597e+06
  -1.029468e+06   9.526664e+05
  -1.571118e+06  -7.050560e+05
   3.228018e+05  -1.203562e+06
   1.874202e+06   8.259949e+04
   7.953403e+05   1.591490e+06
  -1.943888e+06   1.577718e+06
  -3.380386e+06  -8.713843e+04
  -1.839958e+06  -2.254916e+06
   1.597947e+06  -3.627620e+06
   4.398701e+06  -3.189222e+06
   4.747971e+06  -6.411615e+05
   2.769428e+06   2.764110e+06
   2.013992e+05   4.651136e+06
  -1.162618e+06   3.829960e+06
  -1.056342e+06   1.746963e+06
  -7.408188e+05   6.878804e+05
  -1.316028e+06   9.046002e+05
  -2.351263e+06   6.552087e+05
  -2.500391e+06  -9.787667e+05
  -1.178438e+06  -2.576533e+06
   7.902896e+05  -2.189679e+06
   1.995822e+06   1.518035e+05
   1.540655e+06   2.419820e+06
  -3.954389e+05   2.705532e+06
  -2.531926e+06   8.815322e+05
  -3.212308e+06  -1.572338e+06
  -1.845684e+06  -2.955867e+06
   3.164072e+05  -2.683005e+06
   1.447230e+06  -1.577954e+06
   1.284615e+06  -8.679288e+05
   1.316477e+06  -8.258672e+05
   2.541899e+06  -5.831538e+05
   3.791607e+06   6.566040e+05
   3.018333e+06   2.516407e+06
  -3.440104e+04   3.735441e+06
  -3.202972e+06   3.338562e+06
  -4.053138e+06   1.420320e+06
  -2.249644e+06  -8.943083e+05
   3.061361e+05  -2.111678e+06
   1.395446e+06  -1.471641e+06
   4.471541e+05   1.913530e+05
  -1.166871e+06   1.044240e+06
  -1.643196e+06   2.273024e+05
  -5.915020e+05  -1.045319e+06
   6.564599e+05  -9.840550e+05
   6.160813e+05   3.588558e+05
  -6.696223e+05   1.011837e+06
  -1.727102e+06  -3.806533e+05
  -1.260667e+06  -2.699581e+06
   6.273934e+05  -3.549094e+06
   2.673915e+06  -1.903861e+06
   3.508157e+06   9.444616e+05
   2.551469e+06   2.849893e+06
   4.264233e+05   2.754478e+06
  -1.346441e+06   1.306595e+06
  -1.538111e+06   2.604604e+04
  -4.550355e+05  -6.975491e+04
   3.008357e+05   7.004998e+05
  -3.391120e+05   1.119548e+06
  -1.587191e+06   4.469357e+05
  -1.755357e+06  -7.282772e+05
  -3.957006e+05  -1.191474e+06
   1.057964e+06  -5.268900e+05
   9.374172e+05   4.587334e+05
  -7.367770e+05   6.848074e+05
  -2.238115e+06  -1.400483e+05
  -1.911877e+06  -1.385513e+06
   1.752870e+05  -2.082798e+06
   2.283920e+06  -1.603738e+06
   2.628719e+06  -1.677709e+05
   1.054472e+06   1.138137e+06
  -8.360992e+05   1.205245e+06
  -1.274592e+06   8.559629e+04
  -5.411254e+04  -8.995837e+05
   1.393307e+06  -5.724872e+05
   1.570910e+06   7.267845e+05
   3.851310e+05   1.542071e+06
  -9.468534e+05   1.019708e+06
  -1.214616e+06  -1.644652e+05
  -3.378082e+05  -6.839637e+05
   6.443151e+05  -4.808572e+04
   5.813463e+05   9.774608e+05
  -6.467289e+05   1.244464e+06
  -1.888166e+06   3.317326e+05
  -1.788070e+06  -1.102715e+06
  -2.471227e+05  -1.909006e+06
   1.354630e+06  -1.449363e+06
   1.589743e+06  -1.738500e+05
   4.918364e+05   7.991726e+05
  -6.153764e+05   7.545831e+05
  -6.729865e+05   2.189909e+04
   7.556760e+04  -4.887794e+05
   6.117864e+05  -3.094540e+05
   3.562756e+05   1.449557e+05
  -3.123487e+05   1.416354e+05
  -5.461788e+05  -4.838897e+05
   1.227109e+05  -1.076543e+06
   1.286048e+06  -7.990320e+05
   1.909037e+06   4.685922e+05
   1.247299e+06   1.867579e+06
  -3.364200e+05   2.272288e+06
  -1.611989e+06   1.345360e+06
  -1.698611e+06  -1.286061e+05
  -9.204609e+05  -1.013877e+06
  -2.855764e+05  -9.043552e+05
  -2.698108e+05  -3.813300e+05
  -4.037454e+05  -2.422846e+05
  -3.195066e+04  -6.038002e+05
   8.153653e+05  -8.319401e+05
   1.415233e+06  -3.115163e+05
   1.063061e+06   7.807252e+05
  -2.484819e+05   1.503115e+06
  -1.693312e+06   1.008640e+06
  -2.132013e+06  -5.494857e+05
  -1.032424e+06  -1.998028e+06
   9.324659e+05  -2.154960e+06
   2.333857e+06  -9.339579e+05
   2.239947e+06   6.017889e+05
   1.021473e+06   1.315058e+06
  -1.546882e+05   1.054034e+06
  -5.301355e+05   5.970560e+05
  -3.304930e+05   6.505628e+05
  -2.573342e+05   1.063002e+06
  -6.429700e+05   1.066862e+06
  -1.148111e+06   2.020230e+05
  -1.152453e+06  -1.089524e+06
  -3.957614e+05  -1.802349e+06
   6.780147e+05  -1.302840e+06
   1.215099e+06   4.550381e+04
   7.336599e+05   1.179698e+06
  -3.324638e+05   1.281904e+06
  -9.980556e+05   4.554333e+05
  -7.265031e+05  -4.993536e+05
   2.672739e+04  -9.039234e+05
   3.766081e+05  -7.429767e+05
   4.077421e+04  -4.597973e+05
  -3.501820e+05  -3.718815e+05
  -1.162725e+04  -3.752153e+05
   1.027747e+06  -1.617076e+05
   1.827687e+06   3.794801e+05
   1.455887e+06   9.970282e+05
  -1.630889e+03   1.267776e+06
  -1.417193e+06   9.548654e+05
  -1.686941e+06   2.407158e+05
  -8.050037e+05  -3.715701e+05
   2.120054e+05  -4.582323e+05
   4.491012e+05  -6.430347e+04
  -2.722647e+04   3.083540e+05
  -4.704738e+05   1.877726e+05
  -4.144776e+05  -3.474402e+05
  -9.072507e+04  -7.073299e+05
   3.350267e+04  -4.483849e+05
  -1.547235e+05   1.496487e+05
  -3.668674e+05   3.333634e+05
  -2.639656e+05  -2.261003e+05
   2.446532e+05  -9.428950e+05
   8.944773e+05  -9.240912e+05
   1.154825e+06  -3.096600e+04
   6.237048e+05   8.929506e+05
  -4.422258e+05   9.454949e+05
  -1.114770e+06   1.538843e+05
  -6.335730e+05  -6.084977e+05
   6.699510e+05  -5.908426e+05
   1.533516e+06   1.281048e+05
   1.030801e+06   8.554223e+05
  -4.213759e+05   9.956822e+05
  -1.476725e+06   5.023878e+05
  -1.245324e+06  -1.860207e+05
  -1.457185e+05  -5.199882e+05
   6.177379e+05  -2.648876e+05
   3.144851e+05   2.619508e+05
  -6.190327e+05   4.012179e+05
  -1.085428e+06  -2.175533e+05
  -4.662224e+05  -1.174147e+06
   7.544195e+05  -1.513048e+06
   1.489205e+06  -6.712833e+05
   1.127090e+06   8.252645e+05
   6.590055e+04   1.722721e+06
  -7.860246e+05   1.228169e+06
  -8.890739e+05  -1.651328e+05
  -3.992414e+05  -1.152160e+06
   1.926202e+05  -9.578061e+05
   5.166822e+05  -8.189450e+04
   4.735505e+05   4.063938e+05
   2.072487e+05   1.685801e+05
   2.936301e+04  -1.105911e+05
   1.602046e+05   2.398565e+05
   3.913105e+05   9.205077e+05
   1.909870e+05   1.055632e+06
  -6.129330e+05   3.560935e+05
  -1.379702e+06  -5.332633e+05
  -1.232922e+06  -8.788849e+05
  -1.432471e+05  -6.581894e+05
   8.947114e+05  -3.290284e+05
   9.688591e+05  -1.329464e+05
   2.903568e+05   2.813573e+04
  -1.745853e+05   1.947180e+05
   2.199525e+04   2.385085e+05
   3.157755e+05   1.586231e+05
   7.673104e+03   1.296616e+05
  -7.186343e+05   1.391829e+05
  -9.732263e+05  -1.014583e+05
  -2.518393e+05  -6.533335e+05
   9.371683e+05  -9.992511e+05
   1.593153e+06  -5.515298e+05
   1.202211e+06   5.307798e+05
   1.341612e+05   1.352951e+06
  -7.915117e+05   1.222715e+06
  -1.016769e+06   3.858599e+05
  -6.068151e+05  -3.061131e+05
  -6.961263e+04  -3.409169e+05
   1.289889e+05  -5.426959e+03
  -6.052389e+04   6.345036e+04
  -2.955296e+05  -3.489298e+05
  -2.080639e+05  -7.810396e+05
   2.268683e+05  -6.095399e+05
   6.404900e+05   2.101414e+05
   5.828784e+05   9.869394e+05
  -3.699929e+04   9.606838e+05
  -7.586220e+05   1.103139e+05
  -8.951220e+05  -8.073561e+05
  -2.098985e+05  -1.039801e+06
   7.218278e+05  -5.376360e+05
   1.011671e+06   1.616470e+05
   4.258138e+05   5.612620e+05
  -3.037050e+05   5.575085e+05
  -3.244585e+05   3.127839e+05
   2.903939e+05   5.684978e+04
   6.291442e+05   1.936375e+04
   9.761374e+04   2.855289e+05
  -8.242596e+05   5.916422e+05
  -1.176192e+06   4.759569e+05
  -6.514820e+05  -1.627761e+05
   1.517409e+05  -7.868988e+05
   5.216746e+05  -7.507295e+05
   3.457858e+05  -8.770743e+04
  -1.729384e+04   4.754584e+05
  -2.620730e+05   3.593925e+05
  -3.178025e+05  -2.165392e+05
  -1.908981e+05  -5.617786e+05
   8.681529e+04  -3.475416e+05
   3.593881e+05   9.194962e+04
   4.145927e+05   2.565475e+05
   2.256535e+05   7.368168e+04
  -4.489081e+02  -9.782497e+04
  -8.564134e+04   4.082925e+04
  -9.205806e+04   3.580022e+05
  -1.823979e+05   4.413039e+05
  -3.359280e+05   8.157338e+04
  -3.255663e+05  -4.426021e+05
  -6.860576e+03  -6.161706e+05
   4.296298e+05  -2.377056e+05
   5.654504e+05   3.397718e+05
   1.687778e+05   5.751660e+05
  -4.858349e+05   3.030139e+05
  -7.903243e+05  -1.519791e+05
  -4.085148e+05  -3.876603e+05
   2.986330e+05  -3.162831e+05
   5.960334e+05  -1.234584e+05
   1.942684e+05   2.802533e+03
  -3.826849e+05  -1.022022e+04
  -3.939330e+05  -1.503139e+05
   2.305477e+05  -2.912470e+05
   7.959008e+05  -1.913184e+05
