
 $NMID
 id='ANONYMOUS ', fmtdat='(2E16.6)'
 volume=1.0
 tramp=1.0
 $END
   4.922416e+07   1.990422e+06
   2.868011e+07   3.103079e+07
  -7.273086e+06   3.287626e+07
  -2.439270e+07   1.254854e+07
  -1.449103e+07  -5.978594e+06
   2.854020e+06  -8.123774e+06
   8.688284e+06   9.007145e+05
   2.562951e+06   8.586083e+06
  -5.464532e+06   8.454414e+06
  -8.588564e+06   1.808309e+06
  -6.078222e+06  -5.761968e+06
  -4.404357e+05  -7.820843e+06
   3.712336e+06  -2.245127e+06
   2.258446e+06   5.200620e+06
  -3.484112e+06   5.997961e+06
  -6.967192e+06  -1.252451e+06
  -3.731939e+06  -9.154444e+06
   3.630576e+06  -1.036426e+07
   9.104389e+06  -4.867132e+06
   9.394278e+06   2.277136e+06
   5.370464e+06   6.817081e+06
   1.820041e+05   7.395927e+06
  -2.549527e+06   4.981769e+06
  -1.246667e+06   2.419292e+06
   1.206647e+06   2.397454e+06
  -6.262807e+04   4.093809e+06
  -5.358874e+06   3.738662e+06
  -8.919011e+06  -1.106295e+05
  -6.132239e+06  -4.103231e+06
   2.222315e+05  -4.535085e+06
   3.714518e+06  -1.986645e+06
   2.224666e+06   4.047528e+05
  -9.663488e+05   1.087650e+06
  -2.528248e+06   2.830128e+05
  -2.023786e+06  -1.742920e+06
  -2.422129e+05  -3.821734e+06
   1.887195e+06  -3.289590e+06
   2.682673e+06   4.344643e+05
   1.131842e+06   3.275113e+06
  -7.689169e+05   1.376232e+06
  -5.264904e+04  -2.512649e+06
   2.378744e+06  -2.117342e+06
   2.156675e+06   2.857146e+06
  -2.118008e+06   5.336059e+06
  -5.890854e+06   7.469375e+05
  -4.213306e+06  -6.133054e+06
   1.847809e+06  -7.364252e+06
   6.610772e+06  -1.885875e+06
   6.201474e+06   4.188748e+06
   1.642977e+06   5.550220e+06
  -3.218070e+06   2.491426e+06
  -4.877423e+06  -1.419012e+06
  -2.280513e+06  -3.201859e+06
   2.129105e+06  -1.965064e+06
   4.032345e+06   8.776056e+05
   1.730453e+06   2.438956e+06
  -1.547001e+06   1.182285e+06
  -1.624854e+06  -9.646583e+05
   1.056567e+06  -9.131553e+05
   2.186512e+06   1.368520e+06
  -3.747804e+05   2.851892e+06
  -3.898441e+06   1.606019e+06
  -4.629888e+06  -1.174047e+06
  -2.009172e+06  -3.512780e+06
   1.859713e+06  -4.680504e+06
   4.871794e+06  -4.188707e+06
   5.743222e+06  -1.263004e+06
   3.943644e+06   3.122969e+06
   5.682666e+05   5.681143e+06
  -1.771111e+06   4.359578e+06
  -1.560512e+06   1.258520e+06
  -2.700162e+05  -9.712363e+03
  -3.177896e+05   9.719900e+05
  -1.809641e+06   1.459635e+06
  -2.707171e+06  -1.244863e+05
  -1.754485e+06  -2.105996e+06
   2.142692e+05  -2.132142e+06
   1.641482e+06  -9.749571e+04
   1.576109e+06   2.149781e+06
  -1.592366e+05   2.823424e+06
  -2.699367e+06   1.365518e+06
  -4.043017e+06  -1.380599e+06
  -2.707734e+06  -3.576030e+06
   2.344394e+05  -3.754650e+06
   2.106572e+06  -2.302585e+06
   1.978590e+06  -9.700552e+05
   1.673867e+06  -6.477594e+05
   2.782865e+06  -4.203517e+05
   4.093002e+06   8.258515e+05
   3.226182e+06   2.730324e+06
  -1.179205e+04   3.947299e+06
  -3.232514e+06   3.608633e+06
  -4.117029e+06   1.812652e+06
  -2.506306e+06  -5.930103e+05
  -8.052445e+04  -2.179450e+06
   1.202759e+06  -1.767696e+06
   5.301149e+05   8.743566e+04
  -1.119026e+06   1.199234e+06
  -1.819938e+06   3.023162e+05
  -7.953013e+05  -1.172401e+06
   5.687897e+05  -1.055566e+06
   4.568183e+05   3.777388e+05
  -9.564553e+05   7.239999e+05
  -1.733777e+06  -1.089423e+06
  -6.764897e+05  -3.223629e+06
   1.405538e+06  -3.307538e+06
   2.967074e+06  -1.188344e+06
   3.234473e+06   1.368828e+06
   2.226043e+06   2.766914e+06
   3.800081e+05   2.597455e+06
  -1.276676e+06   1.369660e+06
  -1.546529e+06   1.385666e+05
  -4.737311e+05  -6.361253e+04
   3.198016e+05   7.349564e+05
  -4.248866e+05   1.253422e+06
  -1.814731e+06   4.854213e+05
  -1.907384e+06  -8.897637e+05
  -3.419059e+05  -1.349134e+06
   1.137999e+06  -5.214042e+05
   8.721473e+05   4.656540e+05
  -8.134199e+05   5.212624e+05
  -2.133408e+06  -3.261599e+05
  -1.710407e+06  -1.372647e+06
   2.735562e+05  -1.945163e+06
   2.296876e+06  -1.550625e+06
   2.694786e+06  -1.723057e+05
   1.123418e+06   1.247460e+06
  -9.272130e+05   1.384341e+06
  -1.475851e+06   1.185003e+05
  -1.359065e+05  -1.029535e+06
   1.482079e+06  -6.475950e+05
   1.632232e+06   8.010393e+05
   2.962419e+05   1.604173e+06
  -1.064088e+06   9.356098e+05
  -1.212835e+06  -3.079824e+05
  -2.391128e+05  -7.506516e+05
   7.494401e+05  -3.066168e+04
   6.619614e+05   1.036273e+06
  -6.167675e+05   1.344432e+06
  -1.959172e+06   4.355590e+05
  -1.917779e+06  -1.095854e+06
  -2.916136e+05  -2.011576e+06
   1.440427e+06  -1.531333e+06
   1.670948e+06  -1.501845e+05
   4.667892e+05   8.517358e+05
  -6.584393e+05   7.606447e+05
  -6.329793e+05   4.966635e+04
   1.117139e+05  -3.746288e+05
   5.067275e+05  -2.155325e+05
   1.670377e+05   7.615032e+04
  -4.027800e+05  -4.729721e+04
  -4.887517e+05  -6.324961e+05
   2.195763e+05  -1.130945e+06
   1.358707e+06  -8.178742e+05
   1.992951e+06   4.741655e+05
   1.338345e+06   1.929956e+06
  -3.022750e+05   2.337464e+06
  -1.618983e+06   1.327302e+06
  -1.652513e+06  -1.682944e+05
  -8.308812e+05  -9.227716e+05
  -2.924397e+05  -6.983887e+05
  -4.227905e+05  -2.646125e+05
  -5.580719e+05  -3.135764e+05
  -5.241579e+04  -7.185828e+05
   8.706587e+05  -8.417639e+05
   1.417715e+06  -2.749091e+05
   1.009928e+06   7.452834e+05
  -2.822592e+05   1.428573e+06
  -1.707607e+06   9.897661e+05
  -2.164551e+06  -5.474030e+05
  -1.032222e+06  -2.066142e+06
   1.038851e+06  -2.245048e+06
   2.475808e+06  -9.189704e+05
   2.260239e+06   6.978785e+05
   9.129777e+05   1.328964e+06
  -2.135976e+05   9.401498e+05
  -4.198339e+05   5.094337e+05
  -1.482566e+05   7.207809e+05
  -1.711536e+05   1.232021e+06
  -6.892837e+05   1.199469e+06
  -1.248334e+06   2.522752e+05
  -1.245319e+06  -1.097488e+06
  -4.628808e+05  -1.853873e+06
   6.592702e+05  -1.365746e+06
   1.245178e+06   4.504846e+04
   7.438647e+05   1.258140e+06
  -4.096000e+05   1.332127e+06
  -1.114621e+06   3.724394e+05
  -7.539940e+05  -6.666077e+05
   1.337526e+05  -1.013146e+06
   5.147622e+05  -7.397197e+05
   8.437559e+04  -4.124034e+05
  -3.996565e+05  -3.486721e+05
  -3.883902e+04  -3.758215e+05
   1.106683e+06  -1.629777e+05
   1.964710e+06   3.932916e+05
   1.523008e+06   1.051931e+06
  -7.088856e+04   1.369562e+06
  -1.555417e+06   1.035178e+06
  -1.772325e+06   2.136896e+05
  -7.943702e+05  -4.824798e+05
   2.635643e+05  -5.275611e+05
   4.886697e+05  -2.367547e+04
   5.063089e+03   3.929899e+05
  -4.469977e+05   2.286354e+05
  -4.499429e+05  -3.497620e+05
  -1.993246e+05  -7.144917e+05
  -5.773688e+04  -4.686024e+05
  -1.385118e+05   9.868023e+04
  -2.944930e+05   2.873764e+05
  -2.598528e+05  -2.330527e+05
   1.832068e+05  -9.540851e+05
   9.083272e+05  -9.929541e+05
   1.302439e+06  -1.063647e+05
   7.693365e+05   9.169601e+05
  -4.441762e+05   1.070177e+06
  -1.217905e+06   2.629572e+05
  -6.860602e+05  -5.871810e+05
   6.995707e+05  -6.041767e+05
   1.540384e+06   1.438548e+05
   9.617056e+05   8.689968e+05
  -4.904321e+05   9.516404e+05
  -1.472480e+06   4.284638e+05
  -1.199850e+06  -2.198433e+05
  -1.184436e+05  -5.062195e+05
   6.368771e+05  -2.434175e+05
   3.563926e+05   2.943588e+05
  -5.921565e+05   4.779886e+05
  -1.142188e+06  -1.309504e+05
  -5.965874e+05  -1.174004e+06
   6.461019e+05  -1.625297e+06
   1.477127e+06  -7.978702e+05
   1.190726e+06   7.843740e+05
   1.303076e+05   1.748368e+06
  -7.655219e+05   1.234743e+06
  -8.928502e+05  -1.984585e+05
  -3.813552e+05  -1.170873e+06
   2.399929e+05  -9.360637e+05
   5.455471e+05  -6.411419e+04
   4.440836e+05   3.840574e+05
   1.598989e+05   1.405309e+05
   4.823011e+04  -9.252312e+04
   2.521179e+05   2.934589e+05
   4.565878e+05   9.548494e+05
   1.531501e+05   1.054264e+06
  -7.002364e+05   3.578643e+05
  -1.416099e+06  -5.045757e+05
  -1.218103e+06  -8.577214e+05
  -1.547748e+05  -6.835062e+05
   8.477947e+05  -3.768534e+05
   9.632113e+05  -1.435634e+05
   3.445991e+05   6.276437e+04
  -1.507874e+05   2.140650e+05
  -3.759628e+04   1.991102e+05
   2.580950e+05   1.019143e+05
   4.315072e+04   1.314175e+05
  -6.545373e+05   2.062836e+05
  -1.016043e+06  -4.776531e+04
  -3.926025e+05  -6.882261e+05
   8.603500e+05  -1.115238e+06
   1.675935e+06  -6.750416e+05
   1.354659e+06   4.689809e+05
   2.196846e+05   1.375983e+06
  -7.912602e+05   1.309662e+06
  -1.038215e+06   4.869581e+05
  -6.296721e+05  -2.476651e+05
  -1.177222e+05  -3.529274e+05
   7.183844e+04  -6.286904e+04
  -7.836437e+04   1.350204e+04
  -2.793857e+05  -3.665096e+05
  -2.134687e+05  -7.927862e+05
   1.963516e+05  -6.543992e+05
   6.586834e+05   1.384609e+05
   6.893378e+05   9.480067e+05
   8.128881e+04   1.007625e+06
  -7.398298e+05   2.197778e+05
  -9.850362e+05  -7.312336e+05
  -3.058137e+05  -1.070643e+06
   7.147621e+05  -6.379080e+05
   1.085962e+06   1.074932e+05
   4.975665e+05   6.138246e+05
  -3.013762e+05   6.517485e+05
  -3.820628e+05   3.449645e+05
   2.384989e+05   1.458062e+04
   6.319683e+05  -1.857550e+04
   1.334166e+05   3.048329e+05
  -8.233305e+05   6.334559e+05
  -1.241958e+06   4.824006e+05
  -7.368823e+05  -1.996001e+05
   1.208853e+05  -8.430776e+05
   5.662295e+05  -8.148983e+05
   4.225250e+05  -1.450115e+05
   3.969406e+04   4.667316e+05
  -2.458723e+05   4.178127e+05
  -3.386878e+05  -1.506447e+05
  -2.300105e+05  -5.688698e+05
   6.431700e+04  -4.168977e+05
   3.793493e+05   5.370155e+04
   4.541780e+05   2.897895e+05
   2.321032e+05   1.031793e+05
  -2.967092e+04  -1.501054e+05
  -7.731227e+04  -5.011236e+04
   6.691331e+03   3.432722e+05
  -5.905709e+04   5.394712e+05
  -3.163256e+05   2.104313e+05
  -4.406500e+05  -3.792032e+05
  -1.403763e+05  -6.356876e+05
   4.046071e+05  -2.964018e+05
   6.412056e+05   2.890707e+05
   2.326917e+05   5.637618e+05
  -5.054239e+05   3.407898e+05
  -8.589201e+05  -9.773771e+04
  -4.561527e+05  -3.812440e+05
   2.980181e+05  -3.840452e+05
   6.302419e+05  -2.072327e+05
   2.479480e+05  -1.040686e+04
  -3.342944e+05   6.180179e+04
  -3.938234e+05  -6.762434e+04
   1.665074e+05  -2.762333e+05
   7.232070e+05  -2.448456e+05
