
 $NMID
 id='ANONYMOUS ', fmtdat='(2E16.6)'
 volume=1.0
 tramp=1.0
 $END
   5.083157e+07   1.133533e+05
   3.061394e+07   3.099396e+07
  -6.385649e+06   3.414021e+07
  -2.460989e+07   1.366452e+07
  -1.497086e+07  -5.739369e+06
   2.717029e+06  -8.402229e+06
   8.881830e+06   7.144921e+05
   2.837332e+06   8.698674e+06
  -5.310646e+06   8.748730e+06
  -8.701860e+06   2.100815e+06
  -6.449961e+06  -5.648022e+06
  -7.882366e+05  -7.960291e+06
   3.703833e+06  -2.474437e+06
   2.536957e+06   5.160087e+06
  -3.310865e+06   6.205605e+06
  -7.168254e+06  -1.049227e+06
  -4.165332e+06  -9.236913e+06
   3.324531e+06  -1.076344e+07
   9.159839e+06  -5.373352e+06
   9.781233e+06   1.939636e+06
   5.854342e+06   6.822513e+06
   4.868914e+05   7.683177e+06
  -2.515579e+06   5.260147e+06
  -1.293348e+06   2.438619e+06
   1.326697e+06   2.251474e+06
   1.980515e+05   4.128959e+06
  -5.238400e+06   4.113707e+06
  -9.108277e+06   3.561474e+05
  -6.483475e+06  -3.907876e+06
  -2.819619e+04  -4.693234e+06
   3.674178e+06  -2.277540e+06
   2.340061e+06   2.366464e+05
  -8.064455e+05   1.141109e+06
  -2.466961e+06   4.844615e+05
  -2.173117e+06  -1.579851e+06
  -5.148754e+05  -3.861161e+06
   1.766184e+06  -3.493368e+06
   2.848433e+06   2.993015e+05
   1.362213e+06   3.354475e+06
  -7.724377e+05   1.526584e+06
  -2.468759e+05  -2.518609e+06
   2.301574e+06  -2.249152e+06
   2.296777e+06   2.847286e+06
  -2.024912e+06   5.538759e+06
  -6.088696e+06   9.439108e+05
  -4.577074e+06  -6.188968e+06
   1.650575e+06  -7.657770e+06
   6.729507e+06  -2.202737e+06
   6.494628e+06   4.020947e+06
   1.879425e+06   5.568126e+06
  -3.164414e+06   2.641246e+06
  -4.981904e+06  -1.252494e+06
  -2.408266e+06  -3.151765e+06
   2.118899e+06  -2.061729e+06
   4.149606e+06   7.583748e+05
   1.841804e+06   2.430879e+06
  -1.545652e+06   1.264610e+06
  -1.674889e+06  -9.108737e+05
   1.069450e+06  -9.217354e+05
   2.251020e+06   1.382064e+06
  -3.705865e+05   2.952235e+06
  -3.999007e+06   1.752983e+06
  -4.780500e+06  -1.072350e+06
  -2.172330e+06  -3.535956e+06
   1.683475e+06  -4.876341e+06
   4.750759e+06  -4.524243e+06
   5.806887e+06  -1.581070e+06
   4.205416e+06   3.002703e+06
   8.564069e+05   5.772952e+06
  -1.624075e+06   4.492439e+06
  -1.527477e+06   1.288070e+06
  -2.094604e+05  -3.609467e+04
  -1.918006e+05   1.031205e+06
  -1.728225e+06   1.639757e+06
  -2.770377e+06   7.221381e+04
  -1.927666e+06  -2.008201e+06
   6.217091e+04  -2.163947e+06
   1.622751e+06  -2.080700e+05
   1.699916e+06   2.061477e+06
  -4.401304e+03   2.860407e+06
  -2.671652e+06   1.540401e+06
  -4.204454e+06  -1.193147e+06
  -2.952616e+06  -3.531874e+06
   7.050742e+04  -3.873604e+06
   2.074531e+06  -2.460280e+06
   1.997965e+06  -1.063997e+06
   1.673517e+06  -7.113247e+05
   2.791663e+06  -5.424485e+05
   4.176076e+06   6.465298e+05
   3.390888e+06   2.605187e+06
   1.815938e+05   3.986126e+06
  -3.078576e+06   3.810959e+06
  -4.063089e+06   2.058235e+06
  -2.576838e+06  -4.541582e+05
  -2.184422e+05  -2.202776e+06
   1.112640e+06  -1.864312e+06
   5.449194e+05   5.688061e+04
  -1.066641e+06   1.273960e+06
  -1.829736e+06   3.933278e+05
  -8.687101e+05  -1.154779e+06
   5.148715e+05  -1.094595e+06
   4.632363e+05   3.563964e+05
  -9.425497e+05   7.433078e+05
  -1.778736e+06  -1.068117e+06
  -7.787309e+05  -3.232490e+06
   1.303754e+06  -3.351652e+06
   2.925662e+06  -1.276181e+06
   3.284365e+06   1.238846e+06
   2.351509e+06   2.651699e+06
   5.130832e+05   2.577108e+06
  -1.209755e+06   1.448012e+06
  -1.550159e+06   2.258621e+05
  -4.803977e+05  -3.985232e+04
   3.580889e+05   7.267213e+05
  -3.766347e+05   1.289446e+06
  -1.819902e+06   5.737741e+05
  -1.967828e+06  -8.182125e+05
  -3.993448e+05  -1.350301e+06
   1.126149e+06  -5.760970e+05
   8.941124e+05   4.259338e+05
  -7.951401e+05   5.507448e+05
  -2.148836e+06  -2.333088e+05
  -1.772486e+06  -1.288159e+06
   1.821132e+05  -1.955354e+06
   2.230789e+06  -1.668645e+06
   2.704610e+06  -3.062105e+05
   1.192721e+06   1.208055e+06
  -8.757229e+05   1.448477e+06
  -1.493839e+06   1.886815e+05
  -1.895267e+05  -1.040902e+06
   1.467283e+06  -7.275206e+05
   1.682721e+06   7.321966e+05
   3.675174e+05   1.599651e+06
  -1.030628e+06   9.817107e+05
  -1.229312e+06  -2.624111e+05
  -2.656332e+05  -7.458831e+05
   7.622182e+05  -6.286786e+04
   7.230949e+05   1.017762e+06
  -5.538379e+05   1.393163e+06
  -1.957586e+06   5.429856e+05
  -1.993883e+06  -1.008861e+06
  -3.942821e+05  -2.016941e+06
   1.380384e+06  -1.614812e+06
   1.676600e+06  -2.296336e+05
   5.062568e+05   8.360350e+05
  -6.286533e+05   7.953352e+05
  -6.307898e+05   8.314788e+04
   9.502965e+04  -3.730641e+05
   4.891458e+05  -2.372603e+05
   1.589182e+05   5.853427e+04
  -4.100514e+05  -4.379490e+04
  -5.156359e+05  -6.213377e+05
   1.723835e+05  -1.150431e+06
   1.331235e+06  -8.909197e+05
   2.034472e+06   3.790323e+05
   1.448362e+06   1.880432e+06
  -1.853186e+05   2.370502e+06
  -1.560352e+06   1.412908e+06
  -1.663693e+06  -8.820538e+04
  -8.757252e+05  -8.746191e+05
  -3.349313e+05  -6.689314e+05
  -4.545816e+05  -2.382500e+05
  -5.887252e+05  -2.968361e+05
  -8.891339e+04  -7.299002e+05
   8.366558e+05  -8.903002e+05
   1.410715e+06  -3.462240e+05
   1.050484e+06   6.929691e+05
  -2.116543e+05   1.443582e+06
  -1.667435e+06   1.079957e+06
  -2.206564e+06  -4.417915e+05
  -1.139452e+06  -2.031214e+06
   9.434476e+05  -2.313886e+06
   2.454292e+06  -1.042592e+06
   2.305591e+06   5.971881e+05
   9.740642e+05   1.288387e+06
  -1.699181e+05   9.443082e+05
  -3.847372e+05   5.283553e+05
  -9.899306e+04   7.423381e+05
  -1.070901e+05   1.263114e+06
  -6.398786e+05   1.249951e+06
  -1.251771e+06   3.177706e+05
  -1.314222e+06  -1.043716e+06
  -5.622950e+05  -1.846174e+06
   5.944346e+05  -1.411306e+06
   1.256440e+06  -1.591381e+04
   8.095018e+05   1.234584e+06
  -3.530108e+05   1.361822e+06
  -1.109887e+06   4.200171e+05
  -7.897682e+05  -6.474555e+05
   9.556807e+04  -1.032045e+06
   4.925351e+05  -7.658134e+05
   6.704287e+04  -4.133216e+05
  -4.242907e+05  -3.290328e+05
  -6.077771e+04  -3.763434e+05
   1.110914e+06  -2.180784e+05
   2.006382e+06   3.006741e+05
   1.588195e+06   9.874193e+05
  -1.138521e+04   1.387801e+06
  -1.525694e+06   1.122196e+06
  -1.777298e+06   2.987650e+05
  -8.188720e+05  -4.549515e+05
   2.444514e+05  -5.484095e+05
   4.924850e+05  -4.398816e+04
   2.631783e+04   4.025732e+05
  -4.358344e+05   2.563417e+05
  -4.726085e+05  -3.294516e+05
  -2.458602e+05  -7.106143e+05
  -8.916959e+04  -4.716135e+05
  -1.314804e+05   1.022568e+05
  -2.744658e+05   3.015559e+05
  -2.733420e+05  -2.215886e+05
   1.303299e+05  -9.709461e+05
   8.660422e+05  -1.050099e+06
   1.319073e+06  -1.760972e+05
   8.319550e+05   8.883473e+05
  -3.955688e+05   1.109072e+06
  -1.222238e+06   3.330443e+05
  -7.239986e+05  -5.546907e+05
   6.754125e+05  -6.427030e+05
   1.555173e+06   6.868651e+04
   1.003640e+06   8.245233e+05
  -4.500193e+05   9.754739e+05
  -1.456160e+06   4.980080e+05
  -1.212093e+06  -1.628165e+05
  -1.422153e+05  -5.009891e+05
   6.292648e+05  -2.739918e+05
   3.759327e+05   2.820994e+05
  -5.706502e+05   5.175510e+05
  -1.161478e+06  -6.802931e+04
  -6.699463e+05  -1.152744e+06
   5.605162e+05  -1.677826e+06
   1.445731e+06  -8.872694e+05
   1.242200e+06   7.260461e+05
   2.238189e+05   1.753788e+06
  -7.056141e+05   1.280102e+06
  -9.068802e+05  -1.577519e+05
  -4.399223e+05  -1.158982e+06
   1.983226e+05  -9.499979e+05
   5.475703e+05  -8.960449e+04
   4.634183e+05   3.612910e+05
   1.639827e+05   1.299490e+05
   4.518485e+04  -9.323389e+04
   2.752733e+05   2.890986e+05
   5.116488e+05   9.411766e+05
   2.030147e+05   1.050825e+06
  -6.937381e+05   3.929373e+05
  -1.452004e+06  -4.343523e+05
  -1.266022e+06  -7.986925e+05
  -1.904208e+05  -6.816118e+05
   8.296552e+05  -4.264432e+05
   9.604366e+05  -1.935860e+05
   3.536690e+05   4.997355e+04
  -1.390355e+05   2.247040e+05
  -3.230280e+04   1.970477e+05
   2.606010e+05   8.329642e+04
   5.322709e+04   1.310362e+05
  -6.430751e+05   2.475358e+05
  -1.028509e+06   6.756631e+03
  -4.410132e+05  -6.779947e+05
   8.041718e+05  -1.175700e+06
   1.660301e+06  -7.716777e+05
   1.399780e+06   4.008524e+05
   2.969794e+05   1.375484e+06
  -7.312796e+05   1.363726e+06
  -1.023064e+06   5.502027e+05
  -6.486173e+05  -2.126166e+05
  -1.401266e+05  -3.510418e+05
   6.509468e+04  -7.319364e+04
  -7.870326e+04   1.265153e+04
  -2.973537e+05  -3.556900e+05
  -2.543390e+05  -7.873745e+05
   1.629603e+05  -6.721369e+05
   6.720345e+05   1.002660e+05
   7.504270e+05   9.169276e+05
   1.417327e+05   1.015045e+06
  -7.328881e+05   2.680492e+05
  -1.036001e+06  -6.803997e+05
  -3.689753e+05  -1.065228e+06
   6.876482e+05  -6.860698e+05
   1.104556e+06   5.020596e+04
   5.363040e+05   5.982480e+05
  -2.719625e+05   6.788085e+05
  -3.727671e+05   3.675935e+05
   2.363698e+05  -2.260776e+03
   6.351632e+05  -5.378151e+04
   1.522555e+05   3.020719e+05
  -7.964071e+05   6.815111e+05
  -1.230002e+06   5.461090e+05
  -7.574523e+05  -1.687399e+05
   7.764334e+04  -8.588841e+05
   5.335225e+05  -8.521362e+05
   4.254185e+05  -1.706209e+05
   6.862860e+04   4.673066e+05
  -2.257936e+05   4.378256e+05
  -3.510630e+05  -1.287956e+05
  -2.630267e+05  -5.615449e+05
   4.307980e+04  -4.289002e+05
   3.864294e+05   3.193532e+04
   4.737925e+05   2.723088e+05
   2.383792e+05   9.485033e+04
  -3.894358e+04  -1.547256e+05
  -7.765087e+04  -5.460652e+04
   3.313738e+04   3.452008e+05
  -2.307276e+04   5.563631e+05
  -3.080388e+05   2.393586e+05
  -4.734386e+05  -3.554724e+05
  -1.846390e+05  -6.361308e+05
   3.906077e+05  -3.239448e+05
   6.667168e+05   2.552450e+05
   2.681165e+05   5.551170e+05
  -4.933741e+05   3.708373e+05
  -8.753384e+05  -5.166709e+04
  -4.818926e+05  -3.606621e+05
   2.815677e+05  -4.069546e+05
   6.276617e+05  -2.466375e+05
   2.536807e+05  -2.302755e+04
  -3.298690e+05   8.620067e+04
  -4.006546e+05  -4.080978e+04
   1.474639e+05  -2.857467e+05
   7.089209e+05  -2.884190e+05
