
 $NMID
 id='ANONYMOUS ', fmtdat='(2E16.6)'
 volume=1.0
 tramp=1.0
 $END
   2.514216e+07   1.334979e+06
   1.601613e+07   1.240399e+07
  -7.670264e+05   1.565593e+07
  -1.107768e+07   1.013683e+07
  -9.020064e+06   9.367442e+05
  -4.835638e+05  -4.452615e+06
   5.085576e+06  -2.243818e+06
   3.801919e+06   4.044274e+06
  -1.247711e+06   6.970675e+06
  -4.769689e+06   3.046768e+06
  -4.041304e+06  -3.452764e+06
  -3.648010e+05  -5.429913e+06
   2.568776e+06  -1.023510e+06
   1.939270e+06   4.583083e+06
  -1.567898e+06   5.253177e+06
  -4.248168e+06   3.978451e+05
  -3.018545e+06  -5.084837e+06
   1.352767e+06  -6.288883e+06
   4.992308e+06  -2.805293e+06
   4.897920e+06   1.755711e+06
   1.858348e+06   3.744391e+06
  -6.464516e+05   2.748441e+06
  -2.106008e+05   1.326275e+06
   1.981822e+06   1.839410e+06
   2.436329e+06   3.788934e+06
  -7.625381e+05   4.518733e+06
  -5.422026e+06   2.404503e+06
  -7.081139e+06  -1.219594e+06
  -3.739014e+06  -3.492420e+06
   1.635140e+06  -2.868754e+06
   3.984596e+06  -2.618761e+05
   1.494605e+06   2.052708e+06
  -2.671368e+06   2.173213e+06
  -4.123891e+06  -1.569193e+05
  -1.927499e+06  -3.107718e+06
   1.066175e+06  -3.918913e+06
   1.926880e+06  -1.595089e+06
   6.167401e+05   1.508220e+06
  -7.493368e+05   1.909532e+06
  -5.829060e+05  -8.200511e+05
   8.156805e+05  -3.224285e+06
   1.996405e+06  -2.119623e+06
   1.758034e+06   1.332147e+06
   5.069055e+04   2.992512e+06
  -1.829111e+06   8.469107e+05
  -1.987105e+06  -2.652227e+06
   3.615569e+05  -3.633119e+06
   3.593707e+06  -1.101078e+06
   4.677044e+06   2.443403e+06
   2.141950e+06   3.944604e+06
  -2.058872e+06   2.556165e+06
  -4.234512e+06  -1.553488e+05
  -2.657663e+06  -1.922522e+06
   7.508099e+05  -1.623769e+06
   2.585192e+06  -2.196244e+03
   1.484141e+06   1.168698e+06
  -7.818804e+05   8.036923e+05
  -1.551491e+06  -5.023673e+05
  -1.761695e+05  -1.239966e+06
   1.475159e+06  -6.252356e+05
   1.239152e+06   6.752491e+05
  -8.653395e+05   1.298230e+06
  -2.545146e+06   4.243682e+05
  -1.649572e+06  -1.545830e+06
   1.463621e+06  -3.163290e+06
   4.200115e+06  -2.884811e+06
   4.371795e+06  -4.207251e+05
   2.290930e+06   2.680113e+06
   8.533227e+04   4.235009e+06
  -7.362393e+05   3.536816e+06
  -5.883177e+05   1.964579e+06
  -7.848223e+05   1.194712e+06
  -1.791382e+06   1.184612e+06
  -2.791022e+06   5.285725e+05
  -2.679998e+06  -1.311350e+06
  -1.165049e+06  -2.908658e+06
   9.544120e+05  -2.429818e+06
   2.279996e+06   8.255227e+04
   1.758258e+06   2.510259e+06
  -3.808112e+05   2.760579e+06
  -2.530147e+06   7.663924e+05
  -2.962243e+06  -1.665184e+06
  -1.472906e+06  -2.733401e+06
   4.209175e+05  -2.191009e+06
   1.169732e+06  -1.167390e+06
   8.967291e+05  -7.572914e+05
   1.050075e+06  -9.388748e+05
   2.374133e+06  -7.943061e+05
   3.687728e+06   3.873006e+05
   3.065326e+06   2.280651e+06
   1.534384e+05   3.680907e+06
  -3.064774e+06   3.445760e+06
  -4.062404e+06   1.483070e+06
  -2.269704e+06  -9.775285e+05
   3.906815e+05  -2.210648e+06
   1.489919e+06  -1.464366e+06
   4.494455e+05   2.463627e+05
  -1.178937e+06   1.068228e+06
  -1.584243e+06   2.549348e+05
  -5.324343e+05  -1.007097e+06
   6.760349e+05  -1.023154e+06
   7.366495e+05   2.874893e+05
  -4.062256e+05   1.167538e+06
  -1.630476e+06   9.936059e+04
  -1.648541e+06  -2.255652e+06
  -4.834853e+04  -3.597262e+06
   2.279869e+06  -2.412633e+06
   3.660541e+06   4.495697e+05
   2.950623e+06   2.694376e+06
   6.679720e+05   2.832766e+06
  -1.326275e+06   1.389730e+06
  -1.573972e+06   6.144148e+04
  -4.548562e+05  -5.043211e+04
   3.356233e+05   6.796132e+05
  -2.557394e+05   1.074697e+06
  -1.475537e+06   4.892643e+05
  -1.719067e+06  -5.794994e+05
  -4.712371e+05  -1.100182e+06
   1.005624e+06  -5.957543e+05
   1.024190e+06   3.897123e+05
  -6.219952e+05   8.213140e+05
  -2.294101e+06   1.323497e+05
  -2.139947e+06  -1.240663e+06
  -4.110547e+04  -2.175060e+06
   2.192055e+06  -1.800068e+06
   2.619561e+06  -3.216619e+05
   1.080634e+06   1.047182e+06
  -7.648358e+05   1.164073e+06
  -1.192098e+06   1.051079e+05
  -4.200314e+04  -8.640011e+05
   1.349265e+06  -6.149476e+05
   1.594735e+06   6.121998e+05
   5.211873e+05   1.492010e+06
  -8.216993e+05   1.115888e+06
  -1.219226e+06  -1.738641e+04
  -4.254981e+05  -6.256757e+05
   5.976078e+05  -8.699040e+04
   6.087010e+05   9.364413e+05
  -6.029622e+05   1.262424e+06
  -1.874552e+06   3.970986e+05
  -1.819152e+06  -1.028686e+06
  -3.302984e+05  -1.874792e+06
   1.253067e+06  -1.495110e+06
   1.553774e+06  -2.690637e+05
   5.496687e+05   7.530802e+05
  -5.600326e+05   7.964888e+05
  -7.146448e+05   5.656977e+04
  -2.225707e+03  -5.608287e+05
   6.364968e+05  -4.326071e+05
   4.901415e+05   1.177197e+05
  -2.141209e+05   2.484011e+05
  -5.832421e+05  -3.574940e+05
   9.469173e+03  -1.045848e+06
   1.210943e+06  -8.698950e+05
   1.917876e+06   3.603261e+05
   1.325582e+06   1.793300e+06
  -2.247591e+05   2.294678e+06
  -1.539603e+06   1.473728e+06
  -1.743686e+06   7.996767e+03
  -1.058650e+06  -9.982497e+05
  -3.805520e+05  -1.006653e+06
  -2.377344e+05  -4.583174e+05
  -3.279742e+05  -2.073945e+05
  -3.988065e+04  -5.464556e+05
   7.378961e+05  -8.759269e+05
   1.396272e+06  -4.299917e+05
   1.159620e+06   7.217453e+05
  -1.164100e+05   1.566489e+06
  -1.631398e+06   1.140927e+06
  -2.176705e+06  -4.210138e+05
  -1.165457e+06  -1.919670e+06
   7.632589e+05  -2.177444e+06
   2.225684e+06  -1.079764e+06
   2.279776e+06   4.179779e+05
   1.175075e+06   1.239232e+06
  -3.516258e+04   1.127773e+06
  -5.398361e+05   7.069907e+05
  -4.033273e+05   6.776433e+05
  -2.710795e+05   1.019326e+06
  -5.836520e+05   1.042348e+06
  -1.106360e+06   2.330737e+05
  -1.187472e+06  -1.042599e+06
  -4.725994e+05  -1.786335e+06
   6.250981e+05  -1.334921e+06
   1.219945e+06  -2.723200e+04
   8.011354e+05   1.107831e+06
  -2.215503e+05   1.279563e+06
  -9.040472e+05   5.498688e+05
  -7.231314e+05  -3.730144e+05
  -6.973863e+04  -8.389383e+05
   2.578595e+05  -7.547172e+05
  -1.966493e+04  -4.866191e+05
  -3.546203e+05  -3.737729e+05
  -2.142846e+04  -3.815119e+05
   9.856671e+05  -2.156585e+05
   1.797538e+06   2.806655e+05
   1.494128e+06   8.968906e+05
   1.015284e+05   1.218550e+06
  -1.313403e+06   9.924940e+05
  -1.643864e+06   3.519291e+05
  -8.266049e+05  -2.632100e+05
   1.690974e+05  -4.307102e+05
   4.212017e+05  -1.093417e+05
  -4.099722e+04   2.711849e+05
  -4.835118e+05   1.994743e+05
  -4.203866e+05  -3.303876e+05
  -7.570732e+04  -7.242101e+05
   5.896584e+04  -4.611177e+05
  -1.453369e+05   1.915201e+05
  -3.794543e+05   4.010355e+05
  -2.833780e+05  -2.028704e+05
   2.188362e+05  -9.728087e+05
   8.470261e+05  -9.557204e+05
   1.099159e+06  -4.280555e+04
   6.067805e+05   8.746514e+05
  -4.061144e+05   9.179620e+05
  -1.080667e+06   1.505813e+05
  -6.550969e+05  -5.958703e+05
   6.264852e+05  -6.281379e+05
   1.553625e+06   2.417657e+04
   1.133464e+06   7.795786e+05
  -3.168196e+05   1.046136e+06
  -1.451805e+06   6.448977e+05
  -1.292152e+06  -8.108312e+04
  -1.985416e+05  -5.201715e+05
   5.954000e+05  -3.172668e+05
   3.084541e+05   2.349101e+05
  -6.287731e+05   4.104244e+05
  -1.098332e+06  -2.066565e+05
  -4.772403e+05  -1.181956e+06
   7.455715e+05  -1.538252e+06
   1.493540e+06  -7.076864e+05
   1.165977e+06   7.971415e+05
   1.371730e+05   1.737089e+06
  -7.293418e+05   1.294047e+06
  -9.033161e+05  -9.195580e+04
  -4.860516e+05  -1.127824e+06
   1.027098e+05  -9.875834e+05
   4.992723e+05  -1.225736e+05
   5.268037e+05   3.880027e+05
   2.524806e+05   1.651559e+05
   9.819692e+03  -1.206010e+05
   1.187473e+05   2.186747e+05
   4.142992e+05   9.001127e+05
   2.821322e+05   1.052489e+06
  -5.508144e+05   3.847511e+05
  -1.416857e+06  -4.737852e+05
  -1.317041e+06  -8.201764e+05
  -1.770234e+05  -6.448825e+05
   9.186248e+05  -3.719615e+05
   9.775957e+05  -1.922480e+05
   2.600244e+05  -3.780716e+02
  -1.813984e+05   2.016358e+05
   7.646366e+04   2.512752e+05
   3.718995e+05   1.610049e+05
  -2.461893e+03   1.355732e+05
  -7.650544e+05   1.617136e+05
  -9.783779e+05  -7.618221e+04
  -2.142462e+05  -6.499720e+05
   9.470303e+05  -1.021834e+06
   1.553667e+06  -5.794656e+05
   1.178123e+06   5.196638e+05
   1.721268e+05   1.363165e+06
  -7.368711e+05   1.241879e+06
  -1.009600e+06   3.980954e+05
  -6.321924e+05  -3.060617e+05
  -6.502483e+04  -3.422765e+05
   1.711019e+05   7.863603e+03
  -3.889943e+04   9.278542e+04
  -3.283019e+05  -3.218286e+05
  -2.570247e+05  -7.728584e+05
   2.148875e+05  -6.136502e+05
   6.653530e+05   2.137676e+05
   6.026121e+05   1.002182e+06
  -4.887596e+04   9.700831e+05
  -7.904538e+05   1.032286e+05
  -9.218496e+05  -8.175346e+05
  -2.214780e+05  -1.038721e+06
   7.169429e+05  -5.369742e+05
   1.003283e+06   1.403240e+05
   4.199198e+05   5.236953e+05
  -2.879026e+05   5.332741e+05
  -2.821470e+05   3.115014e+05
   3.328338e+05   5.409959e+04
   6.429120e+05   2.426942e+02
   9.425722e+04   2.779552e+05
  -8.045620e+05   6.295570e+05
  -1.126032e+06   5.434767e+05
  -6.172740e+05  -1.169821e+05
   1.296864e+05  -7.812117e+05
   4.662772e+05  -7.513048e+05
   3.115310e+05  -6.682316e+04
  -1.703989e+04   4.968135e+05
  -2.607134e+05   3.512460e+05
  -3.350083e+05  -2.386757e+05
  -2.068106e+05  -5.593000e+05
   8.941541e+04  -3.230963e+05
   3.654448e+05   9.453301e+04
   4.092836e+05   2.216281e+05
   2.247709e+05   4.499556e+04
   1.781862e+04  -7.515757e+04
  -7.375433e+04   9.838670e+04
  -1.223114e+05   3.931507e+05
  -2.407890e+05   4.250242e+05
  -3.672259e+05   3.620265e+04
  -3.051519e+05  -4.815447e+05
   3.035459e+04  -6.349631e+05
   4.433021e+05  -2.401644e+05
   5.611946e+05   3.480906e+05
   1.748114e+05   5.884736e+05
  -4.679112e+05   3.142731e+05
  -7.816302e+05  -1.441793e+05
  -4.136988e+05  -3.779222e+05
   2.939315e+05  -3.024778e+05
   5.911530e+05  -1.113422e+05
   1.694024e+05   6.874964e+03
  -4.274785e+05  -1.746249e+04
  -4.227344e+05  -1.729384e+05
   2.479589e+05  -3.290496e+05
   8.433201e+05  -2.274369e+05
