
 $NMID
 id='ANONYMOUS ', fmtdat='(2E16.6)'
 volume=1.0
 tramp=1.0
 $END
   2.799012e+07   7.700880e+05
   1.739789e+07   1.547285e+07
  -2.168816e+06   1.817509e+07
  -1.300000e+07   9.430151e+06
  -9.213094e+06  -1.084564e+06
   4.597360e+05  -4.821534e+06
   5.293541e+06  -1.049226e+06
   2.900604e+06   4.665382e+06
  -2.178628e+06   6.296412e+06
  -5.071123e+06   2.272827e+06
  -4.030800e+06  -3.474530e+06
  -4.239543e+05  -5.213705e+06
   2.434831e+06  -1.262744e+06
   1.754440e+06   3.955214e+06
  -1.808125e+06   4.621143e+06
  -4.352101e+06  -8.062792e+04
  -2.820717e+06  -5.395986e+06
   1.692267e+06  -6.484633e+06
   5.324116e+06  -3.046935e+06
   5.431102e+06   1.512079e+06
   2.658303e+06   3.959064e+06
  -2.032820e+05   3.650080e+06
  -7.964632e+05   2.219309e+06
   7.231488e+05   1.742820e+06
   1.669338e+06   2.750195e+06
  -4.051050e+05   3.627536e+06
  -4.450414e+06   2.426818e+06
  -6.415126e+06  -6.037390e+05
  -3.849594e+06  -3.006570e+06
   8.837310e+05  -2.857124e+06
   3.190400e+06  -7.534440e+05
   1.443111e+06   1.193370e+06
  -1.717832e+06   1.481573e+06
  -2.958225e+06   7.587100e+03
  -1.646090e+06  -2.172802e+06
   4.645735e+05  -3.232117e+06
   1.555337e+06  -1.850594e+06
   1.123867e+06   8.973186e+05
  -3.049010e+04   1.964684e+06
  -5.129586e+05  -3.102195e+04
   4.098158e+05  -2.466429e+06
   1.760138e+06  -1.784068e+06
   1.615689e+06   1.532119e+06
  -5.347957e+05   3.201778e+06
  -2.704456e+06   7.451802e+05
  -2.369614e+06  -3.176377e+06
   6.610953e+05  -4.133621e+06
   3.853681e+06  -1.211186e+06
   4.375775e+06   2.488937e+06
   1.687002e+06   3.743036e+06
  -2.029206e+06   2.140930e+06
  -3.728462e+06  -4.542313e+05
  -2.142836e+06  -1.955638e+06
   9.966705e+05  -1.478189e+06
   2.582447e+06   2.067786e+05
   1.342520e+06   1.320919e+06
  -8.535896e+05   7.958081e+05
  -1.323834e+06  -5.345142e+05
   2.017286e+05  -9.491477e+05
   1.455638e+06   3.716145e+04
   5.971920e+05   1.204832e+06
  -1.592241e+06   1.216597e+06
  -2.750353e+06  -6.582430e+04
  -1.518888e+06  -1.846902e+06
   1.293422e+06  -3.099099e+06
   3.659651e+06  -2.828234e+06
   4.030290e+06  -6.493460e+05
   2.420441e+06   2.321627e+06
   2.692301e+05   3.943539e+06
  -8.737470e+05   3.210376e+06
  -7.715417e+05   1.454671e+06
  -5.181864e+05   6.450225e+05
  -1.059622e+06   9.130238e+05
  -2.017154e+06   7.127735e+05
  -2.226128e+06  -7.249518e+05
  -1.151197e+06  -2.163312e+06
   5.583404e+05  -1.927080e+06
   1.701988e+06   5.532454e+03
   1.422278e+06   1.966477e+06
  -2.264384e+05   2.312286e+06
  -2.137385e+06   8.364636e+05
  -2.791450e+06  -1.262699e+06
  -1.623859e+06  -2.494526e+06
   2.558208e+05  -2.286178e+06
   1.226576e+06  -1.329863e+06
   1.059662e+06  -7.160895e+05
   1.056799e+06  -7.117101e+05
   2.095704e+06  -5.715971e+05
   3.197073e+06   4.219553e+05
   2.621227e+06   2.007116e+06
   1.087681e+05   3.141423e+06
  -2.573557e+06   2.937973e+06
  -3.380733e+06   1.361943e+06
  -1.958634e+06  -6.770719e+05
   1.695562e+05  -1.824031e+06
   1.135924e+06  -1.316465e+06
   3.948921e+05   1.489277e+05
  -9.500116e+05   9.326548e+05
  -1.379600e+06   2.437807e+05
  -5.307969e+05  -8.742451e+05
   5.159283e+05  -8.633504e+05
   5.290244e+05   2.601370e+05
  -4.948582e+05   8.465783e+05
  -1.397141e+06  -2.555469e+05
  -1.114062e+06  -2.162021e+06
   3.628176e+05  -2.926566e+06
   2.097664e+06  -1.673513e+06
   2.939254e+06   6.230756e+05
   2.265642e+06   2.251381e+06
   4.889945e+05   2.287272e+06
  -1.080038e+06   1.160920e+06
  -1.300853e+06   8.719911e+04
  -3.856048e+05  -4.118814e+04
   2.791397e+05   5.776325e+05
  -2.513897e+05   9.476046e+05
  -1.320135e+06   4.206716e+05
  -1.490633e+06  -5.541587e+05
  -3.665043e+05  -9.806214e+05
   8.665985e+05  -4.795527e+05
   8.053216e+05   3.391598e+05
  -5.740808e+05   5.968892e+05
  -1.864984e+06  -1.454801e+04
  -1.662207e+06  -1.062090e+06
   4.672199e+04  -1.744345e+06
   1.844112e+06  -1.440745e+06
   2.200534e+06  -2.454129e+05
   9.232648e+05   9.190140e+05
  -6.696302e+05   1.040373e+06
  -1.072104e+06   1.063386e+05
  -7.180912e+04  -7.626423e+05
   1.153858e+06  -5.318377e+05
   1.342941e+06   5.506276e+05
   3.812234e+05   1.270421e+06
  -7.452082e+05   8.836071e+05
  -1.012808e+06  -8.845687e+04
  -3.049055e+05  -5.514829e+05
   5.385616e+05  -5.768000e+04
   5.250092e+05   8.041583e+05
  -4.991107e+05   1.076151e+06
  -1.581548e+06   3.529475e+05
  -1.549686e+06  -8.622994e+05
  -2.787086e+05  -1.597429e+06
   1.084844e+06  -1.266377e+06
   1.325780e+06  -2.046558e+05
   4.411171e+05   6.485965e+05
  -4.860053e+05   6.555020e+05
  -5.665324e+05   5.097898e+04
   3.180394e+04  -4.088957e+05
   4.899627e+05  -2.950771e+05
   3.098203e+05   8.716988e+04
  -2.385381e+05   1.211363e+05
  -4.636030e+05  -3.789134e+05
   6.373330e+04  -8.997197e+05
   1.048023e+06  -7.181813e+05
   1.622426e+06   3.206054e+05
   1.120866e+06   1.524155e+06
  -1.922687e+05   1.925372e+06
  -1.294505e+06   1.196318e+06
  -1.426627e+06  -3.228334e+04
  -8.229113e+05  -8.023796e+05
  -2.976812e+05  -7.451776e+05
  -2.555215e+05  -3.219799e+05
  -3.439283e+05  -2.018458e+05
  -4.149035e+04  -5.084197e+05
   6.504881e+05  -7.272233e+05
   1.170668e+06  -3.206846e+05
   9.277876e+05   6.043979e+05
  -1.380136e+05   1.267617e+06
  -1.376541e+06   9.165378e+05
  -1.813067e+06  -3.739913e+05
  -9.445110e+05  -1.634005e+06
   7.013468e+05  -1.838937e+06
   1.919550e+06  -8.687084e+05
   1.896441e+06   4.135300e+05
   9.103132e+05   1.050331e+06
  -7.497224e+04   8.842200e+05
  -4.099600e+05   5.331402e+05
  -2.545741e+05   5.783710e+05
  -1.864333e+05   9.133050e+05
  -5.079390e+05   9.196354e+05
  -9.610937e+05   2.089844e+05
  -1.013624e+06  -8.747940e+05
  -4.041629e+05  -1.503100e+06
   5.198807e+05  -1.124727e+06
   1.022245e+06  -1.030788e+04
   6.582591e+05   9.610014e+05
  -2.305628e+05   1.083132e+06
  -8.117693e+05   4.123143e+05
  -6.150880e+05  -3.928857e+05
  -4.094364e+03  -7.507173e+05
   2.858871e+05  -6.262314e+05
   1.076442e+04  -3.829530e+05
  -3.122998e+05  -3.017517e+05
  -2.583877e+04  -3.169281e+05
   8.566269e+05  -1.715656e+05
   1.550085e+06   2.544738e+05
   1.259562e+06   7.822736e+05
   4.177593e+04   1.058654e+06
  -1.158323e+06   8.490043e+05
  -1.404116e+06   2.648147e+05
  -6.806480e+05  -2.780758e+05
   1.657767e+05  -3.893412e+05
   3.707055e+05  -6.870278e+04
  -1.765806e+04   2.638488e+05
  -3.905886e+05   1.800091e+05
  -3.626066e+05  -2.775578e+05
  -1.064251e+05  -6.002554e+05
   1.016791e+04  -3.867056e+05
  -1.184057e+05   1.330904e+05
  -2.885226e+05   3.018042e+05
  -2.303574e+05  -1.780661e+05
   1.657703e+05  -8.075459e+05
   7.182376e+05  -8.128454e+05
   9.766487e+05  -6.161545e+04
   5.604931e+05   7.372142e+05
  -3.431122e+05   8.133777e+05
  -9.406179e+05   1.675371e+05
  -5.600161e+05  -4.887405e+05
   5.389325e+05  -5.214444e+05
   1.290995e+06   4.361979e+04
   8.991778e+05   6.679081e+05
  -3.081220e+05   8.463073e+05
  -1.211024e+06   4.836205e+05
  -1.049317e+06  -9.950159e+04
  -1.452997e+05  -4.275154e+05
   5.054677e+05  -2.463969e+05
   2.724364e+05   2.109299e+05
  -5.096387e+05   3.663505e+05
  -9.291244e+05  -1.412012e+05
  -4.423302e+05  -9.782495e+05
   5.788858e+05  -1.313327e+06
   1.233536e+06  -6.287626e+05
   9.853709e+05   6.507329e+05
   1.262526e+05   1.449514e+06
  -6.082523e+05   1.066010e+06
  -7.500195e+05  -1.017393e+05
  -3.818079e+05  -9.486183e+05
   1.195710e+05  -8.073110e+05
   4.287851e+05  -8.768375e+04
   4.164870e+05   3.180039e+05
   1.832983e+05   1.279231e+05
   1.847574e+04  -9.207100e+04
   1.404612e+05   2.038849e+05
   3.647339e+05   7.626908e+05
   2.046118e+05   8.743593e+05
  -5.005071e+05   3.164544e+05
  -1.183649e+06  -3.925006e+05
  -1.073780e+06  -6.839507e+05
  -1.457293e+05  -5.477058e+05
   7.411066e+05  -3.188977e+05
   8.085008e+05  -1.531566e+05
   2.421304e+05   1.688549e+04
  -1.399447e+05   1.732754e+05
   3.164088e+04   1.931258e+05
   2.765648e+05   1.136453e+05
   1.217718e+04   1.118830e+05
  -6.029863e+05   1.540186e+05
  -8.267163e+05  -4.754037e+04
  -2.371203e+05  -5.515149e+05
   7.546571e+05  -8.868233e+05
   1.326521e+06  -5.235782e+05
   1.038919e+06   4.086219e+05
   1.684368e+05   1.138265e+06
  -6.209348e+05   1.060592e+06
  -8.469210e+05   3.658480e+05
  -5.280725e+05  -2.328135e+05
  -7.223153e+04  -2.879013e+05
   1.129038e+05  -1.607628e+04
  -4.352573e+04   5.358942e+04
  -2.609535e+05  -2.790020e+05
  -2.066037e+05  -6.474044e+05
   1.686216e+05  -5.246134e+05
   5.535259e+05   1.502822e+05
   5.357694e+05   8.135152e+05
   6.264901e+03   8.196898e+05
  -6.423391e+05   1.275571e+05
  -7.935876e+05  -6.476262e+05
  -2.181333e+05  -8.733234e+05
   5.926159e+05  -4.834411e+05
   8.618659e+05   9.944791e+04
   3.768531e+05   4.604543e+05
  -2.402815e+05   4.819664e+05
  -2.627688e+05   2.711142e+05
   2.496020e+05   3.008970e+04
   5.324917e+05  -1.045268e+04
   9.251009e+04   2.391272e+05
  -6.708107e+05   5.319109e+05
  -9.684000e+05   4.429496e+05
  -5.510437e+05  -1.176438e+05
   9.917667e+04  -6.703984e+05
   4.127278e+05  -6.485405e+05
   2.927662e+05  -8.148702e+04
   6.980581e+03   4.051265e+05
  -2.101777e+05   3.148510e+05
  -2.823716e+05  -1.696325e+05
  -1.836779e+05  -4.672454e+05
   6.456949e+04  -2.982248e+05
   3.093858e+05   6.350822e+04
   3.560525e+05   2.019428e+05
   1.897517e+05   5.323738e+04
   1.669926e+02  -8.541855e+04
  -6.139504e+04   3.773806e+04
  -5.971880e+04   3.136385e+05
  -1.425472e+05   3.908804e+05
  -2.905996e+05   8.584775e+04
  -2.991794e+05  -3.680623e+05
  -3.129698e+04  -5.298057e+05
   3.558883e+05  -2.206456e+05
   4.945538e+05   2.679858e+05
   1.677062e+05   4.815834e+05
  -3.987645e+05   2.733676e+05
  -6.756342e+05  -1.001519e+05
  -3.603559e+05  -3.125952e+05
   2.437560e+05  -2.788412e+05
   5.034078e+05  -1.263893e+05
   1.649824e+05  -8.473976e+02
  -3.280210e+05   1.295312e+04
  -3.448866e+05  -1.086736e+05
   1.791163e+05  -2.601568e+05
   6.643029e+05  -2.016809e+05
