
 $NMID
 id='ANONYMOUS ', fmtdat='(2E16.6)'
 volume=1.0
 tramp=1.0
 $END
   5.694132e+07  -2.344597e+05
   3.410123e+07   3.548530e+07
  -7.758910e+06   3.859115e+07
  -2.787303e+07   1.443900e+07
  -1.637373e+07  -7.425486e+06
   3.520436e+06  -9.346537e+06
   9.782008e+06   1.484039e+06
   2.552524e+06   9.824850e+06
  -6.323196e+06   9.114757e+06
  -9.636321e+06   1.826712e+06
  -7.001478e+06  -6.154279e+06
  -8.867208e+05  -8.523723e+06
   3.951284e+06  -2.823675e+06
   2.651839e+06   5.246929e+06
  -3.737497e+06   6.378204e+06
  -7.851963e+06  -1.417761e+06
  -4.416055e+06  -1.021692e+07
   3.802139e+06  -1.180965e+07
   1.014011e+07  -5.984559e+06
   1.094048e+07   1.958271e+06
   6.834631e+06   7.537406e+06
   7.901586e+05   8.880058e+06
  -3.079861e+06   6.237725e+06
  -2.142242e+06   2.583063e+06
   1.001723e+06   1.828573e+06
   4.350437e+05   3.967841e+06
  -5.122853e+06   4.496042e+06
  -9.516066e+06   7.558426e+05
  -7.115697e+06  -3.965782e+06
  -4.664065e+05  -5.102246e+06
   3.536968e+06  -2.767819e+06
   2.520239e+06  -2.447377e+05
  -3.137169e+05   8.405327e+05
  -1.996091e+06   6.308249e+05
  -2.197685e+06  -1.161159e+06
  -9.159015e+05  -3.788892e+06
   1.698305e+06  -3.944509e+06
   3.392460e+06  -3.043333e+04
   1.901906e+06   3.682357e+06
  -8.019844e+05   2.124511e+06
  -5.128174e+05  -2.294437e+06
   2.357835e+06  -2.250531e+06
   2.411461e+06   3.212176e+06
  -2.544654e+06   6.145538e+06
  -7.134738e+06   9.672779e+05
  -5.205717e+06  -7.037530e+06
   1.965152e+06  -8.623274e+06
   7.468653e+06  -2.465932e+06
   6.889059e+06   4.391236e+06
   1.781467e+06   5.931099e+06
  -3.420993e+06   2.628311e+06
  -5.118121e+06  -1.533578e+06
  -2.311817e+06  -3.442364e+06
   2.453417e+06  -2.153276e+06
   4.510558e+06   9.495738e+05
   1.914398e+06   2.733769e+06
  -1.726649e+06   1.370136e+06
  -1.685992e+06  -1.009803e+06
   1.387584e+06  -8.303441e+05
   2.434718e+06   1.893954e+06
  -7.837447e+05   3.522314e+06
  -4.775142e+06   1.858663e+06
  -5.314820e+06  -1.451638e+06
  -2.285402e+06  -4.017651e+06
   1.722371e+06  -5.262982e+06
   4.837460e+06  -4.890042e+06
   6.108302e+06  -1.860430e+06
   4.650616e+06   3.048661e+06
   1.043524e+06   6.102014e+06
  -1.842489e+06   4.688407e+06
  -1.762751e+06   1.096002e+06
  -6.318962e+04  -3.632064e+05
   2.277472e+05   9.672790e+05
  -1.423751e+06   1.899896e+06
  -2.750094e+06   4.288269e+05
  -2.092947e+06  -1.745205e+06
  -1.668190e+05  -2.060043e+06
   1.426911e+06  -2.737949e+05
   1.654403e+06   1.921069e+06
   8.829793e+04   2.847396e+06
  -2.673660e+06   1.718621e+06
  -4.472057e+06  -1.056627e+06
  -3.300842e+06  -3.695761e+06
  -2.316115e+04  -4.265440e+06
   2.285128e+06  -2.770057e+06
   2.263906e+06  -1.133028e+06
   1.819941e+06  -6.417283e+05
   2.869112e+06  -4.641457e+05
   4.251422e+06   7.148597e+05
   3.428579e+06   2.664473e+06
   1.779874e+05   4.015835e+06
  -3.050803e+06   3.850357e+06
  -4.013144e+06   2.172907e+06
  -2.620202e+06  -3.149911e+05
  -3.704153e+05  -2.169083e+06
   1.000912e+06  -1.940700e+06
   5.614134e+05   6.649011e+03
  -1.025198e+06   1.308044e+06
  -1.870603e+06   4.215855e+05
  -9.440345e+05  -1.178658e+06
   4.675741e+05  -1.096764e+06
   3.841110e+05   3.726446e+05
  -1.076312e+06   6.222102e+05
  -1.798909e+06  -1.366314e+06
  -5.368035e+05  -3.455943e+06
   1.653580e+06  -3.248699e+06
   3.068683e+06  -9.565457e+05
   3.145023e+06   1.441820e+06
   2.156568e+06   2.616235e+06
   4.574231e+05   2.479063e+06
  -1.167055e+06   1.441138e+06
  -1.523644e+06   2.623473e+05
  -4.808822e+05  -3.752042e+04
   3.576333e+05   7.304968e+05
  -4.057803e+05   1.328949e+06
  -1.888028e+06   5.858424e+05
  -2.007049e+06  -8.740234e+05
  -3.731631e+05  -1.399788e+06
   1.144690e+06  -5.608048e+05
   8.468333e+05   4.331657e+05
  -8.340852e+05   4.708878e+05
  -2.084628e+06  -3.337225e+05
  -1.649598e+06  -1.291254e+06
   2.452615e+05  -1.873165e+06
   2.217586e+06  -1.606900e+06
   2.693185e+06  -2.917630e+05
   1.204843e+06   1.237147e+06
  -8.955455e+05   1.503116e+06
  -1.553949e+06   2.063750e+05
  -2.242939e+05  -1.073462e+06
   1.480590e+06  -7.445536e+05
   1.682926e+06   7.581945e+05
   3.187898e+05   1.609098e+06
  -1.075546e+06   9.321066e+05
  -1.216584e+06  -3.266688e+05
  -2.186431e+05  -7.691973e+05
   7.959753e+05  -5.415008e+04
   7.413259e+05   1.027625e+06
  -5.371179e+05   1.407875e+06
  -1.955113e+06   5.695200e+05
  -2.011567e+06  -9.950612e+05
  -4.016207e+05  -2.029176e+06
   1.399647e+06  -1.622812e+06
   1.688164e+06  -2.128877e+05
   4.866421e+05   8.483515e+05
  -6.405088e+05   7.833023e+05
  -6.002454e+05   8.698258e+04
   1.218849e+05  -3.187530e+05
   4.458609e+05  -1.801267e+05
   6.876155e+04   4.478639e+04
  -4.584665e+05  -1.203175e+05
  -4.912846e+05  -6.850567e+05
   2.157326e+05  -1.164064e+06
   1.348416e+06  -8.822719e+05
   2.038408e+06   3.839586e+05
   1.457767e+06   1.882584e+06
  -1.782648e+05   2.359503e+06
  -1.549800e+06   1.374876e+06
  -1.621656e+06  -1.171417e+05
  -8.134813e+05  -8.340281e+05
  -3.151731e+05  -5.723692e+05
  -5.042705e+05  -1.771637e+05
  -6.498456e+05  -3.169077e+05
  -9.985013e+04  -7.692559e+05
   8.545252e+05  -8.813360e+05
   1.398309e+06  -3.160223e+05
   1.006523e+06   6.802262e+05
  -2.387261e+05   1.392965e+06
  -1.659139e+06   1.045883e+06
  -2.185310e+06  -4.474213e+05
  -1.113179e+06  -2.037876e+06
   9.843786e+05  -2.318736e+06
   2.486159e+06  -1.014196e+06
   2.282261e+06   6.427115e+05
   9.054064e+05   1.288449e+06
  -2.068084e+05   8.840446e+05
  -3.412433e+05   4.725729e+05
  -1.893789e+04   7.479962e+05
  -6.431758e+04   1.310148e+06
  -6.486107e+05   1.287420e+06
  -1.274495e+06   3.335965e+05
  -1.328126e+06  -1.033386e+06
  -5.742543e+05  -1.839283e+06
   5.819759e+05  -1.411623e+06
   1.250006e+06  -9.585462e+03
   7.987265e+05   1.254334e+06
  -3.863517e+05   1.365872e+06
  -1.151842e+06   3.784879e+05
  -7.970276e+05  -7.134391e+05
   1.397298e+05  -1.070502e+06
   5.502274e+05  -7.588478e+05
   9.052575e+04  -3.888995e+05
  -4.362904e+05  -3.137980e+05
  -6.942067e+04  -3.702320e+05
   1.130484e+06  -2.137106e+05
   2.035362e+06   3.063551e+05
   1.590608e+06   1.002436e+06
  -4.394234e+04   1.415288e+06
  -1.564569e+06   1.139165e+06
  -1.790800e+06   2.769451e+05
  -8.060865e+05  -5.019683e+05
   2.620818e+05  -5.722881e+05
   5.055251e+05  -2.523637e+04
   4.348468e+04   4.320034e+05
  -4.180244e+05   2.668829e+05
  -4.796128e+05  -3.259073e+05
  -2.858947e+05  -6.977558e+05
  -1.260744e+05  -4.678363e+05
  -1.269185e+05   7.698441e+04
  -2.445977e+05   2.700819e+05
  -2.667610e+05  -2.246882e+05
   1.079108e+05  -9.574288e+05
   8.624513e+05  -1.059445e+06
   1.360266e+06  -2.066279e+05
   8.786174e+05   8.817330e+05
  -3.897033e+05   1.144375e+06
  -1.244060e+06   3.745983e+05
  -7.313699e+05  -5.382366e+05
   6.812988e+05  -6.368856e+05
   1.535794e+06   8.354803e+04
   9.546206e+05   8.291485e+05
  -4.823763e+05   9.438914e+05
  -1.440761e+06   4.490616e+05
  -1.175419e+06  -1.859256e+05
  -1.240949e+05  -4.901561e+05
   6.310672e+05  -2.575314e+05
   3.884037e+05   2.916183e+05
  -5.488173e+05   5.374394e+05
  -1.162426e+06  -3.323376e+04
  -7.091978e+05  -1.131047e+06
   5.080177e+05  -1.690922e+06
   1.415978e+06  -9.195010e+05
   1.244287e+06   7.007454e+05
   2.394770e+05   1.735939e+06
  -6.936881e+05   1.258122e+06
  -8.961531e+05  -1.754905e+05
  -4.192090e+05  -1.153791e+06
   2.237946e+05  -9.278218e+05
   5.537616e+05  -7.848447e+04
   4.396107e+05   3.511458e+05
   1.379066e+05   1.198258e+05
   5.431165e+04  -8.484840e+04
   3.127475e+05   3.039940e+05
   5.286090e+05   9.408222e+05
   1.767520e+05   1.037798e+06
  -7.236440e+05   3.889616e+05
  -1.441404e+06  -4.219194e+05
  -1.234159e+06  -7.863044e+05
  -1.899503e+05  -6.830729e+05
   7.963406e+05  -4.328581e+05
   9.441124e+05  -1.888945e+05
   3.740621e+05   6.312690e+04
  -1.264752e+05   2.273676e+05
  -6.141568e+04   1.806398e+05
   2.272018e+05   6.292857e+04
   6.687081e+04   1.280563e+05
  -6.028172e+05   2.648051e+05
  -1.028219e+06   2.616750e+04
  -4.937579e+05  -6.767826e+05
   7.583529e+05  -1.198596e+06
   1.668339e+06  -8.089013e+05
   1.438945e+06   3.668217e+05
   3.227330e+05   1.361328e+06
  -7.234236e+05   1.376620e+06
  -1.014270e+06   5.808074e+05
  -6.436501e+05  -1.868145e+05
  -1.572982e+05  -3.488856e+05
   3.601775e+04  -9.301463e+04
  -8.866265e+04  -8.733684e+03
  -2.845817e+05  -3.610405e+05
  -2.483563e+05  -7.817992e+05
   1.486023e+05  -6.782904e+05
   6.643521e+05   7.067920e+04
   7.771228e+05   8.838322e+05
   1.879692e+05   1.013370e+06
  -7.081447e+05   3.060767e+05
  -1.050537e+06  -6.375031e+05
  -4.006783e+05  -1.058860e+06
   6.721608e+05  -7.148461e+05
   1.116677e+06   2.809847e+04
   5.590373e+05   6.111849e+05
  -2.653621e+05   7.078574e+05
  -3.926825e+05   3.771627e+05
   2.075656e+05  -1.610854e+04
   6.248879e+05  -6.570889e+04
   1.650039e+05   3.047191e+05
  -7.855628e+05   6.844416e+05
  -1.243174e+06   5.371313e+05
  -7.846802e+05  -1.815584e+05
   6.470816e+04  -8.679947e+05
   5.462131e+05  -8.668713e+05
   4.500805e+05  -1.953675e+05
   8.908878e+04   4.532893e+05
  -2.143853e+05   4.544038e+05
  -3.499728e+05  -9.888729e+04
  -2.731032e+05  -5.553685e+05
   3.086401e+04  -4.510906e+05
   3.866491e+05   1.584993e+04
   4.843400e+05   2.831485e+05
   2.389313e+05   1.073802e+05
  -5.344411e+04  -1.736368e+05
  -7.827964e+04  -9.459207e+04
   7.274414e+04   3.274232e+05
   3.405925e+04   5.829073e+05
  -2.880659e+05   2.890071e+05
  -5.104126e+05  -3.179561e+05
  -2.375593e+05  -6.277493e+05
   3.721010e+05  -3.407211e+05
   6.850236e+05   2.286253e+05
   2.877858e+05   5.394407e+05
  -4.945009e+05   3.799116e+05
  -8.883674e+05  -2.833752e+04
  -4.927580e+05  -3.523946e+05
   2.752339e+05  -4.286100e+05
   6.292660e+05  -2.778576e+05
   2.726639e+05  -3.041836e+04
  -2.995070e+05   1.112113e+05
  -3.889243e+05  -6.434769e+03
   1.199098e+05  -2.697443e+05
   6.647033e+05  -2.983923e+05
