
 $NMID
 id='ANONYMOUS ', fmtdat='(2E16.6)'
 volume=1.0
 tramp=1.0
 $END
  -3.017189e+07  -5.671281e+05
  -1.977533e+07  -1.443427e+07
   3.706487e+05  -1.895798e+07
   1.307039e+07  -1.246762e+07
   1.084271e+07  -1.243411e+06
   6.459902e+05   5.348574e+06
  -6.074926e+06   2.710026e+06
  -4.591475e+06  -4.812445e+06
   1.412511e+06  -8.318921e+06
   5.654077e+06  -3.711934e+06
   4.895637e+06   3.976506e+06
   5.845038e+05   6.401200e+06
  -2.979946e+06   1.289546e+06
  -2.365071e+06  -5.353787e+06
   1.779333e+06  -6.255514e+06
   5.084939e+06  -5.706469e+05
   3.760052e+06   5.993210e+06
  -1.412069e+06   7.568731e+06
  -5.847598e+06   3.552600e+06
  -5.907027e+06  -1.858840e+06
  -2.417482e+06  -4.346195e+06
   5.738129e+05  -3.329866e+06
   1.865443e+05  -1.698728e+06
  -2.313332e+06  -2.207503e+06
  -2.885792e+06  -4.403597e+06
   8.027787e+05  -5.304230e+06
   6.299657e+06  -2.957771e+06
   8.358666e+06   1.237901e+06
   4.513941e+06   3.992507e+06
  -1.809652e+06   3.393171e+06
  -4.631083e+06   3.978948e+05
  -1.767151e+06  -2.336035e+06
   3.084500e+06  -2.537835e+06
   4.799174e+06   1.279569e+05
   2.300245e+06   3.565174e+06
  -1.134759e+06   4.579273e+06
  -2.178591e+06   1.950224e+06
  -7.686140e+05  -1.678696e+06
   7.723041e+05  -2.241388e+06
   6.568863e+05   8.963268e+05
  -8.912656e+05   3.768274e+06
  -2.312096e+06   2.541856e+06
  -2.129172e+06  -1.554507e+06
  -1.099707e+05  -3.617856e+06
   2.236633e+06  -1.114899e+06
   2.514392e+06   3.121032e+06
  -3.146822e+05   4.407541e+06
  -4.263767e+06   1.449640e+06
  -5.622190e+06  -2.794767e+06
  -2.617370e+06  -4.644960e+06
   2.398217e+06  -3.061406e+06
   5.017350e+06   1.195078e+05
   3.172684e+06   2.235318e+06
  -8.768039e+05   1.942690e+06
  -3.081939e+06   5.583600e+04
  -1.788107e+06  -1.360645e+06
   9.158193e+05  -9.739030e+05
   1.837022e+06   5.692073e+05
   1.889480e+05   1.462977e+06
  -1.775929e+06   7.248710e+05
  -1.466695e+06  -8.553806e+05
   1.063231e+06  -1.614288e+06
   3.067059e+06  -5.582107e+05
   2.022799e+06   1.821981e+06
  -1.625640e+06   3.796658e+06
  -4.858846e+06   3.528740e+06
  -5.142575e+06   6.387316e+05
  -2.797504e+06  -3.073770e+06
  -2.309672e+05  -4.993419e+06
   7.955607e+05  -4.207436e+06
   6.806886e+05  -2.324895e+06
   9.044574e+05  -1.387379e+06
   2.052513e+06  -1.398720e+06
   3.233326e+06  -6.782521e+05
   3.153177e+06   1.463847e+06
   1.417873e+06   3.364796e+06
  -1.067916e+06   2.845222e+06
  -2.659419e+06  -6.952268e+04
  -2.096087e+06  -2.912572e+06
   3.903527e+05  -3.243777e+06
   2.947273e+06  -9.646304e+05
   3.531316e+06   1.865971e+06
   1.834982e+06   3.171069e+06
  -4.071946e+05   2.614845e+06
  -1.344087e+06   1.446998e+06
  -1.057685e+06   9.426922e+05
  -1.237564e+06   1.134671e+06
  -2.796216e+06   9.821294e+05
  -4.366082e+06  -3.823028e+05
  -3.664502e+06  -2.626228e+06
  -2.544436e+05  -4.334866e+06
   3.536070e+06  -4.120686e+06
   4.738216e+06  -1.832633e+06
   2.679924e+06   1.091199e+06
  -4.078606e+05   2.593128e+06
  -1.706437e+06   1.745530e+06
  -5.257553e+05  -2.787261e+05
   1.363706e+06  -1.276552e+06
   1.859076e+06  -3.304522e+05
   6.499566e+05   1.170936e+06
  -7.734050e+05   1.205586e+06
  -8.625145e+05  -3.389704e+05
   4.849724e+05  -1.379882e+06
   1.948087e+06  -1.154891e+05
   1.979931e+06   2.667249e+06
   8.349586e+04   4.251126e+06
  -2.677571e+06   2.865580e+06
  -4.320972e+06  -4.852895e+05
  -3.504080e+06  -3.123458e+06
  -8.288527e+05  -3.316454e+06
   1.528525e+06  -1.658868e+06
   1.843256e+06  -1.051897e+05
   5.348601e+05   4.907608e+04
  -4.066930e+05  -7.956828e+05
   2.836502e+05  -1.276135e+06
   1.734666e+06  -6.074514e+05
   2.039399e+06   6.556168e+05
   5.701909e+05   1.292890e+06
  -1.180485e+06   7.148759e+05
  -1.208038e+06  -4.510541e+05
   7.328634e+05  -9.782539e+05
   2.706151e+06  -1.842377e+05
   2.533471e+06   1.432604e+06
   7.608642e+04   2.558921e+06
  -2.550709e+06   2.154343e+06
  -3.076080e+06   4.265058e+05
  -1.292965e+06  -1.212467e+06
   8.763226e+05  -1.389003e+06
   1.403275e+06  -1.508143e+05
   6.840169e+04   1.016363e+06
  -1.578101e+06   7.499458e+05
  -1.889512e+06  -6.947389e+05
  -6.348059e+05  -1.750330e+06
   9.561369e+05  -1.324103e+06
   1.437382e+06   8.990716e+03
   5.042914e+05   7.361352e+05
  -7.120539e+05   1.127603e+05
  -7.395723e+05  -1.096262e+06
   6.851151e+05  -1.503155e+06
   2.200956e+06  -5.078389e+05
   2.164262e+06   1.173900e+06
   4.265290e+05   2.201784e+06
  -1.447273e+06   1.785482e+06
  -1.823314e+06   3.447863e+05
  -6.558125e+05  -8.778010e+05
   6.490272e+05  -9.445648e+05
   8.353626e+05  -7.355997e+04
   1.236730e+03   6.600638e+05
  -7.464379e+05   5.117365e+05
  -5.707348e+05  -1.391109e+05
   2.612353e+05  -2.970249e+05
   7.010746e+05   4.173678e+05
   8.753390e+03   1.239675e+06
  -1.411910e+06   1.051989e+06
  -2.268601e+06  -3.857408e+05
  -1.599206e+06  -2.085271e+06
   2.187686e+05  -2.703907e+06
   1.784951e+06  -1.759226e+06
   2.049269e+06  -3.740721e+04
   1.254306e+06   1.152579e+06
   4.568560e+05   1.165301e+06
   2.903956e+05   5.212683e+05
   4.021617e+05   2.333799e+05
   6.675890e+04   6.469352e+05
  -8.518722e+05   1.050315e+06
  -1.638489e+06   5.344551e+05
  -1.377929e+06  -8.271345e+05
   1.107855e+05  -1.845947e+06
   1.901301e+06  -1.375155e+06
   2.571942e+06   4.539229e+05
   1.408662e+06   2.242404e+06
  -8.614335e+05   2.585316e+06
  -2.607151e+06   1.315046e+06
  -2.693843e+06  -4.555972e+05
  -1.398593e+06  -1.442761e+06
   3.011150e+04  -1.324639e+06
   6.215441e+05  -8.319597e+05
   4.504018e+05  -7.985252e+05
   2.883918e+05  -1.206754e+06
   6.636037e+05  -1.244177e+06
   1.299422e+06  -3.006567e+05
   1.419723e+06   1.201546e+06
   5.924355e+05   2.092248e+06
  -7.085583e+05   1.582761e+06
  -1.436220e+06   5.371952e+04
  -9.659947e+05  -1.293291e+06
   2.398209e+05  -1.515406e+06
   1.064302e+06  -6.641408e+05
   8.676793e+05   4.333366e+05
   9.700887e+04   9.970955e+05
  -2.980521e+05   8.996061e+05
   2.651673e+04   5.712291e+05
   4.260801e+05   4.283782e+05
   3.492443e+04   4.469145e+05
  -1.159652e+06   2.768842e+05
  -2.128714e+06  -2.905416e+05
  -1.780431e+06  -1.028434e+06
  -1.416328e+05  -1.441857e+06
   1.531462e+06  -1.202274e+06
   1.933051e+06  -4.449549e+05
   9.817464e+05   3.023694e+05
  -1.900422e+05   5.163770e+05
  -4.978953e+05   1.365179e+05
   3.533277e+04  -3.219088e+05
   5.595800e+05  -2.445154e+05
   5.020793e+05   3.779122e+05
   1.092327e+05   8.436610e+05
  -5.483859e+04   5.388533e+05
   1.690114e+05  -2.250086e+05
   4.388181e+05  -4.730019e+05
   3.399090e+05   2.342388e+05
  -2.342182e+05   1.147178e+06
  -9.771593e+05   1.146068e+06
  -1.298277e+06   8.333991e+04
  -7.398761e+05  -1.011525e+06
   4.543870e+05  -1.094819e+06
   1.267962e+06  -2.090659e+05
   7.828792e+05   6.843297e+05
  -7.258603e+05   7.522422e+05
  -1.828224e+06  -6.099899e+02
  -1.344095e+06  -9.006858e+05
   3.595180e+05  -1.237453e+06
   1.699636e+06  -7.802105e+05
   1.520710e+06   7.690896e+04
   2.402710e+05   6.090552e+05
  -6.973883e+05   3.829145e+05
  -3.710243e+05  -2.712286e+05
   7.270813e+05  -4.969061e+05
   1.294122e+06   2.159020e+05
   5.895614e+05   1.374331e+06
  -8.366923e+05   1.822091e+06
  -1.735123e+06   8.652013e+05
  -1.386149e+06  -9.100915e+05
  -1.975991e+05  -2.037432e+06
   8.328837e+05  -1.533798e+06
   1.066291e+06   9.383183e+04
   5.916742e+05   1.320318e+06
  -1.080963e+05   1.165330e+06
  -5.886445e+05   1.536337e+05
  -6.235510e+05  -4.479820e+05
  -2.951353e+05  -1.914960e+05
  -1.162044e+04   1.416388e+05
  -1.522504e+05  -2.531549e+05
  -5.085717e+05  -1.049551e+06
  -3.472526e+05  -1.234675e+06
   6.462662e+05  -4.671215e+05
   1.674592e+06   5.283431e+05
   1.560924e+06   9.407486e+05
   2.221466e+05   7.561015e+05
  -1.067617e+06   4.538614e+05
  -1.145245e+06   2.437035e+05
  -3.112622e+05   6.353618e+03
   2.070583e+05  -2.395694e+05
  -8.870819e+04  -2.949317e+05
  -4.338240e+05  -1.831126e+05
  -1.970708e+03  -1.582046e+05
   8.892374e+05  -2.041847e+05
   1.151636e+06   6.682754e+04
   2.740640e+05   7.544338e+05
  -1.084135e+06   1.220506e+06
  -1.814405e+06   7.211279e+05
  -1.400156e+06  -5.771874e+05
  -2.332363e+05  -1.596191e+06
   8.394195e+05  -1.479158e+06
   1.176005e+06  -4.938049e+05
   7.472909e+05   3.441566e+05
   8.620794e+04   3.998349e+05
  -1.946308e+05  -5.978516e+03
   4.826186e+04  -1.079197e+05
   3.919613e+05   3.750208e+05
   3.165282e+05   9.052749e+05
  -2.380580e+05   7.263199e+05
  -7.832275e+05  -2.348238e+05
  -7.299963e+05  -1.159553e+06
   3.073445e+04  -1.137176e+06
   9.198077e+05  -1.405728e+05
   1.099062e+06   9.349962e+05
   2.865180e+05   1.213552e+06
  -8.270533e+05   6.499358e+05
  -1.183833e+06  -1.394779e+05
  -5.109022e+05  -6.077417e+05
   3.235863e+05  -6.383420e+05
   3.285653e+05  -3.767838e+05
  -3.862073e+05  -5.793337e+04
  -7.540174e+05   1.380879e+04
  -1.193019e+05  -3.241506e+05
   9.324503e+05  -7.568504e+05
   1.318272e+06  -6.630624e+05
   7.353286e+05   1.238048e+05
  -1.335414e+05   9.223267e+05
  -5.339252e+05   8.983018e+05
  -3.664227e+05   9.246135e+04
   8.178057e+03  -5.803911e+05
   2.957190e+05  -4.203983e+05
   3.954190e+05   2.692411e+05
   2.559291e+05   6.521017e+05
  -9.381564e+04   3.844607e+05
  -4.302260e+05  -1.012346e+05
  -4.895296e+05  -2.531417e+05
  -2.672409e+05  -5.031814e+04
  -1.467669e+04   9.028231e+04
   9.001231e+04  -1.107876e+05
   1.317435e+05  -4.574825e+05
   2.620146e+05  -5.024983e+05
   4.219699e+05  -5.579665e+04
   3.704899e+05   5.498345e+05
  -1.497889e+04   7.401918e+05
  -5.118799e+05   2.924068e+05
  -6.677676e+05  -3.916127e+05
  -2.193068e+05  -6.844095e+05
   5.436655e+05  -3.814487e+05
   9.227173e+05   1.482916e+05
   4.956310e+05   4.339000e+05
  -3.362321e+05   3.648905e+05
  -6.900658e+05   1.484053e+05
  -2.016056e+05  -9.310334e+02
   4.955926e+05   1.183860e+04
   4.948248e+05   1.909748e+05
  -2.829248e+05   3.862671e+05
  -9.798327e+05   2.809001e+05
