
 $NMID
 id='ANONYMOUS ', fmtdat='(2E16.6)'
 volume=1.0
 tramp=1.0
 $END
  -2.107097e+07   3.621093e+04
  -1.418737e+07  -9.814313e+06
  -9.359912e+04  -1.337315e+07
   9.109362e+06  -9.015926e+06
   7.768146e+06  -9.935879e+05
   5.497783e+05   3.852157e+06
  -4.341276e+06   2.020594e+06
  -3.350848e+06  -3.398738e+06
   9.432722e+05  -5.958735e+06
   4.002110e+06  -2.703001e+06
   3.491207e+06   2.768174e+06
   4.471657e+05   4.519934e+06
  -2.089071e+06   9.337944e+05
  -1.686995e+06  -3.766639e+06
   1.230735e+06  -4.442529e+06
   3.597782e+06  -4.562457e+05
   2.702795e+06   4.190757e+06
  -9.347744e+05   5.337447e+06
  -4.071814e+06   2.535377e+06
  -4.133403e+06  -1.250503e+06
  -1.719868e+06  -2.984753e+06
   3.313414e+05  -2.298058e+06
   5.411512e+04  -1.222693e+06
  -1.641481e+06  -1.624902e+06
  -1.987142e+06  -3.137227e+06
   5.913715e+05  -3.713191e+06
   4.407512e+06  -2.057766e+06
   5.849643e+06   8.529449e+05
   3.182624e+06   2.768923e+06
  -1.242016e+06   2.362550e+06
  -3.228284e+06   2.744709e+05
  -1.208706e+06  -1.635740e+06
   2.207881e+06  -1.753365e+06
   3.380807e+06   1.416813e+05
   1.575526e+06   2.538704e+06
  -8.373316e+05   3.208860e+06
  -1.521123e+06   1.354701e+06
  -5.112225e+05  -1.158907e+06
   5.295001e+05  -1.535246e+06
   4.118244e+05   6.429006e+05
  -6.583709e+05   2.636163e+06
  -1.633714e+06   1.786114e+06
  -1.530011e+06  -1.086328e+06
  -1.401419e+05  -2.578762e+06
   1.547082e+06  -8.690487e+05
   1.822604e+06   2.122827e+06
  -1.360036e+05   3.097429e+06
  -2.959442e+06   1.066758e+06
  -3.971797e+06  -1.931266e+06
  -1.866353e+06  -3.274000e+06
   1.690924e+06  -2.179934e+06
   3.558840e+06   7.263367e+04
   2.263495e+06   1.594053e+06
  -6.060324e+05   1.412363e+06
  -2.189366e+06   7.566728e+04
  -1.293451e+06  -9.590670e+05
   6.315441e+05  -7.095700e+05
   1.309269e+06   4.018729e+05
   1.358891e+05   1.069989e+06
  -1.296853e+06   5.407618e+05
  -1.100289e+06  -6.280966e+05
   7.192980e+05  -1.198426e+06
   2.180528e+06  -4.368446e+05
   1.455201e+06   1.268593e+06
  -1.129271e+06   2.658484e+06
  -3.405464e+06   2.462451e+06
  -3.594215e+06   4.485209e+05
  -1.953632e+06  -2.138566e+06
  -1.702672e+05  -3.500571e+06
   5.557230e+05  -2.981033e+06
   5.065260e+05  -1.658900e+06
   6.789775e+05  -9.613867e+05
   1.461402e+06  -9.382424e+05
   2.255451e+06  -4.388623e+05
   2.185344e+06   1.042023e+06
   9.719143e+05   2.363280e+06
  -7.659169e+05   1.991583e+06
  -1.874652e+06  -6.351512e+04
  -1.467828e+06  -2.060602e+06
   2.806661e+05  -2.281437e+06
   2.065211e+06  -6.735690e+05
   2.468198e+06   1.305015e+06
   1.288550e+06   2.210558e+06
  -2.685138e+05   1.825675e+06
  -9.249797e+05   1.021421e+06
  -7.376644e+05   6.748150e+05
  -8.753496e+05   8.056926e+05
  -1.971544e+06   6.919255e+05
  -3.071755e+06  -2.724788e+05
  -2.575178e+06  -1.853470e+06
  -1.730091e+05  -3.050499e+06
   2.494064e+06  -2.887691e+06
   3.333131e+06  -1.273265e+06
   1.876988e+06   7.720877e+05
  -2.956893e+05   1.815284e+06
  -1.204188e+06   1.221054e+06
  -3.716633e+05  -1.933285e+05
   9.573167e+05  -8.963715e+05
   1.309414e+06  -2.388439e+05
   4.616223e+05   8.197655e+05
  -5.457103e+05   8.530431e+05
  -6.146423e+05  -2.386092e+05
   3.428061e+05  -9.864897e+05
   1.390308e+06  -9.384295e+04
   1.412419e+06   1.892276e+06
   5.277401e+04   3.025310e+06
  -1.911697e+06   2.031860e+06
  -3.061214e+06  -3.600977e+05
  -2.463420e+06  -2.226409e+06
  -5.698812e+05  -2.344130e+06
   1.083570e+06  -1.160375e+06
   1.299091e+06  -6.631908e+04
   3.778904e+05   3.699566e+04
  -2.872878e+05  -5.590372e+05
   1.939160e+05  -8.995593e+05
   1.218161e+06  -4.338953e+05
   1.442611e+06   4.558725e+05
   4.119754e+05   9.124359e+05
  -8.276039e+05   5.098750e+05
  -8.531332e+05  -3.149234e+05
   5.159813e+05  -6.883898e+05
   1.908569e+06  -1.235381e+05
   1.782548e+06   1.019463e+06
   4.578545e+04   1.806836e+06
  -1.803785e+06   1.512840e+06
  -2.169872e+06   2.945971e+05
  -9.134410e+05  -8.558141e+05
   6.136824e+05  -9.799846e+05
   9.881356e+05  -1.107559e+05
   5.220299e+04   7.125182e+05
  -1.108958e+06   5.289403e+05
  -1.333289e+06  -4.893102e+05
  -4.498611e+05  -1.238311e+06
   6.762722e+05  -9.403044e+05
   1.020160e+06   2.900609e+03
   3.636916e+05   5.205894e+05
  -4.944071e+05   8.467483e+04
  -5.165597e+05  -7.645056e+05
   4.814370e+05  -1.049489e+06
   1.543699e+06  -3.507478e+05
   1.517607e+06   8.284527e+05
   2.973439e+05   1.549539e+06
  -1.021386e+06   1.257105e+06
  -1.288982e+06   2.421680e+05
  -4.671729e+05  -6.216540e+05
   4.560608e+05  -6.693914e+05
   5.907117e+05  -5.302019e+04
   1.993851e+03   4.651268e+05
  -5.265281e+05   3.580266e+05
  -4.015231e+05  -1.019947e+05
   1.857408e+05  -2.101790e+05
   4.932236e+05   2.956847e+05
   3.081838e+03   8.719854e+05
  -9.952620e+05   7.352497e+05
  -1.593355e+06  -2.769642e+05
  -1.118754e+06  -1.469894e+06
   1.619681e+05  -1.903241e+06
   1.264568e+06  -1.236521e+06
   1.448111e+06  -1.936494e+04
   8.815210e+05   8.235836e+05
   3.131582e+05   8.307198e+05
   1.951599e+05   3.693568e+05
   2.775941e+05   1.611160e+05
   4.307606e+04   4.518987e+05
  -6.044719e+05   7.346899e+05
  -1.155163e+06   3.672813e+05
  -9.640731e+05  -5.913985e+05
   8.771481e+04  -1.300348e+06
   1.343050e+06  -9.599585e+05
   1.807691e+06   3.279442e+05
   9.872362e+05   1.580761e+06
  -6.081087e+05   1.818020e+06
  -1.836660e+06   9.232804e+05
  -1.899572e+06  -3.249058e+05
  -9.862364e+05  -1.022770e+06
   2.518406e+04  -9.381545e+05
   4.455022e+05  -5.846780e+05
   3.237767e+05  -5.559691e+05
   2.060937e+05  -8.438729e+05
   4.675481e+05  -8.727963e+05
   9.129047e+05  -2.090040e+05
   9.949010e+05   8.485788e+05
   4.113416e+05   1.473303e+06
  -5.024228e+05   1.111913e+06
  -1.011226e+06   3.573980e+04
  -6.786600e+05  -9.106251e+05
   1.694432e+05  -1.067210e+06
   7.491502e+05  -4.702375e+05
   6.117498e+05   3.015941e+05
   7.097554e+04   7.007715e+05
  -2.071768e+05   6.353126e+05
   1.827892e+04   4.057093e+05
   2.959621e+05   3.044351e+05
   2.080023e+04   3.147156e+05
  -8.153866e+05   1.913859e+05
  -1.493449e+06  -2.096506e+05
  -1.249767e+06  -7.264764e+05
  -1.008257e+05  -1.012823e+06
   1.075655e+06  -8.422330e+05
   1.361467e+06  -3.115477e+05
   6.937487e+05   2.111813e+05
  -1.328454e+05   3.613702e+05
  -3.504044e+05   9.631348e+04
   2.766400e+04  -2.238699e+05
   3.976457e+05  -1.684750e+05
   3.518241e+05   2.687758e+05
   6.949464e+04   5.945798e+05
  -4.363283e+04   3.783757e+05
   1.215538e+05  -1.589214e+05
   3.129367e+05  -3.317738e+05
   2.361893e+05   1.658515e+05
  -1.726438e+05   8.047808e+05
  -6.898050e+05   8.000971e+05
  -9.064758e+05   5.278146e+04
  -5.119923e+05  -7.121154e+05
   3.220308e+05  -7.647306e+05
   8.891666e+05  -1.397432e+05
   5.474978e+05   4.856758e+05
  -5.133672e+05   5.280634e+05
  -1.289516e+06  -5.901409e+03
  -9.474492e+05  -6.399708e+05
   2.558579e+05  -8.738132e+05
   1.201891e+06  -5.474765e+05
   1.073801e+06   5.790160e+04
   1.686589e+05   4.309025e+05
  -4.917825e+05   2.696557e+05
  -2.596258e+05  -1.895311e+05
   5.134442e+05  -3.445978e+05
   9.080398e+05   1.582906e+05
   4.065117e+05   9.690110e+05
  -5.985943e+05   1.276914e+06
  -1.225851e+06   5.998071e+05
  -9.721624e+05  -6.474097e+05
  -1.307011e+05  -1.436149e+06
   5.928349e+05  -1.078653e+06
   7.515076e+05   6.788634e+04
   4.141958e+05   9.315592e+05
  -7.706440e+04   8.220527e+05
  -4.134773e+05   1.076324e+05
  -4.391556e+05  -3.182575e+05
  -2.095374e+05  -1.368586e+05
  -7.950406e+03   1.011911e+05
  -1.030929e+05  -1.754706e+05
  -3.535831e+05  -7.392662e+05
  -2.437182e+05  -8.721746e+05
   4.530587e+05  -3.285726e+05
   1.177884e+06   3.781626e+05
   1.098590e+06   6.689538e+05
   1.537871e+05   5.325428e+05
  -7.561345e+05   3.143401e+05
  -8.083788e+05   1.679820e+05
  -2.172743e+05   5.371582e+03
   1.476694e+05  -1.678074e+05
  -6.364072e+04  -2.108304e+05
  -3.068635e+05  -1.329665e+05
   8.221884e+02  -1.104033e+05
   6.295045e+05  -1.376758e+05
   8.091348e+05   5.206295e+04
   1.852031e+05   5.298627e+05
  -7.702191e+05   8.520818e+05
  -1.276829e+06   4.987495e+05
  -9.784293e+05  -4.126866e+05
  -1.561396e+05  -1.124525e+06
   5.953766e+05  -1.036253e+06
   8.282954e+05  -3.401400e+05
   5.238643e+05   2.468441e+05
   5.757534e+04   2.805930e+05
  -1.390454e+05  -7.948981e+03
   3.388451e+04  -7.820192e+04
   2.760119e+05   2.645775e+05
   2.208738e+05   6.380710e+05
  -1.701390e+05   5.092402e+05
  -5.499828e+05  -1.701492e+05
  -5.069265e+05  -8.201100e+05
   2.932530e+04  -7.989622e+05
   6.491165e+05  -9.184693e+04
   7.680647e+05   6.651324e+05
   1.945439e+05   8.545376e+05
  -5.846435e+05   4.513003e+05
  -8.303569e+05  -1.035873e+05
  -3.554375e+05  -4.266609e+05
   2.290818e+05  -4.444387e+05
   2.292350e+05  -2.637124e+05
  -2.745612e+05  -4.460199e+04
  -5.311906e+05   5.656530e+03
  -8.155224e+04  -2.278442e+05
   6.593537e+05  -5.293340e+05
   9.284012e+05  -4.642830e+05
   5.147168e+05   8.707109e+04
  -9.762359e+04   6.474564e+05
  -3.765669e+05   6.294311e+05
  -2.547731e+05   6.195138e+04
   1.015447e+04  -4.093379e+05
   2.101408e+05  -2.927145e+05
   2.766615e+05   1.939682e+05
   1.768802e+05   4.599567e+05
  -6.777924e+04   2.675240e+05
  -3.019965e+05  -7.408539e+04
  -3.430716e+05  -1.780159e+05
  -1.882860e+05  -3.493376e+04
  -1.150234e+04   6.091911e+04
   6.482072e+04  -8.197401e+04
   9.868593e+04  -3.222370e+05
   1.910640e+05  -3.483966e+05
   2.978331e+05  -3.223611e+04
   2.541516e+05   3.909111e+05
  -1.860823e+04   5.201541e+05
  -3.625394e+05   2.018417e+05
  -4.658727e+05  -2.798524e+05
  -1.496284e+05  -4.831913e+05
   3.832243e+05  -2.657596e+05
   6.466506e+05   1.090730e+05
   3.461388e+05   3.072301e+05
  -2.375784e+05   2.534358e+05
  -4.850209e+05   9.938475e+04
  -1.398957e+05  -1.523176e+03
   3.511095e+05   1.297913e+04
   3.480893e+05   1.396106e+05
  -2.033886e+05   2.720081e+05
  -6.946927e+05   1.926736e+05
