
 $NMID
 id='ANONYMOUS ', fmtdat='(2E16.6)'
 volume=1.0
 tramp=1.0
 $END
  -4.835841e+07  -2.479509e+06
  -2.790669e+07  -3.012267e+07
   7.042416e+06  -3.187378e+07
   2.364334e+07  -1.261902e+07
   1.421058e+07   5.267176e+06
  -2.550880e+06   7.879961e+06
  -8.474137e+06  -5.029277e+05
  -2.812174e+06  -8.262318e+06
   5.053882e+06  -8.587607e+06
   8.393278e+06  -2.055272e+06
   6.089630e+06   5.743171e+06
   4.605812e+05   7.901734e+06
  -3.776377e+06   2.181909e+06
  -2.395164e+06  -5.397751e+06
   3.326508e+06  -6.199267e+06
   6.886080e+06   1.089812e+06
   3.785144e+06   9.031477e+06
  -3.521281e+06   1.028314e+07
  -9.022552e+06   4.773237e+06
  -9.256556e+06  -2.409033e+06
  -5.085554e+06  -6.835541e+06
   6.553951e+04  -7.139766e+06
   2.438768e+06  -4.609969e+06
   7.835519e+05  -2.316969e+06
  -1.604723e+06  -2.684019e+06
   8.476330e+04  -4.458124e+06
   5.710796e+06  -3.850161e+06
   9.233394e+06   2.452025e+05
   6.154524e+06   4.281392e+06
  -4.826443e+05   4.620029e+06
  -4.047474e+06   1.901884e+06
  -2.338622e+06  -7.015327e+05
   1.224697e+06  -1.441925e+06
   2.962794e+06  -3.635478e+05
   2.242280e+06   2.036623e+06
   1.235143e+05   4.137580e+06
  -2.040371e+06   3.253821e+06
  -2.576920e+06  -6.990987e+05
  -8.769629e+05  -3.337466e+06
   8.844591e+05  -1.107479e+06
  -9.865525e+02   2.831175e+06
  -2.425512e+06   2.271159e+06
  -2.188917e+06  -2.768062e+06
   1.935516e+06  -5.200796e+06
   5.577832e+06  -6.857430e+05
   4.025357e+06   5.999543e+06
  -1.801399e+06   7.166370e+06
  -6.542568e+06   1.823730e+06
  -6.315358e+06  -4.141807e+06
  -1.834578e+06  -5.576290e+06
   3.180317e+06  -2.646095e+06
   5.027259e+06   1.251674e+06
   2.466248e+06   3.125895e+06
  -2.020275e+06   1.984940e+06
  -4.008908e+06  -8.005966e+05
  -1.765554e+06  -2.362456e+06
   1.518929e+06  -1.174098e+06
   1.701812e+06   9.238816e+05
  -8.886685e+05   9.685721e+05
  -2.116356e+06  -1.132209e+06
   2.110603e+05  -2.589832e+06
   3.637451e+06  -1.553967e+06
   4.508954e+06   1.020235e+06
   2.028508e+06   3.394362e+06
  -1.908993e+06   4.737109e+06
  -5.060019e+06   4.289571e+06
  -5.900421e+06   1.233092e+06
  -3.951553e+06  -3.264692e+06
  -5.472125e+05  -5.812663e+06
   1.677919e+06  -4.467514e+06
   1.433010e+06  -1.425225e+06
   3.003663e+05  -2.225901e+05
   5.486513e+05  -1.158155e+06
   2.110242e+06  -1.486043e+06
   2.940025e+06   2.801845e+05
   1.847846e+06   2.368893e+06
  -2.948232e+05   2.355371e+06
  -1.853931e+06   1.365473e+05
  -1.758991e+06  -2.303418e+06
   1.594420e+05  -3.001325e+06
   2.847203e+06  -1.390013e+06
   4.157453e+06   1.499758e+06
   2.692391e+06   3.679365e+06
  -2.976114e+05   3.747213e+06
  -2.105454e+06   2.247650e+06
  -1.919206e+06   9.727495e+05
  -1.648687e+06   7.315798e+05
  -2.861791e+06   5.344838e+05
  -4.272809e+06  -7.548836e+05
  -3.424705e+06  -2.777519e+06
  -6.969774e+04  -4.140106e+06
   3.350895e+06  -3.855049e+06
   4.348862e+06  -1.942036e+06
   2.653581e+06   6.610925e+05
   4.856955e+04   2.343714e+06
  -1.308220e+06   1.863346e+06
  -5.579327e+05  -1.148091e+05
   1.185114e+06  -1.273875e+06
   1.890338e+06  -3.302353e+05
   8.114195e+05   1.218233e+06
  -6.048523e+05   1.128456e+06
  -5.303386e+05  -3.651765e+05
   8.912685e+05  -8.261636e+05
   1.778851e+06   9.414467e+05
   8.795769e+05   3.200998e+06
  -1.182047e+06   3.502780e+06
  -2.950186e+06   1.475141e+06
  -3.477167e+06  -1.221668e+06
  -2.526814e+06  -2.845111e+06
  -5.099569e+05  -2.773556e+06
   1.337500e+06  -1.483814e+06
   1.647518e+06  -1.641911e+05
   4.999115e+05   5.750423e+04
  -3.513600e+05  -7.654967e+05
   4.128940e+05  -1.299917e+06
   1.863631e+06  -5.279134e+05
   1.991755e+06   8.726615e+05
   3.913379e+05   1.378615e+06
  -1.175260e+06   5.760535e+05
  -9.540154e+05  -4.610347e+05
   8.093521e+05  -6.071844e+05
   2.274115e+06   2.258080e+05
   1.903617e+06   1.383219e+06
  -1.927834e+05   2.090926e+06
  -2.381132e+06   1.721985e+06
  -2.837450e+06   2.507747e+05
  -1.195966e+06  -1.274029e+06
   9.462011e+05  -1.440533e+06
   1.518794e+06  -1.331990e+05
   1.367178e+05   1.068966e+06
  -1.543145e+06   7.001635e+05
  -1.730114e+06  -7.939301e+05
  -3.719660e+05  -1.666990e+06
   1.064548e+06  -1.026437e+06
   1.277142e+06   2.597595e+05
   2.881087e+05   7.625816e+05
  -7.697765e+05   4.503889e+04
  -7.077386e+05  -1.077947e+06
   6.346473e+05  -1.426473e+06
   2.062908e+06  -4.868358e+05
   2.037082e+06   1.124695e+06
   3.439285e+05   2.106816e+06
  -1.473929e+06   1.634993e+06
  -1.744865e+06   2.015682e+05
  -5.169222e+05  -8.749702e+05
   6.687131e+05  -8.181985e+05
   6.833163e+05  -6.791828e+04
  -8.526371e+04   4.245395e+05
  -5.451267e+05   2.797699e+05
  -2.337622e+05  -6.823205e+04
   3.828478e+05   4.266355e+03
   5.320862e+05   6.132082e+05
  -1.828572e+05   1.180830e+06
  -1.401963e+06   8.943382e+05
  -2.107531e+06  -4.534191e+05
  -1.446933e+06  -2.004526e+06
   2.686353e+05  -2.476354e+06
   1.674164e+06  -1.457292e+06
   1.762225e+06   1.154099e+05
   9.393058e+05   9.633583e+05
   3.543502e+05   7.797079e+05
   4.353428e+05   3.138919e+05
   5.567570e+05   3.183758e+05
   5.863607e+04   7.357516e+05
  -8.855101e+05   9.092684e+05
  -1.489467e+06   3.429824e+05
  -1.110392e+06  -7.606054e+05
   2.388465e+05  -1.536198e+06
   1.775546e+06  -1.103335e+06
   2.304470e+06   5.210939e+05
   1.146773e+06   2.145523e+06
  -1.023094e+06   2.377444e+06
  -2.564283e+06   1.032275e+06
  -2.400304e+06  -6.549847e+05
  -1.029798e+06  -1.366173e+06
   1.714635e+05  -1.022225e+06
   4.449062e+05  -5.865079e+05
   1.871760e+05  -7.750284e+05
   1.867859e+05  -1.282759e+06
   7.019284e+05  -1.255242e+06
   1.299500e+06  -2.795918e+05
   1.329966e+06   1.137429e+06
   5.226464e+05   1.949051e+06
  -6.719131e+05   1.455205e+06
  -1.315199e+06  -1.573994e+04
  -8.134428e+05  -1.296012e+06
   3.841389e+05  -1.403494e+06
   1.134219e+06  -4.321644e+05
   7.922277e+05   6.496691e+05
  -1.009805e+05   1.040001e+06
  -4.922246e+05   7.834541e+05
  -6.190430e+04   4.452850e+05
   4.253738e+05   3.689279e+05
   4.619973e+04   4.002072e+05
  -1.150365e+06   1.955341e+05
  -2.061641e+06  -3.727270e+05
  -1.623714e+06  -1.066705e+06
   3.180712e+04  -1.423038e+06
   1.597467e+06  -1.107808e+06
   1.850342e+06  -2.735458e+05
   8.453662e+05   4.620454e+05
  -2.605309e+05   5.448505e+05
  -5.033393e+05   4.404520e+04
   5.316931e+02  -4.003903e+05
   4.769838e+05  -2.484964e+05
   4.784045e+05   3.611924e+05
   2.062555e+05   7.627067e+05
   5.129700e+04   5.013348e+05
   1.412480e+05  -1.225212e+05
   3.150998e+05  -3.331974e+05
   2.832803e+05   2.368245e+05
  -1.810321e+05   1.021959e+06
  -9.391222e+05   1.062673e+06
  -1.353447e+06   1.163299e+05
  -8.064333e+05  -9.617598e+05
   4.541910e+05  -1.118953e+06
   1.272900e+06  -2.769586e+05
   7.348570e+05   6.136558e+05
  -7.187967e+05   6.541496e+05
  -1.633643e+06  -1.049034e+05
  -1.059190e+06  -8.817645e+05
   4.708921e+05  -1.024965e+06
   1.540782e+06  -5.146795e+05
   1.285106e+06   1.849399e+05
   1.481991e+05   5.332608e+05
  -6.615346e+05   2.791701e+05
  -3.730945e+05  -2.996416e+05
   6.295565e+05  -5.098159e+05
   1.212446e+06   1.324548e+05
   6.366974e+05   1.243210e+06
  -6.762548e+05   1.729039e+06
  -1.560741e+06   8.609715e+05
  -1.275247e+06  -8.140340e+05
  -1.709603e+05  -1.851527e+06
   7.812811e+05  -1.332252e+06
   9.476758e+05   1.772386e+05
   4.403526e+05   1.224115e+06
  -2.138978e+05   9.992102e+05
  -5.681145e+05   8.468882e+04
  -4.916446e+05  -3.961033e+05
  -1.879044e+05  -1.454402e+05
  -4.207153e+04   1.013062e+05
  -2.484606e+05  -3.024866e+05
  -4.926506e+05  -9.991895e+05
  -2.015493e+05  -1.109364e+06
   7.123705e+05  -3.889630e+05
   1.511062e+06   5.049644e+05
   1.322271e+06   8.772565e+05
   1.784125e+05   7.157074e+05
  -9.042790e+05   4.186697e+05
  -1.019680e+06   1.784003e+05
  -3.506534e+05  -5.491892e+04
   1.615097e+05  -2.295401e+05
   1.574045e+04  -2.140424e+05
  -2.967956e+05  -1.067778e+05
  -4.144114e+04  -1.420485e+05
   7.107098e+05  -2.300061e+05
   1.075394e+06   3.858416e+04
   3.998272e+05   7.269904e+05
  -9.113318e+05   1.189803e+06
  -1.753020e+06   7.261479e+05
  -1.422172e+06  -4.900933e+05
  -2.505078e+05  -1.457335e+06
   8.112182e+05  -1.391804e+06
   1.093775e+06  -5.209234e+05
   6.767162e+05   2.604333e+05
   1.227485e+05   3.738898e+05
  -9.426992e+04   6.238578e+04
   7.271361e+04  -2.600474e+04
   3.086157e+05   3.746356e+05
   2.467184e+05   8.326122e+05
  -2.017380e+05   6.930230e+05
  -7.069084e+05  -1.464653e+05
  -7.384879e+05  -1.006927e+06
  -8.253110e+04  -1.069225e+06
   7.953107e+05  -2.314161e+05
   1.053848e+06   7.749100e+05
   3.296115e+05   1.130514e+06
  -7.527504e+05   6.749209e+05
  -1.143956e+06  -1.036026e+05
  -5.228886e+05  -6.328497e+05
   3.122409e+05  -6.786400e+05
   3.858526e+05  -3.628477e+05
  -2.699966e+05  -1.213648e+04
  -6.733323e+05   2.907006e+04
  -1.398487e+05  -3.190633e+05
   8.598015e+05  -6.859873e+05
   1.288612e+06  -5.382189e+05
   7.631480e+05   1.918906e+05
  -1.175090e+05   8.881193e+05
  -5.740825e+05   8.604702e+05
  -4.328694e+05   1.438899e+05
  -4.355797e+04  -5.023633e+05
   2.591048e+05  -4.386380e+05
   3.663747e+05   1.674499e+05
   2.505617e+05   5.994671e+05
  -6.940771e+04   4.306216e+05
  -4.036864e+05  -5.711902e+04
  -4.769567e+05  -2.911746e+05
  -2.441161e+05  -9.665342e+04
   2.298325e+04   1.497709e+05
   7.468268e+04   2.905570e+04
   3.936764e+03  -3.787468e+05
   8.684305e+04  -5.656108e+05
   3.488865e+05  -2.049541e+05
   4.591734e+05   4.173541e+05
   1.343160e+05   6.811014e+05
  -4.330215e+05   3.154700e+05
  -6.768242e+05  -3.084080e+05
  -2.497778e+05  -6.011397e+05
   5.259588e+05  -3.650647e+05
   9.042098e+05   9.924102e+04
   4.845250e+05   3.981206e+05
  -3.130122e+05   4.003344e+05
  -6.642291e+05   2.146492e+05
  -2.517341e+05   8.857332e+03
   3.723040e+05  -6.424914e+04
   4.292190e+05   7.938227e+04
  -1.815942e+05   3.086627e+05
  -7.827473e+05   2.767034e+05
