
 $NMID
 id='ANONYMOUS ', fmtdat='(2E16.6)'
 volume=1.0
 tramp=1.0
 $END
  -3.642603e+03  -9.300616e+01
  -2.118956e+03  -2.056649e+03
   2.737613e+02  -2.353926e+03
   1.738916e+03  -9.115411e+02
   9.318768e+02   3.898505e+02
  -3.287672e+02   4.090415e+02
  -6.994443e+02  -2.332447e+02
  -4.369677e+01  -8.438004e+02
   6.821160e+02  -6.214156e+02
   7.855987e+02   1.731152e+01
   4.190575e+02   6.909045e+02
  -1.776586e+02   8.108910e+02
  -4.518335e+02   1.862191e+02
  -3.210844e+02  -5.815893e+02
   1.605880e+02  -6.469388e+02
   5.061005e+02  -3.454998e+01
   3.124874e+02   5.578308e+02
  -1.932815e+02   6.009845e+02
  -4.954871e+02   1.949319e+02
  -4.099765e+02  -2.688260e+02
  -4.801499e+01  -4.190109e+02
   2.018598e+02  -2.265465e+02
   1.259617e+02  -2.728690e+01
  -1.701426e+02   2.236893e+01
  -3.383507e+02  -1.662102e+02
  -1.147346e+02  -4.120549e+02
   4.678300e+02  -3.012118e+02
   7.632149e+02   1.333222e+02
   3.278778e+02   4.169106e+02
  -3.626658e+02   3.649049e+02
  -6.240538e+02  -8.194986e+01
  -2.918678e+02  -3.839229e+02
   2.888006e+02  -4.597274e+02
   4.939589e+02  -1.510325e+02
   3.782668e+02   2.139255e+02
   5.311200e+01   4.203251e+02
  -1.313655e+02   2.120980e+02
  -8.050918e+01  -1.808963e+02
   2.177095e+02  -3.105827e+02
   3.507906e+02   6.541189e+01
   1.688325e+02   6.022878e+02
  -2.810718e+02   5.872946e+02
  -4.618180e+02   9.382440e-01
  -2.088845e+02  -4.352468e+02
   2.131193e+02  -2.373777e+02
   2.818831e+02   3.050793e+02
  -4.671577e+01   4.715361e+02
  -4.617478e+02   1.089784e+02
  -5.183598e+02  -3.481119e+02
  -1.609299e+02  -5.183801e+02
   3.250380e+02  -2.736652e+02
   6.148652e+02   5.308720e+01
   3.527452e+02   3.188346e+02
  -1.273670e+02   2.909697e+02
  -3.468999e+02   7.923820e+01
  -1.875984e+02  -1.226751e+02
   7.622050e+01  -8.184767e+01
   9.858187e+01   9.066250e+01
  -1.289150e+02   1.679656e+02
  -2.738017e+02  -5.748751e+01
  -1.120133e+02  -2.519816e+02
   1.816259e+02  -2.345291e+02
   3.161374e+02  -6.761457e+01
   2.041049e+02   9.053868e+01
  -7.484142e+00   2.620138e+02
  -2.529782e+02   3.046462e+02
  -3.352458e+02   1.926560e+02
  -2.596378e+02  -1.399770e+02
  -7.439241e+01  -3.743477e+02
   6.491066e+01  -2.996576e+02
   6.782072e+01  -1.148583e+02
   3.289501e+01  -4.466970e+01
   6.247910e+01  -1.102288e+02
   1.851974e+02  -1.145864e+02
   2.705090e+02   7.836684e+01
   1.117185e+02   2.525834e+02
  -8.038982e+01   2.294805e+02
  -2.216302e+02   6.958420e+00
  -1.825583e+02  -2.404280e+02
   5.657726e+01  -2.272847e+02
   2.663100e+02  -1.031241e+02
   3.272697e+02   1.710939e+02
   1.468079e+02   3.189541e+02
  -8.111595e+01   2.787816e+02
  -2.109736e+02   1.227826e+02
  -1.325167e+02   1.129674e+01
  -1.074176e+02   3.305542e+01
  -2.227645e+02   4.885443e+01
  -3.488757e+02  -4.164685e+01
  -3.393502e+02  -2.594863e+02
   3.606277e+01  -4.259771e+02
   3.601085e+02  -3.843379e+02
   4.980327e+02  -1.886055e+02
   2.887608e+02   9.984729e+01
   4.150302e+01   2.520946e+02
  -1.141737e+02   2.340133e+02
  -7.218793e+01   2.264207e+01
   1.158532e+02  -8.232035e+01
   1.706337e+02   1.777255e+01
   1.868688e+01   1.748653e+02
  -1.448945e+02   1.465739e+02
  -1.511237e+02  -6.963510e+01
   2.921034e+01  -1.622145e+02
   1.745609e+02  -3.418420e+01
   1.551208e+02   2.379011e+02
  -3.373300e+01   2.890423e+02
  -2.151026e+02   2.090025e+02
  -3.208414e+02  -6.429440e+01
  -2.902649e+02  -2.469647e+02
  -7.601256e+01  -2.720054e+02
   1.393510e+02  -1.382864e+02
   1.657052e+02   1.594265e+00
   2.575374e+01   2.207368e+01
  -6.811186e+01  -4.367073e+01
  -1.698961e+01  -1.067086e+02
   1.139613e+02  -5.546954e+01
   1.368656e+02   2.194611e+01
   5.515630e+01   7.064300e+01
  -9.672074e+01   3.684141e+01
  -5.911309e+01  -9.587649e+01
   1.535117e+02  -1.058001e+02
   2.685332e+02  -5.041995e+00
   2.362473e+02   1.773606e+02
   6.397503e+01   2.636999e+02
  -1.711420e+02   2.625765e+02
  -2.541963e+02   9.854560e+01
  -1.371777e+02  -5.944362e+01
   3.696315e+01  -9.379759e+01
   6.791391e+01   4.437730e+01
  -2.899198e+01   8.939492e+01
  -1.759105e+02   5.130845e+01
  -1.908122e+02  -1.254949e+02
  -8.482520e+01  -2.025329e+02
   5.428756e+01  -1.414404e+02
   1.370012e+02  -2.301155e+01
   5.521405e+01   4.949321e+01
  -4.339930e+01  -1.372045e+01
  -2.209206e+01  -6.519857e+01
   6.926443e+01  -8.989834e+01
   1.865090e+02  -6.103628e+01
   1.737197e+02   1.099602e+02
   2.073757e+01   1.930599e+02
  -1.371820e+02   1.460230e+02
  -1.769008e+02  -5.995360e+00
  -6.051088e+01  -1.245125e+02
   7.363227e+01  -1.318737e+02
   7.529417e+01  -1.452787e+01
   1.893515e+01   2.024293e+01
  -3.885282e+01   3.141932e+01
  -2.804574e+00  -1.552877e+01
   5.852180e+01   3.876111e+01
   7.648883e+01   8.611252e+01
   3.730854e+01   1.481597e+02
  -1.358131e+02   1.547962e+02
  -2.236749e+02   2.367671e+01
  -1.835148e+02  -1.473842e+02
  -4.899718e+01  -2.218812e+02
   8.088721e+01  -1.687447e+02
   1.360288e+02  -5.541748e+01
   6.211546e+01   4.540594e+01
   3.551759e+01   5.027131e+01
   6.584558e+01   1.148179e+01
   7.225076e+01  -9.770358e+00
   2.619672e+01   6.384627e+01
  -4.816240e+01   8.999192e+01
  -1.002112e+02   6.810317e+01
  -1.001231e+02  -5.473377e+01
  -4.862992e+00  -9.924468e+01
   1.378838e+02  -8.710405e+01
   2.024199e+02   3.837582e+01
   8.358014e+01   1.862391e+02
  -1.078423e+02   2.154279e+02
  -2.252583e+02   7.570454e+01
  -2.213928e+02  -9.293884e+01
  -1.062864e+02  -1.615113e+02
   3.657774e+01  -1.386593e+02
   8.421399e+01  -5.327443e+01
   6.771182e+01  -4.383157e+01
   7.634802e+01  -9.119715e+01
   7.598368e+01  -8.123343e+01
   1.404710e+02   7.209562e-01
   1.445999e+02   1.360285e+02
   1.659075e+01   2.131622e+02
  -1.168109e+02   1.562799e+02
  -1.577858e+02  -2.113554e+01
  -1.528279e+02  -1.346995e+02
  -2.490701e+01  -1.612012e+02
   5.409582e+01  -9.444497e+01
   7.067666e+01   1.143157e+01
  -8.131579e-01   5.576204e+01
  -3.557267e+01   2.532186e+01
   9.749102e+00   4.720672e-01
   6.493350e+01   1.461255e+01
   6.348954e+01   1.052787e+01
  -5.618098e+01   5.277523e+01
  -1.221897e+02   3.762272e+01
  -1.139640e+02  -3.456431e+01
  -2.295906e+01  -9.673606e+01
   1.036955e+02  -7.466813e+01
   1.474439e+02  -1.415451e+01
   5.307419e+01   4.011363e+01
  -2.622933e+01   1.932754e+01
  -7.766055e+01  -8.480052e+00
  -1.030743e+01  -4.663987e+01
   3.808803e+01  -3.334463e+01
   4.790567e+01  -3.414020e+00
   3.901265e+01   4.885727e+01
   4.059681e+01   4.723914e+01
   5.708309e+01  -2.398465e+01
   6.722255e+01   3.796243e+00
   5.397542e+01   6.537799e+01
  -1.668382e+01   1.359973e+02
  -1.314961e+02   1.148334e+02
  -1.853181e+02   3.769843e+01
  -1.041536e+02  -1.307420e+02
   5.210253e+00  -1.157463e+02
   7.827803e+01  -5.134708e+01
   3.302275e+01   2.572906e+01
  -5.140722e+01   2.583920e+01
  -1.447538e+02  -4.109073e+01
  -5.573066e+01  -1.141179e+02
   6.948103e+01  -1.131866e+02
   1.518761e+02  -5.124925e+01
   1.367199e+02   4.328205e+01
   4.149240e+01   1.087020e+02
  -5.810854e+01   8.903578e+01
  -5.490802e+01   8.842084e+00
   3.709171e+01  -1.030325e+01
   7.766072e+01   6.562836e+00
   3.647423e+01   1.376798e+02
  -8.527264e+01   1.049095e+02
  -1.366722e+02   4.694044e+01
  -1.047287e+02  -9.264215e+01
   1.918418e+01  -1.696198e+02
   9.282519e+01  -1.347756e+02
   8.670725e+01   1.110578e+01
   6.976229e+01   1.252430e+02
  -3.239614e+01   9.736011e+01
  -5.806256e+01   1.942192e+01
  -4.521983e+01  -2.632842e+01
  -2.620415e+01  -2.627298e+01
  -1.137486e+01   5.323780e+01
  -2.517250e+01  -1.437771e+01
  -5.109314e+01  -7.003265e+01
  -3.565408e+01  -1.196585e+02
   3.759318e+01  -4.091065e+01
   1.374141e+02   4.457950e+01
   1.448005e+02   8.131193e+01
   2.932787e+01   5.757205e+01
  -7.029172e+01   5.926308e+01
  -1.084879e+02   1.646411e+01
  -4.744249e+01  -2.567475e+01
   6.931069e+01  -3.163341e+01
   3.409410e+01  -3.858753e+01
  -2.429669e+01  -1.879524e+01
   7.665309e+00  -1.879618e+01
   6.668875e+01  -1.013277e+01
   8.665903e+01   3.984526e+01
   3.552001e+00   7.804922e+01
  -1.015033e+02   1.024468e+02
  -1.942447e+02   7.980358e+01
  -1.608399e+02  -5.095495e+01
  -1.719070e+01  -1.641553e+02
   6.361952e+01  -1.593495e+02
   1.029614e+02  -7.236114e+01
   9.657995e+01   4.455097e+01
   2.768226e+01   4.281972e+01
   1.625268e+01   4.016724e+01
   8.460016e+00   9.993379e+00
   4.163371e+01   3.587851e+01
   1.619481e+01   7.412369e+01
  -4.034400e+01   6.936476e+01
  -9.229290e+01  -4.714647e+01
  -5.231632e+01  -9.720799e+01
  -2.106246e+01  -1.052648e+02
   7.653890e+01  -1.404505e+01
   9.749819e+01   8.010900e+01
   4.451811e+01   1.036483e+02
  -8.493637e+01   6.950233e+01
  -1.186496e+02  -1.218434e+01
  -4.624569e+01  -5.840278e+01
   3.537555e+01  -3.857063e+01
   4.129840e+01  -3.775824e+01
  -4.585485e+01   2.011605e+01
  -3.678671e+01   3.340057e+01
  -2.730356e+01  -4.719877e+01
   5.936684e+01  -6.850487e+01
   1.206638e+02  -2.673951e+01
   9.161781e+01   2.557902e+01
  -3.187686e+01   8.968172e+01
  -6.484947e+01   8.511726e+01
  -1.338859e+01  -5.858237e+00
   1.042410e+01  -4.900289e+01
  -1.356715e+01  -4.215118e+01
   3.245065e+01  -1.172857e+00
   4.086055e+01   2.106313e+01
   1.162362e+01   1.648473e+01
  -2.628097e+01  -2.452331e+00
  -4.116557e+01  -2.664200e+01
  -9.244527e+00   4.977942e+00
  -7.316355e+00   4.030980e+00
   4.690333e+01  -1.258180e+01
  -8.665337e+00  -3.592715e+01
  -6.640244e+00  -7.108581e+01
   5.440856e+01   1.323509e+01
   2.067897e+01   4.141609e+00
   2.116637e+01   4.048737e+01
  -4.680161e+01   1.724650e+01
  -4.170640e+01  -2.652405e+01
   2.610674e+00  -6.458307e+01
   6.203991e+01  -6.222144e+01
   1.042985e+02   3.567369e+01
   4.459590e+01   3.533256e+01
  -4.129743e+01   4.794270e+01
  -6.178417e+01   1.642370e+01
  -3.182050e+01  -7.015651e+00
   4.494039e+01   2.925329e+01
   1.193033e+01  -5.573379e+00
  -4.421086e+01   2.784503e+01
  -8.955322e+01  -9.325877e+00
