
 $NMID
 id='ANONYMOUS ', fmtdat='(2E16.6)'
 volume=1.0
 tramp=1.0
 $END
  -3.609678e+03  -2.112328e+02
  -2.147170e+03  -2.109602e+03
   4.180912e+02  -2.306627e+03
   1.722095e+03  -9.342316e+02
   1.017424e+03   3.578601e+02
  -3.263632e+02   4.051721e+02
  -7.033474e+02  -2.496650e+02
  -4.688544e+01  -8.191917e+02
   6.555533e+02  -6.521495e+02
   7.714509e+02   2.022164e+01
   4.236912e+02   6.614120e+02
  -1.666393e+02   7.930444e+02
  -4.996361e+02   1.602257e+02
  -2.972802e+02  -5.539326e+02
   2.362932e+02  -6.813741e+02
   5.227661e+02  -1.366946e+01
   2.718599e+02   5.670436e+02
  -2.353976e+02   5.881720e+02
  -5.112222e+02   1.695573e+02
  -3.672543e+02  -2.798896e+02
  -3.628646e+01  -3.973195e+02
   2.193053e+02  -2.137361e+02
   1.985480e+02  -7.586526e+00
  -1.651500e+02  -1.576856e+01
  -3.275125e+02  -1.478737e+02
  -1.252810e+02  -3.718331e+02
   4.788423e+02  -3.036826e+02
   7.178196e+02   1.257372e+02
   2.880447e+02   4.775376e+02
  -3.491163e+02   3.685678e+02
  -5.871152e+02  -1.022160e+02
  -2.484165e+02  -4.215996e+02
   2.818059e+02  -4.422419e+02
   4.834831e+02  -1.563794e+02
   3.731519e+02   2.165459e+02
   5.232401e+01   3.723038e+02
  -1.633421e+02   1.954865e+02
  -5.613029e+01  -1.588413e+02
   1.952529e+02  -3.164449e+02
   3.632652e+02   4.779119e+01
   1.413922e+02   5.759880e+02
  -2.901763e+02   5.331586e+02
  -4.363015e+02  -1.017804e+01
  -1.663472e+02  -3.886102e+02
   2.448724e+02  -2.142295e+02
   2.529553e+02   2.797628e+02
  -8.619373e+01   4.535888e+02
  -4.951458e+02   9.977815e+01
  -4.942551e+02  -3.634924e+02
  -1.108346e+02  -5.034343e+02
   3.173391e+02  -2.479944e+02
   5.577361e+02   7.234536e+01
   3.161229e+02   3.256506e+02
  -1.144277e+02   2.987184e+02
  -3.419801e+02   2.897103e+01
  -1.846909e+02  -1.582626e+02
   6.918452e+01  -8.139322e+01
   1.246041e+02   9.229048e+01
  -1.085939e+02   1.673428e+02
  -3.122904e+02  -7.589547e+01
  -1.271035e+02  -2.412747e+02
   1.684441e+02  -2.283896e+02
   3.191002e+02  -6.215763e+01
   2.102739e+02   1.072253e+02
  -1.465709e+01   2.555751e+02
  -2.589938e+02   2.904473e+02
  -3.129074e+02   1.479821e+02
  -2.563177e+02  -1.446451e+02
  -4.615251e+01  -3.873706e+02
   9.488642e+01  -2.917997e+02
   7.527356e+01  -9.128568e+01
   6.389860e+00  -3.755163e+01
   5.915396e+01  -1.383072e+02
   2.070374e+02  -7.568811e+01
   2.496418e+02   9.598746e+01
   8.702101e+01   2.212931e+02
  -7.310790e+01   2.117045e+02
  -2.089111e+02  -2.458104e+01
  -1.475810e+02  -2.456328e+02
   7.223947e+00  -2.480264e+02
   2.605168e+02  -9.238073e+01
   2.928266e+02   1.772617e+02
   1.456449e+02   2.955280e+02
  -1.024380e+02   2.651763e+02
  -1.927584e+02   1.377930e+02
  -1.243290e+02   3.701792e+01
  -9.404939e+01   2.399758e+01
  -2.293288e+02   2.811688e+01
  -3.728597e+02  -2.979303e+01
  -3.078639e+02  -2.795983e+02
   1.517446e+01  -4.116408e+02
   3.507417e+02  -3.714118e+02
   4.725083e+02  -1.562574e+02
   3.104322e+02   1.321195e+02
   1.057372e+01   2.428984e+02
  -1.208301e+02   2.000816e+02
  -5.119918e+01   3.577434e+01
   9.899707e+01  -8.598076e+01
   1.661459e+02   3.320992e+01
   4.875105e+01   1.754268e+02
  -1.621997e+02   1.309373e+02
  -1.478870e+02  -6.805916e+01
   2.172009e+01  -1.508305e+02
   1.759807e+02  -2.525301e+01
   1.213432e+02   2.390475e+02
  -2.816784e+01   3.094582e+02
  -2.156532e+02   1.948801e+02
  -3.061085e+02  -5.002236e+01
  -2.619279e+02  -2.249000e+02
  -1.008386e+02  -2.554072e+02
   1.581800e+02  -1.436044e+02
   1.427731e+02   1.351874e+01
   4.036145e+01   3.344067e+01
  -5.296959e+01  -5.755585e+01
  -9.431243e+00  -1.194064e+02
   1.298449e+02  -7.301244e+01
   1.739160e+02   1.480367e+01
   1.575737e+01   6.838773e+01
  -9.116083e+01  -1.155087e+01
  -4.749544e+01  -8.171593e+01
   1.523990e+02  -7.069532e+01
   2.942075e+02  -8.693443e+00
   2.481615e+02   1.355607e+02
   2.236065e+01   2.570143e+02
  -1.679191e+02   2.473771e+02
  -2.366130e+02   7.373696e+01
  -1.266665e+02  -4.501399e+01
   4.601055e+01  -8.503409e+01
   8.664941e+01   3.054611e+01
  -2.057605e+01   8.407763e+01
  -1.973397e+02   7.516981e+01
  -2.085093e+02  -1.057667e+02
  -4.110434e+01  -1.762619e+02
   9.324602e+01  -1.475704e+02
   1.283277e+02  -8.909106e+00
   3.800787e+01   3.070511e+01
  -5.305938e+01   2.387765e+01
  -5.375203e+00  -7.985342e+01
   6.974273e+01  -9.068344e+01
   2.111589e+02  -2.362823e+01
   1.586037e+02   1.173230e+02
   2.238223e+01   2.021144e+02
  -1.346568e+02   1.207584e+02
  -1.838635e+02   1.366318e+01
  -4.507246e+01  -1.298223e+02
   7.171529e+01  -8.847702e+01
   1.158411e+02  -6.027322e-01
   2.083659e+01   1.073338e+01
  -2.493505e+01   3.597255e+01
   2.927715e+00  -2.135369e+01
   5.334578e+01   1.710467e+01
   6.582932e+01   7.524738e+01
   3.049859e+00   1.619248e+02
  -1.239571e+02   1.452487e+02
  -2.096049e+02   1.228257e+01
  -1.655998e+02  -1.497395e+02
  -4.322276e+01  -2.118182e+02
   1.408024e+02  -1.657448e+02
   1.266271e+02  -1.634111e+01
   7.147453e+01   4.595885e+01
   1.593854e+01   3.974790e+01
   3.896638e+01  -2.954154e+01
   8.828505e+01  -2.732501e+01
   5.170549e+01   2.558778e+01
  -2.361580e+01   9.057243e+01
  -9.516560e+01   4.495405e+01
  -9.894578e+01  -5.757444e+01
   3.158146e+01  -1.086130e+02
   1.253579e+02  -9.950098e+01
   2.186663e+02   6.417591e+01
   9.614171e+01   1.882870e+02
  -1.295960e+02   2.237714e+02
  -2.560902e+02   6.756797e+01
  -2.293123e+02  -8.628011e+01
  -1.025945e+02  -1.405332e+02
   1.628541e+01  -1.281039e+02
   7.717284e+01  -6.029358e+01
   9.623934e+01  -7.388524e+01
   5.843486e+01  -9.710080e+01
   7.134424e+01  -3.500932e+01
   1.009078e+02   3.497213e+01
   1.117014e+02   1.573218e+02
   2.036897e+01   2.035749e+02
  -1.155525e+02   1.400262e+02
  -1.460385e+02   1.459840e-01
  -1.198854e+02  -1.407466e+02
  -2.983847e+01  -1.205603e+02
   4.286067e+01  -7.053793e+01
   3.951773e+01   7.407606e+00
   3.596382e+00   2.938597e+01
   4.138554e-01   3.177608e+01
   1.498190e+01  -3.813936e+00
   7.105649e+01   3.283498e+01
   5.001093e+01   3.392967e+01
  -9.599919e+01   2.889612e+01
  -1.679661e+02  -1.375320e+01
  -1.193223e+02  -7.484743e+01
   6.057203e+00  -1.189519e+02
   1.227406e+02  -7.631846e+01
   1.506172e+02  -2.401254e+01
   5.242950e+01   4.523743e+01
  -5.038393e+01   5.590891e+01
  -7.440141e+01  -1.611652e+01
  -2.796801e+01  -6.666003e+01
   4.668133e+01  -7.447226e+01
   5.388998e+01  -8.414026e+00
   3.235159e+01   4.334834e+01
   2.727853e+01   3.105086e+01
   3.126335e+01  -9.169637e+00
   6.445662e+01  -3.634189e+01
   3.160394e+01   6.408061e+01
  -4.122831e+01   1.583315e+02
  -1.211335e+02   1.175668e+02
  -1.445387e+02   2.809449e+01
  -1.080676e+02  -9.834604e+01
   1.220035e+00  -1.120727e+02
   1.160560e+02  -9.141466e+01
   3.369226e+01   2.344709e+01
  -3.836178e+01   3.166039e+01
  -1.484974e+02  -5.653375e+01
  -7.667690e+01  -1.344723e+02
   6.740311e+01  -8.939833e+01
   1.841089e+02  -4.268170e+01
   1.370511e+02   2.529303e+01
   4.086420e+01   7.106194e+01
  -5.387205e+01   6.416615e+01
  -3.236464e+01   9.098005e+00
   3.695289e+01  -2.000509e+01
   7.604254e+01   3.520185e+01
   2.133529e+01   8.204802e+01
  -6.340517e+01   1.122484e+02
  -1.539272e+02   7.941177e+01
  -1.185832e+02  -9.935896e+01
  -2.161073e+01  -1.504132e+02
   8.277226e+01  -1.069658e+02
   1.154469e+02   6.895096e+00
   9.266549e+01   1.275098e+02
  -2.051496e+00   1.019528e+02
  -4.333583e+01   1.315124e+01
  -5.976970e+01  -2.098838e+01
  -7.143171e+00   3.779781e+00
  -3.242689e+01   3.832247e+01
  -4.516703e+01  -1.674995e+01
  -3.398272e+01  -7.164107e+01
  -3.486318e+01  -8.570698e+01
   8.189793e+01  -4.377259e+01
   1.413872e+02   3.830344e+01
   1.363779e+02   8.622895e+01
  -1.131708e+01   4.748453e+01
  -8.411137e+01   3.455182e+01
  -8.260410e+01   1.473793e+00
  -1.962549e+01  -3.776639e+01
   4.108613e+01  -2.649346e+01
  -3.056013e+00  -3.852189e+01
  -2.866252e+01   7.442966e+00
   1.495296e+01   1.180420e+01
   6.645085e+01   4.311782e+01
   8.846901e+01   3.340292e+01
   3.955702e+00   6.683993e+01
  -1.189586e+02   8.984074e+01
  -1.760027e+02   4.797944e+01
  -1.424906e+02  -7.075347e+01
  -7.117819e+00  -1.706211e+02
   7.949855e+01  -1.673179e+02
   9.295733e+01  -5.842293e+01
   6.571289e+01   3.095795e+01
  -1.073471e+01   3.678511e+01
  -1.871388e+00  -1.545363e+01
   1.729767e+01   2.507323e+01
   2.781697e+01   5.790590e+01
   1.431043e+01   8.174090e+01
  -3.392713e+01   7.955032e+01
  -7.074218e+01  -3.867134e+01
  -5.566700e+01  -9.643450e+01
  -1.844197e+01  -1.069658e+02
   8.380181e+01  -3.248889e+01
   9.277093e+01   6.368371e+01
   4.056446e+01   1.017684e+02
  -6.501878e+01   3.910623e+01
  -1.095730e+02  -2.514570e-01
  -1.621397e+01  -3.461704e+01
   2.305428e+01  -4.879316e+01
   7.696248e+00  -3.672289e+01
  -3.011748e+01   1.094163e+01
  -4.782073e+01  -2.229021e+01
   7.752893e-01  -4.611977e+01
   4.613621e+01  -3.955912e+01
   1.089367e+02  -4.370938e+01
   5.769379e+01   3.244041e+01
  -2.318193e+00   6.532065e+01
  -6.010277e+01   6.093434e+01
  -3.048436e+01  -1.962116e+01
  -2.277051e+01  -5.486469e+01
   3.131790e+01  -5.605189e+01
   3.773861e+01   2.139854e+01
   8.913219e+00   4.065769e+01
   1.359417e+01   9.435683e+00
   8.576338e-02  -1.872009e+01
  -3.446335e+01  -3.456855e+01
   2.175604e+00   1.490803e+00
   2.180264e+01   2.716301e+01
  -4.964717e+00   7.003124e+00
  -6.576180e+00  -4.265428e+01
   1.022399e+01  -3.982609e+01
   4.811709e+01  -5.024213e+00
   5.088354e+01  -1.376383e+00
   3.466267e+00   7.576274e+01
  -2.811040e+01   9.918255e+00
  -4.778277e+01  -4.171531e+01
  -2.066379e+01  -6.050915e+01
   7.892054e+01  -4.798087e+01
   1.074168e+02   1.032575e+01
   4.665214e+01   5.543773e+01
  -4.038074e+01   5.837421e+01
  -4.593707e+01   1.982056e+01
  -1.269411e+01  -1.517041e+01
   6.001167e+01  -1.488138e+00
   3.377263e+01   3.032772e+01
  -2.267956e+01   3.705241e+01
  -7.821338e+01   1.669615e+01
