
 $NMID
 id='ANONYMOUS ', fmtdat='(2E16.6)'
 volume=1.0
 tramp=1.0
 $END
   3.119045e+03   2.238300e+02
   1.997676e+03   1.685608e+03
  -1.722691e+02   1.881501e+03
  -1.413133e+03   9.464186e+02
  -9.220913e+02   8.565780e+01
   2.787440e+01  -2.759828e+02
   3.201109e+02   9.219936e+01
   9.414118e+01   5.658957e+02
  -4.461093e+02   5.645834e+02
  -5.919331e+02   5.750006e+01
  -4.192655e+02  -5.007631e+02
   4.228097e+01  -6.555869e+02
   3.510363e+02  -2.062184e+02
   2.801285e+02   4.381349e+02
  -1.524500e+02   5.337876e+02
  -4.276961e+02   1.053792e+02
  -2.764768e+02  -4.733150e+02
   1.231533e+02  -6.514834e+02
   4.617534e+02  -2.961752e+02
   4.210136e+02   2.020825e+02
   1.112718e+02   3.646066e+02
  -1.573963e+02   2.374532e+02
  -1.047796e+02   4.406672e+01
   1.465441e+02   7.136365e+01
   2.780304e+02   2.277954e+02
   3.166148e+01   3.616861e+02
  -4.453553e+02   1.713820e+02
  -6.279015e+02  -1.837254e+02
  -2.307345e+02  -3.757214e+02
   2.705912e+02  -2.662297e+02
   4.820491e+02   9.223041e+01
   2.170114e+02   3.772831e+02
  -2.351199e+02   3.618493e+02
  -4.428781e+02   1.077205e+02
  -3.294649e+02  -1.571885e+02
  -6.551328e+01  -3.488104e+02
   7.698125e+01  -1.517604e+02
  -2.611386e+01   1.327738e+02
  -1.672049e+02   1.676540e+02
  -2.160231e+02  -1.211197e+02
   7.156976e-01  -4.688343e+02
   2.280131e+02  -4.220517e+02
   3.590179e+02  -5.727710e+00
   1.222328e+02   2.900928e+02
  -1.442727e+02   1.395516e+02
  -2.065586e+02  -2.356812e+02
   1.142671e+02  -3.577765e+02
   4.414800e+02  -6.322066e+01
   4.532626e+02   3.169575e+02
   1.514943e+02   4.831144e+02
  -2.708066e+02   2.776789e+02
  -5.358110e+02  -3.348206e+01
  -2.900699e+02  -2.294613e+02
   5.618791e+01  -2.188930e+02
   2.507799e+02  -7.983829e+01
   1.984841e+02   5.165540e+01
   5.656902e+00   4.807645e+01
  -6.016031e+01  -8.080604e+01
   8.842874e+01  -9.896869e+01
   2.152403e+02   2.747891e+01
   1.372099e+02   1.946648e+02
  -1.464965e+02   2.119439e+02
  -3.251900e+02   1.449592e+02
  -2.615465e+02  -1.035793e+02
   1.670141e+01  -2.959161e+02
   2.548235e+02  -3.387223e+02
   3.621039e+02  -1.579097e+02
   2.384276e+02   1.479865e+02
   5.637314e+01   3.298944e+02
  -2.776933e+01   3.141736e+02
  -4.071386e+01   1.651717e+02
  -9.707484e+00   1.133597e+02
  -1.234166e+02   1.397565e+02
  -2.367838e+02   6.959158e+01
  -2.492103e+02  -9.929353e+01
  -9.964453e+01  -2.636418e+02
   7.269472e+01  -1.979324e+02
   2.221277e+02   2.601682e+01
   1.432716e+02   2.377846e+02
  -3.665368e+01   2.449137e+02
  -2.612890e+02   4.682526e+01
  -2.920710e+02  -1.669632e+02
  -1.650611e+02  -2.972493e+02
   4.987499e+01  -2.233367e+02
   1.595212e+02  -1.202042e+02
   1.586516e+02  -7.942260e+01
   1.217167e+02  -5.773431e+01
   2.180874e+02  -3.695922e+01
   3.573190e+02   7.178891e+01
   3.098135e+02   3.106799e+02
  -2.444732e+01   4.135709e+02
  -3.415475e+02   3.590373e+02
  -4.280862e+02   1.809424e+02
  -2.643647e+02  -8.760991e+01
  -4.216817e+01  -2.333749e+02
   8.176547e+01  -1.878642e+02
   4.327654e+01  -4.670494e+01
  -1.023554e+02   4.277231e+01
  -1.384114e+02  -3.739951e+01
  -1.932312e+01  -1.620012e+02
   1.224099e+02  -8.106630e+01
   1.053604e+02   4.011028e+01
  -1.055777e+01   1.396852e+02
  -1.811993e+02  -1.886123e+01
  -1.274848e+02  -2.141221e+02
   3.207497e+01  -2.946564e+02
   2.210430e+02  -1.947719e+02
   3.193676e+02   5.307524e+01
   2.426877e+02   2.483599e+02
   6.211828e+01   2.548089e+02
  -1.278452e+02   1.212048e+02
  -1.464952e+02   1.098061e+01
  -2.576878e+01  -2.341564e+01
   2.727928e+01   6.926432e+01
  -6.559444e+00   1.519150e+02
  -1.574732e+02   8.995706e+01
  -1.469318e+02  -6.163082e+01
  -4.676767e+01  -4.591274e+01
   1.093371e+02   5.028910e+00
   4.507354e+01   8.551167e+01
  -1.006416e+02   6.414769e+01
  -2.453933e+02  -7.436703e+00
  -2.306921e+02  -1.597729e+02
  -2.214779e+01  -2.560287e+02
   1.801965e+02  -2.585959e+02
   2.481841e+02  -6.661241e+01
   1.136850e+02   4.912171e+01
  -2.005209e+01   8.217751e+01
  -6.138717e+01  -3.833374e+01
   6.086863e+01  -7.515254e+01
   1.705286e+02   6.877417e+00
   1.759856e+02   8.571293e+01
   6.781976e+01   1.884273e+02
  -8.014326e+01   1.599073e+02
  -1.173152e+02   4.320876e+01
  -4.883391e+01  -3.177970e+01
   3.735927e+01   2.670110e+01
   3.127567e+01   8.019360e+01
  -8.104595e+01   8.345426e+01
  -2.050561e+02   5.552401e+00
  -2.095009e+02  -1.013931e+02
   3.305180e+01  -2.149292e+02
   1.489995e+02  -1.553333e+02
   1.590038e+02  -1.650836e+01
   3.794237e+01   7.921115e+01
  -9.211470e+01   8.815714e+01
  -7.163106e+01   1.243763e+01
  -1.214521e+00  -3.435090e+01
   3.249044e+01   3.794947e+00
  -1.565377e+01   1.436568e+01
  -8.973773e+01  -1.528200e+01
  -1.034889e+02  -8.449147e+01
  -3.439995e+01  -1.713190e+02
   1.357408e+02  -1.202260e+02
   2.254880e+02   1.235823e+01
   1.698779e+02   1.565697e+02
   2.569442e+01   2.145580e+02
  -1.080910e+02   1.529823e+02
  -1.223642e+02   9.423208e+00
  -5.136460e+01  -7.307323e+01
  -5.324643e+00   1.840077e+01
  -5.662114e+01   1.601241e+01
  -9.575386e+01  -1.414454e+01
  -5.177145e+01  -5.256330e+01
   4.283269e+01  -7.753935e+01
   1.378859e+02  -5.657731e+01
   1.104231e+02   5.597760e+01
   4.161538e+00   1.050921e+02
  -1.718791e+02   8.691306e+01
  -2.019488e+02  -5.920862e+01
  -7.855601e+01  -2.102020e+02
   1.225085e+02  -2.055951e+02
   2.612292e+02  -5.041993e+01
   2.273086e+02   8.652313e+01
   9.477022e+01   1.715063e+02
  -6.740249e+01   1.435925e+02
  -5.485679e+01   5.710978e+01
  -6.158564e+01   4.388170e+01
  -5.042587e+01   7.173463e+01
  -9.980299e+01   7.999005e+01
  -1.244845e+02  -6.730148e+00
  -9.931057e+01  -1.537348e+02
  -2.550697e+01  -2.272732e+02
   7.716528e+01  -1.510379e+02
   2.083025e+02   6.143871e+00
   1.448763e+02   1.444194e+02
   4.009811e+00   1.584197e+02
  -8.098519e+01   9.143940e+01
  -7.494670e+01  -3.514867e+01
   1.526585e+01  -3.175370e+01
   3.301107e+01  -2.627872e+01
  -8.733576e+00   5.828071e-01
  -7.354687e+01  -9.809110e+00
  -5.249799e+01  -6.188485e+01
   8.198239e+01  -1.648018e+01
   1.559992e+02   7.273950e-02
   1.501929e+02   8.658102e+01
   6.967004e+00   1.181038e+02
  -1.328939e+02   7.638488e+01
  -1.257375e+02  -1.649675e+01
  -3.928793e+01  -7.353220e+01
   4.959126e+01  -2.938942e+01
   6.420301e+01   2.621911e+01
   3.608986e+01   9.907374e+01
  -2.875737e+01   4.819324e+01
  -3.665317e+01  -2.124800e+01
  -6.396293e+01  -4.746701e+01
  -2.902556e+01  -5.955501e+01
  -6.235566e+01   4.292533e+00
  -4.510973e+01   1.240409e+01
  -4.151260e+01  -6.414730e+01
   3.027758e+01  -1.471411e+02
   1.063463e+02  -1.390320e+02
   1.717954e+02  -1.614755e+01
   1.288810e+02   8.119772e+01
   9.755730e+00   1.377715e+02
  -7.135037e+01   8.085912e+01
  -5.302263e+01  -3.347828e+01
   4.519047e+01  -6.837782e-01
   1.361691e+02   5.298905e+01
   7.001752e+01   1.139225e+02
  -7.693483e+01   1.198501e+02
  -1.764240e+02   2.318864e+01
  -1.787117e+02  -3.977429e+01
  -1.955980e+01  -1.167048e+02
   5.885614e+01  -8.297386e+01
   7.208894e+01   3.057109e+00
  -1.522551e+01   3.367807e+01
  -6.100001e+01  -1.308581e+01
  -2.963288e+01  -1.057239e+02
   8.107781e+01  -1.560263e+02
   1.709115e+02  -7.150848e+01
   1.074047e+02   8.811058e+01
   2.593468e+01   2.178531e+02
  -8.515251e+01   1.145474e+02
  -9.993681e+01  -1.025726e+01
  -6.591174e+01  -1.378929e+02
   2.278748e+01  -9.070845e+01
   5.694654e+01  -2.634797e+01
   2.462207e+01   6.186992e+01
   6.800808e+00   1.062171e+01
  -1.094510e+01  -2.223810e+01
   1.094164e+01   1.029807e+01
   6.659017e+01   6.802225e+01
   2.396936e+01   1.055390e+02
  -4.718322e+01   5.083356e+01
  -1.154424e+02  -3.656977e+01
  -1.231843e+02  -7.411766e+01
  -1.188627e+01  -6.734718e+01
   8.903751e+01  -4.658576e+01
   9.270173e+01   1.795558e+01
   2.053160e+01   2.508287e+00
  -2.871315e+01   2.249096e+01
  -4.416501e+01   1.588894e+01
   8.752128e+00  -1.083165e+00
   6.307030e+00  -1.354829e+01
  -2.789275e+01   1.291402e+01
  -9.585760e+01  -3.065118e+00
  -1.421998e+01  -8.705942e+01
   1.000339e+02  -9.107752e+01
   1.782512e+02  -5.495642e+01
   1.336442e+02   5.264008e+01
   2.926882e+01   1.637800e+02
  -7.264610e+01   1.567027e+02
  -1.082297e+02   4.343614e+01
  -8.017122e+01  -1.032186e+01
  -3.849623e+01  -3.632869e+01
   8.455625e-01  -1.861436e+01
  -5.901791e+00  -7.076319e+00
  -4.784498e+01  -4.680046e+01
  -2.091956e+01  -7.723879e+01
   3.184396e+01  -7.354066e+01
   8.581908e+01   2.927410e+01
   6.451943e+01   1.198293e+02
   4.167439e+01   1.008250e+02
  -7.824232e+01   6.040726e+01
  -1.090768e+02  -6.192594e+01
  -1.589494e+01  -1.007880e+02
   6.546294e+01  -5.091312e+01
   9.860246e+01   7.253332e+00
   4.279646e+01   6.350731e+01
  -4.330902e+01   7.335455e+01
  -2.517573e+01   5.255407e+01
   3.048714e+01   3.740945e+00
   7.137711e+01   2.447363e+00
  -1.822024e+00   2.309185e+01
  -9.427815e+01   7.762859e+01
  -9.433193e+01   5.271819e+01
  -7.581733e+01  -5.092298e+01
   5.908610e+00  -7.890810e+01
   7.224112e+01  -6.519527e+01
   5.741908e+01   6.030350e+00
   7.875820e+00   4.300021e+01
  -2.143934e+01   4.300473e+01
  -4.639219e+01  -1.108102e+01
  -3.817080e+01  -6.525990e+01
   2.173570e+01  -3.735159e+01
   3.260641e+01   1.477923e+01
   4.801864e+01   1.458343e+01
  -5.584696e+00  -2.993933e+00
   3.398624e+00  -1.732088e+01
   8.027114e+00  -9.450660e+00
   3.995977e+00   2.689923e+01
   2.679224e+01   5.313963e+01
  -1.315245e+01   2.823980e+01
  -4.163942e+01  -1.763887e+01
  -1.172475e-01  -7.616879e+01
   4.622812e+01  -1.150297e+01
   8.309395e+01   7.220796e+00
   6.500604e+00   4.499083e+01
  -7.622863e+01   4.812224e+01
  -8.511159e+01  -1.561933e+01
  -4.273053e+01  -3.799941e+01
   2.876923e+01  -2.884798e+01
   3.130838e+01  -3.081645e+01
   1.910142e+01   2.595192e+01
  -2.592532e+01   1.543869e+01
  -6.965722e+00   3.018823e+00
   1.142468e+01  -4.503316e+01
   3.407163e+01  -2.432227e+01
