
 $NMID
 id='ANONYMOUS ', fmtdat='(2E16.6)'
 volume=1.0
 tramp=1.0
 $END
  -3.404218e+03  -7.744579e+00
  -2.173335e+03  -1.973342e+03
   3.868958e+02  -2.243314e+03
   1.508642e+03  -1.001903e+03
   8.091125e+02   2.456634e+02
  -3.627886e+02   3.824965e+02
  -5.194853e+02  -2.010740e+02
  -6.473217e+01  -7.476497e+02
   5.204656e+02  -6.163666e+02
   7.301408e+02  -3.498573e+00
   4.107561e+02   6.150679e+02
  -1.828950e+02   7.367462e+02
  -4.334288e+02   1.201800e+02
  -3.431607e+02  -5.420652e+02
   1.636318e+02  -6.052425e+02
   4.761910e+02  -4.140731e+01
   2.838495e+02   5.412637e+02
  -2.092534e+02   5.898804e+02
  -5.501355e+02   2.003706e+02
  -4.083893e+02  -2.875916e+02
  -5.175129e+01  -3.890788e+02
   1.609715e+02  -2.248469e+02
   1.296923e+02   1.269297e+01
  -1.396320e+02   1.041407e+01
  -3.441952e+02  -1.812892e+02
  -6.189866e+01  -3.586880e+02
   4.164978e+02  -2.418046e+02
   7.264184e+02   1.399593e+02
   2.481579e+02   4.510607e+02
  -3.233881e+02   3.176281e+02
  -5.689078e+02  -1.171501e+02
  -2.326313e+02  -3.857786e+02
   2.644837e+02  -4.169141e+02
   4.796530e+02  -1.215039e+02
   3.137050e+02   1.927657e+02
   5.614515e+01   3.627624e+02
  -1.262961e+02   1.977776e+02
  -5.777732e+01  -1.745819e+02
   1.985173e+02  -2.596227e+02
   3.154761e+02   9.453580e+01
   1.690198e+02   5.689484e+02
  -2.466118e+02   4.801551e+02
  -4.116363e+02   8.797440e+00
  -1.612069e+02  -4.137537e+02
   2.136737e+02  -1.988847e+02
   2.691372e+02   2.614292e+02
  -6.756054e+01   3.855629e+02
  -4.940593e+02   9.003858e+01
  -5.187859e+02  -3.375516e+02
  -1.359068e+02  -4.987737e+02
   3.653764e+02  -3.022033e+02
   5.405371e+02   7.880445e+01
   3.044288e+02   2.614429e+02
  -8.991525e+01   2.819205e+02
  -3.420234e+02   6.720790e+01
  -2.137820e+02  -8.082002e+01
   4.046338e+01  -6.566117e+01
   1.041490e+02   9.762721e+01
  -8.179611e+01   1.232194e+02
  -2.722718e+02  -2.426191e+01
  -1.425881e+02  -2.572591e+02
   1.419036e+02  -2.392344e+02
   3.283456e+02  -1.100975e+02
   2.536169e+02   1.045562e+02
  -2.330885e+01   2.674909e+02
  -2.447142e+02   3.105295e+02
  -3.372049e+02   1.577208e+02
  -2.035170e+02  -1.453104e+02
  -4.508045e+01  -3.084135e+02
   4.762226e+01  -2.900597e+02
   4.783521e+01  -1.008289e+02
   2.261434e+01  -5.607774e+01
   9.703812e+01  -1.209069e+02
   2.133590e+02  -7.520791e+01
   2.309343e+02   7.322542e+01
   1.053108e+02   2.234780e+02
  -8.562262e+01   2.156415e+02
  -1.968137e+02  -1.014395e+01
  -1.637184e+02  -2.235806e+02
   3.424866e+01  -2.612122e+02
   2.446397e+02  -8.604150e+01
   2.854857e+02   1.651460e+02
   1.523198e+02   2.953272e+02
  -9.884269e+01   2.778360e+02
  -1.854173e+02   1.104383e+02
  -1.106203e+02   2.727317e+01
  -8.361121e+01   6.197527e+01
  -2.036805e+02   6.345459e+01
  -3.716952e+02  -7.006690e+01
  -3.033417e+02  -2.774393e+02
   1.988891e+01  -3.934761e+02
   3.016575e+02  -3.930394e+02
   4.338086e+02  -1.508513e+02
   2.767467e+02   7.479348e+01
  -4.490838e+00   2.785482e+02
  -1.041536e+02   1.902817e+02
  -7.008585e+01   4.202451e+01
   1.057735e+02  -8.814235e+01
   1.434366e+02   1.853649e+01
   2.728323e+01   1.772199e+02
  -1.343420e+02   1.301888e+02
  -1.180280e+02  -5.956804e+01
   9.416944e+00  -1.431552e+02
   1.668416e+02  -2.995648e+01
   1.365209e+02   2.290075e+02
   9.250670e+00   2.985819e+02
  -2.374640e+02   1.731302e+02
  -3.011521e+02  -3.740421e+01
  -2.733712e+02  -2.331882e+02
  -6.844945e+01  -2.549257e+02
   8.232497e+01  -1.429777e+02
   1.302331e+02  -8.205454e+00
   4.504234e+01   1.272990e+01
  -6.408336e+01  -4.574668e+01
  -2.207398e+01  -1.063433e+02
   1.211312e+02  -8.744682e+01
   1.784984e+02   9.443415e+00
   3.749559e+01   4.951113e+01
  -5.772858e+01   1.117229e+01
  -2.683445e+01  -6.324190e+01
   1.270639e+02  -6.659587e+01
   2.572698e+02   2.112553e+01
   2.313536e+02   1.402415e+02
   4.275355e+01   2.162243e+02
  -1.684253e+02   2.259367e+02
  -2.269826e+02   1.214668e+02
  -1.256030e+02  -6.614466e+01
   1.821274e+01  -9.893905e+01
   8.363653e+01  -1.509015e+01
  -2.205910e+01   6.919880e+01
  -1.618094e+02   3.384653e+01
  -1.698853e+02  -1.196075e+02
  -6.019937e+01  -2.002639e+02
   8.639716e+01  -1.329167e+02
   1.326946e+02  -3.325932e+01
   4.242216e+01   3.396169e+01
  -3.224296e+01  -1.309545e+01
  -1.106850e+01  -9.245088e+01
   6.404808e+01  -1.303030e+02
   1.886590e+02  -1.141634e+01
   1.634057e+02   1.214463e+02
   5.778123e+00   2.079906e+02
  -1.477114e+02   1.305727e+02
  -1.719423e+02  -5.808409e+00
  -7.649219e+01  -7.103859e+01
   5.096931e+01  -9.029378e+01
   6.409565e+01   2.798443e+00
   1.352677e+01   4.330659e+01
  -2.682212e+01   2.639906e+01
   1.261282e+01  -4.959902e+00
   8.945953e+01   8.464117e+00
   1.229238e+02   9.391047e+01
   1.269243e-01   1.355134e+02
  -1.244537e+02   1.719568e+02
  -2.152528e+02   4.355828e+01
  -1.923403e+02  -1.638385e+02
  -4.425057e+01  -2.048109e+02
   1.164529e+02  -1.548730e+02
   1.351894e+02  -2.174619e+01
   7.267987e+01   4.394252e+01
   1.851879e+01   1.004880e+01
   5.610199e+01  -3.260333e+01
   7.958702e+01  -2.764749e+01
   3.602506e+01   6.687550e+01
  -2.381471e+01   6.508435e+01
  -9.337039e+01   4.094786e+01
  -7.696723e+01  -5.181979e+01
   1.516455e+00  -1.243577e+02
   1.250821e+02  -9.519088e+01
   2.010126e+02   6.762616e+01
   9.487240e+01   1.878799e+02
  -7.878550e+01   2.039127e+02
  -2.456105e+02   1.041939e+02
  -2.263835e+02  -8.722697e+01
  -9.495420e+01  -1.781886e+02
   3.519877e+01  -1.253732e+02
   5.524604e+01  -4.937688e+01
   7.714210e+01  -5.644351e+01
   6.393488e+01  -6.691266e+01
   8.526099e+01  -4.002655e+01
   1.156245e+02  -2.776581e+00
   1.337934e+02   1.415245e+02
   4.471922e+01   2.157512e+02
  -7.019657e+01   1.541238e+02
  -1.575186e+02   2.184145e+01
  -1.297217e+02  -1.366706e+02
  -1.476211e+00  -1.406701e+02
   6.696254e+01  -6.914944e+01
   6.829349e+01   1.195408e+01
  -4.237718e+00   5.715322e+01
  -1.709962e+01   3.003569e+01
   4.881839e+01   1.314927e+01
   6.166207e+01   2.233946e+01
   2.807213e+01   4.078817e+01
  -5.905092e+01   2.164243e+01
  -1.579362e+02  -3.165494e+00
  -1.480000e+02  -5.941740e+01
   2.431316e+00  -7.388627e+01
   1.177458e+02  -7.181119e+01
   1.513133e+02  -1.313744e+01
   6.541272e+01   5.279576e+01
  -7.995082e+01   4.514228e+01
  -7.366430e+01  -2.630493e+01
  -2.103653e+00  -5.684099e+01
   2.229139e+01  -5.004348e+01
   3.949205e+01  -2.023674e+00
   4.257768e+01   5.693216e+01
   2.765979e+01   1.699625e+01
   6.154071e+01  -1.108115e+01
   7.406066e+01   2.231647e+00
   5.253297e+01   7.110328e+01
  -2.372053e+01   1.383548e+02
  -9.725068e+01   1.470334e+02
  -1.546717e+02   5.099190e+01
  -1.265827e+02  -6.683971e+01
  -6.807651e+00  -1.317382e+02
   9.566240e+01  -8.128779e+01
   5.862475e+01   1.613067e+01
  -3.713340e+01   3.189099e+00
  -1.129884e+02  -8.301762e+01
  -5.364838e+01  -1.113247e+02
   7.498139e+01  -9.732277e+01
   2.016140e+02  -4.675266e+01
   1.342268e+02   5.089702e+01
  -6.208262e+00   8.394649e+01
  -6.407353e+01   3.165965e+01
  -5.999648e+01  -7.414812e+00
   2.528973e+01  -4.474894e+01
   9.845762e+01   3.430645e+01
   4.289362e+01   1.027498e+02
  -6.552212e+01   1.325935e+02
  -1.384615e+02   5.230261e+01
  -1.013530e+02  -7.755462e+01
   2.281312e+01  -1.635702e+02
   8.084987e+01  -1.099067e+02
   1.047113e+02   7.537128e+00
   5.828322e+01   1.315362e+02
  -2.383623e+01   1.106820e+02
  -2.894948e+01   1.695827e+00
  -5.642799e+01  -2.179587e+01
  -2.648603e+00   7.290541e+00
  -1.254931e+01   7.065535e+00
  -3.290343e+01  -2.503956e+01
  -3.951286e+01  -8.328841e+01
  -3.026437e+01  -1.096846e+02
   4.088844e+01  -4.611277e+01
   1.126123e+02   2.055719e+01
   1.029626e+02   7.346632e+01
   1.004843e+01   6.531195e+01
  -5.177963e+01   3.476182e+01
  -9.650251e+01   1.169721e+01
  -4.520259e+00  -5.340539e+01
   2.941285e+01  -9.703560e+00
   2.738117e+01   3.821815e+00
  -3.693789e+01  -1.793866e+00
  -2.674273e+01   3.025108e+01
   7.980029e+01   4.625608e+00
   8.803982e+01   4.347347e+01
   3.177847e+01   8.728280e+01
  -1.124839e+02   1.102290e+02
  -1.676241e+02   5.607396e+01
  -1.583265e+02  -5.587004e+01
  -5.166072e+01  -1.329602e+02
   7.894428e+01  -1.570153e+02
   1.159421e+02  -4.353974e+01
   7.956816e+01   2.740672e+01
   3.439703e+01   3.241266e+01
  -1.105417e+00   1.396785e+01
   1.866434e+00   6.907159e+00
   2.202451e+01   1.931047e+01
   1.633614e+01   8.217753e+01
  -2.407447e+01   6.863281e+01
  -9.988333e+01  -8.369919e+00
  -8.511565e+01  -8.717496e+01
   3.821521e+00  -9.901287e+01
   8.672838e+01  -2.206887e+01
   9.208096e+01   7.280343e+01
   3.841778e+01   8.507377e+01
  -6.823736e+01   6.224929e+01
  -7.661643e+01   3.201165e+00
  -2.202666e+01  -2.551273e+01
   2.822191e+01  -1.903105e+00
   2.160022e+01  -3.335891e+00
  -2.806147e+01   7.990611e+00
  -5.039186e+01   3.451016e+01
  -2.359221e+01  -2.167483e+01
   7.972675e+01  -6.270011e+01
   1.157482e+02  -4.054281e+01
   4.412911e+01   3.224050e+01
   4.219500e+00   7.007703e+01
  -4.955651e+01   7.709607e+01
  -3.986250e+01   2.244378e+00
   1.938364e+01  -6.527568e+01
   3.373231e+01  -2.677071e+01
   3.485939e+01   2.129228e+01
  -1.486277e+01   5.094108e+01
  -2.753375e+01   1.792981e+01
  -1.864137e+01  -1.176137e+01
  -1.554166e+01  -8.393068e+00
  -1.203620e+01   1.267651e+01
  -7.170730e+00   4.650220e+01
  -1.012560e+01   1.969164e+01
  -1.286052e+01  -3.291460e+01
   1.472794e+01  -2.741555e+01
   2.816136e+01   4.223065e+00
   1.155506e+01   7.696128e+01
   5.958968e-01   5.475718e+01
  -2.491155e+01   2.449113e+01
  -5.184111e+01  -5.784184e+01
  -1.397944e+01  -6.008338e+01
   6.750769e+01  -4.030018e+01
   1.072286e+02   3.014056e+01
   4.156342e+01   6.007577e+01
  -2.946263e+01   3.932368e+01
  -6.717061e+01   4.637118e+00
  -2.930998e+01  -8.930595e+00
   6.176207e+01  -2.854584e+01
   4.171778e+01   1.156303e+01
  -2.695825e+01   1.036873e+01
  -8.375626e+01   2.440112e+01
