
 $NMID
 id='ANONYMOUS ', fmtdat='(2E16.6)'
 volume=1.0
 tramp=1.0
 $END
   3.516881e+03  -8.579520e+01
   2.217098e+03   2.211950e+03
  -6.212663e+02   2.471134e+03
  -1.817373e+03   9.009005e+02
  -8.234359e+02  -4.432463e+02
   5.193104e+02  -5.628185e+02
   7.929900e+02   2.829271e+02
   3.372588e+01   9.015115e+02
  -6.915295e+02   6.599403e+02
  -8.047190e+02  -4.476492e+01
  -4.002318e+02  -6.946363e+02
   1.986283e+02  -7.298151e+02
   5.993273e+02  -1.427829e+02
   3.518873e+02   6.284438e+02
  -1.868040e+02   6.599462e+02
  -5.166612e+02   3.137727e+00
  -2.901468e+02  -6.300585e+02
   2.804805e+02  -5.419917e+02
   5.040549e+02  -7.675582e+01
   3.322054e+02   3.000229e+02
   9.204509e+00   3.626656e+02
  -2.212508e+02   1.853296e+02
  -1.547258e+02  -8.663406e+00
   1.344780e+02  -5.971985e+01
   3.351512e+02   1.016770e+02
   1.351104e+02   3.715309e+02
  -4.039725e+02   3.227340e+02
  -7.054935e+02  -7.357443e+01
  -3.938752e+02  -4.529664e+02
   3.256483e+02  -4.074212e+02
   6.118056e+02   1.912458e+01
   2.697044e+02   4.045890e+02
  -2.255840e+02   4.509566e+02
  -4.779921e+02   1.495583e+02
  -3.667439e+02  -2.056524e+02
  -5.981635e+01  -4.077047e+02
   1.679473e+02  -1.886441e+02
   1.478380e+02   1.969577e+02
  -1.564656e+02   3.861716e+02
  -3.929891e+02  -2.644060e+01
  -2.276323e+02  -5.856258e+02
   3.139232e+02  -6.260827e+02
   5.202309e+02  -7.762274e+00
   2.218585e+02   4.766307e+02
  -2.676727e+02   2.786512e+02
  -3.666615e+02  -2.804747e+02
   6.751261e+01  -4.566294e+02
   4.805645e+02  -1.134791e+02
   4.889255e+02   2.983730e+02
   1.217317e+02   4.979270e+02
  -3.260473e+02   3.018354e+02
  -5.170569e+02  -4.885717e+01
  -3.302372e+02  -3.337925e+02
   1.199263e+02  -3.163625e+02
   3.731489e+02  -4.629362e+01
   2.315864e+02   1.674129e+02
  -9.086941e+01   8.497538e+01
  -1.587083e+02  -1.138931e+02
   1.122208e+02  -1.710715e+02
   3.007511e+02   2.427419e+01
   1.162921e+02   2.338993e+02
  -1.447383e+02   2.317361e+02
  -2.913420e+02   6.194844e+01
  -1.917524e+02  -9.632948e+01
   2.180171e+01  -1.990635e+02
   2.290660e+02  -2.767112e+02
   3.124382e+02  -1.236834e+02
   2.537350e+02   1.249783e+02
   7.613229e+01   3.646947e+02
  -1.379355e+02   3.334309e+02
  -1.333677e+02   5.168241e+01
  -3.850232e+00  -4.539272e+00
  -4.667495e+01   5.521955e+01
  -1.828209e+02   9.690148e+01
  -2.112399e+02  -4.045060e+01
  -1.334640e+02  -2.090968e+02
   6.547333e+01  -2.046551e+02
   2.049558e+02  -1.419196e+01
   1.433882e+02   1.976564e+02
   4.011774e-01   2.365681e+02
  -2.255014e+02   1.267421e+02
  -3.112756e+02  -1.188114e+02
  -1.927424e+02  -2.981056e+02
   5.448537e+01  -2.800066e+02
   1.971792e+02  -1.236287e+02
   1.410927e+02   7.382472e+00
   7.872708e+01  -4.415281e+01
   1.612128e+02  -4.070476e+01
   3.702638e+02   4.265668e+01
   2.769867e+02   2.451729e+02
  -8.692482e+00   3.979777e+02
  -3.008669e+02   3.603108e+02
  -4.076620e+02   1.527143e+02
  -2.841950e+02  -8.644012e+01
  -2.897816e+01  -2.492208e+02
   1.069567e+02  -2.044208e+02
   5.794684e+01  -1.904480e+01
  -6.278673e+01   1.118173e+02
  -1.845859e+02   4.943377e+00
  -3.935180e+01  -1.811193e+02
   1.424021e+02  -1.568704e+02
   1.522061e+02   3.950562e+01
   1.396199e+01   1.494326e+02
  -1.562440e+02   1.366343e+00
  -1.675869e+02  -2.277361e+02
   3.706585e+01  -3.212083e+02
   2.181123e+02  -1.635251e+02
   3.269388e+02   4.810772e+01
   2.403297e+02   1.975195e+02
   8.217153e+01   2.353729e+02
  -6.837430e+01   1.469077e+02
  -1.712673e+02   6.211287e+00
  -4.523741e+01  -5.232344e+01
   5.119031e+01   4.637119e+01
   3.480738e+01   9.247720e+01
  -1.234786e+02   7.855646e+01
  -1.446906e+02  -2.860239e+01
  -4.767448e+01  -7.356414e+01
   5.184590e+01  -3.259305e+01
   6.030577e+01   7.303407e+01
  -1.247909e+02   9.269316e+01
  -2.235380e+02   1.379153e+01
  -1.952388e+02  -1.056773e+02
  -3.680430e+01  -2.121755e+02
   1.626321e+02  -1.993266e+02
   2.344847e+02  -1.100101e+02
   1.342481e+02   2.460528e+01
  -2.308788e+01   1.166858e+02
  -6.747371e+01  -9.554664e+00
   1.351452e+00  -6.452683e+01
   1.560705e+02  -4.273787e+01
   1.943812e+02   8.735496e+01
   3.970777e+01   1.887572e+02
  -6.928851e+01   1.203089e+02
  -1.276605e+02   2.397479e+01
  -5.571489e+01  -3.190484e+01
   5.241508e+01  -2.247684e+01
   2.375365e+00   7.694729e+01
  -8.513380e+01   9.545113e+01
  -1.443769e+02   2.826160e+01
  -1.567722e+02  -1.291245e+02
  -4.621783e+01  -1.875022e+02
   1.211960e+02  -1.538267e+02
   1.564704e+02  -2.112476e+01
   5.908055e+01   8.862254e+01
  -4.127922e+01   9.207052e+01
  -6.787650e+01   1.154261e+01
  -1.419489e+01  -9.554502e+00
   1.944677e+01  -2.411927e+00
   2.461867e+00  -3.534028e+00
  -3.976966e+01  -2.011958e+01
  -7.726280e+01  -6.371706e+01
  -1.022164e+01  -1.296694e+02
   1.191767e+02  -1.089621e+02
   1.644849e+02  -5.911874e+00
   1.678645e+02   1.318727e+02
   5.771152e+01   1.912081e+02
  -1.058620e+02   1.210627e+02
  -9.999053e+01   1.946885e+01
  -5.846318e+01  -5.860566e+01
  -4.096803e+00  -2.688760e+01
  -2.052134e+01   2.567096e+01
  -7.249036e+01   1.273450e+01
  -3.118084e+01  -2.502342e+01
   3.094672e+01  -7.982032e+01
   7.466465e+01  -5.416370e+01
   6.642987e+01   1.227832e+01
  -5.915998e+00   1.235018e+02
  -1.204661e+02   6.707039e+01
  -1.598241e+02  -4.423669e+01
  -9.151281e+01  -1.455643e+02
   6.526669e+01  -1.912894e+02
   2.380133e+02  -8.052162e+01
   2.034547e+02   4.695398e+01
   1.181928e+02   1.476802e+02
  -7.255108e+01   1.286864e+02
  -7.891753e+01   7.016132e+01
  -7.210740e+01   4.208956e+01
  -5.395833e+01   8.347688e+01
  -4.312559e+01   5.035928e+01
  -9.257597e+01  -1.299509e+01
  -1.057309e+02  -1.292973e+02
  -2.044611e+01  -1.798235e+02
   7.559977e+01  -1.615144e+02
   1.548523e+02   4.322168e-01
   1.133917e+02   1.079348e+02
   4.064382e+01   1.186956e+02
  -7.171784e+01   6.467639e+01
  -2.918656e+01  -5.848408e+00
  -1.909036e-01  -3.811634e+01
   3.656117e+01  -4.553349e+01
  -3.483402e+01   7.827884e-01
  -8.387408e+01  -1.601218e+01
  -4.253011e+01  -4.302670e+01
   6.652186e+01  -3.560931e+01
   1.478094e+02  -5.972592e+00
   1.091810e+02   5.986530e+01
  -1.025641e+01   8.455244e+01
  -1.213052e+02   6.601407e+01
  -1.289349e+02   1.833957e+01
  -5.043409e+01  -3.829186e+01
   4.986981e+01  -2.027829e+01
   6.578966e+01   4.129572e+01
   4.408874e-01   6.460331e+01
  -4.946057e+01   3.263736e+01
  -3.945482e+01  -4.806684e+00
  -2.618463e+01  -4.256002e+01
  -3.095849e+01  -4.276626e+01
  -4.528637e+01   8.418000e+00
  -7.799728e+01   3.291496e+01
  -3.367690e+01  -6.203325e+01
   2.049692e+01  -1.251949e+02
   1.302383e+02  -1.288620e+02
   1.356690e+02  -3.889996e+01
   8.618895e+01   6.551130e+01
   1.418590e+01   1.181075e+02
  -7.090759e+01   3.870298e+01
  -5.428663e+01  -2.707646e+00
   5.451012e+01  -1.297047e+01
   9.512481e+01   4.661036e+01
   3.530667e+01   7.392157e+01
  -8.181301e+01   9.904960e+01
  -1.313186e+02   4.647300e+01
  -1.098264e+02  -1.440131e+01
  -4.991594e+01  -5.948528e+01
   4.754103e+01  -6.968263e+01
   4.788824e+01  -7.621203e+00
  -2.388079e+00   3.104518e+01
  -8.806586e+01  -3.265066e+01
  -1.849507e+00  -7.660320e+01
   7.399244e+01  -1.136789e+02
   1.431268e+02  -6.966371e+01
   1.090813e+02   8.965118e+01
  -1.537531e+01   1.567841e+02
  -3.803441e+01   1.023540e+02
  -8.113271e+01   6.761260e+00
  -5.225230e+01  -1.089880e+02
   1.079204e+01  -6.464968e+01
   2.088034e+01  -3.168915e+01
   6.735339e+01   2.636923e+01
   2.684098e+01   2.111902e+01
   5.024979e+00  -3.147990e+01
   4.131858e+01  -4.841501e+00
   5.483964e+01   6.621332e+01
   1.889793e+01   1.064017e+02
  -7.211234e+01   2.203414e+01
  -1.164946e+02  -3.784390e+01
  -1.005254e+02  -8.471044e+01
   3.812605e+00  -2.264360e+01
   8.169267e+01  -4.468863e+01
   5.188842e+01  -2.589890e+00
   9.084594e+00   1.334726e+00
  -5.843063e+01   1.622418e+01
  -2.233779e+01   1.028233e+01
  -5.101474e+00  -2.233809e+01
   5.705384e+00   1.039621e+00
  -8.961045e+01   9.204088e+00
  -7.988708e+01  -1.078782e+01
  -1.107274e+01  -7.965506e+01
   9.900968e+01  -1.013925e+02
   1.679865e+02  -5.560599e+01
   1.130044e+02   5.309522e+01
   2.113507e+01   1.539021e+02
  -4.859714e+01   1.648940e+02
  -8.643404e+01   4.802699e+01
  -7.725851e+01   2.667994e+00
  -2.149536e+01  -1.298942e+01
   1.622865e+01  -2.339816e+01
   4.934143e+00  -2.652479e+00
  -3.477119e+01  -4.102019e+00
  -4.584161e+01  -4.746057e+01
   3.540119e+01  -8.907996e+01
   7.001701e+01   6.369068e+00
   8.704763e+01   8.266353e+01
   7.000374e+00   9.160797e+01
  -5.674954e+01   2.297225e+01
  -9.380115e+01  -7.114271e+01
  -1.968701e+01  -8.479345e+01
   8.108037e+01  -5.159129e+01
   9.820119e+01   7.278491e+00
   2.572566e+01   3.831826e+01
   6.819196e+00   6.675335e+01
  -5.048235e+01   2.622006e+01
   2.646092e+01   1.463713e+01
   5.744355e+01   1.104699e+01
   2.861046e+00   4.172930e+00
  -7.625804e+01   4.024656e+01
  -9.555995e+01   3.733725e+01
  -2.454850e+01  -2.472603e+01
   9.949532e+00  -6.317844e+01
   4.060646e+01  -4.946623e+01
   2.988080e+01   5.472538e-01
  -6.422675e+00   4.813233e+01
  -2.273796e+01   4.005400e+00
  -2.675399e+01   6.580563e+00
  -3.924009e+01  -6.533884e+01
   1.600353e+01  -3.829034e+01
   2.112407e+01   2.773919e+01
   2.103488e+01   5.406197e+01
  -1.312649e+01   8.217430e+00
   1.777205e+01  -3.902652e+01
  -2.228109e+01   1.380114e+01
  -3.936250e+00   4.593815e+01
  -7.743486e+00   3.408913e+01
  -2.760434e+01  -1.183048e+01
  -5.048807e+01  -3.964203e+01
   7.846746e-03  -5.616174e+01
   1.941876e+01  -2.167174e+01
   6.573375e+01   2.616788e+01
   7.953299e+00   4.957201e+01
  -3.693965e+01   3.024284e+01
  -5.024511e+01  -2.090703e+01
  -5.842019e+01  -3.526380e+01
   2.830395e+01  -4.458333e+01
   5.028164e+01  -2.320803e+01
   6.568995e+00  -7.519646e-01
  -3.980666e+01  -2.347439e-02
  -1.667778e+01  -2.775539e+01
   1.856878e+01  -3.149313e+01
   1.133809e+02  -1.941767e+01
