
 $NMID
 id='ANONYMOUS ', fmtdat='(2E16.6)'
 volume=1.0
 tramp=1.0
 $END
   4.502326e+03   1.681787e+02
   2.597362e+03   2.674541e+03
  -8.615172e+02   2.721809e+03
  -2.071023e+03   7.760522e+02
  -8.540396e+02  -6.907180e+02
   7.611491e+02  -4.822810e+02
   9.239033e+02   5.273254e+02
  -8.016107e+01   1.128419e+03
  -8.816989e+02   7.769550e+02
  -9.288776e+02  -1.523413e+02
  -4.543438e+02  -9.314659e+02
   2.632485e+02  -8.591294e+02
   6.666726e+02  -1.169865e+02
   3.291557e+02   7.268605e+02
  -3.241922e+02   7.497932e+02
  -6.251340e+02  -3.138736e+01
  -2.450925e+02  -7.249228e+02
   3.726351e+02  -6.230249e+02
   5.598521e+02  -7.713497e+01
   3.760394e+02   3.829564e+02
  -1.266924e+01   4.164650e+02
  -2.754330e+02   2.451907e+02
  -2.217982e+02  -7.799914e+00
   7.743530e+01  -1.192896e+02
   4.162083e+02   1.070636e+02
   2.117755e+02   4.506627e+02
  -4.857964e+02   4.036991e+02
  -8.549859e+02  -1.473097e+02
  -4.477386e+02  -5.658233e+02
   4.090367e+02  -4.890828e+02
   7.462279e+02   4.097881e+01
   3.261551e+02   5.002283e+02
  -3.102681e+02   5.402632e+02
  -5.750108e+02   1.643158e+02
  -4.095934e+02  -2.561940e+02
  -8.770655e+01  -4.774113e+02
   2.332343e+02  -3.026645e+02
   1.745023e+02   2.258477e+02
  -1.805137e+02   4.225270e+02
  -4.639106e+02  -1.856464e+01
  -2.272778e+02  -7.033366e+02
   4.230818e+02  -7.155884e+02
   6.650316e+02  -1.203820e+01
   2.438554e+02   6.060554e+02
  -3.128062e+02   3.322248e+02
  -3.560356e+02  -3.592846e+02
   7.743162e+01  -5.629803e+02
   5.413575e+02  -1.386660e+02
   5.948778e+02   4.119875e+02
   1.409516e+02   5.866010e+02
  -4.169963e+02   3.809140e+02
  -6.080496e+02  -1.185343e+02
  -3.556035e+02  -4.311494e+02
   1.887279e+02  -3.620391e+02
   4.745720e+02  -5.589005e+01
   2.163382e+02   2.113284e+02
  -1.525178e+02   1.007288e+02
  -1.687370e+02  -1.620778e+02
   1.960047e+02  -1.771898e+02
   3.291614e+02   6.833082e+01
   1.516657e+02   3.015778e+02
  -2.018176e+02   2.743068e+02
  -3.359544e+02   6.287898e+01
  -2.004094e+02  -6.577542e+01
  -2.378842e+01  -2.442441e+02
   1.958284e+02  -3.117024e+02
   3.399817e+02  -2.084205e+02
   3.040940e+02   1.683577e+02
   7.196866e+01   4.535212e+02
  -1.453721e+02   3.961193e+02
  -9.566610e+01   5.947308e+01
   9.995855e+00   5.974674e+00
  -2.185775e+01   1.091744e+02
  -1.741633e+02   1.123969e+02
  -2.855746e+02  -6.709348e+01
  -1.647612e+02  -2.760595e+02
   9.679125e+01  -2.744678e+02
   2.773998e+02  -1.204504e+01
   2.079984e+02   2.597578e+02
  -2.789339e+01   2.925680e+02
  -2.905566e+02   1.295614e+02
  -3.356322e+02  -1.855950e+02
  -1.943578e+02  -3.363264e+02
   9.613765e+01  -3.001513e+02
   2.444968e+02  -1.000993e+02
   1.640171e+02   1.155033e+01
   8.912751e+01  -5.430269e+01
   2.312162e+02  -8.582530e+01
   3.956160e+02   5.249718e+01
   2.870330e+02   2.677777e+02
   2.682195e+01   4.291790e+02
  -3.408528e+02   4.051240e+02
  -5.214124e+02   1.965021e+02
  -3.027416e+02  -6.312654e+01
  -4.493212e+01  -3.073409e+02
   1.400305e+02  -2.464645e+02
   9.798364e+01  -8.933275e+00
  -1.029742e+02   1.012372e+02
  -1.891358e+02  -1.093684e+01
  -3.710210e+01  -2.125919e+02
   1.748801e+02  -1.460268e+02
   1.807230e+02   6.291048e+01
  -5.993237e+01   1.748084e+02
  -2.031553e+02   2.667999e+01
  -1.560670e+02  -2.295445e+02
   4.639394e+01  -3.340235e+02
   2.235051e+02  -2.176195e+02
   2.979433e+02   5.161106e+01
   2.848233e+02   2.448570e+02
   8.985266e+01   2.851830e+02
  -9.941835e+01   1.212656e+02
  -2.040325e+02  -1.602270e+01
  -7.424102e+01  -3.445260e+01
   7.115151e+01   4.545413e+01
   1.513101e+01   1.301120e+02
  -1.345911e+02   1.097749e+02
  -1.563737e+02  -2.195241e+01
  -7.355774e+01  -8.291689e+01
   6.878485e+01  -5.227576e+01
   4.154829e+01   4.788588e+01
  -1.150261e+02   1.038283e+02
  -2.895066e+02   8.269758e+00
  -2.629535e+02  -1.348974e+02
  -5.217258e+01  -2.907245e+02
   1.785978e+02  -2.649989e+02
   2.965457e+02  -1.027730e+02
   1.503758e+02   7.513485e+01
  -2.697718e+01   1.222695e+02
  -7.807681e+01   1.628622e+01
   3.077079e+01  -1.042973e+02
   2.142571e+02  -2.012135e+01
   2.046561e+02   1.092351e+02
   6.043236e+01   1.949141e+02
  -1.016796e+02   1.461852e+02
  -1.278739e+02   3.408863e+01
  -6.630272e+01  -5.339802e+01
   3.627693e+01  -2.115493e+01
   4.134764e+01   5.737026e+01
  -7.920247e+01   1.381875e+02
  -2.080044e+02   3.390448e+01
  -2.109492e+02  -1.400533e+02
  -2.135644e+01  -2.312730e+02
   1.587059e+02  -1.740466e+02
   2.097451e+02  -2.526060e+01
   5.255518e+01   1.258485e+02
  -7.696170e+01   1.256145e+02
  -5.754821e+01   1.636291e+00
  -2.400955e+01  -2.048000e+01
   2.245176e+01  -2.608135e+01
   1.125741e+01  -4.342551e+00
  -5.360554e+01   1.477074e+01
  -9.891784e+01  -5.036545e+01
  -2.396089e+01  -1.521731e+02
   1.244211e+02  -1.406705e+02
   2.386066e+02  -2.745689e+01
   2.230417e+02   1.159801e+02
   2.388557e+01   2.295372e+02
  -1.140401e+02   1.613660e+02
  -1.365712e+02   4.758285e+01
  -9.248930e+01  -3.127300e+01
  -2.419702e+01  -4.941965e+01
  -6.759660e+01   2.664159e+01
  -8.302569e+01   7.069343e+00
  -5.382000e+01  -6.452592e+01
   2.595758e+01  -9.557291e+01
   1.004570e+02  -6.294812e+01
   8.107817e+01   2.540056e+01
  -2.024235e+01   9.958655e+01
  -1.319193e+02   8.175150e+01
  -2.196033e+02  -5.699510e+01
  -1.097958e+02  -1.858547e+02
   1.050017e+02  -2.157123e+02
   2.844985e+02  -9.726103e+01
   2.562952e+02   7.950661e+01
   1.103882e+02   1.377380e+02
  -4.550067e+01   1.308401e+02
  -8.440448e+01   8.442801e+01
  -9.424548e+01   6.960557e+01
  -8.130490e+01   7.775829e+01
  -6.883144e+01   6.890210e+01
  -1.324930e+02  -8.288034e+00
  -1.063700e+02  -1.374552e+02
  -1.571925e+01  -2.319135e+02
   9.411461e+01  -1.487918e+02
   1.775594e+02  -8.708242e+00
   1.572358e+02   1.099900e+02
   1.560037e+01   1.482935e+02
  -6.120204e+01   8.569906e+01
  -5.068005e+01  -3.446699e+01
  -3.169881e+01  -5.681810e+01
  -1.893618e+00  -4.441533e+01
  -3.544678e+01  -7.189764e+00
  -9.409995e+01  -1.744743e+01
  -4.480152e+01  -8.264088e+01
   3.459209e+01  -6.264869e+01
   1.644399e+02   2.227413e+01
   1.555314e+02   5.392063e+01
   4.686271e+01   7.802704e+01
  -1.318461e+02   8.595799e+01
  -1.248333e+02   1.016280e+01
  -5.919805e+01  -1.992497e+01
   5.532250e+01  -5.268847e+01
   8.210909e+01   1.809821e+01
   1.449026e+01   7.566030e+01
  -5.954651e+01   3.623205e+01
  -5.085519e+01  -3.551616e+01
  -4.897419e+01  -4.239100e+01
  -3.198833e+01  -3.151234e+01
  -7.496552e+01  -4.579978e+00
  -7.848088e+01   9.010600e+00
  -2.877435e+01  -6.465689e+01
   1.044330e+01  -1.388598e+02
   9.534447e+01  -1.343558e+02
   1.636425e+02  -3.763615e+01
   1.197293e+02   9.913121e+01
  -3.860452e+00   1.191906e+02
  -8.141136e+01   7.947656e+01
  -8.915889e+01   1.125393e+01
   4.295663e+01  -3.674829e+01
   1.471975e+02   4.196762e+01
   6.614213e+01   9.568803e+01
  -8.836570e+01   1.063796e+02
  -1.555139e+02   2.564114e+01
  -1.558516e+02  -2.233072e+01
  -4.479046e+01  -9.025511e+01
   5.944124e+01  -6.877632e+01
   7.213336e+01   1.210744e+01
  -3.071837e+01   2.643421e+01
  -8.822577e+01   1.002524e+01
  -1.125171e+01  -1.164938e+02
   9.260183e+01  -1.598115e+02
   1.608114e+02  -7.787925e+01
   1.223753e+02   1.168611e+02
  -5.701159e+00   1.740838e+02
  -5.805021e+01   1.241319e+02
  -9.184530e+01  -1.464482e+01
  -4.146048e+01  -1.160414e+02
  -6.503294e+00  -1.000269e+02
   4.823383e+01  -1.726469e+01
   3.868299e+01   5.638231e+01
   2.605839e+01   1.120021e+01
   1.277675e+00  -1.203277e+01
   2.090210e+01  -2.834508e-01
   6.334587e+01   8.699741e+01
   4.601713e+01   1.316260e+02
  -5.800701e+01   5.795646e+01
  -1.450691e+02  -2.900368e+01
  -1.291273e+02  -8.393931e+01
  -1.439001e+01  -3.996511e+01
   9.008927e+01  -1.885766e+01
   1.061547e+02   2.543503e+00
  -8.811334e+00   8.539002e+00
  -3.063869e+01   1.222081e+01
  -1.208013e+01   1.045418e+01
   4.654424e+01   1.099395e+01
   1.616563e+00   1.429451e+00
  -6.381847e+01   2.683253e+00
  -9.090673e+01  -3.498618e+01
  -2.965839e+00  -8.071439e+01
   1.129290e+02  -1.233530e+02
   1.787048e+02  -2.503967e+01
   1.252043e+02   5.971155e+01
   1.146117e+01   1.416786e+02
  -9.122611e+01   1.641788e+02
  -1.208070e+02   5.746900e+01
  -7.755536e+01  -1.239520e+01
  -2.622377e+01  -5.890112e+00
   6.613791e+00   5.958283e+00
  -5.937960e+00  -1.455869e+01
  -3.796865e+01  -5.408931e+01
  -3.387474e+01  -9.209497e+01
   2.912867e+01  -5.947796e+01
   7.744442e+01   2.266130e+01
   3.526186e+01   1.128445e+02
   2.166770e+01   8.414668e+01
  -5.234805e+01  -1.034795e+01
  -9.959551e+01  -4.476863e+01
  -3.755053e+01  -8.071245e+01
   5.644630e+01  -4.114977e+01
   8.030526e+01   2.248697e+01
   4.253460e+01   4.682257e+01
  -1.713968e+01   7.566350e+01
  -1.322146e+01   1.533972e+01
   3.091836e+01  -4.955421e+00
   5.237927e+01  -3.044645e+01
   1.618318e+01   1.949297e+01
  -7.645067e+01   6.832662e+01
  -1.173399e+02   3.898331e+01
  -5.443673e+01  -1.350478e+01
   2.364245e+01  -6.069695e+01
   2.150684e+01  -5.440111e+01
   3.395347e+01  -2.074092e+01
   4.876325e+00   6.221408e+01
  -1.200283e+00   3.616796e+01
  -1.676038e+01  -1.850759e+01
  -3.469615e+01  -5.484777e+01
   3.286071e+01  -3.260986e+01
   1.341676e+01   2.532102e+01
   6.295127e+01   4.282544e+01
   9.940177e+00  -1.967141e+01
  -1.228842e+01  -3.675616e+01
   4.043864e+00   2.070610e+01
   7.857365e+00   5.571398e+01
  -1.628936e+01   3.137466e+01
  -4.063093e+01   1.001845e+01
  -3.560903e+01  -5.627432e+01
  -8.258184e+00  -3.681163e+01
   5.874825e+01  -1.014321e+01
   6.443685e+01   4.533651e+01
   1.611988e+01   7.295090e+01
  -5.349050e+01   2.492103e+01
  -7.336443e+01  -4.030809e+01
  -3.181696e+01  -2.999113e+01
   6.429467e+01  -3.395764e+01
   6.815944e+01   3.641474e+00
   2.137840e+01  -2.069984e+01
  -2.092043e+01  -2.419990e+01
  -2.777657e+01  -5.072579e+01
   2.503175e+01  -5.014429e+01
   8.830550e+01  -1.638385e+01
