
 $NMID
 id='ANONYMOUS ', fmtdat='(2E16.6)'
 volume=1.0
 tramp=1.0
 $END
   4.196284e+03   8.286670e+00
   2.474797e+03   2.465182e+03
  -6.705454e+02   2.553581e+03
  -1.885801e+03   9.125277e+02
  -8.263018e+02  -6.271488e+02
   6.684670e+02  -4.861625e+02
   8.426205e+02   4.896170e+02
  -1.948584e+01   1.020846e+03
  -8.038745e+02   7.487305e+02
  -9.295945e+02  -1.162095e+02
  -4.095388e+02  -8.251885e+02
   2.016145e+02  -8.215004e+02
   5.958646e+02  -9.871639e+01
   3.410115e+02   6.704439e+02
  -2.534897e+02   7.133694e+02
  -6.098051e+02  -5.681635e+00
  -2.663616e+02  -6.705754e+02
   3.226398e+02  -5.749762e+02
   5.793972e+02  -6.127214e+01
   3.673201e+02   3.464755e+02
   9.372214e+00   4.281488e+02
  -2.141566e+02   2.598011e+02
  -1.909560e+02   1.516660e+01
   8.622649e+01  -1.226014e+02
   4.265000e+02   1.063155e+02
   2.044365e+02   4.129246e+02
  -4.236943e+02   3.963339e+02
  -8.109002e+02  -8.783936e+01
  -4.304839e+02  -5.680715e+02
   4.157834e+02  -4.572744e+02
   7.321007e+02   1.853300e+01
   3.615329e+02   4.888225e+02
  -2.809741e+02   5.237513e+02
  -5.609406e+02   1.800798e+02
  -4.106885e+02  -2.122939e+02
  -6.281664e+01  -4.448282e+02
   2.139288e+02  -2.715900e+02
   1.943504e+02   2.065730e+02
  -1.720653e+02   4.243904e+02
  -4.124779e+02  -1.674146e+01
  -2.612110e+02  -6.573950e+02
   3.191537e+02  -6.964743e+02
   5.482546e+02  -1.117716e+00
   2.508951e+02   5.116463e+02
  -2.585020e+02   3.498941e+02
  -3.352015e+02  -3.010786e+02
   5.063944e+01  -5.328601e+02
   5.226584e+02  -1.363687e+02
   5.626093e+02   3.542965e+02
   1.636491e+02   5.889464e+02
  -3.772545e+02   3.449598e+02
  -6.484460e+02  -1.088402e+02
  -3.842335e+02  -3.600017e+02
   1.331299e+02  -3.475444e+02
   4.313537e+02  -5.310066e+01
   2.441420e+02   2.194242e+02
  -1.365531e+02   9.743713e+01
  -1.497189e+02  -1.257680e+02
   1.566841e+02  -1.681799e+02
   2.971180e+02   5.511548e+01
   1.015970e+02   2.899147e+02
  -1.697827e+02   2.569606e+02
  -3.122082e+02   6.275453e+01
  -1.929833e+02  -7.868913e+01
   9.700494e+00  -2.534220e+02
   2.007920e+02  -3.318406e+02
   3.404812e+02  -2.249366e+02
   2.720934e+02   1.227289e+02
   5.366527e+01   4.156465e+02
  -1.023377e+02   3.675754e+02
  -1.466784e+02   1.042505e+02
  -3.648809e+01  -2.290729e+01
  -1.593979e+01   7.088788e+01
  -1.726186e+02   1.168008e+02
  -2.581562e+02  -5.775782e+01
  -1.437290e+02  -2.756175e+02
   5.241060e+01  -2.455310e+02
   2.185446e+02  -1.729300e+01
   1.876508e+02   2.172402e+02
  -1.909255e+00   2.762322e+02
  -2.431008e+02   1.079237e+02
  -3.539701e+02  -1.590440e+02
  -1.744392e+02  -3.148441e+02
   9.089786e+01  -2.891659e+02
   2.274280e+02  -1.258567e+02
   1.330542e+02  -7.068884e+00
   9.151998e+01  -5.437483e+01
   2.315150e+02  -4.609301e+01
   3.500143e+02   5.525820e+01
   3.118275e+02   2.439967e+02
   8.826686e+00   4.025918e+02
  -3.445019e+02   3.865936e+02
  -4.778718e+02   2.016725e+02
  -3.109395e+02  -7.891709e+01
  -4.557716e+01  -2.664206e+02
   1.375379e+02  -2.539153e+02
   8.762779e+01  -2.042645e+01
  -9.987736e+01   1.031622e+02
  -1.905511e+02   5.503365e+00
  -2.916329e+01  -1.989798e+02
   1.241370e+02  -1.497513e+02
   1.294569e+02   2.308626e+01
  -2.177889e+01   1.613689e+02
  -1.622502e+02   2.597281e+01
  -1.774034e+02  -2.125644e+02
   1.492760e+01  -3.007203e+02
   2.070473e+02  -2.125169e+02
   3.142090e+02   3.802344e+01
   2.929455e+02   2.115979e+02
   8.652711e+01   2.624311e+02
  -1.407330e+02   1.643774e+02
  -1.856752e+02   9.871300e+00
  -4.021838e+01  -2.532180e+01
   8.799752e+01   3.816706e+01
   3.394089e+01   1.008012e+02
  -1.176872e+02   1.160002e+02
  -1.588289e+02  -1.822887e+01
  -6.136681e+01  -4.948572e+01
   6.395918e+01  -2.655120e+01
   6.065997e+01   6.460360e+01
  -1.032092e+02   7.279583e+01
  -2.815759e+02   1.577820e+01
  -2.457871e+02  -1.378759e+02
  -7.059467e+01  -2.375156e+02
   1.610445e+02  -2.312286e+02
   2.748794e+02  -9.659069e+01
   1.488794e+02   6.054428e+01
  -7.555949e-01   1.170569e+02
  -1.073644e+02   7.212027e-01
   3.299471e+01  -9.123484e+01
   1.947554e+02  -5.981500e+01
   1.824388e+02   7.578659e+01
   3.853699e+01   1.912151e+02
  -9.650922e+01   1.655287e+02
  -1.269578e+02   1.690801e+01
  -7.844903e+01  -5.079685e+01
   1.880914e+01  -2.834966e+01
   4.922015e+01   8.083364e+01
  -5.960752e+01   9.754981e+01
  -2.015954e+02   4.616556e+01
  -2.122853e+02  -8.043346e+01
  -1.957805e+01  -1.976824e+02
   1.452725e+02  -1.571171e+02
   1.932356e+02  -3.569583e+01
   5.102331e+01   9.735240e+01
  -8.036711e+01   1.300123e+02
  -8.189118e+01   4.851740e+01
   2.059316e+00  -1.519301e+01
   4.489914e+01  -7.123408e+00
  -7.953888e+00   1.776158e+01
  -5.381277e+01  -6.747052e+00
  -8.199519e+01  -7.939797e+01
  -7.934682e+00  -1.733513e+02
   1.278187e+02  -1.375967e+02
   2.290889e+02  -3.139008e+01
   2.007449e+02   1.325810e+02
   4.011525e+01   2.105241e+02
  -8.165843e+01   1.566055e+02
  -1.410866e+02   2.601768e+01
  -6.114660e+01  -5.257679e+01
  -3.508861e+01  -8.377745e+00
  -5.039903e+01  -3.467527e-01
  -9.123476e+01  -7.573293e+00
  -5.258358e+01  -4.515882e+01
   3.585588e+01  -5.909099e+01
   8.373272e+01  -4.065069e+01
   5.736360e+01   3.702963e+01
   1.945123e+01   1.063107e+02
  -1.363538e+02   8.461749e+01
  -2.044738e+02  -3.835286e+01
  -1.060051e+02  -1.736669e+02
   9.397770e+01  -2.446857e+02
   2.612109e+02  -9.961121e+01
   2.273564e+02   1.037747e+02
   1.026049e+02   1.438331e+02
  -3.785223e+01   1.342118e+02
  -6.526868e+01   9.227964e+01
  -5.300896e+01   8.726049e+01
  -7.880685e+01   6.855200e+01
  -1.035751e+02   1.047616e+02
  -1.212266e+02  -2.412673e+01
  -1.111923e+02  -1.333568e+02
  -4.192534e+01  -2.254657e+02
   9.447611e+01  -1.448920e+02
   1.919895e+02  -2.819237e+01
   1.320327e+02   1.093410e+02
   6.472238e+00   1.473784e+02
  -3.961517e+01   9.266547e+01
  -7.063846e+01   2.659083e+01
  -9.603433e+00  -6.569030e+01
   3.679633e+00  -3.730955e+01
  -3.410247e+01   2.438770e+01
  -5.493443e+01  -1.275107e+01
  -4.493071e+01  -2.487163e+01
   6.178488e+01  -2.374298e+01
   1.324422e+02  -5.902515e+00
   1.564580e+02   5.245204e+01
   1.590040e+01   8.684711e+01
  -1.135897e+02   9.772069e+01
  -1.329908e+02   1.631932e+01
  -6.547130e+01  -5.031176e+01
   5.455105e+01  -4.168939e+01
   6.914791e+01   1.813735e+01
   1.965311e+01   5.812739e+01
  -5.148103e+01   5.479099e+01
  -6.407272e+01   7.373848e+00
  -5.553803e+01  -3.852636e+01
  -3.551867e+01  -2.188525e+01
  -4.458314e+01  -3.004912e+01
  -5.900287e+01  -1.280251e+01
  -7.638932e+01  -9.323294e+01
   1.947513e+01  -1.264203e+02
   7.959802e+01  -1.269060e+02
   1.443137e+02  -4.366034e+01
   1.395123e+02   1.012493e+02
   2.980260e+01   1.357065e+02
  -7.845703e+01   8.008693e+01
  -6.644094e+01  -9.280940e+00
   5.836847e+01  -2.655834e+01
   1.189175e+02   2.891993e+01
   3.387650e+01   8.345632e+01
  -4.428650e+01   8.250574e+01
  -1.759687e+02   7.159376e+01
  -1.488255e+02  -2.437340e+01
  -3.918026e+01  -9.159168e+01
   6.704122e+01  -4.330150e+01
   4.153645e+01  -7.289018e+00
  -3.357654e+01   3.178627e+01
  -9.557958e+01  -2.317252e+01
  -4.138768e+01  -1.308516e+02
   7.396594e+01  -1.198070e+02
   1.553985e+02  -6.358204e+01
   1.169103e+02   9.364489e+01
   2.578169e+01   1.623371e+02
  -6.129272e+01   1.491902e+02
  -1.023370e+02  -2.688409e+01
  -4.523360e+01  -1.029352e+02
   1.529304e+01  -7.822821e+01
   2.730718e+01  -1.194392e+01
   4.757718e+01   2.499349e+01
   3.049096e+01   9.120491e+00
  -2.617940e+00  -2.050538e+01
   1.023496e+01   1.468947e+01
   3.183719e+01   6.664480e+01
   4.014190e+01   1.036895e+02
  -2.647278e+01   5.289217e+01
  -1.405176e+02  -4.098120e+01
  -8.869678e+01  -5.790329e+01
  -1.789888e+01  -4.851404e+01
   7.480307e+01  -3.163031e+01
   9.719906e+01  -4.369492e+01
   3.075903e+01   5.336989e+00
  -3.261192e+01   1.215430e+01
   2.524635e+00   9.742609e+00
   2.892752e+01  -1.181073e+00
   2.993224e+00   1.054197e+00
  -4.924198e+01   6.289940e+00
  -9.251352e+01  -5.598908e+00
  -4.079767e+00  -8.403306e+01
   1.186967e+02  -8.946352e+01
   1.399441e+02  -6.051393e+01
   1.190478e+02   5.139595e+01
   2.546221e+00   1.536336e+02
  -4.815720e+01   1.478634e+02
  -1.116923e+02   8.018377e+01
  -6.638997e+01   1.896230e+00
  -4.730872e+01  -5.398993e+01
  -2.178177e+01   2.313019e+00
  -5.360895e+00   2.220714e+01
  -2.019247e+01  -6.004128e+01
  -2.965898e+01  -7.031640e+01
   2.738332e+01  -6.937599e+01
   8.819577e+01  -2.585220e+00
   6.666082e+01   8.030044e+01
   1.576669e+01   1.011482e+02
  -7.795486e+01   4.401438e+01
  -1.071101e+02  -5.086494e+01
  -2.564470e+01  -5.508732e+01
   4.838447e+01  -4.799950e+01
   6.381703e+01  -9.442828e+00
   3.208560e+01   4.916237e+01
  -1.247585e+01   7.192953e+01
  -3.264495e+01   4.280750e+01
   2.874785e+01   6.635473e+00
   5.835002e+01  -4.048546e+01
   2.414889e+01   2.757778e+01
  -8.097064e+01   6.242964e+01
  -9.291516e+01   8.017277e+01
  -4.663088e+01   7.173756e+00
   6.332111e+00  -5.817406e+01
   4.659955e+01  -7.644714e+01
   4.682176e+01   8.075093e+00
   4.117092e+01   3.230769e+01
  -6.008294e+00   3.700217e+01
  -1.338543e+01   4.426046e+00
  -2.414861e+01  -6.286629e+01
  -1.029626e+01  -3.326599e+01
   3.414204e+01   2.380075e+01
   5.079714e+01   1.285928e+01
   2.963798e+01   3.346203e-01
  -1.040783e+00  -2.439243e+01
  -8.041194e+00  -1.272898e+00
  -1.960342e+01   2.488825e+01
   9.094545e+00   9.107623e+01
  -1.974126e+01   1.284259e+01
  -4.159493e+01  -4.870343e+01
  -1.679538e+01  -8.111625e+01
   4.371104e+01  -9.894587e+00
   7.151936e+01   2.387027e+01
   2.909414e+01   5.966145e+01
  -2.002190e+01   3.436084e+01
  -6.708242e+01  -1.651060e+01
  -5.368152e+01  -4.478224e+01
   5.029485e+01  -2.075709e+01
   7.081390e+01  -1.607351e+01
   2.534958e+01   1.425436e+01
  -4.045743e+01  -1.387452e+00
  -1.143891e+01  -1.542260e+01
   2.429976e+00  -1.173216e+01
   7.603261e+01  -1.443432e+01
