
 $NMID
 id='ANONYMOUS ', fmtdat='(2E16.6)'
 volume=1.0
 tramp=1.0
 $END
  -3.935260e+03   2.081773e+02
  -2.418429e+03  -2.227716e+03
   6.010181e+02  -2.359575e+03
   1.774379e+03  -8.296649e+02
   8.259481e+02   5.812887e+02
  -6.234656e+02   4.529432e+02
  -8.320528e+02  -4.185403e+02
   2.204337e+01  -9.399440e+02
   7.421133e+02  -7.234449e+02
   8.633329e+02   4.583024e+01
   4.040353e+02   7.784467e+02
  -1.633596e+02   7.903427e+02
  -5.410053e+02   1.176970e+02
  -3.110393e+02  -6.424357e+02
   2.105828e+02  -6.286354e+02
   5.416683e+02  -1.923809e+01
   1.955888e+02   6.444745e+02
  -2.719484e+02   5.772151e+02
  -5.230874e+02   7.693533e+01
  -3.549417e+02  -3.144626e+02
  -5.961746e+00  -3.963929e+02
   2.064727e+02  -2.061985e+02
   2.039017e+02  -2.610694e+01
  -7.610997e+01   1.048783e+02
  -3.806637e+02  -1.316797e+02
  -1.645195e+02  -4.151715e+02
   4.160912e+02  -3.523520e+02
   7.618086e+02   8.352685e+01
   3.850959e+02   5.471254e+02
  -3.632759e+02   4.070807e+02
  -6.941101e+02  -3.977404e+01
  -2.968380e+02  -4.779291e+02
   2.724789e+02  -4.538197e+02
   5.149521e+02  -1.673727e+02
   3.681911e+02   1.897156e+02
   6.136243e+01   4.253163e+02
  -1.721565e+02   2.511553e+02
  -1.638188e+02  -1.971423e+02
   1.824511e+02  -4.011680e+02
   3.674767e+02   1.155174e+00
   2.021350e+02   6.076691e+02
  -2.965572e+02   6.132473e+02
  -5.571668e+02   2.668856e+00
  -2.376045e+02  -4.791664e+02
   2.406777e+02  -3.362099e+02
   3.507765e+02   3.434849e+02
  -4.086072e+01   4.945856e+02
  -5.110304e+02   1.358869e+02
  -5.577297e+02  -3.251008e+02
  -1.580883e+02  -5.648156e+02
   3.476730e+02  -3.303154e+02
   5.879045e+02   3.202361e+01
   3.478516e+02   3.631540e+02
  -1.292383e+02   3.277293e+02
  -3.931315e+02   4.210889e+01
  -2.101520e+02  -1.602302e+02
   1.205331e+02  -1.107667e+02
   1.514770e+02   1.316325e+02
  -1.555568e+02   1.738643e+02
  -2.994117e+02  -2.153534e+01
  -1.076133e+02  -2.826516e+02
   1.544540e+02  -2.514359e+02
   2.683593e+02  -7.372464e+01
   1.868461e+02   6.823146e+01
  -1.122436e+01   1.856425e+02
  -1.687533e+02   2.866079e+02
  -2.759662e+02   2.178081e+02
  -2.676316e+02  -1.121068e+02
  -5.236783e+01  -3.724489e+02
   9.475503e+01  -3.487415e+02
   1.111360e+02  -9.215625e+01
   3.660215e+01   8.128729e+00
   4.199997e+01  -1.050667e+02
   1.657611e+02  -1.165421e+02
   2.554984e+02   3.284649e+01
   1.562896e+02   2.310171e+02
  -6.389353e+01   2.194317e+02
  -1.742156e+02   2.287878e+01
  -1.823334e+02  -1.838151e+02
  -1.433839e+01  -2.567494e+02
   2.259394e+02  -1.023341e+02
   3.422511e+02   1.179457e+02
   1.797930e+02   2.843477e+02
  -6.540693e+01   2.580119e+02
  -2.104903e+02   1.123763e+02
  -1.588871e+02   6.017210e+00
  -9.157302e+01   3.235281e+01
  -1.980976e+02   5.690348e+01
  -3.418742e+02  -4.567400e+01
  -2.882849e+02  -2.118486e+02
  -5.192034e+00  -3.785069e+02
   3.109475e+02  -3.786872e+02
   4.084105e+02  -2.155601e+02
   3.052125e+02   5.402852e+01
   4.028264e+01   2.500201e+02
  -1.190894e+02   2.187701e+02
  -9.577817e+01   2.691471e+01
   1.040142e+02  -9.415732e+01
   1.965279e+02  -4.784976e+00
   4.547490e+01   1.875719e+02
  -1.286233e+02   1.648187e+02
  -1.619281e+02  -3.205164e+01
   1.902476e+01  -1.391414e+02
   1.534589e+02  -3.159402e+01
   1.628000e+02   1.882609e+02
  -1.469177e+01   3.021154e+02
  -2.068661e+02   1.835906e+02
  -3.011677e+02  -7.102545e+01
  -2.676268e+02  -1.736202e+02
  -8.670289e+01  -2.591099e+02
   1.190833e+02  -1.706147e+02
   1.542081e+02  -9.439702e+00
   4.648063e+01   1.897644e+01
  -8.239326e+01  -4.495067e+01
  -1.864128e+01  -9.745583e+01
   9.928425e+01  -1.206173e+02
   1.596249e+02   1.378856e+00
   4.663496e+01   6.474286e+01
  -5.463499e+01  -3.062951e+00
  -5.466032e+01  -6.305303e+01
   8.524926e+01  -7.538168e+01
   2.934371e+02  -1.693649e+01
   2.397918e+02   9.198167e+01
   6.261313e+01   2.411880e+02
  -1.739501e+02   2.414918e+02
  -2.737836e+02   1.038311e+02
  -1.290722e+02  -4.868435e+01
   3.701890e+01  -9.400350e+01
   9.430504e+01  -2.779476e+01
  -1.609734e+01   1.136920e+02
  -1.565999e+02   2.828721e+01
  -1.747389e+02  -7.111168e+01
  -2.912000e+01  -1.723806e+02
   9.149276e+01  -1.499736e+02
   1.145788e+02  -4.596393e+01
   8.519540e+01   4.122431e+01
  -1.985723e+01   2.436689e+01
  -4.717566e+01  -6.924091e+01
   4.765050e+01  -1.088437e+02
   1.787012e+02  -5.807936e+01
   1.863499e+02   9.372282e+01
   2.573874e+01   2.011596e+02
  -1.313161e+02   1.525767e+02
  -1.732187e+02   1.658991e+01
  -6.664977e+01  -9.544889e+01
   1.101985e+02  -1.131837e+02
   4.210374e+01  -5.002606e+01
   2.060769e+01   7.065974e+00
  -2.358908e+01   7.062992e-03
   2.414615e+01  -6.679956e+00
   4.325117e+01   2.021779e+01
   7.198402e+01   5.445836e+01
   3.068169e+01   1.591836e+02
  -1.237207e+02   1.345187e+02
  -2.032572e+02   1.735750e+01
  -1.827567e+02  -1.213218e+02
  -4.805714e+01  -2.012538e+02
   6.534649e+01  -1.510021e+02
   1.139742e+02  -4.286877e+01
   4.361096e+01   2.391097e+01
   4.650436e+01   1.080411e+01
   4.320376e+01   1.013785e+00
   7.210352e+01  -9.347114e+00
   3.675191e+01   4.769278e+01
  -5.023658e+01   7.699245e+01
  -6.268839e+01   5.114688e+01
  -7.060177e+01  -1.848406e+01
   1.990295e+01  -8.944761e+01
   9.606695e+01  -1.104337e+02
   1.815356e+02   5.959115e+01
   9.342065e+01   1.785155e+02
  -7.879583e+01   2.203581e+02
  -2.440475e+02   1.134595e+02
  -2.394371e+02  -8.301221e+01
  -1.102400e+02  -1.384752e+02
   2.469062e+01  -1.181970e+02
   4.872639e+01  -6.859523e+01
   4.112597e+01  -7.827054e+01
   6.425601e+01  -9.275672e+01
   7.365171e+01  -7.177805e+01
   1.088570e+02  -1.341054e+00
   9.448879e+01   1.149145e+02
   4.243665e+01   1.923536e+02
  -7.087690e+01   1.578374e+02
  -1.653359e+02   5.201414e+01
  -1.669348e+02  -8.793637e+01
  -3.034757e+01  -1.407033e+02
   7.736222e+01  -8.784786e+01
   7.484399e+01   1.291986e+01
   3.684625e+00   4.051758e+01
  -3.613151e+01   3.912933e+01
   9.120216e+00   5.032236e+00
   5.791715e+01   6.574917e-01
   2.991907e+01   2.632262e+01
  -8.844794e+01   3.402864e+01
  -1.379254e+02   3.233645e+00
  -1.217961e+02  -2.428109e+01
   4.455068e+00  -7.246186e+01
   9.240807e+01  -5.693792e+01
   1.108403e+02   5.993849e+00
   3.658292e+01   3.423629e+01
  -1.932845e+01   5.389353e+01
  -5.006873e+01  -2.906837e+00
  -1.303610e+00  -4.167570e+01
   2.741414e+01  -1.613693e+01
   5.509972e+01  -2.383355e+01
   4.531336e+01   2.781010e+01
   3.832544e+01   2.376060e+01
   5.716848e+01   1.080698e+00
   4.232594e+01   2.387323e+01
   3.896541e+01   7.174459e+01
  -2.505712e+01   1.395843e+02
  -7.269178e+01   1.327176e+02
  -1.420047e+02   6.391835e+01
  -9.136542e+01  -1.005105e+02
  -1.152976e+01  -1.048170e+02
   5.519270e+01  -6.459940e+01
   4.851576e+01  -6.155726e+00
  -6.050830e+01   2.172706e+00
  -1.286773e+02  -4.846013e+01
  -7.127141e+01  -9.390287e+01
   6.921989e+01  -8.849764e+01
   1.431595e+02  -3.121597e+01
   1.349252e+02   2.209433e+00
   3.024126e+01   6.387182e+01
  -4.605713e+01   2.776383e+01
  -3.549355e+01  -1.599007e+01
   7.807892e+00  -3.104290e+01
   8.973499e+01   2.092668e+01
   3.728097e+01   9.690242e+01
  -7.291134e+01   1.281889e+02
  -1.494378e+02   6.230365e+01
  -1.077886e+02  -1.031201e+02
   1.923668e+00  -1.699336e+02
   7.287181e+01  -1.076101e+02
   1.031321e+02  -1.590105e+00
   2.861873e+01   7.859862e+01
  -7.499868e+00   8.829118e+01
  -2.281980e+01   1.637174e+01
  -6.568260e+01  -2.484874e+01
  -4.433343e+01  -4.413645e+00
  -1.165562e+01   6.565720e+00
  -1.935409e+01  -1.967672e+01
  -4.728262e+01  -8.749129e+01
  -2.239372e+01  -1.011673e+02
   3.063353e+01  -5.148856e+01
   1.393962e+02   3.295227e+01
   1.118553e+02   6.576514e+01
  -3.194327e+00   6.850997e+01
  -6.314128e+01   7.203343e+00
  -1.010738e+02  -1.644043e+01
  -3.086162e+01  -2.054952e+00
   3.007685e+01  -2.153715e+01
   3.546069e+01   1.148500e+01
  -2.298336e+01  -1.056353e+01
  -4.884313e-02  -1.305085e+01
   6.129409e+01   6.333505e+00
   5.413798e+01  -6.371298e+00
  -1.264098e+01   6.172513e+01
  -1.096225e+02   1.022569e+02
  -1.699541e+02   4.362175e+01
  -1.302344e+02  -5.199541e+01
  -4.515840e+01  -1.341586e+02
   7.524883e+01  -1.371464e+02
   1.011942e+02  -7.596387e+01
   9.959324e+01   1.185983e+00
   4.433533e+01   8.131265e+00
   2.835941e+01  -3.127081e+01
   7.109971e+00   6.662131e+00
   3.136888e+01   2.687299e+01
   2.108695e+01   7.112123e+01
  -2.011696e+01   5.859913e+01
  -6.329721e+01   4.589502e+00
  -8.893291e+01  -8.259506e+01
  -1.994844e+01  -8.681037e+01
   8.266243e+01  -7.403107e+01
   9.521260e+01   3.687970e+01
   3.765617e+01   9.615177e+01
  -5.010975e+01   4.961715e+01
  -9.442309e+01   9.309496e-01
  -5.005522e+01  -4.835452e+01
   3.842688e+01  -7.368062e+01
   9.617728e-01  -3.562801e+01
  -2.213117e+01  -5.801500e+00
  -4.936364e+01  -6.183849e+00
  -1.887577e+01  -1.513856e+01
   6.964067e+01  -3.536491e+01
   9.129746e+01  -6.364724e+01
   4.904317e+01   9.231802e+00
  -3.002977e+01   5.255919e+01
  -1.089365e+01   6.856646e+01
  -2.833029e+01   1.458271e+01
  -6.857139e+00  -4.927492e+01
  -1.198075e+01  -4.055079e+01
   1.966272e+01   1.757140e+01
   1.941881e+01   5.797436e+01
   5.376190e+00   4.279275e+01
  -3.777414e+01  -1.481375e+01
  -3.252387e+01  -3.753144e+01
  -3.951463e+01  -6.392575e+00
  -9.214422e+00   3.657409e+01
   5.395598e+00  -2.240008e+00
   1.816193e+01  -2.631750e+01
   1.835530e+01  -4.102974e+01
   2.958908e+01   1.381423e+01
   5.322722e+01   4.248301e+01
  -1.342190e+01   7.389734e+01
  -2.472551e+01   1.241370e+01
  -6.619413e+01  -3.210518e+01
  -2.880882e+00  -5.292248e+01
   3.954340e+01  -2.606632e+01
   7.348859e+01  -1.436278e+01
   3.910190e+01   1.685924e+01
  -3.812281e+01   1.403143e+01
  -3.237624e+01   2.512182e+01
  -2.891411e+01  -1.769172e+01
   3.661672e+01  -1.685015e+01
   1.836364e+01   3.231637e+00
  -1.661223e+01   3.064625e+01
  -4.615762e+01   2.955509e-01
