
 $NMID
 id='ANONYMOUS ', fmtdat='(2E16.6)'
 volume=1.0
 tramp=1.0
 $END
  -4.648486e+03   2.044037e+01
  -2.633487e+03  -2.956813e+03
   8.738438e+02  -2.918911e+03
   2.310859e+03  -6.447721e+02
   1.013456e+03   7.740894e+02
  -8.066930e+02   6.001130e+02
  -1.009282e+03  -5.331295e+02
  -2.075317e+00  -1.198237e+03
   9.345435e+02  -8.054145e+02
   1.005616e+03   1.585714e+02
   4.895226e+02   9.707961e+02
  -3.579989e+02   9.228072e+02
  -7.253291e+02   6.304036e+01
  -3.989992e+02  -8.081795e+02
   3.116727e+02  -8.139819e+02
   6.614234e+02   1.620644e+00
   2.309965e+02   7.469279e+02
  -3.881137e+02   6.880950e+02
  -6.020876e+02   3.832841e+01
  -4.291834e+02  -4.008702e+02
  -4.401299e+00  -4.894914e+02
   2.837505e+02  -2.609211e+02
   2.565390e+02   1.692054e+01
  -1.242325e+02   1.399888e+02
  -4.630756e+02  -9.115648e+01
  -2.448717e+02  -4.920613e+02
   4.834283e+02  -4.687043e+02
   8.490617e+02   3.134618e+01
   4.698720e+02   6.434227e+02
  -4.116625e+02   5.323604e+02
  -8.104261e+02  -6.984012e+01
  -3.528788e+02  -5.172116e+02
   3.296999e+02  -5.483337e+02
   5.926822e+02  -2.210649e+02
   4.255120e+02   2.561358e+02
   6.325245e+01   5.203795e+02
  -2.452083e+02   2.773287e+02
  -2.208657e+02  -2.654339e+02
   2.222832e+02  -5.187834e+02
   5.153468e+02   2.157580e+01
   2.933462e+02   7.685591e+02
  -3.513083e+02   7.325352e+02
  -6.696759e+02  -2.935942e+01
  -3.004377e+02  -5.903987e+02
   3.165688e+02  -3.690753e+02
   4.203941e+02   3.258292e+02
  -8.225960e+01   5.760167e+02
  -5.877798e+02   1.480905e+02
  -6.442969e+02  -4.451316e+02
  -1.416672e+02  -6.182645e+02
   4.300401e+02  -3.789576e+02
   6.793757e+02   1.102790e+02
   3.845652e+02   4.085355e+02
  -1.962249e+02   4.032246e+02
  -4.806203e+02   3.713575e+01
  -2.574460e+02  -2.351326e+02
   1.445174e+02  -9.950549e+01
   1.682177e+02   1.958512e+02
  -1.819805e+02   1.934538e+02
  -3.613368e+02  -7.867643e+01
  -1.245312e+02  -3.532197e+02
   2.496489e+02  -2.713669e+02
   3.276636e+02  -4.880782e+01
   1.991344e+02   9.687978e+01
  -2.497203e+01   2.206345e+02
  -2.069218e+02   3.264081e+02
  -3.135586e+02   2.199393e+02
  -3.271676e+02  -1.399914e+02
  -5.683716e+01  -4.230153e+02
   1.133341e+02  -3.941301e+02
   8.168216e+01  -7.793976e+01
   1.992198e+01   3.351715e+01
  -3.300827e+00  -1.058183e+02
   1.626717e+02  -1.576762e+02
   2.679615e+02   4.183985e+01
   1.908051e+02   2.663552e+02
  -8.170465e+01   2.810132e+02
  -2.625083e+02   3.164219e+01
  -2.166533e+02  -2.666900e+02
   3.236123e+01  -3.085321e+02
   2.919888e+02  -1.177937e+02
   3.701208e+02   1.792341e+02
   1.657342e+02   3.744478e+02
  -1.339751e+02   3.306828e+02
  -2.561154e+02   1.092875e+02
  -1.583434e+02  -4.655060e+00
  -7.729592e+01   1.219797e+01
  -2.143765e+02   7.416606e+01
  -3.982553e+02  -3.515099e+01
  -3.213678e+02  -2.913806e+02
   1.455554e+01  -4.473656e+02
   3.275425e+02  -4.472918e+02
   4.963242e+02  -1.569941e+02
   3.150750e+02   9.162750e+01
   7.004586e+01   2.970298e+02
  -1.519085e+02   2.630363e+02
  -1.016744e+02   4.469167e+01
   1.096301e+02  -1.315188e+02
   1.911081e+02   1.781387e+01
   3.580039e+01   1.885460e+02
  -1.423247e+02   1.922094e+02
  -2.082152e+02  -3.698919e+01
   7.427511e+00  -1.899940e+02
   1.999701e+02  -3.976945e+01
   1.458796e+02   2.550089e+02
  -1.442333e+01   3.326476e+02
  -2.540321e+02   2.045108e+02
  -3.166772e+02  -1.027210e+02
  -2.694574e+02  -2.433731e+02
  -8.667881e+01  -2.699213e+02
   1.226715e+02  -1.697364e+02
   2.037657e+02   1.360229e+00
   7.892646e+01   3.560859e+01
  -8.263005e+01  -3.690245e+01
  -2.705304e+01  -1.460471e+02
   9.277426e+01  -1.276215e+02
   1.567019e+02   1.443088e+01
   9.094611e+01   5.128363e+01
  -7.421104e+01   3.222266e+01
  -4.334142e+01  -6.098536e+01
   1.121694e+02  -1.099014e+02
   2.821872e+02   1.272986e+01
   2.465108e+02   1.231931e+02
   4.655089e+01   2.575663e+02
  -1.833050e+02   2.725280e+02
  -2.639889e+02   1.220900e+02
  -1.675656e+02  -6.752538e+01
  -1.479742e+00  -1.207005e+02
   6.968653e+01   1.273536e+01
  -5.107781e+01   9.247985e+01
  -2.004361e+02   5.120092e+01
  -2.097303e+02  -1.173472e+02
  -9.299724e+01  -2.203974e+02
   8.993123e+01  -1.710810e+02
   1.530184e+02  -3.780466e+01
   7.456151e+01   5.464378e+01
  -2.589963e+01   1.527556e+01
  -3.503685e+01  -7.157006e+01
   8.922690e+01  -1.051835e+02
   2.025825e+02  -3.274611e+01
   2.128130e+02   1.274525e+02
   2.667153e+01   2.115462e+02
  -1.753412e+02   1.872469e+02
  -2.294548e+02   1.031302e+01
  -5.959201e+01  -1.518860e+02
   9.080941e+01  -1.009233e+02
   9.458206e+01  -2.306711e+01
   5.191702e+01   2.776392e+01
  -2.084296e+01   4.133991e+01
   2.324588e+01  -1.465158e+01
   6.410201e+01  -2.339218e+01
   7.729325e+01   5.382331e+01
   2.745528e+01   1.640091e+02
  -1.237024e+02   1.477626e+02
  -2.386571e+02   2.442053e+01
  -2.196102e+02  -1.467080e+02
  -5.267757e+01  -2.389650e+02
   1.425141e+02  -1.601826e+02
   1.391112e+02  -3.779449e+01
   8.190896e+01   4.555532e+01
   2.151761e+01   3.855722e+01
   4.195415e+01  -3.076098e+01
   7.182292e+01  -1.190312e+01
   7.716408e+01   3.060872e+01
  -2.081847e+01   1.073650e+02
  -1.005140e+02   6.117599e+01
  -7.114398e+01  -4.355756e+01
   3.423816e+01  -1.147313e+02
   1.569641e+02  -8.173300e+01
   2.229867e+02   5.540404e+01
   1.320027e+02   1.916579e+02
  -1.125341e+02   2.336901e+02
  -2.623656e+02   1.234521e+02
  -2.652053e+02  -9.729189e+01
  -1.126635e+02  -1.727505e+02
   4.164081e+01  -1.428587e+02
   1.015694e+02  -6.700394e+01
   1.082164e+02  -6.347444e+01
   6.316966e+01  -7.913621e+01
   4.695231e+01  -8.855557e+01
   1.346398e+02   9.034094e+00
   1.255416e+02   1.374511e+02
   1.520421e+01   2.320654e+02
  -1.142547e+02   1.780842e+02
  -1.776454e+02   1.948243e+01
  -1.181773e+02  -1.168096e+02
   3.951664e+00  -1.728445e+02
   6.192279e+01  -1.115629e+02
   5.116384e+01  -2.037374e+01
  -4.317079e+00   6.342342e+01
  -6.978345e+00   6.570704e+01
   2.591484e+01   3.235380e+01
   9.590263e+01   9.265063e+00
   3.424446e+01   4.070947e+01
  -5.977026e+01   3.814232e+01
  -1.675586e+02  -1.584400e+01
  -1.603537e+02  -5.155270e+01
  -2.577047e+01  -5.758784e+01
   1.276124e+02  -7.137260e+01
   1.407013e+02  -1.311593e+01
   6.977960e+01   4.931652e+01
  -4.941080e+01   4.372381e+01
  -9.152387e+01  -3.122535e+01
  -1.538633e+01  -6.956410e+01
   4.868624e+01  -6.840871e+01
   3.691139e+01   3.691033e+01
   1.417878e+01   5.811295e+01
   2.221972e+01   1.121095e+01
   7.578644e+01   1.711456e+01
   7.237036e+01   7.467940e+00
   2.629468e+01   1.080276e+02
  -3.906654e+01   1.259592e+02
  -1.235967e+02   1.085887e+02
  -1.781846e+02   2.657614e+01
  -1.509516e+02  -1.004656e+02
   7.163399e-01  -1.317945e+02
   6.920210e+01  -6.355410e+01
   6.003670e+01  -1.664478e+01
  -1.770363e+01   1.255958e+01
  -1.005654e+02  -2.862431e+01
  -7.960895e+01  -9.358853e+01
   8.737175e+01  -9.390394e+01
   1.889406e+02  -4.020389e+01
   1.515792e+02   4.833096e+00
   3.469829e+01   9.745189e+01
  -8.636840e+01   7.534879e+01
  -5.422875e+01  -8.637090e+00
   3.288395e+01  -4.630276e+01
   7.236444e+01   2.111866e+01
   1.320185e+01   1.277994e+02
  -1.183865e+02   1.467629e+02
  -1.800502e+02   3.594183e+01
  -1.588413e+02  -9.979717e+01
  -1.394178e+01  -1.884653e+02
   8.892243e+01  -1.377715e+02
   1.062329e+02  -6.922650e+00
   7.265080e+01   1.022025e+02
  -2.705726e+00   8.327297e+01
  -5.962492e+01   2.158144e+01
  -5.473002e+01  -5.957803e+01
  -3.663845e+01  -1.631355e+01
  -1.699245e+01   4.133358e+01
  -3.241391e+01   4.945332e+00
  -7.491377e+01  -1.087393e+02
  -2.635590e+01  -1.182251e+02
   2.024176e+01  -4.748040e+01
   1.559871e+02   1.265407e+01
   1.039102e+02   1.057089e+02
   1.750168e+01   4.538532e+01
  -9.630938e+01   1.896901e+01
  -8.144052e+01  -3.820805e+00
   8.022983e+00  -2.174465e+01
   3.761244e+01  -3.021457e+01
   7.237255e+00  -1.828811e+01
  -3.654858e+01   1.361241e+00
   9.361839e-01   1.774732e+01
   6.422336e+01  -1.350650e+01
   1.073798e+02   2.348118e+01
   3.302341e+00   1.103607e+02
  -1.373904e+02   1.274633e+02
  -1.964413e+02   3.810287e+01
  -1.606099e+02  -5.790100e+01
  -3.966035e+01  -1.580979e+02
   9.480320e+01  -1.521779e+02
   1.360774e+02  -5.927028e+01
   6.483376e+01   7.158301e+00
   6.048533e+00   6.654386e+01
   6.504009e+00   2.765075e+00
   1.373366e+01   1.478987e+01
   2.283010e+01   6.213013e+01
   1.907009e+01   1.067450e+02
  -4.878493e+01   7.299208e+01
  -9.045727e+01  -4.742449e+00
  -7.118673e+01  -8.733886e+01
   1.770274e+01  -9.387566e+01
   9.279927e+01  -3.027336e+01
   9.863789e+01   7.926829e+01
   5.776710e+00   1.051598e+02
  -5.607373e+01   5.411363e+01
  -1.036370e+02  -2.318550e+01
  -5.874639e+01  -5.865966e+01
   1.294899e+01  -5.573492e+01
   1.112946e+01   1.152238e+01
  -3.875599e+01  -6.594673e+00
  -7.068768e+01  -3.405004e+00
  -2.094870e+01  -3.036932e+00
   8.809752e+01  -7.047019e+01
   1.111606e+02  -5.614792e+01
   5.932904e+01   3.043125e+01
  -2.035569e+01   8.952080e+01
  -2.080880e+01   3.900378e+01
  -3.072892e+01   7.988244e-01
   1.138031e+01  -3.572232e+01
   6.763173e+01  -3.204139e+01
   5.695429e+01  -3.855531e-01
   1.088831e+01   6.362948e+01
  -4.532112e+00   1.922723e+01
  -3.172649e+01  -3.185955e+00
  -2.243974e+01  -1.172006e+01
  -5.779139e+00   8.449011e-01
   3.272467e+01  -1.428761e+01
  -3.136402e+00   1.311811e+01
   3.414020e+01  -4.235174e+01
   1.879048e+01  -4.449638e+01
   5.076301e+01  -1.033087e+01
   3.528362e+01   2.524714e+01
  -1.689505e+00   6.881097e+01
  -4.298065e+01  -2.095748e+00
  -4.587576e+01  -3.422222e+01
   6.503507e+00  -7.157510e+01
   6.233300e+01  -6.500730e+01
   9.933930e+01   1.831254e+01
   5.286207e+01   4.367726e+01
  -4.107361e+01   2.728236e+01
  -5.313162e+01   4.327375e+01
  -4.367854e+00   6.277580e+00
   2.958964e+01   5.685781e+00
   6.180492e+01   1.417615e+01
  -2.546308e+01   2.870553e+01
  -7.215979e+01   3.002191e+01
