
 $NMID
 id='ANONYMOUS ', fmtdat='(2E16.6)'
 volume=1.0
 tramp=1.0
 $END
  -4.421113e+03  -1.708666e+02
  -2.408768e+03  -2.722720e+03
   9.023911e+02  -2.584717e+03
   2.132896e+03  -7.282519e+02
   8.645489e+02   8.739955e+02
  -7.475128e+02   6.029784e+02
  -9.139436e+02  -5.724902e+02
   4.394204e+01  -1.113933e+03
   8.799466e+02  -7.493288e+02
   9.819659e+02   1.463726e+02
   4.166505e+02   9.256371e+02
  -3.702834e+02   8.923299e+02
  -6.736916e+02   6.955080e+01
  -4.057461e+02  -7.811811e+02
   3.021994e+02  -7.594146e+02
   6.123401e+02   5.239599e+01
   2.615113e+02   7.449345e+02
  -3.660953e+02   6.257879e+02
  -5.647473e+02   2.693739e+01
  -3.638719e+02  -3.717564e+02
   9.880236e+00  -4.517309e+02
   2.388211e+02  -2.292522e+02
   2.527826e+02   8.487827e+00
  -1.002198e+02   1.568331e+02
  -4.256854e+02  -9.671498e+01
  -1.812099e+02  -4.512869e+02
   4.696248e+02  -4.622537e+02
   8.439344e+02   6.056936e+01
   4.350970e+02   5.362480e+02
  -4.206421e+02   4.908707e+02
  -7.432885e+02  -6.532515e+01
  -3.509317e+02  -4.977451e+02
   3.077312e+02  -5.466164e+02
   5.863940e+02  -2.056340e+02
   3.813207e+02   2.840316e+02
   2.405544e+01   5.139539e+02
  -2.118801e+02   2.936867e+02
  -2.182955e+02  -2.434485e+02
   1.609438e+02  -4.853913e+02
   5.191144e+02   1.089190e+00
   2.815378e+02   6.807706e+02
  -3.349042e+02   6.979105e+02
  -6.539447e+02   1.747523e+00
  -2.530996e+02  -6.103564e+02
   2.893255e+02  -3.471925e+02
   3.948006e+02   3.674852e+02
  -6.499204e+01   5.797897e+02
  -6.345161e+02   1.242457e+02
  -6.144677e+02  -4.553194e+02
  -1.662212e+02  -5.949228e+02
   3.936720e+02  -3.770038e+02
   6.995347e+02   9.357665e+01
   3.556950e+02   4.159739e+02
  -1.677804e+02   3.471252e+02
  -4.564041e+02   5.780886e+01
  -2.399925e+02  -1.958700e+02
   1.638652e+02  -1.109782e+02
   1.766608e+02   1.894475e+02
  -2.006412e+02   2.403492e+02
  -3.546282e+02  -1.071195e+02
  -1.628653e+02  -3.025287e+02
   2.067594e+02  -2.633420e+02
   3.147200e+02  -6.495882e+01
   1.786769e+02   7.956970e+01
  -1.270964e+00   2.254570e+02
  -1.922564e+02   3.040403e+02
  -3.043956e+02   2.168035e+02
  -3.097188e+02  -9.664138e+01
  -8.567630e+01  -4.107845e+02
   9.500210e+01  -3.723464e+02
   1.499153e+02  -9.868209e+01
   3.514798e+01   2.891112e+01
   1.006868e+01  -8.105626e+01
   1.770834e+02  -1.284351e+02
   2.862036e+02   2.130291e+01
   1.872159e+02   2.508047e+02
  -5.604064e+01   2.636829e+02
  -2.286989e+02   4.851713e+01
  -2.040427e+02  -2.368033e+02
   2.598604e+01  -2.989925e+02
   2.759179e+02  -1.160401e+02
   3.718766e+02   1.598634e+02
   1.756707e+02   3.305877e+02
  -1.261906e+02   3.021363e+02
  -2.265009e+02   9.594852e+01
  -1.204533e+02   5.117355e-01
  -9.621784e+01   5.212803e+01
  -2.004112e+02   1.020288e+02
  -3.815523e+02  -3.083873e+01
  -3.309402e+02  -2.565036e+02
   1.395148e+01  -4.576161e+02
   3.371040e+02  -4.262045e+02
   4.635263e+02  -1.873673e+02
   3.609353e+02   8.833195e+01
   5.969424e+01   2.802153e+02
  -1.419306e+02   2.559367e+02
  -1.222504e+02   1.850235e+01
   9.189561e+01  -9.170523e+01
   1.807065e+02   1.459947e+01
   5.300800e+01   2.165840e+02
  -1.738302e+02   1.714312e+02
  -1.909160e+02  -6.400414e+01
   2.483485e+01  -2.068664e+02
   1.955215e+02  -4.881056e+01
   1.304191e+02   2.194463e+02
  -3.317398e+01   3.175077e+02
  -2.175621e+02   1.697302e+02
  -2.940083e+02  -4.173446e+01
  -2.441594e+02  -2.328250e+02
  -9.918958e+01  -2.779927e+02
   1.055973e+02  -1.412650e+02
   1.867581e+02  -1.031213e+01
   7.140024e+01   3.528585e+01
  -7.413136e+01  -1.527921e+01
  -2.858228e+01  -1.265565e+02
   1.145227e+02  -1.172494e+02
   1.704356e+02   3.110588e+01
   4.835024e+01   8.076487e+01
  -7.270988e+01   3.784777e+01
  -4.626668e+01  -8.302977e+01
   1.299856e+02  -7.817525e+01
   2.421435e+02  -4.807003e+00
   2.535591e+02   1.397127e+02
   9.314753e+01   2.397986e+02
  -1.431609e+02   2.453418e+02
  -2.673503e+02   1.056354e+02
  -1.677581e+02  -5.780330e+01
   4.138070e+01  -1.165494e+02
   8.878891e+01  -3.031040e+01
  -2.425196e+01   1.060919e+02
  -2.036676e+02   7.149984e+01
  -1.937350e+02  -1.417429e+02
  -7.283252e+01  -2.095049e+02
   1.020381e+02  -1.567162e+02
   1.678646e+02  -3.915726e+01
   5.631100e+01   6.404988e+01
  -2.199526e+01   3.594207e+01
  -4.170955e+01  -7.410947e+01
   3.494997e+01  -1.078835e+02
   1.559126e+02  -3.929521e+01
   2.245934e+02   1.087196e+02
   1.171686e+01   2.260527e+02
  -1.396613e+02   1.468340e+02
  -1.909906e+02   3.324329e+01
  -8.536209e+01  -1.222936e+02
   4.272115e+01  -1.124327e+02
   6.458833e+01  -2.678978e+01
   2.993594e+01   2.358038e+01
  -2.088831e+00   4.148346e+01
  -8.434155e+00  -6.561842e+00
   8.857151e+01  -1.310418e+01
   8.952723e+01   4.782938e+01
   4.520149e+01   1.438559e+02
  -9.909930e+01   1.767400e+02
  -2.261801e+02   3.788685e+01
  -2.165064e+02  -1.489869e+02
  -6.547648e+01  -2.350402e+02
   1.015520e+02  -1.653209e+02
   1.359051e+02  -1.401998e+01
   7.259985e+01   4.852612e+01
   4.687314e+01   2.659588e+01
   6.684775e+01  -1.804577e+01
   6.636344e+01  -3.396675e+01
   2.285484e+01   7.804268e+01
  -3.771001e+01   6.928829e+01
  -1.040061e+02   5.626507e+01
  -6.363134e+01  -3.300972e+01
  -1.257607e+01  -8.737125e+01
   1.364769e+02  -9.317191e+01
   2.041373e+02   3.953978e+01
   8.565071e+01   1.808100e+02
  -9.800982e+01   2.173135e+02
  -2.720921e+02   9.097029e+01
  -2.712071e+02  -8.448291e+01
  -1.197475e+02  -1.756297e+02
   2.992248e+01  -1.464820e+02
   1.061467e+02  -8.826144e+01
   5.806863e+01  -2.199123e+01
   4.187146e+01  -1.020421e+02
   1.075067e+02  -7.095973e+01
   1.322463e+02   3.125273e+01
   1.287751e+02   1.410444e+02
   3.281772e+01   2.334996e+02
  -1.117876e+02   1.667815e+02
  -2.019760e+02  -9.117565e-01
  -1.197475e+02  -1.086658e+02
  -2.154182e+01  -1.700002e+02
   4.797792e+01  -9.200261e+01
   4.964723e+01   1.577987e+01
   1.370864e+01   5.813645e+01
   1.130430e+00   3.798415e+01
   3.029195e+01  -3.324250e+00
   5.740741e+01   2.674500e+01
   4.720840e+01   4.042296e+01
  -6.462496e+01   5.184306e+01
  -1.603683e+02   1.456432e+01
  -1.648604e+02  -5.632160e+01
  -2.351363e+01  -1.083293e+02
   1.122615e+02  -5.734819e+01
   1.609212e+02  -2.141207e+01
   5.105424e+01   2.173132e+01
  -7.724013e+01   4.831852e+01
  -7.867852e+01  -7.610618e+00
   1.316815e+01  -6.935252e+01
   7.375579e+01  -3.667506e+01
   4.659567e+01   1.744299e+00
   2.720170e+01   1.399234e+01
   2.328286e+01   6.023964e+01
   4.908795e+01  -3.450750e+01
   4.021733e+01   4.460788e-01
   4.591208e+01   5.734415e+01
  -1.509446e+01   1.404483e+02
  -9.996862e+01   1.357737e+02
  -1.528126e+02   3.114196e+01
  -1.136094e+02  -9.599059e+01
  -1.003549e+01  -8.771072e+01
   7.294579e+01  -6.331861e+01
   5.262280e+01  -1.472399e+00
  -6.532619e+01   5.029537e+00
  -1.242990e+02  -5.704716e+01
  -5.543211e+01  -1.008117e+02
   7.049812e+01  -1.108050e+02
   1.621915e+02  -3.980110e+01
   1.705656e+02   2.872211e+01
   2.662249e+01   1.124387e+02
  -3.544634e+01   8.472296e+01
  -3.877907e+01   1.147203e+01
   3.213958e+01  -2.196703e+01
   9.814775e+01   3.199016e+01
  -8.784567e+00   1.184978e+02
  -7.403453e+01   1.615353e+02
  -1.565447e+02   4.812478e+01
  -1.262637e+02  -1.218888e+02
  -4.152540e+01  -1.694547e+02
   1.067728e+02  -1.203246e+02
   1.100759e+02  -3.153020e+00
   6.922238e+01   1.074241e+02
   2.997562e+01   8.100088e+01
  -3.176436e+01   6.717312e+00
  -4.885594e+01  -3.512183e+01
  -4.735568e+01   1.413315e+01
  -2.553832e+01   4.441010e+01
  -3.739851e+01  -1.550762e+01
  -5.489334e+01  -9.937543e+01
  -1.930705e+01  -9.532188e+01
   4.862283e+01  -3.339649e+01
   1.173692e+02   3.861908e+01
   8.674056e+01   4.063358e+01
   3.164075e+01   3.663161e+01
  -9.333138e+01   2.673303e+01
  -5.952238e+01   2.434710e+01
  -6.143224e+00  -2.131437e+01
   2.932957e+01  -1.234270e+01
   7.789355e+00  -1.315039e+01
  -1.829297e+01  -2.097247e+01
  -2.144800e+01  -1.111475e+01
   6.235717e+01   1.382034e+01
   7.932698e+01   6.294479e+01
   1.604545e+01   6.623795e+01
  -1.543827e+02   1.381292e+02
  -2.011167e+02   4.276715e+01
  -1.232652e+02  -5.228424e+01
  -4.642725e+01  -1.496101e+02
   1.007897e+02  -1.672277e+02
   1.081394e+02  -3.592536e+01
   7.062437e+01   1.663756e+01
   4.691710e+01   3.088997e+01
   7.437445e+00  -6.669067e-01
   1.409678e+00  -3.755254e+01
   3.046461e+01   7.674223e+01
   2.670416e+01   1.041533e+02
  -2.847509e+01   8.077950e+01
  -5.493933e+01  -2.953964e+01
  -7.300949e+01  -9.842353e+01
  -6.519533e+00  -6.976580e+01
   5.030897e+01  -3.418323e+01
   9.282153e+01   5.656984e+01
   2.053275e+01   9.842783e+01
  -6.501798e+01   5.803269e+01
  -7.039792e+01  -1.112250e+01
  -1.345817e+01  -5.915128e+01
   2.513540e+01  -6.972566e+01
   2.296860e+01  -3.670198e+01
  -2.732778e+01  -1.162682e+01
  -4.621733e+01  -2.481840e-01
  -1.809379e+01  -3.498946e+01
   6.190965e+01  -4.412410e+01
   9.782834e+01  -5.424904e+01
   7.705721e+01   5.157218e+00
  -3.878884e+01   4.812811e+01
  -4.383255e+01   5.984988e+01
  -3.526950e+01   8.174020e+00
   1.440239e+01  -6.099041e+01
   4.527966e+01  -1.743719e+01
   5.390533e+01   1.420857e+01
   4.184990e+00   4.135301e+01
  -1.592126e+01   3.069913e+01
  -5.434852e+00  -1.947608e+01
  -1.403187e+01  -1.286025e+01
  -2.399681e+00  -1.160703e+01
   4.388695e+00   9.939908e+00
   1.646383e+01  -1.248573e+01
   3.200392e+01   2.231891e+00
  -1.188639e+00  -2.715703e+01
   3.297529e+01  -1.257809e+01
   2.902199e+01   4.680597e+01
  -8.154242e+00   3.958301e+01
  -5.222580e+01   3.942677e+01
  -5.014571e+01  -4.472068e+01
  -8.088886e+00  -5.567283e+01
   4.712515e+01  -2.443759e+01
   1.052740e+02   2.186945e+01
   3.631013e+01   4.444274e+01
  -1.581765e+01   3.143296e+01
  -5.995280e+01   5.211251e+01
  -8.263930e+00   1.859703e+00
   3.137111e+01   1.854794e+01
   3.621077e+01   1.661731e+01
  -4.010154e+01   4.100468e+01
  -8.342733e+01   3.529076e+01
