
 $NMID
 id='ANONYMOUS ', fmtdat='(2E16.6)'
 volume=1.0
 tramp=1.0
 $END
   4.503370e+03   1.640066e+02
   2.550020e+03   2.849722e+03
  -8.682182e+02   2.755791e+03
  -2.169679e+03   7.347900e+02
  -9.304709e+02  -8.179590e+02
   7.810458e+02  -5.881831e+02
   8.800990e+02   5.255335e+02
   8.307305e-01   1.137512e+03
  -8.731125e+02   7.327517e+02
  -9.722217e+02  -1.221351e+02
  -4.449726e+02  -8.887261e+02
   3.305444e+02  -9.843453e+02
   7.069136e+02  -8.712703e+01
   3.603884e+02   7.698170e+02
  -3.594093e+02   7.935779e+02
  -6.350501e+02  -2.517394e+01
  -2.524573e+02  -7.220348e+02
   3.765208e+02  -5.988206e+02
   5.844534e+02  -3.883612e+01
   3.545748e+02   3.889308e+02
   1.201963e+01   4.264442e+02
  -2.893211e+02   2.838788e+02
  -2.567858e+02   1.285821e+01
   1.246659e+02  -1.171542e+02
   4.089869e+02   7.167678e+01
   2.451085e+02   4.468626e+02
  -4.566343e+02   4.407324e+02
  -8.231677e+02  -6.346676e+01
  -4.604144e+02  -5.844628e+02
   4.062804e+02  -5.053324e+02
   7.574905e+02   3.566299e+00
   3.814310e+02   5.286169e+02
  -2.999205e+02   5.566266e+02
  -5.803909e+02   1.773674e+02
  -4.174091e+02  -2.732374e+02
   2.560703e+00  -5.106810e+02
   2.527274e+02  -2.725144e+02
   2.002876e+02   2.819442e+02
  -1.941707e+02   4.671410e+02
  -4.790272e+02   5.017877e+00
  -2.745754e+02  -6.943064e+02
   3.447812e+02  -6.682444e+02
   6.080771e+02   1.716985e+01
   2.877536e+02   5.427272e+02
  -3.024979e+02   3.664986e+02
  -4.112933e+02  -3.297859e+02
   4.713383e+01  -6.018669e+02
   5.851468e+02  -1.029835e+02
   6.388216e+02   4.301195e+02
   1.366382e+02   6.274779e+02
  -4.179403e+02   3.936069e+02
  -6.752885e+02  -1.301631e+02
  -3.740161e+02  -4.091924e+02
   1.855897e+02  -3.666237e+02
   4.703278e+02  -2.241028e+01
   2.135458e+02   2.301361e+02
  -1.619337e+02   1.016635e+02
  -1.767625e+02  -2.008675e+02
   2.198442e+02  -2.165309e+02
   3.759093e+02   9.184954e+01
   9.807545e+01   3.429807e+02
  -2.116922e+02   2.588630e+02
  -3.217007e+02   4.178694e+01
  -1.564035e+02  -1.109178e+02
   8.073313e+01  -2.093831e+02
   2.067899e+02  -3.097284e+02
   3.426676e+02  -1.821436e+02
   2.667287e+02   1.251256e+02
   5.357223e+01   3.826392e+02
  -1.351678e+02   3.687188e+02
  -1.381197e+02   7.815090e+01
  -6.673500e+00  -1.732685e+01
  -2.950257e+01   9.372902e+01
  -1.973624e+02   1.156255e+02
  -2.809786e+02  -2.957679e+01
  -1.769206e+02  -2.564960e+02
   6.225214e+01  -2.818010e+02
   2.342149e+02  -4.531976e-01
   1.855226e+02   2.589077e+02
   2.979189e+00   3.146777e+02
  -2.489572e+02   9.155630e+01
  -3.441579e+02  -2.016949e+02
  -1.573664e+02  -3.830388e+02
   1.140645e+02  -2.959244e+02
   2.052393e+02  -1.112263e+02
   1.557658e+02   2.051586e+01
   7.834960e+01  -3.556246e+01
   2.197953e+02  -8.703567e+01
   3.899790e+02   4.526734e+01
   3.241542e+02   3.053163e+02
  -1.120990e+01   4.358231e+02
  -3.813616e+02   3.873824e+02
  -4.846086e+02   1.852400e+02
  -2.997151e+02  -9.385400e+01
  -7.171370e+01  -2.959381e+02
   1.372497e+02  -2.386544e+02
   8.561773e+01  -8.014690e+00
  -1.093276e+02   8.858227e+01
  -1.974508e+02  -1.648826e+01
  -2.921814e+01  -2.021589e+02
   1.710398e+02  -1.780450e+02
   1.729492e+02   5.406355e+01
  -1.771655e+01   2.186939e+02
  -2.085553e+02   4.737467e+01
  -1.822672e+02  -2.372696e+02
   3.417412e+01  -3.616635e+02
   2.248660e+02  -2.005617e+02
   3.547068e+02   7.260334e+01
   2.617620e+02   2.686954e+02
   1.090793e+02   2.638731e+02
  -1.342670e+02   1.611602e+02
  -1.876486e+02   2.156732e+01
  -4.226556e+01  -2.633971e+01
   6.914999e+01   4.730860e+01
   2.137248e+01   1.195748e+02
  -1.180765e+02   8.132917e+01
  -1.838247e+02   9.523680e+00
  -3.067304e+01  -7.497102e+01
   4.397175e+01  -4.355384e+01
   3.266859e+01   4.298819e+01
  -1.034147e+02   8.521487e+01
  -2.632863e+02   1.596807e+01
  -2.705460e+02  -1.357562e+02
  -5.979657e+01  -2.820362e+02
   1.564068e+02  -2.697040e+02
   2.607913e+02  -1.181290e+02
   1.843723e+02   3.392450e+01
  -3.431572e+01   8.549906e+01
  -9.596555e+01   8.114723e+00
   3.084197e+01  -1.046282e+02
   1.914424e+02  -4.550193e+01
   2.111156e+02   1.289080e+02
   9.161962e+01   2.130155e+02
  -1.245041e+02   1.553271e+02
  -1.551553e+02   3.307428e+01
  -9.755662e+01  -5.203936e+01
   1.904409e+01  -1.296145e+01
   2.550059e+01   7.231334e+01
  -6.072670e+01   1.420059e+02
  -2.019960e+02   2.426626e+01
  -1.814734e+02  -1.307764e+02
  -1.611816e+01  -2.293889e+02
   1.689753e+02  -1.652911e+02
   2.180953e+02   1.279438e+00
   4.720725e+01   1.262448e+02
  -9.052327e+01   9.885557e+01
  -6.710931e+01   2.869344e+01
  -2.379901e+01  -3.710758e+01
   4.001401e+01  -1.374630e+01
   5.451714e-01   1.086501e+01
  -6.896239e+01  -2.853224e+01
  -7.706655e+01  -8.395466e+01
  -2.583068e+01  -1.494947e+02
   1.207067e+02  -1.348579e+02
   2.625078e+02  -3.063121e+00
   2.072286e+02   1.504613e+02
   7.496126e+01   2.295088e+02
  -8.673395e+01   1.711044e+02
  -1.418087e+02   3.108403e+01
  -7.803538e+01  -6.929445e+01
  -2.285418e+01  -2.760489e+01
  -8.154748e+01   4.016932e+00
  -9.134799e+01   1.396007e+01
  -3.718710e+01  -2.846629e+01
   1.551413e+01  -9.296102e+01
   9.521330e+01  -4.776650e+01
   1.024090e+02   3.181758e+01
   3.618336e+00   9.635717e+01
  -9.668270e+01   7.334170e+01
  -1.964776e+02  -4.688254e+00
  -1.111981e+02  -1.613694e+02
   1.018580e+02  -2.216464e+02
   2.752330e+02  -8.537536e+01
   2.499149e+02   8.680009e+01
   1.098049e+02   1.611023e+02
  -2.317137e+01   1.804749e+02
  -5.725395e+01   7.400800e+01
  -6.681676e+01   7.236423e+01
  -6.256102e+01   6.898551e+01
  -1.129823e+02   5.892442e+01
  -1.104547e+02  -5.072361e+01
  -1.300523e+02  -1.675681e+02
  -1.380643e+01  -2.188422e+02
   8.395482e+01  -1.356677e+02
   1.787874e+02  -2.786083e+01
   1.341309e+02   1.180148e+02
   1.146639e+01   1.538700e+02
  -7.894976e+01   1.099517e+02
  -4.780124e+01   3.959523e+01
  -5.570980e+00  -4.620359e+01
   6.313843e+00  -4.691642e+01
  -3.785863e+00  -1.901593e+01
  -8.030110e+01  -6.873286e+00
  -4.873561e+01  -3.389153e+01
   6.610889e+01  -3.327129e+01
   1.444850e+02   2.770158e+00
   1.358096e+02   5.555632e+01
   1.568067e+01   9.240758e+01
  -1.147890e+02   7.744633e+01
  -1.419815e+02   6.640473e+00
  -3.842972e+01  -6.151849e+01
   6.299025e+01  -4.035732e+01
   9.451784e+01   2.363863e+01
   1.092718e+01   4.191141e+01
  -5.448419e+01   5.340161e+01
  -6.504651e+01  -2.093806e+01
  -1.012818e+01  -7.978354e+01
  -7.058152e+01  -3.761887e+01
  -4.321897e+01  -2.233715e+00
  -6.159797e+01  -1.769928e+01
  -1.622435e+01  -8.972649e+01
   2.800226e+01  -1.208344e+02
   1.221269e+02  -1.399112e+02
   1.449220e+02  -4.553708e+01
   1.117469e+02   9.520775e+01
   4.696268e+00   1.145193e+02
  -4.831600e+01   3.932849e+01
  -6.356335e+01   2.891412e-01
   3.757097e+01   7.533974e+00
   1.361689e+02   3.899242e+01
   6.017851e+01   1.023529e+02
  -7.874845e+01   9.174264e+01
  -1.875633e+02   4.533696e+01
  -1.799904e+02  -4.787489e+01
  -2.599880e+01  -7.188734e+01
   3.689358e+01  -9.735810e+01
   5.407259e+01   2.210164e+01
  -1.900334e+01   6.401712e+00
  -8.574286e+01  -3.602658e+01
  -2.383265e+01  -1.235406e+02
   1.154275e+02  -1.409035e+02
   2.002122e+02  -6.262017e+01
   1.219347e+02   1.381244e+02
   2.781197e+01   2.011909e+02
  -8.033033e+01   1.397628e+02
  -1.150689e+02  -3.210818e+01
  -7.846411e+01  -8.131666e+01
   1.182038e+01  -1.204160e+02
   3.630140e+01  -2.060430e+01
   4.696727e+01   3.240182e+01
   2.689374e+01  -3.502240e+00
  -1.461016e+01  -2.299534e+01
   2.086680e+01   3.775616e+01
   5.078160e+01   8.641076e+01
   1.983025e+01   1.122103e+02
  -2.115763e+01   5.133746e+01
  -1.458928e+02  -5.163904e+01
  -1.020367e+02  -7.306993e+01
  -9.548170e+00  -5.791087e+01
   7.949941e+01  -1.497487e+01
   6.284543e+01  -3.691154e+01
   2.140619e+01  -4.251247e-01
  -3.731358e+01   9.551634e+00
  -8.142063e+00   2.178607e+01
   1.746680e+01   1.745400e+01
   1.775007e+01  -3.327239e+00
  -7.357476e+01  -1.795995e+00
  -1.009726e+02  -3.097843e+01
  -1.715493e+01  -1.059997e+02
   1.413986e+02  -1.080561e+02
   1.741848e+02  -3.271951e+01
   1.193630e+02   8.522552e+01
   4.510745e+01   1.604975e+02
  -7.405296e+01   1.191937e+02
  -1.097797e+02   4.859931e+01
  -8.437485e+01  -6.708755e+00
  -4.056284e+01  -4.901422e+01
  -2.652417e+01   2.173887e+00
   9.890583e+00  -8.796491e+00
  -2.871735e+01  -4.797982e+01
  -1.580806e+01  -8.564786e+01
   3.227728e+01  -5.201054e+01
   8.729502e+01   2.304053e+01
   7.478501e+01   1.162264e+02
  -6.888086e+00   1.104648e+02
  -8.567478e+01   4.065858e+01
  -1.160968e+02  -7.209291e+01
  -2.127214e+01  -7.852501e+01
   8.614514e+01  -7.278366e+01
   7.298456e+01   1.761444e+01
   3.537525e+01   5.741737e+01
  -4.383589e+01   4.717162e+01
  -3.564615e+01   3.957193e+01
   3.317773e+01   1.528607e+01
   3.511136e+01  -1.453967e+01
  -5.766665e+00   7.089881e+00
  -5.437101e+01   6.317535e+01
  -1.191717e+02   3.768341e+01
  -8.655875e+01  -2.680446e+00
   8.204106e+00  -8.509522e+01
   6.075449e+01  -6.102232e+01
   6.955963e+01  -7.073397e+00
   2.068101e+01   4.153304e+01
  -3.644562e+01   3.116568e+01
  -3.129812e+01  -2.302014e+01
  -2.486929e+01  -4.655653e+01
   2.076925e+01  -5.893967e+01
   3.090965e+01   4.790926e+01
   4.390312e+01   2.516139e+01
   3.245404e+01   2.039958e+01
  -1.904870e+01  -3.434300e+01
   6.385204e+00   8.314193e+00
   1.576142e+01   1.082223e+01
  -1.195435e+01   2.415780e+01
  -4.093795e+01  -6.837417e+00
  -7.703957e+00  -6.331557e+01
  -1.027904e+01  -7.935392e+01
   5.414688e+01  -1.970743e+01
   5.693420e+01   2.778477e+01
   2.792087e+01   5.548062e+01
  -3.765675e+01   2.939543e+01
  -1.076014e+02  -2.431530e+01
  -5.845942e+01  -3.737888e+01
   1.303214e+01  -4.067927e+01
   6.275213e+01  -5.139355e+01
   8.559679e+00  -4.231757e+00
  -3.486652e+01  -9.957259e+00
  -3.198701e+01  -4.332160e+01
   4.283944e+01  -3.788241e+01
   9.626676e+01  -2.043896e+01
