
 $NMID
 id='ANONYMOUS ', fmtdat='(2E16.6)'
 volume=1.0
 tramp=1.0
 $END
  -3.957779e+03   2.091544e+01
  -2.243128e+03  -2.428517e+03
   6.100320e+02  -2.407451e+03
   1.895515e+03  -6.955893e+02
   8.566286e+02   5.616193e+02
  -6.517865e+02   4.590945e+02
  -8.363743e+02  -4.219442e+02
   3.268430e+01  -9.202813e+02
   7.397584e+02  -6.305978e+02
   8.514506e+02   1.323589e+02
   3.284340e+02   7.670346e+02
  -2.980640e+02   7.509827e+02
  -5.841905e+02   8.963777e+01
  -3.194626e+02  -6.268562e+02
   2.217732e+02  -6.027000e+02
   4.910113e+02   4.729564e+01
   2.271545e+02   5.859051e+02
  -2.612278e+02   5.181307e+02
  -4.638475e+02   1.297423e+01
  -3.054300e+02  -2.843885e+02
  -3.637108e+01  -3.700699e+02
   2.013889e+02  -2.358778e+02
   2.117925e+02  -3.781264e+01
  -9.782986e+01   7.621988e+01
  -3.632901e+02  -6.522677e+01
  -2.047044e+02  -3.808790e+02
   3.999400e+02  -3.883774e+02
   7.038631e+02   1.609469e+01
   3.516282e+02   4.987103e+02
  -3.319875e+02   4.390404e+02
  -6.107661e+02  -1.422391e+01
  -2.976188e+02  -4.265337e+02
   2.452746e+02  -4.584788e+02
   4.728542e+02  -1.381915e+02
   3.327790e+02   2.162850e+02
   5.371549e+01   4.052311e+02
  -1.674183e+02   2.319443e+02
  -1.766533e+02  -2.031042e+02
   1.483459e+02  -3.851555e+02
   3.666811e+02   2.873978e+01
   2.144909e+02   5.701360e+02
  -2.939817e+02   5.952407e+02
  -5.184584e+02   1.610174e+01
  -2.221756e+02  -4.910516e+02
   2.720650e+02  -3.111535e+02
   3.189648e+02   2.797313e+02
  -8.102535e+01   4.991681e+02
  -4.734653e+02   9.951431e+01
  -5.584621e+02  -3.436179e+02
  -1.328662e+02  -4.980681e+02
   3.411990e+02  -2.751387e+02
   5.903577e+02   7.310216e+01
   3.234885e+02   3.481957e+02
  -1.537790e+02   3.417626e+02
  -3.676366e+02   1.098972e+01
  -1.720036e+02  -1.729330e+02
   1.064025e+02  -1.108653e+02
   1.297240e+02   1.697213e+02
  -1.525944e+02   1.855143e+02
  -3.354811e+02  -6.588087e+01
  -9.485868e+01  -2.773674e+02
   1.976907e+02  -2.031689e+02
   2.570648e+02  -7.765004e+00
   1.543867e+02   1.043486e+02
  -5.152240e+01   1.700848e+02
  -1.461493e+02   2.629222e+02
  -2.702496e+02   2.192182e+02
  -2.453267e+02  -9.988057e+01
  -8.419684e+01  -3.545159e+02
   1.166934e+02  -2.989570e+02
   1.050264e+02  -9.236355e+01
   4.277401e+00   2.290028e+01
   2.675147e+01  -7.359315e+01
   1.437505e+02  -1.490816e+02
   2.521274e+02  -2.176499e+00
   1.491475e+02   2.174725e+02
  -5.856309e+01   2.403697e+02
  -1.928338e+02  -5.531092e-01
  -1.774901e+02  -1.903166e+02
   3.519524e+00  -2.648327e+02
   2.332502e+02  -1.131365e+02
   2.984515e+02   1.124921e+02
   1.709593e+02   3.066772e+02
  -1.304338e+02   2.537650e+02
  -1.875577e+02   9.995285e+01
  -1.274431e+02   5.165364e+00
  -7.466449e+01   5.266813e+01
  -2.101960e+02   7.940139e+01
  -3.186219e+02  -3.380345e+01
  -2.843336e+02  -2.420754e+02
  -9.155735e+00  -3.626152e+02
   3.111863e+02  -3.326355e+02
   4.038331e+02  -1.548239e+02
   2.564619e+02   9.656509e+01
   5.660950e+01   2.307443e+02
  -1.023814e+02   1.986393e+02
  -7.227394e+01   1.910599e+01
   1.031940e+02  -9.791455e+01
   1.839037e+02  -1.707769e+01
   4.944592e+00   2.060934e+02
  -1.465814e+02   1.650564e+02
  -1.665062e+02  -2.816926e+01
   1.098185e+01  -1.686038e+02
   1.603672e+02  -2.016759e+01
   1.469585e+02   2.207197e+02
  -3.615440e+01   2.716642e+02
  -1.671751e+02   1.761321e+02
  -2.962953e+02  -6.536734e+01
  -2.280416e+02  -1.964255e+02
  -7.310456e+01  -2.215440e+02
   9.180943e+01  -1.517375e+02
   1.481723e+02  -2.487174e+01
   4.737184e+01   1.905655e+01
  -8.387605e+01  -4.067706e+01
  -1.539647e+01  -1.275743e+02
   1.068118e+02  -6.898487e+01
   1.459806e+02   1.266218e+01
   6.573800e+01   4.961875e+01
  -5.456299e+01   2.820659e+01
  -4.559638e+01  -7.536844e+01
   1.334330e+02  -8.145387e+01
   2.282092e+02  -5.250548e+00
   2.320784e+02   1.079821e+02
   4.626727e+01   2.040231e+02
  -1.472582e+02   2.278163e+02
  -2.381936e+02   8.426164e+01
  -1.688540e+02  -4.048800e+01
   3.827743e+01  -9.871653e+01
   7.601269e+01  -1.419655e+01
  -1.678096e+01   7.167795e+01
  -1.619433e+02   4.232701e+01
  -1.720745e+02  -8.018381e+01
  -5.236827e+01  -1.472250e+02
   8.666343e+01  -1.289426e+02
   1.203761e+02  -4.167542e+01
   6.226695e+01   1.423099e+01
  -3.755450e+01   4.444492e+00
  -6.994791e+01  -8.039763e+01
   6.178579e+01  -1.011990e+02
   1.586544e+02  -2.051676e+01
   1.779508e+02   7.532287e+01
   1.554156e+01   2.010421e+02
  -1.578421e+02   1.426914e+02
  -1.558441e+02   3.927113e+00
  -8.458233e+01  -9.620754e+01
   3.889118e+01  -1.183899e+02
   5.889400e+01  -4.120040e+01
   3.022793e+01   2.400483e+01
  -3.376214e+01  -9.653984e-01
  -5.131277e+00  -2.129605e+01
   4.844386e+01   1.627383e+01
   6.555225e+01   6.774279e+01
   1.266955e+01   1.009715e+02
  -1.135369e+02   1.276354e+02
  -2.060140e+02   3.818116e+01
  -1.660443e+02  -1.221511e+02
  -4.377197e+01  -2.046048e+02
   6.615276e+01  -1.203612e+02
   9.979965e+01  -2.332553e+01
   7.641984e+01   5.001133e+01
   3.557116e+01   2.238963e+01
   3.266930e+01   1.860919e+01
   5.599922e+01   7.223070e-01
   4.814924e+01   4.207630e+01
  -5.066008e+01   8.132676e+01
  -6.965622e+01   3.457687e+01
  -7.069257e+01  -2.472357e+01
  -6.402199e+00  -1.159691e+02
   1.096822e+02  -1.106871e+02
   1.761410e+02   3.364113e+01
   8.796369e+01   1.531397e+02
  -6.800944e+01   1.996408e+02
  -2.411832e+02   1.142270e+02
  -2.194932e+02  -3.679188e+01
  -1.133992e+02  -1.352969e+02
   3.125345e+01  -1.203818e+02
   9.305043e+01  -7.605004e+01
   8.684013e+01  -4.204629e+01
   5.138403e+01  -6.720644e+01
   7.496639e+01  -4.397741e+01
   1.049530e+02   7.128843e+00
   9.596023e+01   1.400082e+02
   1.882977e+01   1.787478e+02
  -7.538416e+01   1.332070e+02
  -1.389936e+02   3.058269e+01
  -9.298991e+01  -8.497590e+01
  -3.221817e+01  -1.365357e+02
   5.377296e+01  -9.071562e+01
   4.295471e+01  -2.326192e+01
  -2.877535e+00   2.964378e+01
  -1.108050e+01   2.599423e+01
   7.028175e+00   1.687820e+01
   4.650866e+01   3.547407e+01
  -5.986981e+00   5.151784e+01
  -5.094693e+01   3.262476e+01
  -9.256940e+01  -6.332255e+00
  -7.376011e+01  -4.628697e+01
  -4.049060e+01  -8.888468e+01
   1.218852e+02  -7.691241e+01
   1.146180e+02  -2.347979e+01
   2.722282e+01   6.561938e+00
  -6.679733e+01   5.397605e+01
  -7.043306e+01  -2.661912e+01
  -2.000610e+01  -5.747497e+01
   6.658932e+01  -5.156454e+01
   5.729319e+01  -7.038567e+00
   5.641679e+01   4.358453e+01
   2.808525e+01   4.366484e+01
   6.086989e+01   1.288189e+01
   9.220350e+01   1.242183e+01
   2.975620e+01   5.864906e+01
  -1.968072e+01   1.172200e+02
  -9.735401e+01   1.250703e+02
  -1.346749e+02   1.845573e+01
  -1.140483e+02  -6.097945e+01
  -1.313483e+01  -1.215626e+02
   4.126696e+01  -3.110939e+01
   3.857923e+01   1.671841e+01
  -5.037968e+01   3.685659e+01
  -1.269569e+02  -1.273340e+01
  -4.805920e+01  -6.415560e+01
   6.111796e+01  -7.415359e+01
   2.007783e+02  -2.971367e+01
   1.472268e+02   3.953712e+01
   3.698110e+01   6.827339e+01
  -6.393006e+01   3.930359e+01
  -8.102432e+01  -1.532542e+01
   1.310778e+01   2.137559e+00
   8.911889e+01   2.000634e+01
   1.171708e+01   9.190181e+01
  -8.651508e+01   1.024345e+02
  -1.677781e+02   3.027394e+01
  -9.518982e+01  -9.285855e+01
   6.958430e+00  -1.616944e+02
   8.868649e+01  -1.127793e+02
   7.900004e+01  -4.728770e-01
   2.534769e+01   8.736340e+01
  -3.958822e+00   9.005658e+01
  -3.577537e+01   1.083124e+01
  -4.249915e+01  -3.056369e+01
  -1.770040e+01  -3.026396e+00
  -8.043544e+00   2.760697e+01
  -2.103866e+01   4.839251e+00
  -3.695926e+01  -8.066549e+01
  -3.143418e+01  -8.778742e+01
   4.224901e+01  -1.255700e+01
   1.397555e+02   5.086086e+01
   9.256128e+01   5.610575e+01
   1.567910e+01   3.159109e+01
  -7.112721e+01   2.973698e-01
  -8.162898e+01  -6.439107e+00
  -3.597890e+01  -5.245353e+00
   1.495222e+01  -2.633243e+00
   7.856706e+00  -2.626174e+01
  -2.305626e+01   1.820625e+01
  -9.188509e+00   3.407287e+01
   7.435223e+01  -1.527325e+00
   5.640748e+01   1.590233e+01
   1.550204e+01   3.870947e+01
  -7.909141e+01   7.500561e+01
  -1.632438e+02   5.809054e+01
  -1.250930e+02  -8.256712e+01
  -1.524148e+01  -1.484154e+02
   6.163819e+01  -9.297651e+01
   1.024208e+02  -1.752912e+01
   6.422419e+01   7.988696e-01
   3.262303e+01  -8.847808e+00
  -1.369976e+00  -1.064884e+01
   2.711626e+01   8.881369e+00
   2.577649e+01   3.222108e+01
   3.796346e+01   6.828191e+01
  -3.136309e+01   5.525327e+01
  -5.971264e+01   8.226464e+00
  -3.894632e+01  -8.064940e+01
  -4.238105e+00  -8.609392e+01
   6.479558e+01  -6.970999e+00
   7.795764e+01   3.411875e+01
   2.849413e+00   1.028276e+02
  -5.063107e+01   5.838309e+01
  -9.539474e+01   1.945938e+01
  -4.095529e+01  -4.445045e+01
   6.223532e+00  -7.128599e+01
   2.646238e+01  -4.083289e+01
  -6.462064e+00   6.814070e+00
  -1.099004e+02   3.569894e+01
  -1.439960e+01  -1.781922e+01
   7.150671e+01  -5.576074e+01
   8.849461e+01  -5.440315e+01
   6.548547e+01   8.926455e+00
   1.075029e+00   7.874020e+01
  -4.499601e+01   6.675558e+01
  -4.158838e+01   1.414130e+01
  -5.061052e+00  -6.711920e+00
   1.699430e+01  -2.678314e+01
   1.947836e+01  -7.989044e-01
   1.858854e+01   4.127301e+01
  -4.857530e+00   2.115246e+01
  -4.532980e+01  -3.464720e+00
  -5.512823e+01  -4.505240e+01
  -2.271306e+01  -2.501213e+01
   8.079605e+00   3.256151e+01
   5.363499e+00  -1.641975e+01
  -1.077813e+01   3.791078e+00
   1.898695e+01  -3.010520e+01
   1.924347e+01  -9.762510e+00
   7.382342e-01   6.557512e+01
  -1.658277e+01   3.244659e+01
  -4.422036e+01   9.783554e+00
  -1.036893e+01  -2.624058e+01
   1.958361e+01  -5.563366e+01
   5.706451e+01  -5.913391e+01
   8.207558e+01   2.089987e+01
   3.254548e+01   2.348531e+01
  -2.379589e+01   4.756927e+01
  -4.551187e+01   4.025365e+00
  -4.896788e+01   1.539810e+00
   1.814814e+01  -2.820174e+01
   1.031941e+01   3.921815e+01
  -4.813895e+01   3.282024e+01
  -8.493548e+01   2.031896e+01
