
 $NMID
 id='ANONYMOUS ', fmtdat='(2E16.6)'
 volume=1.0
 tramp=1.0
 $END
  -3.912761e+03   2.274929e+02
  -2.183180e+03  -2.286604e+03
   6.609561e+02  -2.360564e+03
   1.845553e+03  -5.798601e+02
   7.574691e+02   5.881426e+02
  -5.741696e+02   5.014624e+02
  -7.461082e+02  -4.297825e+02
   2.999502e+01  -9.327210e+02
   6.581865e+02  -6.879938e+02
   7.913046e+02   7.237479e+01
   3.576910e+02   7.551052e+02
  -2.351107e+02   7.703587e+02
  -5.493272e+02   1.084712e+02
  -3.035415e+02  -6.146767e+02
   2.042704e+02  -6.073929e+02
   5.293708e+02  -2.328820e+01
   2.486812e+02   5.488034e+02
  -2.275126e+02   5.211749e+02
  -4.771508e+02   2.515050e+01
  -3.359712e+02  -2.452319e+02
  -1.024645e+01  -3.552950e+02
   1.816160e+02  -2.449623e+02
   2.186434e+02  -5.830742e+01
  -4.582450e+01   8.559148e+01
  -3.269637e+02  -6.211070e+01
  -1.799306e+02  -3.292806e+02
   3.504310e+02  -3.455501e+02
   6.675275e+02  -4.808235e+00
   3.819658e+02   4.547415e+02
  -2.792207e+02   4.200462e+02
  -5.652827e+02   1.241348e+01
  -2.525866e+02  -3.747396e+02
   2.191922e+02  -4.418507e+02
   4.862758e+02  -1.847901e+02
   3.442579e+02   2.134135e+02
   6.317062e+01   4.129474e+02
  -1.859140e+02   2.565623e+02
  -1.745118e+02  -1.773798e+02
   1.567797e+02  -3.719366e+02
   3.868115e+02   2.765545e+01
   2.300237e+02   5.279578e+02
  -1.912013e+02   6.202643e+02
  -4.951383e+02   1.953838e+01
  -2.006247e+02  -4.511847e+02
   2.504476e+02  -2.894183e+02
   3.111946e+02   2.657118e+02
  -6.655008e+01   4.646832e+02
  -4.682648e+02   1.020520e+02
  -5.026948e+02  -3.256626e+02
  -1.435054e+02  -4.662152e+02
   3.594261e+02  -2.762586e+02
   5.674695e+02   2.267158e+01
   3.005904e+02   3.545349e+02
  -1.530617e+02   3.342079e+02
  -3.801226e+02   5.350273e+01
  -1.908407e+02  -1.576110e+02
   1.124445e+02  -9.268201e+01
   1.380306e+02   1.521295e+02
  -1.693379e+02   1.550821e+02
  -2.931786e+02  -7.662074e+01
  -1.248775e+02  -2.559841e+02
   1.583689e+02  -2.071867e+02
   2.448211e+02  -4.991627e+01
   1.671821e+02   6.773400e+01
  -2.462048e+01   1.556613e+02
  -1.704183e+02   2.399654e+02
  -2.398723e+02   2.017043e+02
  -2.588162e+02  -8.832682e+01
  -1.018278e+02  -3.301431e+02
   9.856024e+01  -3.254790e+02
   1.242096e+02  -9.149502e+01
   4.384934e+01   2.145683e+01
   1.019613e+01  -8.314330e+01
   1.462204e+02  -1.367100e+02
   2.030528e+02   3.620909e+01
   1.543738e+02   2.151995e+02
  -4.080059e+01   2.121861e+02
  -2.095071e+02   2.777941e+01
  -1.363978e+02  -1.846515e+02
   8.171368e+00  -2.439361e+02
   2.004470e+02  -1.040873e+02
   2.972017e+02   1.442057e+02
   1.661268e+02   3.168478e+02
  -7.813636e+01   2.527132e+02
  -2.010383e+02   8.596502e+01
  -1.341835e+02   6.804053e+00
  -7.238557e+01   6.057656e+01
  -1.935345e+02   6.037043e+01
  -3.191169e+02  -3.203635e+01
  -2.803139e+02  -2.529157e+02
  -1.995446e+01  -3.427548e+02
   2.800944e+02  -3.208058e+02
   3.828497e+02  -1.620499e+02
   2.612517e+02   3.969431e+01
   5.654561e+01   2.510508e+02
  -9.010327e+01   2.095514e+02
  -7.082313e+01   2.908336e+01
   7.174639e+01  -9.286922e+01
   1.619813e+02   7.784737e+00
   3.866117e+01   1.516528e+02
  -1.556453e+02   1.593795e+02
  -1.437859e+02  -5.977197e-01
   4.166269e+00  -1.415865e+02
   1.271706e+02  -3.253431e+01
   1.552837e+02   1.930921e+02
  -3.528334e+01   2.826866e+02
  -1.908706e+02   1.830385e+02
  -2.575961e+02  -2.132355e+01
  -2.128889e+02  -2.072954e+02
  -7.413282e+01  -1.990806e+02
   7.606229e+01  -1.086490e+02
   1.472943e+02  -2.536439e+01
   4.111777e+01   3.298703e+01
  -3.309312e+01  -3.741368e+01
  -4.440020e+01  -1.253004e+02
   1.079346e+02  -8.799970e+01
   1.136535e+02   2.503443e+01
   5.316318e+01   3.818760e+01
  -6.054057e+01   1.735188e+01
  -5.516977e+01  -4.577421e+01
   9.462369e+01  -6.281064e+01
   2.140715e+02  -1.967883e+01
   2.110264e+02   1.044607e+02
   9.636695e+01   2.054212e+02
  -1.352666e+02   2.591624e+02
  -2.235696e+02   1.295225e+02
  -1.521347e+02  -5.066689e+01
  -2.620466e+01  -1.227874e+02
   5.195857e+01  -2.841822e+01
  -2.538167e+01   9.837692e+01
  -1.722701e+02   5.626612e+01
  -1.708191e+02  -8.689539e+01
  -9.212863e+01  -1.627722e+02
   8.271498e+01  -1.058477e+02
   1.475328e+02  -2.511724e+01
   6.217089e+01   3.872807e+00
  -2.064044e+00   2.074591e+01
  -2.811706e+01  -7.998449e+01
   7.940045e+01  -1.081253e+02
   1.263766e+02  -3.560795e+01
   1.697997e+02   8.204189e+01
  -4.377568e+00   1.933212e+02
  -1.536880e+02   1.145892e+02
  -1.543357e+02   2.419528e+01
  -6.502034e+01  -1.075605e+02
   5.915998e+01  -9.166622e+01
   8.262202e+01  -3.249178e+01
   2.430436e+01   6.257835e+01
  -1.778515e+01   2.206915e+01
   2.704059e+00   1.544971e+01
   5.525583e+01  -1.629231e+01
   5.552681e+01   4.628184e+01
   9.133800e+00   1.423925e+02
  -1.114779e+02   1.134401e+02
  -1.498518e+02   2.227377e+01
  -1.675164e+02  -1.279827e+02
  -4.356452e+01  -2.122035e+02
   1.061846e+02  -1.368484e+02
   1.302014e+02  -4.552619e+01
   8.294082e+01   6.029937e+01
   2.460438e+01   2.279685e+01
   3.693021e+01   1.913873e+00
   5.681792e+01  -1.763955e+01
   4.042259e+01   3.635941e+01
  -4.558746e+01   6.888699e+01
  -5.586165e+01   6.401159e+01
  -4.660466e+01  -1.739507e+01
   8.415224e+00  -8.557401e+01
   1.019750e+02  -8.143730e+01
   1.926009e+02   4.132470e+01
   1.082247e+02   1.508356e+02
  -6.305021e+01   2.105814e+02
  -2.358332e+02   9.746367e+01
  -2.411130e+02  -3.685614e+01
  -8.825797e+01  -1.481413e+02
   5.941700e+01  -1.174091e+02
   1.057516e+02  -6.516364e+01
   5.239176e+01  -4.908050e+01
   5.882141e+01  -7.759339e+01
   6.843044e+01  -6.017494e+01
   1.076101e+02   1.395806e+01
   1.073862e+02   1.309769e+02
   2.174399e+01   1.677360e+02
  -9.461816e+01   1.280475e+02
  -1.365239e+02   1.449169e+01
  -1.198194e+02  -9.244171e+01
  -6.640116e+00  -1.666512e+02
   8.788775e+01  -8.346458e+01
   6.524642e+01   7.568389e+00
   6.521120e-01   6.768452e+00
  -1.708774e+01   3.284721e+01
   2.867174e+01   1.879851e+00
   5.217711e+01   2.664361e+01
   3.620069e+01   2.765310e+01
  -4.166137e+01   2.670853e+01
  -1.200849e+02   2.360983e+01
  -1.130124e+02  -1.828642e+01
  -4.696989e+01  -8.920301e+01
   8.253269e+01  -5.746797e+01
   1.308735e+02  -9.222802e+00
   4.523375e+01   1.161039e+01
  -2.426160e+01   1.379920e+01
  -6.037715e+01  -1.081121e+01
  -2.980599e+01  -4.959562e+01
   6.028458e+01  -3.762428e+01
   6.759074e+01  -2.640730e+01
   3.726168e+01   5.084145e+01
   3.901254e+01   5.275592e+01
   7.642716e+01   2.385745e+01
   7.347441e+01  -3.094344e+01
   6.202658e+00   5.512281e+01
  -2.255066e+01   1.135448e+02
  -1.024376e+02   1.274928e+02
  -1.374895e+02   1.474288e+01
  -1.004349e+02  -9.179852e+01
  -7.817784e+00  -1.105640e+02
   6.381597e+01  -5.456343e+01
   4.186822e+01   2.627505e+01
  -3.188307e+01   3.728067e+01
  -1.128086e+02  -3.939818e+01
  -7.360162e+01  -8.805108e+01
   6.165152e+01  -1.065007e+02
   1.791302e+02  -4.916174e+01
   1.372505e+02   3.539811e+01
   4.688531e+01   8.262403e+01
  -5.627335e+01   3.025358e+01
  -2.138586e+01   3.673044e+01
   3.246683e+01  -3.160089e+01
   5.550275e+01  -1.691022e+01
  -3.090028e+00   9.715728e+01
  -6.809546e+01   1.217606e+02
  -1.693980e+02   5.308141e+01
  -1.158970e+02  -1.061546e+02
  -2.302275e+01  -1.594225e+02
   6.404385e+01  -1.379756e+02
   6.563014e+01   1.734215e+01
   3.013016e+01   9.437980e+01
   2.322470e+01   8.294837e+01
  -4.481530e+01   4.848574e+01
  -6.986158e+01  -1.421769e+01
  -1.297400e+01  -1.782817e+01
   6.390716e+00  -2.914049e-01
  -3.585183e+00   4.884512e-01
  -3.958066e+01  -6.370249e+01
  -4.885532e+01  -8.040363e+01
   4.105744e+01  -4.146072e+01
   1.090681e+02   5.541640e+01
   9.827971e+01   6.928381e+01
   1.953632e+01   4.241212e+01
  -5.379480e+01   8.171589e+00
  -6.793437e+01  -1.180696e+01
  -3.547514e+00  -1.496439e+01
   4.046521e+01  -2.251186e+01
   1.673020e+01  -2.570603e+01
   1.129452e+01   1.922815e+00
   2.431423e+01  -8.748086e+00
   7.421450e+01  -4.936284e+01
   4.778834e+01   3.276569e+01
   1.527683e+01   9.062704e+01
  -1.082864e+02   1.100483e+02
  -1.534179e+02   4.439666e+01
  -1.130380e+02  -5.156996e+01
  -1.399482e+01  -1.490114e+02
   6.896404e+01  -1.170729e+02
   8.032984e+01  -1.176553e+01
   3.533903e+01  -8.576428e+00
   3.625296e+01   1.576843e+01
  -8.071382e+00   1.344311e+01
   1.124180e+01   1.970895e+01
   5.841130e+01   3.627690e+01
   2.933055e+01   8.067120e+01
  -1.573211e+01   4.340524e+01
  -8.567017e+01  -1.785737e+01
  -5.531839e+01  -7.019296e+01
   1.722499e+01  -1.189878e+02
   8.724355e+01  -2.804391e+01
   7.733025e+01   3.974573e+01
  -2.380709e+00   8.659876e+01
  -6.811758e+01   6.487273e+01
  -7.561405e+01   4.372839e+00
  -5.637409e+01  -2.506640e+01
   1.276580e+00  -5.210200e+01
  -9.018059e+00  -2.237277e+01
  -2.515080e+01  -2.874390e+00
  -2.573406e+01   2.589361e+01
  -3.554630e+00  -6.037870e+00
   7.743247e+01  -3.528308e+01
   7.343193e+01  -7.802915e+01
   5.278704e+01   3.892844e+01
  -6.868083e+00   5.325443e+01
  -4.526952e+01   6.862836e+01
  -2.286862e+01   3.194150e+01
  -1.754620e+01  -5.275798e+01
   1.566668e+01  -4.512344e+01
   4.837239e+01   1.258347e+01
   3.355226e+01   1.815795e+00
  -4.010517e+00   5.037655e+01
   2.327326e+00  -1.262976e+01
  -3.476237e+01  -4.448724e+00
  -1.587909e+01  -2.692071e+01
   9.521124e-01   1.883794e+01
  -3.232778e-01  -2.339375e+01
   2.823058e+01  -1.868521e+01
   1.941266e+01  -4.462475e+01
   4.204830e+01   1.820577e+01
   2.849393e+01   4.991319e+01
  -3.233661e+01   6.579631e+01
  -2.940111e+01   8.263487e+00
  -7.573596e+01  -3.982021e+01
  -3.606613e+00  -4.646026e+01
   4.646465e+01  -3.541230e+01
   9.678368e+01   3.099709e+01
   1.591478e+01   3.632331e+00
  -4.421929e+01   4.037053e+01
  -5.256392e+01  -6.641123e+00
  -3.457182e+01   2.728304e+01
   4.242491e+01  -1.210407e+01
   4.000825e+00   4.006807e+01
  -6.420932e+00   3.972361e+01
  -7.647536e+01   2.004206e+01
