
 $NMID
 id='ANONYMOUS ', fmtdat='(2E16.6)'
 volume=1.0
 tramp=1.0
 $END
   4.574113e+03   4.485818e+01
   2.450123e+03   2.959918e+03
  -7.518985e+02   2.906040e+03
  -2.330852e+03   9.395301e+02
  -9.563899e+02  -8.641441e+02
   7.661899e+02  -6.421294e+02
   9.536811e+02   5.241903e+02
  -1.291741e+01   1.206411e+03
  -9.746321e+02   7.928689e+02
  -1.013296e+03  -1.955025e+02
  -4.594498e+02  -1.003080e+03
   3.385173e+02  -9.346440e+02
   7.396087e+02  -8.179042e+01
   3.926372e+02   8.189480e+02
  -3.100526e+02   8.168261e+02
  -6.963835e+02  -4.385469e+01
  -2.300897e+02  -7.211916e+02
   4.035971e+02  -6.716243e+02
   6.541103e+02  -5.049663e+01
   3.953113e+02   3.922284e+02
  -2.871465e+01   4.810495e+02
  -2.627751e+02   2.504139e+02
  -2.584253e+02   7.409766e+00
   1.283373e+02  -1.475347e+02
   4.506596e+02   7.491878e+01
   2.265275e+02   4.578061e+02
  -4.716545e+02   4.656447e+02
  -9.204513e+02  -7.270881e+01
  -4.843639e+02  -6.085648e+02
   3.902880e+02  -5.716421e+02
   7.771593e+02   3.464676e+00
   3.677567e+02   5.256535e+02
  -2.649217e+02   5.978804e+02
  -5.876838e+02   2.241300e+02
  -4.332589e+02  -2.243223e+02
  -9.175053e+01  -5.269950e+02
   2.210242e+02  -3.118988e+02
   2.070528e+02   2.639269e+02
  -1.315556e+02   4.951901e+02
  -5.576697e+02   1.717744e+01
  -2.743650e+02  -7.118627e+02
   3.195708e+02  -7.392892e+02
   6.784745e+02   2.922468e+01
   2.735607e+02   6.283330e+02
  -3.495009e+02   3.399699e+02
  -4.283636e+02  -3.178057e+02
   3.078331e+01  -6.056018e+02
   6.128772e+02  -1.701081e+02
   6.006363e+02   4.311605e+02
   1.616302e+02   6.092338e+02
  -4.133649e+02   3.776831e+02
  -6.505741e+02  -6.755556e+01
  -3.480826e+02  -3.995937e+02
   1.557592e+02  -3.771770e+02
   4.721497e+02  -5.478470e+01
   2.784900e+02   2.374081e+02
  -1.468539e+02   1.371288e+02
  -1.919624e+02  -1.644215e+02
   1.749929e+02  -2.398878e+02
   3.778175e+02   7.549931e+01
   1.723582e+02   3.571670e+02
  -2.389379e+02   2.385047e+02
  -3.621620e+02   5.539303e+01
  -1.685484e+02  -1.127691e+02
   2.142362e+01  -1.966010e+02
   2.015162e+02  -3.331431e+02
   3.510668e+02  -2.427371e+02
   3.478831e+02   1.227066e+02
   9.701288e+01   4.798632e+02
  -9.017292e+01   3.896571e+02
  -1.704591e+02   1.271852e+02
  -4.665410e+01  -2.811621e+01
  -9.622835e+00   8.161452e+01
  -1.712494e+02   1.305331e+02
  -3.047645e+02  -2.091933e+01
  -1.688204e+02  -2.640082e+02
   5.284546e+01  -2.745249e+02
   2.253566e+02  -4.062078e+01
   2.176896e+02   2.319349e+02
   8.182897e+00   3.264847e+02
  -2.740951e+02   1.437007e+02
  -3.506885e+02  -1.634457e+02
  -2.114488e+02  -3.715703e+02
   1.321173e+02  -3.233476e+02
   2.470453e+02  -1.243758e+02
   1.611191e+02   3.374176e+01
   5.244109e+01  -4.177129e+01
   2.288189e+02  -7.030046e+01
   3.905496e+02   2.659876e+01
   3.557138e+02   2.826635e+02
  -4.680549e+00   4.551001e+02
  -3.668272e+02   3.988944e+02
  -4.615835e+02   2.030912e+02
  -3.163144e+02  -1.167590e+02
  -7.663799e+01  -3.034756e+02
   1.555109e+02  -2.593530e+02
   1.078358e+02  -4.706718e+01
  -8.775765e+01   9.776122e+01
  -2.060172e+02   9.209304e+00
  -6.906489e+01  -1.933641e+02
   1.534313e+02  -1.799437e+02
   2.051062e+02   4.382012e+01
  -1.044825e+01   2.216638e+02
  -1.755660e+02   5.611013e+01
  -1.624703e+02  -2.374521e+02
   5.072625e+01  -3.727271e+02
   2.708590e+02  -1.774798e+02
   3.352874e+02   4.547719e+01
   2.652950e+02   2.347218e+02
   1.059089e+02   2.779760e+02
  -1.085494e+02   1.725444e+02
  -1.996099e+02   3.408453e+01
  -4.862885e+01  -5.530883e+01
   3.753035e+01   3.804041e+01
   2.551264e+01   1.220849e+02
  -1.125018e+02   1.305279e+02
  -1.793108e+02  -2.311145e+01
  -4.700030e+01  -7.407255e+01
   4.309566e+01  -2.872143e+01
   5.777462e+01   7.750649e+01
  -9.946736e+01   6.204313e+01
  -2.638392e+02   2.433377e+01
  -2.531068e+02  -1.379136e+02
  -7.552833e+01  -2.627352e+02
   1.626128e+02  -2.735614e+02
   2.501695e+02  -1.288499e+02
   1.683888e+02   3.848700e+01
  -1.144846e+01   1.338205e+02
  -1.144196e+02   2.513998e+01
   1.211672e+01  -9.362288e+01
   2.038019e+02  -5.651724e+01
   2.336660e+02   1.295771e+02
   5.594631e+01   1.961880e+02
  -9.813963e+01   1.327634e+02
  -1.458360e+02  -2.567253e+00
  -8.394769e+01  -3.963193e+01
   2.072289e+01  -9.846425e+00
   4.090456e+01   1.007704e+02
  -3.399426e+01   1.133691e+02
  -1.924938e+02   3.359607e+01
  -2.194717e+02  -1.419465e+02
  -2.246441e+01  -2.491164e+02
   1.576193e+02  -1.807633e+02
   1.960166e+02   1.277458e+00
   6.629993e+01   1.089374e+02
  -6.018994e+01   9.905639e+01
  -1.037929e+02   4.698239e+01
  -1.955053e+01  -5.192463e+01
   2.526315e+01  -3.371493e+01
   7.291097e-01   2.117801e+01
  -8.517594e+01   2.507184e+01
  -6.775583e+01  -6.266856e+01
  -4.700072e+01  -1.691589e+02
   1.069224e+02  -1.590516e+02
   2.214047e+02  -3.795650e+01
   1.919638e+02   1.662248e+02
   3.526555e+01   2.602642e+02
  -1.188761e+02   1.631060e+02
  -1.339542e+02   2.849521e+01
  -4.610745e+01  -6.274825e+01
  -1.857572e+01  -3.924363e+01
  -5.388985e+01   3.149328e+01
  -7.248451e+01   2.618017e+01
  -3.565886e+01  -5.814571e+01
   2.071774e+01  -6.835261e+01
   1.146855e+02  -8.442689e+01
   9.617902e+01   4.641895e+01
   1.768345e+01   8.907848e+01
  -1.336759e+02   9.350645e+01
  -1.962963e+02  -3.308337e+01
  -1.121918e+02  -2.025485e+02
   6.700289e+01  -2.227727e+02
   2.775098e+02  -1.027518e+02
   2.536820e+02   1.068560e+02
   1.243501e+02   1.649479e+02
  -5.598229e+01   1.409759e+02
  -8.180246e+01   1.002536e+02
  -5.464949e+01   7.163768e+01
  -5.166308e+01   1.081318e+02
  -9.684596e+01   7.262220e+01
  -1.694421e+02  -1.296013e+01
  -1.139249e+02  -1.348886e+02
  -6.462746e+01  -2.232005e+02
   9.575228e+01  -1.850144e+02
   1.508417e+02   4.703726e+00
   1.646504e+02   1.106679e+02
   1.759389e+01   1.694012e+02
  -5.055419e+01   1.020755e+02
  -4.309913e+01  -1.077397e+01
  -2.686807e+01  -3.555100e+01
  -5.945112e+00  -2.009038e+01
  -2.465607e+01  -1.732670e+01
  -5.521529e+01  -3.974219e+01
  -2.042908e+01  -3.802925e+01
   9.385688e+01  -4.143178e+01
   1.480017e+02  -1.768567e+01
   1.727576e+02   6.910322e+01
   2.699707e+01   1.093526e+02
  -1.211393e+02   1.062815e+02
  -1.816464e+02   3.667868e+01
  -3.963674e+01  -2.261325e+01
   7.824923e+01  -5.449647e+01
   9.825100e+01   1.640915e+01
  -8.502809e+00   7.691522e+01
  -5.579397e+01   7.541972e+01
  -9.335944e+01  -1.128533e+00
  -3.217980e+01  -6.795200e+01
  -3.735231e+01  -3.747295e+01
  -4.417051e+01   2.554233e+01
  -5.472785e+01   6.803793e+00
  -4.659405e+01  -4.971592e+01
   1.331732e+01  -1.513019e+02
   1.244210e+02  -1.514254e+02
   1.616086e+02  -3.458531e+01
   1.289564e+02   1.282696e+02
   2.066764e+01   1.391891e+02
  -5.956738e+01   1.274652e+02
  -4.517008e+01  -3.660162e+00
   2.565762e+01  -3.529379e+01
   1.128113e+02   3.713576e+01
   6.581535e+01   8.281688e+01
  -8.006826e+01   1.452276e+02
  -1.716530e+02   5.410372e+01
  -1.845790e+02  -2.264924e+01
  -4.023944e+01  -8.810607e+01
   4.424484e+01  -1.107456e+02
   4.211786e+01  -1.108846e+00
  -2.222262e+01   5.020852e+01
  -9.136697e+01  -2.508433e+01
  -3.755286e+01  -1.331928e+02
   7.534527e+01  -1.401623e+02
   1.516762e+02  -3.805855e+01
   1.311496e+02   1.044766e+02
   4.876677e+01   2.052133e+02
  -8.298206e+01   1.618099e+02
  -1.274037e+02  -5.452892e+00
  -8.318312e+01  -1.085451e+02
  -6.514778e+00  -1.205442e+02
   3.598869e+01  -2.029674e+01
   2.885870e+01   5.907097e+01
   3.272085e+01   1.375480e+01
   6.290225e+01  -1.367085e+01
   3.772280e+01   1.067133e+01
   7.210721e+01   8.871230e+01
   3.948203e+01   1.040075e+02
  -4.233256e+01   6.611905e+01
  -1.460832e+02  -2.994802e+01
  -1.068296e+02  -7.332161e+01
  -1.175884e+01  -5.491419e+01
   7.174028e+01  -2.951444e+01
   8.825153e+01  -1.130315e+01
   7.533743e+00  -8.021821e+00
  -3.033395e+01   3.066799e+01
  -3.505097e+01   8.190595e+00
   5.107107e+01   5.100221e+00
  -1.906706e+00   2.530170e+00
  -7.181314e+01  -6.541725e+00
  -1.038298e+02  -2.295536e+01
  -2.893182e+01  -8.789218e+01
   1.141027e+02  -1.328762e+02
   1.707215e+02  -5.874818e+01
   1.256819e+02   6.923597e+01
   2.818805e+01   1.546346e+02
  -6.658605e+01   1.727433e+02
  -1.088647e+02   7.246565e+01
  -7.438572e+01  -4.499413e+01
  -1.761163e+01  -3.822445e+01
  -3.152766e+00   9.619693e+00
  -2.390066e+01   5.948371e+00
  -3.595766e+01  -2.998453e+01
  -3.015998e+01  -1.247950e+02
   2.637468e+01  -4.803085e+01
   8.234306e+01   1.860577e+01
   8.344995e+01   1.014231e+02
   1.079738e+01   8.715967e+01
  -1.047365e+02   9.560288e+00
  -1.288632e+02  -9.283938e+01
  -3.017686e+01  -1.073958e+02
   5.576922e+01  -6.313005e+01
   8.220537e+01   6.953896e+00
   4.949497e+01   5.714975e+01
  -4.053759e+01   6.202208e+01
  -3.173487e+01   4.172704e+01
   3.578314e+01   1.052701e+01
   7.868387e+01  -5.950692e+00
   2.044763e+01   3.298631e+01
  -4.069764e+01   6.314620e+01
  -1.185935e+02   8.338560e+01
  -7.093957e+01  -9.946125e+00
   9.736236e+00  -6.610594e+01
   6.708521e+01  -9.200036e+01
   3.623095e+01  -1.473665e+01
  -6.878488e+00   7.715636e+01
  -3.369169e+01   2.913046e+01
  -4.973070e+01  -1.549270e+01
  -4.714639e+00  -3.270353e+01
   1.679139e+01  -2.212439e+01
   1.875891e+01  -1.078692e+01
   4.032418e+01   1.275392e+01
  -5.161645e+00   5.806099e+00
  -1.206331e+01  -6.581899e+00
  -1.986650e+01  -1.901624e+01
   3.531396e+00   3.560041e+01
   5.461260e+00   2.582025e+01
  -9.622526e+00   4.509984e+00
  -3.068825e+01  -4.288579e+01
  -3.702119e+00  -6.228326e+01
   4.883192e+01  -2.250317e+01
   5.855219e+01   5.056202e+01
   3.542253e+01   4.771101e+01
  -2.980511e+01   2.498390e+01
  -7.542916e+01   1.949659e+01
  -5.751025e+01  -4.074828e+01
   5.413523e+00  -3.131802e+01
   5.906825e+01  -2.337717e+01
  -6.019580e+00   2.566629e+01
  -2.331723e+01   5.252585e+00
  -1.541890e+01  -5.972200e+00
   1.140461e+01  -3.395226e+01
   6.252094e+01  -3.707435e+01
