
 $NMID
 id='ANONYMOUS ', fmtdat='(2E16.6)'
 volume=1.0
 tramp=1.0
 $END
  -4.610081e+03   1.015952e+02
  -2.591709e+03  -2.940670e+03
   7.685372e+02  -2.991850e+03
   2.357908e+03  -1.002041e+03
   1.031260e+03   8.147144e+02
  -8.027058e+02   6.731870e+02
  -9.950216e+02  -5.211545e+02
   3.053354e+01  -1.243410e+03
   9.407463e+02  -8.315574e+02
   1.010513e+03   1.757220e+02
   4.517460e+02   9.950220e+02
  -3.339002e+02   9.495580e+02
  -7.373865e+02   1.258495e+02
  -4.364340e+02  -7.795953e+02
   3.036806e+02  -8.100834e+02
   6.719799e+02   3.251676e+01
   2.767493e+02   7.208890e+02
  -3.789557e+02   6.852815e+02
  -6.247674e+02   6.180629e+01
  -4.186612e+02  -4.038268e+02
   8.728344e+00  -4.523218e+02
   2.742874e+02  -2.869889e+02
   2.331491e+02  -2.535629e+01
  -1.053834e+02   1.321688e+02
  -4.188520e+02  -9.367516e+01
  -2.259405e+02  -4.338097e+02
   4.806759e+02  -4.685409e+02
   9.322747e+02   1.320227e+01
   4.658335e+02   6.389876e+02
  -3.868280e+02   5.809789e+02
  -7.870716e+02  -1.457648e+01
  -3.715456e+02  -5.076527e+02
   2.820064e+02  -5.937582e+02
   6.011657e+02  -2.343157e+02
   4.428986e+02   2.645478e+02
   8.336023e+01   5.059936e+02
  -2.200256e+02   3.261910e+02
  -2.368862e+02  -2.582977e+02
   1.612530e+02  -4.760899e+02
   5.408373e+02  -2.014321e+01
   2.903660e+02   7.031168e+02
  -3.114928e+02   7.622675e+02
  -6.755562e+02   1.660303e+01
  -2.773072e+02  -6.068927e+02
   3.431494e+02  -3.838728e+02
   4.667141e+02   2.997524e+02
  -5.193214e+01   5.644830e+02
  -6.175910e+02   1.738226e+02
  -6.306356e+02  -4.239846e+02
  -1.278203e+02  -6.098307e+02
   4.261827e+02  -3.763738e+02
   6.473902e+02   6.460483e+01
   3.758892e+02   4.066698e+02
  -1.611953e+02   4.071433e+02
  -4.600268e+02   5.563625e+01
  -3.020646e+02  -2.401356e+02
   1.247534e+02  -1.445987e+02
   1.780064e+02   1.492255e+02
  -1.703466e+02   2.327460e+02
  -3.695562e+02  -7.197856e+01
  -1.537931e+02  -3.657129e+02
   2.200768e+02  -2.705881e+02
   3.386605e+02  -5.351072e+01
   1.858840e+02   1.261065e+02
  -3.741111e+01   2.332206e+02
  -1.996448e+02   3.337305e+02
  -3.183709e+02   2.415017e+02
  -3.170318e+02  -1.567561e+02
  -1.094689e+02  -4.708629e+02
   8.275828e+01  -3.973323e+02
   1.416546e+02  -1.155068e+02
   3.212277e+01   1.968702e+01
   1.052545e+01  -6.007274e+01
   1.742226e+02  -1.490576e+02
   3.106098e+02   2.647874e+01
   1.620723e+02   2.981728e+02
  -5.639884e+01   2.777219e+02
  -2.572368e+02   3.970074e+01
  -2.148636e+02  -2.236331e+02
   8.105682e+00  -3.467358e+02
   2.943501e+02  -1.453884e+02
   3.794898e+02   1.577608e+02
   1.764294e+02   3.680451e+02
  -1.142310e+02   3.155178e+02
  -2.509694e+02   1.356692e+02
  -1.583518e+02  -3.710108e+01
  -6.923921e+01   2.523861e+01
  -1.877950e+02   9.839800e+01
  -4.100336e+02  -1.533833e+01
  -3.823610e+02  -2.818902e+02
   1.820688e+01  -4.623917e+02
   3.839717e+02  -3.965719e+02
   4.797051e+02  -1.754900e+02
   3.438725e+02   9.769488e+01
   6.945496e+01   2.748077e+02
  -1.326483e+02   2.363274e+02
  -7.876520e+01   5.913692e+01
   7.711447e+01  -1.355377e+02
   1.898953e+02   9.464251e+00
   8.684490e+01   2.033441e+02
  -1.504660e+02   2.041966e+02
  -1.679125e+02  -7.901247e+01
   4.222145e+01  -2.181555e+02
   1.950356e+02  -5.204312e+01
   1.155098e+02   2.291245e+02
  -3.965702e+01   3.698242e+02
  -2.503395e+02   1.915731e+02
  -3.589112e+02  -4.838019e+01
  -2.698984e+02  -2.406239e+02
  -1.162380e+02  -2.961302e+02
   1.089595e+02  -1.557254e+02
   1.675375e+02  -1.329897e+01
   2.018771e+01   3.613080e+01
  -6.124468e+01  -5.114076e-01
  -2.393162e+01  -1.205688e+02
   1.009871e+02  -1.523516e+02
   1.550788e+02   8.816306e+00
   6.521097e+01   9.760748e+01
  -8.167358e+01   2.065630e+01
  -6.180665e+01  -9.848033e+01
   1.551224e+02  -1.017284e+02
   2.635346e+02  -1.058445e+01
   2.445229e+02   1.321799e+02
   7.110086e+01   2.321141e+02
  -1.651935e+02   2.468182e+02
  -2.740025e+02   1.291365e+02
  -1.797803e+02  -6.586510e+01
   2.718449e+01  -1.397322e+02
   1.156882e+02  -2.185943e+01
  -2.755585e+01   1.028648e+02
  -1.733017e+02   8.799066e+01
  -2.189941e+02  -1.014994e+02
  -8.730892e+01  -1.813789e+02
   6.513213e+01  -1.453544e+02
   1.508703e+02  -4.332849e+01
   6.524731e+01   6.377334e+01
  -1.913932e+01   6.482892e+00
  -5.108681e+01  -6.618449e+01
   6.947025e+01  -1.197838e+02
   1.963831e+02  -4.683452e+01
   2.091144e+02   1.131945e+02
   2.220380e+01   2.329381e+02
  -1.783044e+02   1.748288e+02
  -2.171321e+02   6.531056e+00
  -7.925401e+01  -1.628316e+02
   7.021941e+01  -1.069587e+02
   7.873478e+01   7.983451e+00
   3.214263e+01   3.596580e+01
  -2.719138e+00   2.773859e+01
   2.246884e+01  -4.055769e+01
   7.268219e+01  -1.457806e+01
   7.394661e+01   7.351616e+01
   3.677772e+01   1.540513e+02
  -1.105894e+02   1.678461e+02
  -2.646805e+02   5.117672e+01
  -1.872267e+02  -1.481667e+02
  -1.126358e+01  -2.412410e+02
   1.424358e+02  -1.489337e+02
   1.438919e+02  -3.514409e+01
   5.923692e+01   5.001692e+01
   4.001281e+01   1.250063e+01
   5.712297e+01  -3.577402e+01
   5.743778e+01  -1.127611e+01
   4.843904e+01   6.035569e+01
  -6.091181e+01   9.341043e+01
  -9.081353e+01   6.094057e+01
  -8.531552e+01  -3.095311e+01
   2.016306e+01  -8.983343e+01
   1.325445e+02  -6.787906e+01
   1.891079e+02   3.543290e+01
   1.258016e+02   1.993818e+02
  -7.780676e+01   2.420894e+02
  -2.567821e+02   1.097079e+02
  -2.562562e+02  -1.039596e+02
  -1.225394e+02  -1.613355e+02
   4.453676e+01  -1.420269e+02
   1.208518e+02  -9.325747e+01
   7.271384e+01  -8.072872e+01
   5.618760e+01  -8.296946e+01
   8.803887e+01  -5.883635e+01
   1.363645e+02   4.639371e+00
   1.187045e+02   1.325684e+02
   5.101528e+01   2.271343e+02
  -1.097138e+02   1.914145e+02
  -1.654319e+02   2.027942e+01
  -1.345816e+02  -1.183324e+02
  -6.594280e+01  -1.700670e+02
   4.176968e+01  -1.101007e+02
   8.968230e+01  -1.042949e+01
   1.055829e+01   3.712136e+01
  -4.840660e+00  -6.733890e+00
   2.097280e+01   6.257729e+00
   5.976426e+01   2.277923e+01
   1.793451e+01   1.834779e+01
  -8.362984e+01   2.337979e+01
  -1.367045e+02  -6.532300e+00
  -1.504822e+02  -6.448937e+01
  -2.168677e+01  -9.634089e+01
   1.260457e+02  -1.090828e+02
   1.370692e+02  -8.945153e+00
   5.178605e+01   2.848212e+01
  -5.206140e+01   2.344560e+01
  -9.371447e+01  -4.776133e+01
  -1.248170e+01  -1.039698e+02
   6.074004e+01  -3.581165e+01
   4.388084e+01   7.888852e+00
   5.085247e+01   6.707434e+01
   2.509455e+01   1.732832e+01
   4.941870e+01  -2.466104e+01
   7.764066e+01   2.884938e+00
   6.722373e+01   5.931343e+01
  -1.538557e+01   1.414374e+02
  -1.257815e+02   1.160385e+02
  -1.652614e+02   3.493981e+01
  -1.226586e+02  -9.793519e+01
  -1.224959e+01  -1.158658e+02
   6.540541e+01  -9.081742e+01
   5.189204e+01   3.885629e+01
  -7.270453e+01   1.222566e+01
  -1.500280e+02  -1.189822e+01
  -8.340020e+01  -1.242726e+02
   6.897321e+01  -1.105724e+02
   1.719487e+02  -4.976105e+01
   1.715156e+02   1.283356e+01
   5.139428e+01   9.338756e+01
  -4.583685e+01   9.780059e+01
  -4.142449e+01  -2.849807e+01
   1.945763e+01  -5.754750e+01
   9.126804e+01   4.916762e+00
   5.538556e+01   7.914035e+01
  -7.514536e+01   1.447431e+02
  -2.021023e+02   5.646491e+01
  -1.392167e+02  -1.106103e+02
  -4.636208e+01  -1.850613e+02
   8.503660e+01  -1.331596e+02
   1.171788e+02  -6.583653e-01
   4.819379e+01   1.020553e+02
   1.335586e+01   9.851451e+01
  -3.231186e+01   2.553371e+01
  -3.142839e+01  -3.537152e+01
  -2.010753e+01  -6.476447e+00
  -1.554875e+01   2.436914e+01
  -4.133129e+01  -2.876863e+01
  -7.859010e+01  -8.484552e+01
  -5.116678e+01  -1.097059e+02
   3.074122e+01  -2.643646e+01
   1.431016e+02   3.380811e+01
   1.284175e+02   7.584464e+01
   1.962330e+01   6.245977e+01
  -8.846763e+01   2.909613e+01
  -8.676520e+01   2.593076e+01
  -1.775486e+01  -3.893236e+00
   4.239005e+01  -2.538132e+01
   2.464676e+01   3.104414e+00
  -1.991537e+01   7.533650e+00
   6.748137e+00   1.555643e+00
   8.687494e+01   2.370271e+01
   9.141434e+01   2.325710e+01
  -1.781550e+00   7.771906e+01
  -1.176141e+02   1.345291e+02
  -1.776914e+02   6.655395e+01
  -1.342855e+02  -4.494178e+01
  -2.401555e+01  -1.875974e+02
   7.727833e+01  -1.425677e+02
   1.016511e+02  -6.674802e+01
   8.477017e+01   1.293317e+01
   3.323487e+01   3.060049e+01
   1.286239e+01  -1.860489e+01
   1.003380e+00   2.517110e+01
   3.230879e+01   5.910502e+01
   3.801947e+01   9.673993e+01
  -3.754361e+01   7.817693e+01
  -7.413663e+01  -2.242074e+01
  -5.493549e+01  -9.796632e+01
  -7.819467e+00  -1.259933e+02
   1.005710e+02  -3.071895e+01
   1.205615e+02   8.018784e+01
   4.325680e+01   8.688781e+01
  -6.074196e+01   3.269610e+01
  -9.528495e+01   3.330741e+00
  -4.694163e+01  -7.801998e+01
   9.805353e+00  -6.899424e+01
   1.784527e+01  -2.842905e+01
  -4.347971e+01   5.358344e+00
  -5.908114e+01  -1.548858e+01
   7.844376e-02  -3.617515e+01
   5.555706e+01  -7.777349e+01
   9.802767e+01  -7.828332e+01
   6.339670e+01  -3.257895e+00
  -2.431537e+01   7.249187e+01
  -3.150463e+01   9.486932e+01
  -4.950180e+01   1.013184e+01
  -4.286730e+00  -5.433122e+01
   2.596917e+01  -3.018749e+01
   5.393640e+01   1.740830e+01
   2.131465e+01   4.027928e+01
  -1.525078e+01   3.590091e+01
  -4.966947e+01  -4.446958e+00
  -1.877317e+01  -1.902404e+01
  -3.079387e+01  -1.195975e+01
   6.254736e+00   1.836285e+01
  -6.520689e+00   1.587599e+01
  -2.271392e+01  -3.203495e+01
   3.964759e+01  -2.810820e+01
   3.082692e+01  -1.155963e+01
   5.074605e+01   4.620149e+01
  -4.260475e+00   5.295002e+01
  -5.378762e+01   3.877356e+01
  -5.084695e+01  -1.112909e+01
  -1.378895e+01  -5.010286e+01
   3.733722e+01  -3.013644e+01
   6.807328e+01   3.946649e+01
   4.220993e+01   3.755385e+01
  -4.378003e+01   2.745006e+01
  -5.792618e+01   7.539911e+00
  -4.415041e+01  -2.822127e+01
   3.906138e+01  -1.735569e+00
   3.792917e+01   2.746683e+01
  -2.391284e+01   4.374885e+01
  -9.802818e+01   2.012711e+01
