
 $NMID
 id='ANONYMOUS ', fmtdat='(2E16.6)'
 volume=1.0
 tramp=1.0
 $END
   4.518821e+03  -2.203515e+01
   2.634403e+03   2.979555e+03
  -9.245558e+02   3.035545e+03
  -2.373954e+03   9.868449e+02
  -1.040379e+03  -8.222775e+02
   8.338597e+02  -6.998210e+02
   1.056121e+03   5.258077e+02
  -5.790333e+01   1.270541e+03
  -9.495953e+02   8.511695e+02
  -1.073529e+03  -1.796012e+02
  -4.849133e+02  -1.007909e+03
   2.995873e+02  -1.046666e+03
   7.568852e+02  -1.177177e+02
   3.918791e+02   7.843413e+02
  -3.639668e+02   8.573791e+02
  -6.918913e+02  -5.412357e+01
  -2.870912e+02  -7.592121e+02
   3.835293e+02  -6.880971e+02
   6.673240e+02  -4.132086e+01
   4.041441e+02   4.223251e+02
   1.348042e+01   4.769543e+02
  -2.568633e+02   2.410990e+02
  -2.102554e+02   1.929428e+01
   1.046076e+02  -1.216793e+02
   4.328623e+02   1.039297e+02
   1.770585e+02   4.629338e+02
  -4.977845e+02   4.926794e+02
  -9.554868e+02  -8.758147e+01
  -4.965307e+02  -6.558392e+02
   4.232178e+02  -5.597575e+02
   8.252310e+02   3.316349e+01
   3.945661e+02   5.585319e+02
  -2.871978e+02   6.020657e+02
  -6.261398e+02   2.526371e+02
  -4.489133e+02  -2.705336e+02
  -8.492275e+01  -5.358141e+02
   2.594060e+02  -2.948948e+02
   2.113171e+02   2.572112e+02
  -1.812104e+02   4.699564e+02
  -4.763572e+02  -9.667338e-01
  -2.809557e+02  -7.523742e+02
   3.731930e+02  -7.539776e+02
   7.004832e+02  -4.312282e+01
   2.892158e+02   6.420479e+02
  -3.595349e+02   4.174615e+02
  -4.415190e+02  -3.389113e+02
   4.313748e+01  -5.969926e+02
   6.121685e+02  -1.943469e+02
   5.964035e+02   4.260546e+02
   1.535488e+02   6.646816e+02
  -4.052917e+02   3.708955e+02
  -6.159203e+02  -1.008923e+02
  -3.696940e+02  -4.392136e+02
   1.986609e+02  -4.208189e+02
   5.002456e+02  -3.290528e+01
   2.065123e+02   2.498417e+02
  -1.394501e+02   1.147937e+02
  -2.013892e+02  -2.034113e+02
   1.773254e+02  -2.233086e+02
   4.334575e+02   6.682995e+01
   1.767719e+02   3.405696e+02
  -2.573686e+02   3.043097e+02
  -3.520926e+02   4.065729e+01
  -1.906730e+02  -1.274556e+02
   6.295963e+01  -2.720627e+02
   2.143907e+02  -3.281714e+02
   3.656120e+02  -1.985816e+02
   2.788480e+02   1.792845e+02
   9.027244e+01   4.637309e+02
  -1.123252e+02   3.983277e+02
  -1.381564e+02   1.221918e+02
  -2.159159e+01  -1.381130e+01
  -1.911016e+01   1.119466e+02
  -2.092924e+02   1.310010e+02
  -3.058512e+02  -4.073299e+01
  -2.232844e+02  -2.864911e+02
   5.714648e+01  -2.922190e+02
   2.372253e+02  -3.347219e+01
   2.349522e+02   2.447396e+02
  -5.246190e+00   3.314445e+02
  -2.779723e+02   1.691852e+02
  -3.726602e+02  -1.873771e+02
  -2.006569e+02  -3.661366e+02
   1.009046e+02  -3.251036e+02
   2.580093e+02  -1.412172e+02
   1.537414e+02   1.556362e+01
   1.028046e+02  -3.177497e+01
   2.203041e+02  -9.245215e+01
   4.203341e+02   2.402577e+01
   3.429611e+02   2.949776e+02
   9.471880e+00   4.471906e+02
  -4.032957e+02   4.302267e+02
  -4.959486e+02   2.296883e+02
  -3.568619e+02  -9.176515e+01
  -1.037560e+02  -2.901773e+02
   1.333648e+02  -2.705341e+02
   9.689732e+01  -5.127692e+01
  -9.798047e+01   1.218991e+02
  -2.042903e+02  -2.636616e+00
  -5.419564e+01  -1.962951e+02
   1.378494e+02  -1.801309e+02
   1.836548e+02   7.892361e+01
  -7.326741e+00   2.039073e+02
  -2.265397e+02   5.587129e+01
  -1.997748e+02  -2.705577e+02
   2.565778e+01  -3.445259e+02
   2.202084e+02  -2.037332e+02
   3.339181e+02   6.662028e+01
   2.592830e+02   2.452313e+02
   1.149981e+02   2.412281e+02
  -1.211132e+02   1.590762e+02
  -1.890705e+02   2.468131e+01
  -6.898844e+01  -2.751581e+01
   7.983398e+01   3.250225e+01
   4.322553e+01   1.413270e+02
  -1.302809e+02   1.014377e+02
  -1.915042e+02  -1.233228e+01
  -8.246742e+01  -6.846636e+01
   8.108615e+01  -2.686277e+01
   3.403345e+01   6.948675e+01
  -1.246773e+02   7.913913e+01
  -2.746026e+02   3.728902e+01
  -2.333422e+02  -1.295737e+02
  -6.497278e+01  -2.691716e+02
   1.638744e+02  -2.727259e+02
   2.645394e+02  -1.295755e+02
   1.642089e+02   6.153942e+01
  -3.843811e+01   1.019620e+02
  -1.003630e+02  -6.185372e-01
   2.942351e+01  -1.552074e+02
   1.825619e+02  -9.285413e+01
   2.405666e+02   7.935182e+01
   8.035536e+01   2.395046e+02
  -9.199485e+01   2.113599e+02
  -1.568524e+02   5.101770e+01
  -7.762167e+01  -6.843588e+01
   3.639010e+01  -2.557787e+01
   3.580555e+01   6.635432e+01
  -5.945523e+01   9.428242e+01
  -2.216866e+02   7.095606e+01
  -1.881651e+02  -1.304101e+02
  -4.450206e+01  -2.414175e+02
   1.560600e+02  -1.958352e+02
   2.106050e+02   6.125859e+00
   8.547862e+01   1.241129e+02
  -8.701576e+01   1.262373e+02
  -1.076845e+02   2.700590e+01
  -1.666447e+01  -3.239868e+01
   3.554361e+01  -2.595361e+01
   1.065503e+00   1.982970e+01
  -5.644739e+01  -5.320088e+01
  -9.127782e+01  -7.142382e+01
  -3.065478e+01  -1.575031e+02
   1.404371e+02  -1.602175e+02
   2.521691e+02  -2.984219e+01
   1.958647e+02   1.638588e+02
   3.112674e+01   2.684839e+02
  -1.106755e+02   1.852450e+02
  -1.456343e+02   3.561063e+01
  -5.860755e+01  -6.075797e+01
  -6.572668e+00  -5.083413e+01
  -6.691126e+01   2.850351e+01
  -7.521532e+01   1.076103e+01
  -3.602967e+01  -6.654546e+01
   4.777522e+01  -1.047521e+02
   1.368253e+02  -5.511286e+01
   1.083603e+02   4.061607e+01
  -2.404740e+01   1.274598e+02
  -1.470191e+02   7.536775e+01
  -2.147761e+02  -2.515850e+01
  -1.422174e+02  -2.407259e+02
   1.034686e+02  -2.572812e+02
   2.634154e+02  -1.291070e+02
   2.676145e+02   8.555170e+01
   1.148333e+02   1.930347e+02
  -3.927038e+01   1.613745e+02
  -9.569258e+01   8.672345e+01
  -1.054009e+02   9.045153e+01
  -4.010399e+01   1.075749e+02
  -8.480217e+01   8.311414e+01
  -1.259896e+02  -2.924939e+01
  -1.364123e+02  -1.455139e+02
  -2.082288e+01  -2.029527e+02
   1.076068e+02  -1.804550e+02
   1.918384e+02  -2.442629e+01
   1.557975e+02   1.212507e+02
   3.495071e+01   1.578569e+02
  -7.275360e+01   8.094130e+01
  -4.863141e+01  -7.227640e+00
   2.912542e+01  -6.970823e+01
   3.309249e+00  -2.252896e+01
  -3.872573e+01  -8.968995e+00
  -1.035948e+02  -2.849007e+01
  -5.078708e+01  -2.498452e+01
   5.294959e+01  -5.284170e+01
   1.568899e+02  -1.227776e+01
   1.220965e+02   4.113487e+01
   1.601422e+01   7.984005e+01
  -1.121666e+02   7.335058e+01
  -1.546667e+02  -2.648938e+00
  -4.857233e+01  -7.839091e+01
   8.158467e+01  -3.558169e+01
   1.231794e+02   3.723054e+01
   1.452585e+01   8.860336e+01
  -4.739941e+01   4.160695e+01
  -9.514514e+01  -2.837542e+01
  -5.461018e+01  -6.010665e+01
  -5.666136e+01  -7.540823e+01
  -6.512936e+01  -1.633040e+01
  -5.417340e+01   2.442815e+01
  -2.676713e+01  -8.072320e+01
   3.710980e+01  -1.396379e+02
   1.003337e+02  -1.584016e+02
   1.706944e+02  -5.201789e+01
   1.369547e+02   8.432662e+01
   1.360619e+01   1.282382e+02
  -8.833952e+01   3.682497e+01
  -8.124759e+01  -1.107763e+01
   6.001083e+01  -2.109199e+01
   1.452229e+02   2.724052e+01
   7.393698e+01   1.227666e+02
  -7.818080e+01   9.798472e+01
  -1.818413e+02   3.722600e+01
  -1.492550e+02  -1.961558e+01
  -4.979485e+01  -9.282825e+01
   3.306712e+01  -9.809650e+01
   4.000824e+01  -1.992934e+01
  -6.447054e+01   4.450877e+01
  -1.111007e+02  -1.349673e+01
  -6.234395e+01  -1.522913e+02
   8.130756e+01  -1.606669e+02
   1.864667e+02  -6.536200e+01
   1.321410e+02   1.248207e+02
   1.405225e+01   1.979785e+02
  -7.589914e+01   1.203144e+02
  -1.126889e+02  -1.426094e+01
  -6.364163e+01  -1.123392e+02
   1.999822e+01  -1.095331e+02
   4.168765e+01   5.819882e+00
   4.473350e+01   4.709290e+01
   2.850663e+01  -2.607314e+00
   1.117948e+01  -3.483393e+01
   7.503091e+00   2.743328e+01
   8.358963e+01   7.946025e+01
   3.843717e+01   1.292314e+02
  -8.283763e+01   4.401223e+01
  -1.609208e+02  -4.800029e+01
  -1.349416e+02  -7.131339e+01
  -2.426851e+01  -3.162238e+01
   1.196938e+02  -1.548065e+01
   6.934015e+01   3.682936e-01
  -1.547178e+01  -1.815867e+00
  -2.079364e+01   3.148104e+01
   6.362617e+00   5.037854e+00
   2.274855e+01   5.207704e+00
   3.339050e+00  -2.366889e+00
  -7.044883e+01   1.573863e+01
  -1.189657e+02  -2.862202e+01
  -2.276185e+01  -9.996028e+01
   9.923923e+01  -1.125783e+02
   2.147606e+02  -7.148165e+01
   1.383578e+02   6.860448e+01
   2.540356e+01   1.594238e+02
  -8.624009e+01   1.332989e+02
  -9.696758e+01   8.001365e+01
  -9.647983e+01   1.019556e+00
  -3.512871e+01  -3.883760e+01
   1.015690e+01   1.311651e-01
  -3.693039e-01   2.225491e+01
  -3.775401e+01  -2.965862e+01
  -2.002451e+01  -9.190128e+01
   3.330784e+01  -8.268559e+01
   7.695729e+01   1.399981e+01
   6.514131e+01   1.364722e+02
  -3.169277e+01   9.834203e+01
  -8.970516e+01   2.500003e+01
  -9.991038e+01  -8.841280e+01
  -2.130918e+01  -1.077024e+02
   5.828448e+01  -5.211926e+01
   9.760530e+01   2.630033e+01
   2.752941e+01   7.376690e+01
  -3.503618e+01   3.715005e+01
  -3.585047e+01   2.088737e+01
   3.785014e+01   7.006850e-01
   4.213486e+01   2.668880e+01
   1.533847e+00   2.899561e+01
  -8.410302e+01   6.008571e+01
  -8.148997e+01   3.251013e+01
  -9.171020e+01   1.403811e+01
  -1.301156e+01  -9.385758e+01
   4.338181e+01  -9.126055e+01
   5.379441e+01   2.390468e+01
   3.340748e+01   6.436181e+01
  -3.823845e+01   4.032042e+01
  -1.507309e+01  -2.408834e+01
  -2.096466e+01  -5.601737e+01
  -1.326206e+01  -2.520609e+01
   1.510804e+01   1.934241e+01
   6.885979e+00   8.716948e+00
   1.005825e+01  -1.537559e+01
  -2.005383e+00  -3.551345e+01
  -1.778086e+01   2.474964e+01
  -1.513920e+01   2.649841e+01
  -1.289647e+01   6.823913e+01
  -3.699054e+01  -1.147372e+01
  -4.748876e+01  -5.651525e+01
   1.918894e+00  -6.908833e+01
   7.567077e+01   2.191479e+01
   4.535472e+01   6.155633e+01
   1.604463e+01   4.737956e+01
  -5.431863e+01   5.733816e+01
  -7.136010e+01  -2.317286e+01
  -6.972163e+01  -5.264540e+01
   3.642663e+01  -4.587024e+01
   5.813695e+01  -1.300493e+01
   1.345441e+01   9.687370e+00
  -4.324633e+01  -3.026221e+01
  -4.002327e+01  -2.957639e+01
   5.079923e+01  -2.452432e+01
   9.354129e+01  -2.708942e+01
