
 $NMID
 id='ANONYMOUS ', fmtdat='(2E16.6)'
 volume=1.0
 tramp=1.0
 $END
   4.632678e+03   2.940664e+01
   2.500518e+03   2.907781e+03
  -8.474802e+02   2.959319e+03
  -2.345932e+03   8.715561e+02
  -9.876547e+02  -8.526518e+02
   8.257777e+02  -6.937830e+02
   1.028707e+03   5.083562e+02
  -1.305153e+01   1.202979e+03
  -9.284785e+02   8.189820e+02
  -1.037976e+03  -1.920254e+02
  -4.768156e+02  -9.560535e+02
   3.216253e+02  -9.911507e+02
   7.335023e+02  -8.922596e+01
   4.195673e+02   8.089865e+02
  -3.207312e+02   8.239017e+02
  -6.593643e+02  -7.660110e+00
  -2.610845e+02  -7.526440e+02
   3.966204e+02  -6.437276e+02
   6.043684e+02  -1.708166e+01
   4.015295e+02   4.251187e+02
   8.759683e+00   4.735360e+02
  -3.118174e+02   2.521663e+02
  -2.569839e+02  -1.197086e+01
   8.604364e+01  -1.289921e+02
   4.613930e+02   9.113546e+01
   2.517699e+02   4.645230e+02
  -4.558629e+02   4.874288e+02
  -9.244621e+02  -1.034771e+02
  -4.579760e+02  -6.172196e+02
   4.215262e+02  -5.471181e+02
   8.149161e+02   4.028966e+01
   4.210502e+02   5.326363e+02
  -2.857132e+02   5.988174e+02
  -5.930477e+02   2.174987e+02
  -4.335342e+02  -2.237216e+02
  -6.110315e+01  -5.106424e+02
   2.954079e+02  -2.921441e+02
   2.112262e+02   2.806990e+02
  -1.484338e+02   4.734009e+02
  -5.154191e+02  -1.429675e+01
  -3.152703e+02  -7.468583e+02
   3.779613e+02  -7.738875e+02
   6.847072e+02  -4.247751e+01
   2.882774e+02   6.426933e+02
  -3.783221e+02   3.723406e+02
  -4.698237e+02  -3.607232e+02
   3.716054e+01  -5.804576e+02
   6.026764e+02  -1.950417e+02
   6.127270e+02   4.458612e+02
   1.170494e+02   5.966015e+02
  -4.346309e+02   3.732149e+02
  -6.201249e+02  -1.179464e+02
  -3.466510e+02  -4.403019e+02
   1.961976e+02  -3.764552e+02
   4.804199e+02  -2.848538e+01
   2.528507e+02   2.745572e+02
  -1.676016e+02   1.220421e+02
  -2.091868e+02  -2.266653e+02
   2.006125e+02  -2.471412e+02
   3.995537e+02   9.530603e+01
   1.497133e+02   3.851173e+02
  -2.165409e+02   2.987819e+02
  -3.187856e+02   8.389147e+01
  -1.918234e+02  -1.407127e+02
   2.887100e+01  -2.281335e+02
   1.945463e+02  -2.929472e+02
   3.398523e+02  -2.202399e+02
   2.846899e+02   1.438363e+02
   7.533166e+01   4.481654e+02
  -1.507535e+02   3.585011e+02
  -1.547203e+02   1.056233e+02
   1.043043e+00  -5.097740e+01
  -2.181325e+01   6.647808e+01
  -1.890032e+02   1.543998e+02
  -3.042526e+02  -4.324697e+01
  -2.152081e+02  -2.732381e+02
   6.597670e+01  -2.848550e+02
   2.364635e+02  -3.537262e+01
   2.047899e+02   2.369707e+02
  -9.843351e+00   3.272467e+02
  -3.006035e+02   1.359022e+02
  -3.985561e+02  -1.352515e+02
  -1.866204e+02  -3.588695e+02
   1.170042e+02  -3.217654e+02
   2.741149e+02  -1.150005e+02
   1.619463e+02   2.604217e+01
   8.371603e+01  -3.081782e+01
   2.063450e+02  -8.236597e+01
   4.182570e+02   5.096083e+01
   3.345018e+02   2.715551e+02
  -1.057461e+01   4.621676e+02
  -3.827556e+02   4.293277e+02
  -5.252323e+02   2.003350e+02
  -3.399633e+02  -1.169301e+02
  -6.115592e+01  -3.023354e+02
   1.476586e+02  -2.561838e+02
   1.016514e+02  -3.102997e+01
  -9.595125e+01   1.112458e+02
  -2.034022e+02   1.444104e+01
  -6.665383e+01  -2.143270e+02
   1.552251e+02  -1.912748e+02
   2.150121e+02   6.763949e+01
   3.257572e+00   2.321784e+02
  -2.251145e+02   3.049586e+01
  -2.128617e+02  -2.439563e+02
   4.466628e+01  -3.871776e+02
   2.459052e+02  -1.784441e+02
   3.187385e+02   7.880293e+01
   2.673500e+02   2.469675e+02
   9.873037e+01   2.831005e+02
  -1.025684e+02   1.640863e+02
  -2.038146e+02   4.630973e+01
  -5.686456e+01  -3.771010e+01
   5.899162e+01   2.828460e+01
   3.235779e+01   1.318469e+02
  -1.221669e+02   1.461841e+02
  -1.990565e+02  -3.762925e+00
  -7.197039e+01  -9.016309e+01
   5.643338e+01  -1.823542e+01
   4.930887e+01   5.029948e+01
  -1.032689e+02   9.676016e+01
  -2.787128e+02   2.770768e+01
  -2.385069e+02  -1.398210e+02
  -7.489331e+01  -2.825660e+02
   2.066806e+02  -2.595399e+02
   3.010961e+02  -1.395520e+02
   1.677271e+02   5.814385e+01
  -4.360590e+01   1.125074e+02
  -9.640255e+01   5.865908e+00
   3.331482e+01  -1.153836e+02
   1.862003e+02  -5.793338e+01
   2.281508e+02   7.287950e+01
   8.083391e+01   2.136406e+02
  -1.232043e+02   1.860300e+02
  -1.731201e+02   1.580807e+01
  -8.304606e+01  -2.944117e+01
   2.822775e+01  -2.699533e+01
   6.515399e+01   9.361939e+01
  -6.519775e+01   1.368187e+02
  -1.805305e+02   2.989073e+01
  -1.983506e+02  -9.048800e+01
   4.225591e+00  -2.250289e+02
   1.649505e+02  -1.526199e+02
   1.676651e+02  -6.575981e+00
   4.488538e+01   1.139556e+02
  -8.141555e+01   1.139657e+02
  -8.845603e+01   1.374520e+01
   8.226092e+00  -3.558438e+01
   3.540245e+01  -2.723608e+00
  -1.954570e+01   4.608562e+00
  -5.382786e+01  -1.303123e+01
  -8.397667e+01  -6.137365e+01
  -3.461138e+01  -1.560688e+02
   1.493379e+02  -1.757707e+02
   2.501494e+02  -2.800390e+01
   1.973147e+02   1.371284e+02
   2.320371e+01   2.543822e+02
  -9.636334e+01   1.622412e+02
  -1.256820e+02   4.651519e+01
  -8.214388e+01  -6.740665e+01
   2.465203e+00  -2.354749e+01
  -7.256269e+01   2.490459e+01
  -9.600030e+01   7.523376e+00
  -2.987725e+01  -5.695131e+01
   4.215328e+01  -9.101128e+01
   8.203102e+01  -6.954587e+01
   8.431598e+01   2.831047e+01
  -1.828486e+01   1.216233e+02
  -1.244634e+02   8.916282e+01
  -2.066380e+02  -4.345125e+01
  -1.113965e+02  -2.027281e+02
   7.815785e+01  -2.345639e+02
   2.709448e+02  -1.135244e+02
   2.676813e+02   7.668488e+01
   1.429656e+02   1.716795e+02
  -4.721109e+01   1.477996e+02
  -1.028655e+02   9.472472e+01
  -4.619555e+01   5.876826e+01
  -4.095476e+01   5.544837e+01
  -7.867950e+01   9.332410e+01
  -1.392946e+02  -1.725931e+01
  -1.166629e+02  -1.394995e+02
  -3.100558e+01  -2.473227e+02
   8.351048e+01  -1.725483e+02
   1.741150e+02  -2.464740e+01
   1.527133e+02   1.133917e+02
   1.164266e+01   1.684836e+02
  -4.707311e+01   1.042327e+02
  -5.274483e+01  -3.664753e-01
  -2.407393e+01  -4.186296e+01
  -1.736452e+01  -1.252931e+01
  -2.922093e+01  -8.239855e+00
  -1.089285e+02  -3.435654e+01
  -5.483790e+01  -3.849705e+01
   4.135279e+01  -2.404462e+01
   1.538682e+02  -2.593352e+01
   1.079923e+02   2.493814e+01
   8.463032e+00   9.659154e+01
  -1.148320e+02   7.996092e+01
  -1.629008e+02   2.801922e+01
  -4.367296e+01  -4.738621e+01
   7.347621e+01  -2.907372e+01
   9.207603e+01   2.243054e+01
  -1.693763e+00   6.580541e+01
  -7.741373e+01   5.976351e+01
  -7.342594e+01  -1.817593e+01
  -5.526183e+01  -5.664769e+01
  -3.530337e+01  -6.219999e+01
  -4.480261e+01  -2.784018e+00
  -9.309796e+01  -3.121944e+00
  -5.538688e+01  -7.066354e+01
   6.337793e+01  -1.452597e+02
   9.901170e+01  -1.387751e+02
   1.652536e+02  -4.198720e+01
   1.356500e+02   9.436098e+01
   3.845268e+00   1.398542e+02
  -7.236779e+01   2.263078e+01
  -4.214378e+01  -4.889051e+01
   6.671409e+01  -1.595809e+01
   1.354185e+02   5.006844e+01
   9.440270e+01   1.102054e+02
  -6.264659e+01   1.137062e+02
  -1.850449e+02   5.716360e+01
  -1.652372e+02  -4.523360e+01
  -4.463818e+01  -9.862659e+01
   5.680692e+01  -6.361592e+01
   3.770239e+01  -1.488282e+01
  -3.128844e+01   2.925270e+01
  -8.126263e+01  -2.821865e+01
  -5.044257e+01  -9.949257e+01
   9.619444e+01  -1.437226e+02
   1.871022e+02  -4.458997e+01
   1.596966e+02   1.135069e+02
   2.405699e+00   1.944418e+02
  -8.625212e+01   1.248749e+02
  -9.260211e+01  -2.584506e+01
  -8.718214e+01  -1.100540e+02
   2.443284e+01  -1.062831e+02
   4.663723e+01   1.534714e+01
   3.897962e+01   3.036580e+01
   3.247626e+01  -1.210985e+01
  -2.389513e+01  -1.103899e+01
   1.091949e+01   2.226962e+01
   4.589775e+01   7.565630e+01
   4.591718e+01   1.240930e+02
  -3.794577e+01   6.037389e+01
  -1.688006e+02  -4.564729e+01
  -9.844835e+01  -4.912937e+01
  -2.044773e+01  -4.395125e+01
   7.093548e+01  -2.512930e+01
   8.488666e+01  -1.417755e+01
   2.663729e+01   1.213005e+01
  -2.899314e+01   1.679670e+01
   1.183537e+01  -3.483258e+00
   3.664074e+01  -1.176355e+01
   8.672863e-01  -1.444240e+01
  -7.220745e+01  -1.405806e+01
  -7.206666e+01  -2.904161e+01
  -4.120632e+01  -6.468802e+01
   1.160015e+02  -1.278593e+02
   1.932224e+02  -9.108480e+01
   1.472601e+02   6.526522e+01
   2.365852e+01   1.778075e+02
  -9.612316e+01   1.373131e+02
  -1.142567e+02   6.263308e+01
  -5.920456e+01  -2.010338e+01
  -2.816707e+01  -5.012716e+01
   3.135679e+01  -1.170419e+00
   7.031948e-01   1.495739e+01
  -2.818686e+00  -2.023092e+01
  -1.874166e+01  -1.043597e+02
   3.150369e+01  -7.228732e+01
   7.277696e+01   2.072539e+01
   7.591941e+01   6.828125e+01
  -3.309340e+01   1.078578e+02
  -9.097961e+01   1.442761e+01
  -1.148015e+02  -4.922330e+01
  -3.576296e+01  -9.047961e+01
   6.371718e+01  -4.673852e+01
   6.871960e+01   2.277805e+01
   5.134228e+01   6.134879e+01
  -2.025633e+01   7.401278e+01
  -2.114137e+01   2.742449e+01
   3.704670e+01   2.316167e+00
   5.498176e+01  -3.582123e+01
   1.893470e+01  -1.963646e+01
  -8.783433e+01   4.663884e+01
  -1.114988e+02   2.554461e+01
  -1.082645e+02  -8.030766e+00
   1.170848e+01  -8.011765e+01
   4.272140e+01  -7.478909e+01
   4.390535e+01   7.771372e+00
   3.540942e+01   4.629761e+01
  -1.037107e+01   3.172917e+01
  -6.730160e+01  -1.474089e+01
   2.051416e+00  -5.169422e+01
   2.283004e+00  -2.760165e+01
   3.367526e+01   2.534165e+01
   3.460308e+01  -8.946546e+00
   2.887435e+01   1.566633e+01
  -1.067391e+01  -3.833671e+01
  -2.372660e+01   2.308307e+01
  -2.346220e+01   2.595699e+01
  -1.037482e+01   6.023572e+01
  -2.636081e+01   1.318739e+01
  -1.840000e+01  -3.183208e+01
   8.412690e+00  -4.626096e+01
   4.980064e+01  -2.134683e+01
   2.297135e+01   1.896584e+01
   3.100374e+01   5.387387e+01
  -3.671042e+01   2.572359e+01
  -1.163910e+02  -1.625667e+01
  -5.180981e+01  -6.146940e+01
   5.472222e+01  -3.443429e+01
   7.280513e+01  -3.752285e+01
   3.147749e+01   1.942972e+01
  -6.115234e+01   5.078384e+00
  -2.368420e+01  -3.646127e+01
   5.496888e+01  -4.315510e+01
   9.203995e+01  -3.281292e+01
