
 $NMID
 id='ANONYMOUS ', fmtdat='(2E16.6)'
 volume=1.0
 tramp=1.0
 $END
   4.451001e+03   7.180172e-01
   2.481773e+03   2.830169e+03
  -7.616371e+02   2.904651e+03
  -2.311106e+03   9.544518e+02
  -9.055182e+02  -8.938884e+02
   8.075453e+02  -6.371538e+02
   9.701035e+02   5.219258e+02
  -1.514686e+01   1.168125e+03
  -9.140376e+02   7.800620e+02
  -9.660928e+02  -1.728221e+02
  -4.326561e+02  -9.475111e+02
   3.050228e+02  -9.025967e+02
   7.276363e+02  -8.444391e+01
   3.765933e+02   7.890087e+02
  -3.115133e+02   7.893081e+02
  -6.582761e+02  -7.603392e+01
  -2.099705e+02  -7.279825e+02
   3.605284e+02  -6.474952e+02
   6.251611e+02  -1.237819e+01
   3.504449e+02   4.097273e+02
   7.689260e+00   4.717747e+02
  -2.958114e+02   2.599339e+02
  -2.650900e+02   1.019110e+01
   1.351412e+02  -1.400519e+02
   4.181582e+02   6.589822e+01
   2.426419e+02   4.775508e+02
  -4.663943e+02   4.501039e+02
  -8.973092e+02  -6.052241e+01
  -4.357543e+02  -5.689004e+02
   4.102238e+02  -5.487898e+02
   7.594883e+02   5.342391e+01
   3.931418e+02   5.197030e+02
  -2.793796e+02   5.497063e+02
  -5.341601e+02   2.387246e+02
  -4.128367e+02  -2.369013e+02
  -4.958200e+01  -4.926665e+02
   2.447528e+02  -2.914408e+02
   2.080527e+02   2.750503e+02
  -1.999695e+02   4.780688e+02
  -4.969552e+02  -2.075823e+01
  -2.499228e+02  -7.027960e+02
   3.520441e+02  -7.161890e+02
   6.548749e+02   1.939069e+01
   2.661513e+02   5.958666e+02
  -3.319905e+02   3.539943e+02
  -4.583823e+02  -3.054709e+02
   6.372075e+01  -5.693400e+02
   5.688062e+02  -1.817163e+02
   6.181512e+02   4.098116e+02
   1.561024e+02   5.959151e+02
  -3.722733e+02   3.528050e+02
  -6.273030e+02  -9.189907e+01
  -3.674574e+02  -4.242215e+02
   1.888463e+02  -4.109594e+02
   4.656936e+02  -3.838756e+01
   2.483090e+02   2.567193e+02
  -1.280889e+02   1.666038e+02
  -1.947802e+02  -1.843923e+02
   1.708672e+02  -2.312427e+02
   3.978908e+02   8.614579e+01
   1.432853e+02   3.093850e+02
  -1.986587e+02   2.612984e+02
  -3.189501e+02   3.244077e+01
  -1.707371e+02  -9.541533e+01
   3.117776e+01  -1.868394e+02
   1.816667e+02  -3.316772e+02
   3.360404e+02  -2.318258e+02
   3.061496e+02   1.364851e+02
   1.021787e+02   4.328989e+02
  -1.390763e+02   3.842275e+02
  -1.656322e+02   9.130372e+01
   3.029439e+01  -4.863567e+01
  -2.258451e+01   6.981282e+01
  -1.771731e+02   1.612997e+02
  -2.434428e+02  -2.111430e+01
  -1.971749e+02  -2.827167e+02
   5.785197e+01  -2.728980e+02
   2.324666e+02  -4.305672e+01
   1.973056e+02   2.388416e+02
  -2.348650e+01   3.034741e+02
  -2.612166e+02   1.382296e+02
  -3.369148e+02  -1.785677e+02
  -1.980151e+02  -3.676175e+02
   1.221802e+02  -3.090764e+02
   2.517387e+02  -1.139654e+02
   1.628415e+02   9.789825e+00
   7.702894e+01  -3.606988e+01
   1.939129e+02  -9.127358e+01
   3.827222e+02   2.391990e+01
   3.158015e+02   2.560479e+02
   1.746188e+01   4.648687e+02
  -3.776470e+02   4.009735e+02
  -4.911877e+02   1.955439e+02
  -3.287307e+02  -1.112944e+02
  -3.941495e+01  -2.871196e+02
   1.611165e+02  -2.660526e+02
   1.199148e+02  -3.709527e+00
  -8.030568e+01   1.593259e+02
  -2.213411e+02   8.327198e+00
  -7.156343e+01  -2.222244e+02
   1.653641e+02  -1.654385e+02
   1.855779e+02   4.997151e+01
  -4.693044e+00   2.260941e+02
  -2.269936e+02   3.445077e+01
  -1.566842e+02  -2.493014e+02
   2.845568e+01  -3.283482e+02
   2.489730e+02  -1.730831e+02
   3.184373e+02   8.003811e+01
   2.624638e+02   2.411832e+02
   5.665752e+01   2.388294e+02
  -1.370515e+02   1.309580e+02
  -1.525642e+02   4.910799e+01
  -1.877851e+01  -2.815487e+01
   7.735156e+01   1.910125e+01
   5.213765e+01   1.452737e+02
  -1.448058e+02   1.423717e+02
  -1.665100e+02  -3.292219e+00
  -6.106231e+01  -7.480619e+01
   8.625865e+01  -4.099851e+01
   6.365614e+01   5.660713e+01
  -1.037476e+02   9.456778e+01
  -2.798992e+02   3.842008e-01
  -2.635240e+02  -1.266463e+02
  -5.946298e+01  -2.357847e+02
   1.570980e+02  -2.547152e+02
   3.020294e+02  -1.396994e+02
   1.711706e+02   6.872789e+01
  -1.741180e+01   1.266256e+02
  -1.123516e+02   1.243522e+01
   2.448574e+01  -1.045089e+02
   1.939477e+02  -5.783171e+01
   2.102579e+02   9.268082e+01
   4.190226e+01   1.989349e+02
  -8.845372e+01   1.414004e+02
  -1.387285e+02   1.244784e+01
  -6.380915e+01  -4.330436e+01
   2.651104e+01  -2.789042e+01
   1.217259e+01   5.974590e+01
  -5.526516e+01   1.162729e+02
  -1.881773e+02   1.631636e+01
  -1.900487e+02  -1.068280e+02
  -3.316099e+01  -2.149576e+02
   1.732421e+02  -1.458077e+02
   1.910455e+02   9.667443e+00
   5.392327e+01   9.788349e+01
  -1.007876e+02   1.034300e+02
  -8.783044e+01   4.224462e+01
  -1.535486e+01  -4.202296e+01
   8.967634e+00  -1.419247e+01
  -3.326402e+01   1.926671e+00
  -5.220317e+01  -1.301202e+01
  -6.187493e+01  -6.605620e+01
  -1.564903e+01  -1.503100e+02
   1.046086e+02  -1.323331e+02
   2.405135e+02  -2.545252e+01
   2.011741e+02   1.406242e+02
   3.533181e+01   2.293019e+02
  -1.049187e+02   1.643170e+02
  -1.351014e+02   3.871612e+01
  -6.637282e+01  -7.785185e+01
  -2.044175e+01  -8.793482e+00
  -5.655548e+01  -5.621486e+00
  -5.891094e+01  -6.137961e+00
  -1.810871e+01  -5.393726e+01
   4.651274e+01  -6.088714e+01
   7.540635e+01  -3.374240e+01
   7.983347e+01   3.486372e+00
  -1.172859e+01   1.002148e+02
  -1.170124e+02   1.113139e+02
  -1.868470e+02  -4.231367e+01
  -1.120211e+02  -1.994192e+02
   5.630469e+01  -2.240564e+02
   2.696186e+02  -1.078271e+02
   2.425540e+02   4.452310e+01
   1.282750e+02   1.553626e+02
  -2.435252e+01   1.227890e+02
  -8.680938e+01   9.478903e+01
  -9.000714e+01   6.225472e+01
  -6.858623e+01   8.959240e+01
  -1.102805e+02   8.651160e+01
  -1.058274e+02  -3.157320e+01
  -1.228182e+02  -1.589999e+02
  -4.457130e+01  -2.063335e+02
   1.035806e+02  -1.682271e+02
   1.773718e+02   4.950324e-01
   1.321862e+02   1.036871e+02
   2.854957e+01   1.614280e+02
  -7.468756e+01   1.147678e+02
  -4.532135e+01  -1.019796e+01
   1.207636e+01  -3.705828e+01
   1.551164e+01  -4.392400e+01
  -5.304180e+01  -2.624308e+01
  -7.687223e+01  -2.815705e+01
  -3.538714e+01  -4.490975e+01
   5.608206e+01  -4.146192e+01
   1.426938e+02  -9.367962e+00
   1.452629e+02   5.694885e+01
   4.285530e+01   9.564846e+01
  -1.109250e+02   8.057014e+01
  -1.082976e+02   1.820031e+01
  -6.716495e+01  -4.622141e+01
   6.236558e+01  -3.654951e+01
   8.809106e+01   1.848340e+01
   4.478979e+01   6.640443e+01
  -5.554959e+01   8.391627e+01
  -6.433890e+01   3.378574e+01
  -4.318762e+01  -5.053660e+01
  -5.984458e+01  -3.779363e+01
  -4.979601e+01  -1.576517e+01
  -1.063364e+02  -1.991536e+01
  -4.018672e+01  -4.624780e+01
   3.553775e+01  -1.592933e+02
   1.011813e+02  -1.475193e+02
   1.388799e+02  -1.312263e+01
   1.135707e+02   6.796847e+01
  -5.360933e+00   1.111440e+02
  -8.772386e+01   2.626089e+01
  -5.183589e+01  -2.688857e+01
   4.464630e+01  -3.329398e+01
   1.596616e+02   2.665296e+01
   8.064793e+01   1.232455e+02
  -6.044071e+01   1.105022e+02
  -1.663913e+02   4.323927e+01
  -1.541701e+02  -5.921000e+01
  -6.401306e+01  -9.252739e+01
   6.973057e+01  -4.459723e+01
   6.175606e+01  -1.302152e+01
  -2.976107e+01   3.056254e+01
  -7.374848e+01  -1.866898e+01
  -1.122597e+01  -9.676305e+01
   9.348484e+01  -1.691369e+02
   1.647504e+02  -5.751007e+01
   1.327221e+02   1.101194e+02
  -9.305659e+00   1.874970e+02
  -8.334765e+01   1.620528e+02
  -9.944925e+01  -2.354419e+01
  -4.628178e+01  -1.133901e+02
   2.657801e+00  -1.006277e+02
   5.615924e+01   2.837992e+00
   2.341448e+01   2.945046e+01
   4.302792e+01   1.746213e+00
   1.317831e+01   5.214456e+00
   3.961640e+01   2.351639e+01
   5.062516e+01   9.243760e+01
   2.957552e+01   1.222195e+02
  -4.590667e+01   5.085271e+01
  -1.479481e+02  -6.225467e+01
  -1.130947e+02  -6.012347e+01
  -1.395673e+01  -3.744996e+01
   8.500802e+01  -2.533698e+01
   8.315010e+01  -2.718941e+01
   4.037230e+01   4.746336e+00
  -2.632157e+01   2.061764e+01
  -3.698607e+00   2.025232e+01
  -1.694036e+00   4.954114e+00
   5.964518e+00  -8.415339e+00
  -7.357548e+01  -1.174575e+01
  -1.179856e+02  -1.053769e+01
  -2.397722e+01  -7.518907e+01
   1.043773e+02  -1.194906e+02
   1.638015e+02  -6.581113e+01
   1.254079e+02   7.659472e+01
  -6.719405e+00   1.657920e+02
  -1.060109e+02   1.157038e+02
  -9.055188e+01   1.300408e+01
  -6.825435e+01  -1.592219e+01
  -2.905097e+01  -8.629314e+00
  -2.038230e+01  -3.460242e+01
  -4.064436e+01  -1.173779e+01
  -2.576548e+01  -3.777728e+01
  -2.612546e+01  -9.474760e+01
   2.144784e+01  -7.758564e+01
   9.258356e+01   6.667055e+00
   7.331706e+01   9.285748e+01
  -1.147608e+01   1.130711e+02
  -9.620003e+01   1.597222e+01
  -9.899231e+01  -4.947390e+01
  -1.346719e+01  -8.871623e+01
   8.117923e+01  -3.821830e+01
   1.090410e+02  -2.797041e+00
   3.287631e+01   3.231140e+01
  -5.207724e+00   9.317751e+01
  -2.391257e+01   1.824902e+01
   2.700013e+01  -2.401050e+00
   8.337451e+01  -2.402780e+01
   1.213073e+01   2.401789e+01
  -7.033258e+01   7.368500e+01
  -1.455545e+02   7.013054e+01
  -6.449575e+01  -7.704957e+00
  -6.566836e+00  -1.033838e+02
   5.437443e+01  -6.402908e+01
   6.864501e+01   1.597007e+01
   2.059858e+01   4.357266e+01
  -2.783445e+01   4.456961e+01
  -2.643314e+01  -1.636307e+01
   1.184541e+01  -4.761749e+01
  -1.827642e+01  -2.331390e+01
   1.590051e+01   5.001201e+01
   2.867508e+01   3.002994e+01
  -9.795891e-01   1.894255e+01
   5.258836e+00   1.896173e-02
   5.477085e+00   2.273395e+01
  -1.427821e+01   1.988253e+01
  -3.822482e+01   4.710742e+01
  -2.041126e+01   4.033010e+00
  -1.596313e+01  -5.426225e+01
  -5.128057e+00  -5.927512e+01
   3.175265e+01  -4.690783e+00
   6.333982e+01   8.956283e+00
   2.464395e+01   6.468351e+01
  -3.256216e+01   1.487555e+01
  -8.465949e+01  -7.766806e+00
  -6.080739e+01  -3.795634e+01
   5.701285e+01  -6.396420e+01
   7.356966e+01  -2.796421e+01
   5.256486e+01   7.054045e+00
  -3.343247e+01   3.836500e+00
  -4.370786e+01  -2.818927e+00
   4.719065e+01  -3.214358e+01
   8.861057e+01  -1.101530e+01
