
 $NMID
 id='ANONYMOUS ', fmtdat='(2E16.6)'
 volume=1.0
 tramp=1.0
 $END
  -4.454001e+03  -1.020353e+02
  -2.475429e+03  -2.720962e+03
   6.801821e+02  -2.881345e+03
   2.250641e+03  -9.396501e+02
   9.231935e+02   7.873293e+02
  -7.270548e+02   6.258266e+02
  -9.592031e+02  -5.055933e+02
  -2.391534e+00  -1.143983e+03
   9.093381e+02  -7.877931e+02
   9.676381e+02   1.733643e+02
   4.453594e+02   9.507747e+02
  -3.248683e+02   9.057302e+02
  -6.927753e+02   1.083513e+02
  -3.684921e+02  -7.150238e+02
   3.022108e+02  -7.977835e+02
   6.542749e+02   6.706792e+01
   2.516135e+02   7.126429e+02
  -3.836079e+02   6.234877e+02
  -6.517304e+02   2.139273e+01
  -3.652824e+02  -4.033842e+02
   2.509224e+00  -4.636634e+02
   3.087150e+02  -2.481268e+02
   2.648165e+02   1.397265e+00
  -9.791626e+01   1.270038e+02
  -4.099930e+02  -9.267793e+01
  -2.220077e+02  -4.526566e+02
   4.635626e+02  -4.476509e+02
   8.656127e+02   7.404297e+01
   4.629654e+02   5.918495e+02
  -3.813427e+02   4.963047e+02
  -7.553504e+02  -4.585811e+01
  -3.839278e+02  -4.985624e+02
   2.638386e+02  -5.449937e+02
   5.629303e+02  -2.450027e+02
   4.368845e+02   2.420436e+02
   5.369166e+01   5.053472e+02
  -2.299618e+02   2.937675e+02
  -2.119663e+02  -2.315887e+02
   1.805277e+02  -4.618286e+02
   4.531185e+02   2.821152e+01
   2.761971e+02   6.799588e+02
  -3.322379e+02   7.709505e+02
  -6.259879e+02   4.356519e+01
  -2.943991e+02  -5.653884e+02
   3.040460e+02  -3.287400e+02
   4.235876e+02   3.057008e+02
  -4.400198e+01   5.765959e+02
  -5.318563e+02   1.329253e+02
  -5.800398e+02  -3.877472e+02
  -1.521068e+02  -6.116803e+02
   3.356255e+02  -3.463570e+02
   5.704625e+02   6.058362e+01
   3.558410e+02   3.888009e+02
  -1.583316e+02   3.874509e+02
  -4.627805e+02   3.072392e+01
  -2.383752e+02  -2.311129e+02
   1.497155e+02  -1.348459e+02
   1.713480e+02   1.446544e+02
  -1.385840e+02   1.901939e+02
  -3.640992e+02  -3.854431e+01
  -1.565008e+02  -3.308197e+02
   1.906407e+02  -2.593293e+02
   3.098186e+02  -5.761170e+01
   1.683856e+02   7.073224e+01
  -8.034052e+00   2.177428e+02
  -1.859580e+02   3.174140e+02
  -3.204363e+02   2.189152e+02
  -3.107623e+02  -1.439144e+02
  -8.011902e+01  -4.408919e+02
   1.197264e+02  -3.756563e+02
   1.750604e+02  -1.072852e+02
   2.632261e+01   5.418680e+01
   1.858527e+01  -8.827825e+01
   1.828567e+02  -1.518216e+02
   2.677664e+02   3.845017e+01
   1.799646e+02   2.707114e+02
  -7.402752e+01   2.760978e+02
  -2.392103e+02   4.206638e+00
  -2.012914e+02  -2.327471e+02
   1.369973e+01  -2.839812e+02
   2.906700e+02  -1.115113e+02
   3.795837e+02   1.715344e+02
   1.545266e+02   3.379351e+02
  -1.205126e+02   3.054308e+02
  -2.476306e+02   6.774412e+01
  -1.514710e+02  -4.918697e+00
  -6.824460e+01   3.100828e+01
  -2.070651e+02   6.342659e+01
  -4.081460e+02  -3.763460e+01
  -3.194355e+02  -2.672568e+02
   1.127911e+01  -4.186798e+02
   3.435069e+02  -3.922631e+02
   5.029541e+02  -1.850201e+02
   3.339061e+02   1.167799e+02
   5.080923e+01   3.247732e+02
  -1.411219e+02   2.361356e+02
  -9.993975e+01   2.677505e+01
   8.580706e+01  -1.147190e+02
   2.358525e+02   8.150495e+00
   5.525514e+01   2.069167e+02
  -1.829115e+02   2.005731e+02
  -1.810852e+02  -9.918588e+01
  -1.328572e+00  -2.101690e+02
   1.825066e+02  -3.327455e+01
   1.839677e+02   2.634379e+02
  -3.235211e+01   3.454140e+02
  -2.284636e+02   2.088313e+02
  -2.972565e+02  -9.079976e+01
  -2.643910e+02  -2.410248e+02
  -7.096392e+01  -2.491829e+02
   1.336687e+02  -1.488774e+02
   1.623650e+02   3.679505e+00
   5.383630e+01   2.930885e+01
  -9.173714e+01  -3.575911e+01
  -1.844613e+01  -1.364258e+02
   1.179080e+02  -1.212487e+02
   1.758534e+02  -1.907340e+00
   8.659710e+01   9.087718e+01
  -9.167899e+01   3.152889e+01
  -5.697062e+01  -5.577681e+01
   1.105422e+02  -1.074813e+02
   2.811115e+02   7.052259e+00
   2.668030e+02   9.969021e+01
   6.494038e+01   2.590965e+02
  -1.706482e+02   2.702290e+02
  -2.882271e+02   1.330454e+02
  -1.613548e+02  -5.717640e+01
   2.356849e+01  -1.317146e+02
   8.191363e+01  -4.525871e+01
  -2.771619e+01   1.068613e+02
  -1.994472e+02   3.767542e+01
  -2.176860e+02  -1.024131e+02
  -2.435871e+01  -1.999744e+02
   1.234549e+02  -1.500153e+02
   1.627978e+02  -2.323626e+01
   9.148595e+01   4.021359e+01
  -2.878007e+01   2.550849e+01
  -5.898734e+01  -6.883645e+01
   5.569090e+01  -9.430687e+01
   1.872014e+02  -2.933482e+01
   1.862434e+02   1.132375e+02
   5.610150e+01   2.058580e+02
  -1.545148e+02   1.690755e+02
  -1.944113e+02   4.991482e+00
  -6.297513e+01  -1.110524e+02
   5.147357e+01  -1.140765e+02
   7.732191e+01  -3.068660e+01
   3.039953e+01   2.804218e+01
  -5.104751e-02   2.890815e+00
   1.605861e+01  -9.462336e+00
   3.131877e+01   1.471497e+01
   7.450157e+01   6.402843e+01
   2.545491e+01   1.410063e+02
  -9.457513e+01   1.405479e+02
  -2.333216e+02   7.322316e+00
  -1.804534e+02  -1.343845e+02
  -4.510070e+01  -2.344471e+02
   1.174278e+02  -1.679507e+02
   1.451510e+02  -2.871978e+01
   8.239630e+01   6.603794e+01
   3.247241e+01   5.397975e+01
   3.295647e+01  -3.548962e+01
   5.404577e+01  -1.244825e+01
   1.498325e+01   3.057120e+01
  -4.698557e+01   7.477202e+01
  -9.726433e+01   6.104377e+01
  -5.939050e+01  -2.564261e+01
   1.801707e+01  -9.802108e+01
   1.283736e+02  -6.680098e+01
   1.853215e+02   4.093776e+01
   1.346090e+02   1.851366e+02
  -1.006498e+02   2.178311e+02
  -2.561744e+02   8.097429e+01
  -2.630231e+02  -4.284734e+01
  -1.107330e+02  -1.853225e+02
   2.875961e+01  -1.512387e+02
   8.600247e+01  -9.918458e+01
   7.778953e+01  -5.343305e+01
   5.892837e+01  -7.548601e+01
   1.022957e+02  -5.722623e+01
   1.151775e+02   1.579442e+01
   1.352090e+02   1.240866e+02
   3.421468e+01   2.152331e+02
  -9.568795e+01   1.597509e+02
  -1.623320e+02   5.469055e+01
  -1.410466e+02  -1.157909e+02
  -9.531661e+00  -1.619903e+02
   6.024989e+01  -1.073924e+02
   4.861438e+01   1.331528e+01
   7.500374e+00   4.362107e+01
  -1.098687e+01   5.680104e+01
   5.073877e+01  -1.212081e+01
   5.209200e+01   1.137079e+01
   6.882714e+01   5.173959e+01
  -5.031850e+01   3.081630e+01
  -1.639192e+02  -1.765546e+00
  -1.459964e+02  -4.547426e+01
  -1.210087e+01  -8.138289e+01
   1.374992e+02  -8.086951e+01
   1.512845e+02  -3.878704e+01
   5.917133e+01   4.664381e+01
  -4.658224e+01   6.008248e+01
  -8.917659e+01  -1.288830e+01
  -1.742643e+01  -7.247259e+01
   7.169706e+01  -6.965057e+01
   3.099690e+01   4.102648e+00
   2.859687e+01   5.888316e+01
   1.861234e+01   4.159125e+01
   7.601972e+01  -1.148763e+01
   5.254193e+01  -6.957390e+00
   3.298034e+01   5.966030e+01
  -2.636813e+01   1.486854e+02
  -9.801740e+01   1.349360e+02
  -1.094831e+02   1.051900e+01
  -1.065343e+02  -1.100469e+02
   3.871937e+00  -1.003205e+02
   8.196726e+01  -5.313652e+01
   2.556259e+01   9.554356e+00
  -7.986735e+01   1.055555e+01
  -1.174101e+02  -4.175744e+01
  -7.178351e+01  -1.073882e+02
   6.467621e+01  -9.557215e+01
   1.896825e+02  -6.115241e+01
   1.530911e+02   4.249730e+01
   6.894512e+01   8.588361e+01
  -8.358244e+01   5.057371e+01
  -6.694547e+01   1.332464e+01
   3.425961e+01  -3.388652e+01
   1.079911e+02   8.799376e+00
   2.591361e+01   9.142362e+01
  -1.040944e+02   1.357231e+02
  -1.746479e+02   6.230966e+01
  -1.071396e+02  -1.104928e+02
   1.335392e+01  -2.001135e+02
   8.093871e+01  -1.467152e+02
   9.225460e+01   1.829535e+01
   4.710639e+01   1.075183e+02
   1.729854e+01   1.154425e+02
  -4.781764e+01   3.835727e+01
  -6.881837e+01  -1.016592e+01
  -2.164390e+01  -9.867982e+00
  -7.291690e+00  -8.859828e+00
  -2.964578e+01  -1.681061e+01
  -4.807964e+01  -7.547799e+01
  -2.127636e+01  -1.123161e+02
   6.695215e+01  -5.188145e+01
   1.308088e+02   6.270062e+01
   1.201157e+02   6.542459e+01
   8.519589e+00   3.995994e+01
  -7.089038e+01   5.799801e+00
  -7.242963e+01   2.635206e+01
  -3.356909e+01  -6.051208e+00
   3.368849e+01  -1.642543e+01
   7.699365e+00  -3.112200e+01
  -7.582000e+00   5.255764e+00
  -1.250650e+01   2.550607e+01
   6.391820e+01  -1.148955e+01
   9.741513e+01   1.250745e+01
   3.957971e-01   8.194766e+01
  -1.190837e+02   1.273584e+02
  -1.768074e+02   5.922185e+01
  -1.532260e+02  -7.508523e+01
  -2.850017e+01  -1.602945e+02
   9.236571e+01  -1.503560e+02
   1.191500e+02  -3.188115e+01
   7.921426e+01   2.232907e+01
   3.391051e+01   2.503201e+01
   2.690418e+01  -1.041447e+01
   5.406987e+01  -5.526737e+00
   1.974959e+01   6.148369e+01
   2.022277e+01   8.672988e+01
  -1.427052e+01   6.809602e+01
  -7.234251e+01   8.869935e+00
  -8.830830e+01  -1.105229e+02
   8.265350e+00  -1.216888e+02
   7.760415e+01  -7.389018e+00
   9.414326e+01   7.497095e+01
   2.098053e+01   1.012040e+02
  -9.402462e+01   5.177162e+01
  -1.189292e+02  -3.632818e+00
  -4.131678e+01  -4.575153e+01
   2.476272e+01  -4.915203e+01
   2.667095e+01  -3.198400e+01
  -5.653912e+01   7.188578e+00
  -8.742073e+01   1.714956e+01
  -2.662409e+01  -2.964179e+01
   6.994708e+01  -5.344685e+01
   1.313481e+02  -5.349920e+01
   5.877159e+01   1.487862e+01
  -1.893251e+01   8.770166e+01
  -3.822167e+01   1.119760e+02
  -4.610578e+01  -1.121386e+01
   9.282375e+00  -8.375148e+01
   2.481768e+01  -5.904879e+01
   3.486021e+01   2.533112e+01
   2.953283e+01   5.276772e+01
   5.911618e+00   3.557324e+01
  -4.209514e+01  -1.994632e+01
  -2.573633e+01  -1.977645e+01
  -1.338179e+00  -2.038384e+01
  -4.493135e+00  -3.381932e+00
  -4.983257e+00  -8.790774e+00
   3.487098e+01  -2.923313e+01
   4.203127e+01  -5.666787e+01
   3.139397e+01  -3.628711e+00
   4.898725e+01   4.265222e+01
   1.717758e+01   6.463765e+01
  -1.962912e+01   2.483042e+01
  -7.144969e+01  -2.458104e+01
  -3.806109e+00  -6.021832e+01
   3.270087e+01  -4.077274e+01
   8.509515e+01  -1.228696e+00
   2.756301e+01   5.179489e+01
  -3.066913e+01   6.378790e+01
  -6.217275e+01   2.691656e+01
  -4.415820e+01   2.075621e+01
   1.309050e+01  -2.040422e+01
   5.038121e+01   1.491568e+01
  -1.619803e+01   5.227422e+01
  -9.063646e+01   1.673208e+01
