
 $NMID
 id='ANONYMOUS ', fmtdat='(2E16.6)'
 volume=1.0
 tramp=1.0
 $END
  -4.401953e+03  -2.086601e+02
  -2.372650e+03  -2.867263e+03
   9.567749e+02  -2.808513e+03
   2.206269e+03  -7.075413e+02
   9.168256e+02   8.648359e+02
  -7.294208e+02   7.073773e+02
  -8.427575e+02  -4.796093e+02
  -8.150506e+00  -1.119584e+03
   8.551865e+02  -7.995782e+02
   9.557125e+02   1.709995e+02
   4.588225e+02   8.825068e+02
  -3.048749e+02   9.030423e+02
  -7.098675e+02   5.283552e+01
  -3.960217e+02  -7.160251e+02
   3.447874e+02  -7.577783e+02
   6.156447e+02   3.137384e+01
   2.472001e+02   7.023765e+02
  -3.855882e+02   6.797276e+02
  -6.143758e+02   4.112578e+01
  -3.970877e+02  -4.141297e+02
  -4.007394e+00  -4.602452e+02
   2.968977e+02  -2.480415e+02
   2.838540e+02  -2.082545e+01
  -9.502210e+01   1.318151e+02
  -4.253325e+02  -6.306289e+01
  -2.368103e+02  -4.425160e+02
   4.510114e+02  -4.484881e+02
   9.038188e+02   1.004727e+02
   4.584945e+02   6.354525e+02
  -4.412328e+02   5.347313e+02
  -7.486607e+02   3.908594e+00
  -3.926131e+02  -5.010837e+02
   2.610387e+02  -5.283663e+02
   5.798895e+02  -2.276617e+02
   4.396562e+02   2.642592e+02
   2.923108e+01   5.135675e+02
  -2.294268e+02   2.509310e+02
  -2.186492e+02  -2.311550e+02
   1.833187e+02  -4.425591e+02
   4.780522e+02   3.223814e+01
   2.676458e+02   7.046058e+02
  -3.685646e+02   7.500545e+02
  -6.372362e+02  -3.140785e+01
  -2.911164e+02  -5.764105e+02
   3.551888e+02  -3.704025e+02
   4.317443e+02   2.932274e+02
  -5.562796e+01   5.782312e+02
  -5.427497e+02   1.731919e+02
  -5.582631e+02  -4.287002e+02
  -1.564529e+02  -5.767357e+02
   3.702491e+02  -3.458829e+02
   5.990476e+02   7.337967e+01
   3.387535e+02   3.954107e+02
  -1.708121e+02   3.543313e+02
  -4.348150e+02   2.892857e+01
  -1.986835e+02  -2.183453e+02
   1.364672e+02  -1.380652e+02
   1.636971e+02   1.764099e+02
  -1.509326e+02   2.180711e+02
  -3.524263e+02  -6.415729e+01
  -1.462629e+02  -3.082134e+02
   1.985338e+02  -2.443867e+02
   3.253057e+02  -7.065949e+01
   1.869821e+02   9.417728e+01
  -1.421191e+01   2.253148e+02
  -1.968786e+02   3.128196e+02
  -3.503691e+02   2.220633e+02
  -3.235626e+02  -1.489182e+02
  -5.039827e+01  -4.304291e+02
   1.159236e+02  -3.893977e+02
   1.846645e+02  -1.057694e+02
   1.011932e+01   7.241635e+01
   2.108027e+01  -7.355301e+01
   1.798887e+02  -1.158573e+02
   2.835993e+02   4.284098e+01
   1.423937e+02   2.568337e+02
  -5.910649e+01   2.667181e+02
  -1.860447e+02   3.161705e+01
  -2.101041e+02  -2.140301e+02
   2.006327e+01  -2.849491e+02
   2.672562e+02  -1.374363e+02
   3.429090e+02   1.596672e+02
   1.790338e+02   3.791440e+02
  -1.365748e+02   2.910385e+02
  -2.533131e+02   9.797180e+01
  -1.478001e+02  -2.525140e+01
  -8.145120e+01   1.322494e+01
  -1.791845e+02   5.372676e+01
  -3.900627e+02  -3.299715e+01
  -3.329044e+02  -2.721357e+02
   2.755699e+01  -4.115060e+02
   3.424983e+02  -3.760278e+02
   5.071985e+02  -1.819016e+02
   3.160128e+02   1.073268e+02
   5.185917e+01   2.784882e+02
  -1.436786e+02   2.437468e+02
  -9.865432e+01   2.308463e+01
   8.083825e+01  -1.564775e+02
   2.087885e+02  -8.671270e+00
   8.692173e+01   1.962694e+02
  -1.515070e+02   1.870027e+02
  -1.622065e+02  -7.303466e+01
  -5.573861e+00  -1.969940e+02
   1.676836e+02  -3.280814e+01
   1.567356e+02   2.473752e+02
  -4.908344e+01   3.459734e+02
  -2.158598e+02   2.081444e+02
  -3.256558e+02  -6.373057e+01
  -2.507107e+02  -2.168724e+02
  -6.795096e+01  -2.525022e+02
   1.043051e+02  -1.388170e+02
   1.480666e+02  -1.557544e+01
   5.514816e+01   2.925156e+01
  -7.051570e+01  -4.123014e+01
  -4.593570e+01  -1.392408e+02
   1.033422e+02  -1.072151e+02
   1.938995e+02   1.590533e+01
   6.142994e+01   6.815328e+01
  -8.063252e+01   1.074242e+01
  -3.178034e+01  -7.009980e+01
   1.130426e+02  -8.431218e+01
   2.680526e+02   6.003369e+00
   2.679233e+02   1.268096e+02
   6.511986e+01   2.552622e+02
  -1.944688e+02   2.831903e+02
  -2.704626e+02   1.215797e+02
  -1.623010e+02  -8.247021e+01
   4.976762e+01  -1.220098e+02
   9.686342e+01  -1.982495e+00
  -1.303232e+01   1.086452e+02
  -2.066892e+02   7.953413e+01
  -2.047970e+02  -8.801009e+01
  -3.891920e+01  -2.271365e+02
   1.057354e+02  -1.443998e+02
   1.837344e+02  -3.376896e+01
   4.972928e+01   3.951403e+01
  -2.721904e+01   2.500072e+01
  -5.759945e+01  -8.016037e+01
   9.907290e+01  -9.254041e+01
   1.834786e+02  -4.916169e+01
   1.950772e+02   1.070591e+02
   4.854831e+01   2.040510e+02
  -1.587231e+02   1.403792e+02
  -2.121707e+02   1.659781e+01
  -8.420790e+01  -1.409495e+02
   9.050074e+01  -1.042974e+02
   8.690590e+01  -3.424902e+01
   1.682182e+01   2.545090e+01
  -1.338989e+01   2.002947e+01
   1.780184e+01   8.683855e+00
   7.870142e+01   2.507806e+01
   4.690400e+01   3.077646e+01
   4.643516e+01   1.381357e+02
  -1.145040e+02   1.499357e+02
  -2.032471e+02   3.246266e+01
  -1.963326e+02  -1.519958e+02
  -3.926109e+01  -2.437886e+02
   1.206228e+02  -1.596939e+02
   1.594411e+02  -2.118963e+01
   6.821285e+01   7.146179e+01
   1.230590e+01   3.988464e+01
   3.060112e+01  -3.026379e+01
   3.572556e+01  -7.364589e+00
   3.312718e+01   5.399323e+01
  -3.394284e+01   3.546824e+01
  -1.072656e+02   6.008958e+01
  -7.685174e+01  -5.019608e+01
  -1.348091e+01  -8.950358e+01
   1.528420e+02  -7.103303e+01
   1.998803e+02   5.112281e+01
   1.261271e+02   1.864708e+02
  -9.991309e+01   2.249662e+02
  -2.631663e+02   8.503653e+01
  -2.707250e+02  -8.239967e+01
  -1.055685e+02  -1.671007e+02
   2.639431e+01  -1.607636e+02
   1.058223e+02  -9.192000e+01
   6.970455e+01  -3.891178e+01
   1.540828e+01  -7.606412e+01
   8.226560e+01  -4.987794e+01
   1.053393e+02   6.351015e+00
   1.034806e+02   1.427825e+02
   4.204322e+01   1.966762e+02
  -9.490487e+01   1.668415e+02
  -1.925441e+02   3.643351e+01
  -1.550002e+02  -1.027760e+02
  -6.420648e+00  -1.720065e+02
   6.846014e+01  -8.569371e+01
   5.062376e+01   8.470890e+00
   3.482585e+00   1.696868e+01
   1.494793e+01   3.258138e+01
   1.639386e+01   3.139623e+01
   4.259303e+01   5.853911e+01
   6.142005e+01   2.715655e+01
  -4.188880e+01   6.089978e+01
  -1.412997e+02   1.433275e+01
  -1.255518e+02  -6.174170e+01
  -4.225727e+01  -7.994231e+01
   1.039548e+02  -7.524166e+01
   1.580835e+02  -7.049831e+00
   5.414345e+01   3.119603e+01
  -5.664547e+01   3.826241e+01
  -7.280794e+01   6.830723e+00
   9.714664e+00  -8.151293e+01
   5.080936e+01  -5.265688e+01
   3.863339e+01   3.657768e+00
   3.298280e+01   5.675487e+01
   4.205029e+01   4.845586e+01
   5.935200e+01  -6.397361e+00
   8.251258e+01  -1.393549e+00
   2.302381e+01   7.242085e+01
  -3.514733e+01   1.390317e+02
  -1.044552e+02   1.251711e+02
  -1.559205e+02   3.185500e+01
  -1.179580e+02  -8.444200e+01
   3.884084e-01  -9.285215e+01
   1.046907e+02  -7.309258e+01
   5.149934e+01   2.738156e+01
  -5.720515e+01   1.275790e+01
  -1.246068e+02  -4.064203e+01
  -8.300335e+01  -1.233743e+02
   7.557085e+01  -1.238175e+02
   1.916591e+02  -3.873863e+01
   1.405369e+02   2.128259e+01
   5.305543e+01   1.023659e+02
  -7.276521e+01   1.012798e+02
  -5.445363e+01  -4.860111e+00
   7.709956e+00  -4.367618e+01
   9.282955e+01   3.056067e+01
   2.115072e+01   1.201957e+02
  -8.575166e+01   1.446250e+02
  -1.936690e+02   4.618625e+01
  -1.005272e+02  -1.050654e+02
  -2.450387e+01  -1.908650e+02
   1.093770e+02  -1.590143e+02
   7.634478e+01   2.640392e+01
   3.302642e+01   1.029491e+02
   1.786196e+01   9.636976e+01
  -6.197855e+01   3.009135e+01
  -4.996423e+01  -2.697936e-01
  -1.770491e+00  -2.867815e+01
   1.448456e+00  -7.615303e-01
  -3.461246e+01   1.551689e+01
  -6.373650e+01  -5.690236e+01
  -3.849474e+01  -1.060805e+02
   3.524887e+01  -3.276766e+01
   1.103353e+02   5.332305e+01
   1.282282e+02   7.920365e+01
   2.276063e+01   5.156238e+01
  -8.216364e+01   4.725880e+01
  -6.745836e+01  -1.146086e+01
  -2.001427e+01   5.011881e+00
   3.521282e+01  -3.294923e+01
   9.310834e+00  -1.673565e+01
   5.550341e+00   1.541567e+01
  -5.518250e+00   3.585032e+01
   6.508989e+01   3.605073e+00
   7.019933e+01   3.678792e+01
   1.150969e+01   5.890264e+01
  -9.281491e+01   1.106465e+02
  -1.742345e+02   4.375459e+01
  -1.453775e+02  -5.778651e+01
  -8.848367e+00  -1.501574e+02
   7.144195e+01  -1.386124e+02
   1.339095e+02  -5.919767e+01
   6.970701e+01   2.405260e+01
   4.579616e+00   4.529568e+01
   4.352995e+00  -9.255018e+00
   7.359099e+00  -2.669060e+00
   6.293333e+01   3.428229e+01
   4.858972e+01   7.038296e+01
  -2.843367e+01   6.629589e+01
  -8.018168e+01  -2.417039e+01
  -5.161963e+01  -9.052457e+01
   5.853485e+00  -1.269297e+02
   6.303762e+01  -3.794278e+01
   8.964966e+01   5.277410e+01
   2.381392e+01   1.235921e+02
  -8.010154e+01   5.304787e+01
  -9.111636e+01   7.282880e-01
  -4.856284e+01  -6.269795e+01
   3.353711e+01  -5.703004e+01
   3.841948e+01  -4.558075e+01
  -2.309349e+01   1.579496e+01
  -4.989465e+01  -1.943744e+00
  -3.866915e+01  -7.074461e+00
   6.230710e+01  -6.757639e+01
   7.882421e+01  -7.075921e+01
   7.689047e+01   4.535867e+01
  -2.320487e+01   1.002038e+02
  -5.064194e+01   8.340997e+01
  -5.075834e+01  -1.384927e+01
  -7.613023e+00  -9.229046e+01
   5.451951e+01  -4.399117e+01
   3.336604e+01   7.486897e+00
   4.049635e+01   2.761782e+01
  -2.458609e+00   2.640576e+01
  -4.677275e+01  -1.525105e+01
  -4.481784e+01  -2.191365e+01
  -8.974077e+00  -3.746673e+01
  -8.847623e+00  -6.483813e+00
   1.923853e+01   3.522757e+00
   2.870898e+01  -2.321744e+01
   2.047475e+00  -4.248246e+01
   4.954740e+01  -2.336398e+01
   6.037448e+01   2.730457e+01
  -1.246898e+00   4.966370e+01
  -4.340992e+01   1.459525e+01
  -5.531385e+01  -3.415148e+01
  -1.135877e+01  -5.059321e+01
   5.387121e+01  -3.336393e+01
   7.843299e+01   1.725502e+01
   3.685098e+01   4.303004e+01
  -2.978279e+01   2.099098e+01
  -5.462354e+01   1.107218e+01
  -3.642440e+01   1.192281e+01
   1.609569e+01  -2.520053e+01
   3.171971e+01   6.453426e+00
  -3.770819e+01   1.733514e+01
  -7.160098e+01   2.779168e+01
