
 $NMID
 id='ANONYMOUS ', fmtdat='(2E16.6)'
 volume=1.0
 tramp=1.0
 $END
  -4.734874e+03  -1.134223e+02
  -2.743575e+03  -2.838761e+03
   8.384951e+02  -3.037452e+03
   2.360481e+03  -9.553652e+02
   1.057339e+03   9.172772e+02
  -8.441685e+02   7.748325e+02
  -1.045000e+03  -5.070614e+02
  -3.964013e+01  -1.248478e+03
   9.427864e+02  -8.748880e+02
   1.098433e+03   1.228561e+02
   5.002338e+02   9.477125e+02
  -2.918874e+02   9.765092e+02
  -7.050840e+02   9.626543e+01
  -4.433635e+02  -8.352466e+02
   3.140751e+02  -8.310471e+02
   6.786958e+02   4.397773e+01
   3.194817e+02   7.327410e+02
  -4.406214e+02   6.688534e+02
  -6.335548e+02   7.335840e+01
  -4.174130e+02  -4.171221e+02
   3.505069e+01  -5.030324e+02
   3.106218e+02  -2.720460e+02
   2.613406e+02  -6.818815e+00
  -8.904532e+01   1.146663e+02
  -4.146380e+02  -4.616372e+01
  -2.348702e+02  -4.103528e+02
   4.211692e+02  -4.615935e+02
   8.607572e+02   4.204692e+01
   4.892874e+02   6.069620e+02
  -3.473133e+02   5.773604e+02
  -7.899371e+02  -3.493524e+01
  -4.048647e+02  -5.206916e+02
   3.091945e+02  -5.833043e+02
   6.016979e+02  -2.417825e+02
   4.360860e+02   2.476146e+02
   5.282096e+01   5.152815e+02
  -2.359411e+02   3.119290e+02
  -2.128068e+02  -2.362255e+02
   1.339270e+02  -4.561763e+02
   4.955135e+02  -1.473306e+01
   2.856298e+02   6.827806e+02
  -3.550947e+02   7.992781e+02
  -6.537208e+02  -7.283530e+00
  -2.994630e+02  -5.878107e+02
   3.293567e+02  -3.656282e+02
   4.675713e+02   3.271135e+02
  -8.307041e+01   5.982326e+02
  -6.069092e+02   1.497441e+02
  -6.246010e+02  -3.976265e+02
  -1.641854e+02  -6.262128e+02
   4.008361e+02  -4.087019e+02
   6.973110e+02   7.902323e+01
   3.872100e+02   4.338240e+02
  -1.467278e+02   3.894992e+02
  -5.028741e+02   6.656818e+01
  -2.819493e+02  -2.532158e+02
   1.346889e+02  -1.487707e+02
   1.986318e+02   1.564457e+02
  -1.287925e+02   2.484503e+02
  -3.638241e+02  -2.147816e+01
  -1.582084e+02  -3.206162e+02
   2.176729e+02  -2.586270e+02
   3.684981e+02  -8.565003e+01
   1.539948e+02   1.028859e+02
  -4.775978e+01   2.132066e+02
  -2.177119e+02   3.279924e+02
  -3.462642e+02   2.059403e+02
  -3.208653e+02  -1.421374e+02
  -8.405388e+01  -4.786301e+02
   1.322021e+02  -4.422409e+02
   1.717537e+02  -1.149599e+02
   4.830266e+01   5.290971e+01
   3.464304e+01  -3.333024e+01
   1.742335e+02  -1.320085e+02
   2.842745e+02   2.346215e+01
   1.801041e+02   2.721078e+02
  -6.728643e+01   2.740540e+02
  -2.049862e+02   5.286441e+01
  -2.073107e+02  -2.479817e+02
  -1.134122e+01  -3.178219e+02
   2.766037e+02  -1.351673e+02
   4.045044e+02   1.666023e+02
   2.133923e+02   3.644202e+02
  -9.769431e+01   3.264597e+02
  -2.778627e+02   1.081286e+02
  -1.851905e+02  -1.717840e+01
  -7.527197e+01   2.227017e+01
  -2.009453e+02   9.385473e+01
  -3.833649e+02  -2.878561e+01
  -3.580751e+02  -2.998044e+02
   1.227947e+01  -4.323052e+02
   3.498305e+02  -4.118475e+02
   4.899705e+02  -2.067968e+02
   3.698023e+02   1.030520e+02
   7.803135e+01   2.999726e+02
  -1.236624e+02   2.542395e+02
  -8.219665e+01   4.046335e+01
   1.001353e+02  -9.662414e+01
   2.060607e+02  -2.765027e+01
   9.766817e+01   1.827985e+02
  -1.519733e+02   1.934388e+02
  -1.855011e+02  -4.964570e+01
   5.202992e+00  -2.380661e+02
   1.949051e+02  -6.232417e+01
   1.610745e+02   2.282278e+02
  -2.306763e+01   3.475259e+02
  -2.223527e+02   1.629093e+02
  -3.066820e+02  -8.586732e+01
  -2.515163e+02  -2.454099e+02
  -1.086814e+02  -2.793359e+02
   1.051500e+02  -1.542794e+02
   1.977630e+02  -2.377914e+01
   5.849851e+01   1.785411e+01
  -7.725098e+01  -7.526996e+00
  -3.533348e+01  -1.186914e+02
   1.283571e+02  -9.877541e+01
   1.948487e+02   2.853733e+01
   5.879013e+01   9.406358e+01
  -7.000271e+01   4.495228e+00
  -7.443106e+01  -5.755929e+01
   1.301536e+02  -7.853260e+01
   2.333412e+02   1.123702e+01
   2.377254e+02   1.377742e+02
   1.064826e+02   2.386828e+02
  -1.468909e+02   2.630726e+02
  -2.679173e+02   1.249548e+02
  -1.863125e+02  -5.937832e+01
   2.290366e+01  -1.460328e+02
   7.954666e+01  -4.341863e+01
  -1.377763e+01   1.238455e+02
  -2.001156e+02   7.326883e+01
  -2.336513e+02  -1.107968e+02
  -7.883046e+01  -2.175473e+02
   8.506578e+01  -1.595574e+02
   1.396843e+02  -3.568370e+01
   7.666852e+01   4.200359e+01
  -2.137381e+01   8.600788e+00
  -3.741685e+01  -9.449534e+01
   6.209083e+01  -1.343860e+02
   1.681952e+02  -2.025365e+01
   1.829202e+02   1.356281e+02
   1.995430e+01   2.222664e+02
  -1.483693e+02   1.790249e+02
  -1.970662e+02   3.567349e+01
  -7.877777e+01  -1.195897e+02
   5.462863e+01  -1.153742e+02
   9.172538e+01  -6.443675e+01
   1.095330e+01   4.064740e+01
   5.503616e-01   3.066442e+01
   1.251600e+01  -2.983011e+00
   9.034524e+01  -3.344183e-01
   6.993484e+01   7.372225e+01
   1.653694e+01   1.795187e+02
  -1.436937e+02   1.683361e+02
  -2.117854e+02   1.187967e+01
  -2.120723e+02  -1.530930e+02
  -1.446063e+01  -2.161738e+02
   1.217932e+02  -1.354880e+02
   1.334676e+02  -2.941244e+01
   4.174894e+01   5.864426e+01
   2.232988e+01   3.303921e+01
   8.162560e+01  -2.312774e+01
   9.071669e+01  -1.329505e+01
   4.788860e+01   5.035211e+01
  -3.771926e+01   8.739376e+01
  -9.396865e+01   7.917153e+01
  -7.915094e+01  -2.570800e+01
   3.531839e+00  -9.560222e+01
   1.479430e+02  -8.202144e+01
   1.912824e+02   5.106282e+01
   7.620035e+01   2.238451e+02
  -1.139627e+02   2.355708e+02
  -2.624533e+02   7.926060e+01
  -2.721350e+02  -8.854395e+01
  -1.288887e+02  -1.810865e+02
   3.115574e+01  -1.400574e+02
   9.379161e+01  -8.798974e+01
   6.677383e+01  -5.892257e+01
   5.893228e+01  -9.545594e+01
   1.049127e+02  -7.784375e+01
   1.412139e+02   4.296727e+00
   1.116277e+02   1.551417e+02
   6.447491e+01   2.223334e+02
  -1.002642e+02   1.781146e+02
  -1.718883e+02   4.140511e+00
  -1.813007e+02  -1.260553e+02
  -1.847045e+01  -1.610452e+02
   9.595073e+01  -9.980048e+01
   5.954753e+01   9.257671e+00
   1.304497e+01   2.560905e+01
  -3.772367e+00   2.042633e+01
   2.665713e+01   9.759990e+00
   7.956058e+01   2.791521e+01
   1.744362e+01   4.178108e+01
  -7.047184e+01   6.056800e+01
  -1.470852e+02   3.528187e+01
  -1.419844e+02  -6.052528e+01
  -3.871925e+01  -1.134729e+02
   1.211991e+02  -5.724362e+01
   1.637266e+02  -1.576022e+01
   5.133592e+01   3.157816e+01
  -6.840159e+01   3.430247e+01
  -8.999094e+01  -2.881356e+01
   1.040986e+01  -8.905838e+01
   6.786958e+01  -5.289518e+01
   6.974777e+01   7.451099e+00
   2.145015e+01   5.139803e+01
   1.860235e+01   4.786913e+01
   7.258321e+01  -5.486813e-01
   5.264890e+01   4.713228e+00
   4.220066e+01   7.145795e+01
  -4.689208e+01   1.715205e+02
  -1.008703e+02   1.167061e+02
  -1.720391e+02   2.638803e+01
  -1.192916e+02  -1.048442e+02
  -2.879913e+01  -1.317398e+02
   7.444748e+01  -9.618440e+01
   4.826810e+01   5.183781e+01
  -6.410422e+01   5.763446e+00
  -1.526417e+02  -2.486437e+01
  -7.379947e+01  -1.089377e+02
   5.806224e+01  -1.372726e+02
   2.066933e+02  -7.640958e+01
   1.772397e+02   3.252510e+01
   1.253401e+01   7.672343e+01
  -4.281422e+01   7.087514e+01
  -5.773911e+01  -4.490080e-01
   6.353844e+01  -6.166870e+01
   8.197186e+01   2.931391e+01
   5.294543e+01   1.565124e+02
  -7.147917e+01   1.480220e+02
  -1.674037e+02   5.960956e+01
  -1.359898e+02  -1.243957e+02
  -3.078683e+01  -2.305438e+02
   9.232346e+01  -1.485487e+02
   1.147939e+02   1.520131e+01
   4.736172e+01   1.144339e+02
  -4.817023e+00   1.005846e+02
  -4.668329e+01  -4.383252e-01
  -4.013823e+01  -3.258287e+01
  -1.724035e+00  -1.843322e+00
  -8.081943e+00   1.668991e+01
  -1.777369e+01  -3.623951e+01
  -5.335921e+01  -8.558870e+01
  -4.760100e+01  -9.719344e+01
   7.392092e+01  -5.541379e+01
   1.304183e+02   5.027726e+01
   1.169602e+02   1.032054e+02
   2.986579e+01   3.597685e+01
  -8.834915e+01   2.161090e+01
  -1.125301e+02  -6.787580e-01
  -1.843292e+00  -2.452191e+01
   5.078404e+01  -2.798882e+01
   9.380880e+00  -2.763293e+01
  -4.610280e+01   1.212610e+01
   8.807388e+00   2.420815e+01
   4.093149e+01   1.467079e+01
   7.542569e+01   4.307456e+01
   4.287521e+00   7.664721e+01
  -1.107818e+02   1.062097e+02
  -1.746972e+02   4.360081e+01
  -1.460861e+02  -6.975611e+01
  -4.788405e+01  -1.571137e+02
   1.012080e+02  -1.351341e+02
   1.276594e+02  -6.881510e+01
   8.005580e+01   1.909422e+01
   2.115332e+01   4.434621e+01
   1.832482e+01   2.434077e+01
   2.772398e+00   7.995782e+00
   2.320751e+01   4.495022e+01
   6.523860e+01   9.155397e+01
  -3.224568e+01   6.043339e+01
  -8.304981e+01  -1.818864e+01
  -9.590795e+01  -8.849535e+01
  -1.611817e+01  -1.095329e+02
   6.296997e+01  -2.044017e+01
   1.309256e+02   5.555137e+01
   5.094981e+00   1.238349e+02
  -7.337355e+01   7.182992e+01
  -9.325297e+01  -2.661831e+01
  -3.536077e+01  -5.968237e+01
   5.833157e+01  -7.068577e+01
   5.630372e+01  -8.889545e+00
  -5.086024e+01   9.754104e+00
  -8.439628e+01   1.194599e+01
  -8.725136e+00  -9.630857e+00
   7.824538e+01  -6.244106e+01
   1.283120e+02  -7.016863e+01
   5.713929e+01   2.880797e+01
  -2.336720e+01   9.634058e+01
  -3.757328e+01   5.845389e+01
  -3.155307e+01   1.120865e+01
   8.638508e+00  -7.643097e+01
   4.460606e+01  -5.113161e+01
   3.683179e+01   2.799722e+01
   2.909945e+01   3.246941e+01
   5.311510e+00   5.563844e+01
  -2.353026e+01  -1.361386e+01
  -3.744277e+01  -2.187280e+01
  -2.535800e+01  -1.979415e+01
   1.096470e+01   7.533165e+00
   2.607436e+00  -1.205006e+01
  -8.962353e+00  -2.229741e+01
   1.322823e+01  -6.168704e+01
   4.926436e+01  -1.048018e+01
   1.995255e+01   9.004844e+01
  -1.747677e+00   7.194317e+01
  -3.971457e+01   1.569864e+01
  -5.290167e+01  -6.107527e+01
  -3.302568e+01  -5.938082e+01
   5.072680e+01  -2.769153e+01
   9.473314e+01   2.707712e+01
   3.185255e+01   5.214514e+01
  -2.986411e+01   1.945462e+01
  -6.890542e+01  -4.352942e-01
  -2.904562e+01   2.344528e+01
   3.275118e+01   5.618170e+00
   5.214538e+01   9.802101e+00
  -2.864501e+01   6.203978e+01
  -8.227018e+01   2.452308e+01
