
 $NMID
 id='ANONYMOUS ', fmtdat='(2E16.6)'
 volume=1.0
 tramp=1.0
 $END
  -4.629997e+03   2.250823e+02
  -2.825335e+03  -2.654786e+03
   6.621460e+02  -3.034675e+03
   2.256010e+03  -1.060789e+03
   1.121164e+03   7.968678e+02
  -7.380932e+02   7.558562e+02
  -1.029317e+03  -4.434872e+02
  -3.869757e+01  -1.182033e+03
   8.459510e+02  -9.364527e+02
   1.018233e+03   9.583801e+01
   5.061825e+02   8.997111e+02
  -2.142442e+02   9.333370e+02
  -6.939021e+02   1.597139e+02
  -4.813462e+02  -7.693790e+02
   2.650804e+02  -8.232568e+02
   6.340440e+02  -1.417665e+01
   2.906236e+02   7.186627e+02
  -3.830994e+02   7.112618e+02
  -5.873843e+02   1.153360e+02
  -4.178366e+02  -4.201713e+02
  -4.036985e+00  -4.906382e+02
   2.543038e+02  -2.898766e+02
   2.184793e+02  -3.639646e+00
  -1.281057e+02   8.820740e+01
  -4.052029e+02  -8.894485e+01
  -2.164791e+02  -4.176439e+02
   4.705818e+02  -3.900180e+02
   8.938728e+02   5.683922e+01
   4.710612e+02   5.860063e+02
  -3.862992e+02   5.485178e+02
  -7.443571e+02  -4.320104e+01
  -3.871713e+02  -4.984530e+02
   2.956807e+02  -5.491211e+02
   5.734570e+02  -2.290516e+02
   4.144082e+02   2.277991e+02
   5.255187e+01   4.597783e+02
  -1.880867e+02   3.020554e+02
  -1.808828e+02  -2.123208e+02
   1.543692e+02  -4.487406e+02
   4.566789e+02  -4.579525e+00
   2.872166e+02   6.712483e+02
  -3.398413e+02   7.648545e+02
  -6.510515e+02   6.895471e+01
  -2.971068e+02  -5.717890e+02
   3.121882e+02  -3.645488e+02
   4.486109e+02   3.196997e+02
  -3.935268e+01   5.611857e+02
  -5.865255e+02   1.533448e+02
  -6.411656e+02  -3.560427e+02
  -1.820859e+02  -6.182837e+02
   3.769873e+02  -3.774620e+02
   6.509591e+02   7.578766e+01
   3.880401e+02   3.935428e+02
  -1.425440e+02   3.809954e+02
  -4.727607e+02   9.033514e+01
  -2.859587e+02  -2.121082e+02
   1.074660e+02  -1.509291e+02
   1.914399e+02   1.600590e+02
  -1.359935e+02   2.379695e+02
  -3.081230e+02  -4.069333e+01
  -1.775022e+02  -3.020251e+02
   1.904571e+02  -2.687240e+02
   3.528328e+02  -7.782324e+01
   2.007345e+02   9.401848e+01
  -3.673381e+01   2.130155e+02
  -2.147346e+02   3.570088e+02
  -3.296194e+02   2.193236e+02
  -3.007283e+02  -1.266941e+02
  -1.078244e+02  -4.849214e+02
   1.148059e+02  -4.005130e+02
   1.345781e+02  -1.092022e+02
   3.128835e+01   3.008375e+01
   1.228429e+01  -8.860166e+01
   1.668748e+02  -1.550796e+02
   2.542738e+02   1.657099e+01
   1.603949e+02   2.650612e+02
  -6.257152e+01   3.119488e+02
  -2.385792e+02   3.971767e+01
  -2.118735e+02  -2.248641e+02
  -1.783568e+01  -3.036103e+02
   2.463472e+02  -1.331602e+02
   3.515118e+02   1.628567e+02
   2.046534e+02   3.585127e+02
  -1.113220e+02   3.585904e+02
  -2.603471e+02   1.194130e+02
  -2.146702e+02  -8.037231e+00
  -7.053180e+01   3.271732e+01
  -2.334434e+02   8.037135e+01
  -4.327637e+02  -2.035388e+01
  -3.534744e+02  -2.700513e+02
  -5.262518e+01  -4.516171e+02
   3.567095e+02  -4.574582e+02
   4.762958e+02  -2.147527e+02
   3.876865e+02   7.905017e+01
   4.859328e+01   2.975098e+02
  -1.042885e+02   2.888788e+02
  -7.895126e+01   5.300560e+01
   9.271978e+01  -1.135282e+02
   2.161068e+02   2.794188e-01
   7.096840e+01   1.801940e+02
  -1.503127e+02   1.745891e+02
  -1.926282e+02  -3.591272e+01
   2.022264e+01  -2.152917e+02
   1.786033e+02  -3.343420e+01
   1.857418e+02   1.999017e+02
  -2.967961e+01   3.445057e+02
  -2.286479e+02   1.823089e+02
  -3.243330e+02  -6.682259e+01
  -2.727258e+02  -2.429820e+02
  -1.153788e+02  -2.733765e+02
   1.081532e+02  -1.560223e+02
   2.080989e+02  -2.636714e+01
   3.879269e+01   2.760564e+01
  -6.083268e+01  -3.384438e+01
  -4.010971e+01  -1.402221e+02
   1.042932e+02  -1.230097e+02
   1.605491e+02   1.698551e+01
   7.012110e+01   6.941787e+01
  -8.187616e+01   4.278975e+01
  -4.654092e+01  -6.946114e+01
   1.102848e+02  -8.452585e+01
   2.406000e+02  -1.365416e+01
   2.642153e+02   1.312102e+02
   7.221720e+01   2.344229e+02
  -1.578507e+02   2.445964e+02
  -2.863787e+02   1.558541e+02
  -1.903207e+02  -5.121917e+01
  -1.428836e+01  -1.167275e+02
   9.451444e+01  -2.151543e+01
  -3.661119e+01   1.098782e+02
  -1.716812e+02   7.287344e+01
  -2.222290e+02  -1.083336e+02
  -5.377289e+01  -2.057081e+02
   8.402530e+01  -1.683731e+02
   1.274881e+02  -5.075368e+01
   8.611784e+01   4.449780e+01
  -2.338864e+01   2.372803e+01
  -2.152412e+01  -7.209615e+01
   7.714469e+01  -8.821578e+01
   1.970715e+02  -4.190805e+01
   1.974896e+02   1.161741e+02
   2.949498e+01   2.464848e+02
  -1.902914e+02   1.746499e+02
  -1.987884e+02   7.410736e+00
  -6.946592e+01  -1.231646e+02
   8.252169e+01  -1.110368e+02
   9.218561e+01  -2.457878e+01
   1.534596e+01   5.070589e+01
  -1.287684e+01  -3.463974e+00
   2.053111e+01   1.255134e+01
   4.671663e+01   1.804651e+01
   7.676627e+01   8.227096e+01
   8.625332e+00   1.735794e+02
  -1.063619e+02   1.535620e+02
  -2.615756e+02   2.828767e+01
  -2.166627e+02  -1.439338e+02
  -4.913998e+01  -2.244548e+02
   1.061097e+02  -1.540253e+02
   1.175914e+02  -1.227218e+01
   7.433133e+01   6.179701e+01
   5.016311e+01   6.295834e+00
   6.552948e+01  -1.641294e+01
   6.855852e+01  -1.427744e+01
   3.003178e+01   4.535548e+01
  -3.368163e+01   9.061712e+01
  -1.058954e+02   3.956451e+01
  -1.089407e+02  -3.232912e+01
   2.293553e+01  -8.362103e+01
   1.042719e+02  -7.697503e+01
   1.733047e+02   5.424818e+01
   9.181805e+01   2.219670e+02
  -7.327011e+01   2.291030e+02
  -2.466516e+02   8.963458e+01
  -2.610704e+02  -8.270259e+01
  -1.246011e+02  -1.472300e+02
   5.076977e+01  -1.646761e+02
   9.393692e+01  -8.969622e+01
   6.297532e+01  -4.940335e+01
   6.434372e+01  -1.013493e+02
   8.548683e+01  -7.182875e+01
   1.296734e+02   1.992126e+01
   1.049652e+02   1.608958e+02
   7.152197e+01   2.094897e+02
  -1.188314e+02   1.957144e+02
  -1.546411e+02  -4.217940e+01
  -1.565314e+02  -1.316276e+02
  -1.722677e+01  -1.866312e+02
   7.560909e+01  -1.041342e+02
   5.886307e+01  -6.826283e+00
  -2.841937e+00   4.907736e+01
   1.157554e+01   1.930872e+01
   4.660248e+01  -8.315835e-01
   8.636202e+01   1.438172e+00
   5.251655e+01   5.529637e+01
  -5.679509e+01   5.362064e+01
  -1.529395e+02   1.863568e+00
  -1.771143e+02  -3.448440e+01
  -2.536811e+01  -8.535650e+01
   1.214111e+02  -8.405372e+01
   1.493112e+02  -1.110703e+00
   5.687637e+01   5.736057e+01
  -6.012123e+01   2.493520e+01
  -6.459483e+01  -3.083777e+01
  -5.075489e+00  -8.927244e+01
   5.903981e+01  -5.793828e+01
   2.746669e+01   2.413090e+01
   5.447507e+01   2.995251e+01
   1.192878e+01   3.106066e+01
   5.240493e+01  -1.122146e+01
   7.828129e+01   1.868551e+01
   1.516332e+01   4.614680e+01
  -2.575295e+01   1.375553e+02
  -1.241489e+02   1.490102e+02
  -1.686731e+02  -9.243000e+00
  -1.340816e+02  -6.694397e+01
  -2.831125e+00  -1.093619e+02
   5.652120e+01  -5.084998e+01
   6.042052e+01   1.558145e+01
  -6.258693e+01   3.117740e+01
  -1.430424e+02  -1.905174e+01
  -5.103706e+01  -1.308547e+02
   8.649091e+01  -1.243079e+02
   2.098362e+02  -3.697651e+01
   1.894373e+02   4.093498e+01
   3.601904e+01   7.857386e+01
  -4.300842e+01   7.923884e+01
  -3.355062e+01   5.893430e+00
   3.394642e+01  -4.570996e+01
   9.334382e+01   4.142846e+01
   2.916941e+01   1.377683e+02
  -9.388380e+01   1.371894e+02
  -1.634232e+02   6.682330e+01
  -1.465692e+02  -9.441130e+01
  -1.687623e+01  -2.167676e+02
   6.471555e+01  -1.734009e+02
   1.135108e+02   7.183056e+00
   6.412413e+01   1.151519e+02
  -4.767177e+00   1.240320e+02
  -3.652426e+01   1.298254e+01
  -7.080556e+01  -2.920064e+01
  -2.511919e+01  -1.609640e+01
  -5.257652e+00   1.487723e+01
  -1.910191e+00  -1.504386e+01
  -7.722841e+01  -7.452202e+01
  -4.724306e+01  -9.127611e+01
   3.271416e+01  -9.202532e+00
   1.469136e+02   3.622927e+01
   1.270578e+02   6.905879e+01
   1.478693e+01   2.947246e+01
  -8.810673e+01   1.652490e+01
  -8.083011e+01   5.538672e+00
  -2.491883e+00   5.614274e-01
   4.447586e+01  -2.544767e+01
   3.795457e+01  -4.108936e+01
  -1.880428e+01  -1.876913e+01
   2.353252e+01   1.622321e+00
   9.900820e+01   6.536317e+00
   6.478613e+01   4.436521e+01
   2.381455e+01   7.846682e+01
  -9.843875e+01   1.255668e+02
  -1.982174e+02   5.952261e+01
  -1.364662e+02  -2.953379e+01
  -2.863685e+01  -1.523857e+02
   1.081398e+02  -1.623623e+02
   1.102670e+02  -5.782316e+01
   5.194127e+01   2.002751e+01
   3.012618e+01   4.758636e+01
   3.837232e-01   1.278677e+01
  -5.024344e+00   1.666530e+01
   2.242136e+01   2.193523e+01
   3.503778e+01   9.059438e+01
  -3.437652e+01   4.955598e+01
  -7.130282e+01   1.197284e+01
  -6.894966e+01  -8.945091e+01
   7.075983e+00  -1.069464e+02
   6.902602e+01   6.014663e+00
   1.014607e+02   9.627899e+01
   3.045047e+01   9.139041e+01
  -7.793046e+01   5.332728e+01
  -9.505706e+01  -4.015951e-01
  -1.816519e+01  -5.318265e+01
   3.454007e+01  -5.213227e+01
   3.103656e+01  -6.101254e+01
  -5.078704e+01  -5.752994e+00
  -4.521055e+01   9.611350e+00
  -1.340484e+01  -3.386070e+01
   5.880423e+01  -5.713225e+01
   1.032087e+02  -6.520451e+01
   4.866598e+01   2.442390e+01
  -7.563456e+00   7.444148e+01
  -4.957754e+01   8.763819e+01
  -2.193978e+01  -1.853941e+00
   2.982938e+01  -2.369459e+01
   2.623167e+01  -3.022726e+01
   1.646751e+01   4.059763e+01
   2.991236e+01   5.563532e+01
  -1.265332e+01   1.866587e+01
  -2.506763e+01   6.924172e+00
  -3.384917e+01  -3.635015e+00
  -4.548793e+01   1.203183e+01
   1.370523e+01   4.403389e+01
  -8.493031e+00   3.599595e+00
   1.481960e+01  -3.603456e+01
   4.045875e+01  -1.837684e+01
   1.909021e+01   6.215613e+00
   3.111651e+01   5.097125e+01
  -6.676902e+00   7.789554e+01
  -4.556127e+01   1.170046e+01
  -5.938079e+01  -2.387640e+01
  -1.547469e+01  -4.035339e+01
   4.724403e+01  -4.267482e+01
   7.854095e+01   9.325566e+00
   6.034029e+01   4.172968e+01
  -1.697045e+01   5.263740e+01
  -8.198951e+01   4.217535e+01
  -2.976840e+01   5.992282e+00
   4.829890e+01   2.876506e+01
   4.229284e+01   2.562206e+01
  -2.015696e+01   1.366814e+01
  -9.304958e+01   8.677156e+00
