
 $NMID
 id='ANONYMOUS ', fmtdat='(2E16.6)'
 volume=1.0
 tramp=1.0
 $END
  -4.788300e+03   1.876915e+02
  -2.885490e+03  -2.768216e+03
   9.457840e+02  -3.181492e+03
   2.368209e+03  -1.049061e+03
   1.124812e+03   8.650183e+02
  -7.400331e+02   6.684024e+02
  -1.040833e+03  -4.752179e+02
   1.970395e+01  -1.231859e+03
   9.439346e+02  -9.124532e+02
   1.073902e+03   1.094205e+02
   5.038479e+02   9.609768e+02
  -2.259668e+02   9.803278e+02
  -7.420445e+02   1.221866e+02
  -4.320102e+02  -7.300872e+02
   3.318168e+02  -8.377846e+02
   6.499216e+02   1.102738e+01
   2.920858e+02   7.862950e+02
  -3.437729e+02   6.686567e+02
  -6.010213e+02   1.300982e+02
  -3.986335e+02  -3.991729e+02
  -7.105289e+00  -4.827830e+02
   2.470422e+02  -2.911888e+02
   2.290272e+02   1.493508e+01
  -1.179437e+02   1.107491e+02
  -4.236639e+02  -7.434137e+01
  -2.426003e+02  -4.554229e+02
   4.547807e+02  -4.816822e+02
   9.270596e+02   6.980437e+01
   4.870219e+02   6.251546e+02
  -4.119224e+02   5.723500e+02
  -8.206624e+02   7.208824e+00
  -3.891911e+02  -5.222756e+02
   2.573026e+02  -5.667478e+02
   5.912397e+02  -2.248522e+02
   4.662479e+02   2.152047e+02
   8.524933e+01   5.043616e+02
  -2.231036e+02   2.943394e+02
  -2.188583e+02  -2.608039e+02
   1.483079e+02  -4.790586e+02
   4.729436e+02  -2.103988e+01
   2.913997e+02   7.048184e+02
  -3.351965e+02   7.856284e+02
  -6.681478e+02   3.020501e+01
  -2.982595e+02  -5.690148e+02
   3.371079e+02  -3.950067e+02
   4.733887e+02   3.215641e+02
  -3.197034e+01   5.954135e+02
  -5.718619e+02   1.863621e+02
  -6.421914e+02  -4.063564e+02
  -1.942757e+02  -6.159757e+02
   3.990814e+02  -3.891881e+02
   6.643845e+02   4.474775e+01
   4.170877e+02   4.102680e+02
  -1.729666e+02   4.376236e+02
  -4.407020e+02   7.519835e+01
  -2.545293e+02  -2.146793e+02
   1.487264e+02  -1.137772e+02
   1.734415e+02   1.771388e+02
  -1.311983e+02   1.774060e+02
  -3.619908e+02  -4.453508e+01
  -1.823085e+02  -2.655845e+02
   1.899584e+02  -2.857630e+02
   3.421832e+02  -7.936272e+01
   2.215895e+02   9.087424e+01
  -2.774315e+01   2.256848e+02
  -2.231382e+02   3.699674e+02
  -3.469316e+02   2.263249e+02
  -2.960997e+02  -1.629087e+02
  -9.719480e+01  -4.380674e+02
   8.617300e+01  -3.947139e+02
   1.334307e+02  -9.210527e+01
   5.710777e+01   4.085178e+01
   3.572747e+01  -7.400248e+01
   1.484728e+02  -1.515505e+02
   2.960299e+02   2.265646e+01
   2.032118e+02   2.939222e+02
  -1.441557e+01   2.917130e+02
  -2.309361e+02   2.052663e+01
  -2.181010e+02  -2.101111e+02
  -7.732226e+00  -3.201717e+02
   2.405074e+02  -1.327384e+02
   3.848592e+02   1.424650e+02
   2.391312e+02   3.478768e+02
  -8.948738e+01   2.991559e+02
  -2.626267e+02   1.183774e+02
  -1.546452e+02   2.000267e+01
  -1.020399e+02   3.701837e+01
  -2.417632e+02   7.350823e+01
  -4.390110e+02  -4.753602e+01
  -3.603778e+02  -2.491188e+02
  -3.509294e+01  -4.051866e+02
   3.432814e+02  -4.210622e+02
   5.016985e+02  -2.829584e+02
   3.372736e+02   4.828895e+01
   5.726539e+01   2.883289e+02
  -1.237798e+02   2.764353e+02
  -8.522962e+01   3.924303e+01
   1.258640e+02  -1.090407e+02
   1.968990e+02   3.445631e+00
   4.612408e+01   1.838542e+02
  -1.279334e+02   1.911880e+02
  -1.848809e+02  -6.130641e+01
   1.218289e+01  -2.041731e+02
   2.000094e+02  -7.553537e+01
   1.901776e+02   2.276234e+02
  -2.235966e+01   3.534770e+02
  -2.048862e+02   2.337525e+02
  -3.537690e+02  -5.549524e+01
  -2.546189e+02  -2.391276e+02
  -7.119830e+01  -2.556013e+02
   1.359383e+02  -1.681488e+02
   1.985457e+02  -2.652823e+01
   7.129648e+01   2.927560e+01
  -1.019857e+02  -2.150556e+01
  -4.008228e+01  -1.166520e+02
   1.098441e+02  -9.988020e+01
   1.978092e+02   5.708137e+00
   6.612879e+01   6.817618e+01
  -6.181821e+01   3.231291e+01
  -6.521559e+01  -8.064745e+01
   1.276003e+02  -9.965301e+01
   2.445146e+02  -8.825460e+00
   2.849524e+02   1.216674e+02
   6.378313e+01   2.639417e+02
  -1.976093e+02   2.699203e+02
  -2.992743e+02   1.271372e+02
  -1.921734e+02  -5.575807e+01
   4.568640e+01  -1.114669e+02
   9.078949e+01  -1.020209e+01
  -4.530692e+01   1.063820e+02
  -1.767212e+02   7.178578e+01
  -2.326659e+02  -9.102712e+01
  -7.710639e+01  -2.363157e+02
   9.435462e+01  -1.848417e+02
   1.277284e+02  -4.915314e+01
   6.993445e+01   6.996115e+01
  -2.224597e+01   1.882951e+01
  -4.937172e+01  -9.446607e+01
   6.817425e+01  -1.082656e+02
   2.077075e+02  -6.455872e+01
   2.123450e+02   1.133648e+02
   1.919225e+01   2.219490e+02
  -1.509396e+02   1.812327e+02
  -2.126999e+02   1.859189e+01
  -7.074022e+01  -1.145008e+02
   5.422626e+01  -1.150117e+02
   1.112234e+02  -4.928233e+01
   1.632083e+01   1.483608e+01
  -2.552541e+01   6.004345e-01
   1.469308e+01  -7.555336e+00
   8.702076e+01   2.313280e+01
   8.452914e+01   7.246883e+01
   4.358067e+01   1.625011e+02
  -1.084498e+02   1.612132e+02
  -2.454783e+02   4.908409e+01
  -2.176174e+02  -1.634298e+02
  -3.538670e+01  -2.697031e+02
   9.722662e+01  -1.837408e+02
   1.374903e+02  -1.660645e+01
   2.808772e+01   4.705921e+01
   2.320141e+01   1.955032e+01
   7.472612e+01  -8.483906e-01
   8.133864e+01  -3.660348e-01
   6.133905e+01   6.351911e+01
  -4.046552e+01   9.272421e+01
  -1.019235e+02   5.013060e+01
  -1.221429e+02  -5.386828e+01
   6.347859e+00  -9.790077e+01
   1.191208e+02  -9.425593e+01
   1.809386e+02   4.479066e+01
   9.800428e+01   1.713576e+02
  -1.049995e+02   2.561811e+02
  -2.800567e+02   7.436432e+01
  -2.823648e+02  -6.609035e+01
  -8.486158e+01  -1.704582e+02
   2.582370e+01  -1.526282e+02
   8.555778e+01  -8.273400e+01
   7.035003e+01  -8.691144e+01
   8.017414e+01  -7.025038e+01
   1.032682e+02  -5.997449e+01
   1.271902e+02   3.521323e+01
   1.369902e+02   1.631418e+02
   7.277201e+01   2.273841e+02
  -7.598403e+01   1.914587e+02
  -1.739624e+02  -6.834476e-01
  -1.595531e+02  -1.178922e+02
  -1.625676e+01  -1.420715e+02
   5.895385e+01  -1.077395e+02
   7.446642e+01   2.178025e+01
  -4.152784e+00   4.539756e+01
  -8.919690e+00   3.416907e+01
   4.805803e+01   3.905119e-01
   7.646093e+01   2.270399e+01
   2.587791e+01   5.007595e+01
  -5.229882e+01   5.509724e+01
  -1.540990e+02   1.268657e+01
  -1.262509e+02  -2.007876e+01
  -1.218436e+01  -7.863556e+01
   1.181923e+02  -7.758112e+01
   1.279525e+02   1.140423e+00
   4.703168e+01   6.904888e+01
  -5.471693e+01   5.841360e+01
  -6.523268e+01  -2.906386e+01
  -4.921227e+00  -7.512651e+01
   5.915132e+01  -5.104880e+01
   8.236172e+01   5.165572e+01
   4.822029e+01   4.219921e+01
   4.753689e+01   6.162561e+01
   5.522998e+01  -6.256962e+00
   7.277235e+01  -7.042073e+00
   2.158356e+01   8.230045e+01
  -5.104288e+01   1.543289e+02
  -1.177813e+02   1.583833e+02
  -1.477087e+02   4.892082e+01
  -1.603554e+02  -9.603755e+01
   2.086289e+01  -1.316484e+02
   1.085571e+02  -1.527204e+01
   7.654984e+01   6.883547e+00
  -4.135258e+01   2.201452e+01
  -1.175851e+02  -5.253381e+01
  -6.685852e+01  -1.121910e+02
   6.552844e+01  -1.069138e+02
   1.928224e+02  -6.570365e+01
   1.741233e+02   1.029933e+01
   6.694795e+00   8.402142e+01
  -5.646473e+01   8.222766e+01
  -2.470853e+01  -1.163255e+01
   6.060525e+01   2.649793e+00
   8.408963e+01   3.932642e+01
   5.565968e+01   9.720594e+01
  -9.246407e+01   1.600981e+02
  -1.670258e+02   5.542910e+01
  -1.541400e+02  -9.421489e+01
   4.854387e+00  -1.889564e+02
   7.660901e+01  -1.352585e+02
   1.158886e+02   1.067204e+01
   6.729833e+01   1.198066e+02
   8.552392e+00   1.198530e+02
  -4.984659e+01   1.303275e+01
  -5.329795e+01  -3.347732e+01
  -6.043269e+01  -1.846402e+01
   1.290893e+01   5.612938e+00
  -1.163061e+01  -4.096661e+01
  -7.914697e+01  -8.828149e+01
  -5.316027e+01  -1.177718e+02
   4.818024e+01  -5.303493e+01
   1.369217e+02   1.116998e+01
   1.278820e+02   7.422909e+01
  -2.601250e+00   5.894238e+01
  -7.452188e+01   2.186230e+01
  -7.347305e+01   1.353613e+00
  -7.566385e+00  -2.694378e+01
   4.109302e+01  -4.912082e+01
   4.499211e+01  -5.147735e+00
  -1.235007e+01  -6.643736e+00
   1.220962e+01  -2.320318e+01
   7.465165e+01   2.045831e+01
   8.926141e+01   5.897969e+01
  -6.837778e+00   9.676522e+01
  -1.234653e+02   8.438075e+01
  -1.707149e+02   5.220085e+01
  -1.231045e+02  -7.993393e+01
  -1.302698e+01  -1.843080e+02
   6.881257e+01  -1.402216e+02
   1.158929e+02  -7.290073e+01
   8.260026e+01  -4.533678e-01
   2.629187e+01   4.604436e+01
   1.092885e+01   1.729964e+01
  -4.110343e+00   8.691552e+00
   3.354846e+01   4.744957e+01
   1.111774e+01   7.441642e+01
  -3.542655e+01   7.221455e+01
  -6.871163e+01  -1.517294e+01
  -4.160709e+01  -1.087778e+02
  -3.179154e+01  -7.485614e+01
   1.041707e+02  -1.274660e+01
   9.565315e+01   8.748636e+01
   2.632166e+01   1.023666e+02
  -5.837856e+01   6.853444e+01
  -1.003133e+02  -3.762639e+00
  -2.959299e+01  -6.578727e+01
   4.874544e+01  -3.954879e+01
   4.277968e+01  -2.276562e+01
  -3.298113e+01   6.832387e+00
  -8.576261e+01   2.156010e+01
  -2.823251e+00  -2.144398e+01
   9.496344e+01  -4.256974e+01
   6.749478e+01  -3.407980e+01
   8.035202e+01  -1.225124e+01
  -3.044166e+00   7.465638e+01
  -4.713541e+01   8.390625e+01
  -3.018133e+01   1.539133e+01
  -1.202790e+01  -5.871875e+01
   3.118597e+01  -4.837434e+01
   4.504782e+01   5.017854e+01
   4.105235e+01   4.955602e+01
  -3.142596e+00   2.517261e+01
  -2.939796e+01  -3.755374e+01
  -1.934499e+01  -2.114482e+01
   1.057826e+00   4.604820e+00
  -1.208160e+01   1.117894e+01
  -1.192250e+01  -1.209652e+01
   3.154680e+01  -6.006533e+01
   1.658102e+01  -4.284415e+01
   2.281026e+01  -1.140249e+01
   1.300775e+01   8.476288e+01
  -1.969080e+00   7.688585e+01
  -2.662371e+01  -1.749977e+01
  -5.022529e+01  -5.395134e+01
  -9.715712e+00  -6.367038e+01
   4.534559e+01  -4.858654e+01
   9.296344e+01   4.135002e+01
   7.396572e+01   5.063322e+01
  -4.123345e+01   4.563385e+01
  -6.729577e+01   1.968515e+01
  -1.661696e+01  -1.057701e+00
   2.790008e+01   6.269778e+00
   4.024742e+01   1.704946e+01
  -4.544988e+01   2.244978e+01
  -1.000447e+02   8.751477e-01
