
 $NMID
 id='ANONYMOUS ', fmtdat='(2E16.6)'
 volume=1.0
 tramp=1.0
 $END
   4.847143e+03   5.356741e+00
   2.861999e+03   2.795694e+03
  -8.685124e+02   3.197254e+03
  -2.372535e+03   9.381163e+02
  -1.152414e+03  -8.979743e+02
   7.457557e+02  -7.001011e+02
   1.057915e+03   4.882826e+02
  -2.082060e+01   1.230740e+03
  -9.749519e+02   9.019001e+02
  -1.080280e+03  -9.995663e+01
  -4.977719e+02  -9.679829e+02
   2.674242e+02  -9.753415e+02
   7.617848e+02  -1.044553e+02
   4.514082e+02   7.736793e+02
  -3.130861e+02   8.519273e+02
  -6.613596e+02  -1.991377e+01
  -2.865067e+02  -7.933741e+02
   3.554637e+02  -6.401168e+02
   5.855080e+02  -8.542209e+01
   3.858698e+02   4.212095e+02
   1.743913e+00   4.753702e+02
  -2.547405e+02   2.487814e+02
  -1.953268e+02  -1.009764e+01
   1.257425e+02  -1.034268e+02
   4.007572e+02   1.218220e+02
   2.490567e+02   4.394887e+02
  -4.702576e+02   4.829659e+02
  -9.249097e+02  -9.171714e+01
  -4.626082e+02  -5.883602e+02
   4.070275e+02  -5.360686e+02
   8.259750e+02  -1.095104e+01
   3.949168e+02   5.293594e+02
  -2.722509e+02   5.771556e+02
  -5.815471e+02   2.167340e+02
  -4.595623e+02  -2.441352e+02
  -9.962262e+01  -5.220934e+02
   2.219531e+02  -3.125764e+02
   2.223322e+02   2.270281e+02
  -1.406346e+02   5.020240e+02
  -5.019120e+02   1.876781e+01
  -3.312810e+02  -7.075390e+02
   3.463016e+02  -7.953326e+02
   6.575038e+02  -5.966446e+01
   3.094454e+02   5.987504e+02
  -3.447304e+02   4.127580e+02
  -4.585737e+02  -3.230590e+02
   3.909848e+01  -6.128082e+02
   5.667017e+02  -2.086611e+02
   6.437043e+02   3.702511e+02
   2.032999e+02   6.198878e+02
  -3.807690e+02   3.776953e+02
  -6.673187e+02  -4.753826e+01
  -3.955330e+02  -3.909552e+02
   1.820304e+02  -4.225273e+02
   4.811516e+02  -9.823228e+01
   2.493817e+02   2.361158e+02
  -1.521364e+02   1.408681e+02
  -1.852999e+02  -1.596733e+02
   1.512307e+02  -2.395982e+02
   3.467836e+02   5.682261e+01
   1.664507e+02   3.132526e+02
  -1.820543e+02   2.868625e+02
  -3.290271e+02   9.641153e+01
  -1.685331e+02  -4.868850e+01
   4.651315e+01  -2.183106e+02
   1.914418e+02  -3.422473e+02
   3.419101e+02  -2.263382e+02
   3.055804e+02   1.409328e+02
   9.603555e+01   4.444943e+02
  -1.001161e+02   4.057825e+02
  -1.245413e+02   1.195344e+02
  -4.814183e+01  -3.840640e+01
  -4.096799e+01   5.636992e+01
  -1.717510e+02   1.345300e+02
  -2.866343e+02  -1.195137e+01
  -1.739326e+02  -2.691535e+02
   5.050124e+01  -2.958015e+02
   2.063450e+02  -3.128970e+01
   2.144508e+02   2.147634e+02
   1.063722e+01   3.099847e+02
  -2.850081e+02   1.330687e+02
  -3.998921e+02  -1.474887e+02
  -2.183718e+02  -3.490218e+02
   9.229020e+01  -3.429521e+02
   2.757530e+02  -1.436334e+02
   1.667873e+02   3.869761e+01
   9.830450e+01  -2.901716e+01
   2.313586e+02  -9.878341e+01
   4.081077e+02   5.219195e+01
   3.780525e+02   2.792922e+02
   2.725557e+01   4.569969e+02
  -3.408964e+02   4.378514e+02
  -4.716520e+02   2.337231e+02
  -3.587328e+02  -7.061962e+01
  -9.937663e+01  -3.048469e+02
   1.082823e+02  -2.539342e+02
   9.906344e+01  -2.365367e+01
  -9.518879e+01   1.091655e+02
  -2.263886e+02   2.014336e+01
  -4.859267e+01  -2.027439e+02
   1.305722e+02  -2.147291e+02
   2.172953e+02   3.629675e+01
   2.250124e+00   2.024534e+02
  -2.128859e+02   5.643000e+01
  -1.920711e+02  -2.438231e+02
   3.032181e+01  -3.489577e+02
   2.180190e+02  -2.194409e+02
   3.196880e+02   4.658193e+01
   2.887278e+02   2.331699e+02
   9.286133e+01   2.487405e+02
  -8.840054e+01   1.728382e+02
  -1.862163e+02   5.635888e+01
  -6.791459e+01  -2.245409e+01
   1.413650e+02   4.429694e+01
   4.881988e+01   1.095359e+02
  -1.128424e+02   1.193472e+02
  -2.036173e+02   1.461786e+01
  -6.943292e+01  -8.745806e+01
   6.163312e+01  -1.333183e+01
   8.181523e+01   7.250693e+01
  -1.116379e+02   7.848063e+01
  -2.847239e+02   4.884222e+00
  -2.522518e+02  -8.510646e+01
  -5.003830e+01  -2.656386e+02
   1.598829e+02  -2.548272e+02
   3.052310e+02  -1.238595e+02
   1.961109e+02   4.848582e+01
  -4.740226e+01   1.244145e+02
  -1.068394e+02   5.170541e+00
   4.169065e+01  -1.312989e+02
   2.148174e+02  -9.914742e+01
   2.115660e+02   7.663186e+01
   5.079736e+01   2.193292e+02
  -9.052097e+01   1.602207e+02
  -1.319150e+02   2.804456e+01
  -8.193464e+01  -4.950942e+01
   1.584035e+01  -4.777770e+00
   6.629361e+01   6.983899e+01
  -6.987999e+01   1.228511e+02
  -2.006409e+02   2.764503e+01
  -1.978641e+02  -1.373269e+02
  -3.217445e+01  -2.212046e+02
   1.834531e+02  -1.542414e+02
   2.079534e+02  -2.674737e+01
   6.702188e+01   1.352398e+02
  -5.658039e+01   1.069686e+02
  -1.001406e+02   5.250017e+01
  -1.261474e+01  -2.666194e+01
   2.396953e+01  -1.120923e+01
   5.730134e+00   9.640272e+00
  -6.971342e+01  -2.077051e+01
  -9.208082e+01  -6.544048e+01
  -2.420122e+01  -1.867949e+02
   1.223823e+02  -1.686961e+02
   2.602369e+02  -5.682540e+01
   2.219698e+02   1.349437e+02
   3.782956e+01   2.451341e+02
  -1.021055e+02   1.782482e+02
  -1.326202e+02   5.819887e+00
  -7.439243e+01  -4.837260e+01
  -2.171659e+01  -4.551679e+01
  -5.989202e+01   1.899883e+00
  -1.055280e+02  -2.371168e+01
  -4.603807e+01  -5.508692e+01
   2.887571e+01  -8.931797e+01
   1.132197e+02  -6.360779e+01
   7.962662e+01   4.175201e+01
  -2.184042e+01   1.090746e+02
  -1.489354e+02   7.069873e+01
  -1.814355e+02  -3.899273e+01
  -1.040605e+02  -1.883341e+02
   1.381536e+02  -2.428799e+02
   3.001045e+02  -8.787901e+01
   2.711948e+02   8.974264e+01
   1.145353e+02   1.663503e+02
  -6.064339e+01   1.814182e+02
  -7.169602e+01   8.973893e+01
  -4.492993e+01   6.931707e+01
  -7.802460e+01   1.015996e+02
  -1.165348e+02   4.918885e+01
  -1.304351e+02  -5.350429e+01
  -1.336722e+02  -1.554615e+02
  -3.733842e+01  -2.119049e+02
   8.664928e+01  -1.634518e+02
   1.642093e+02  -3.338270e+01
   1.425267e+02   1.224372e+02
   1.374328e+01   1.559084e+02
  -8.604457e+01   8.561910e+01
  -5.450179e+01  -4.798084e+00
  -4.922832e+00  -4.754519e+01
   2.416579e+01  -3.177937e+01
  -1.475452e+01  -1.148908e+01
  -7.614882e+01  -9.578786e+00
  -4.410452e+01  -4.272791e+01
   2.992330e+01  -2.890884e+01
   1.413032e+02   4.259083e+00
   1.162566e+02   4.482210e+01
  -2.591217e+00   1.184643e+02
  -1.374062e+02   6.461241e+01
  -1.353364e+02   1.797810e+01
  -5.699788e+01  -6.492669e+01
   6.012130e+01  -5.149137e+01
   9.584874e+01   3.363451e+01
   1.228245e+01   4.527413e+01
  -7.832873e+01   4.664993e+01
  -8.891775e+01  -2.198938e+01
  -6.997250e+01  -7.489333e+01
  -6.315958e+01  -3.670923e+01
  -7.908630e+01   1.752178e+01
  -6.395237e+01  -1.466424e+01
  -3.656103e+01  -7.844820e+01
   4.747782e+01  -1.203611e+02
   1.047777e+02  -1.234452e+02
   1.360557e+02  -3.231588e+01
   1.490867e+02   9.261057e+01
   9.437007e+00   1.421755e+02
  -8.195196e+01   2.379355e+01
  -6.109606e+01  -6.065309e+00
   3.814195e+01  -1.058111e+00
   1.549400e+02   6.327513e+01
   1.012566e+02   1.047928e+02
  -7.079224e+01   1.241534e+02
  -1.847684e+02   6.129937e+01
  -1.655664e+02  -5.577795e+01
  -2.365416e+01  -8.313011e+01
   4.310634e+01  -7.746595e+01
   3.633128e+01  -2.003969e+01
  -6.151804e+01   4.230800e+00
  -6.803213e+01  -5.409483e+01
  -2.607537e+01  -1.355675e+02
   8.161353e+01  -1.710929e+02
   1.678451e+02  -4.892219e+01
   1.424476e+02   1.045899e+02
  -2.132152e+00   1.706756e+02
  -6.156675e+01   1.536543e+02
  -9.116380e+01  -1.056752e+01
  -7.988547e+01  -1.103984e+02
  -2.979197e+01  -1.231179e+02
   5.442296e+01  -9.639927e+00
   5.804797e+01   5.540737e+01
   3.585447e+01  -2.562776e+00
   9.917083e+00  -1.325130e+01
  -1.217383e+00   2.434361e+01
   7.035469e+01   9.148077e+01
   3.506054e+01   1.226542e+02
  -6.154279e+01   1.721392e+01
  -1.490743e+02  -2.704938e+01
  -1.384861e+02  -5.961851e+01
   5.512627e+00  -4.459175e+01
   9.402894e+01  -4.058613e+01
   7.200316e+01  -4.483338e+00
   3.514047e+01   1.530626e+01
  -5.585661e+01   3.787569e+01
  -4.069252e+01  -9.357826e+00
   2.128403e+01  -5.456919e+00
  -1.191325e+01  -1.640041e+01
  -8.565511e+01  -3.126488e+01
  -8.765536e+01  -7.217254e-01
  -1.274304e+01  -7.434330e+01
   1.220644e+02  -1.367778e+02
   1.888390e+02  -6.432143e+01
   1.324435e+02   7.929125e+01
   3.472969e+01   1.496442e+02
  -8.065466e+01   1.573706e+02
  -1.139706e+02   7.753949e+01
  -7.191470e+01  -3.643189e+01
  -7.968654e+00  -5.498907e+01
   7.244402e+00  -1.395328e+01
  -7.441778e+00  -8.508067e+00
  -2.619975e+01  -5.016670e+01
   9.525665e+00  -9.777438e+01
   5.649350e+01  -7.699261e+01
   6.994543e+01   2.545065e+01
   7.995968e+01   1.077076e+02
   1.380625e+01   1.158689e+02
  -8.104780e+01   2.528378e+01
  -7.933826e+01  -7.466750e+01
  -3.778307e+01  -8.204494e+01
   6.957461e+01  -6.043454e+01
   1.147700e+02   1.841299e+01
   1.955720e+01   6.311662e+01
  -2.194363e+01   7.439043e+01
  -3.230907e+01  -1.831268e+00
   6.592675e+00   1.948632e+01
   1.064972e+02  -1.032672e+01
   9.821641e+00   1.199396e+01
  -8.015534e+01   7.818849e+01
  -1.051648e+02   5.734951e+01
  -7.115280e+01  -7.716612e+00
  -6.310935e+00  -1.004202e+02
   4.875059e+01  -6.334412e+01
   3.886956e+01   1.499006e+01
   3.475903e+01   7.668513e+01
  -2.638504e+01   3.363677e+01
  -4.005949e+01  -1.078857e+01
  -2.253641e+01  -3.532046e+01
   5.431643e+00  -2.147579e+01
   3.692265e+01   1.202220e+01
   3.331474e+01   1.136249e+00
   2.807912e+01   5.444485e+00
  -8.050631e+00  -1.617230e+01
  -1.706272e+01  -6.173323e+00
   5.995678e+00   1.913483e+01
  -2.297265e+01   3.527754e+01
  -5.027969e+01   2.514341e+01
  -4.690190e+01  -6.580171e+01
   1.449280e+01  -5.212012e+01
   5.396247e+01  -2.511011e+00
   5.586616e+01   5.619355e+01
   2.373919e+01   4.986814e+01
  -3.049229e+01   1.863428e+01
  -9.780317e+01   1.464312e+01
  -5.263029e+01  -5.669702e+01
   2.426041e+01  -4.081014e+01
   7.418584e+01  -3.784274e+01
   3.651791e+00  -4.492011e+00
  -2.441712e+01   1.203838e+01
  -2.963758e+01  -2.293078e+01
   2.302625e+01  -2.565765e+01
   8.645640e+01  -1.808574e+01
