
 $NMID
 id='ANONYMOUS ', fmtdat='(2E16.6)'
 volume=1.0
 tramp=1.0
 $END
   4.685152e+03   1.580685e+02
   2.807099e+03   2.939397e+03
  -8.174723e+02   3.153661e+03
  -2.378135e+03   9.733991e+02
  -1.058094e+03  -8.713062e+02
   7.057993e+02  -7.035029e+02
   9.905558e+02   5.508464e+02
  -1.152300e+01   1.206018e+03
  -9.217677e+02   7.979063e+02
  -1.008714e+03  -1.342035e+02
  -4.816912e+02  -9.516000e+02
   2.648937e+02  -9.591224e+02
   6.935598e+02  -1.632064e+02
   4.359337e+02   7.384653e+02
  -2.622221e+02   8.454966e+02
  -6.394492e+02   1.593571e+01
  -2.426951e+02  -6.840425e+02
   3.783982e+02  -6.907533e+02
   6.057159e+02  -7.628798e+01
   4.299662e+02   4.078829e+02
  -9.464533e+00   4.765359e+02
  -3.082917e+02   2.901112e+02
  -2.290335e+02  -1.354160e+00
   7.841394e+01  -1.074830e+02
   4.105008e+02   4.872718e+01
   2.325330e+02   4.183843e+02
  -4.312974e+02   4.624488e+02
  -8.555042e+02  -4.734173e+01
  -4.522607e+02  -5.607951e+02
   4.164534e+02  -5.305446e+02
   7.724513e+02  -2.218086e+01
   3.527560e+02   5.143876e+02
  -2.692805e+02   5.516709e+02
  -6.245081e+02   2.033655e+02
  -4.345899e+02  -2.512737e+02
  -8.422302e+01  -5.148758e+02
   2.205771e+02  -3.134926e+02
   2.237091e+02   2.168935e+02
  -1.316794e+02   4.548198e+02
  -4.593055e+02   2.165901e+00
  -2.728865e+02  -6.749878e+02
   3.337531e+02  -7.621309e+02
   6.798784e+02  -2.792801e+01
   3.170007e+02   5.837828e+02
  -3.412841e+02   3.481189e+02
  -4.211353e+02  -3.166641e+02
   4.515220e+01  -5.403624e+02
   5.553286e+02  -1.838249e+02
   6.589664e+02   3.301049e+02
   1.810547e+02   6.120845e+02
  -3.704363e+02   3.670068e+02
  -6.448375e+02  -9.049216e+01
  -3.810888e+02  -4.274077e+02
   1.478719e+02  -4.576993e+02
   4.700172e+02  -1.011815e+02
   3.066879e+02   2.214480e+02
  -1.348770e+02   1.612122e+02
  -1.705807e+02  -1.110631e+02
   1.093743e+02  -2.249156e+02
   3.333577e+02   7.258984e+01
   1.322968e+02   3.021377e+02
  -2.298324e+02   2.548864e+02
  -3.138776e+02   5.541968e+01
  -1.874728e+02  -1.193740e+02
   4.049297e+01  -1.818959e+02
   2.177451e+02  -3.111052e+02
   3.329325e+02  -2.180502e+02
   2.866610e+02   1.730698e+02
   1.198195e+02   4.378186e+02
  -1.433468e+02   3.951193e+02
  -1.584660e+02   8.347207e+01
  -1.801767e+01  -5.330530e+01
  -2.523408e+01   5.022371e+01
  -1.478188e+02   1.297784e+02
  -2.453766e+02  -2.727217e+01
  -1.712833e+02  -2.259957e+02
   5.904861e+01  -2.741815e+02
   2.272769e+02  -2.612101e+01
   2.097027e+02   2.114204e+02
   2.024216e+01   2.531150e+02
  -2.834011e+02   1.381672e+02
  -3.413039e+02  -1.338300e+02
  -1.994311e+02  -3.565179e+02
   1.207860e+02  -3.181917e+02
   2.583149e+02  -1.282264e+02
   1.591761e+02   2.391435e+01
   8.819012e+01  -1.341001e+01
   2.204390e+02  -7.157201e+01
   4.015967e+02   5.469911e+01
   3.003238e+02   2.676445e+02
   7.393528e+00   4.273449e+02
  -3.348117e+02   3.915410e+02
  -4.884394e+02   1.598043e+02
  -3.657524e+02  -9.589987e+01
  -6.050427e+01  -3.090172e+02
   1.072895e+02  -2.321624e+02
   8.735486e+01  -1.366205e+01
  -5.783997e+01   1.133689e+02
  -2.347206e+02  -5.232543e-01
  -7.866564e+01  -1.972050e+02
   1.517196e+02  -1.860764e+02
   1.817100e+02   7.421328e+01
  -7.717014e+00   2.236357e+02
  -2.077295e+02   4.260307e+01
  -1.515920e+02  -2.501690e+02
   5.772684e+01  -3.677629e+02
   2.395752e+02  -1.842185e+02
   3.111456e+02   6.409641e+01
   2.502105e+02   2.145913e+02
   5.294667e+01   2.413336e+02
  -1.139443e+02   1.782214e+02
  -1.702015e+02   2.148785e+01
  -6.975802e+01  -5.661291e+01
   9.104389e+01   4.077679e+01
   4.464180e+01   1.184234e+02
  -1.006367e+02   9.057169e+01
  -2.063901e+02  -2.838912e+01
  -5.730484e+01  -5.066274e+01
   8.822907e+01   1.708174e+00
   7.239197e+01   5.214094e+01
  -1.098916e+02   8.220544e+01
  -2.800186e+02   6.244970e+00
  -2.299781e+02  -1.310492e+02
  -9.300378e+01  -2.599351e+02
   2.005485e+02  -2.525748e+02
   2.996748e+02  -1.173732e+02
   1.648529e+02   7.343352e+01
  -1.800384e+01   1.225492e+02
  -8.557861e+01   1.198835e+01
   1.435576e+01  -1.241541e+02
   1.837583e+02  -6.426857e+01
   1.954173e+02   1.053443e+02
   4.830488e+01   2.297010e+02
  -1.086637e+02   1.648153e+02
  -1.562022e+02   1.030359e+01
  -7.740125e+01  -4.103397e+01
   4.832822e+01  -4.608844e+00
   3.341329e+01   2.306464e+01
  -5.659635e+01   1.036537e+02
  -1.900197e+02   3.663006e+01
  -1.862946e+02  -1.032196e+02
  -5.023868e+01  -2.154146e+02
   2.025393e+02  -1.751277e+02
   1.889104e+02  -1.811111e+01
   8.837203e+01   1.307377e+02
  -5.036484e+01   1.205529e+02
  -8.116661e+01   3.938607e+01
  -4.584843e+01  -5.460214e+01
   2.428688e+01  -7.628228e+00
   7.350316e-01  -1.510482e+01
  -4.457092e+01  -2.480841e+01
  -7.437302e+01  -5.580897e+01
  -2.233802e+01  -1.271483e+02
   1.256009e+02  -1.365435e+02
   2.170659e+02  -4.386532e+01
   2.056144e+02   1.403645e+02
   6.000852e+01   2.297065e+02
  -8.667896e+01   1.627038e+02
  -1.603513e+02   5.965554e+01
  -5.062722e+01  -6.116146e+01
  -2.833677e+01  -4.459670e+01
  -4.370542e+01  -6.808698e+00
  -8.907303e+01   1.124362e+01
  -3.490109e+01  -5.218729e+01
   5.966495e+01  -8.996996e+01
   1.272612e+02  -3.692862e+01
   7.202186e+01   4.577738e+01
  -8.683399e-01   1.387690e+02
  -1.323367e+02   9.319182e+01
  -1.757391e+02  -7.724608e+01
  -8.961500e+01  -2.007610e+02
   1.103434e+02  -1.942608e+02
   2.631635e+02  -9.556719e+01
   2.659524e+02   8.903685e+01
   9.961774e+01   1.682850e+02
  -3.208245e+01   1.529553e+02
  -1.096418e+02   1.128380e+02
  -6.466356e+01   5.495998e+01
  -5.341465e+01   9.265464e+01
  -8.131977e+01   9.022897e+01
  -1.315913e+02  -3.130334e+01
  -9.910579e+01  -1.239266e+02
  -3.641447e+01  -2.395812e+02
   9.809038e+01  -1.593275e+02
   1.626095e+02  -5.710898e-01
   1.561271e+02   1.057845e+02
   6.510678e+00   1.394204e+02
  -5.383388e+01   8.712935e+01
  -8.271478e+01  -1.324965e+01
  -5.466065e+00  -2.498407e+01
   2.414514e+01  -1.861350e+01
  -4.262937e+01   4.812652e+00
  -7.129933e+01  -8.502962e+00
  -8.143549e+01  -7.210056e+01
   4.780183e+01   5.663637e-01
   1.402252e+02   4.104462e+00
   1.443197e+02   5.031373e+01
   1.984985e+01   8.231895e+01
  -1.193542e+02   5.850325e+01
  -1.182816e+02   3.072469e+01
  -4.486840e+01  -2.369658e+01
   4.156499e+01  -2.648823e+01
   4.346261e+01   2.821620e+01
   4.498495e+00   6.078566e+01
  -5.027289e+01   7.343996e+01
  -5.134307e+01   1.555006e+01
  -4.832241e+01  -6.938351e+01
  -5.619277e+01  -2.473386e+01
  -5.242981e+01   1.033116e+01
  -8.142542e+01  -4.629823e+00
  -3.445466e+01  -4.588234e+01
   3.196716e+01  -1.510121e+02
   1.201424e+02  -1.207437e+02
   1.549072e+02  -6.856856e+00
   1.122223e+02   9.363105e+01
   2.201224e+01   1.315394e+02
  -7.304100e+01   3.413035e+01
  -1.436336e+01  -1.470572e+01
   3.466779e+01  -2.183762e+01
   1.220733e+02   2.491246e+01
   7.203676e+01   1.255943e+02
  -7.975595e+01   8.326034e+01
  -1.861117e+02   5.533225e+01
  -1.620600e+02  -7.851356e+01
  -5.932358e+01  -9.545695e+01
   8.528216e+01  -4.484889e+01
   6.203649e+01  -9.661600e+00
  -2.902812e+01   2.421004e+01
  -1.038235e+02  -3.462566e+01
  -2.336202e+01  -1.089567e+02
   8.336805e+01  -1.683774e+02
   2.097545e+02  -4.011007e+01
   1.151230e+02   9.805733e+01
  -7.575006e+00   1.968631e+02
  -7.616183e+01   1.253892e+02
  -8.425363e+01  -1.726601e+01
  -4.826035e+01  -1.200939e+02
  -1.844314e+01  -1.079172e+02
   5.657207e+01  -1.509213e+01
   5.375529e+01   1.529906e+01
   1.962457e+01   9.376255e-01
  -1.823777e+01  -5.077724e+00
  -1.574146e+01   1.098240e+01
   1.454232e+01   7.077954e+01
   3.612320e+00   9.405048e+01
  -4.215816e+01   4.942043e+01
  -1.530591e+02  -5.662674e+01
  -1.232734e+02  -6.502884e+01
  -1.971187e+01  -4.455729e+01
   8.483972e+01  -5.108474e+01
   7.625298e+01  -2.422281e+01
   1.288810e+01  -1.416011e+01
  -3.220498e+01   2.221219e+01
  -2.705097e+01   3.589175e+01
  -2.534434e+00   1.510370e+01
  -6.478489e+00  -1.827911e+01
  -9.290337e+01  -1.016138e+01
  -7.428768e+01  -1.583156e+01
  -2.949735e+00  -6.724810e+01
   8.930751e+01  -1.177167e+02
   1.531338e+02  -6.631953e+01
   1.283453e+02   7.467772e+01
   1.334955e+01   1.670534e+02
  -6.940400e+01   1.576668e+02
  -8.863056e+01   4.771934e+01
  -7.928928e+01  -3.688688e+01
  -4.563023e+01  -3.067206e+01
   9.587781e+00  -2.615347e+01
  -4.199869e+01  -1.417541e+01
  -3.831970e+01  -1.845280e+01
  -2.793688e+01  -6.408387e+01
   8.054838e+00  -7.532676e+01
   9.781561e+01   1.262941e+01
   6.143073e+01   1.130141e+02
  -4.973769e+01   1.326940e+02
  -8.363289e+01   4.889778e+01
  -1.048465e+02  -7.780047e+01
  -2.170192e+01  -1.189653e+02
   6.970052e+01  -2.978016e+01
   9.796072e+01  -6.839128e-01
   5.024477e+01   3.851755e+01
  -3.069845e+01   6.865806e+01
  -2.974108e+01   5.310132e+00
   3.228851e+01   1.379997e+00
   6.893386e+01  -1.028908e+00
   3.284152e+01   2.970094e+01
  -9.445286e+01   7.641316e+01
  -1.227351e+02   2.567098e+01
  -7.193127e+01  -1.146707e+01
   2.961429e+01  -6.378330e+01
   3.441316e+01  -5.296408e+01
   3.513365e+01   3.004829e+00
  -1.112451e+01   5.226333e+01
  -3.331457e+01   2.970077e+01
  -3.445422e+01  -4.604317e+01
  -1.527674e+00  -5.444821e+01
   9.488227e+00  -3.018439e+01
   4.299819e+01   3.051435e+01
   3.289302e+01   2.080129e+01
   3.240481e+01  -5.781500e-02
  -2.275797e+01  -1.527097e+01
  -2.126476e+01   1.985594e+01
  -4.180578e+00   1.586968e+01
  -1.663754e+01   5.957062e+01
  -5.451719e+01   2.510064e+01
  -1.305717e+01  -3.579918e+01
  -4.618823e+00  -7.330886e+01
   5.208572e+01  -3.919860e+01
   5.138530e+01   1.830096e+01
   3.068989e+01   6.639894e+01
  -5.297804e+01   3.828732e+01
  -1.015749e+02   1.080526e+01
  -2.830957e+01  -5.297678e+01
   5.816010e+00  -4.601759e+01
   6.560106e+01  -4.390548e+01
   1.553328e+01  -2.423430e+01
  -3.411264e+01   1.451536e+01
  -4.692653e+01  -3.710104e+01
   2.258752e+01  -2.242781e+01
   8.625587e+01  -1.496551e+01
