
 $NMID
 id='ANONYMOUS ', fmtdat='(2E16.6)'
 volume=1.0
 tramp=1.0
 $END
   4.120098e+03  -4.340940e+02
   2.639619e+03   2.211707e+03
  -4.080177e+02   2.633171e+03
  -1.933537e+03   1.098138e+03
  -1.046914e+03  -4.320162e+02
   4.928927e+02  -5.603387e+02
   8.370385e+02   2.805701e+02
   3.912468e+01   9.345566e+02
  -7.907596e+02   7.884890e+02
  -9.248097e+02  -5.207484e+00
  -5.289627e+02  -7.955318e+02
   2.002248e+02  -8.567491e+02
   5.633761e+02  -1.533608e+02
   4.083408e+02   6.544549e+02
  -2.237931e+02   6.950709e+02
  -5.854175e+02   1.429870e+01
  -2.962300e+02  -6.339705e+02
   2.841425e+02  -6.402051e+02
   6.088170e+02  -1.400639e+02
   4.348882e+02   3.268622e+02
   6.207143e+01   4.303758e+02
  -2.351897e+02   2.887636e+02
  -1.996587e+02   3.445220e+01
   1.156569e+02  -8.093486e+01
   3.627402e+02   1.049716e+02
   1.738062e+02   4.265892e+02
  -4.196510e+02   3.570699e+02
  -8.282330e+02  -4.694917e+01
  -4.111986e+02  -5.002266e+02
   3.798972e+02  -4.476551e+02
   6.799476e+02   4.727493e+00
   2.867627e+02   4.475361e+02
  -2.682171e+02   4.748764e+02
  -5.216030e+02   1.714615e+02
  -3.755423e+02  -2.188038e+02
  -9.119609e+01  -3.936178e+02
   1.540526e+02  -2.674245e+02
   8.617128e+01   1.725776e+02
  -1.416347e+02   3.928945e+02
  -3.973373e+02  -3.514407e+01
  -2.557081e+02  -6.168233e+02
   2.571086e+02  -6.490747e+02
   5.774883e+02  -8.748677e+01
   2.560754e+02   4.721581e+02
  -2.311959e+02   3.001910e+02
  -3.647876e+02  -2.662273e+02
   9.254625e+01  -4.958507e+02
   5.480437e+02  -1.218411e+02
   5.788415e+02   3.632107e+02
   1.600577e+02   5.900114e+02
  -3.463263e+02   3.270365e+02
  -6.145324e+02  -3.248166e+01
  -3.686146e+02  -3.579503e+02
   1.049624e+02  -3.636499e+02
   4.032959e+02  -6.565242e+01
   2.559250e+02   1.569591e+02
  -9.144539e+01   1.090628e+02
  -1.491814e+02  -1.392228e+02
   1.595823e+02  -1.881657e+02
   3.307252e+02   5.610961e+01
   1.691583e+02   2.936524e+02
  -1.816770e+02   2.671248e+02
  -3.340152e+02   6.249374e+01
  -1.944338e+02  -1.046831e+02
   8.626672e+00  -2.409457e+02
   2.310987e+02  -3.613521e+02
   3.097046e+02  -2.319060e+02
   2.664238e+02   1.471913e+02
   8.531475e+01   4.303667e+02
  -1.123665e+02   3.676064e+02
  -8.640342e+01   1.149963e+02
  -3.105426e+01  -3.029172e+00
  -5.472812e+01   9.347452e+01
  -1.973043e+02   1.394037e+02
  -2.606444e+02  -5.749974e+01
  -1.919475e+02  -2.585364e+02
   5.262305e+01  -2.568555e+02
   1.802222e+02  -9.978727e+00
   1.651024e+02   2.391822e+02
  -3.497184e+01   3.036363e+02
  -2.764244e+02   6.917162e+01
  -3.818323e+02  -1.393882e+02
  -1.912876e+02  -3.455238e+02
   1.160816e+02  -2.917132e+02
   2.068259e+02  -1.342945e+02
   1.656527e+02  -3.160359e+01
   9.594567e+01  -3.818946e+01
   2.423525e+02  -4.797845e+01
   4.043534e+02   4.735381e+01
   2.803378e+02   3.024688e+02
  -7.947534e-02   4.503391e+02
  -3.468520e+02   4.031074e+02
  -4.719787e+02   2.276609e+02
  -3.266502e+02  -9.559255e+01
  -6.314903e+01  -2.456429e+02
   8.188893e+01  -2.727867e+02
   6.329129e+01  -3.557612e+01
  -9.814397e+01   1.181286e+02
  -1.343637e+02  -3.646748e+01
  -5.601288e+01  -1.842912e+02
   1.798130e+02  -1.504566e+02
   1.812510e+02   3.483294e+01
  -2.921220e+00   1.861764e+02
  -1.865296e+02   4.335195e+01
  -1.620600e+02  -2.256950e+02
   6.354493e+00  -3.672207e+02
   2.343881e+02  -1.931994e+02
   3.071158e+02   9.669275e+01
   2.470002e+02   2.225765e+02
   1.174762e+02   2.498336e+02
  -8.008683e+01   1.551916e+02
  -1.740432e+02   4.387017e+01
  -4.845450e+01  -1.004071e+01
   5.107772e+01   4.097475e+01
   1.592651e+01   1.391564e+02
  -1.086614e+02   9.812821e+01
  -1.582609e+02  -2.730781e+01
  -6.751361e+01  -3.964944e+01
   9.191060e+01  -1.307172e+00
   2.669303e+01   6.393737e+01
  -1.003424e+02   9.775628e+01
  -3.091125e+02   1.209882e+01
  -2.854645e+02  -1.201180e+02
  -7.533210e+01  -2.200723e+02
   1.712124e+02  -2.761274e+02
   2.596208e+02  -1.237372e+02
   1.620449e+02   2.920498e+01
   1.683668e+01   8.270817e+01
  -7.430983e+01   1.424687e+01
   3.954026e+01  -9.032121e+01
   1.991040e+02  -8.438522e+01
   2.357922e+02   1.014040e+02
   5.490141e+01   1.925653e+02
  -8.811566e+01   1.738982e+02
  -1.077730e+02   3.406451e+01
  -8.788719e+01  -4.014198e+01
   2.735470e+01   4.491140e+00
   2.193190e+01   8.594756e+01
  -9.733454e+01   1.033356e+02
  -1.953499e+02   2.101600e+01
  -1.848040e+02  -1.052685e+02
  -3.998281e+01  -2.067616e+02
   1.543515e+02  -2.026767e+02
   1.727826e+02  -2.070972e+00
   6.363213e+01   1.124711e+02
  -5.153483e+01   8.766937e+01
  -7.381810e+01   4.246926e+01
  -2.482053e+01  -3.723836e+00
   8.857803e+00  -2.569977e+01
  -1.554312e+01   2.432600e+01
  -5.120081e+01  -2.364013e+01
  -1.094361e+02  -6.841399e+01
   2.762027e+01  -1.525896e+02
   1.260967e+02  -1.523236e+02
   2.481454e+02  -4.037937e+01
   1.730606e+02   1.181450e+02
   3.096324e+01   2.386704e+02
  -1.127715e+02   1.871830e+02
  -1.377992e+02   2.230428e+01
  -9.748826e+01  -1.420663e+01
  -3.802481e+01  -4.121094e+01
  -4.705017e+01   8.720313e+00
  -8.735405e+01   1.091331e+01
  -1.803795e+01  -6.415148e+01
   4.610785e+01  -6.714048e+01
   1.180424e+02  -3.241688e+01
   8.023623e+01   3.653588e+01
  -3.456112e+01   1.264229e+02
  -1.088430e+02   1.323817e+02
  -1.899152e+02  -4.620186e+01
  -1.151828e+02  -2.010263e+02
   1.014333e+02  -2.124135e+02
   2.591080e+02  -1.085252e+02
   2.525044e+02   5.547157e+01
   1.157139e+02   1.802696e+02
  -4.801675e+01   1.694099e+02
  -8.963190e+01   1.169803e+02
  -8.500872e+01   8.708196e+01
  -8.581336e+01   8.883049e+01
  -9.938362e+01   7.453237e+01
  -1.167179e+02  -2.855190e+01
  -1.178601e+02  -1.642360e+02
  -3.500039e+01  -1.914503e+02
   1.186007e+02  -1.572870e+02
   1.471402e+02  -1.626936e+01
   1.293230e+02   1.273102e+02
  -1.632238e+01   1.752707e+02
  -6.044885e+01   9.774484e+01
  -5.577364e+01  -1.707519e+01
   1.693436e+01  -4.679359e+01
   1.138742e+01  -3.521223e+01
  -3.623800e+01  -7.335857e+00
  -6.511336e+01  -2.489625e+01
  -2.503436e+01  -4.880838e+01
   6.910117e+01  -4.043631e+01
   1.598140e+02  -9.440105e+00
   1.496204e+02   4.549980e+01
   1.707986e+01   7.428505e+01
  -1.218910e+02   7.656760e+01
  -1.317951e+02   2.020720e+01
  -4.692763e+01  -4.173719e+01
   8.497246e+01  -2.125201e+01
   5.982067e+01   5.744523e+01
   2.764851e+00   7.460127e+01
  -3.453697e+01   8.902851e+01
  -8.444323e+01  -4.429495e+00
  -3.848192e+01  -5.639806e+01
  -4.223192e+01  -5.186105e+01
  -5.413483e+01   1.930042e+01
  -7.196561e+01  -1.383241e+01
  -1.839577e+01  -5.653260e+01
   2.724730e+01  -1.267005e+02
   1.004294e+02  -1.204668e+02
   1.894799e+02  -4.707241e+00
   1.110875e+02   8.341222e+01
  -1.168146e+00   9.890285e+01
  -9.395247e+01   5.625191e+01
  -4.621720e+01  -1.296681e+01
   8.452319e+01  -1.026614e+01
   1.227306e+02   1.677383e+01
   8.504900e+01   9.882117e+01
  -7.013372e+01   1.019583e+02
  -2.231304e+02   4.400547e+01
  -1.471609e+02  -3.899292e+01
  -3.636184e+01  -6.471328e+01
   2.695248e+01  -6.067793e+01
   3.323326e+01   1.655601e+01
  -4.996452e+01   4.853403e+01
  -7.934603e+01  -2.154844e+01
  -5.480985e+01  -1.300013e+02
   1.152273e+02  -1.451952e+02
   1.973581e+02  -5.665070e+01
   1.495623e+02   9.797262e+01
  -1.478208e+01   2.141141e+02
  -9.367447e+01   1.383028e+02
  -1.193430e+02   8.600074e+00
  -7.477209e+01  -1.180271e+02
   1.493668e+01  -1.159906e+02
   5.786046e+01  -1.878305e+00
   4.747168e+01   2.775802e+01
   3.428904e+01  -1.127508e+01
   1.149227e+01  -1.336255e+01
   2.142566e+01   1.058556e+01
   7.070694e+01   9.297910e+01
   3.975723e+01   1.149975e+02
  -3.856534e+01   3.932748e+01
  -1.396112e+02  -3.284306e+01
  -1.404927e+02  -6.573363e+01
   1.942455e+01  -2.071620e+01
   7.942535e+01  -2.469328e+01
   8.235075e+01  -4.609502e+01
   2.156407e+01   8.673889e-01
  -4.182637e+01   2.575629e+01
  -1.598761e+01   2.412699e+01
  -7.128840e+00   7.283567e+00
  -8.320926e+00   5.364723e+00
  -1.041976e+02  -1.502414e+01
  -7.001335e+01  -2.750241e+01
  -1.675925e+01  -7.302831e+01
   1.038200e+02  -1.146886e+02
   1.921297e+02  -5.122304e+01
   1.357929e+02   5.440743e+01
   6.669412e+01   1.337700e+02
  -6.293478e+01   1.497242e+02
  -9.548514e+01   9.627659e+01
  -6.293983e+01  -1.804345e+01
  -2.929763e+01  -2.770128e+01
   2.498852e+00  -1.704014e+01
  -1.142641e+01  -9.210466e+00
  -1.442218e+01  -2.953302e+01
  -5.122200e+01  -9.963192e+01
   1.772997e+01  -6.666230e+01
   7.175004e+01   1.646802e+01
   7.865301e+01   1.144789e+02
  -1.200154e+01   1.105103e+02
  -8.051943e+01   2.599737e+01
  -8.937999e+01  -6.317124e+01
  -1.704632e+01  -1.191476e+02
   4.706732e+01  -5.440676e+01
   7.035521e+01   1.364395e+01
   4.573287e+01   4.826169e+01
  -4.008158e+01   3.463533e+01
  -2.885286e+01   1.809006e+01
   4.115329e+01  -1.115016e+01
   6.344358e+01  -1.518707e+00
   1.916131e+01   3.881464e+01
  -7.345095e+01   4.775401e+01
  -1.107465e+02   7.017566e+01
  -8.103480e+01  -2.950616e+01
   6.072635e-01  -5.971705e+01
   6.985259e+01  -6.754346e+01
   8.077167e+00  -2.844256e+00
   1.815228e-01   5.980278e+01
  -2.277081e+01   5.608628e+01
  -1.777925e+01  -3.750787e+01
  -5.829423e+01  -4.500050e+01
   4.043265e-01  -5.174801e+01
   3.385657e+01  -1.016461e+01
   2.844604e+01   1.084621e+01
   1.731010e+01   5.399365e+00
   2.965027e+00  -2.463578e+01
  -3.570280e+00  -4.373895e+00
   1.585313e+01   2.982677e+01
  -1.476061e+01   4.254409e+01
  -3.085460e+01   2.997510e+01
  -5.547286e+01  -7.112262e+01
   1.667638e+01  -4.637892e+01
   4.346778e+01  -8.555825e+00
   6.226015e+01   5.109470e+01
   2.557089e+01   4.830884e+01
  -6.962598e+01   5.893780e+01
  -8.729070e+01  -5.286805e+01
  -5.403608e+01  -3.824065e+01
   2.008496e+01  -4.529653e+01
   5.155552e+01  -3.565780e+01
   8.442308e+00  -2.031562e+01
  -4.120058e+01  -9.326472e+00
  -6.033737e+01  -1.650775e+01
   3.371623e+01  -4.092426e+01
   6.465296e+01  -1.945574e+01
