
 $NMID
 id='ANONYMOUS ', fmtdat='(2E16.6)'
 volume=1.0
 tramp=1.0
 $END
   4.635559e+03   2.371079e+02
   2.407410e+03   2.835928e+03
  -9.771305e+02   2.844718e+03
  -2.299856e+03   8.332556e+02
  -9.756873e+02  -8.122548e+02
   8.469015e+02  -6.761863e+02
   9.552896e+02   5.059703e+02
  -4.975571e+01   1.133933e+03
  -9.086053e+02   8.683885e+02
  -1.026439e+03  -1.658428e+02
  -4.302596e+02  -1.003385e+03
   2.999671e+02  -9.653443e+02
   7.222571e+02  -8.183296e+01
   3.984589e+02   8.058356e+02
  -2.791769e+02   8.256017e+02
  -6.780001e+02   1.497741e+01
  -3.317962e+02  -7.469787e+02
   4.003929e+02  -7.011439e+02
   6.778399e+02  -4.143375e+01
   3.724939e+02   4.003447e+02
   2.291313e+01   4.688111e+02
  -2.841122e+02   2.809367e+02
  -2.792455e+02  -1.829676e+01
   1.380044e+02  -1.312315e+02
   4.655526e+02   5.195943e+01
   2.632447e+02   4.788962e+02
  -4.525048e+02   5.185675e+02
  -9.275638e+02  -5.886434e+01
  -4.743497e+02  -6.251705e+02
   4.006327e+02  -5.597408e+02
   8.406355e+02   8.801799e-01
   3.767615e+02   5.436185e+02
  -3.133113e+02   5.808619e+02
  -6.116984e+02   1.906523e+02
  -4.401370e+02  -2.766066e+02
  -5.792437e+01  -5.073737e+02
   2.481144e+02  -3.174645e+02
   1.780582e+02   2.607992e+02
  -1.741214e+02   5.013035e+02
  -4.725189e+02  -2.555554e+00
  -3.329562e+02  -6.742835e+02
   3.539497e+02  -7.162659e+02
   6.806516e+02   1.726092e+01
   2.916590e+02   6.098111e+02
  -3.314336e+02   3.322383e+02
  -4.243126e+02  -3.261835e+02
   9.846043e+01  -5.951311e+02
   6.405204e+02  -1.004599e+02
   6.481320e+02   4.445812e+02
   1.412374e+02   6.367067e+02
  -4.200881e+02   3.975892e+02
  -6.952433e+02  -9.379706e+01
  -3.367640e+02  -4.477364e+02
   1.732968e+02  -4.146768e+02
   4.965125e+02  -4.825300e+01
   2.575098e+02   2.356118e+02
  -1.559904e+02   1.195613e+02
  -1.579739e+02  -1.735189e+02
   1.849576e+02  -2.460539e+02
   4.077652e+02   6.919076e+01
   1.640661e+02   3.521927e+02
  -2.065978e+02   2.546714e+02
  -3.507621e+02   7.086257e+01
  -2.051722e+02  -1.061394e+02
   4.304371e+01  -2.320533e+02
   2.177846e+02  -3.364136e+02
   3.475243e+02  -2.550560e+02
   3.075585e+02   1.628676e+02
   5.855494e+01   4.765184e+02
  -1.505672e+02   3.988308e+02
  -1.387331e+02   1.208975e+02
  -1.957498e+01  -4.044055e+01
  -1.854469e+01   7.928011e+01
  -1.925029e+02   1.417701e+02
  -2.950096e+02  -4.321113e+01
  -1.873994e+02  -2.961567e+02
   1.085414e+02  -2.877384e+02
   2.355363e+02  -4.144582e+01
   1.811663e+02   2.682708e+02
   5.022095e+00   3.108385e+02
  -2.915902e+02   8.026818e+01
  -3.557681e+02  -1.953731e+02
  -1.793200e+02  -3.815955e+02
   1.142463e+02  -2.997513e+02
   2.725131e+02  -9.090070e+01
   1.370314e+02   7.520951e-01
   1.115060e+02  -2.283271e+01
   2.289140e+02  -7.466084e+01
   3.746844e+02   7.643497e+01
   3.188445e+02   3.233988e+02
  -9.807599e+00   4.440085e+02
  -3.460498e+02   4.316037e+02
  -5.139233e+02   2.189600e+02
  -3.577391e+02  -1.100426e+02
  -5.660543e+01  -3.107768e+02
   1.582893e+02  -2.791577e+02
   9.054440e+01  -3.400456e+01
  -1.054194e+02   1.270253e+02
  -2.250528e+02  -1.275297e+01
  -5.922521e+01  -2.379149e+02
   1.650703e+02  -1.948490e+02
   1.578493e+02   4.761572e+01
   7.714265e+00   1.976132e+02
  -2.003893e+02   2.905885e+01
  -1.479645e+02  -2.477835e+02
   4.689205e+01  -3.885993e+02
   2.387395e+02  -2.057787e+02
   3.408083e+02   6.367347e+01
   2.862757e+02   2.324239e+02
   1.026896e+02   2.975022e+02
  -1.336426e+02   1.510572e+02
  -2.030930e+02  -3.997969e+00
  -5.318362e+01  -4.593757e+01
   7.373646e+01   2.519641e+01
   4.636438e+01   1.416374e+02
  -1.177384e+02   1.354541e+02
  -2.151793e+02  -2.529211e+01
  -5.439289e+01  -9.277395e+01
   7.376357e+01  -2.361577e+01
   5.422148e+01   6.504377e+01
  -1.228047e+02   9.812147e+01
  -2.634670e+02  -1.962418e+01
  -2.540915e+02  -1.556308e+02
  -8.841441e+01  -2.452954e+02
   1.895562e+02  -2.720313e+02
   2.916226e+02  -1.213756e+02
   1.515491e+02   7.766377e+01
  -2.099622e+01   1.204827e+02
  -1.008796e+02  -4.144510e+00
   3.494814e+01  -1.121171e+02
   2.220683e+02  -7.936605e+01
   2.111752e+02   1.306442e+02
   8.533752e+01   2.359416e+02
  -9.863516e+01   1.462388e+02
  -1.379311e+02   2.794365e+01
  -8.920297e+01  -3.881791e+01
   4.065671e+01  -2.488022e+01
   3.317651e+01   8.095700e+01
  -6.496766e+01   8.955401e+01
  -1.998164e+02   5.605264e+01
  -2.082751e+02  -8.163975e+01
   9.516812e+00  -2.195128e+02
   1.498967e+02  -1.449864e+02
   1.985020e+02  -1.584857e+01
   4.695530e+01   1.287712e+02
  -7.013789e+01   1.155147e+02
  -1.021105e+02   2.704488e+01
  -2.012415e+01  -1.491180e+01
   5.806737e+01  -1.912987e+01
   3.176271e+00   8.790829e+00
  -7.173550e+01  -2.581609e+01
  -8.950482e+01  -7.517435e+01
  -2.449312e+01  -1.696167e+02
   9.979940e+01  -1.594946e+02
   2.313353e+02   2.678321e+00
   2.194715e+02   1.501528e+02
   2.803924e+01   2.216441e+02
  -1.399699e+02   1.920421e+02
  -1.310786e+02   2.504560e+01
  -6.811973e+01  -6.362807e+01
  -3.931442e+01  -4.372011e+01
  -6.666041e+01  -2.095668e+01
  -6.884596e+01   9.150416e+00
  -4.064882e+01  -3.799705e+01
   7.740183e+01  -1.000663e+02
   1.018194e+02  -4.058755e+01
   5.464357e+01   6.209422e+00
  -8.076975e+00   1.102552e+02
  -1.611837e+02   6.602912e+01
  -1.670057e+02  -6.558413e+01
  -1.237588e+02  -2.177423e+02
   1.182300e+02  -2.242524e+02
   2.562986e+02  -1.062752e+02
   2.728009e+02   6.903020e+01
   1.175655e+02   1.834848e+02
  -3.279202e+01   1.435570e+02
  -8.042746e+01   1.139034e+02
  -6.526703e+01   6.700808e+01
  -6.631040e+01   1.115823e+02
  -7.927139e+01   8.223670e+01
  -1.634561e+02  -4.441031e+01
  -1.218795e+02  -1.643691e+02
  -2.114166e+01  -2.236902e+02
   1.248716e+02  -1.589217e+02
   1.791890e+02  -2.530246e+00
   1.834631e+02   1.329595e+02
   2.544100e+01   1.501132e+02
  -8.757174e+01   9.782582e+01
  -4.781919e+01  -6.830468e+00
   1.845911e+01  -5.146266e+01
   1.473181e+01  -4.722368e+01
  -2.837390e+01  -2.853375e+01
  -6.866063e+01  -3.467827e+01
  -3.128450e+01  -3.737083e+01
   7.258998e+01  -6.425089e+00
   1.475759e+02   3.881489e-01
   1.539596e+02   4.205127e+01
   2.784165e+01   8.486564e+01
  -1.222718e+02   6.603666e+01
  -1.504926e+02   2.964039e+01
  -2.468836e+01  -5.599531e+01
   8.407454e+01  -3.746836e+01
   7.335897e+01   3.613940e-01
  -2.082483e+01   6.741420e+01
  -5.292421e+01   4.802893e+01
  -5.054722e+01  -3.737396e+00
  -2.603059e+01  -5.314044e+01
  -2.979672e+01  -4.411495e+01
  -6.204186e+01  -1.262202e+00
  -5.687819e+01  -2.824515e+01
  -3.955576e+01  -6.915479e+01
   6.919698e+01  -1.656920e+02
   1.360522e+02  -1.461324e+02
   1.679292e+02   1.161213e+01
   1.090928e+02   1.278686e+02
   3.313031e+01   1.281598e+02
  -9.297169e+01   4.981933e+01
  -7.909693e+01  -2.795866e+01
   5.117489e+01  -2.496065e+01
   1.447800e+02   6.227578e+01
   7.909074e+01   1.175578e+02
  -7.818451e+01   9.502624e+01
  -1.945238e+02   3.150182e+01
  -1.470267e+02  -3.885841e+01
  -2.703718e+01  -7.645945e+01
   8.607218e+01  -6.600346e+01
   6.091072e+01  -2.430226e+01
  -5.085789e+01   3.675185e+01
  -7.695329e+01  -3.777110e+01
  -1.979160e+01  -1.279481e+02
   1.076712e+02  -1.523129e+02
   1.617992e+02  -5.126537e+01
   1.263875e+02   1.025474e+02
   1.190131e+01   1.767990e+02
  -8.961289e+01   1.018625e+02
  -1.208494e+02  -2.776583e+01
  -6.323282e+01  -1.218523e+02
   2.127893e+00  -9.639482e+01
   4.289431e+01  -9.388379e+00
   3.822567e+01   1.762387e+01
   1.299733e+01   2.975592e+01
   4.207828e+00  -1.052058e-01
   2.402508e+01   2.077288e+01
   6.831284e+01   1.009982e+02
   4.647903e+01   1.245790e+02
  -2.815048e+01   5.415322e+01
  -1.374072e+02  -2.369481e+01
  -1.050218e+02  -1.112140e+02
  -1.747663e+01  -7.796423e+01
   1.045289e+02  -8.465358e+00
   9.297218e+01  -7.592453e+00
  -7.114212e+00   1.546702e+01
  -3.135184e+01  -2.507407e+01
  -6.648275e+00   2.526000e+01
   2.665335e+01  -1.759313e+01
   2.468035e+00  -2.452429e+01
  -6.366962e+01   4.149481e+00
  -7.969096e+01  -2.146866e+01
   1.597424e+01  -9.953997e+01
   1.178255e+02  -1.013958e+02
   1.567414e+02  -1.750373e+01
   1.151851e+02   5.239284e+01
   1.356628e+01   1.668109e+02
  -7.735821e+01   1.508210e+02
  -1.230418e+02   8.099849e+01
  -7.958303e+01  -2.144924e+01
  -2.838513e+01  -2.088716e+01
  -3.510127e+01  -1.137380e+01
  -3.255901e+01   3.221319e+01
  -4.097186e+01  -5.413004e+01
  -3.466447e+01  -9.674746e+01
   5.568599e+00  -4.032226e+01
   1.015394e+02   8.377317e+00
   8.709583e+01   1.040602e+02
  -4.691683e+00   1.107175e+02
  -6.813651e+01   2.173740e+00
  -8.534722e+01  -8.592905e+01
  -3.229872e+01  -9.126325e+01
   6.737793e+01  -4.716794e+01
   7.946736e+01   2.120039e+01
   2.792868e+01   5.453009e+01
  -4.081036e+01   1.420508e+01
  -2.974809e+01   3.171479e+01
   4.685005e+01  -7.403104e+00
   8.875499e+01   3.855165e+00
   2.182264e+01   3.440252e+01
  -9.603973e+01   5.956565e+01
  -8.573939e+01   4.134035e+01
  -8.986779e+01  -1.071055e+01
  -7.418910e+00  -7.260699e+01
   4.890574e+01  -8.606971e+01
   2.998886e+01  -1.085310e+01
  -6.629433e+00   6.603930e+01
  -3.333122e+01   2.955244e+01
  -3.705920e+01  -2.015571e+01
  -6.655502e+00  -2.892824e+01
   6.417515e+00  -3.321509e+00
   4.849351e+01   1.737524e+01
   3.177076e+01   6.772979e+00
   8.517137e+00   1.290625e+01
  -6.375733e+00  -1.708607e+01
  -1.354423e+01   8.088473e+00
  -2.627431e+01   4.291975e+01
  -2.094740e+01   2.381321e+01
  -3.447726e+01   1.437611e+00
  -2.452676e+01  -7.727375e+01
   5.291788e+00  -5.286961e+01
   4.914916e+01   3.044258e+00
   5.739188e+01   1.945792e+01
   3.293225e+01   7.461197e+01
  -5.668514e+01   2.243698e+01
  -8.261718e+01  -3.763805e-01
  -3.508536e+01  -5.141848e+01
   2.896790e+01  -3.090007e+01
   6.177081e+01  -1.225460e+01
  -5.973675e+00  -8.950734e+00
  -1.291742e+01  -2.854127e+01
  -3.235904e+01  -2.106289e+01
   3.808845e+01  -3.606724e+01
   1.041107e+02  -4.438918e-01
