
 $NMID
 id='ANONYMOUS ', fmtdat='(2E16.6)'
 volume=1.0
 tramp=1.0
 $END
  -4.197586e+03   2.654981e+02
  -2.620063e+03  -2.350450e+03
   5.436443e+02  -2.760676e+03
   2.113376e+03  -1.053804e+03
   1.026549e+03   5.590851e+02
  -6.016230e+02   5.950998e+02
  -8.872515e+02  -3.286472e+02
  -2.545010e+01  -9.790417e+02
   8.327429e+02  -8.167616e+02
   9.415858e+02   6.468755e+01
   4.918492e+02   8.462835e+02
  -2.305115e+02   9.155391e+02
  -6.083117e+02   1.338682e+02
  -4.589046e+02  -6.992108e+02
   2.486528e+02  -7.802684e+02
   6.173963e+02  -2.452600e+01
   3.269505e+02   6.742264e+02
  -3.054317e+02   7.039245e+02
  -6.190399e+02   9.169915e+01
  -4.170857e+02  -3.639346e+02
  -2.871362e-01  -4.816835e+02
   2.670296e+02  -3.012241e+02
   2.152667e+02  -4.279664e+01
  -1.218357e+02   6.476932e+01
  -3.883861e+02  -1.102717e+02
  -2.033839e+02  -3.893212e+02
   4.266066e+02  -4.100307e+02
   8.404506e+02  -5.857378e+00
   4.608293e+02   5.390896e+02
  -3.792797e+02   4.987954e+02
  -7.365927e+02  -2.776572e+01
  -3.210262e+02  -4.620104e+02
   2.753824e+02  -5.109033e+02
   5.860236e+02  -2.051094e+02
   3.871193e+02   2.374738e+02
   7.210189e+01   4.515328e+02
  -1.740432e+02   2.960636e+02
  -1.550980e+02  -1.928360e+02
   1.495569e+02  -4.240359e+02
   4.383401e+02  -4.111279e+01
   3.006132e+02   6.291242e+02
  -2.935633e+02   6.837990e+02
  -5.970649e+02   8.890515e+01
  -2.459831e+02  -5.213856e+02
   2.305858e+02  -3.169820e+02
   3.486830e+02   2.799973e+02
  -6.032354e+01   5.348617e+02
  -5.548575e+02   1.469579e+02
  -5.740516e+02  -4.013474e+02
  -1.627911e+02  -6.031709e+02
   3.516566e+02  -3.387494e+02
   6.583619e+02   9.096078e+01
   3.949487e+02   3.722834e+02
  -1.274196e+02   3.720463e+02
  -4.625112e+02   7.485656e+01
  -2.689229e+02  -1.573858e+02
   1.040193e+02  -1.535160e+02
   1.595062e+02   1.504929e+02
  -1.512199e+02   1.749603e+02
  -3.389344e+02  -5.805792e+01
  -1.649870e+02  -2.904397e+02
   2.154941e+02  -2.653683e+02
   3.228202e+02  -6.642453e+01
   1.954324e+02   1.064434e+02
  -1.867724e+01   2.238344e+02
  -1.934939e+02   3.269074e+02
  -3.047481e+02   2.287921e+02
  -2.939554e+02  -1.308299e+02
  -6.524870e+01  -4.518390e+02
   1.392221e+02  -3.861320e+02
   8.720592e+01  -1.456764e+02
   2.388108e+01   9.000058e+00
   4.387507e+01  -7.594936e+01
   1.782231e+02  -1.287573e+02
   2.774537e+02   5.561466e+00
   1.999413e+02   2.467242e+02
  -6.267803e+01   2.418141e+02
  -2.109305e+02   5.974914e+00
  -1.645633e+02  -2.416495e+02
   2.556917e+01  -2.886699e+02
   2.825693e+02  -9.763833e+01
   3.622480e+02   1.605610e+02
   1.561335e+02   3.607078e+02
  -9.790270e+01   3.210284e+02
  -2.343291e+02   1.302484e+02
  -1.538256e+02   2.243380e+01
  -8.800597e+01   6.253153e+01
  -2.108830e+02   6.984749e+01
  -3.993926e+02  -4.725917e+01
  -3.259379e+02  -3.371743e+02
  -2.404538e+01  -4.387593e+02
   3.332613e+02  -4.289058e+02
   5.010491e+02  -2.140457e+02
   3.261962e+02   9.191583e+01
   8.872701e+01   2.685718e+02
  -1.025191e+02   2.481504e+02
  -8.553919e+01   4.520328e+01
   8.322773e+01  -1.198618e+02
   1.733656e+02   1.420343e+01
   5.344531e+01   1.964204e+02
  -1.387965e+02   2.045817e+02
  -1.770941e+02  -4.443515e+01
   3.222242e+01  -1.825928e+02
   1.928899e+02  -6.426293e+01
   1.616552e+02   2.507064e+02
   1.516812e+00   3.577076e+02
  -2.629000e+02   1.955211e+02
  -3.320014e+02  -6.910561e+01
  -2.853073e+02  -2.497317e+02
  -1.007278e+02  -2.489136e+02
   1.033959e+02  -1.230072e+02
   1.637600e+02  -2.618646e+01
   3.112347e+01   2.038462e+01
  -5.729513e+01  -2.155468e+01
  -1.929740e+01  -1.220740e+02
   1.162682e+02  -8.564052e+01
   1.716545e+02   1.396908e+01
   6.348939e+01   9.230488e+01
  -8.347327e+01   2.373307e+01
  -5.805947e+01  -6.723584e+01
   9.814933e+01  -1.081917e+02
   2.758806e+02   4.455151e+00
   2.564484e+02   1.135282e+02
   6.476882e+01   2.388213e+02
  -1.932456e+02   2.673589e+02
  -2.936968e+02   1.521186e+02
  -1.980112e+02  -3.023069e+01
   2.338445e+01  -1.300943e+02
   1.026989e+02  -3.146532e+01
  -3.054512e+01   9.555792e+01
  -2.371471e+02   8.454530e+01
  -2.453421e+02  -9.183745e+01
  -9.354459e+01  -1.989339e+02
   9.806323e+01  -1.783509e+02
   1.548477e+02  -4.771158e+01
   7.769452e+01   3.949128e+01
  -1.902383e+01   4.744246e+00
  -5.931736e+01  -8.006470e+01
   6.621290e+01  -1.145657e+02
   2.075744e+02  -4.354895e+01
   1.977996e+02   1.085523e+02
   1.705327e+01   2.335281e+02
  -1.572745e+02   1.768110e+02
  -2.166870e+02   2.059700e+01
  -8.950446e+01  -7.418552e+01
   5.759643e+01  -1.055419e+02
   6.146382e+01  -1.133888e+01
   1.243773e+01   5.480666e+00
  -3.151596e+01  -9.449149e+00
  -5.225874e+00  -7.265036e+00
   5.399880e+01  -1.572101e+01
   7.919509e+01   7.527006e+01
   7.095992e-01   1.516920e+02
  -1.071242e+02   1.199303e+02
  -2.394301e+02   2.701032e+01
  -1.824265e+02  -1.410367e+02
  -4.154079e+01  -2.147029e+02
   1.381804e+02  -1.697874e+02
   1.236230e+02   3.023538e+00
   5.625984e+01   7.456924e+01
   5.440161e+01   2.931438e+01
   6.624535e+01   1.303096e+01
   7.842383e+01  -1.820209e+01
   3.602828e+01   6.229713e+01
  -4.536084e+01   8.383569e+01
  -9.681149e+01   3.664415e+01
  -7.239550e+01  -3.129915e+01
  -2.834992e+00  -1.036223e+02
   1.222809e+02  -7.170941e+01
   1.918538e+02   3.459066e+01
   1.345944e+02   2.150123e+02
  -1.223961e+02   2.127981e+02
  -2.627374e+02   1.083381e+02
  -2.726751e+02  -6.730991e+01
  -9.103310e+01  -1.626967e+02
   4.170848e+01  -1.248647e+02
   8.511395e+01  -1.124716e+02
   1.058051e+02  -5.420033e+01
   8.281355e+01  -8.109649e+01
   1.071714e+02  -4.066464e+01
   1.110228e+02   3.559525e+01
   1.113468e+02   1.482995e+02
   5.858488e+01   1.960039e+02
  -8.388088e+01   1.632062e+02
  -1.766335e+02   1.074685e+01
  -1.164451e+02  -1.189990e+02
  -1.358514e+01  -1.628574e+02
   5.026456e+01  -9.991147e+01
   3.390762e+01  -1.916758e+01
  -5.270565e+00   5.996449e+01
   1.287093e+01   3.246613e+01
   2.131312e+01   2.473551e+01
   6.883934e+01   1.304833e+01
   2.374258e+01   4.475327e+01
  -6.959425e+01   5.133686e+01
  -1.517255e+02   2.166773e+01
  -1.219764e+02  -6.836942e+01
  -2.265325e+01  -9.301486e+01
   1.288093e+02  -7.473510e+01
   1.350292e+02   2.600306e+00
   4.100275e+01   6.317200e+01
  -8.541763e+01   4.244954e+01
  -7.041710e+01  -2.857584e+01
  -1.598331e+01  -9.047234e+01
   6.630447e+01  -5.623404e+01
   6.653299e+01   9.195744e-01
   5.375672e+01   4.219950e+01
   1.166723e+01   2.244492e+01
   5.194573e+01  -3.967263e+00
   4.938992e+01   2.539396e+00
   2.079779e+01   5.406914e+01
  -5.322354e+01   1.270007e+02
  -1.366824e+02   1.204432e+02
  -1.450716e+02   1.098193e+01
  -1.134663e+02  -8.416239e+01
   2.287949e+01  -1.096327e+02
   1.012206e+02  -6.792975e+01
   3.990388e+01   2.215988e+01
  -5.426000e+01   3.878248e+01
  -1.281629e+02  -3.046600e+01
  -4.911524e+01  -9.086307e+01
   8.111648e+01  -1.090272e+02
   1.870034e+02  -4.029138e+01
   1.455850e+02   3.574167e+01
   2.046068e+01   5.351292e+01
  -4.845916e+01   5.760412e+01
  -5.197721e+01  -1.471667e+01
   6.093104e+01  -2.364293e+01
   7.180519e+01   1.387385e+01
   4.709733e+01   1.290502e+02
  -8.639693e+01   1.661235e+02
  -1.785283e+02   4.477967e+01
  -1.501509e+02  -1.100777e+02
  -6.397070e+00  -2.021567e+02
   1.186641e+02  -1.514488e+02
   1.044899e+02  -4.256123e-01
   4.853242e+01   1.467987e+02
   3.954398e+00   9.349843e+01
  -3.969888e+01   1.930082e+01
  -6.586214e+01  -1.492945e+01
  -3.181467e+01  -6.618602e+00
  -1.247304e+01   2.074507e+01
  -8.231664e+00  -1.585875e+01
  -4.974074e+01  -6.102231e+01
  -3.749276e+01  -1.088754e+02
   1.640921e+01  -6.097652e+01
   1.331363e+02   4.250595e+01
   1.258744e+02   8.022180e+01
   1.512666e+01   4.697672e+01
  -1.150276e+02   1.441780e+01
  -7.515731e+01   2.724794e+01
  -2.706183e+01  -2.509609e+01
   4.471701e+01  -1.574002e+01
   1.045276e+01  -1.609048e+01
  -3.460535e+01   7.772367e+00
   2.161395e+01  -2.183793e+01
   1.151258e+02   1.632160e+01
   9.400373e+01   2.854901e+01
   1.807088e+01   9.924537e+01
  -9.356411e+01   1.458437e+02
  -2.062890e+02   5.223456e+01
  -1.207841e+02  -5.788997e+01
  -5.107056e+01  -1.617754e+02
   9.404246e+01  -1.511493e+02
   8.310146e+01  -4.407879e+01
   6.822924e+01   6.856389e+00
   4.374945e+01   4.293171e+01
  -7.268746e+00   7.961205e+00
   7.235113e+00   1.035440e+01
   1.319060e+01   4.631783e+01
   5.740018e+01   1.016351e+02
  -1.400748e+01   1.000725e+02
  -7.588861e+01  -2.293498e+01
  -6.731624e+01  -1.033728e+02
  -1.503878e+01  -1.432359e+02
   9.267037e+01  -1.383988e+01
   1.159087e+02   8.566897e+01
   2.822133e+01   8.767802e+01
  -6.347147e+01   5.615748e+01
  -9.278202e+01  -9.597511e+00
  -4.000874e+01  -3.275241e+01
   1.942399e+01  -5.768663e+01
   2.043512e+01  -3.936700e+01
  -3.736391e+01  -2.162372e+01
  -6.281562e+01  -1.431148e+00
  -5.900033e+00  -3.058570e+01
   4.388169e+01  -8.733254e+01
   1.195121e+02  -7.802657e+01
   4.101772e+01  -3.890982e+00
   1.163869e+00   7.218624e+01
  -5.574879e+01   7.555075e+01
  -5.680343e+01   1.933488e+01
   1.878806e+01  -3.369669e+01
   2.404428e+01  -1.470645e+01
   2.182379e+01   1.124662e+01
   2.910749e+01   3.934104e+01
  -2.144596e+01   6.072952e+01
  -4.512445e+01   1.403414e+01
  -3.112957e+01  -2.379183e+01
  -3.258052e+01  -1.048354e+00
  -1.517776e+00   4.863961e+01
  -2.066720e+00   1.066313e+00
  -9.678166e+00  -1.896609e+01
  -2.271037e+00  -4.170316e+01
   6.017602e+01  -2.143148e+01
   3.329493e+01   4.254252e+01
   5.699086e+00   4.779722e+01
  -6.409866e+01   4.272043e+01
  -5.847823e+01  -4.093094e+01
  -1.865316e+01  -4.593918e+01
   3.669570e+01  -3.470186e+01
   8.552511e+01   2.390915e+01
   5.237591e+01   4.142166e+01
  -4.231863e+01   7.095039e+00
  -6.459171e+01   3.018110e+01
  -3.553817e+01   2.080153e+01
   3.626327e+01   2.462907e+01
   4.620549e+01   3.946380e+01
  -2.035652e+01   4.378292e+01
  -9.055655e+01   4.619678e+01
