
 $NMID
 id='ANONYMOUS ', fmtdat='(2E16.6)'
 volume=1.0
 tramp=1.0
 $END
   4.459443e+03  -1.133004e+02
   2.646314e+03   2.664465e+03
  -6.708025e+02   2.797364e+03
  -2.277153e+03   9.854820e+02
  -1.068519e+03  -7.540085e+02
   6.877890e+02  -6.912039e+02
   9.754178e+02   4.003378e+02
   5.088640e+01   1.077699e+03
  -9.009229e+02   8.818168e+02
  -9.721685e+02  -7.398845e+01
  -4.862038e+02  -8.880828e+02
   2.481947e+02  -9.060585e+02
   6.460057e+02  -1.236440e+02
   4.632700e+02   7.377842e+02
  -2.179313e+02   7.974337e+02
  -6.265975e+02  -8.006005e+00
  -3.517282e+02  -6.698058e+02
   3.467701e+02  -7.033678e+02
   6.210120e+02  -1.032469e+02
   4.158443e+02   3.971168e+02
   1.831435e+01   4.930129e+02
  -2.802507e+02   2.922132e+02
  -2.547618e+02   1.304463e+01
   1.285232e+02  -7.977471e+01
   4.007677e+02   5.239093e+01
   2.613992e+02   4.196140e+02
  -3.993152e+02   4.735811e+02
  -8.860781e+02   1.161684e+01
  -5.058596e+02  -5.368200e+02
   3.776403e+02  -5.356723e+02
   7.705866e+02  -5.392874e+01
   3.903016e+02   5.231785e+02
  -2.751213e+02   5.427583e+02
  -5.961100e+02   2.354955e+02
  -4.306220e+02  -2.475816e+02
  -7.247384e+01  -4.626507e+02
   2.184908e+02  -3.126806e+02
   1.724227e+02   1.792959e+02
  -1.176184e+02   4.880387e+02
  -4.610473e+02  -1.710686e+00
  -3.381789e+02  -6.229950e+02
   3.168303e+02  -7.121702e+02
   6.438284e+02  -7.870805e+01
   2.941613e+02   5.165922e+02
  -2.859534e+02   3.207783e+02
  -3.761645e+02  -2.924680e+02
   8.036647e+01  -5.630578e+02
   5.682598e+02  -1.216267e+02
   6.093139e+02   4.315835e+02
   1.656790e+02   6.013575e+02
  -3.930523e+02   3.883968e+02
  -6.610271e+02  -5.770396e+01
  -3.619144e+02  -4.000745e+02
   1.147541e+02  -3.940416e+02
   4.903794e+02  -1.290634e+02
   2.835216e+02   2.148700e+02
  -1.216896e+02   1.559783e+02
  -1.687158e+02  -1.834514e+02
   1.790652e+02  -2.336472e+02
   3.546866e+02   3.704882e+01
   1.545245e+02   2.937761e+02
  -1.840399e+02   2.857133e+02
  -3.236632e+02   8.492409e+01
  -2.034112e+02  -1.486849e+02
   2.640772e+01  -2.290825e+02
   2.285823e+02  -2.895053e+02
   2.895198e+02  -2.322506e+02
   2.939023e+02   9.742742e+01
   9.634513e+01   4.750225e+02
  -1.413383e+02   4.191194e+02
  -1.430932e+02   1.227797e+02
  -7.077129e+01  -4.517930e+00
  -2.737739e+01   6.730381e+01
  -1.923552e+02   1.380954e+02
  -2.603524e+02  -1.404167e+01
  -1.980812e+02  -2.537563e+02
   8.330543e+01  -2.594995e+02
   2.181262e+02  -2.466417e+01
   1.616841e+02   2.264661e+02
   1.152386e+01   2.754043e+02
  -2.796367e+02   1.317230e+02
  -3.413686e+02  -1.787973e+02
  -1.723062e+02  -3.644334e+02
   9.170945e+01  -2.891891e+02
   2.182730e+02  -1.153788e+02
   1.755822e+02  -6.473404e+00
   1.130987e+02  -3.679020e+01
   2.196916e+02  -6.758475e+01
   3.894931e+02   7.077311e+01
   2.973932e+02   3.214990e+02
   9.960078e+00   4.211358e+02
  -3.368380e+02   3.944808e+02
  -4.726495e+02   2.194666e+02
  -3.357540e+02  -1.043619e+02
  -6.393398e+01  -2.653176e+02
   1.284482e+02  -2.454986e+02
   7.281727e+01  -4.198844e+01
  -1.085747e+02   1.141451e+02
  -1.860070e+02   1.366217e+01
  -6.764879e+01  -1.855506e+02
   1.591852e+02  -2.103321e+02
   2.017700e+02   3.431834e+01
   1.988226e+01   1.987993e+02
  -1.995474e+02   5.579301e+01
  -1.724070e+02  -2.415278e+02
   1.421054e+01  -3.676184e+02
   2.486224e+02  -2.119073e+02
   3.604869e+02   8.274821e+01
   2.718598e+02   2.232939e+02
   1.219913e+02   2.695818e+02
  -1.251278e+02   1.304714e+02
  -1.744922e+02   4.646385e+01
  -6.901524e+01  -3.766417e+01
   6.624499e+01   6.429048e+00
   3.270766e+01   1.343865e+02
  -1.512570e+02   1.245815e+02
  -1.876601e+02   1.190031e+01
  -7.788093e+01  -9.196070e+01
   1.074134e+02  -1.397714e+01
   5.936390e+01   8.603792e+01
  -1.023204e+02   1.239483e+02
  -2.546162e+02   1.276689e+00
  -2.703286e+02  -1.525862e+02
  -8.179765e+01  -2.542048e+02
   1.671962e+02  -2.530797e+02
   2.951853e+02  -1.400635e+02
   1.836687e+02   4.186147e+01
  -2.142575e+00   1.126444e+02
  -1.178652e+02   3.357702e+01
   2.574868e+01  -9.910296e+01
   2.162039e+02  -7.424295e+01
   2.148788e+02   7.982877e+01
   9.859271e+01   2.045843e+02
  -9.074660e+01   1.858672e+02
  -1.425421e+02   3.073678e+01
  -6.303819e+01  -3.979522e+01
   1.492336e+01   2.709568e+00
   4.345389e+01   7.017732e+01
  -7.704698e+01   9.490602e+01
  -1.867627e+02   3.395024e+01
  -1.775865e+02  -1.092826e+02
  -1.923068e+01  -2.119910e+02
   1.571894e+02  -1.701136e+02
   1.892661e+02  -1.444431e+01
   5.897245e+01   1.020897e+02
  -6.253285e+01   1.274693e+02
  -1.012296e+02   1.509090e+01
  -4.037803e+01  -3.151978e+00
   3.151424e+01  -1.905471e+01
  -2.112273e+01   5.091138e+00
  -8.081169e+01   6.308318e+00
  -9.583267e+01  -6.124466e+01
  -2.379383e+01  -1.633998e+02
   1.170561e+02  -1.449057e+02
   2.400789e+02  -1.724108e+01
   2.095039e+02   1.399262e+02
   4.520723e+01   2.275785e+02
  -1.344596e+02   1.968606e+02
  -1.215864e+02   3.701281e-01
  -8.285433e+01  -5.364433e+01
  -1.413882e+01  -4.769188e+01
  -6.346925e+01  -1.529816e+01
  -7.081966e+01   1.056702e+01
  -4.275530e+01  -4.168220e+01
   3.028702e+01  -7.940975e+01
   7.379585e+01  -8.187384e+01
   8.760189e+01   3.459374e+01
   1.408704e+01   1.137798e+02
  -1.281321e+02   9.837382e+01
  -1.977112e+02  -4.416068e+01
  -1.182689e+02  -2.217302e+02
   1.030729e+02  -2.113533e+02
   2.447126e+02  -1.134260e+02
   2.615678e+02   6.501560e+01
   1.250824e+02   1.747982e+02
  -5.948950e+01   1.299925e+02
  -1.009652e+02   1.149063e+02
  -1.037793e+02   6.744588e+01
  -7.143275e+01   8.694114e+01
  -7.937891e+01   6.651101e+01
  -1.108127e+02  -2.362354e+01
  -1.127616e+02  -1.562806e+02
  -6.128419e+01  -1.881896e+02
   1.044105e+02  -1.735135e+02
   1.693803e+02  -3.890197e+01
   1.451830e+02   1.244720e+02
  -1.839026e+01   1.473449e+02
  -9.787229e+01   1.011245e+02
  -6.311651e+01  -9.048380e+00
  -1.028669e+01  -2.066085e+01
   5.756133e+00  -4.014143e+01
  -3.322861e+01  -2.241861e+01
  -7.882013e+01  -2.158576e+01
  -1.849591e+01  -4.063937e+01
   6.339321e+01  -4.658001e+01
   1.844280e+02   9.263053e+00
   1.553352e+02   5.944258e+01
   8.018624e+00   1.223894e+02
  -1.328412e+02   7.859781e+01
  -1.316649e+02   2.755566e+01
  -7.202736e+01  -4.627481e+01
   9.996921e+01  -2.730469e+01
   8.225007e+01   1.737732e+01
  -5.927595e+00   9.252859e+01
  -7.053532e+01   6.657515e+01
  -6.454548e+01   6.081343e+00
  -5.787660e+01  -4.684750e+01
  -2.730816e+01  -3.178892e+01
  -7.989268e+01   1.264937e+01
  -5.020674e+01  -2.029767e+01
  -3.479394e+01  -7.930864e+01
   5.796001e+01  -1.508080e+02
   1.373099e+02  -1.233980e+02
   1.592131e+02  -1.530812e+01
   1.102661e+02   1.064582e+02
   1.745913e+01   1.256206e+02
  -1.067335e+02   5.606356e+01
  -5.235729e+01  -1.490668e+01
   7.641041e+01  -5.478915e+00
   1.477507e+02   4.216944e+01
   7.086254e+01   1.159795e+02
  -9.032774e+01   1.133235e+02
  -1.854774e+02   3.563157e+01
  -1.424006e+02  -2.997911e+01
  -3.619102e+01  -6.586569e+01
   4.121447e+01  -7.965622e+01
   3.455014e+01   4.141147e+00
  -5.374392e+01   2.198954e+01
  -5.321358e+01  -3.735939e+01
  -3.597249e+01  -1.184683e+02
   1.063778e+02  -1.416539e+02
   1.791561e+02  -5.806191e+01
   1.282778e+02   1.158636e+02
  -8.142351e-02   2.071449e+02
  -1.152345e+02   1.318853e+02
  -1.038071e+02  -3.224414e+01
  -6.184408e+01  -1.146502e+02
  -2.860245e+00  -9.064054e+01
   2.579066e+01  -1.208351e+01
   5.188826e+01   1.447030e+01
   4.285449e+01   1.455228e+00
   2.184724e+01  -5.132571e+01
   3.290960e+01   3.556550e+01
   4.415960e+01   6.931769e+01
   3.270412e+01   1.103102e+02
  -2.568626e+01   3.770542e+01
  -1.214566e+02  -1.337643e+01
  -1.166751e+02  -9.778823e+01
  -6.992469e+00  -7.613908e+01
   1.189070e+02  -1.122270e+01
   9.338696e+01  -1.574304e+01
  -9.946734e+00   7.258786e+00
  -6.002908e+01   2.130233e+01
  -9.552194e+00   2.179071e+01
   3.791331e+01  -2.144070e+01
   1.884586e+00   1.638703e+00
  -6.484525e+01  -2.379926e+00
  -8.025588e+01  -5.276504e+01
  -4.407523e+00  -9.799812e+01
   1.219002e+02  -1.181910e+02
   1.843546e+02  -2.048226e+01
   1.471660e+02   8.020417e+01
   1.970481e+01   1.391429e+02
  -8.549843e+01   1.478171e+02
  -6.462409e+01   8.720486e+01
  -4.994622e+01  -2.078995e+01
  -1.755347e+01  -1.949558e+01
   5.959054e+00  -3.121994e+01
  -1.955572e+01   2.983019e+01
  -2.300831e+01  -5.174380e+01
  -3.614831e+01  -1.006671e+02
   5.793104e+01  -6.493204e+01
   9.605009e+01   9.321732e+00
   9.592660e+01   1.119693e+02
  -7.929507e-01   9.698979e+01
  -7.797435e+01   2.827774e+01
  -1.106336e+02  -4.586821e+01
  -2.777891e+01  -9.917668e+01
   9.931278e+01  -5.694023e+01
   7.906192e+01   1.320908e-01
   3.522549e+01   4.195495e+01
  -4.667724e+01   5.490518e+01
  -3.594551e+01   1.337265e+01
   5.327094e+01  -2.377997e+01
   8.670183e+01  -5.730344e+00
   1.474369e+01   2.288450e+01
  -7.994069e+01   8.372363e+01
  -1.092233e+02   6.189099e+01
  -6.544222e+01  -2.749062e+01
   1.479890e+01  -1.012216e+02
   5.877597e+01  -8.070642e+01
   3.604906e+01  -4.114485e+00
  -1.291137e+01   7.904801e+01
  -2.483617e+01   3.557129e+01
  -2.583553e+01  -3.618995e+01
  -3.084854e+01  -5.439817e+01
   7.455322e+00  -4.771180e+01
   3.731881e+01   4.624903e+00
   3.911297e+01   2.084173e+01
   7.417398e+00  -1.150503e+01
   1.513557e+01  -3.554473e+01
  -3.168475e+01  -9.931325e+00
  -6.997315e+00   5.388789e+01
  -1.356542e+01   3.547080e+01
  -2.472568e+01   5.730556e+00
  -3.203430e+01  -4.329693e+01
   7.547920e+00  -7.208591e+01
   6.568710e+01  -1.544841e+01
   4.286420e+01   1.295614e+01
   2.509407e+01   5.102095e+01
  -4.577584e+01   4.459274e+01
  -6.797312e+01  -2.251537e+01
  -4.066327e+01  -4.491383e+01
   4.161352e+01  -5.888665e+01
   5.866093e+01  -2.144157e+01
   1.898268e+01   3.570727e+00
  -2.498434e+01   7.755830e+00
  -4.058694e+01  -9.705902e+00
   1.965263e+01  -5.513808e+01
   1.068611e+02  -4.713765e+01
