
 $NMID
 id='ANONYMOUS ', fmtdat='(2E16.6)'
 volume=1.0
 tramp=1.0
 $END
  -4.483599e+03   1.499606e+02
  -2.669170e+03  -2.675270e+03
   8.889027e+02  -2.919390e+03
   2.264026e+03  -9.551051e+02
   1.002366e+03   7.464877e+02
  -6.848055e+02   7.242003e+02
  -1.029342e+03  -3.647219e+02
  -9.539663e+00  -1.140018e+03
   9.040176e+02  -8.263000e+02
   1.007318e+03   9.685901e+01
   5.047935e+02   9.150388e+02
  -2.652301e+02   9.751130e+02
  -7.172693e+02   1.707401e+02
  -4.272298e+02  -7.719977e+02
   3.139516e+02  -7.735078e+02
   6.612924e+02  -2.180295e+01
   3.156222e+02   7.191612e+02
  -3.474608e+02   6.483208e+02
  -6.388296e+02   7.420709e+01
  -4.050605e+02  -3.839711e+02
  -4.274078e+01  -4.685961e+02
   2.697478e+02  -2.721134e+02
   2.524064e+02  -5.153150e+01
  -9.675443e+01   8.901498e+01
  -3.867057e+02  -1.033864e+02
  -2.175719e+02  -3.944884e+02
   4.306280e+02  -4.471392e+02
   8.517508e+02  -6.614170e+00
   4.954652e+02   5.145506e+02
  -3.493692e+02   5.352685e+02
  -7.748352e+02   1.724903e+01
  -3.960653e+02  -5.014089e+02
   2.372838e+02  -5.663500e+02
   5.841692e+02  -2.226916e+02
   4.250652e+02   2.404684e+02
   5.861163e+01   4.991879e+02
  -2.270919e+02   3.282917e+02
  -2.020501e+02  -2.221774e+02
   1.404508e+02  -4.504223e+02
   4.373966e+02  -3.991028e+01
   3.706848e+02   6.963588e+02
  -3.050766e+02   7.426430e+02
  -6.301650e+02   4.421083e-01
  -2.829931e+02  -5.526006e+02
   3.218575e+02  -3.098151e+02
   3.840695e+02   3.253771e+02
  -6.913431e+01   5.335327e+02
  -6.062557e+02   1.219208e+02
  -5.741737e+02  -4.056103e+02
  -1.860557e+02  -6.026756e+02
   3.552895e+02  -3.636630e+02
   6.580460e+02   3.989740e+01
   3.976129e+02   3.932974e+02
  -1.569138e+02   3.953455e+02
  -4.653019e+02   7.099298e+01
  -2.586001e+02  -2.182735e+02
   1.070392e+02  -1.363478e+02
   1.430808e+02   1.747199e+02
  -1.838223e+02   1.872788e+02
  -3.615015e+02  -6.956799e+01
  -1.570949e+02  -2.799963e+02
   2.012186e+02  -2.802305e+02
   3.160609e+02  -6.300031e+01
   1.979989e+02   8.617097e+01
  -4.009679e+01   2.354727e+02
  -2.150709e+02   3.137265e+02
  -2.895518e+02   2.224469e+02
  -2.686718e+02  -1.339215e+02
  -9.862592e+01  -4.298244e+02
   9.638428e+01  -3.502966e+02
   1.037352e+02  -1.479819e+02
   1.652749e+01   2.080390e+01
   2.736892e+01  -7.901069e+01
   1.934079e+02  -1.391260e+02
   2.536931e+02   3.162414e+01
   1.541828e+02   2.386320e+02
  -3.867218e+01   2.436564e+02
  -2.089284e+02   2.485236e+01
  -1.936802e+02  -2.522577e+02
   3.011765e+01  -3.031836e+02
   2.684379e+02  -1.510140e+02
   3.429263e+02   1.684510e+02
   1.857138e+02   3.466589e+02
  -1.334513e+02   3.100766e+02
  -2.334196e+02   1.358010e+02
  -1.541048e+02  -5.993232e+00
  -9.647438e+01   2.056523e+01
  -2.226962e+02   8.784218e+01
  -3.889567e+02  -6.909848e+01
  -3.540591e+02  -2.828022e+02
  -2.830461e+00  -4.539089e+02
   3.349323e+02  -4.527075e+02
   4.687912e+02  -2.472035e+02
   3.398701e+02   8.251485e+01
   7.298694e+01   3.286699e+02
  -1.464970e+02   2.853685e+02
  -9.402874e+01   3.127304e+01
   8.215090e+01  -1.462618e+02
   1.701482e+02  -8.863598e+00
   7.294580e+01   2.099835e+02
  -1.610640e+02   1.765458e+02
  -2.111516e+02  -2.967927e+01
   2.131678e+01  -1.857818e+02
   2.316900e+02  -2.239423e+01
   1.583743e+02   2.436508e+02
  -3.441047e+01   3.700312e+02
  -2.222829e+02   1.806465e+02
  -3.092274e+02  -9.562285e+01
  -2.900227e+02  -2.418240e+02
  -1.207355e+02  -2.546103e+02
   9.166803e+01  -1.533858e+02
   1.442516e+02  -2.199645e+01
   7.369236e+01   4.573518e+01
  -7.873739e+01  -4.036874e+01
  -2.304571e+01  -1.381182e+02
   1.297311e+02  -9.807841e+01
   1.826541e+02  -1.275356e+01
   7.790512e+01   7.147789e+01
  -5.993532e+01   1.386984e+01
  -5.930775e+01  -7.664791e+01
   1.208808e+02  -9.556097e+01
   2.664938e+02  -1.871015e+01
   2.656433e+02   1.282727e+02
   6.043925e+01   2.506046e+02
  -1.676576e+02   2.536455e+02
  -3.165701e+02   1.182949e+02
  -1.522818e+02  -5.382106e+01
   9.203938e+00  -1.041190e+02
   8.863905e+01  -8.860520e+00
  -4.315935e+01   9.955953e+01
  -1.547033e+02   5.821825e+01
  -2.040771e+02  -7.044071e+01
  -1.056616e+02  -2.075253e+02
   9.900986e+01  -1.949669e+02
   1.492955e+02  -1.529917e+01
   7.673661e+01   3.886629e+01
  -2.634869e+01   1.168885e+01
  -7.374931e+01  -7.732165e+01
   4.089196e+01  -9.918240e+01
   1.979109e+02  -2.732222e+01
   1.809011e+02   1.511769e+02
   5.612825e+01   2.339771e+02
  -1.340249e+02   1.526699e+02
  -1.813900e+02   2.267528e+01
  -4.982928e+01  -1.221867e+02
   5.839804e+01  -1.203833e+02
   9.669250e+01  -3.088354e+01
  -1.259173e+01  -7.151779e+00
   4.186773e+00   2.067556e+01
   1.691879e+01  -5.871445e-01
   4.743618e+01  -6.043398e+00
   5.549168e+01   9.477842e+01
   1.513211e+01   1.346388e+02
  -1.278011e+02   1.407162e+02
  -2.441531e+02   4.554874e+01
  -2.209238e+02  -1.610345e+02
  -4.743937e+01  -2.234021e+02
   1.033598e+02  -1.486106e+02
   1.394982e+02  -3.463110e+01
   8.789243e+01   8.196840e+01
   1.443402e+01   1.577301e+01
   2.823770e+01   9.431694e+00
   9.965076e+01   1.806121e+01
   4.261676e+01   2.987707e+01
  -6.270637e+01   9.579093e+01
  -9.970701e+01   2.834182e+01
  -8.107317e+01  -2.101087e+00
   1.419940e+01  -1.044710e+02
   1.196124e+02  -7.976802e+01
   1.844253e+02   2.023668e+01
   1.109783e+02   1.857938e+02
  -9.413255e+01   2.421911e+02
  -2.907690e+02   1.124599e+02
  -2.565414e+02  -6.085795e+01
  -1.260957e+02  -1.513333e+02
   2.237058e+01  -1.574262e+02
   1.066669e+02  -1.064367e+02
   9.617716e+01  -7.247766e+01
   8.026222e+01  -6.149984e+01
   6.906073e+01  -5.345185e+01
   8.004143e+01   1.515814e+01
   1.084132e+02   1.452397e+02
   2.658179e+01   2.264878e+02
  -1.103208e+02   1.601743e+02
  -1.552661e+02   2.476060e+01
  -1.170984e+02  -1.016879e+02
   5.022809e+00  -1.625696e+02
   7.164243e+01  -8.669245e+01
   5.274286e+01   1.751476e+00
  -8.369539e+00   4.308844e+01
   1.516238e+01   1.998436e+01
   5.190228e+01   4.712645e+00
   6.605903e+01   1.535589e+01
   4.580582e+01   6.053359e+01
  -4.825676e+01   4.341577e+01
  -1.496364e+02  -2.806093e+00
  -1.375383e+02  -6.730521e+01
  -2.326148e+01  -7.149368e+01
   1.052658e+02  -9.123549e+01
   1.333913e+02  -2.965106e+01
   4.383121e+01   2.254045e+01
  -7.480875e+01   3.868773e+01
  -6.881570e+01  -9.317658e+00
  -7.371487e+00  -8.117459e+01
   5.347395e+01  -5.859869e+01
   6.448199e+01   1.219235e+01
   5.361859e+01   4.734759e+01
   5.674958e+01   4.689568e+01
   4.984386e+01  -3.198088e+00
   4.367090e+01   1.165135e+01
   3.334774e+01   6.604186e+01
  -3.118552e+01   1.770366e+02
  -1.047726e+02   1.285425e+02
  -1.398140e+02   8.503933e+00
  -1.362148e+02  -6.680487e+01
  -2.518437e+01  -1.242341e+02
   7.527768e+01  -4.604436e+01
   2.710616e+01   1.184258e+01
  -8.239571e+01   4.764329e+00
  -1.401863e+02  -3.791011e+01
  -8.194968e+01  -1.019785e+02
   6.562292e+01  -1.075647e+02
   1.813796e+02  -3.988111e+01
   1.454567e+02   3.610789e+01
   1.203113e+01   8.727775e+01
  -6.881586e+01   6.160051e+01
  -4.955575e+01   3.699412e+01
   3.357840e+01  -1.102895e+01
   1.018643e+02   3.818276e+01
   1.279219e+01   1.005626e+02
  -7.389244e+01   1.597057e+02
  -1.645645e+02   8.598598e+01
  -1.379923e+02  -1.220599e+02
   1.004241e+01  -2.116761e+02
   1.004337e+02  -1.342148e+02
   1.212684e+02   1.170001e+01
   5.564255e+01   1.335124e+02
   2.925149e+01   9.431133e+01
  -4.082336e+01   2.542390e+01
  -5.158876e+01  -1.686276e+01
  -3.612739e+01  -2.656769e+01
   1.740541e+01   1.520018e+01
  -2.561545e+01   2.320709e+01
  -6.181962e+01  -1.106533e+02
  -6.791975e+01  -1.437206e+02
   4.020449e+01  -5.890283e+01
   1.359552e+02   3.385482e+01
   1.181538e+02   7.303862e+01
  -2.493269e+00   2.110179e+01
  -7.807456e+01   2.442650e+01
  -8.973182e+01   2.683829e+01
  -2.583525e+01  -1.389921e+01
   3.705976e+01  -3.292267e+01
   2.241267e+01  -2.590323e+01
  -1.433330e+01   2.223686e+01
   3.683915e+00   3.234027e+01
   8.728934e+01   1.754357e+01
   6.518563e+01   2.445634e+01
   1.799705e+01   8.452220e+01
  -8.992615e+01   1.107120e+02
  -1.822452e+02   4.713488e+01
  -1.342497e+02  -6.213051e+01
  -3.678407e+01  -1.460585e+02
   7.982054e+01  -1.606762e+02
   1.057494e+02  -6.180838e+01
   6.547263e+01   2.223685e+01
   2.314536e+01   3.034523e+01
  -1.783911e+00  -1.024244e+01
   6.494765e+00   5.062187e+00
   3.612582e+01   7.230352e+01
   9.693475e+00   9.990325e+01
  -5.481638e+01   8.818501e+01
  -9.843302e+01  -2.491018e+01
  -8.952906e+01  -9.980088e+01
  -1.591488e+01  -1.299742e+02
   8.907040e+01  -2.059184e+01
   8.274099e+01   6.220195e+01
   4.292016e+01   9.003343e+01
  -7.464819e+01   4.217824e+01
  -1.074560e+02  -2.947426e+01
  -2.248217e+01  -4.457683e+01
   2.043712e+01  -5.077361e+01
   2.627473e+01  -5.598426e+01
  -2.932806e+01  -2.038085e+01
  -8.077319e+01   6.642744e+00
  -2.144480e+01  -8.113202e+00
   7.627818e+01  -8.511845e+01
   1.094670e+02  -6.743151e+01
   6.639106e+01   1.216379e+01
  -1.947894e+01   8.579275e+01
  -4.153101e+01   5.600911e+01
  -1.860807e+01  -9.150730e+00
  -6.633100e+00  -6.420034e+01
   2.304134e+01  -3.335480e+01
   3.676340e+01  -6.285704e+00
   1.202236e+01   5.765207e+01
  -1.739465e+01   2.353799e+01
  -4.048890e+01  -1.924305e+01
  -2.741826e+01  -9.922046e-01
  -1.685598e+01   9.037954e+00
   9.739299e+00   1.633753e+01
   1.407214e+01   1.340933e+01
   5.422088e+00  -4.313887e+01
   2.076539e+01  -3.593258e+01
   3.492007e+01  -2.111412e+01
   5.777232e+01   2.767081e+01
  -1.989829e+01   6.438319e+01
  -4.883323e+01   2.945416e+01
  -3.122173e+01  -5.127935e+01
  -1.071825e+01  -5.658114e+01
   4.460339e+01  -3.015835e+01
   7.244738e+01   5.686494e+00
   5.947444e+01   5.637679e+01
  -3.683891e+01   5.468902e+01
  -5.001149e+01   1.264221e+01
  -3.139364e+01  -3.054863e+01
   6.145284e+01   6.015395e+00
   3.664526e+01   3.497027e+01
  -2.867489e+01   4.825479e+01
  -9.159003e+01   1.717582e+01
