
 $NMID
 id='ANONYMOUS ', fmtdat='(2E16.6)'
 volume=1.0
 tramp=1.0
 $END
   4.414659e+03  -2.245511e+02
   2.689539e+03   2.837675e+03
  -8.269939e+02   3.036576e+03
  -2.326013e+03   9.123082e+02
  -1.101366e+03  -7.795368e+02
   7.292062e+02  -7.616052e+02
   1.063528e+03   4.257156e+02
  -1.297733e+01   1.119672e+03
  -8.788445e+02   8.274613e+02
  -9.933164e+02  -7.544561e+01
  -4.809323e+02  -9.450031e+02
   2.480309e+02  -9.917201e+02
   7.099099e+02  -1.424054e+02
   4.495681e+02   7.562127e+02
  -2.598748e+02   8.356062e+02
  -6.597371e+02   5.036065e+01
  -2.932406e+02  -7.575053e+02
   3.499565e+02  -6.847400e+02
   6.279689e+02  -8.353467e+01
   4.080176e+02   4.142837e+02
   1.752401e+01   4.539989e+02
  -2.848884e+02   2.583772e+02
  -2.327949e+02   8.808035e+00
   8.697103e+01  -1.230862e+02
   4.363857e+02   7.341269e+01
   2.428315e+02   4.375744e+02
  -4.518215e+02   4.448323e+02
  -8.630495e+02  -2.142276e+01
  -4.911829e+02  -5.262537e+02
   3.957011e+02  -5.716953e+02
   8.016261e+02  -2.000495e+01
   3.842825e+02   4.980587e+02
  -2.565353e+02   5.594845e+02
  -5.831354e+02   2.112075e+02
  -4.348098e+02  -2.596892e+02
  -7.865820e+01  -5.055852e+02
   2.179877e+02  -3.186275e+02
   2.038390e+02   2.409037e+02
  -1.522319e+02   4.722162e+02
  -4.855824e+02   6.762862e+01
  -3.340629e+02  -7.066297e+02
   3.320899e+02  -7.437329e+02
   6.451209e+02  -5.365948e+01
   2.870724e+02   5.740188e+02
  -2.874665e+02   3.520495e+02
  -3.829011e+02  -3.272623e+02
   6.949236e+01  -5.623022e+02
   6.121178e+02  -1.411201e+02
   6.196174e+02   4.163209e+02
   1.852919e+02   6.151968e+02
  -4.021660e+02   3.267641e+02
  -6.712666e+02  -5.404678e+01
  -4.181159e+02  -4.125107e+02
   1.718297e+02  -4.585399e+02
   4.667732e+02  -6.316018e+01
   2.733154e+02   2.351136e+02
  -1.208489e+02   1.721622e+02
  -1.739595e+02  -1.457410e+02
   1.474345e+02  -1.980172e+02
   3.727037e+02   1.078085e+02
   1.515174e+02   2.807143e+02
  -2.074968e+02   2.886502e+02
  -3.436327e+02   4.868440e+01
  -1.830548e+02  -1.139764e+02
   4.985623e+01  -2.071146e+02
   2.048622e+02  -3.132241e+02
   3.360031e+02  -2.055004e+02
   2.683512e+02   1.353874e+02
   1.209306e+02   4.379480e+02
  -1.028929e+02   3.692664e+02
  -1.176170e+02   1.287695e+02
  -2.052342e+01  -1.234429e+01
  -2.461671e+01   8.119013e+01
  -1.678376e+02   1.566796e+02
  -2.654203e+02  -3.308550e+01
  -1.683307e+02  -2.709526e+02
   1.212324e+01  -2.451879e+02
   2.142248e+02  -2.633232e+01
   2.008485e+02   2.503625e+02
  -1.937026e+01   3.016431e+02
  -2.476831e+02   1.370048e+02
  -3.530853e+02  -1.743734e+02
  -2.048351e+02  -3.746843e+02
   1.213728e+02  -3.166915e+02
   2.280609e+02  -1.401005e+02
   1.646885e+02   1.570416e+01
   1.180164e+02  -1.564999e+01
   2.066983e+02  -5.806239e+01
   3.734410e+02   3.287076e+01
   3.312998e+02   2.924659e+02
   1.031908e+01   4.401247e+02
  -3.741657e+02   4.454607e+02
  -4.786700e+02   1.858789e+02
  -3.379849e+02  -7.051985e+01
  -6.833519e+01  -2.955588e+02
   1.284445e+02  -2.818095e+02
   1.030312e+02  -3.428286e+01
  -1.086925e+02   1.366053e+02
  -2.230548e+02   1.479298e+01
  -6.968437e+01  -1.957821e+02
   1.536749e+02  -1.958856e+02
   1.764290e+02   5.480428e+01
  -3.206720e+01   1.777265e+02
  -1.906633e+02   3.721840e+00
  -1.715672e+02  -2.528170e+02
   3.151517e+01  -3.527595e+02
   2.221981e+02  -1.928627e+02
   3.521240e+02   1.036225e+02
   2.564248e+02   2.400771e+02
   1.311228e+02   2.447189e+02
  -9.991577e+01   1.725355e+02
  -1.863093e+02   4.378436e+01
  -7.645957e+01  -3.803304e+01
   3.994212e+01   4.550896e+01
   2.068172e+00   1.389125e+02
  -1.269870e+02   1.180850e+02
  -1.826195e+02  -1.650447e+00
  -7.604234e+01  -8.249525e+01
   6.654441e+01  -2.220814e+01
   7.461370e+01   5.848300e+01
  -1.457270e+02   9.321565e+01
  -2.898719e+02   5.853349e+00
  -2.422089e+02  -1.269742e+02
  -6.456436e+01  -2.294456e+02
   1.846975e+02  -2.913640e+02
   2.971655e+02  -1.361552e+02
   1.555278e+02   7.090572e+01
  -2.511843e+01   1.122993e+02
  -1.104123e+02  -1.477605e+01
   4.747090e+01  -1.049212e+02
   1.993904e+02  -6.692357e+01
   2.204788e+02   7.662202e+01
   6.227942e+01   2.123363e+02
  -1.326226e+02   1.968970e+02
  -1.651640e+02   2.299688e+01
  -1.015500e+02  -5.403157e+01
   4.071813e+00   3.954459e+00
   2.511370e+01   7.775047e+01
  -7.810490e+01   1.299801e+02
  -2.136425e+02   4.282524e+01
  -2.093544e+02  -1.335693e+02
  -7.270606e+01  -2.290639e+02
   1.603126e+02  -1.722494e+02
   1.910680e+02  -3.952576e+01
   6.598217e+01   1.202059e+02
  -9.473663e+01   1.039889e+02
  -9.802029e+01   6.705775e+00
   6.191440e+00  -2.941414e+01
  -2.136728e-01   9.356466e+00
  -1.231504e+01   9.096584e+00
  -7.451502e+01  -2.725471e+00
  -7.436114e+01  -6.804494e+01
  -1.011092e+01  -1.562127e+02
   1.421498e+02  -1.419950e+02
   2.217052e+02  -1.492097e+01
   2.090452e+02   1.809617e+02
   4.049693e+01   2.653227e+02
  -1.097009e+02   1.767340e+02
  -1.524921e+02   4.312074e+01
  -8.178908e+01  -5.003913e+01
  -2.121833e+01  -5.482430e+01
  -2.617766e+01  -1.374109e+01
  -7.514344e+01   6.619407e+00
  -2.520909e+01  -3.804385e+01
   3.828854e+01  -6.700014e+01
   8.780534e+01  -2.928080e+01
   8.122294e+01   1.688808e+01
  -3.415006e+01   1.221827e+02
  -1.274708e+02   6.871073e+01
  -1.690390e+02  -8.034911e+01
  -1.280567e+02  -2.097076e+02
   9.669649e+01  -2.316986e+02
   3.155133e+02  -1.221765e+02
   2.825002e+02   5.976909e+01
   1.175661e+02   1.824416e+02
  -4.782504e+01   1.593899e+02
  -1.182964e+02   9.033113e+01
  -1.086383e+02   2.679837e+01
  -8.117512e+01   8.557823e+01
  -1.122615e+02   7.431177e+01
  -1.199568e+02  -1.636223e+01
  -1.167670e+02  -1.518862e+02
  -3.246034e+00  -2.122268e+02
   1.185766e+02  -1.702536e+02
   1.937606e+02   6.604253e+00
   1.495339e+02   8.960852e+01
  -1.136925e+01   1.485022e+02
  -5.349409e+01   6.694249e+01
  -7.686240e+01   9.960127e+00
   8.773097e+00  -4.201902e+01
   5.495193e+00  -1.185847e+01
  -4.908698e+01  -2.791423e+01
  -8.864242e+01  -2.482514e+01
  -5.613932e+01  -5.954595e+01
   5.687570e+01   6.342317e+00
   1.300723e+02   5.842811e+00
   1.332779e+02   7.098637e+01
   2.418693e+01   5.988052e+01
  -1.063352e+02   6.906068e+01
  -1.388632e+02  -5.479874e+00
  -6.390404e+01  -3.227511e+01
   7.041505e+01  -3.380016e+01
   7.004107e+01   2.851845e+01
  -3.461944e-01   4.950278e+01
  -2.550948e+01   4.219866e+01
  -7.028267e+01  -1.532531e+00
  -4.069203e+01  -4.098236e+01
  -3.897450e+01  -5.865707e+01
  -7.609071e+01  -3.364669e+00
  -4.682702e+01   4.917043e+00
  -1.999563e+01  -4.141042e+01
   2.139074e+01  -1.303800e+02
   1.153802e+02  -1.147641e+02
   1.310194e+02  -5.410236e+00
   1.434551e+02   8.975353e+01
   2.147363e+01   1.675324e+02
  -7.640852e+01   7.108463e+01
  -4.488778e+01  -2.235417e+01
   6.064752e+01  -2.293225e+01
   1.291915e+02   4.164072e+01
   8.705238e+01   1.123353e+02
  -7.784803e+01   1.075081e+02
  -1.883830e+02   4.949300e+01
  -1.651843e+02  -2.610531e+01
  -3.308677e+01  -9.249825e+01
   6.792814e+01  -8.014015e+01
   5.639978e+01   1.243719e+01
  -2.900423e+01   3.411555e+00
  -1.465939e+02  -3.325263e+01
  -4.326544e+01  -1.366565e+02
   1.085983e+02  -1.488004e+02
   1.587812e+02  -7.025680e+01
   1.519996e+02   1.222091e+02
   4.522391e+00   1.960732e+02
  -9.659302e+01   1.175385e+02
  -1.164386e+02  -9.642303e+00
  -3.753362e+01  -1.187845e+02
  -1.671452e+01  -1.084766e+02
   5.576591e+01   4.253706e-01
   6.997699e+01   2.578563e+01
   1.940220e+01  -1.391753e+01
  -8.445432e+00  -1.894623e+01
  -1.863422e+00  -3.088399e+00
   3.668487e+01   6.053789e+01
   5.000571e+01   1.186778e+02
  -4.215680e+01   4.980450e+01
  -1.558278e+02  -5.370270e+01
  -1.409040e+02  -8.353348e+01
   1.489203e+01  -4.459892e+01
   8.975474e+01  -4.365411e+00
   7.936548e+01   5.731262e-01
   1.492657e+01  -8.531398e+00
  -5.219496e+01   1.500430e+01
  -1.611155e+00   3.215074e+01
  -1.345533e+01  -5.682335e-01
  -2.346117e+01  -1.492944e+01
  -7.341003e+01  -5.406939e+00
  -8.315765e+01  -1.799945e+01
  -2.416181e+01  -7.927126e+01
   1.094680e+02  -1.231855e+02
   1.991044e+02  -5.058992e+01
   1.446496e+02   5.591474e+01
   3.613853e+01   1.620342e+02
  -7.683521e+01   1.285888e+02
  -9.075436e+01   6.892198e+01
  -6.253454e+01  -2.578600e+01
  -2.983164e+01  -3.279632e+01
   1.243859e+01  -6.933104e+00
  -4.214370e+01  -2.943185e+00
  -3.467693e+01  -5.855879e+01
  -2.691490e+01  -8.408193e+01
   2.817508e+01  -7.056222e+01
   8.945986e+01   3.141903e+01
   6.781732e+01   1.253797e+02
  -1.546558e+00   1.267921e+02
  -1.111891e+02   2.083302e+01
  -1.291975e+02  -6.908535e+01
  -9.831720e+00  -1.060770e+02
   3.574002e+01  -6.330026e+01
   9.026941e+01   1.862593e+01
   4.935280e+01   4.319822e+01
  -2.558478e+01   3.468978e+01
  -1.856641e+01   4.335639e+01
   2.204599e+01  -3.500961e+00
   9.042499e+01   8.945989e+00
   1.772404e+01   1.670160e+01
  -8.647700e+01   5.521673e+01
  -1.170808e+02   5.663136e+01
  -5.144753e+01  -3.984150e+01
   3.134380e+01  -7.457369e+01
   5.402385e+01  -5.684619e+01
   3.315298e+01   5.444818e+00
  -2.876130e+00   5.738045e+01
  -9.671684e+00   5.387372e+01
  -3.610022e+01  -4.122478e+01
  -3.500329e+01  -3.907315e+01
  -1.143859e+01  -2.895301e+01
   3.606997e+01   2.329884e+01
   4.053228e+01   3.263074e+00
   8.618133e+00   1.661399e+01
  -1.122915e+01  -3.511503e+01
  -1.874861e+00   3.100816e+00
  -2.484631e+01   4.156816e+01
  -1.305367e+01   3.972574e+01
  -3.683815e+01   9.412332e-01
  -5.764496e+00  -5.673155e+01
   1.471085e+01  -4.944397e+01
   2.828654e+01  -1.614893e+01
   4.187003e+01   4.672233e+01
   1.403646e+01   7.795921e+01
  -3.644689e+01   1.771805e+01
  -5.920388e+01  -1.089054e+01
  -6.631223e+01  -5.173242e+01
   2.089987e+01  -6.050806e+01
   6.135859e+01  -2.530718e+00
   1.693302e+01  -7.966747e+00
  -5.878612e+01  -2.133134e+00
  -4.623647e+01  -1.745694e+01
   5.551896e+01  -4.283423e+01
   1.081364e+02  -1.083600e+01
