
 $NMID
 id='ANONYMOUS ', fmtdat='(2E16.6)'
 volume=1.0
 tramp=1.0
 $END
   3.813695e+03   2.110020e+02
   2.311940e+03   2.157132e+03
  -4.403230e+02   2.215617e+03
  -1.864533e+03   1.009086e+03
  -8.901635e+02  -2.860603e+02
   4.264945e+02  -3.519162e+02
   6.181212e+02   3.307959e+02
   1.954664e+01   7.808945e+02
  -6.884492e+02   6.538252e+02
  -7.817998e+02  -6.336947e+01
  -4.320463e+02  -7.243259e+02
   1.462859e+02  -8.017678e+02
   4.288883e+02  -1.616293e+02
   3.068913e+02   6.098322e+02
  -2.016340e+02   6.059639e+02
  -4.816690e+02   1.406621e+01
  -2.503271e+02  -5.623356e+02
   2.257519e+02  -6.128413e+02
   5.032902e+02  -1.771249e+02
   3.992530e+02   2.729884e+02
   7.249709e+01   3.752281e+02
  -1.878771e+02   2.828620e+02
  -1.806869e+02   5.161434e+01
   1.546379e+02  -2.373921e+01
   4.005463e+02   1.743618e+02
   1.048715e+02   4.295072e+02
  -4.711432e+02   3.152344e+02
  -7.045076e+02  -1.271027e+02
  -3.116977e+02  -4.874317e+02
   3.630826e+02  -3.545117e+02
   6.021485e+02   7.947326e+01
   2.928102e+02   4.158976e+02
  -2.471971e+02   4.414916e+02
  -5.067759e+02   1.640554e+02
  -3.881419e+02  -2.268330e+02
  -7.459671e+01  -3.726431e+02
   1.375036e+02  -2.207950e+02
   7.051388e+01   1.677298e+02
  -1.895142e+02   3.245845e+02
  -3.702526e+02  -7.482174e+01
  -1.546714e+02  -5.801517e+02
   2.826776e+02  -5.729961e+02
   5.007593e+02   3.255731e+01
   1.792408e+02   4.634935e+02
  -2.194201e+02   2.602241e+02
  -2.926131e+02  -2.787187e+02
   1.037164e+02  -4.612281e+02
   5.051696e+02  -9.824087e+01
   4.973995e+02   3.690267e+02
   1.799045e+02   5.379470e+02
  -3.123985e+02   3.034936e+02
  -5.563231e+02  -7.329633e+01
  -3.655976e+02  -3.051369e+02
   1.096554e+02  -2.744622e+02
   3.705581e+02  -5.735852e+01
   2.037273e+02   1.518403e+02
  -8.309581e+01   7.790191e+01
  -1.009525e+02  -1.447419e+02
   1.797825e+02  -1.401813e+02
   3.066630e+02   6.176476e+01
   1.275331e+02   2.913465e+02
  -1.542166e+02   2.666089e+02
  -3.341477e+02   8.331001e+01
  -2.033757e+02  -1.193308e+02
   3.596494e+01  -2.474797e+02
   2.388609e+02  -3.597584e+02
   3.664359e+02  -2.200929e+02
   2.634168e+02   1.587841e+02
   5.558395e+01   3.931862e+02
  -8.995175e+01   3.479036e+02
  -5.568701e+01   1.333284e+02
  -6.817821e+01   4.350194e+01
  -8.011386e+01   1.050412e+02
  -2.439800e+02   1.104468e+02
  -2.720099e+02  -7.366885e+01
  -1.404795e+02  -2.692772e+02
   9.928142e+01  -2.268718e+02
   2.027710e+02   1.403671e+01
   1.675600e+02   2.205454e+02
  -2.343127e+01   2.794287e+02
  -2.566126e+02   6.357440e+01
  -3.402966e+02  -1.641253e+02
  -1.685779e+02  -3.274380e+02
   1.105203e+02  -2.520227e+02
   1.622780e+02  -1.128752e+02
   1.275875e+02  -2.251095e+01
   1.055925e+02  -5.077375e+01
   2.569707e+02  -4.445359e+01
   3.675177e+02   5.746281e+01
   3.320265e+02   3.070542e+02
  -2.224985e+01   4.584963e+02
  -3.864747e+02   3.845679e+02
  -4.918480e+02   1.541744e+02
  -3.206119e+02  -8.484682e+01
  -3.286713e+01  -2.724632e+02
   1.128231e+02  -2.153056e+02
   3.844210e+01  -4.218728e+01
  -9.998378e+01   6.755286e+01
  -1.639946e+02  -3.111210e+01
  -9.428944e+00  -1.604569e+02
   1.500145e+02  -1.686634e+02
   1.636473e+02   5.520334e+01
  -3.852812e+01   1.557408e+02
  -1.793531e+02   9.877298e+00
  -1.127440e+02  -2.206644e+02
   2.474143e+01  -3.463739e+02
   2.150182e+02  -1.584747e+02
   3.264966e+02   8.537038e+01
   2.515601e+02   2.359600e+02
   8.450457e+01   2.463688e+02
  -1.119383e+02   1.656428e+02
  -1.541870e+02   3.455016e+01
  -6.495994e+01  -2.614055e+01
   6.833093e+01   4.934634e+01
   6.592383e+00   1.213354e+02
  -1.391665e+02   7.376756e+01
  -1.915333e+02  -1.981710e+01
  -4.251778e+01  -3.061403e+01
   7.718983e+01  -7.661528e+00
   4.625773e+01   9.417992e+01
  -1.550619e+02   8.286439e+01
  -2.933816e+02   2.028381e+01
  -2.730002e+02  -1.401874e+02
  -1.658189e+01  -2.627904e+02
   1.814016e+02  -2.585620e+02
   2.630302e+02  -1.021491e+02
   1.641225e+02   5.861274e+01
  -4.502879e+01   8.681565e+01
  -9.169561e+01   1.283367e+01
   7.392068e+01  -9.423048e+01
   1.811977e+02  -5.483108e+01
   2.025841e+02   9.173583e+01
   6.870922e+01   1.955296e+02
  -8.933992e+01   1.507042e+02
  -1.500822e+02  -2.529730e+01
  -5.382971e+01  -4.735305e+01
   2.765721e+01  -1.964406e+01
   6.605721e+01   7.848146e+01
  -8.457578e+01   9.359331e+01
  -1.825967e+02   3.578200e+01
  -1.615397e+02  -1.152371e+02
   1.696770e+00  -2.140544e+02
   1.458421e+02  -1.359922e+02
   1.817956e+02   4.978239e-01
   5.636373e+01   1.261010e+02
  -4.139310e+01   7.562672e+01
  -6.201440e+01   4.627638e+01
  -1.134230e+01  -7.396424e+00
   4.786843e+01  -1.880451e+01
  -3.492709e+01   2.903966e+00
  -9.110943e+01   2.086790e+00
  -8.801652e+01  -1.157295e+02
  -1.997475e+01  -1.505025e+02
   1.227254e+02  -1.341689e+02
   2.437029e+02  -3.209307e+01
   1.493323e+02   1.418121e+02
   6.193099e+01   2.255396e+02
  -1.067999e+02   1.620273e+02
  -1.260965e+02   7.849689e+00
  -6.417834e+01  -4.496628e+01
  -1.679555e+01  -4.134288e+01
  -3.147386e+01   1.437872e+01
  -8.788560e+01   1.214673e+01
  -4.792453e+01  -4.174739e+01
   3.318339e+01  -1.036752e+02
   8.964168e+01  -6.909720e+01
   9.000784e+01   3.832587e+01
  -1.437279e+01   1.302566e+02
  -1.551856e+02   1.007962e+02
  -2.100895e+02  -7.618022e+01
  -1.006645e+02  -2.031312e+02
   9.755260e+01  -2.412761e+02
   2.468064e+02  -1.029141e+02
   2.436306e+02   8.287452e+01
   1.208362e+02   1.768169e+02
  -3.213943e+01   1.244833e+02
  -9.038740e+01   8.712059e+01
  -3.823850e+01   5.602075e+01
  -6.581260e+01   7.955750e+01
  -9.234707e+01   7.044009e+01
  -1.083299e+02   5.164149e+00
  -1.182774e+02  -1.404763e+02
  -5.500963e+00  -2.402502e+02
   8.535203e+01  -1.862896e+02
   1.700749e+02   7.644725e+00
   1.468143e+02   1.463302e+02
   2.576704e+01   1.769636e+02
  -8.586536e+01   9.177768e+01
  -2.335241e+01  -2.199043e+01
   1.219721e+01  -4.339835e+01
   2.023867e+00  -4.940011e+01
  -4.484251e+01   1.367956e+00
  -7.456898e+01  -3.374430e+01
  -3.764861e+01  -3.958478e+01
   2.834577e+01  -5.435685e+01
   1.642436e+02  -7.699903e+00
   1.406222e+02   3.154760e+01
   1.891485e+01   9.173214e+01
  -1.310697e+02   4.005738e+01
  -1.588822e+02  -4.508562e+00
  -7.573318e+01  -4.882491e+01
   3.685266e+01  -3.000894e+01
   7.503406e+01   4.845077e+01
   2.904582e+01   5.410258e+01
  -4.765867e+01   6.956877e+01
  -7.965683e+01   1.719265e+01
  -5.570690e+01  -5.648215e+01
  -4.135529e+01  -5.794977e+01
  -4.242827e+01   6.443407e+00
  -4.173188e+01  -6.410755e-01
  -3.336080e+01  -5.904900e+01
   2.770749e+01  -1.592622e+02
   1.090578e+02  -1.239291e+02
   1.678792e+02  -1.322369e+01
   9.941218e+01   8.290323e+01
  -2.077362e+00   1.367642e+02
  -5.791089e+01   4.873819e+01
  -6.117943e+01  -3.826186e+01
   6.257304e+01   2.043302e+00
   1.237070e+02   3.753355e+01
   7.742126e+01   9.334241e+01
  -9.897641e+01   1.099011e+02
  -2.117776e+02   5.378359e+01
  -1.617149e+02  -2.630798e+01
  -4.121742e+01  -1.194022e+02
   4.657108e+01  -5.642834e+01
   5.568480e+01   1.453964e+01
  -5.627269e+01   3.467325e+01
  -8.364783e+01  -2.644919e+01
  -2.215632e+01  -1.309907e+02
   7.913794e+01  -1.610439e+02
   1.871612e+02  -6.132073e+01
   1.344398e+02   6.818416e+01
  -1.299456e+01   2.014981e+02
  -7.973895e+01   1.456065e+02
  -1.053070e+02   2.227601e+01
  -7.363658e+01  -1.280009e+02
   2.392870e+01  -1.029992e+02
   4.190199e+01  -1.824508e+01
   4.800602e+01   5.946517e+01
   8.066093e+00   1.169905e+01
   1.808540e+01  -1.764742e+01
   3.232232e+01   4.897916e+00
   4.191196e+01   6.377088e+01
   3.337517e+01   1.381017e+02
  -3.152206e+01   2.985948e+01
  -1.354151e+02  -2.579759e+01
  -1.358020e+02  -6.691401e+01
  -1.549871e+01  -5.128348e+01
   8.118178e+01  -3.348488e+01
   9.262401e+01   1.097188e+01
  -3.766929e+00  -2.453663e-01
  -3.769301e+01   2.612021e+01
  -2.656555e+01   1.219290e+00
   3.827678e+01   4.399234e+00
  -2.669689e+01   2.199485e+01
  -7.663780e+01  -2.525940e+00
  -7.840740e+01   1.066468e+01
  -4.245402e+01  -4.660900e+01
   8.707421e+01  -1.135423e+02
   2.127260e+02  -9.923481e+01
   1.704639e+02   4.437251e+01
   3.365277e+01   1.586486e+02
  -9.881589e+01   1.486151e+02
  -1.308056e+02   4.041259e+01
  -8.235265e+01  -2.054927e+01
   7.715798e-01  -5.244730e+01
   2.168648e+01  -3.703583e+01
   6.833014e+00  -1.434406e+01
  -2.522155e+01  -4.122935e+01
   1.139030e+01  -1.018612e+02
   4.429542e+01  -7.244022e+01
   7.745335e+01   3.120904e+01
   8.069169e+01   8.629295e+01
   1.308682e+01   9.694120e+01
  -5.588506e+01   9.774733e+00
  -1.057980e+02  -9.195345e+01
  -6.603289e+01  -1.030678e+02
   7.316888e+01  -5.514477e+01
   1.061027e+02  -1.419902e+01
   4.363310e+01   6.471943e+01
  -5.597268e+01   4.514066e+01
  -4.036019e+01   9.719280e-01
   4.454036e+01  -2.247348e+01
   7.407070e+01  -1.955668e+01
   1.549206e+01   2.906963e+01
  -7.612385e+01   3.302271e+01
  -1.262891e+02   6.997851e+01
  -4.275180e+01   3.310741e-01
   7.317651e+00  -9.706280e+01
   8.119159e+01  -7.509472e+01
   4.451694e+01   1.295529e+01
   9.162755e-01   3.532920e+01
  -3.373741e+01   5.891363e+01
  -4.765454e+01   1.833830e+01
  -2.713332e+01  -3.463276e+01
  -1.503388e+01  -2.572942e+01
   2.638358e+01   5.115996e+00
   5.209440e+01   2.935441e+01
   2.130364e+01  -8.980089e+00
  -3.773196e+00   1.296195e+01
  -1.008233e+01  -7.377309e-01
   8.561636e-01   1.997553e+01
   1.659247e+01   4.491274e+01
  -3.060684e+01   1.038387e+01
  -2.282769e+01  -3.104767e+01
  -4.198895e+00  -6.011244e+01
   3.719686e+01   7.105878e+00
   7.510817e+01   2.686121e+01
   4.482710e+01   5.535423e+01
  -5.428152e+01   1.007966e+01
  -7.677391e+01  -1.828812e+01
  -6.445920e+01  -4.975349e+01
   3.956183e+01  -4.756837e+01
   6.819815e+01  -1.282927e+01
   1.625091e+01  -3.394591e+01
  -6.458448e+01   2.225995e+01
  -9.256494e+00  -7.050479e+00
   4.454679e+01  -9.769044e+00
   8.622800e+01  -1.286191e+00
