
 $NMID
 id='ANONYMOUS ', fmtdat='(2E16.6)'
 volume=1.0
 tramp=1.0
 $END
  -4.225303e+03  -8.594538e+01
  -2.546473e+03  -2.614649e+03
   7.147671e+02  -2.960161e+03
   2.288525e+03  -8.894397e+02
   1.011526e+03   7.286044e+02
  -7.297000e+02   6.202288e+02
  -9.328211e+02  -4.707394e+02
  -1.388560e+01  -1.103544e+03
   8.620731e+02  -8.009032e+02
   9.818291e+02   1.356705e+02
   4.787846e+02   9.328947e+02
  -2.253871e+02   9.459672e+02
  -6.417154e+02   1.202755e+02
  -4.180848e+02  -7.837722e+02
   2.515714e+02  -7.589259e+02
   6.231657e+02   9.745219e-01
   2.620013e+02   7.175846e+02
  -3.471428e+02   6.303937e+02
  -6.096217e+02   6.871088e+01
  -3.889927e+02  -3.676697e+02
   1.206338e+01  -4.485263e+02
   2.857683e+02  -2.543722e+02
   2.520328e+02  -2.606682e+01
  -1.399361e+02   1.088207e+02
  -4.412202e+02  -1.120338e+02
  -2.181565e+02  -4.600757e+02
   4.661693e+02  -4.540205e+02
   8.858855e+02   6.677905e+01
   4.365355e+02   6.204764e+02
  -4.232532e+02   5.328620e+02
  -7.886670e+02  -2.944924e+01
  -3.946638e+02  -4.977669e+02
   3.155934e+02  -5.784341e+02
   6.130092e+02  -2.001816e+02
   4.261208e+02   2.662528e+02
   5.867797e+01   4.796557e+02
  -2.221198e+02   3.098513e+02
  -1.903508e+02  -2.472551e+02
   1.661881e+02  -4.888664e+02
   5.036890e+02   1.882475e+01
   2.468423e+02   7.252225e+02
  -3.472414e+02   7.057253e+02
  -6.575861e+02  -6.671216e+00
  -2.839800e+02  -6.016484e+02
   3.305795e+02  -3.351069e+02
   3.870028e+02   3.266770e+02
  -6.418186e+01   5.867428e+02
  -6.024945e+02   1.360988e+02
  -6.158111e+02  -4.081670e+02
  -1.459901e+02  -6.206574e+02
   4.245007e+02  -3.550923e+02
   6.315017e+02   6.830269e+01
   3.545365e+02   4.091149e+02
  -1.429011e+02   3.741447e+02
  -4.640397e+02   3.979179e+01
  -2.047807e+02  -2.087407e+02
   1.451741e+02  -1.127448e+02
   1.712083e+02   1.615288e+02
  -2.128899e+02   2.277247e+02
  -3.829028e+02  -6.845976e+01
  -1.349627e+02  -3.270183e+02
   2.178886e+02  -2.794628e+02
   3.548879e+02  -7.490016e+01
   2.145211e+02   1.035586e+02
  -3.723536e+01   2.442681e+02
  -2.360867e+02   3.329316e+02
  -3.767711e+02   2.308899e+02
  -3.094525e+02  -1.393113e+02
  -6.132406e+01  -4.268422e+02
   1.232502e+02  -3.659365e+02
   8.582696e+01  -1.184716e+02
   2.802753e+01   1.955628e+01
   6.659757e+01  -1.100135e+02
   2.107153e+02  -1.372888e+02
   3.048309e+02   4.800477e+01
   1.656036e+02   2.843102e+02
  -7.139206e+01   2.847499e+02
  -2.390866e+02   1.663909e+01
  -2.042012e+02  -2.788923e+02
   1.415810e+01  -3.339881e+02
   2.836771e+02  -1.260968e+02
   3.550754e+02   1.671575e+02
   1.975119e+02   3.561000e+02
  -1.181948e+02   3.184029e+02
  -2.181242e+02   9.950521e+01
  -1.374863e+02   4.551744e+00
  -1.042091e+02   5.445957e+01
  -2.423882e+02   6.581356e+01
  -4.531042e+02  -4.666462e+01
  -3.440379e+02  -2.774994e+02
  -1.009756e+01  -4.582482e+02
   3.651948e+02  -4.274585e+02
   4.998065e+02  -1.776791e+02
   3.414368e+02   9.733877e+01
   7.176565e+01   2.921363e+02
  -1.302280e+02   2.748180e+02
  -8.196499e+01   3.063304e+01
   9.846337e+01  -9.840319e+01
   2.071376e+02   1.490629e+01
   3.202996e+01   2.203271e+02
  -1.552806e+02   2.012776e+02
  -1.875071e+02  -7.522154e+01
  -9.787938e+00  -1.982232e+02
   2.074154e+02  -4.213258e+01
   1.523127e+02   2.639046e+02
  -4.345611e+01   3.650792e+02
  -2.349432e+02   1.988117e+02
  -3.561479e+02  -6.845739e+01
  -2.764304e+02  -2.493349e+02
  -1.184744e+02  -2.662323e+02
   1.214315e+02  -1.935139e+02
   1.866742e+02  -1.782622e+00
   5.381953e+01   4.205864e+01
  -9.537795e+01  -5.245964e+01
  -5.059929e+01  -1.430230e+02
   1.376757e+02  -9.121304e+01
   2.076865e+02  -9.646824e+00
   8.489655e+01   7.256330e+01
  -7.729341e+01   2.532949e+01
  -7.301670e+01  -5.199215e+01
   1.179496e+02  -1.094608e+02
   2.740679e+02   2.661829e+01
   2.579536e+02   1.429966e+02
   5.878613e+01   2.736750e+02
  -1.774043e+02   3.149653e+02
  -3.007803e+02   1.414883e+02
  -2.015681e+02  -5.143022e+01
   2.839221e+01  -1.213242e+02
   1.298789e+02  -1.124014e+01
  -7.267507e+00   9.554124e+01
  -2.340771e+02   8.206053e+01
  -2.193795e+02  -9.489708e+01
  -8.136612e+01  -1.989837e+02
   1.054373e+02  -1.592760e+02
   1.631889e+02  -2.006630e+01
   8.343036e+01   4.034205e+01
  -3.306220e+01   4.858259e+00
  -3.179553e+01  -8.777159e+01
   4.180106e+01  -1.092436e+02
   1.859733e+02  -4.002508e+01
   1.893094e+02   1.198579e+02
   4.161066e+01   2.238744e+02
  -1.650299e+02   1.531260e+02
  -2.057071e+02   1.494982e+01
  -9.093042e+01  -1.129321e+02
   5.327460e+01  -1.196277e+02
   7.800130e+01  -3.206900e+01
   3.748871e+01   2.740035e+01
  -2.331544e+01   1.624350e+01
   7.635512e+00  -5.024324e+00
   1.075002e+02   2.508495e+01
   1.084220e+02   7.144943e+01
   2.318581e+01   1.539791e+02
  -1.090509e+02   1.751575e+02
  -2.359773e+02   2.973191e+01
  -2.026343e+02  -1.422461e+02
  -3.871744e+01  -2.344541e+02
   1.286243e+02  -1.815628e+02
   1.129740e+02  -3.636254e+01
   5.477544e+01   5.946140e+01
   1.398471e+01   4.182891e+01
   6.333412e+01  -2.955859e+01
   7.055268e+01   1.662461e+00
   7.287022e+01   4.207558e+01
  -4.327630e+01   8.152168e+01
  -7.548852e+01   4.064302e+01
  -4.544920e+01  -5.117597e+01
   3.373915e-01  -1.086018e+02
   1.493121e+02  -1.004741e+02
   1.914693e+02   4.048507e+01
   9.119585e+01   2.022302e+02
  -9.702181e+01   2.161485e+02
  -2.779063e+02   8.252607e+01
  -2.606393e+02  -9.926843e+01
  -8.142799e+01  -1.945462e+02
   6.523285e+01  -1.673270e+02
   1.052059e+02  -9.935981e+01
   8.418102e+01  -5.535314e+01
   6.017403e+01  -8.211217e+01
   7.849280e+01  -4.451160e+01
   1.410535e+02   2.367070e+01
   1.100911e+02   1.618412e+02
   4.131128e+01   2.104777e+02
  -1.224659e+02   1.792346e+02
  -1.986775e+02   3.064690e+01
  -1.520811e+02  -1.164061e+02
  -3.388423e+01  -1.666324e+02
   4.892091e+01  -1.233955e+02
   8.388409e+01  -1.252825e+00
  -4.829984e+00   3.116531e+01
   6.777925e+00   2.378932e+01
   4.537923e+01   3.488710e+01
   8.625725e+01   2.727426e+01
   3.083652e+01   1.613511e+01
  -5.048522e+01   5.648088e+01
  -1.474562e+02  -6.418933e+00
  -1.577577e+02  -5.218364e+01
  -2.115174e+01  -5.647229e+01
   1.060338e+02  -8.621431e+01
   1.579306e+02  -2.658766e+01
   4.135785e+01   5.241590e+01
  -7.602146e+01   6.209298e+01
  -6.237598e+01  -1.608477e+00
   8.686016e+00  -6.608150e+01
   5.603723e+01  -8.786844e+01
   6.867303e+01   1.696818e+01
   6.907624e+01   6.615609e+01
   4.580934e+01   4.537400e+01
   9.907963e+01  -1.427267e+01
   6.115668e+01  -2.049476e+01
   4.688192e+01   7.519527e+01
  -4.562221e+01   1.588981e+02
  -1.381889e+02   1.263311e+02
  -1.646179e+02   2.426117e+01
  -1.144519e+02  -9.160083e+01
  -1.839672e+01  -1.316801e+02
   9.185303e+01  -4.767594e+01
   5.981557e+01   5.933079e-01
  -7.230844e+01   3.366134e+01
  -1.672379e+02  -4.771148e+01
  -9.050917e+01  -1.299438e+02
   1.115210e+02  -9.736116e+01
   2.063746e+02  -5.627018e+01
   1.830013e+02   1.995564e+01
   4.098324e+01   8.411117e+01
  -7.679701e+01   6.472870e+01
  -9.687136e+01   1.201324e+01
   5.547900e+01  -4.254054e+01
   9.720258e+01   1.573304e+01
   3.995311e+01   1.404611e+02
  -9.640725e+01   1.608041e+02
  -1.446819e+02   3.675999e+01
  -1.217840e+02  -9.913523e+01
  -1.191766e+01  -2.192253e+02
   8.568824e+01  -1.575113e+02
   7.954844e+01   2.917923e+01
   4.786248e+01   1.129904e+02
  -8.173143e+00   9.387316e+01
  -2.874166e+01   1.851192e+01
  -4.467884e+01  -4.127270e+01
  -1.536705e+01  -1.913054e+01
   5.841114e+00   5.044421e-01
  -2.860531e+01  -1.464918e+01
  -5.493680e+01  -8.556646e+01
  -3.490288e+01  -9.380301e+01
   6.711864e+01  -4.828214e+01
   1.380011e+02   2.458874e+01
   1.352688e+02   1.003222e+02
   2.699017e+01   7.282534e+01
  -9.678507e+01   5.368823e+00
  -8.156556e+01  -2.239443e+01
  -1.636602e+01   1.236705e+01
   5.551240e+01  -2.036969e+00
   1.440667e+01  -1.776028e+01
  -1.346131e+01   3.252704e+01
  -1.129400e+01   1.600338e+00
   7.451102e+01  -1.143227e+01
   1.298941e+02   4.479618e+01
   1.261768e+01   6.855626e+01
  -1.335656e+02   1.003844e+02
  -1.997410e+02   6.286171e+01
  -1.516171e+02  -8.875719e+01
  -2.149820e+01  -1.580424e+02
   7.668455e+01  -1.577125e+02
   1.273820e+02  -9.222184e+01
   9.522569e+01   5.143147e+01
   2.980746e+01   5.114427e+01
   1.272102e+01   1.976228e+01
   9.605109e+00  -1.271205e+01
   2.134154e+01   4.769070e+01
   2.218101e+01   8.019101e+01
  -2.234100e+01   3.884875e+01
  -6.616316e+01  -2.235940e+01
  -1.095668e+02  -1.241428e+02
  -1.129158e+01  -8.455171e+01
   1.034998e+02   3.293338e+00
   9.400832e+01   8.262380e+01
   2.409901e+01   1.089448e+02
  -4.172906e+01   4.858516e+01
  -8.893731e+01   9.965323e+00
  -4.974727e+01  -2.792761e+01
   1.419461e+01  -4.604984e+01
   4.115617e+01  -3.996518e+01
  -1.126178e+01   7.137647e+00
  -4.624624e+01   2.335211e+01
  -5.900250e+00  -3.996377e+00
   7.458199e+01  -5.274902e+01
   1.099435e+02  -4.966076e+01
   3.649735e+01   1.151865e+01
  -4.680580e+00   9.921608e+01
  -5.590717e+01   5.761415e+01
  -5.527269e+01   8.758829e+00
  -6.334231e+00  -6.113650e+01
   2.357853e+01  -4.732826e+01
   2.978504e+01   1.194610e+00
   1.940350e+01   4.452972e+01
   1.420416e+01   4.389890e+01
  -2.737464e+01   3.113601e+00
  -5.050901e+01  -2.705447e+01
  -1.348180e+00   2.208054e+01
  -3.526976e+01   1.508853e+01
   2.135750e+00   9.905476e+00
  -1.126246e+01  -6.297722e+01
   2.039310e+01  -4.620158e+01
   3.083973e+01  -1.829622e+01
   2.751656e+01   2.934260e+01
   4.084207e+01   4.088632e+01
  -3.511078e+01   1.279530e+01
  -6.646437e+01  -1.530794e+01
  -8.106501e+00  -4.816459e+01
   5.521131e+01  -4.272529e+01
   8.792337e+01   3.594964e+01
   4.618324e+01   4.157374e+01
  -3.329476e+01   3.471076e+01
  -7.559334e+01   1.823100e+01
  -3.155281e+01  -1.660766e+01
   2.850011e+01  -2.137288e+01
   2.754088e+01   1.355579e+01
  -4.399252e+01   4.069738e+01
  -9.671390e+01   2.636863e+01
