
 $NMID
 id='ANONYMOUS ', fmtdat='(2E16.6)'
 volume=1.0
 tramp=1.0
 $END
  -4.113587e+03   5.919800e+01
  -2.649425e+03  -2.410509e+03
   5.077859e+02  -2.825188e+03
   2.207133e+03  -1.022347e+03
   1.005611e+03   6.239739e+02
  -5.597645e+02   5.479810e+02
  -8.810986e+02  -3.238749e+02
  -2.349900e+01  -1.015880e+03
   7.898525e+02  -7.956866e+02
   9.275498e+02   4.336807e+01
   4.830302e+02   8.784867e+02
  -1.994332e+02   9.364658e+02
  -5.899044e+02   1.498069e+02
  -4.299180e+02  -7.226928e+02
   2.271413e+02  -7.685650e+02
   6.045873e+02  -8.272508e+00
   2.995441e+02   6.939274e+02
  -3.193189e+02   6.559276e+02
  -5.998814e+02   1.428992e+02
  -4.248110e+02  -3.556485e+02
  -1.949406e+01  -4.193850e+02
   2.056246e+02  -2.923998e+02
   2.046958e+02  -3.933722e+01
  -1.211340e+02   6.144724e+01
  -3.753653e+02  -9.173739e+01
  -2.238993e+02  -4.188844e+02
   4.373624e+02  -4.332714e+02
   8.267477e+02   7.683665e+01
   4.236120e+02   5.305015e+02
  -4.014006e+02   5.009226e+02
  -7.692924e+02  -5.035156e+01
  -3.174728e+02  -4.777547e+02
   3.112406e+02  -5.142228e+02
   5.758593e+02  -2.064928e+02
   4.185176e+02   2.544417e+02
   7.009510e+01   5.004103e+02
  -1.990732e+02   3.025994e+02
  -1.810943e+02  -2.004656e+02
   1.536743e+02  -4.647926e+02
   4.654097e+02   3.787950e+00
   2.541573e+02   6.818901e+02
  -3.071851e+02   6.771535e+02
  -6.465237e+02   7.726568e+01
  -2.623641e+02  -5.182696e+02
   2.894464e+02  -3.206630e+02
   3.547313e+02   2.700266e+02
  -3.529414e+01   5.288735e+02
  -5.659749e+02   1.343474e+02
  -6.276321e+02  -3.937934e+02
  -1.601169e+02  -5.904532e+02
   3.933207e+02  -3.433702e+02
   6.227894e+02   5.338413e+01
   3.776769e+02   3.650620e+02
  -1.327431e+02   3.569488e+02
  -4.245222e+02   7.446800e+01
  -2.435423e+02  -1.869836e+02
   1.312163e+02  -1.231352e+02
   1.703416e+02   1.542745e+02
  -1.824097e+02   1.930252e+02
  -3.516716e+02  -6.814539e+01
  -1.342696e+02  -3.029221e+02
   2.064509e+02  -2.684419e+02
   3.598627e+02  -9.033801e+01
   2.361192e+02   1.043587e+02
  -4.369075e+01   2.281539e+02
  -2.686834e+02   3.324076e+02
  -3.336325e+02   2.053900e+02
  -3.293722e+02  -1.393672e+02
  -8.866692e+01  -4.257360e+02
   1.008790e+02  -3.695597e+02
   1.240578e+02  -1.204651e+02
   6.887277e+01   7.242698e+00
   3.750093e+01  -8.260591e+01
   2.104538e+02  -1.503430e+02
   2.912051e+02   5.711213e+01
   1.427924e+02   2.682144e+02
  -8.653317e+01   2.609488e+02
  -2.234264e+02   9.065440e+00
  -1.955964e+02  -2.377053e+02
   4.423801e+00  -3.017278e+02
   2.887191e+02  -1.183099e+02
   3.877960e+02   1.775537e+02
   1.723311e+02   3.524150e+02
  -6.160807e+01   3.259025e+02
  -2.338655e+02   1.278815e+02
  -1.438496e+02   3.330915e+01
  -1.065829e+02   2.384786e+01
  -2.123812e+02   6.483456e+01
  -4.110590e+02  -6.342477e+01
  -3.337741e+02  -2.914146e+02
  -1.263279e+01  -4.342615e+02
   3.614423e+02  -4.358363e+02
   4.627360e+02  -1.583512e+02
   3.069263e+02   9.490524e+01
   1.980935e+01   2.773950e+02
  -1.434735e+02   2.350018e+02
  -7.588224e+01   7.553568e+01
   7.707878e+01  -9.781992e+01
   1.662457e+02  -1.694979e+01
   4.844846e+01   1.884971e+02
  -1.550446e+02   1.597717e+02
  -1.828283e+02  -5.876607e+01
   1.262443e+01  -1.944180e+02
   1.947745e+02  -5.018367e+01
   1.626935e+02   2.760071e+02
  -6.035813e+01   3.502734e+02
  -2.520691e+02   2.235258e+02
  -3.578337e+02  -4.349970e+01
  -2.676248e+02  -2.446342e+02
  -9.661811e+01  -2.465901e+02
   1.415340e+02  -1.546690e+02
   1.666518e+02  -5.696710e-01
   5.070688e+01   3.071325e+01
  -8.372856e+01  -1.410126e+01
  -2.014623e+01  -1.551250e+02
   1.432187e+02  -1.174208e+02
   1.810040e+02   2.949145e+01
   5.177516e+01   7.431731e+01
  -7.751868e+01   1.541649e+01
  -2.893451e+01  -1.144950e+02
   1.296987e+02  -1.134539e+02
   2.962936e+02   2.888115e+01
   2.636652e+02   1.512885e+02
   8.687496e+01   2.439724e+02
  -2.023007e+02   2.590549e+02
  -2.962414e+02   1.109945e+02
  -1.737790e+02  -5.863694e+01
   5.397308e+01  -1.056194e+02
   8.962922e+01  -5.559419e+00
  -4.664313e+01   1.182994e+02
  -2.354183e+02   5.167829e+01
  -2.271222e+02  -9.722655e+01
  -7.742303e+01  -2.193131e+02
   1.299600e+02  -1.633928e+02
   1.563895e+02  -1.966730e+01
   8.089764e+01   5.533988e+01
  -1.082136e+01  -7.428608e+00
  -5.368385e+01  -5.342437e+01
   9.655933e+01  -1.049854e+02
   1.909068e+02  -2.378140e+01
   1.815579e+02   1.211441e+02
   3.338052e+01   2.606918e+02
  -1.639646e+02   1.492072e+02
  -1.884598e+02   4.893814e+00
  -7.276182e+01  -1.286425e+02
   6.571832e+01  -8.873115e+01
   9.136756e+01  -1.542977e+01
   3.058726e+01   2.913202e+01
  -2.285856e+01   2.448764e+01
  -6.923929e+00  -2.898328e+01
   7.367348e+01   6.988860e+00
   8.683762e+01   6.367735e+01
   3.312449e+00   1.529168e+02
  -1.083567e+02   1.432591e+02
  -2.257445e+02   2.718994e+01
  -2.125817e+02  -1.402938e+02
  -2.723312e+01  -2.279455e+02
   1.037856e+02  -1.805323e+02
   1.102480e+02  -2.368886e+01
   9.987217e+01   8.649244e+01
   1.224646e+01   4.800756e+01
   6.170419e+01  -9.901566e+00
   6.391747e+01  -4.542329e+00
   6.819892e+01   1.896851e+01
  -5.113410e+01   6.709007e+01
  -9.982161e+01   4.801300e+01
  -9.154262e+01  -5.506837e+01
   9.172229e+00  -1.094746e+02
   1.417341e+02  -1.184255e+02
   2.026215e+02   5.630285e+01
   9.441072e+01   2.035010e+02
  -1.191462e+02   2.124949e+02
  -2.521749e+02   8.183465e+01
  -2.574222e+02  -7.408015e+01
  -1.171099e+02  -1.798817e+02
   4.231586e+01  -1.341643e+02
   8.170555e+01  -1.028345e+02
   6.837833e+01  -7.229295e+01
   6.540520e+01  -9.868178e+01
   8.547938e+01  -7.152453e+01
   1.323811e+02  -6.495885e-01
   1.227979e+02   1.580332e+02
   4.054300e+01   2.139907e+02
  -1.214212e+02   1.524739e+02
  -1.682478e+02   9.630281e+00
  -1.153485e+02  -1.192231e+02
  -9.800761e+00  -1.477451e+02
   9.186550e+01  -9.419576e+01
   6.560416e+01  -2.904254e+00
  -7.353362e+00   3.844800e+01
  -1.307851e+01   2.409581e+01
   1.488539e+01   2.562563e+01
   7.982304e+01   8.112021e+00
   5.447372e+01   3.276671e+01
  -6.360111e+01   4.257559e+01
  -1.614063e+02  -7.668501e+00
  -1.564362e+02  -5.074072e+01
  -1.072280e+01  -1.102255e+02
   1.225303e+02  -7.643391e+01
   1.483781e+02   6.158197e+00
   3.774963e+01   5.856815e+01
  -5.538674e+01   3.140338e+01
  -7.506766e+01  -2.443586e+01
   1.246981e+01  -8.015293e+01
   5.975770e+01  -8.201604e+01
   4.124856e+01   1.327433e+01
   6.934156e+01   4.892985e+01
   4.982742e+01   5.296296e+01
   4.836593e+01   9.876684e+00
   4.208632e+01  -7.878215e+00
   2.293582e+01   5.193612e+01
  -3.526081e+01   1.590941e+02
  -1.279072e+02   1.182314e+02
  -1.698915e+02   3.329123e+01
  -1.365320e+02  -8.303372e+01
   1.165594e+00  -1.172850e+02
   9.755946e+01  -7.007139e+01
   1.439338e+01   2.755368e+01
  -4.346026e+01   2.100336e+01
  -1.204080e+02  -3.669156e+01
  -6.421432e+01  -9.080431e+01
   9.737148e+01  -1.380700e+02
   2.053777e+02  -6.000758e+01
   1.660981e+02   1.863027e+01
   4.669052e+01   9.219190e+01
  -7.119782e+01   9.338224e+01
  -5.056579e+01   9.702950e+00
   4.576577e+01  -6.283271e+01
   9.749426e+01   3.647586e+01
   4.641916e+01   1.227881e+02
  -9.729518e+01   1.470796e+02
  -1.583860e+02   8.424531e+01
  -1.046925e+02  -1.208267e+02
  -8.600026e+00  -1.824865e+02
   9.933356e+01  -1.434626e+02
   9.608966e+01   1.760336e+01
   7.118638e+01   1.150336e+02
   1.246635e+01   1.007391e+02
  -4.275072e+01   2.308549e+01
  -8.373435e+01  -1.595681e+01
  -1.194890e+01  -5.679616e+01
  -1.420267e+01   2.318141e+01
  -2.432527e+01   4.748756e+00
  -4.489065e+01  -7.626699e+01
  -2.763318e+01  -8.545556e+01
   5.699736e+01  -5.212359e+01
   1.483461e+02   5.163994e+01
   1.329067e+02   1.074337e+02
   4.455729e+01   7.056827e+01
  -8.056864e+01   8.803623e+00
  -1.298135e+02   7.781631e+00
  -1.484210e+01  -1.450991e+01
   4.241239e+01  -1.559058e+01
   1.006791e+01  -2.654664e+01
  -1.241601e+01  -1.060457e+01
   1.631464e+01  -3.517443e+01
   8.296059e+01   2.093881e+01
   7.988383e+01   1.671939e+01
   1.184102e+01   9.601128e+01
  -8.601974e+01   1.100243e+02
  -1.862049e+02   5.338408e+01
  -1.576457e+02  -7.189178e+01
  -3.490769e+01  -1.382174e+02
   9.001180e+01  -1.632938e+02
   9.890755e+01  -4.966904e+01
   8.712986e+01   1.980591e+01
   1.102104e+01   4.548138e+01
  -3.020422e-01  -2.836238e+00
   1.664456e+01  -1.914893e+01
   2.637805e+01   6.753495e+01
   2.252066e+01   7.078840e+01
  -1.420676e+01   4.344631e+01
  -7.700839e+01  -2.980088e+01
  -5.373325e+01  -1.152413e+02
   2.667138e+01  -1.120018e+02
   9.164235e+01  -9.941958e+00
   1.315924e+02   6.218189e+01
   1.275278e+01   1.046790e+02
  -9.437061e+01   6.094192e+01
  -1.024899e+02  -2.100304e+01
  -3.351930e+01  -5.755481e+01
   2.687979e+01  -4.796115e+01
   2.623323e+01  -3.614571e+01
  -1.362503e+01  -4.357662e+00
  -6.563559e+01  -1.548905e+01
  -2.175475e+01  -1.238072e+01
   7.499784e+01  -7.238792e+01
   9.955628e+01  -7.516563e+01
   6.452744e+01   3.267932e+01
   2.879401e+01   1.033444e+02
  -6.024834e+01   9.965915e+01
  -5.064028e+01   1.402303e+01
  -1.142214e+01  -3.749019e+01
   3.324867e+01  -5.776203e+01
   2.639124e+01   4.069828e+01
   1.806525e+01   5.914934e+01
   1.909311e+01   4.118282e+01
  -1.680022e+01   1.250904e+01
  -3.764447e+01  -4.139711e+01
  -2.977438e+01  -7.815546e+00
   1.455500e+01   1.919206e+01
   1.622076e+01  -3.430422e+00
   1.325957e+01  -4.374430e+01
   1.401547e+01  -2.572856e+01
   3.288872e+01   2.311731e+00
   4.131437e+01   3.308855e+01
  -4.477759e+00   5.716520e+01
  -3.859256e+01   3.622202e+01
  -7.432208e+01  -1.637091e+01
  -3.649540e+01  -4.320583e+01
   7.080669e+01  -5.157303e+01
   7.879789e+01   4.500129e+01
   5.951673e+01   4.125673e+01
  -8.594731e+00   3.907345e+01
  -5.929366e+01   2.577701e+01
  -2.335775e+01   2.960761e+01
   2.564157e+01  -4.206200e+00
   5.735891e+01   1.320780e+01
  -2.328359e+01   6.205409e+01
  -1.128318e+02   3.243464e+01
