
 $NMID
 id='ANONYMOUS ', fmtdat='(2E16.6)'
 volume=1.0
 tramp=1.0
 $END
   4.012406e+03  -7.660546e+01
   2.489562e+03   2.192831e+03
  -4.371767e+02   2.638489e+03
  -1.945965e+03   9.776805e+02
  -9.062268e+02  -3.654009e+02
   4.812845e+02  -4.270873e+02
   7.390237e+02   3.397728e+02
   2.264193e+01   9.123526e+02
  -7.541504e+02   7.348324e+02
  -8.615701e+02  -5.497049e+01
  -4.307993e+02  -7.964110e+02
   1.437807e+02  -8.692002e+02
   5.383880e+02  -1.377285e+02
   3.907555e+02   6.382309e+02
  -1.901442e+02   7.014877e+02
  -5.715861e+02  -2.062206e+01
  -2.877703e+02  -6.369252e+02
   2.871313e+02  -6.153517e+02
   5.949521e+02  -1.416062e+02
   4.255484e+02   3.500094e+02
  -1.343361e+00   4.067882e+02
  -2.230241e+02   2.534191e+02
  -1.665404e+02   5.886835e+01
   1.471967e+02  -2.948665e+01
   3.569602e+02   1.855182e+02
   1.699674e+02   3.975543e+02
  -4.616744e+02   3.456038e+02
  -7.501999e+02  -8.985336e+01
  -3.518604e+02  -4.903428e+02
   4.024582e+02  -4.161550e+02
   6.927634e+02   6.480357e+01
   3.026345e+02   4.687419e+02
  -3.158416e+02   4.858562e+02
  -5.592520e+02   1.783581e+02
  -3.948916e+02  -2.253589e+02
  -6.277007e+01  -4.590836e+02
   1.451378e+02  -2.479394e+02
   1.032810e+02   1.892718e+02
  -1.938804e+02   3.516592e+02
  -4.101052e+02  -5.711560e+01
  -1.669854e+02  -6.408731e+02
   2.824177e+02  -6.076703e+02
   5.750361e+02  -4.208221e+01
   2.420450e+02   4.830597e+02
  -2.832720e+02   2.719761e+02
  -3.285202e+02  -2.920036e+02
   6.408656e+01  -5.063290e+02
   5.582634e+02  -1.217733e+02
   5.924443e+02   3.872303e+02
   1.369914e+02   5.654085e+02
  -3.417598e+02   3.616983e+02
  -5.982431e+02  -6.836188e+01
  -3.504805e+02  -3.473149e+02
   1.150217e+02  -3.355786e+02
   3.949490e+02  -9.708135e+01
   2.518995e+02   1.603371e+02
  -9.318286e+01   9.036295e+01
  -1.332839e+02  -1.304689e+02
   1.526366e+02  -1.672542e+02
   3.788406e+02   6.608241e+01
   1.290307e+02   3.016003e+02
  -1.840638e+02   2.667950e+02
  -3.287046e+02   7.130515e+01
  -2.074382e+02  -1.317163e+02
   4.233705e+01  -2.198873e+02
   2.654851e+02  -3.366330e+02
   3.330408e+02  -2.137821e+02
   2.805999e+02   1.495113e+02
   8.634865e+01   4.066263e+02
  -1.004323e+02   3.589160e+02
  -8.765519e+01   1.466715e+02
  -2.007285e+01   2.355687e+01
  -6.254518e+01   9.626807e+01
  -2.237781e+02   1.152702e+02
  -3.040067e+02  -4.990096e+01
  -1.586782e+02  -2.551763e+02
   7.727238e+01  -2.395385e+02
   2.206153e+02  -2.897846e+01
   1.930744e+02   2.702121e+02
  -3.455717e+01   2.951447e+02
  -2.470999e+02   1.028826e+02
  -3.313614e+02  -1.673057e+02
  -1.816941e+02  -3.391658e+02
   9.074353e+01  -3.178859e+02
   2.065248e+02  -1.245553e+02
   1.402999e+02  -3.529445e+01
   1.208861e+02  -4.566880e+01
   2.426335e+02  -6.660214e+01
   4.202935e+02   6.619535e+01
   3.344429e+02   2.945661e+02
  -1.769054e+00   4.359045e+02
  -3.744123e+02   4.302952e+02
  -4.846672e+02   1.495000e+02
  -3.068830e+02  -1.315360e+02
  -4.594642e+01  -2.477902e+02
   1.391044e+02  -2.492792e+02
   5.899455e+01  -4.122132e+01
  -1.165157e+02   8.924385e+01
  -1.569479e+02   1.175397e+01
  -4.221559e+01  -1.830289e+02
   1.503267e+02  -1.563854e+02
   1.583949e+02   5.491809e+01
  -2.109675e+01   1.502186e+02
  -1.845665e+02   3.705461e+01
  -1.562938e+02  -2.509744e+02
   1.460648e+01  -3.365115e+02
   2.694301e+02  -1.971679e+02
   3.557980e+02   7.586241e+01
   2.775432e+02   2.503222e+02
   5.606958e+01   2.609973e+02
  -1.319561e+02   1.472336e+02
  -1.455971e+02   2.267049e+01
  -2.946863e+01  -3.689444e+01
   9.509769e+01   4.169398e+01
   5.643214e+00   1.388578e+02
  -1.403380e+02   8.173736e+01
  -1.880070e+02  -2.908878e+01
  -4.279541e+01  -7.913124e+01
   9.882803e+01  -2.832455e+01
   6.010019e+01   9.260097e+01
  -1.164874e+02   1.172130e+02
  -2.964198e+02  -5.096219e-03
  -2.897279e+02  -1.827937e+02
  -8.136928e+01  -2.537424e+02
   2.126439e+02  -2.660016e+02
   3.176746e+02  -1.088860e+02
   1.540779e+02   7.813553e+01
  -1.567537e+01   9.037655e+01
  -9.403477e+01   3.373799e+00
   5.872926e+01  -1.026859e+02
   2.368798e+02  -3.089537e+01
   2.235094e+02   1.055250e+02
   4.473880e+01   2.161181e+02
  -9.618790e+01   1.572268e+02
  -1.173820e+02  -1.618024e+00
  -6.936427e+01  -3.458222e+01
   1.793241e+01   2.037595e+01
   3.350986e+01   9.038663e+01
  -7.681278e+01   1.011319e+02
  -2.074144e+02   1.200717e+01
  -2.102434e+02  -1.124000e+02
  -9.456318e+00  -2.302310e+02
   1.718276e+02  -1.614197e+02
   1.815369e+02   2.685918e+00
   4.640688e+01   1.364874e+02
  -7.972940e+01   1.002374e+02
  -8.415241e+01   1.368628e+01
   1.012176e+01  -5.243058e+01
   4.338792e+01  -2.287967e+00
  -2.997120e+00   1.979585e+00
  -8.365392e+01   4.862470e+00
  -1.138344e+02  -5.829216e+01
   4.627943e+00  -1.627075e+02
   1.084969e+02  -1.402646e+02
   2.381703e+02  -3.276414e+01
   1.891195e+02   1.446600e+02
   4.298190e+01   2.215758e+02
  -1.155511e+02   1.809112e+02
  -1.424938e+02   1.431910e+01
  -8.186334e+01  -5.769028e+01
  -1.656378e+01  -1.768667e+01
  -6.250782e+01   1.240232e+01
  -7.353364e+01   1.464442e+01
  -3.623019e+01  -4.844975e+01
   5.279047e+01  -9.104684e+01
   1.079937e+02  -7.996412e+01
   8.632817e+01   3.966921e+01
   5.437462e+00   1.237703e+02
  -1.567197e+02   8.067961e+01
  -1.853871e+02  -5.314527e+01
  -8.859937e+01  -1.961571e+02
   1.184032e+02  -2.149600e+02
   2.625222e+02  -1.165755e+02
   2.621239e+02   4.461661e+01
   1.169324e+02   1.844643e+02
  -1.776207e+01   1.194310e+02
  -9.012730e+01   1.098294e+02
  -1.034805e+02   6.691108e+01
  -7.448675e+01   8.445438e+01
  -9.599181e+01   7.202351e+01
  -1.324176e+02  -1.105403e+01
  -1.428145e+02  -1.629611e+02
  -3.314934e+01  -2.095352e+02
   1.164904e+02  -1.776171e+02
   1.604553e+02  -2.120552e+01
   1.195488e+02   1.290207e+02
   3.304259e+01   1.611371e+02
  -6.490520e+01   1.065260e+02
  -7.496623e+01  -6.062968e+00
  -1.077623e+01  -5.801374e+01
  -1.386493e+01  -4.196294e+01
  -3.234157e+01  -2.323906e+01
  -7.240718e+01  -1.425164e+01
  -3.682656e+01  -2.892586e+01
   6.920228e+01  -5.973822e+01
   1.548511e+02  -6.105790e+00
   1.610348e+02   4.472652e+01
   4.942193e+01   1.110588e+02
  -1.296231e+02   4.537020e+01
  -1.509715e+02  -6.089030e+00
  -6.691626e+01  -3.578006e+01
   6.201581e+01  -5.079906e+01
   6.427881e+01   4.380326e+01
   5.362863e+00   9.155582e+01
  -6.396265e+01   8.392927e+01
  -5.515352e+01  -7.658815e+00
  -7.428257e+01  -5.859523e+01
  -5.938765e+01  -7.646234e+01
  -6.566083e+01  -1.682484e+01
  -4.798229e+01  -5.668917e+00
  -3.603990e+01  -6.842645e+01
   5.151085e+01  -1.466745e+02
   1.038354e+02  -1.498814e+02
   1.855716e+02  -3.697419e+01
   1.296923e+02   9.538177e+01
   6.333688e+00   1.225060e+02
  -7.954813e+01   5.842400e+01
  -3.952253e+01  -2.071765e+01
   7.796372e+01  -3.391017e+01
   1.354275e+02   2.124277e+01
   5.998228e+01   1.307253e+02
  -6.533414e+01   1.359073e+02
  -1.955719e+02   6.824656e+01
  -1.809870e+02  -3.757780e+01
  -4.432815e+01  -7.758727e+01
   4.645038e+01  -8.121084e+01
   3.741010e+01   8.755270e+00
  -4.771466e+01   1.254345e+01
  -9.053528e+01  -5.473365e+01
  -4.372819e+01  -1.137318e+02
   1.068446e+02  -1.521685e+02
   1.431284e+02  -5.022197e+01
   1.087142e+02   1.072570e+02
  -1.063924e+01   2.198362e+02
  -8.874675e+01   1.469851e+02
  -1.048665e+02   4.610775e+00
  -5.621977e+01  -1.465165e+02
   1.801152e+01  -9.994908e+01
   5.816093e+01  -3.110724e+01
   6.612524e+01   8.850634e+00
   4.641064e+01   8.150392e+00
  -1.174963e+01  -2.540240e+01
   5.156812e+01   7.968618e-01
   6.066457e+01   8.135534e+01
   4.579161e+01   9.899092e+01
  -3.358909e+01   7.617668e+01
  -1.428252e+02  -4.907571e+01
  -1.534923e+02  -9.692335e+01
  -1.312014e+01  -7.218750e+01
   7.023940e+01  -2.222436e+01
   9.209219e+01  -9.234674e+00
   1.220487e+01   2.298794e+01
  -3.421380e+01   3.356854e+01
   4.171774e+00   1.685116e+01
   1.855233e+01   1.912773e+01
  -5.965897e+00  -5.126590e+00
  -5.890497e+01  -2.551812e+00
  -7.154234e+01  -3.381010e+01
  -2.216142e+01  -9.100128e+01
   8.748261e+01  -1.078385e+02
   1.922855e+02  -5.980991e+01
   1.695458e+02   5.332877e+01
   2.427505e+01   1.737498e+02
  -6.936028e+01   1.896444e+02
  -1.080953e+02   6.925811e+01
  -8.388421e+01  -2.190836e+01
  -5.255227e+01  -1.238538e+01
   1.934630e+01  -2.783162e+01
  -2.472778e+00  -1.395451e+01
  -4.027498e+01  -6.520195e+01
  -3.705094e+01  -1.025016e+02
   3.903961e+01  -6.701235e+01
   8.955911e+01   4.083800e+01
   6.574375e+01   9.165734e+01
  -2.002014e+00   1.001168e+02
  -7.749337e+01   1.717376e+01
  -1.128785e+02  -8.343724e+01
  -2.736281e+01  -9.086359e+01
   8.370399e+01  -8.729325e+01
   1.136404e+02   1.934918e+01
   4.520808e+01   2.014730e+01
  -1.274713e+01   6.608864e+01
  -2.672758e+01   1.373559e+01
   1.891794e+01   7.683436e+00
   8.916472e+01   6.021319e+00
   1.131432e+01   1.534424e+01
  -5.622537e+01   8.767203e+01
  -8.636645e+01   6.503670e+01
  -3.173975e+01  -1.972567e+01
  -1.769583e+01  -1.072771e+02
   4.022755e+01  -8.297348e+01
   5.090118e+01  -8.450749e+00
  -4.330052e+00   6.217489e+01
  -1.084983e+01   6.782169e+01
  -4.165375e+01  -2.558623e+01
  -3.579901e+01  -4.909588e+01
   5.241338e+00  -7.426782e+01
   3.128676e+01   7.313808e+00
   3.088360e+01   1.951633e+01
   2.389121e+01  -2.683127e+01
  -1.815101e+01  -3.966446e+01
  -1.536261e+01  -8.281937e+00
   1.653831e+01   3.362996e+01
   1.436126e+00   5.606317e+01
  -3.676731e+01   1.810993e+01
  -3.985454e+01  -2.106385e+01
  -1.721816e+01  -6.463408e+01
   3.407821e+01  -5.012305e+01
   4.910512e+01   3.980395e+01
   2.558903e+01   5.907881e+01
  -5.983802e+01   5.790943e+01
  -7.770095e+01  -3.011567e+01
  -2.326808e+01  -4.746599e+01
   3.120271e+01  -2.596240e+01
   7.090179e+01  -6.032691e+00
   3.093857e+01  -1.801733e+01
  -2.337558e+01  -2.695623e+01
  -2.863771e+01  -2.981533e+01
   3.204285e+01  -5.969252e+01
   9.018579e+01  -1.329835e+01
