
 $NMID
 id='ANONYMOUS ', fmtdat='(2E16.6)'
 volume=1.0
 tramp=1.0
 $END
  -4.298293e+03   1.875414e+02
  -2.536212e+03  -2.458457e+03
   7.929531e+02  -2.824182e+03
   2.248687e+03  -9.094796e+02
   1.047696e+03   6.498937e+02
  -6.405986e+02   7.567642e+02
  -8.735480e+02  -3.422629e+02
  -3.476103e+01  -1.016441e+03
   8.382487e+02  -8.048308e+02
   9.382245e+02   5.362267e+01
   4.777346e+02   8.742060e+02
  -2.155281e+02   9.062564e+02
  -6.068040e+02   1.383887e+02
  -4.332064e+02  -7.235104e+02
   2.378078e+02  -7.549937e+02
   6.649020e+02  -9.725185e+00
   3.345108e+02   7.051487e+02
  -3.451531e+02   6.073245e+02
  -6.177180e+02   4.342458e+01
  -4.167302e+02  -3.905287e+02
  -4.947936e+00  -4.562074e+02
   2.324599e+02  -2.951924e+02
   2.460805e+02  -4.337766e+01
  -1.064619e+02   7.503856e+01
  -4.007733e+02  -1.096661e+02
  -2.075747e+02  -4.406260e+02
   4.713460e+02  -3.869002e+02
   8.179295e+02   7.851307e+01
   4.320370e+02   5.490305e+02
  -4.047587e+02   5.035934e+02
  -7.541516e+02   1.919035e+01
  -3.371580e+02  -4.934567e+02
   3.063639e+02  -5.224865e+02
   5.559909e+02  -1.620116e+02
   4.416812e+02   2.355126e+02
   6.707346e+01   5.133387e+02
  -2.022354e+02   3.051561e+02
  -1.852661e+02  -2.157780e+02
   1.253268e+02  -4.664448e+02
   4.245198e+02   5.173892e+00
   2.429682e+02   7.012767e+02
  -3.005668e+02   6.548871e+02
  -5.966748e+02   2.235441e+01
  -2.656514e+02  -5.772017e+02
   2.935321e+02  -3.294359e+02
   3.839697e+02   2.723243e+02
  -5.065625e+01   5.412662e+02
  -5.652399e+02   1.664822e+02
  -5.997508e+02  -4.467992e+02
  -1.764509e+02  -5.786772e+02
   3.794200e+02  -4.005487e+02
   6.145448e+02   7.652108e+01
   3.742600e+02   4.159144e+02
  -1.272463e+02   3.997751e+02
  -4.545478e+02   9.480279e+01
  -2.324926e+02  -2.031406e+02
   1.250906e+02  -1.006324e+02
   1.591707e+02   1.593417e+02
  -1.899726e+02   2.144632e+02
  -3.796436e+02  -8.242795e+01
  -1.460383e+02  -3.209474e+02
   2.296835e+02  -2.603012e+02
   3.362624e+02  -5.605615e+01
   2.109373e+02   1.168982e+02
  -4.539417e+01   2.220035e+02
  -2.472057e+02   3.409204e+02
  -3.716818e+02   2.003023e+02
  -2.885708e+02  -1.437158e+02
  -6.820932e+01  -4.087022e+02
   1.269468e+02  -3.656021e+02
   1.049840e+02  -1.256176e+02
   4.437355e+01   4.644830e+00
   5.618372e+01  -8.477582e+01
   2.064805e+02  -1.317022e+02
   2.437463e+02   3.455307e+01
   1.404816e+02   3.217093e+02
  -4.488101e+01   2.698907e+02
  -2.345770e+02  -9.879701e+00
  -1.915596e+02  -2.702629e+02
   2.059226e+01  -2.817472e+02
   2.648598e+02  -1.172688e+02
   3.550433e+02   1.998399e+02
   1.973908e+02   3.511569e+02
  -9.902324e+01   3.387056e+02
  -2.448898e+02   1.007283e+02
  -1.421610e+02  -4.363783e+00
  -9.569186e+01   5.244898e+01
  -2.272162e+02   7.513461e+01
  -4.075636e+02  -5.750830e+01
  -3.499794e+02  -2.811114e+02
   2.338914e+01  -4.351722e+02
   3.814624e+02  -4.182283e+02
   5.072942e+02  -1.948913e+02
   3.373248e+02   1.057236e+02
   4.909879e+01   2.844143e+02
  -1.249693e+02   2.526246e+02
  -9.483316e+01   4.603326e+01
   1.060624e+02  -1.098631e+02
   2.024232e+02  -2.224793e+01
   4.500146e+01   1.809926e+02
  -1.738291e+02   1.688571e+02
  -1.785214e+02  -5.920591e+01
   4.474155e+01  -1.916536e+02
   2.183819e+02  -3.052295e+01
   1.773721e+02   2.727387e+02
  -4.114662e+01   3.441928e+02
  -2.529866e+02   1.844779e+02
  -3.412288e+02  -1.111118e+02
  -2.537133e+02  -2.832445e+02
  -8.690385e+01  -2.430376e+02
   9.885967e+01  -1.500467e+02
   1.705116e+02  -3.738535e+01
   5.943033e+01   2.119187e+01
  -6.539077e+01  -6.104331e+01
  -2.250953e+01  -1.111684e+02
   1.142153e+02  -9.135850e+01
   1.758210e+02   6.604395e+00
   6.678613e+01   9.037539e+01
  -6.640876e+01   1.097582e+01
  -6.711812e+01  -6.651739e+01
   1.390168e+02  -5.784862e+01
   2.979236e+02   2.686785e+01
   2.515707e+02   1.339812e+02
   2.178688e+01   2.352321e+02
  -1.775139e+02   2.775770e+02
  -3.102894e+02   1.161350e+02
  -1.575130e+02  -5.941849e+01
   2.905715e+01  -1.174592e+02
   9.223288e+01   6.706960e+00
  -3.271382e+01   8.635031e+01
  -1.973288e+02   6.020823e+01
  -2.072555e+02  -1.048850e+02
  -4.980403e+01  -1.964048e+02
   1.061422e+02  -1.546301e+02
   1.329781e+02  -1.190734e+01
   5.645764e+01   3.262715e+01
  -3.462523e+01   2.720618e+00
  -2.997304e+01  -7.449803e+01
   4.822977e+01  -9.472282e+01
   2.045136e+02  -3.583833e+01
   2.073140e+02   1.451477e+02
   3.595340e+01   2.299713e+02
  -1.847536e+02   1.437687e+02
  -1.903585e+02   1.650977e+01
  -5.446883e+01  -1.117346e+02
   6.062892e+01  -1.092548e+02
   8.339133e+01  -7.654559e+00
   2.832056e+01   3.993721e+01
  -3.006803e+00   2.158042e+01
   7.916840e+00  -2.001672e+01
   7.306629e+01   1.190535e+01
   8.615834e+01   9.024142e+01
  -2.683216e+00   1.291341e+02
  -1.249056e+02   1.517337e+02
  -2.036522e+02   3.166459e+01
  -1.886877e+02  -1.443130e+02
  -4.259144e+01  -2.488003e+02
   1.135630e+02  -1.976252e+02
   1.319367e+02  -1.942330e+01
   6.377306e+01   6.049169e+01
   7.742803e+00   2.904174e+01
   3.614557e+01  -2.414478e+01
   9.539545e+01  -1.696383e+01
   1.939880e+01   1.965616e+01
  -5.512303e+01   8.612777e+01
  -1.048629e+02   1.845627e+01
  -4.392583e+01  -1.219975e+01
   1.339321e+01  -9.093871e+01
   1.593297e+02  -7.983632e+01
   1.626468e+02   4.617207e+01
   9.847691e+01   2.333018e+02
  -9.426566e+01   2.194775e+02
  -2.610853e+02   1.074994e+02
  -2.606015e+02  -6.567202e+01
  -9.856526e+01  -1.770631e+02
   4.427556e+01  -1.357025e+02
   9.425161e+01  -9.768231e+01
   9.554883e+01  -7.699680e+01
   6.641917e+01  -1.093978e+02
   9.207360e+01  -8.822764e+01
   1.381210e+02   1.916454e+01
   1.105381e+02   1.407228e+02
   1.682154e+01   2.300261e+02
  -1.116453e+02   1.760249e+02
  -1.737028e+02   1.696365e+01
  -1.366283e+02  -1.086023e+02
  -2.950700e+01  -1.611387e+02
   6.262009e+01  -7.984473e+01
   5.573180e+01   1.089987e+01
  -5.935372e-01   3.570589e+01
   1.656240e+01   1.044737e+01
   6.999399e+01   2.716597e+01
   7.387888e+01   3.911786e+01
   6.301987e+01   5.814166e+01
  -7.850170e+01   4.049135e+01
  -1.335510e+02  -6.100691e+00
  -1.325781e+02  -9.401861e+01
  -3.452923e+01  -7.459816e+01
   1.121909e+02  -7.126515e+01
   1.529736e+02  -2.729253e+01
   5.911278e+01   4.591028e+01
  -5.344590e+01   4.550733e+01
  -6.780273e+01  -3.046740e+01
   1.160811e+01  -7.383978e+01
   6.086082e+01  -3.575196e+01
   9.386814e+01   2.757762e+00
   3.784230e+01   7.806096e+01
   2.842555e+01   5.404800e+01
   6.317912e+01  -1.784383e+01
   7.161799e+01  -1.977320e+01
   3.525073e+01   8.602963e+01
  -1.861544e+01   1.594813e+02
  -1.124267e+02   1.531072e+02
  -1.477901e+02   2.449773e+01
  -1.336314e+02  -1.045792e+02
  -6.021375e+00  -1.479653e+02
   7.783118e+01  -3.750944e+01
   7.315982e+01   4.585644e+00
  -6.198393e+01   2.615574e+01
  -1.377348e+02  -6.904792e+01
  -9.556524e+01  -1.518898e+02
   4.357820e+01  -9.155325e+01
   1.828874e+02  -7.164926e+01
   1.821175e+02   1.921458e+01
   3.417846e+01   6.323071e+01
  -6.186023e+01   7.312295e+01
  -7.298405e+01   1.220690e+01
   1.868588e+01  -2.877062e+01
   1.163240e+02   2.835298e+01
   3.701154e+01   1.123081e+02
  -9.861053e+01   1.578277e+02
  -1.700299e+02   8.933532e+01
  -1.088406e+02  -1.097745e+02
  -1.197106e+01  -1.879577e+02
   6.964070e+01  -1.646300e+02
   7.273019e+01  -5.809580e+00
   5.104046e+01   1.321042e+02
  -1.058424e+01   1.059422e+02
  -4.838338e+01   1.454130e+01
  -5.500341e+01  -8.767454e+00
  -3.651624e+01  -2.326454e+00
   3.868676e+00   7.409442e+00
  -1.933742e+01  -4.358699e+01
  -4.762947e+01  -8.213323e+01
  -2.344549e+01  -1.001170e+02
   6.783022e+01  -2.356779e+00
   1.175001e+02   4.262205e+01
   1.233461e+02   9.076698e+01
  -2.382025e+01   4.482137e+01
  -6.955175e+01   2.460292e+01
  -7.280126e+01   1.072550e+00
  -4.021819e+01  -1.724575e+01
   3.084945e+01  -1.315836e+00
  -4.700718e+00  -2.449705e+01
  -2.325238e+01   1.899577e+01
   2.169975e+01   1.409701e+01
   7.583770e+01   6.992847e+00
   1.099602e+02   3.323058e+01
  -1.511911e+00   9.366193e+01
  -1.257355e+02   1.307699e+02
  -2.113450e+02   5.408025e+01
  -1.576627e+02  -8.568158e+01
  -3.341889e+01  -1.910392e+02
   6.815924e+01  -1.442087e+02
   1.330076e+02  -4.495274e+01
   6.659567e+01   2.862846e+01
   3.001929e+01   4.019682e+01
   8.419297e+00   1.484198e+01
  -4.237935e+00   3.220988e+01
   3.247724e+01   4.684101e+01
   1.767672e+01   6.947932e+01
  -4.281804e+01   8.407247e+01
  -8.803675e+01  -3.330605e+01
  -7.766798e+01  -1.215842e+02
   1.146689e+01  -1.096202e+02
   7.175418e+01  -3.270547e+01
   1.141812e+02   8.689631e+01
   2.971685e+01   9.540593e+01
  -5.555358e+01   6.909031e+01
  -1.093305e+02  -1.680705e+01
  -4.718691e+01  -5.486175e+01
   1.522294e+01  -4.499335e+01
   2.978901e+01  -3.106508e+01
  -4.508501e+01  -1.668053e+01
  -6.610320e+01   1.485213e+01
   2.837089e+00  -2.461638e+01
   6.368683e+01  -5.885319e+01
   9.689029e+01  -6.283388e+01
   6.341090e+01   4.116839e+00
  -2.274890e+01   6.124282e+01
  -5.514883e+01   5.206227e+01
  -1.794513e+01   2.572798e+01
   1.236523e+01  -6.250024e+01
   2.738579e+01  -1.969879e+01
   4.488227e+01   1.116637e+01
   3.321052e+01   5.559684e+01
  -1.779153e+01   1.689367e+01
  -4.199944e+01  -8.620891e+00
  -4.737931e+01  -4.709537e+00
  -1.454684e+01   3.448891e+00
   1.985841e+01   4.079957e+01
  -3.283000e+01   4.057184e+00
  -1.124620e+01  -4.161286e+01
  -7.130090e+00  -2.426144e+01
   2.450533e+01  -7.554989e+00
   1.624165e+01   6.608673e+01
   1.184172e+01   5.594986e+01
  -3.626094e+01   6.244856e+01
  -3.877314e+01  -3.909543e+01
  -2.313291e+01  -4.265029e+01
   3.191921e+01  -4.182013e+01
   9.876001e+01   1.223284e+01
   3.567280e+01   5.672462e+01
  -1.897930e+01   5.811872e+01
  -7.572595e+01   1.528577e+01
  -3.228815e+01  -1.302006e+01
   4.356235e+01   1.644148e+01
   4.964100e+01   2.352688e+01
  -1.487547e+01   2.502761e+01
  -6.477578e+01   3.027151e+01
