
 $NMID
 id='ANONYMOUS ', fmtdat='(2E16.6)'
 volume=1.0
 tramp=1.0
 $END
   4.269012e+03   1.885905e+02
   2.436084e+03   2.727639e+03
  -8.862341e+02   2.830669e+03
  -2.268799e+03   8.133957e+02
  -8.776551e+02  -6.898867e+02
   7.376624e+02  -5.544748e+02
   8.628649e+02   5.020496e+02
  -1.519969e+01   1.119469e+03
  -8.867004e+02   7.663230e+02
  -9.577573e+02  -1.702620e+02
  -4.087898e+02  -9.209227e+02
   3.027974e+02  -9.144314e+02
   6.427470e+02  -7.838541e+01
   3.568624e+02   7.849478e+02
  -3.620166e+02   7.554006e+02
  -6.021023e+02  -5.842116e+01
  -2.458334e+02  -7.015852e+02
   3.756150e+02  -5.951855e+02
   6.379274e+02  -7.879279e+01
   3.391021e+02   3.522076e+02
  -2.956246e+01   4.131049e+02
  -2.709959e+02   2.573698e+02
  -2.214812e+02  -2.848243e+01
   1.545115e+02  -9.116407e+01
   4.467021e+02   1.137588e+02
   2.074728e+02   4.887784e+02
  -5.258561e+02   4.259858e+02
  -8.627004e+02  -7.678213e+01
  -4.413816e+02  -6.239232e+02
   4.692508e+02  -5.276299e+02
   8.026555e+02   3.722596e+01
   3.346312e+02   5.345187e+02
  -3.306318e+02   5.900867e+02
  -6.288127e+02   1.748900e+02
  -4.333100e+02  -2.406191e+02
  -3.290703e+01  -4.918732e+02
   2.559973e+02  -3.067114e+02
   1.996273e+02   2.444550e+02
  -2.347976e+02   4.807791e+02
  -5.274666e+02  -3.111782e+01
  -1.933295e+02  -7.886695e+02
   3.578994e+02  -6.859136e+02
   6.203080e+02   3.743660e+01
   2.889390e+02   5.905512e+02
  -3.193477e+02   3.454765e+02
  -3.724966e+02  -3.628578e+02
   6.547323e+01  -5.967667e+02
   6.112758e+02  -1.390996e+02
   6.426607e+02   4.201825e+02
   1.317499e+02   6.021851e+02
  -4.410047e+02   3.399684e+02
  -6.015665e+02  -8.999312e+01
  -3.556674e+02  -3.796676e+02
   1.886619e+02  -3.409327e+02
   4.627253e+02  -2.072351e+01
   1.710932e+02   2.137118e+02
  -1.706477e+02   1.020577e+02
  -1.392790e+02  -1.829167e+02
   2.092109e+02  -2.199279e+02
   3.959656e+02   1.170736e+02
   1.409666e+02   3.634912e+02
  -2.292063e+02   2.634565e+02
  -3.462425e+02   6.034183e+01
  -2.104506e+02  -1.217029e+02
   7.696494e+00  -2.113383e+02
   2.540452e+02  -3.471587e+02
   3.753788e+02  -2.072482e+02
   2.957383e+02   1.616184e+02
   4.677509e+01   4.655302e+02
  -1.524498e+02   3.548401e+02
  -1.279864e+02   1.015785e+02
   9.668170e+00   1.818676e+00
  -2.766745e+01   1.289250e+02
  -2.265631e+02   1.320656e+02
  -3.236713e+02  -7.100849e+01
  -1.671418e+02  -2.847253e+02
   9.295683e+01  -2.761725e+02
   2.401346e+02   5.958022e+00
   2.065458e+02   2.690244e+02
  -1.198287e+01   3.244160e+02
  -3.031399e+02   9.745781e+01
  -3.772097e+02  -1.694798e+02
  -1.977779e+02  -3.407500e+02
   9.059443e+01  -3.076992e+02
   2.272441e+02  -8.703172e+01
   1.288308e+02   1.998926e+01
   1.241320e+02  -2.536963e+01
   2.345964e+02  -9.353896e+01
   4.279868e+02   3.497015e+01
   3.567496e+02   2.801189e+02
   1.404421e+00   4.298816e+02
  -3.917322e+02   4.173456e+02
  -4.964637e+02   1.987876e+02
  -2.959560e+02  -1.022317e+02
  -7.046082e+01  -3.241799e+02
   1.440412e+02  -2.616466e+02
   7.977328e+01  -2.257325e+01
  -9.718052e+01   1.034994e+02
  -2.140347e+02  -1.615000e+01
  -5.071201e+01  -2.089641e+02
   1.904115e+02  -1.745862e+02
   1.651813e+02   8.223516e+01
  -3.127649e+01   2.103580e+02
  -2.155931e+02   3.497177e+01
  -1.614129e+02  -2.726987e+02
   6.168645e+01  -3.762234e+02
   2.273922e+02  -1.830875e+02
   3.310779e+02   5.485671e+01
   2.959311e+02   2.490022e+02
   1.103422e+02   2.701549e+02
  -1.160228e+02   1.890206e+02
  -1.727116e+02   1.977747e+01
  -6.266867e+01  -2.984950e+01
   6.991648e+01   2.375347e+01
   3.930249e+01   1.437538e+02
  -1.460662e+02   1.042332e+02
  -1.926699e+02  -2.272833e+01
  -5.716564e+01  -8.463274e+01
   7.844725e+01  -2.091506e+01
   7.110429e+01   1.125702e+02
  -1.059611e+02   7.077767e+01
  -3.086553e+02  -1.084195e+01
  -3.016296e+02  -1.494438e+02
  -5.205262e+01  -2.814005e+02
   2.077455e+02  -2.828585e+02
   3.115822e+02  -1.238766e+02
   1.786221e+02   7.261669e+01
  -1.959353e+01   1.209680e+02
  -7.627085e+01  -5.372557e-01
   6.189173e+01  -9.667691e+01
   2.156860e+02  -6.668802e+01
   2.123327e+02   1.058675e+02
   8.174789e+01   1.973234e+02
  -9.901076e+01   1.734263e+02
  -1.737263e+02   7.466779e+00
  -6.295860e+01  -4.439943e+01
   2.307835e+01  -9.486120e+00
   3.153218e+01   4.881549e+01
  -6.162198e+01   1.464646e+02
  -1.718911e+02   7.051768e+01
  -2.078101e+02  -1.230890e+02
  -3.129498e+01  -2.087761e+02
   1.454744e+02  -1.880256e+02
   2.018744e+02   4.308727e+00
   4.278237e+01   1.184964e+02
  -6.417344e+01   1.109866e+02
  -7.522384e+01   4.962788e+01
  -2.322712e+01  -4.084522e+01
   1.011784e+01   9.935667e-01
   7.287879e+00  -7.038776e+00
  -7.921992e+01  -5.414590e+00
  -8.757650e+01  -5.962494e+01
  -1.391861e+01  -1.489922e+02
   1.235095e+02  -1.598111e+02
   2.277950e+02  -1.988150e+01
   1.929929e+02   1.466097e+02
   4.515415e+01   2.471611e+02
  -1.034583e+02   1.949982e+02
  -1.266182e+02   3.881796e+01
  -8.353864e+01  -6.161220e+01
  -2.059675e+01  -5.393906e+01
  -8.095281e+01   6.887885e+00
  -7.571045e+01  -1.338194e+01
  -4.330592e+01  -4.018276e+01
   6.465978e+01  -8.874875e+01
   8.803592e+01  -3.908566e+01
   7.651021e+01   4.284692e+01
  -3.218390e+01   1.364320e+02
  -1.501855e+02   7.919471e+01
  -2.036912e+02  -7.420578e+01
  -1.119136e+02  -2.046200e+02
   1.095055e+02  -2.266954e+02
   2.608686e+02  -1.198857e+02
   2.643075e+02   6.168409e+01
   1.072520e+02   1.878799e+02
  -2.505105e+01   1.602733e+02
  -1.395708e+02   1.034302e+02
  -9.245594e+01   7.519918e+01
  -8.380817e+01   8.070641e+01
  -8.870119e+01   6.493221e+01
  -1.244295e+02  -1.034834e+01
  -1.088617e+02  -1.714176e+02
  -1.946430e+01  -2.058365e+02
   1.032195e+02  -1.924255e+02
   1.775399e+02  -5.681244e+01
   1.274088e+02   1.205562e+02
   5.989569e+01   1.613716e+02
  -8.002668e+01   1.004907e+02
  -8.416661e+01  -4.998230e+00
   1.435206e+00  -3.701241e+01
   3.663581e+00  -3.234458e+01
  -5.468419e+01  -2.528522e+01
  -9.641783e+01  -2.576197e+01
  -4.143779e+01  -3.899631e+01
   8.468329e+01  -2.333520e+01
   1.509468e+02   3.857710e-01
   1.522745e+02   6.183697e+01
   2.512854e+01   8.846102e+01
  -1.013817e+02   4.615562e+01
  -1.460791e+02   1.990478e+01
  -5.499725e+01  -6.815940e+01
   7.382018e+01  -4.292787e+01
   6.461785e+01  -4.040120e+00
  -3.303454e+01   7.192721e+01
  -4.750305e+01   3.474497e+01
  -7.485125e+01   8.697848e+00
  -5.734650e+01  -7.305668e+01
  -5.967532e+01  -3.681488e+01
  -5.521590e+01   1.054863e+01
  -6.599548e+01   1.909047e+01
  -2.152487e+01  -6.666363e+01
   3.992355e+01  -1.617222e+02
   1.073491e+02  -1.619082e+02
   1.462543e+02  -5.550658e+01
   1.419096e+02   9.898380e+01
   2.522132e+01   1.534944e+02
  -9.563583e+01   6.806673e+01
  -6.921156e+01  -1.948347e+01
   5.641523e+01  -3.190163e+01
   1.316005e+02   5.049714e+01
   1.031581e+02   1.331757e+02
  -9.531741e+01   1.204133e+02
  -2.014751e+02   6.883408e+01
  -1.910028e+02  -3.703936e+01
  -3.848870e+01  -8.716566e+01
   1.027053e+02  -4.849718e+01
   4.895925e+01  -2.274977e+01
  -5.130364e+01   2.905426e+01
  -8.277027e+01  -1.209877e+01
  -7.259843e+01  -1.339192e+02
   1.227169e+02  -1.774845e+02
   1.287174e+02  -8.518750e+01
   1.041038e+02   1.135734e+02
  -1.545588e+01   1.852207e+02
  -1.266341e+02   1.560667e+02
  -1.057540e+02  -1.829346e+01
  -3.907417e+01  -1.254194e+02
   2.245349e+01  -1.221598e+02
   5.702921e+01  -2.334853e+01
   4.527754e+01   2.149049e+01
   3.456865e+01   2.389738e+01
  -6.670405e+00  -2.434170e+01
   2.889898e+01   2.877180e+01
   4.095181e+01   9.104196e+01
   1.516172e+01   1.300556e+02
  -6.430805e+01   4.432100e+01
  -1.391658e+02  -5.141232e+01
  -1.385447e+02  -5.438518e+01
  -7.937777e+00  -8.174616e+01
   1.057103e+02  -2.021253e+01
   1.112259e+02   1.640751e+01
   5.005152e+00  -2.174898e+01
  -4.657874e+01   1.293018e+00
  -7.992560e+00   4.038734e+00
   2.929522e+01   1.605157e+01
   3.592907e+01  -1.976818e+01
  -8.362254e+01   1.645906e+01
  -9.191676e+01  -1.274361e+01
  -1.672816e+01  -5.907517e+01
   1.169757e+02  -1.130373e+02
   1.794205e+02  -5.434731e+01
   1.570400e+02   8.895303e+01
   1.046789e+01   1.659463e+02
  -9.875964e+01   1.442029e+02
  -9.703039e+01   6.991534e+01
  -9.152721e+01  -4.808129e+01
  -2.867579e+01  -4.991392e+01
  -3.015652e+01   3.116792e+01
  -4.210303e+01  -2.197858e+01
  -2.059600e+01  -5.399166e+01
  -2.647304e+01  -8.904498e+01
   4.078919e+01  -6.551149e+01
   8.031128e+01   5.878660e+00
   8.828584e+01   1.211800e+02
   3.658266e+00   1.061599e+02
  -7.833366e+01   6.144788e+00
  -1.228633e+02  -8.826076e+01
  -2.101141e+01  -1.059051e+02
   6.471460e+01  -4.871460e+01
   7.270513e+01   1.759970e+01
   3.671354e+01   4.853466e+01
  -3.078279e+01   5.433288e+01
  -1.656534e+01   2.830692e+01
   2.088915e+01  -3.484273e+00
   6.687419e+01  -8.013681e+00
  -1.002347e+01   2.704636e+01
  -6.806256e+01   4.331495e+01
  -1.038733e+02   7.905348e+01
  -3.996726e+01   9.154523e+00
   1.367411e+01  -5.915424e+01
   3.759811e+01  -8.756944e+01
   3.495986e+01  -3.663544e+01
  -5.625867e+00   5.740372e+01
  -2.334325e+01   4.250019e+01
  -2.687752e+01  -1.760281e+01
  -1.978271e+01  -5.831572e+01
  -1.633697e+01  -2.059610e+01
   3.301010e+01   7.342032e-01
   5.344533e+01   1.022272e+01
   5.158326e+00  -8.172626e+00
  -2.058351e+01  -1.295721e+01
  -6.980202e+00  -1.734749e+01
   2.348383e+00   3.605297e+01
  -1.533886e+01   5.748450e+01
  -4.488172e+01   5.345732e+00
  -4.313467e+01  -7.022985e+01
  -2.307424e+01  -4.891188e+01
   2.789693e+01  -1.879912e+01
   4.773733e+01   2.797311e+01
   2.609871e+01   7.054255e+01
  -5.680888e+01   2.818556e+01
  -9.756402e+01   1.191723e+01
  -3.887082e+01  -3.937395e+01
   4.182330e+01  -4.031864e+01
   7.349784e+01  -2.423168e+01
   3.137240e+01  -1.395107e+01
  -4.178507e+01   1.183517e+01
  -4.117045e+01  -2.174379e+01
   3.160038e+01  -4.346635e+01
   1.076782e+02  -2.359789e+01
