
 $NMID
 id='ANONYMOUS ', fmtdat='(2E16.6)'
 volume=1.0
 tramp=1.0
 $END
   4.546755e+03   3.034849e+01
   2.729524e+03   2.678468e+03
  -7.820957e+02   2.970062e+03
  -2.186025e+03   8.804726e+02
  -1.012985e+03  -7.328350e+02
   6.758382e+02  -5.533845e+02
   9.553245e+02   4.478865e+02
   8.875473e+01   1.124450e+03
  -8.554857e+02   8.387095e+02
  -9.995128e+02  -7.209232e+01
  -5.573661e+02  -9.165992e+02
   2.205896e+02  -9.526692e+02
   6.699264e+02  -1.116722e+02
   4.139862e+02   7.898096e+02
  -2.781858e+02   8.079189e+02
  -6.324248e+02  -6.881085e+00
  -2.748384e+02  -6.823466e+02
   3.233386e+02  -6.288991e+02
   6.361699e+02  -1.107401e+02
   4.191095e+02   3.504665e+02
   2.359037e+01   4.493071e+02
  -2.603590e+02   2.569685e+02
  -2.086452e+02   9.224873e+00
   1.094264e+02  -4.099890e+01
   4.163135e+02   1.232882e+02
   2.360616e+02   4.381923e+02
  -4.846539e+02   4.704318e+02
  -8.906266e+02  -8.520591e+01
  -4.564339e+02  -5.618012e+02
   4.366063e+02  -5.045753e+02
   7.487395e+02   3.475725e+01
   3.643615e+02   5.162229e+02
  -2.976338e+02   5.261269e+02
  -5.663755e+02   2.371073e+02
  -4.175924e+02  -2.154814e+02
  -5.014190e+01  -4.797091e+02
   2.176279e+02  -2.834278e+02
   1.699105e+02   1.878954e+02
  -1.790288e+02   4.383337e+02
  -4.430782e+02  -2.324038e+01
  -2.137485e+02  -7.491949e+02
   3.090396e+02  -7.329488e+02
   6.012954e+02   8.318555e+00
   2.754740e+02   5.487196e+02
  -3.122120e+02   3.564250e+02
  -4.105831e+02  -2.618890e+02
   8.877555e+01  -5.553076e+02
   5.654275e+02  -1.782064e+02
   5.941716e+02   4.275550e+02
   1.458867e+02   5.866951e+02
  -3.667824e+02   3.444458e+02
  -6.808920e+02  -6.282071e+01
  -3.969333e+02  -3.876036e+02
   1.359431e+02  -4.260154e+02
   4.447579e+02  -8.701509e+01
   2.573620e+02   2.113323e+02
  -1.336805e+02   1.310911e+02
  -1.780622e+02  -1.398879e+02
   1.785166e+02  -1.750999e+02
   3.603016e+02   5.298956e+01
   1.752166e+02   2.792774e+02
  -2.044405e+02   2.730976e+02
  -3.470825e+02   1.004255e+02
  -2.224790e+02  -1.062900e+02
   3.360345e+01  -2.682876e+02
   2.598919e+02  -3.367224e+02
   3.377409e+02  -2.133163e+02
   2.911703e+02   1.301291e+02
   9.154114e+01   4.755964e+02
  -1.339292e+02   3.475901e+02
  -1.616389e+02   1.025963e+02
  -2.438156e+01  -6.127235e+01
  -2.508113e+01   8.954662e+01
  -1.820616e+02   1.401618e+02
  -2.701957e+02  -4.255717e+01
  -1.709830e+02  -2.614784e+02
   9.612135e+01  -2.677512e+02
   2.085968e+02  -1.804845e+01
   1.922440e+02   2.497316e+02
  -4.365963e+00   3.111157e+02
  -2.432345e+02   1.198650e+02
  -3.885920e+02  -1.636548e+02
  -1.943842e+02  -3.723657e+02
   8.211068e+01  -3.261784e+02
   2.658533e+02  -1.405225e+02
   1.754281e+02  -8.793664e+00
   1.133391e+02  -3.124080e+01
   2.316820e+02  -6.158178e+01
   3.857938e+02   3.947217e+01
   3.436370e+02   2.825579e+02
   9.946956e+00   4.404313e+02
  -3.635246e+02   4.253944e+02
  -5.098568e+02   2.089388e+02
  -3.652230e+02  -9.659414e+01
  -6.131867e+01  -3.281602e+02
   1.352888e+02  -2.650699e+02
   8.705606e+01  -4.086171e+01
  -1.166860e+02   1.245920e+02
  -2.158816e+02   1.340221e+01
  -3.095854e+01  -1.961950e+02
   1.521629e+02  -1.818220e+02
   1.686347e+02   7.260903e+01
  -3.919648e+00   2.079271e+02
  -2.210842e+02   4.138451e+01
  -1.594526e+02  -2.387361e+02
   2.196774e+01  -3.671630e+02
   2.217175e+02  -1.923993e+02
   3.505761e+02   3.192475e+01
   2.846366e+02   2.611579e+02
   8.101850e+01   2.622576e+02
  -1.039347e+02   1.793572e+02
  -1.644328e+02   2.665175e+01
  -7.720383e+01  -4.810092e+01
   5.417472e+01   3.174972e+01
   4.863997e+01   1.379153e+02
  -1.265458e+02   9.156310e+01
  -2.050590e+02  -1.101619e+00
  -6.269903e+01  -7.066342e+01
   1.019296e+02  -1.160115e+01
   7.353051e+01   1.020684e+02
  -1.063171e+02   7.612913e+01
  -2.697072e+02   1.518927e+01
  -2.612310e+02  -1.138762e+02
  -7.937937e+01  -2.685731e+02
   1.760971e+02  -2.647740e+02
   2.820655e+02  -1.093338e+02
   1.729909e+02   6.901607e+01
  -6.163605e+01   9.658552e+01
  -9.195566e+01  -1.121924e+01
   3.943637e+01  -9.843098e+01
   2.225942e+02  -7.352267e+01
   2.433038e+02   1.120311e+02
   5.532475e+01   2.194662e+02
  -1.194152e+02   1.464383e+02
  -1.428567e+02   3.792488e+01
  -6.647274e+01  -3.510180e+01
   3.667496e+01  -1.113558e+01
   4.722264e+01   4.582844e+01
  -6.789206e+01   1.327275e+02
  -1.825129e+02   2.036551e+01
  -2.116569e+02  -1.426078e+02
  -7.022544e+00  -2.248365e+02
   1.749645e+02  -1.615207e+02
   2.071309e+02  -1.563104e+00
   8.743008e+01   9.189902e+01
  -7.935773e+01   1.162554e+02
  -1.063165e+02   1.447061e+01
  -9.209910e+00  -2.731909e+01
   4.540989e+01   1.115883e+01
   9.933800e+00   1.017258e+01
  -8.172076e+01  -9.321716e-01
  -8.111269e+01  -1.089980e+02
   1.154735e+01  -1.497337e+02
   1.270346e+02  -1.587999e+02
   2.260218e+02  -2.898927e-01
   2.198871e+02   1.630584e+02
   3.859471e+01   2.386764e+02
  -1.113846e+02   1.755302e+02
  -1.574777e+02   3.044563e+01
  -9.666302e+01  -7.033552e+01
  -3.941226e+01  -3.972234e+01
  -5.437575e+01  -5.323899e-01
  -7.319031e+01   3.046684e+01
  -3.158280e+01  -3.186373e+01
   4.032828e+01  -6.892417e+01
   9.332781e+01  -5.756696e+01
   8.874351e+01   1.881591e+01
  -6.076428e+00   1.196424e+02
  -1.101561e+02   8.722023e+01
  -1.733929e+02  -4.798033e+01
  -9.599615e+01  -2.184408e+02
   1.021252e+02  -2.332568e+02
   2.761852e+02  -1.139176e+02
   2.921526e+02   9.231176e+01
   1.227809e+02   1.993911e+02
  -5.866629e+01   1.780846e+02
  -1.234079e+02   9.020577e+01
  -7.762438e+01   7.474467e+01
  -7.321927e+01   1.243507e+02
  -9.843671e+01   7.032813e+01
  -1.184960e+02   4.726356e+00
  -1.204904e+02  -1.579787e+02
  -9.530408e+00  -2.431971e+02
   1.010418e+02  -1.710453e+02
   1.724538e+02  -1.538722e+01
   1.350341e+02   1.192008e+02
   4.472963e+01   1.761869e+02
  -7.608292e+01   1.269342e+02
  -6.518271e+01  -5.933346e+00
  -1.019212e+01  -5.980882e+01
  -4.109846e+00  -7.294473e+01
  -4.803868e+01  -2.615108e+01
  -9.033398e+01   1.525638e+00
  -1.601357e+01  -2.636455e+01
   7.189622e+01  -2.599035e+01
   1.700877e+02   1.376971e+01
   1.693757e+02   6.897113e+01
   6.344916e+00   8.571160e+01
  -1.210875e+02   8.941509e+01
  -1.271705e+02   6.697424e+00
  -6.312733e+01  -3.275296e+01
   5.497665e+01  -4.021636e+01
   7.685511e+01   4.213264e+00
   7.628288e+00   9.534699e+01
  -5.592376e+01   9.176214e+01
  -5.176278e+01  -3.769747e+00
  -4.172791e+01  -7.609502e+01
  -3.690734e+01  -3.427864e+01
  -8.318277e+01  -2.017878e+01
  -6.387859e+01   4.765315e+00
  -4.290686e+01  -5.128185e+01
   4.069014e+01  -1.736391e+02
   1.243421e+02  -1.370062e+02
   1.712853e+02  -4.010605e+01
   1.153398e+02   1.017015e+02
   1.543384e+01   1.333823e+02
  -7.041853e+01   7.526634e+01
  -5.035392e+01  -3.739556e+01
   5.607627e+01  -1.205793e+01
   1.469752e+02   4.889272e+01
   7.099885e+01   8.888024e+01
  -8.125865e+01   1.023076e+02
  -2.038109e+02   3.850381e+01
  -1.631607e+02  -4.954027e+01
  -4.410916e+01  -5.772552e+01
   4.714558e+01  -7.037917e+01
   2.116797e+01  -1.170942e+01
  -3.602817e+01   2.624811e+01
  -6.172745e+01  -4.070589e+01
  -1.890008e+01  -1.368711e+02
   8.152981e+01  -1.542890e+02
   1.562712e+02  -8.940914e+01
   1.104069e+02   8.642020e+01
   9.641255e+00   1.805476e+02
  -5.167820e+01   1.504166e+02
  -1.143625e+02  -3.316135e+00
  -5.886005e+01  -8.395711e+01
   1.738157e+00  -1.189342e+02
   6.531976e+01  -1.536717e+01
   5.268368e+01   6.747749e+01
   4.060078e+01   1.183455e+01
   8.791684e+00  -3.772675e+01
   3.410459e+01  -2.085519e+01
   6.344763e+01   7.336099e+01
   3.708516e+01   9.049308e+01
  -1.408261e+01   6.692633e+01
  -1.247186e+02  -4.954847e+01
  -1.228445e+02  -8.361555e+01
  -2.223542e+01  -3.920356e+01
   7.488454e+01  -1.943039e+00
   9.804102e+01  -3.411710e+01
  -3.094104e+00   1.903732e+01
  -5.141734e+01   2.899781e+01
  -1.010738e+01   1.887313e+01
   2.573501e+01   1.242105e+01
   7.563207e+00   5.830618e+00
  -5.219705e+01  -2.910922e+00
  -7.132489e+01  -1.901454e+01
   1.556291e+01  -7.649489e+01
   1.241839e+02  -1.009982e+02
   1.918473e+02  -6.015891e+01
   1.526050e+02   6.342481e+01
   2.676789e+01   1.447835e+02
  -6.763239e+01   1.699884e+02
  -1.070103e+02   4.185506e+01
  -7.766397e+01  -2.805844e+01
  -6.823970e+00  -1.675413e+01
   1.878779e+01   7.460957e+00
  -1.605698e+01   1.079924e+01
  -2.282680e+01  -6.575773e+01
  -2.058980e+01  -8.305585e+01
   4.701600e+01  -7.856470e+01
   7.324630e+01   2.297550e+01
   5.494903e+01   9.925225e+01
  -2.098204e+01   1.151067e+02
  -1.002968e+02   1.515094e+01
  -1.005310e+02  -6.490569e+01
  -1.176555e+01  -8.002191e+01
   8.450904e+01  -5.036564e+01
   9.468653e+01  -2.212401e+00
   2.218919e+01   3.153698e+01
  -1.272600e+01   4.242874e+01
  -1.254028e+01   3.202964e+01
   3.830098e+01  -1.173236e+01
   6.526863e+01   1.225018e+01
   1.020107e+01   2.437016e+01
  -8.885189e+01   6.884621e+01
  -1.011667e+02   8.164003e+01
  -6.608208e+01  -2.378028e+01
  -1.437129e+01  -8.122905e+01
   3.850265e+01  -5.799908e+01
   4.230769e+01  -1.005284e+01
   1.246649e+01   4.458417e+01
  -3.763576e+01   2.501459e+01
  -2.191728e+01  -3.340605e+01
  -8.446684e+00  -6.958101e+01
  -6.130370e+00  -1.796861e+01
   2.329625e+01   2.367217e+01
   4.716523e+01  -6.543886e+00
   5.403895e+00  -2.646951e+01
   8.662188e-02  -6.980075e+00
  -4.208960e+01  -1.994581e+01
   2.892858e+00   4.835282e+01
  -9.397771e+00   4.423193e+01
  -4.609269e+01  -4.779313e+00
   2.540307e+01  -3.324840e+01
   6.402047e+00  -4.989736e+01
   9.058793e+01  -2.433250e+01
   4.715726e+01  -4.086551e-01
   2.162326e+01   5.246028e+01
  -3.655090e+01   2.812344e+01
  -7.731124e+01  -2.382514e+01
  -5.901784e+01  -2.611266e+01
   1.412129e+01  -2.888124e+01
   6.571844e+01  -3.326373e+01
   1.886848e+01  -4.937719e+00
  -4.869936e+01  -8.795918e+00
  -2.489483e+01  -2.194113e+01
   2.987176e+01  -4.566296e+01
   9.793991e+01  -3.198856e+01
