
 $NMID
 id='ANONYMOUS ', fmtdat='(2E16.6)'
 volume=1.0
 tramp=1.0
 $END
   3.643462e+03   3.628410e+02
   2.123948e+03   2.268843e+03
  -2.803478e+02   2.286820e+03
  -1.472829e+03   9.247208e+02
  -8.932677e+02  -1.478981e+01
   1.922607e+02  -1.883604e+02
   4.348238e+02   2.972537e+02
  -5.427353e+01   7.028118e+02
  -6.554947e+02   5.310642e+02
  -7.035809e+02  -5.908179e+01
  -3.358005e+02  -6.115724e+02
   8.237446e+01  -7.148851e+02
   3.532851e+02  -1.344026e+02
   2.703701e+02   4.993403e+02
  -1.192706e+02   6.006747e+02
  -4.488051e+02   5.602170e+01
  -2.522579e+02  -4.852421e+02
   1.360916e+02  -5.635008e+02
   4.587825e+02  -2.180470e+02
   3.958233e+02   1.918304e+02
   1.187302e+02   3.675078e+02
  -1.268513e+02   2.420511e+02
  -9.913019e+01   5.333080e+01
   1.329812e+02   6.411413e+01
   3.210429e+02   2.348862e+02
   1.119790e+01   3.735945e+02
  -4.771981e+02   1.627033e+02
  -6.725246e+02  -2.466749e+02
  -2.169362e+02  -4.743833e+02
   3.783808e+02  -2.683343e+02
   5.603212e+02   1.112343e+02
   2.214466e+02   3.939517e+02
  -2.757882e+02   4.052411e+02
  -4.538310e+02   1.644535e+02
  -3.314717e+02  -1.671888e+02
  -6.671530e+01  -3.580353e+02
   8.703861e+01  -2.032744e+02
   3.711366e+00   1.421027e+02
  -2.104818e+02   2.360734e+02
  -2.827257e+02  -1.439214e+02
  -3.335792e+01  -5.747574e+02
   3.450229e+02  -5.043589e+02
   4.033823e+02   2.813133e+01
   1.328475e+02   4.300439e+02
  -1.746304e+02   1.642112e+02
  -2.485912e+02  -2.706206e+02
   1.158079e+02  -4.297217e+02
   4.492778e+02  -7.528889e+01
   4.670373e+02   3.695395e+02
   1.387593e+02   5.061694e+02
  -3.531798e+02   2.831877e+02
  -5.457068e+02  -9.940545e+01
  -3.581434e+02  -2.697850e+02
   1.002482e+02  -2.446764e+02
   3.312165e+02  -4.969523e+01
   2.209904e+02   8.107207e+01
  -5.332049e+01   3.873530e+01
  -4.753540e+01  -7.570494e+01
   9.503480e+01  -7.165091e+01
   2.576360e+02   6.468172e+01
   1.253584e+02   2.128481e+02
  -1.846929e+02   2.178229e+02
  -3.013766e+02   1.112458e+02
  -2.484277e+02  -7.429966e+01
   3.720024e+01  -3.083743e+02
   2.896882e+02  -3.350541e+02
   3.782281e+02  -1.712896e+02
   2.388966e+02   1.835973e+02
   5.167891e+01   4.053689e+02
  -9.968755e+01   3.195701e+02
  -5.695254e+01   1.256323e+02
  -3.808936e+01   5.145079e+01
  -9.219442e+01   1.143808e+02
  -2.121280e+02   4.563220e+01
  -2.331600e+02  -1.283322e+02
  -1.313533e+02  -2.640632e+02
   1.262144e+02  -1.991716e+02
   1.907558e+02   7.074319e+01
   1.400970e+02   2.344159e+02
  -5.636030e+01   2.745066e+02
  -2.527555e+02   6.402714e+01
  -3.090953e+02  -1.699358e+02
  -1.530702e+02  -3.120053e+02
   5.252698e+01  -2.754928e+02
   1.871421e+02  -1.398666e+02
   1.422858e+02  -8.206440e+01
   1.365667e+02  -5.696875e+01
   2.577054e+02  -4.211463e+00
   3.901154e+02   8.585377e+01
   3.104150e+02   2.843914e+02
  -3.639111e+01   4.237139e+02
  -3.890653e+02   3.561827e+02
  -4.962050e+02   1.913487e+02
  -2.957160e+02  -1.319860e+02
  -1.808946e+01  -2.742200e+02
   1.088423e+02  -2.543577e+02
   3.352470e+01  -3.288749e+01
  -1.011331e+02   6.681588e+01
  -1.550272e+02  -2.518525e+01
   1.458363e+01  -1.396822e+02
   1.407180e+02  -1.166872e+02
   1.373792e+02   6.700133e+01
  -4.841339e+01   1.335207e+02
  -1.866777e+02   1.973181e+01
  -1.199313e+02  -2.256457e+02
   5.856966e+01  -3.137834e+02
   2.447345e+02  -1.865488e+02
   3.461477e+02   9.176630e+01
   2.994357e+02   2.561549e+02
   5.376886e+01   2.680555e+02
  -1.339026e+02   1.313570e+02
  -1.572215e+02   7.648176e+00
  -4.325816e+01  -4.233270e+01
   4.582807e+01   5.739509e+01
  -3.313691e+00   1.114874e+02
  -1.347389e+02   6.577808e+01
  -1.492372e+02  -3.237058e+01
  -3.497662e+01  -2.836774e+01
   9.266887e+01   9.518871e-01
   7.982449e+01   8.843930e+01
  -1.244198e+02   6.254008e+01
  -2.901466e+02  -1.708939e+00
  -2.634390e+02  -1.899252e+02
  -2.682563e+01  -2.825123e+02
   2.193266e+02  -2.195900e+02
   2.839111e+02  -6.741912e+01
   1.490316e+02   5.168536e+01
  -3.235908e+01   8.547048e+01
  -7.837807e+01   5.015223e+00
   5.944416e+01  -6.183590e+01
   2.019545e+02  -2.637237e+01
   1.765819e+02   1.199277e+02
   3.628977e+01   1.957018e+02
  -9.510575e+01   1.321773e+02
  -1.327688e+02   6.078650e+00
  -6.461233e+01  -4.526230e+01
   3.284442e+01   3.920455e+00
   5.452056e+00   9.828265e+01
  -9.193428e+01   1.061143e+02
  -2.138169e+02   1.532825e+01
  -1.882749e+02  -1.485820e+02
   7.775699e+00  -2.088892e+02
   1.908603e+02  -1.543948e+02
   1.604350e+02  -7.459446e+00
   4.666523e+01   7.990259e+01
  -6.348135e+01   1.010769e+02
  -7.438621e+01   1.048613e+01
  -1.671343e+01  -1.683874e+01
   4.978631e+01  -2.047411e+01
  -2.353511e+01   1.208442e+01
  -8.202997e+01  -2.501674e+01
  -1.059129e+02  -1.103990e+02
   1.287489e+01  -1.959879e+02
   1.529543e+02  -1.234937e+02
   2.284836e+02  -2.340303e+00
   1.871668e+02   1.899524e+02
   2.501884e+01   2.242918e+02
  -9.096982e+01   1.528969e+02
  -1.368697e+02   1.658497e+01
  -7.310536e+01  -5.810819e+01
  -4.266744e+01  -2.625789e+01
  -5.436553e+01   1.561382e+01
  -6.623808e+01   1.552844e+01
  -4.875921e+01  -5.452976e+01
   5.000127e+01  -9.335384e+01
   9.383864e+01  -9.527313e+01
   9.866552e+01   1.520461e+01
  -1.031993e+01   1.435548e+02
  -1.280611e+02   4.985129e+01
  -1.733960e+02  -7.389866e+01
  -6.270297e+01  -2.179416e+02
   1.433628e+02  -2.147491e+02
   2.640694e+02  -9.265402e+01
   2.318623e+02   9.429525e+01
   8.773940e+01   1.974119e+02
  -3.040275e+01   1.621331e+02
  -7.587814e+01   7.084564e+01
  -7.705082e+01   8.540539e+01
  -4.902533e+01   6.515139e+01
  -9.599902e+01   6.880782e+01
  -1.452920e+02  -3.678824e+01
  -1.017082e+02  -1.746535e+02
  -5.063995e+01  -2.300558e+02
   9.703676e+01  -1.520157e+02
   1.647623e+02  -6.592763e+00
   1.242239e+02   1.642631e+02
   1.623253e+00   1.550718e+02
  -7.407670e+01   1.125162e+02
  -8.104102e+01  -7.772286e+00
  -5.183711e+00  -3.055107e+01
   4.539626e+00  -3.379116e+01
  -2.343935e+01  -3.011735e+01
  -6.621340e+01  -2.737925e+01
  -2.951152e+01  -2.278856e+01
   6.616516e+01  -4.113149e+01
   1.882492e+02   1.175307e+01
   1.430163e+02   5.064266e+01
  -2.222629e+01   1.169213e+02
  -1.248005e+02   6.596080e+01
  -1.508548e+02  -3.558438e+01
  -1.729865e+01  -5.301084e+01
   5.757408e+01  -5.616876e+01
   8.303257e+01   4.878903e+01
   2.485625e+01   7.836599e+01
  -5.204873e+01   6.863930e+01
  -8.014122e+01  -1.322744e+01
  -5.569709e+01  -7.113362e+01
  -5.728609e+01  -3.373583e+01
  -5.665070e+01   6.157123e+00
  -5.331503e+01  -1.100883e+01
  -1.660855e+01  -6.625056e+01
   1.416154e+01  -1.392322e+02
   1.221777e+02  -1.431997e+02
   1.846928e+02  -1.061078e+01
   1.290029e+02   1.236217e+02
  -1.760897e+00   1.226261e+02
  -8.459048e+01   5.187209e+01
  -7.162624e+01  -1.632958e+01
   5.316294e+01  -6.222896e+00
   1.257818e+02   4.963977e+01
   5.088598e+01   9.789515e+01
  -8.359529e+01   1.224933e+02
  -2.054196e+02   2.548365e+01
  -1.709642e+02  -6.303850e+01
  -6.635439e+01  -6.613980e+01
   6.220716e+01  -4.110449e+01
   2.477118e+01  -3.550539e+00
  -4.571008e+01   6.389748e+00
  -9.001385e+01  -1.364779e+01
  -3.272498e+01  -1.202366e+02
   7.695945e+01  -1.445914e+02
   1.695134e+02  -6.294643e+01
   1.018225e+02   1.067089e+02
  -1.662467e+01   1.794254e+02
  -4.981253e+01   1.405046e+02
  -1.002663e+02  -2.534332e+00
  -6.330895e+01  -9.918838e+01
  -1.313425e+01  -1.138351e+02
   5.040281e+01  -2.895255e+01
   4.480771e+01   1.022503e+01
   3.391093e+01  -9.942813e-01
   7.380880e+00  -2.644732e+00
   2.282967e+01   5.377761e+01
   2.638165e+01   9.411593e+01
   9.023523e-01   1.076223e+02
  -5.957608e+01   2.228289e+01
  -1.363835e+02  -4.364635e+01
  -1.169233e+02  -7.118826e+01
  -6.627087e+00  -4.831716e+01
   6.631009e+01  -1.300690e+01
   8.664921e+01   6.258106e+00
   1.496941e+01  -1.961481e+01
  -3.937298e+01   2.589989e+01
  -2.277243e+01   2.831355e+01
   1.351052e+01  -8.228786e+00
   1.811526e+01  -7.678023e+00
  -7.872009e+01  -9.082933e+00
  -7.908830e+01  -3.120581e+01
   1.175761e+01  -1.031594e+02
   9.602346e+01  -9.454870e+01
   1.640636e+02  -7.938795e+01
   1.557697e+02   5.594037e+01
  -4.717616e+00   1.499224e+02
  -4.707530e+01   1.662280e+02
  -1.029972e+02   5.897522e+01
  -5.025794e+01  -2.767373e+01
  -1.450714e+01  -4.538216e+01
   7.922333e+00   1.457331e+01
   1.314698e+01   2.964067e+01
   6.339376e+00  -6.063419e+01
  -1.726061e+01  -9.994153e+01
   2.387732e+01  -6.885380e+01
   6.990655e+01   1.751824e+01
   5.558421e+01   9.819181e+01
   3.836242e+00   1.003503e+02
  -9.514012e+01   1.559495e+01
  -7.960076e+01  -7.992388e+01
  -2.736818e+01  -7.655003e+01
   6.652062e+01  -4.390149e+01
   1.004290e+02  -9.320992e+00
   4.364919e+01   7.656405e+01
  -4.684147e+01   6.673576e+01
  -3.502359e+01   1.680783e+01
   6.251116e+01   3.633206e+00
   7.357326e+01  -1.656538e+01
  -9.046019e+00   1.168082e+01
  -7.433196e+01   4.630509e+01
  -1.237364e+02   3.996519e+01
  -8.039997e+01  -2.597436e+01
   2.687938e+01  -8.372356e+01
   6.334266e+01  -7.246585e+01
   5.487406e+01   8.470870e+00
   1.293699e+01   5.256653e+01
  -2.738670e+01   4.866719e+01
  -5.162963e+01  -3.337899e+01
  -2.758683e+01  -7.190216e+01
   4.393734e+00  -5.034135e+01
   3.112292e+01  -1.492597e+00
   4.037492e+01   3.290694e+01
   8.580859e+00   1.967509e+00
   4.011891e+00  -6.445413e+00
  -2.461686e+01  -2.584664e+01
   4.036227e+00   2.903598e+01
  -7.835184e+00   4.574480e+01
  -2.207701e+01   1.671616e+01
  -4.543339e+01  -4.557869e+01
   1.131685e+01  -3.929007e+01
   4.734328e+01  -3.275397e+01
   5.295174e+01   4.702073e+01
   3.308493e+01   6.566801e+01
  -6.588401e+01   4.175598e+01
  -9.359117e+01  -2.171075e+01
  -2.783311e+01  -5.622776e+01
   3.005681e+01  -3.008183e+01
   3.716384e+01  -2.247096e+01
   1.612210e+01  -2.937621e+01
  -4.219546e+01  -3.298356e+00
  -5.757023e+00  -4.270761e+01
   4.716877e+01  -3.563576e+01
   7.671698e+01  -3.296389e+01
