
 $NMID
 id='ANONYMOUS ', fmtdat='(2E16.6)'
 volume=1.0
 tramp=1.0
 $END
  -4.525748e+03  -5.750202e+02
  -2.350864e+03  -2.928781e+03
   1.016185e+03  -2.705722e+03
   2.157959e+03  -6.200382e+02
   8.190523e+02   7.996897e+02
  -7.552156e+02   5.630272e+02
  -8.802740e+02  -5.448214e+02
   4.990851e+01  -1.100858e+03
   9.653212e+02  -7.543222e+02
   9.521200e+02   2.081910e+02
   3.973326e+02   9.271262e+02
  -2.750631e+02   8.615926e+02
  -6.517501e+02   9.900371e+01
  -3.285297e+02  -7.905401e+02
   3.315844e+02  -7.637130e+02
   6.490544e+02   5.967895e+01
   2.618762e+02   7.145256e+02
  -3.697400e+02   6.108285e+02
  -6.003319e+02   4.609811e+01
  -3.604416e+02  -4.095809e+02
   1.033190e+01  -4.543278e+02
   2.709983e+02  -2.509832e+02
   2.004426e+02   2.100269e+00
  -1.540684e+02   7.193831e+01
  -4.595764e+02  -1.564949e+02
  -1.700104e+02  -5.018794e+02
   5.174036e+02  -3.800872e+02
   9.168233e+02   1.554001e+02
   4.011308e+02   6.288214e+02
  -4.793294e+02   5.140764e+02
  -7.806365e+02  -6.811463e+01
  -3.296335e+02  -5.597224e+02
   2.928277e+02  -5.503577e+02
   6.191561e+02  -1.996112e+02
   4.270955e+02   2.567111e+02
   3.891944e+01   4.807330e+02
  -2.415847e+02   2.814780e+02
  -1.672114e+02  -2.685608e+02
   1.938072e+02  -4.441663e+02
   4.771471e+02   5.848798e+01
   2.005400e+02   7.592203e+02
  -3.960234e+02   6.506500e+02
  -6.016335e+02  -1.601504e+01
  -2.021933e+02  -6.026639e+02
   3.526417e+02  -3.460627e+02
   3.864718e+02   3.705247e+02
  -7.622343e+01   5.531428e+02
  -5.890538e+02   1.545956e+02
  -5.746925e+02  -4.618217e+02
  -1.516583e+02  -6.403828e+02
   3.973994e+02  -3.593845e+02
   6.822688e+02   8.189969e+01
   3.821391e+02   4.147719e+02
  -1.638278e+02   3.409087e+02
  -4.891971e+02   4.311599e+01
  -2.577148e+02  -2.420513e+02
   1.452059e+02  -8.475777e+01
   1.450989e+02   1.723738e+02
  -1.976796e+02   2.007901e+02
  -3.296864e+02  -5.241157e+01
  -1.591033e+02  -2.859504e+02
   1.956036e+02  -2.619754e+02
   3.755351e+02  -9.487819e+01
   2.212095e+02   6.611623e+01
  -1.963644e+01   2.391917e+02
  -2.524107e+02   3.265353e+02
  -3.765593e+02   1.989131e+02
  -3.097091e+02  -1.754691e+02
  -7.308638e+01  -4.557657e+02
   1.529412e+02  -3.937477e+02
   1.383089e+02  -6.139929e+01
   2.961648e+01   2.953206e+01
   2.777079e+01  -7.877365e+01
   2.111153e+02  -1.216517e+02
   2.908879e+02   5.525286e+01
   1.773523e+02   2.943632e+02
  -7.035594e+01   2.594751e+02
  -2.639862e+02   1.965697e+01
  -1.942039e+02  -2.458296e+02
  -1.221886e+01  -3.039302e+02
   2.868566e+02  -1.364651e+02
   3.621831e+02   1.860620e+02
   1.753986e+02   3.828933e+02
  -1.126754e+02   2.680557e+02
  -2.229034e+02   1.118541e+02
  -1.662508e+02   2.807223e-01
  -1.045148e+02   3.282255e+01
  -2.206016e+02   7.327773e+01
  -3.951559e+02  -3.674966e+01
  -3.604986e+02  -3.020599e+02
   8.180852e+00  -4.587200e+02
   3.442201e+02  -3.759695e+02
   5.234662e+02  -2.073132e+02
   3.382057e+02   9.991890e+01
   5.016551e+01   3.026978e+02
  -1.321907e+02   2.536039e+02
  -9.348404e+01   3.091101e+01
   1.126458e+02  -1.287763e+02
   2.022935e+02   3.487441e+00
   4.138591e+01   1.988248e+02
  -1.721195e+02   1.549989e+02
  -1.783594e+02  -9.658385e+01
   2.237547e+01  -1.833516e+02
   2.012881e+02  -2.873069e+01
   1.849278e+02   2.200832e+02
  -7.324725e+01   3.401376e+02
  -2.483119e+02   1.788204e+02
  -3.179593e+02  -5.534265e+01
  -2.870577e+02  -2.384631e+02
  -1.149169e+02  -2.810285e+02
   9.853820e+01  -1.354777e+02
   2.065160e+02  -2.661186e+01
   9.956139e+01   5.494229e+01
  -5.260450e+01  -4.850636e+01
  -2.306820e+01  -1.175048e+02
   1.308559e+02  -9.517230e+01
   1.969228e+02   2.272265e+00
   7.481260e+01   6.038246e+01
  -7.634840e+01   3.774360e+01
  -8.620766e+01  -7.542303e+01
   1.274910e+02  -6.815251e+01
   2.860221e+02  -4.937372e+00
   2.631564e+02   1.510235e+02
   1.715718e+01   2.588767e+02
  -2.033053e+02   2.458746e+02
  -3.138228e+02   1.042416e+02
  -1.802242e+02  -7.083972e+01
   3.857018e+01  -9.350436e+01
   1.140941e+02   7.553292e+00
  -2.825987e+01   9.941445e+01
  -1.740990e+02   3.938814e+01
  -1.941343e+02  -1.197525e+02
  -6.900789e+01  -2.267167e+02
   1.124729e+02  -1.514663e+02
   1.482574e+02  -1.551853e+01
   7.138318e+01   5.533424e+01
  -4.387824e+01   3.147327e+01
  -7.155247e+01  -1.142404e+02
   7.380193e+01  -1.235604e+02
   2.127370e+02  -2.221474e+01
   1.775455e+02   1.099454e+02
   2.541312e+01   2.430756e+02
  -1.712528e+02   1.544296e+02
  -1.904628e+02   4.724346e+00
  -6.884838e+01  -1.298440e+02
   5.241964e+01  -1.229676e+02
   7.041633e+01  -8.498848e+00
   1.125114e+01   4.831219e+01
  -3.275614e+01   2.041137e+01
   5.170748e+00  -2.011081e+01
   7.175131e+01  -4.154250e+00
   8.213124e+01   1.162738e+02
   2.377374e+00   1.739358e+02
  -1.099684e+02   1.179217e+02
  -2.540418e+02   5.384397e+00
  -1.990233e+02  -1.607051e+02
  -1.669301e+01  -2.199220e+02
   9.456295e+01  -1.387763e+02
   1.198498e+02  -1.508830e+01
   5.419610e+01   8.743469e+01
   1.410601e+01   6.158421e+01
   5.931676e+01  -2.890193e+01
   8.930414e+01   8.814144e+00
   5.293079e+01   7.071456e-01
  -4.468237e+01   8.383067e+01
  -9.085414e+01   8.960524e+01
  -8.836506e+01  -1.312738e+01
  -2.288512e+01  -1.026206e+02
   1.187148e+02  -7.759540e+01
   1.721226e+02   4.092037e+01
   1.148447e+02   2.349641e+02
  -1.167305e+02   2.283407e+02
  -2.747401e+02   9.644891e+01
  -2.727920e+02  -9.620330e+01
  -1.290131e+02  -1.938840e+02
   4.909808e+01  -1.373389e+02
   1.080566e+02  -1.045996e+02
   6.899972e+01  -6.028180e+01
   6.792566e+01  -8.603289e+01
   6.568663e+01  -7.094860e+01
   1.015282e+02   1.816517e+01
   1.142262e+02   1.356061e+02
   1.736649e+01   2.519524e+02
  -1.062333e+02   1.725031e+02
  -1.787504e+02   2.542178e+01
  -1.406929e+02  -1.217565e+02
  -2.982197e+01  -1.640493e+02
   7.619556e+01  -9.930787e+01
   9.702854e+01  -1.637218e+01
  -1.437994e+01   5.307968e+01
  -1.301548e+01   4.125639e+01
   5.652935e+00   7.265798e+00
   8.640818e+01   2.811751e+01
   2.299766e+01   4.524365e+01
  -3.553223e+01   2.745519e+01
  -1.438887e+02   1.775733e+00
  -1.066543e+02  -7.535204e+01
  -9.613447e+00  -9.804054e+01
   1.157727e+02  -7.032093e+01
   1.351890e+02  -6.341189e+00
   5.270153e+01   4.108716e+01
  -5.093473e+01   3.600464e+01
  -8.323517e+01  -2.654987e+01
  -1.804397e+01  -6.715783e+01
   3.961323e+01  -1.848576e+01
   2.707407e+01   1.104954e+01
   5.978369e+01   4.489057e+01
   4.178828e+01   3.806376e+01
   5.680385e+01   4.244024e+00
   7.211381e+01  -2.599100e+01
   4.686825e+01   4.844925e+01
  -3.407080e+01   1.249599e+02
  -9.663246e+01   1.386792e+02
  -1.610264e+02   1.624039e+01
  -1.366290e+02  -1.185107e+02
  -3.714952e+00  -1.451032e+02
   1.005741e+02  -6.061393e+01
   9.313688e+01   1.613745e+01
  -5.709219e+01   8.142296e+00
  -1.349159e+02  -1.162312e+01
  -7.612823e+01  -9.213659e+01
   7.488310e+01  -1.176832e+02
   1.772302e+02  -4.234559e+01
   1.584625e+02   5.260701e+01
   2.343364e+01   9.378884e+01
  -3.876155e+01   7.197108e+01
  -2.883306e+01   1.741384e+01
   3.931029e+01  -1.754850e+01
   1.060808e+02   2.279379e+01
   5.525822e+00   1.285960e+02
  -7.536938e+01   1.629938e+02
  -1.674219e+02   5.577907e+01
  -1.086439e+02  -7.727390e+01
  -3.139511e+01  -1.706701e+02
   7.510956e+01  -1.118045e+02
   9.442982e+01   2.616612e+01
   6.022932e+01   1.255314e+02
  -3.461726e+00   1.241858e+02
  -2.910355e+01  -4.206925e+00
  -5.744456e+01  -4.557780e+01
  -3.963817e+00  -2.170808e+01
   3.484058e+00   2.591137e+01
  -3.908090e+01  -2.767087e+01
  -7.655222e+01  -6.329628e+01
  -3.982925e+01  -1.062601e+02
   3.431072e+01  -2.457632e+01
   1.384204e+02   1.122316e+01
   1.333383e+02   6.958105e+01
   3.105123e+01   6.972158e+01
  -7.921264e+01   1.913800e+01
  -8.260232e+01   1.874686e+00
   2.104376e+01  -3.526943e+01
   2.412292e+01  -3.974779e+00
   1.332309e+01  -1.564369e+01
  -1.551291e+01  -4.033741e-01
   1.631911e+00   2.047791e+01
   7.546951e+01   4.408150e+01
   6.995860e+01   3.604542e+01
   1.023620e+01   6.614883e+01
  -1.210697e+02   1.260278e+02
  -2.035785e+02   5.298182e+01
  -1.506566e+02  -9.112181e+01
  -1.609424e+01  -1.474960e+02
   7.422392e+01  -1.337701e+02
   9.115699e+01  -4.435717e+01
   1.051945e+02   4.782831e+01
   2.098243e+01   4.050319e+01
  -3.589659e+01   1.854480e+01
  -1.915784e+01  -8.974402e+00
   2.391052e+01   5.855795e+01
   1.886228e+01   9.718843e+01
  -5.025593e+01   5.114097e+01
  -8.075118e+01  -3.239300e+01
  -7.046796e+01  -9.451553e+01
  -5.022913e-01  -1.268924e+02
   7.230053e+01  -2.652751e+01
   1.128059e+02   7.960967e+01
   3.555975e+01   1.232398e+02
  -8.157811e+01   5.177258e+01
  -1.203104e+02  -1.944240e+01
  -3.833090e+01  -8.210006e+01
   3.602447e+01  -5.900186e+01
   4.971787e+01  -5.433901e+00
  -2.273272e+01  -1.458591e+01
  -6.562582e+01  -2.030461e+01
  -1.559058e+01   8.355292e+00
   8.534923e+01  -3.979190e+01
   9.993440e+01  -4.922597e+01
   6.780261e+01   1.184108e+00
  -3.846385e+01   1.052397e+02
  -4.365075e+01   9.941204e+01
  -1.199530e+01   7.406589e+00
  -2.281210e+01  -7.834853e+01
   4.029098e+01  -6.292733e+00
   3.510431e+01   1.362949e+01
   3.107791e+01   3.137275e+01
  -2.167443e+01   6.100786e+00
  -3.238878e+01  -8.687151e-01
  -2.232210e+01  -2.187011e+01
   4.141054e+00  -1.578121e+01
  -1.076464e+00   1.190158e+01
   2.153763e+01   1.420337e+01
   1.824510e+01  -2.101402e+01
   2.291494e+01  -4.605416e+01
   1.829565e+01   2.024045e+00
   3.008416e+01   4.426666e+01
  -1.658998e+01   8.646628e+01
  -5.664437e+01  -1.069122e+01
  -4.235049e+01  -1.446843e+01
  -2.461826e+01  -8.341233e+01
   3.647459e+01  -2.313288e+01
   9.668360e+01   1.949398e+01
   3.170917e+01   5.934701e+01
  -4.087820e+01   5.113754e+01
  -5.160504e+01   1.923761e+01
  -2.613375e+01  -9.323427e+00
   3.951969e+01  -4.537197e+00
   3.878227e+01   7.411970e+00
  -5.291263e+01   3.903753e+01
  -1.229071e+02   2.812004e+01
