
 $NMID
 id='ANONYMOUS ', fmtdat='(2E16.6)'
 volume=1.0
 tramp=1.0
 $END
   4.639765e+03   3.949727e+02
   2.394352e+03   2.929591e+03
  -1.014990e+03   2.772021e+03
  -2.182170e+03   6.736233e+02
  -8.551124e+02  -9.188921e+02
   8.479172e+02  -6.333519e+02
   9.459924e+02   5.692762e+02
  -7.927894e+01   1.169409e+03
  -9.795507e+02   7.860307e+02
  -9.859111e+02  -1.871565e+02
  -4.004001e+02  -9.996460e+02
   2.900222e+02  -8.771042e+02
   7.039475e+02  -6.578180e+01
   3.734718e+02   8.152881e+02
  -3.410553e+02   7.328535e+02
  -6.358772e+02  -6.354895e+01
  -2.322896e+02  -7.748376e+02
   4.114767e+02  -5.994064e+02
   6.338397e+02  -3.135979e+01
   3.742375e+02   4.545364e+02
  -3.640553e+01   4.768543e+02
  -2.847403e+02   2.437055e+02
  -2.019264e+02  -2.229901e+01
   1.453328e+02  -8.844751e+01
   4.506416e+02   1.392743e+02
   1.908253e+02   4.769041e+02
  -5.402732e+02   4.435497e+02
  -9.652056e+02  -1.252551e+02
  -4.218077e+02  -6.267716e+02
   4.900694e+02  -5.449656e+02
   8.440238e+02   5.638015e+01
   3.147201e+02   5.269637e+02
  -3.345110e+02   5.461734e+02
  -6.014214e+02   1.814856e+02
  -4.239856e+02  -2.559296e+02
  -2.914470e+01  -5.102315e+02
   2.396443e+02  -3.304580e+02
   1.985436e+02   2.557422e+02
  -1.714057e+02   4.884632e+02
  -4.979796e+02  -2.900040e+01
  -2.473832e+02  -7.739073e+02
   3.753670e+02  -7.373699e+02
   6.985557e+02   1.971959e+01
   2.287199e+02   6.597676e+02
  -3.413536e+02   3.291783e+02
  -4.291780e+02  -3.295618e+02
   6.280034e+01  -5.877141e+02
   5.929334e+02  -1.684732e+02
   6.287182e+02   4.217113e+02
   1.574298e+02   6.378213e+02
  -4.232088e+02   3.866292e+02
  -7.039894e+02  -1.163603e+02
  -3.847836e+02  -4.455046e+02
   1.955759e+02  -3.936549e+02
   5.093713e+02  -5.070772e+01
   2.710321e+02   2.627944e+02
  -1.853174e+02   1.387264e+02
  -1.383553e+02  -1.757332e+02
   2.024789e+02  -2.315282e+02
   3.648844e+02   8.676593e+01
   1.668080e+02   3.111743e+02
  -2.138564e+02   2.835998e+02
  -3.948573e+02   9.647865e+01
  -2.122050e+02  -1.049746e+02
   4.688677e+01  -2.175919e+02
   2.116779e+02  -3.078228e+02
   3.433668e+02  -2.243197e+02
   3.194111e+02   1.517447e+02
   5.664426e+01   5.037158e+02
  -1.318429e+02   4.022951e+02
  -1.729009e+02   3.007240e+01
   1.217912e+01  -2.524623e+01
  -1.160444e+01   8.878842e+01
  -1.789482e+02   1.390107e+02
  -2.900369e+02  -5.097990e+01
  -1.639395e+02  -2.790268e+02
   7.554207e+01  -2.763671e+02
   2.463894e+02   4.759876e+00
   2.200930e+02   2.479285e+02
   6.937421e+00   3.009741e+02
  -2.572469e+02   1.421522e+02
  -3.895944e+02  -1.658694e+02
  -1.985453e+02  -3.695366e+02
   1.219774e+02  -2.955357e+02
   2.810933e+02  -1.115637e+02
   1.522875e+02   1.654917e+01
   1.098381e+02   1.252203e+01
   2.181400e+02  -6.063460e+01
   4.088557e+02   2.724630e+01
   3.803811e+02   2.604487e+02
  -4.603289e-01   4.381476e+02
  -3.586770e+02   3.994688e+02
  -5.111771e+02   2.167414e+02
  -3.525415e+02  -8.378021e+01
  -4.184660e+01  -3.111991e+02
   1.450534e+02  -2.636368e+02
   9.137568e+01  -1.421302e+01
  -9.059196e+01   1.231980e+02
  -1.818478e+02  -7.994761e+00
  -4.697962e+01  -1.765512e+02
   1.800028e+02  -1.713281e+02
   1.974332e+02   8.684810e+01
  -1.925293e+01   2.072530e+02
  -2.140413e+02   4.519171e+01
  -1.628161e+02  -2.630139e+02
   1.214966e+01  -3.311553e+02
   2.358826e+02  -1.727225e+02
   3.127783e+02   3.685128e+01
   2.861133e+02   2.374173e+02
   9.004473e+01   2.825753e+02
  -1.244349e+02   1.589277e+02
  -1.816173e+02   3.116553e+01
  -6.434701e+01  -2.987579e+01
   6.650256e+01   2.690667e+01
   2.727630e+01   1.165433e+02
  -1.346212e+02   1.062135e+02
  -2.049536e+02  -8.460582e+00
  -8.469276e+01  -7.462632e+01
   4.839215e+01  -2.235802e+01
   5.735183e+01   7.371455e+01
  -1.136059e+02   8.993204e+01
  -2.880284e+02  -9.441477e+00
  -2.522007e+02  -1.376388e+02
  -2.984388e+01  -2.704586e+02
   2.081768e+02  -2.493861e+02
   3.124836e+02  -8.899891e+01
   1.872749e+02   7.299428e+01
  -2.738463e+01   1.237338e+02
  -1.135683e+02  -2.863100e+01
   1.955695e+01  -1.192136e+02
   1.792170e+02  -4.887106e+01
   2.023959e+02   1.088472e+02
   6.286883e+01   1.968701e+02
  -1.029917e+02   1.872670e+02
  -1.791131e+02   1.602399e+01
  -8.927332e+01  -3.857492e+01
  -9.938869e+00  -3.055789e+01
   6.300424e+01   7.638806e+01
  -7.647487e+01   1.168446e+02
  -2.119040e+02   5.167519e+01
  -1.630257e+02  -1.227829e+02
  -9.609960e+00  -2.464371e+02
   1.629521e+02  -1.987656e+02
   1.838111e+02   2.756920e-02
   7.497719e+01   1.120648e+02
  -9.271684e+01   1.206661e+02
  -1.059974e+02   5.297375e+01
  -1.068148e+01  -5.169944e+01
   1.748733e+01  -1.583729e+01
   3.857587e+01   3.994083e+01
  -7.220778e+01  -2.361487e+01
  -8.858559e+01  -9.538575e+01
  -1.687143e+01  -1.298500e+02
   1.024279e+02  -1.406456e+02
   2.362706e+02  -3.175746e+00
   2.045354e+02   1.703002e+02
   3.037082e+01   2.520959e+02
  -1.021476e+02   1.766352e+02
  -1.102144e+02   2.281441e+01
  -6.913504e+01  -6.597884e+01
  -1.508766e+01  -5.856396e+01
  -5.426810e+01   2.716908e+01
  -7.698828e+01   2.954126e+00
  -5.336602e+01  -4.389621e+01
   5.033782e+01  -9.011300e+01
   7.221275e+01  -6.037402e+01
   9.074661e+01   1.572738e+01
  -1.603193e+01   1.189915e+02
  -1.251497e+02   9.496860e+01
  -1.850158e+02  -8.621522e+01
  -1.334776e+02  -2.174054e+02
   1.196285e+02  -2.524822e+02
   2.849520e+02  -1.030619e+02
   2.503419e+02   9.219344e+01
   1.007120e+02   1.859633e+02
  -5.252529e+01   1.538810e+02
  -9.385137e+01   8.008992e+01
  -8.634496e+01   4.454404e+01
  -4.222075e+01   7.585373e+01
  -9.628684e+01   5.180705e+01
  -1.329236e+02  -2.742330e+01
  -1.366059e+02  -1.922177e+02
   1.437868e+00  -2.231645e+02
   1.097177e+02  -1.850252e+02
   1.592941e+02  -4.071331e+01
   1.355943e+02   8.801328e+01
  -8.744956e+00   1.670660e+02
  -6.627643e+01   7.197648e+01
  -4.443746e+01   4.084345e+00
   3.933395e+00  -5.867011e+01
  -7.089258e-01  -1.739558e+01
  -3.563953e+01  -1.695866e+01
  -5.856528e+01  -2.726717e+01
  -4.632018e+01  -7.022168e+01
   6.567473e+01  -3.880936e+01
   1.353676e+02   8.068127e+00
   1.166111e+02   4.352690e+01
   1.673863e+01   8.442246e+01
  -1.249430e+02   6.899039e+01
  -1.414805e+02   1.675266e+01
  -3.412595e+01  -6.336839e+01
   6.048647e+01  -3.452087e+01
   7.821509e+01   1.247778e+01
   5.213730e+00   6.253799e+01
  -6.642171e+01   3.311440e+01
  -6.564488e+01  -9.463086e+00
  -3.782367e+01  -5.113875e+01
  -2.898759e+01  -4.876075e+01
  -9.938050e+01  -3.021687e+01
  -5.931052e+01   1.786889e+01
  -4.312249e+01  -5.313834e+01
   1.561622e+01  -1.582090e+02
   9.268782e+01  -1.497978e+02
   1.462613e+02  -3.592972e+01
   1.176891e+02   1.096298e+02
   2.190504e+01   1.282514e+02
  -1.010131e+02   4.528758e+01
  -5.399711e+01  -4.310957e+00
   6.757143e+01  -2.877543e+01
   1.446117e+02   5.410188e+01
   9.433322e+01   1.182231e+02
  -8.176600e+01   9.647909e+01
  -1.996415e+02   4.600672e+01
  -1.735550e+02  -6.385123e+01
  -5.613621e+01  -8.659367e+01
   6.382499e+01  -7.671122e+01
   3.275461e+01  -7.700657e+00
  -2.067260e+01   2.816144e+01
  -1.041273e+02  -3.755675e+01
  -3.748590e+01  -1.266120e+02
   8.883528e+01  -1.437209e+02
   1.494222e+02  -4.222952e+01
   1.173298e+02   8.677652e+01
   2.869191e+01   1.761936e+02
  -8.038661e+01   1.182137e+02
  -9.822944e+01  -5.923666e+00
  -6.724487e+01  -1.038160e+02
  -5.524307e+00  -1.075153e+02
   1.643386e+01  -1.516198e+01
   4.580410e+01   2.761057e+01
   3.335818e+01   3.865078e+01
   2.550922e+01  -2.363816e+01
   1.893614e+01   3.162369e+00
   5.268684e+01   7.233116e+01
   2.766770e+01   8.962192e+01
  -7.831898e+01   5.831889e+01
  -1.111620e+02  -3.241286e+01
  -1.157083e+02  -7.552930e+01
  -2.673503e+01  -4.914522e+01
   9.567458e+01  -1.401495e+01
   8.159724e+01  -1.099338e+01
  -3.141574e+01   4.521487e+01
  -2.599737e+01   2.657591e+01
  -4.199754e+01   3.959209e+01
   1.989900e+01   3.135465e+00
  -1.983139e+01  -2.232982e+01
  -6.390703e+01  -3.625540e+01
  -5.369205e+01  -1.282289e+01
   2.258849e+01  -6.762110e+01
   1.242802e+02  -1.047550e+02
   1.747918e+02  -7.571192e+01
   1.759600e+02   7.140340e+01
   4.145650e+01   1.632709e+02
  -6.979836e+01   1.335049e+02
  -1.311838e+02   3.423622e+01
  -6.222822e+01  -3.970317e+01
  -3.841518e+01  -3.914668e+01
   1.511933e+00  -3.943048e+00
  -3.803465e-01   1.674705e+01
  -3.840109e+01  -2.873638e+01
  -9.445564e+00  -9.371959e+01
   3.581135e+01  -7.767240e+01
   7.664440e+01   2.939153e+01
   5.453985e+01   1.033119e+02
  -4.069940e+00   1.032861e+02
  -9.846472e+01   1.744677e+01
  -9.041566e+01  -6.599202e+01
  -4.023998e+01  -1.013403e+02
   9.257786e+01  -7.724377e+01
   9.724327e+01   2.528000e+01
   3.076940e+01   6.131147e+01
  -4.986490e+01   1.979920e+01
  -1.967399e+01   3.103344e+01
   4.265921e+01  -2.442875e+01
   4.992103e+01   5.028159e+00
   1.981238e+01   2.125218e+01
  -6.077332e+01   6.660694e+01
  -1.280728e+02   5.276330e+01
  -7.305393e+01  -9.304454e+00
  -2.670092e+00  -7.224329e+01
   3.689493e+01  -7.602832e+01
   2.808774e+01  -1.403717e+01
  -2.644595e+01   7.058985e+01
  -2.508464e+01  -1.124715e+01
  -5.301525e+01  -8.513141e+00
  -1.149363e+01  -5.387136e+01
   2.646954e+00  -1.140625e+01
   3.534068e+01   7.969081e+00
   2.919347e+01   1.937754e+01
   2.543273e+01  -6.473865e+00
  -1.314771e+01  -1.473083e+01
  -1.724965e+01   2.091646e+01
   4.775547e+00   3.746233e+01
  -1.887023e+01   1.902004e+01
  -7.284668e+01  -2.216423e-01
  -4.174462e+01  -6.544628e+01
   8.488094e+00  -5.551819e+01
   3.800651e+01  -4.180569e+01
   2.868588e+01   6.471407e+01
  -8.029068e+00   7.466426e+01
  -6.821419e+01  -7.627996e-01
  -8.328104e+01  -3.445984e+01
  -3.148106e+01  -4.590385e+01
   2.662842e+01  -3.040871e+01
   5.865068e+01  -3.344431e+01
   2.452371e+01  -3.070575e+00
  -4.818041e+01   3.623770e+00
  -4.108519e+01  -1.803667e+01
   5.206186e+01  -4.993637e+01
   1.026556e+02   3.917105e+00
