
 $NMID
 id='ANONYMOUS ', fmtdat='(2E16.6)'
 volume=1.0
 tramp=1.0
 $END
   4.571549e+03  -3.129268e+01
   2.652692e+03   2.784941e+03
  -7.499232e+02   2.816022e+03
  -2.206900e+03   8.764110e+02
  -9.358578e+02  -7.822745e+02
   8.180975e+02  -6.195045e+02
   9.594707e+02   4.891663e+02
   3.139420e+01   1.140447e+03
  -8.684074e+02   8.346760e+02
  -1.010959e+03  -1.286953e+02
  -4.875575e+02  -9.518549e+02
   2.844951e+02  -9.753456e+02
   7.059098e+02  -1.087717e+02
   4.395023e+02   7.996414e+02
  -2.959442e+02   8.070528e+02
  -6.448912e+02  -6.560556e+01
  -2.663554e+02  -7.612807e+02
   3.952617e+02  -6.199639e+02
   6.361967e+02  -6.185377e+01
   3.786735e+02   4.189884e+02
  -1.167508e+01   4.530320e+02
  -2.443505e+02   2.742495e+02
  -2.292444e+02  -9.785147e+00
   1.268796e+02  -6.549894e+01
   4.299819e+02   1.027770e+02
   2.278778e+02   4.289149e+02
  -4.688379e+02   4.140409e+02
  -9.096514e+02  -7.150819e+01
  -3.936560e+02  -5.561014e+02
   4.306091e+02  -5.668532e+02
   8.236515e+02   4.684614e+01
   3.967054e+02   4.780778e+02
  -3.155115e+02   5.615781e+02
  -5.768412e+02   2.033795e+02
  -4.427970e+02  -2.400205e+02
  -4.935855e+01  -4.916064e+02
   1.940422e+02  -3.163671e+02
   1.713637e+02   2.018008e+02
  -1.780912e+02   4.732128e+02
  -4.961989e+02   2.251543e+00
  -2.198831e+02  -7.345409e+02
   2.828708e+02  -7.634097e+02
   7.138394e+02  -9.663363e+00
   2.822655e+02   6.128634e+02
  -3.254383e+02   3.442284e+02
  -4.235820e+02  -3.081264e+02
   2.956555e+01  -5.764963e+02
   5.868735e+02  -1.724268e+02
   6.482254e+02   3.900633e+02
   1.807662e+02   5.993175e+02
  -3.956457e+02   4.111402e+02
  -7.119250e+02  -8.868941e+01
  -4.091473e+02  -4.355857e+02
   1.458986e+02  -4.139654e+02
   5.215207e+02  -6.078660e+01
   2.226974e+02   2.117931e+02
  -1.217780e+02   1.351791e+02
  -1.618049e+02  -1.219381e+02
   1.913895e+02  -2.031363e+02
   3.647507e+02   6.969052e+01
   1.550386e+02   3.065780e+02
  -1.919771e+02   2.807547e+02
  -3.481516e+02   5.881916e+01
  -1.932734e+02  -1.128042e+02
   1.380538e+01  -2.218628e+02
   2.033685e+02  -3.461759e+02
   3.199513e+02  -1.917287e+02
   3.052475e+02   1.511992e+02
   1.202393e+02   4.602876e+02
  -1.124125e+02   4.196809e+02
  -1.562491e+02   7.734655e+01
  -3.438366e+01  -5.761031e+01
  -1.352000e+01   1.162379e+02
  -1.926319e+02   1.467201e+02
  -2.948251e+02  -5.996847e+01
  -1.866426e+02  -3.110540e+02
   5.697348e+01  -3.060030e+02
   2.106155e+02  -3.034571e+01
   2.602746e+02   2.436819e+02
  -6.198577e+00   2.986034e+02
  -2.784829e+02   1.301482e+02
  -3.814671e+02  -1.852056e+02
  -1.971214e+02  -3.556870e+02
   1.074687e+02  -3.285566e+02
   2.654207e+02  -1.033536e+02
   1.156802e+02  -5.292988e+00
   9.715238e+01  -3.637060e+01
   2.271542e+02  -7.535007e+01
   4.449977e+02   2.865817e+01
   3.678452e+02   2.779280e+02
   8.967232e+00   4.475318e+02
  -3.653871e+02   4.342434e+02
  -5.250112e+02   2.045248e+02
  -3.607357e+02  -7.095775e+01
  -4.473050e+01  -3.068132e+02
   1.284835e+02  -2.519413e+02
   7.789148e+01  -1.982862e+01
  -1.186426e+02   1.194701e+02
  -2.156712e+02   1.943651e+01
  -4.649242e+01  -2.421964e+02
   1.691304e+02  -1.971139e+02
   1.988058e+02   5.523864e+01
  -1.274296e-01   1.910776e+02
  -2.065172e+02   5.183494e+01
  -1.774210e+02  -2.496315e+02
   3.871997e+01  -3.308357e+02
   2.419598e+02  -1.897920e+02
   3.263342e+02   6.449032e+01
   2.838618e+02   2.563084e+02
   9.818623e+01   2.736517e+02
  -1.294013e+02   1.886310e+02
  -1.760851e+02   1.064464e+01
  -5.232194e+01   1.545021e+01
   8.328043e+01   1.977085e+01
   1.973222e+01   1.292858e+02
  -1.140102e+02   9.814589e+01
  -2.020979e+02  -4.171311e-01
  -5.782075e+01  -8.454577e+01
   8.916469e+01  -2.045675e+01
   5.477890e+01   6.248433e+01
  -1.214044e+02   5.783467e+01
  -2.778300e+02   2.352462e-01
  -2.436824e+02  -1.197588e+02
  -5.447183e+01  -2.186933e+02
   1.658591e+02  -2.887224e+02
   2.887345e+02  -1.351666e+02
   1.455800e+02   5.197274e+01
  -1.159425e+01   1.335120e+02
  -9.564869e+01   1.333592e+01
   4.796001e+01  -9.124495e+01
   2.050691e+02  -4.713687e+01
   2.130783e+02   9.825192e+01
   5.881729e+01   2.081316e+02
  -1.154841e+02   1.590600e+02
  -1.477450e+02   2.695714e+01
  -7.125557e+01  -4.581593e+01
   3.061569e+01  -2.146591e+00
   3.225450e+01   7.928486e+01
  -3.767030e+01   1.264047e+02
  -1.963527e+02   6.063335e+01
  -1.969520e+02  -1.297929e+02
  -4.366058e+01  -1.956862e+02
   1.685918e+02  -1.695605e+02
   2.223851e+02  -7.920922e+00
   9.609688e+01   1.277555e+02
  -6.387498e+01   1.323403e+02
  -9.640583e+01   3.928672e+01
  -7.399795e+00  -3.006087e+01
  -3.707314e+00  -7.243033e+00
   7.951500e+00   1.535388e+01
  -5.120282e+01  -3.190355e+01
  -1.060358e+02  -8.729761e+01
  -4.380328e+01  -1.575853e+02
   1.240450e+02  -1.792257e+02
   2.373094e+02  -3.039096e+01
   2.292997e+02   1.785054e+02
   2.325777e+01   2.427901e+02
  -1.219550e+02   1.648513e+02
  -1.407451e+02   2.871670e+01
  -6.535249e+01  -7.393257e+01
  -2.941625e+01  -2.902342e+01
  -6.072227e+01   1.235378e+01
  -8.201267e+01  -1.925885e+00
  -1.850326e+01  -6.248620e+01
   4.421658e+01  -9.578892e+01
   8.153280e+01  -5.328118e+01
   8.733571e+01   2.520026e+01
  -4.834479e+00   1.207991e+02
  -1.219668e+02   6.786545e+01
  -1.955313e+02  -5.038259e+01
  -1.197836e+02  -2.169992e+02
   9.140557e+01  -2.227952e+02
   2.855373e+02  -1.044454e+02
   2.516028e+02   9.646368e+01
   9.629710e+01   1.918822e+02
  -4.948953e+01   1.556703e+02
  -1.088225e+02   9.082858e+01
  -9.637544e+01   9.011416e+01
  -3.071556e+01   1.110070e+02
  -1.017748e+02   1.157395e+02
  -1.486872e+02  -4.189459e+00
  -1.180811e+02  -1.526180e+02
  -3.240786e+01  -2.169421e+02
   1.108999e+02  -2.115283e+02
   1.940735e+02  -1.889222e+01
   1.532129e+02   8.607937e+01
   3.278249e+01   1.553250e+02
  -7.329818e+01   8.972925e+01
  -6.687676e+01  -1.100703e+01
  -1.264793e+01  -7.070453e+01
   1.742198e+01   1.258342e+01
  -4.311534e+01  -1.895520e+00
  -8.117890e+01  -3.515113e+01
  -5.410742e+01  -5.284549e+01
   6.389219e+01  -4.696898e+01
   1.432758e+02  -3.122090e+01
   1.122540e+02   6.579473e+01
   1.110124e+01   7.077632e+01
  -1.205842e+02   7.633813e+01
  -1.361521e+02   1.743876e+01
  -5.900374e+01  -5.817334e+01
   8.102290e+01  -4.386429e+01
   7.993583e+01   1.629797e+01
   7.397825e+00   7.589788e+01
  -4.334771e+01   4.080063e+01
  -7.559944e+01  -3.067496e+01
  -5.969834e+01  -5.406597e+01
  -4.187705e+01  -3.566860e+01
  -4.996277e+01   8.078233e+00
  -6.840690e+01   8.709462e+00
  -3.655179e+01  -4.840397e+01
   3.715954e+00  -1.701237e+02
   1.038912e+02  -1.653402e+02
   1.473150e+02  -1.477072e+01
   1.344444e+02   8.563309e+01
   3.216113e+01   1.225233e+02
  -1.163618e+02   8.121284e+01
  -4.415936e+01  -2.424109e+01
   6.578963e+01  -2.376325e+01
   1.258651e+02   5.097987e+01
   1.093691e+02   1.267937e+02
  -7.050882e+01   9.185454e+01
  -1.949843e+02   4.665397e+01
  -1.616420e+02  -2.858232e+01
  -1.407814e+01  -7.264075e+01
   5.379932e+01  -6.136234e+01
   5.216675e+01  -6.801689e+00
  -5.099158e+01   3.105926e+01
  -1.006913e+02  -5.273614e+01
  -2.191463e+01  -1.015188e+02
   1.069501e+02  -1.799065e+02
   1.303820e+02  -5.391992e+01
   1.107333e+02   1.099061e+02
   1.647869e+01   1.959065e+02
  -8.023004e+01   1.160996e+02
  -9.662439e+01  -8.366139e+00
  -6.706573e+01  -1.175601e+02
   2.169756e+01  -9.572836e+01
   5.886260e+01   2.499257e+00
   3.482314e+01   4.318263e+01
   2.240269e+01   6.635070e+00
   3.313651e+01  -2.337583e+01
   1.041343e+01   1.874259e+01
   4.803274e+01   8.341592e+01
   3.532718e+01   1.118385e+02
  -4.796239e+01   5.289717e+01
  -1.299931e+02  -5.416148e+01
  -1.201784e+02  -9.098110e+01
  -1.925899e+01  -5.973232e+01
   7.420249e+01  -2.884896e+01
   9.170151e+01   5.489979e+00
   2.259588e+01   3.236835e+01
  -4.728168e+01   4.768464e+01
  -3.014400e+01   4.796581e+01
   9.872247e+00  -2.651288e+00
   3.398425e+01  -5.258041e+00
  -7.256068e+01  -2.528649e+01
  -7.113711e+01  -3.413530e+01
   1.395059e-01  -7.625096e+01
   9.988322e+01  -1.247939e+02
   1.621887e+02  -6.677183e+01
   1.339149e+02   9.176605e+01
   3.569650e+01   1.793791e+02
  -6.484706e+01   1.281496e+02
  -1.021703e+02   4.037894e+01
  -9.111228e+01  -4.497081e+01
  -3.154998e+01  -4.669757e+01
   1.700768e+01   4.165002e+00
  -3.413613e+01   1.753692e+01
  -3.077727e+01  -5.074952e+01
  -2.520769e+01  -7.890596e+01
   2.124565e+01  -7.439463e+01
   7.889236e+01  -5.048729e+00
   7.327383e+01   1.070767e+02
   3.544050e+00   9.299364e+01
  -8.314156e+01   3.830989e+01
  -9.332122e+01  -6.884610e+01
  -4.427573e+01  -1.077139e+02
   5.194289e+01  -4.702733e+01
   8.086453e+01  -6.832478e+00
   4.125437e+01   4.943385e+01
  -5.012120e+01   6.724083e+01
  -4.352934e+01   4.360925e+01
   1.511367e+01  -1.690238e+01
   5.553428e+01  -9.925353e+00
   4.555517e+00   2.110451e+01
  -8.081676e+01   7.648161e+01
  -1.035066e+02   8.272481e+01
  -6.209381e+01   1.229470e+01
   4.011836e+01  -8.024480e+01
   5.365841e+00  -8.351286e+01
   3.298908e+01  -2.481107e+01
  -8.785860e+00   5.395531e+01
  -4.708923e+01   4.025655e+01
  -2.314426e+01  -1.044297e+01
  -2.320138e+01  -1.027248e+02
   1.458471e+01  -4.107117e+01
   3.011142e+01   9.216818e+00
   3.993804e+01   3.716925e+01
  -2.955873e+00   9.407510e+00
  -9.587554e+00  -2.452554e+01
   5.201695e+00   1.066237e+01
   5.562677e+00   5.236438e+01
  -2.580438e+01   3.396291e+01
  -3.685974e+01  -2.168766e+01
  -4.811215e+01  -5.599286e+01
  -6.410434e+00  -7.357135e+01
   3.983470e+01  -3.160710e+01
   5.059792e+01   3.711910e+01
  -7.278113e+00   7.323215e+01
  -5.725557e+01   3.860921e+01
  -6.062468e+01  -1.706415e+01
  -5.517496e+01  -4.642265e+01
   3.047806e-01  -5.029451e+01
   6.171818e+01  -4.643528e+01
   3.160456e+01  -6.407383e+00
  -2.582446e+01  -1.340431e+00
  -2.767644e+01  -2.561124e+00
   4.784923e+01  -6.068677e+01
   8.938772e+01  -1.401913e+01
