
 $NMID
 id='ANONYMOUS ', fmtdat='(2E16.6)'
 volume=1.0
 tramp=1.0
 $END
   4.380703e+03   2.053988e+02
   2.422534e+03   2.776481e+03
  -9.019312e+02   2.831956e+03
  -2.031866e+03   7.363635e+02
  -9.700385e+02  -6.104094e+02
   6.323333e+02  -5.087366e+02
   8.344378e+02   4.364968e+02
  -2.369876e+01   1.025078e+03
  -8.448876e+02   7.142728e+02
  -9.257294e+02  -1.546505e+02
  -4.180495e+02  -8.792906e+02
   2.626312e+02  -8.651627e+02
   6.503057e+02  -1.230224e+02
   3.347937e+02   7.487295e+02
  -2.472838e+02   7.796114e+02
  -5.930826e+02   3.553095e+01
  -2.831872e+02  -6.895124e+02
   2.647826e+02  -6.501016e+02
   5.472163e+02  -1.363027e+02
   3.883575e+02   3.309629e+02
   6.042059e+01   4.247733e+02
  -2.406224e+02   2.979855e+02
  -2.545902e+02  -3.930520e+00
   1.519944e+02  -1.260147e+02
   4.529122e+02   1.267415e+02
   1.937026e+02   4.889549e+02
  -4.877620e+02   3.886929e+02
  -8.987697e+02  -9.821864e+01
  -3.938518e+02  -5.472664e+02
   4.311281e+02  -4.756045e+02
   7.376784e+02   7.530599e+01
   3.451531e+02   5.111111e+02
  -2.928907e+02   5.323269e+02
  -6.008201e+02   1.960106e+02
  -4.492293e+02  -2.467646e+02
  -6.302920e+01  -4.699400e+02
   2.167656e+02  -2.634579e+02
   1.696933e+02   2.305459e+02
  -1.670457e+02   4.034281e+02
  -4.556069e+02  -5.376459e+01
  -2.474262e+02  -7.094590e+02
   4.160467e+02  -7.376026e+02
   6.154041e+02   7.357581e+00
   2.315720e+02   5.688566e+02
  -2.729814e+02   3.217705e+02
  -4.000867e+02  -3.254044e+02
   9.623664e+01  -5.527125e+02
   5.414091e+02  -1.119426e+02
   5.883888e+02   4.253316e+02
   1.631283e+02   6.015743e+02
  -3.829599e+02   3.542710e+02
  -6.140693e+02  -8.830353e+01
  -3.746673e+02  -4.143012e+02
   1.596521e+02  -3.945646e+02
   4.282957e+02  -3.541829e+01
   2.090374e+02   2.142424e+02
  -1.338255e+02   1.046456e+02
  -1.387405e+02  -1.218106e+02
   1.407139e+02  -1.470419e+02
   3.397761e+02   6.684885e+01
   1.374283e+02   2.780427e+02
  -1.939945e+02   2.287608e+02
  -3.242039e+02   9.912991e+01
  -2.091061e+02  -1.041843e+02
   2.126399e+01  -2.613672e+02
   2.097369e+02  -3.843880e+02
   3.699246e+02  -2.032302e+02
   3.042415e+02   1.738336e+02
   6.812029e+01   4.549006e+02
  -1.393144e+02   3.629775e+02
  -9.526676e+01   7.137702e+01
  -3.439032e+01  -3.926258e-01
  -3.011062e+01   1.157665e+02
  -2.128434e+02   1.432078e+02
  -2.823864e+02  -7.914208e+01
  -9.792090e+01  -2.822801e+02
   9.095153e+01  -2.629166e+02
   2.216150e+02  -2.046682e+01
   1.921005e+02   2.737684e+02
  -1.800289e+01   3.046939e+02
  -2.782136e+02   1.277930e+02
  -3.638936e+02  -1.877251e+02
  -1.556556e+02  -3.718489e+02
   1.149807e+02  -2.710653e+02
   2.308854e+02  -1.269625e+02
   1.535713e+02  -1.459498e+01
   9.102160e+01  -2.998230e+01
   2.465263e+02  -3.612580e+01
   4.043890e+02   9.397780e+01
   2.861190e+02   3.078770e+02
  -1.764557e+01   4.439102e+02
  -3.902485e+02   4.161376e+02
  -4.935871e+02   1.410697e+02
  -3.487755e+02  -1.425867e+02
  -5.351610e+01  -2.922962e+02
   1.495913e+02  -2.392394e+02
   9.965942e+01   8.087202e+00
  -1.187590e+02   9.515257e+01
  -1.915676e+02  -5.525297e+01
  -1.476200e+01  -2.041365e+02
   1.886632e+02  -1.348777e+02
   1.751222e+02   9.015180e+01
  -2.270123e+01   1.887819e+02
  -1.833193e+02   2.073507e+01
  -1.379447e+02  -2.398776e+02
   5.137480e+01  -3.544009e+02
   2.363440e+02  -2.029392e+02
   3.354718e+02   7.065194e+01
   2.505942e+02   2.498099e+02
   1.091559e+02   2.611573e+02
  -1.095874e+02   1.612160e+02
  -1.351404e+02   1.513222e+01
  -3.481597e+01  -3.274962e+01
   8.025817e+01   5.640677e+01
   2.117997e+01   1.396538e+02
  -1.176027e+02   9.686151e+01
  -2.032988e+02  -1.803920e+01
  -5.936917e+01  -5.968892e+01
   7.597791e+01  -2.660789e+01
   7.197161e+01   7.274452e+01
  -1.323475e+02   1.137932e+02
  -3.000507e+02  -2.980400e+00
  -2.846146e+02  -1.609196e+02
  -7.234360e+01  -2.625953e+02
   1.880564e+02  -2.392941e+02
   3.099850e+02  -1.195808e+02
   1.820007e+02   5.453099e+01
  -4.466903e+01   1.093501e+02
  -1.024715e+02   1.491511e+01
   4.032676e+01  -1.046448e+02
   1.752361e+02  -4.699840e+01
   1.794160e+02   1.194194e+02
   7.714277e+01   1.762448e+02
  -8.124770e+01   1.575207e+02
  -1.316936e+02   1.726029e+01
  -3.257193e+01  -1.471083e+01
   3.827383e+01  -2.358224e+01
   5.396330e+01   7.998688e+01
  -9.044826e+01   1.224513e+02
  -2.192516e+02   4.951785e+01
  -1.467972e+02  -1.528790e+02
  -1.325981e+01  -2.261414e+02
   1.600234e+02  -1.490704e+02
   1.948725e+02   1.213577e+01
   7.321410e+01   1.437864e+02
  -4.935388e+01   1.118753e+02
  -9.192176e+01   2.286366e+01
  -3.479670e+01  -4.349800e+01
   8.866346e+00  -1.513112e+01
  -2.222134e+01  -2.289888e+00
  -6.380250e+01  -2.547668e+01
  -9.553592e+01  -1.082560e+02
  -2.857389e+01  -1.822882e+02
   1.259624e+02  -1.609730e+02
   2.361994e+02  -2.742942e+01
   1.937092e+02   1.417080e+02
   3.703292e+01   2.280055e+02
  -9.528303e+01   1.530375e+02
  -1.588589e+02   1.161962e+01
  -9.738702e+01  -8.613413e+01
  -3.229225e+01  -5.614159e+01
  -5.210508e+01  -1.668200e+01
  -5.571700e+01  -4.245348e+00
  -4.480790e+01  -4.064413e+01
   5.437380e+01  -7.657235e+01
   9.395595e+01  -7.702262e+01
   8.192360e+01   4.634995e+01
  -4.694733e-01   1.420225e+02
  -1.493952e+02   1.014979e+02
  -2.278480e+02  -7.115364e+01
  -1.193378e+02  -2.018451e+02
   1.048726e+02  -2.585822e+02
   2.696876e+02  -9.319023e+01
   2.544751e+02   9.454994e+01
   9.355365e+01   1.760122e+02
  -5.869532e+01   1.608140e+02
  -9.877789e+01   6.829628e+01
  -8.404474e+01   4.067552e+01
  -8.753050e+01   9.418014e+01
  -1.131173e+02   6.349481e+01
  -1.158921e+02  -1.635361e+01
  -9.167262e+01  -1.435357e+02
  -1.700621e+01  -2.132033e+02
   9.512774e+01  -1.747839e+02
   1.627079e+02  -1.911116e+01
   1.680054e+02   1.324993e+02
  -1.836257e+00   1.719635e+02
  -4.865318e+01   1.036463e+02
  -8.532804e+01  -1.080952e+01
  -5.321735e+00  -4.771041e+01
   1.824195e+01  -4.360662e+01
  -1.462710e+01  -3.287276e+01
  -5.068686e+01  -3.378276e+01
  -1.798524e+01  -3.967220e+01
   6.815551e+01  -5.012585e+01
   1.726291e+02   8.345298e+00
   1.294171e+02   5.027455e+01
   1.703535e+01   1.080324e+02
  -1.302962e+02   5.907455e+01
  -1.457174e+02  -3.492229e-01
  -5.386744e+01  -2.087691e+01
   3.392645e+01  -2.654960e+01
   8.823464e+01   2.034903e+01
   3.304631e+00   5.969461e+01
  -4.439387e+01   5.508136e+01
  -6.439413e+01  -2.011321e+00
  -5.922312e+01  -5.967815e+01
  -6.446728e+01  -4.272667e+01
  -6.879148e+01  -1.219431e+01
  -3.754445e+01  -2.022760e+01
  -1.353093e+01  -1.052400e+02
   5.137578e+01  -1.309997e+02
   1.068339e+02  -1.277448e+02
   1.528493e+02  -2.414885e+01
   1.137760e+02   1.283729e+02
   1.413061e+01   1.217457e+02
  -9.133310e+01   3.153628e+01
  -3.867175e+01  -1.947871e+01
   5.672731e+01  -2.989592e+01
   1.492230e+02   3.463647e+01
   5.435175e+01   9.894601e+01
  -8.192620e+01   1.040662e+02
  -1.909451e+02   5.087973e+01
  -1.620868e+02  -5.448932e+01
  -4.092964e+01  -7.070033e+01
   4.953334e+01  -2.328017e+01
   5.770476e+01  -2.008773e+01
  -5.288323e+01   4.704483e+01
  -8.437583e+01  -1.701715e+01
  -3.217718e+01  -1.077912e+02
   1.118562e+02  -1.471271e+02
   1.629128e+02  -3.413975e+01
   1.517340e+02   8.901865e+01
   2.610289e+01   2.011560e+02
  -1.028471e+02   1.538993e+02
  -9.763269e+01   1.275430e+01
  -5.456271e+01  -1.140416e+02
  -1.051392e+01  -1.172087e+02
   5.425119e+01  -2.553453e+01
   4.724934e+01   5.383726e+01
   1.154006e+01   2.552277e+01
   3.286987e+00  -2.457771e+01
   2.967746e+01   3.231283e+01
   4.247044e+01   6.780934e+01
   2.920090e+01   1.163322e+02
  -2.837219e+01   8.431385e+01
  -1.515327e+02  -3.324612e+01
  -1.224163e+02  -9.182913e+01
  -8.108850e-01  -4.289893e+01
   9.263067e+01  -2.851718e+01
   6.095692e+01   1.829809e+00
   3.693583e+00   1.306367e+01
  -4.283771e+01   2.196880e+01
  -7.964601e+00   2.169682e+01
   1.060878e+01  -2.527769e+01
   3.634484e+00  -2.889856e+01
  -8.741247e+01  -2.355045e+01
  -1.206956e+02  -2.667140e+01
   7.487176e+00  -8.357306e+01
   1.289956e+02  -1.227863e+02
   1.778722e+02  -6.292392e+01
   1.636309e+02   5.920064e+01
   2.483489e+01   1.622973e+02
  -5.426462e+01   1.428810e+02
  -1.190393e+02   5.283705e+01
  -9.168620e+01  -7.828104e+00
  -2.951378e+00  -3.268403e+01
  -1.722870e+01  -2.058760e+01
   7.188183e+00  -5.938970e+00
  -4.964876e+01  -4.074748e+01
   3.715026e+00  -1.167338e+02
   3.530786e+01  -7.813648e+01
   7.658819e+01   4.650255e+01
   4.945460e+01   1.068885e+02
   8.792417e-02   1.092499e+02
  -9.049965e+01   2.047102e+01
  -9.384144e+01  -7.998453e+01
  -1.889551e+01  -8.467116e+01
   7.321727e+01  -6.221066e+01
   9.546243e+01   1.129111e+00
   3.105553e+01   3.895915e+01
  -2.454635e+01   2.321826e+01
  -1.493223e+01   3.511360e+00
   5.644394e+01   4.695421e+00
   9.553868e+01  -1.126387e+01
   2.877862e+01   3.887606e+01
  -9.782708e+01   6.854480e+01
  -1.295398e+02   3.514506e+01
  -7.479385e+01  -1.274314e-01
   1.062727e+01  -9.574623e+01
   6.243847e+01  -1.045655e+02
   3.286492e+01   2.258921e+01
   2.024374e+01   2.371069e+01
  -1.995752e+01   2.699872e+01
  -5.479941e+01  -3.447442e+01
  -4.582515e+01  -5.968929e+01
  -6.406349e+00  -3.225213e+01
   1.880571e+01   5.449940e+00
   4.730647e+01   2.626669e+01
   2.325016e+01   1.008353e+01
  -1.145415e+01  -1.260178e+01
  -5.378405e-01  -2.545625e+01
  -1.806326e+01   1.937623e+01
  -1.620743e+01   3.285482e+01
  -4.791452e+01   1.544042e+01
  -4.908923e+00  -4.157087e+01
   2.064155e+01  -7.240338e+01
   5.271376e+01  -4.684159e+00
   3.088276e+01   3.310030e+01
   2.558683e+01   7.694595e+01
  -5.964990e+01   1.134097e+01
  -8.719634e+01  -1.281272e+01
  -3.867721e+01  -7.125923e+01
   5.907320e+01  -3.342407e+01
   6.720378e+01  -9.204640e+00
   4.235921e+00  -1.503325e+01
  -5.367625e+01  -6.628305e+00
  -1.009532e+00  -3.300586e+01
   5.351631e+01  -5.718458e+00
   8.417721e+01  -1.046433e+00
