
 $NMID
 id='ANONYMOUS ', fmtdat='(2E16.6)'
 volume=1.0
 tramp=1.0
 $END
  -4.703299e+03   1.956321e+02
  -2.710323e+03  -2.919517e+03
   9.641210e+02  -3.036674e+03
   2.278597e+03  -7.137251e+02
   9.374044e+02   8.760597e+02
  -7.424865e+02   7.025134e+02
  -1.033935e+03  -4.918718e+02
  -3.890131e+01  -1.192241e+03
   9.516950e+02  -8.754386e+02
   1.041815e+03   1.374300e+02
   4.456018e+02   9.426158e+02
  -3.511617e+02   9.110437e+02
  -7.272966e+02   1.238895e+02
  -4.318789e+02  -8.019422e+02
   3.234353e+02  -8.480433e+02
   6.694373e+02   6.360324e-01
   3.221360e+02   7.356301e+02
  -3.249020e+02   6.845177e+02
  -6.341574e+02   7.631991e+01
  -3.856867e+02  -3.831662e+02
   2.342659e+01  -4.977873e+02
   2.812358e+02  -2.482606e+02
   2.482250e+02   3.666760e+01
  -1.158490e+02   1.345588e+02
  -4.360495e+02  -9.001743e+01
  -3.091603e+02  -4.924684e+02
   4.763097e+02  -4.587968e+02
   9.467510e+02   4.435833e+01
   4.902151e+02   5.866977e+02
  -4.283425e+02   5.472058e+02
  -8.150694e+02  -3.258196e+01
  -3.747754e+02  -5.014620e+02
   2.921847e+02  -5.074725e+02
   6.099013e+02  -2.180669e+02
   4.284606e+02   2.463459e+02
   5.221314e+01   5.011488e+02
  -2.503631e+02   2.777986e+02
  -2.028611e+02  -2.251461e+02
   1.889268e+02  -4.605817e+02
   4.915213e+02   1.682476e+01
   2.888450e+02   7.525244e+02
  -3.539503e+02   7.820267e+02
  -6.723294e+02   2.635839e+01
  -2.839183e+02  -6.181399e+02
   3.161122e+02  -3.637668e+02
   4.387823e+02   3.038973e+02
  -4.400579e+01   5.690056e+02
  -5.619983e+02   1.608363e+02
  -6.275144e+02  -4.396325e+02
  -1.550919e+02  -5.845439e+02
   3.684306e+02  -3.739023e+02
   6.804086e+02   4.852604e+01
   4.055549e+02   4.164755e+02
  -1.644305e+02   3.987870e+02
  -4.700248e+02   7.658730e+01
  -2.433616e+02  -2.269090e+02
   1.435229e+02  -1.342161e+02
   1.687325e+02   1.611476e+02
  -1.734938e+02   2.072842e+02
  -3.489603e+02  -4.827078e+01
  -1.717599e+02  -3.047433e+02
   2.348624e+02  -2.900490e+02
   3.586390e+02  -9.358063e+01
   1.951947e+02   7.647739e+01
  -2.425715e+01   2.178081e+02
  -2.057789e+02   2.993300e+02
  -3.240686e+02   2.596345e+02
  -2.848493e+02  -1.274965e+02
  -8.253620e+01  -4.915670e+02
   1.282445e+02  -4.134802e+02
   1.510623e+02  -8.724966e+01
   4.680624e+00   1.845481e+01
   9.959396e+00  -8.105301e+01
   1.969401e+02  -1.525086e+02
   2.834756e+02   1.411861e+01
   1.798544e+02   2.650643e+02
  -5.088081e+01   2.804030e+02
  -2.139242e+02   7.713606e+00
  -1.855354e+02  -2.440530e+02
   1.845981e+01  -3.077067e+02
   2.768167e+02  -1.128990e+02
   3.843037e+02   1.741485e+02
   2.031426e+02   3.746932e+02
  -9.093311e+01   3.271220e+02
  -2.542496e+02   1.192900e+02
  -1.817072e+02   1.647164e+01
  -1.006744e+02   8.058122e+00
  -2.198706e+02   3.911886e+01
  -3.897167e+02  -4.334635e+01
  -3.253350e+02  -2.760273e+02
  -3.271774e+01  -4.461530e+02
   3.694081e+02  -4.135700e+02
   4.951120e+02  -2.408256e+02
   3.647238e+02   7.605615e+01
   6.362667e+01   3.101356e+02
  -9.626005e+01   2.719366e+02
  -1.150791e+02   4.152807e+00
   9.689127e+01  -1.394519e+02
   2.192133e+02  -7.899417e+00
   8.015033e+01   2.202782e+02
  -1.546145e+02   1.884801e+02
  -1.942743e+02  -7.064558e+01
   1.433239e+01  -2.392112e+02
   2.091392e+02  -4.644069e+01
   1.697826e+02   2.620263e+02
  -2.269348e+01   3.494458e+02
  -2.299826e+02   2.080324e+02
  -3.146244e+02  -3.579896e+01
  -2.897114e+02  -2.399400e+02
  -1.159806e+02  -2.413771e+02
   1.160755e+02  -1.862773e+02
   1.861487e+02  -2.590950e+01
   8.268803e+01   5.410906e+01
  -8.246664e+01  -2.703483e+01
  -3.402135e+01  -1.420792e+02
   1.373802e+02  -1.037635e+02
   2.070409e+02  -8.921632e+00
   7.266505e+01   6.579057e+01
  -7.531026e+01   3.868147e+01
  -6.176778e+01  -5.917416e+01
   1.103431e+02  -1.048445e+02
   2.593147e+02  -4.212075e+01
   2.487804e+02   1.184493e+02
   9.070852e+01   2.452948e+02
  -1.776421e+02   2.362473e+02
  -2.729984e+02   1.292803e+02
  -1.837223e+02  -5.745115e+01
   2.491448e+01  -9.798878e+01
   1.237527e+02  -2.217657e+01
   2.660632e+00   9.135782e+01
  -1.996046e+02   5.139022e+01
  -2.309244e+02  -8.609427e+01
  -7.265878e+01  -2.106054e+02
   8.115347e+01  -1.456727e+02
   1.347870e+02  -1.850046e+01
   6.633853e+01   3.183827e+01
  -1.917205e+01   1.279749e+01
  -2.866328e+01  -5.001509e+01
   9.706932e+01  -9.615144e+01
   1.782256e+02  -3.712477e+01
   2.014867e+02   1.211084e+02
   2.126343e+01   2.445355e+02
  -1.618099e+02   1.787909e+02
  -1.926113e+02   2.191350e+01
  -7.406181e+01  -1.080142e+02
   6.087345e+01  -1.067858e+02
   8.538141e+01  -2.425727e+01
   2.233330e+01   2.508227e+01
  -3.981489e+01   1.125992e+01
   1.113158e+01   1.677739e+01
   5.649899e+01   2.558324e+01
   6.691334e+01   9.822509e+01
   2.021476e+01   1.546364e+02
  -1.175475e+02   1.592598e+02
  -2.491601e+02   3.749426e+01
  -2.104590e+02  -1.469962e+02
  -6.440556e+01  -2.512556e+02
   1.128293e+02  -1.648770e+02
   1.497169e+02  -2.066536e+01
   6.296028e+01   6.357533e+01
   2.068177e+01   2.903995e+01
   4.558068e+01   1.295185e+01
   9.082287e+01  -1.447086e+00
   3.992424e+01   4.431636e+01
  -5.238717e+01   9.783953e+01
  -8.130607e+01   6.423726e+01
  -8.247697e+01  -1.759491e+01
   1.607623e+01  -1.029054e+02
   1.166461e+02  -1.096686e+02
   2.018694e+02   5.367947e+01
   1.094336e+02   1.960369e+02
  -9.166899e+01   2.347692e+02
  -2.696046e+02   9.690746e+01
  -2.852553e+02  -7.931393e+01
  -1.152165e+02  -1.919435e+02
   4.940024e+01  -1.876693e+02
   1.248444e+02  -7.605732e+01
   7.318144e+01  -6.561651e+01
   5.776063e+01  -1.064100e+02
   7.794414e+01  -5.336519e+01
   1.210562e+02   3.320245e+01
   1.152945e+02   1.445690e+02
   7.396639e+00   2.190598e+02
  -1.201944e+02   1.816143e+02
  -1.964820e+02   4.041134e+01
  -1.226406e+02  -9.367404e+01
  -2.247864e+01  -1.457337e+02
   5.032028e+01  -9.415495e+01
   5.686736e+01   3.019522e+00
   1.285232e+01   4.248632e+01
  -7.329419e+00   2.460357e+01
   2.792839e+01   3.458388e+01
   8.378299e+01  -7.796766e+00
   3.323022e+01   3.631094e+01
  -5.566134e+01   2.805548e+01
  -1.610916e+02   1.724199e+01
  -1.581764e+02  -5.513454e+01
  -2.071541e+01  -9.590041e+01
   9.044994e+01  -8.691035e+01
   1.519832e+02  -2.298705e+01
   3.048625e+01   3.420268e+01
  -6.862644e+01   2.631158e+01
  -5.988334e+01  -8.990309e+00
  -1.434547e+01  -8.923070e+01
   5.789627e+01  -3.306552e+01
   6.840787e+01   9.182498e+00
   5.101949e+01   7.231016e+01
   2.359063e+01   3.436197e+01
   6.571964e+01  -1.812034e+01
   5.922296e+01   6.609508e+00
   2.676782e+01   4.770533e+01
  -4.269592e+01   1.625382e+02
  -1.402645e+02   1.331094e+02
  -1.671693e+02   3.906336e+01
  -1.073510e+02  -8.426873e+01
  -1.191817e+01  -1.401106e+02
   8.138229e+01  -3.751055e+01
   7.527041e+01   2.311762e+01
  -7.191545e+01   1.223141e+01
  -1.418995e+02  -4.498190e+01
  -5.337085e+01  -1.035586e+02
   8.170746e+01  -8.665370e+01
   1.726579e+02  -4.245533e+01
   1.698347e+02   3.042992e+01
   4.643224e+01   9.249232e+01
  -4.659867e+01   8.752191e+01
  -5.161848e+01   2.521382e+01
   8.470442e+01  -2.113750e+01
   7.495761e+01   3.702507e+01
   2.714213e+01   1.324774e+02
  -9.617195e+01   1.524518e+02
  -1.568295e+02   6.826149e+01
  -1.177600e+02  -8.495807e+01
  -3.503854e+01  -2.225479e+02
   7.759180e+01  -1.342727e+02
   8.793156e+01  -3.313763e+00
   7.193999e+01   9.119171e+01
  -1.096176e+01   1.026703e+02
  -5.903581e+01   1.810790e+01
  -6.363812e+01  -4.636575e+01
  -3.159821e+01  -5.291072e+01
   1.238853e+01   3.350605e+01
  -1.580533e+01   3.993568e+01
  -4.309907e+01  -8.262940e+01
  -3.575021e+01  -1.047840e+02
   3.036981e+01  -7.232309e+01
   1.423604e+02   3.805232e+01
   1.532534e+02   9.057310e+01
   2.205382e+01   4.703713e+01
  -1.019188e+02   1.341883e+01
  -9.652187e+01   8.129348e+00
  -1.900009e+01  -2.754681e+01
   4.320191e+01  -1.481489e+01
   2.186669e+01  -1.155184e+01
  -2.611134e+01  -9.546343e+00
   1.424723e+01   1.732987e+01
   9.638046e+01  -2.087633e+01
   1.055095e+02   3.023803e+01
  -4.023635e+00   1.003992e+02
  -1.357137e+02   1.114369e+02
  -1.838347e+02   3.968448e+01
  -1.474020e+02  -6.128242e+01
  -4.366585e+01  -1.470337e+02
   6.337740e+01  -1.487340e+02
   1.173283e+02  -5.972450e+01
   6.522367e+01   1.813283e+01
   4.989335e+01   3.637139e+01
   2.287404e+01   3.377333e+00
   3.841681e+01   4.080830e+00
   2.929028e+01   4.607179e+01
   3.294606e+01   7.790768e+01
  -2.529664e+01   6.070596e+01
  -9.998063e+01  -4.486177e+00
  -8.967358e+01  -9.404219e+01
  -8.721658e-01  -1.000456e+02
   9.919718e+01  -2.003157e+01
   1.024265e+02   7.715478e+01
   3.958682e+01   8.668734e+01
  -6.738143e+01   4.816901e+01
  -1.143346e+02  -2.809384e+01
  -2.179613e+01  -5.136617e+01
   4.211737e+01  -5.142468e+01
   2.773908e+01  -4.028604e+01
  -3.559157e+01   1.140176e+01
  -3.465482e+01  -1.857620e+00
  -1.873108e+01  -1.443916e+01
   7.948765e+01  -8.701165e+01
   9.306581e+01  -5.444551e+01
   5.669574e+01  -1.256874e+00
   2.416135e+01   6.247337e+01
  -3.133528e+01   7.119217e+01
  -3.433003e+01   1.521914e+01
   1.695130e+01  -5.788717e+01
   4.057744e+01  -9.047577e+00
   4.371455e+01   3.624563e+01
   3.999681e+01   5.095088e+01
   4.042125e+00   2.730424e+01
  -3.049970e+01   9.068327e-01
  -5.057563e+01  -4.195072e+00
  -2.916623e+01   6.180661e+00
   9.346416e+00   1.574532e+01
   9.057660e+00  -2.771155e+01
  -2.018250e+01  -1.373102e+01
   5.151733e+00  -4.768644e+01
   2.331737e+01  -2.310466e+00
   8.863976e+00   4.791603e+01
  -7.879024e+00   5.023700e+01
  -4.764297e+01   8.681490e+00
  -7.259511e+01  -4.551778e+01
  -1.868133e+01  -6.302608e+01
   7.064624e+01  -3.945735e+01
   1.027844e+02   1.148408e+01
   4.878236e+01   5.460876e+01
  -1.248039e+01   1.895432e+01
  -5.522487e+01   2.267473e+01
  -7.762709e+00   7.697823e+00
   3.961928e+01  -1.623405e+00
   3.386278e+01   2.877455e+01
  -5.167593e+01   3.373643e+01
  -8.890527e+01   4.063709e+01
