
 $NMID
 id='ANONYMOUS ', fmtdat='(2E16.6)'
 volume=1.0
 tramp=1.0
 $END
  -4.649347e+03  -2.091893e+02
  -2.552930e+03  -2.991648e+03
   1.124191e+03  -3.011392e+03
   2.260467e+03  -6.690567e+02
   9.202213e+02   8.520120e+02
  -7.512479e+02   6.318721e+02
  -9.640646e+02  -5.027454e+02
   4.642881e+01  -1.178444e+03
   9.270346e+02  -7.407077e+02
   1.015797e+03   1.971807e+02
   4.223746e+02   9.389687e+02
  -3.461469e+02   8.867996e+02
  -7.259406e+02   8.157716e+01
  -3.685540e+02  -8.171924e+02
   3.239810e+02  -8.100078e+02
   6.492873e+02  -1.228194e+01
   2.828186e+02   7.335410e+02
  -3.285569e+02   6.738936e+02
  -6.045093e+02   1.099384e+02
  -3.966295e+02  -3.791912e+02
  -8.643092e+00  -4.751879e+02
   2.743233e+02  -2.624789e+02
   2.874350e+02   2.968148e+01
  -1.015111e+02   1.619759e+02
  -5.147468e+02  -1.133797e+02
  -2.149479e+02  -4.725992e+02
   5.008510e+02  -4.992263e+02
   9.251974e+02   8.933500e+01
   4.876426e+02   5.840295e+02
  -4.791674e+02   5.500145e+02
  -8.236726e+02   9.901176e-01
  -3.780742e+02  -5.561819e+02
   3.126171e+02  -5.696521e+02
   5.959519e+02  -2.010312e+02
   4.381102e+02   2.812764e+02
   2.984826e+01   5.090780e+02
  -2.503169e+02   2.783556e+02
  -2.128435e+02  -2.450829e+02
   1.918490e+02  -4.673203e+02
   4.921252e+02   1.746866e+01
   2.893589e+02   7.431166e+02
  -3.555399e+02   7.673182e+02
  -6.683381e+02  -4.325130e+01
  -2.701314e+02  -5.679532e+02
   3.522239e+02  -3.636195e+02
   4.508045e+02   3.598752e+02
  -1.434956e+02   5.500965e+02
  -5.686533e+02   1.333588e+02
  -6.255311e+02  -4.098940e+02
  -1.621485e+02  -6.168896e+02
   4.188941e+02  -3.476774e+02
   6.221499e+02   8.661283e+01
   3.987048e+02   4.743694e+02
  -1.695978e+02   3.756018e+02
  -4.859535e+02   1.839515e+01
  -2.315385e+02  -2.510944e+02
   1.470806e+02  -1.448839e+02
   1.492631e+02   1.736762e+02
  -2.062478e+02   2.301761e+02
  -3.663438e+02  -6.551201e+01
  -1.262093e+02  -3.223241e+02
   2.191461e+02  -2.433839e+02
   3.191109e+02  -6.810705e+01
   1.799825e+02   7.740114e+01
  -4.162127e+01   2.344186e+02
  -2.272238e+02   3.462192e+02
  -3.582341e+02   2.203788e+02
  -2.984679e+02  -1.725979e+02
  -4.881570e+01  -4.813454e+02
   1.581994e+02  -3.824947e+02
   1.136787e+02  -7.845016e+01
   5.393430e-01   3.971914e+01
  -4.967443e+00  -8.031182e+01
   2.031164e+02  -1.387737e+02
   2.681472e+02   6.083637e+01
   1.489416e+02   2.682433e+02
  -8.139848e+01   2.679068e+02
  -2.538439e+02   7.295239e+00
  -2.139289e+02  -2.587477e+02
   6.026495e+00  -2.952530e+02
   2.813289e+02  -1.297764e+02
   4.075011e+02   1.871559e+02
   1.509065e+02   3.631258e+02
  -1.273893e+02   2.883014e+02
  -2.492418e+02   1.185347e+02
  -1.681126e+02  -1.279847e+01
  -8.914757e+01   3.231348e+01
  -2.423260e+02   3.476324e+01
  -3.796519e+02  -6.798859e+01
  -3.266073e+02  -3.209851e+02
   2.235410e+01  -4.420378e+02
   3.520773e+02  -4.400214e+02
   5.308984e+02  -1.770757e+02
   3.720394e+02   1.227082e+02
   6.788312e+01   3.000441e+02
  -1.681863e+02   2.430610e+02
  -9.699427e+01  -7.534394e+00
   1.204690e+02  -1.281581e+02
   2.184813e+02   3.528702e+00
   4.283215e+01   2.020445e+02
  -1.902527e+02   1.538046e+02
  -2.042266e+02  -8.179183e+01
   3.367148e+01  -1.896387e+02
   1.972898e+02  -2.482843e+01
   1.574826e+02   2.400699e+02
  -2.753101e+01   3.831705e+02
  -2.279942e+02   1.980045e+02
  -3.397875e+02  -7.102619e+01
  -2.914263e+02  -2.539770e+02
  -1.413159e+02  -2.632505e+02
   1.184386e+02  -1.536939e+02
   1.650370e+02  -2.176508e+01
   6.803720e+01   4.280999e+01
  -8.709872e+01  -4.611279e+01
  -5.569154e+01  -1.393427e+02
   1.408234e+02  -1.047250e+02
   2.111166e+02   5.090313e+00
   5.447943e+01   5.878921e+01
  -8.112907e+01   2.313490e+01
  -4.882518e+01  -5.303444e+01
   1.418257e+02  -8.536852e+01
   2.989386e+02   1.072825e+01
   2.987471e+02   1.438856e+02
   4.470432e+01   2.819756e+02
  -1.919437e+02   2.741940e+02
  -2.975345e+02   1.453198e+02
  -1.627915e+02  -4.922649e+01
   1.826452e+01  -1.402436e+02
   9.769527e+01   8.952272e+00
  -2.943402e+01   8.674447e+01
  -1.825595e+02   6.538240e+01
  -2.143140e+02  -9.235869e+01
  -8.865173e+01  -1.927703e+02
   7.878125e+01  -1.315570e+02
   1.406049e+02  -3.032679e+01
   4.147005e+01   7.057319e+01
  -3.299470e+01   3.295961e+01
  -4.855636e+01  -9.677388e+01
   7.298071e+01  -1.334492e+02
   2.015139e+02  -3.291369e+01
   2.008828e+02   1.499490e+02
   4.616129e+01   2.368317e+02
  -1.638588e+02   1.614709e+02
  -1.918645e+02   2.387184e+01
  -5.469891e+01  -1.364521e+02
   5.687214e+01  -1.098709e+02
   7.461473e+01  -2.534241e+01
   3.934519e+01   2.830521e+01
  -8.759011e+00   4.961934e+01
   2.900832e+01  -5.933887e+00
   6.702716e+01   3.816377e+00
   9.270732e+01   9.456702e+01
   2.325953e+01   1.631013e+02
  -1.256253e+02   1.289079e+02
  -2.563221e+02   1.643892e+01
  -1.957327e+02  -1.689930e+02
  -2.379727e+01  -2.433098e+02
   1.239627e+02  -1.427938e+02
   1.378292e+02  -2.194314e+01
   5.927393e+01   8.666504e+01
   2.426233e+01   5.122026e+01
   4.281151e+01   9.061259e+00
   6.438769e+01  -2.029909e+01
   3.646633e+01   3.489998e+01
  -7.998951e+01   5.212082e+01
  -8.765956e+01   6.814985e+01
  -7.671529e+01  -1.080686e+01
   1.242946e+01  -1.215170e+02
   1.401091e+02  -8.909462e+01
   1.927738e+02   6.128047e+01
   1.220361e+02   2.147298e+02
  -1.152116e+02   2.375210e+02
  -2.841981e+02   1.126311e+02
  -2.481325e+02  -8.601409e+01
  -1.146708e+02  -1.931656e+02
   5.651503e+01  -1.385679e+02
   9.952349e+01  -6.509883e+01
   8.584268e+01  -2.500413e+01
   9.699997e+01  -7.189955e+01
   8.376681e+01  -8.210384e+01
   1.255881e+02   1.958093e+01
   1.377036e+02   1.703101e+02
   1.738661e+01   2.076596e+02
  -9.358150e+01   1.603556e+02
  -1.657351e+02  -2.237174e+01
  -1.244378e+02  -1.384869e+02
  -4.694111e+00  -1.620442e+02
   9.013168e+01  -8.075597e+01
   8.259352e+01  -4.306049e+00
   6.263925e+00   4.167952e+01
  -5.397171e+00   4.743519e+01
   6.320406e+01   3.858656e+01
   6.786228e+01   2.332183e+01
   3.504636e+01   5.154711e+01
  -6.503159e+01   1.499215e+01
  -1.383585e+02  -6.439269e+00
  -1.170967e+02  -2.203139e+01
  -4.923588e+01  -8.528041e+01
   1.190728e+02  -6.568881e+01
   1.465050e+02   8.180748e+00
   6.217144e+01   4.207181e+01
  -3.447069e+01   3.287739e+01
  -6.723315e+01  -4.382017e+01
  -4.404195e+00  -5.563283e+01
   6.661654e+01  -5.082013e+01
   4.886604e+01  -1.450064e+01
   3.379429e+01   5.074183e+01
   3.117501e+01   4.102812e+01
   5.673623e+01   2.372430e+01
   5.356022e+01   1.495665e+01
   3.357367e+01   7.999716e+01
  -2.788633e+01   1.708206e+02
  -9.566052e+01   1.329615e+02
  -1.716754e+02   2.938620e+01
  -1.190731e+02  -8.597317e+01
  -9.241393e+00  -1.231208e+02
   8.927320e+01  -5.862013e+01
   5.628359e+01   2.589073e+01
  -6.710961e+01   1.720078e+01
  -1.246346e+02  -2.598190e+01
  -6.474836e+01  -9.450008e+01
   7.100173e+01  -1.062046e+02
   2.008593e+02  -4.076834e+01
   1.445533e+02   4.092040e+01
   2.591740e+01   1.050860e+02
  -4.698519e+01   3.710999e+01
  -2.533188e+01   8.905140e-01
   3.413461e+01  -2.336943e+01
   8.577043e+01   1.245874e+01
   4.602899e+01   1.032798e+02
  -7.296704e+01   1.490875e+02
  -1.736488e+02   3.272706e+01
  -1.385975e+02  -8.859772e+01
  -4.570446e+00  -1.733629e+02
   9.927197e+01  -1.846514e+02
   1.019197e+02   1.260786e+01
   5.236961e+01   1.316001e+02
  -2.694621e+00   1.132141e+02
  -3.824322e+01   2.874798e+01
  -5.302801e+01  -4.856540e+01
   1.146497e+01  -1.600918e+01
   1.191631e+01  -5.741312e+00
  -3.311022e+01  -3.582570e+01
  -7.697551e+01  -7.651856e+01
  -4.333258e+01  -1.201680e+02
   1.188689e+01  -2.848687e+01
   1.453565e+02   2.498770e+01
   1.339574e+02   7.919266e+01
   3.300442e+01   7.095269e+01
  -7.991126e+01   5.288625e+00
  -8.991980e+01  -6.643428e-01
  -2.897492e+01  -1.933062e+01
   4.621466e+01  -3.119178e+01
   1.642907e+01  -4.100188e+01
  -5.759007e+00   1.086838e+01
   2.497880e+01   1.252240e+01
   6.247026e+01   2.595486e+01
   8.452252e+01   2.487598e+01
  -1.387561e+01   9.228282e+01
  -1.027254e+02   1.111414e+02
  -1.831624e+02   4.017785e+01
  -1.630638e+02  -6.862153e+01
  -3.118429e+01  -1.608932e+02
   6.731714e+01  -1.476728e+02
   1.201344e+02  -5.756939e+01
   8.970816e+01   4.383818e+01
   2.087308e+01   5.023370e+01
   2.824118e+00   9.242653e+00
   4.112078e+00  -3.073800e+01
   2.739787e+01   5.022484e+01
   1.812104e+01   9.875023e+01
  -1.549505e+01   9.460350e+01
  -7.470929e+01  -5.718073e+01
  -5.948856e+01  -1.035401e+02
   6.107812e+00  -7.443371e+01
   8.359203e+01  -8.716801e+00
   1.027482e+02   1.068727e+02
   1.428549e+01   1.012010e+02
  -9.025932e+01   6.895126e+01
  -1.187123e+02   3.529784e+00
  -3.465575e+01  -6.695339e+01
   4.581089e+01  -4.703287e+01
   4.076070e+01  -3.828173e+01
  -4.831734e+01  -2.135896e+00
  -7.671878e+01  -1.452582e+01
  -4.042354e+01  -1.109039e+01
   7.018408e+01  -8.259297e+01
   1.080494e+02  -2.705182e+01
   5.910034e+01   8.929512e+00
  -1.732011e+01   9.881463e+01
  -5.618660e+01   8.672043e+01
  -4.151530e+01  -1.951366e+01
  -5.345254e+00  -7.121603e+01
   2.086175e+01  -4.287744e+01
   6.411625e+01   1.804793e+01
  -3.488624e+00   6.046317e+01
  -1.546119e+01   3.791437e+01
  -2.728556e+01  -5.675451e+00
  -1.901144e+01  -3.950455e+01
  -7.010205e+00  -2.509009e+01
   7.712001e+00  -1.385718e+01
   1.920607e+01  -1.154538e+01
  -1.288764e+01  -3.211063e+01
  -1.281810e+01  -4.312560e+01
   2.087585e+01   7.049173e+00
   4.250129e+01   3.185317e+01
  -2.084546e+01   5.443099e+01
  -5.079354e+01  -4.402948e+00
  -8.784119e+01  -4.102218e+01
  -1.815523e+01  -6.262426e+01
   7.137850e+01  -3.250699e+01
   7.876322e+01   2.863369e+01
   4.600910e+01   6.799984e+01
  -3.229827e+01   4.241768e+01
  -5.318613e+01   1.449412e+01
  -2.995111e+01  -1.059604e+01
   3.067231e+01  -7.295334e+00
   2.367642e+01   2.418408e+01
  -4.385062e+01   3.009991e+01
  -9.369777e+01   4.070136e+01
