
 $NMID
 id='ANONYMOUS ', fmtdat='(2E16.6)'
 volume=1.0
 tramp=1.0
 $END
  -4.980888e+03   1.164026e+02
  -2.731414e+03  -3.113643e+03
   1.029835e+03  -3.082096e+03
   2.467937e+03  -7.768525e+02
   9.284399e+02   9.081466e+02
  -9.311805e+02   6.346424e+02
  -1.068207e+03  -5.793978e+02
   1.260344e+01  -1.272352e+03
   1.001715e+03  -8.715636e+02
   1.045703e+03   1.697571e+02
   4.716145e+02   1.028085e+03
  -3.330933e+02   9.452870e+02
  -7.751202e+02   8.058457e+01
  -4.036440e+02  -8.589993e+02
   3.567048e+02  -8.383464e+02
   7.084728e+02   2.525650e+01
   2.924291e+02   7.731697e+02
  -3.468759e+02   6.780222e+02
  -6.707072e+02   2.750305e+01
  -3.839057e+02  -4.180896e+02
   2.623077e+01  -4.938505e+02
   3.071701e+02  -2.630617e+02
   2.648133e+02   3.081778e+01
  -9.366603e+01   1.362684e+02
  -4.578557e+02  -7.360970e+01
  -2.731390e+02  -5.078116e+02
   4.581677e+02  -5.293614e+02
   9.805630e+02   6.036706e+01
   5.274822e+02   6.457525e+02
  -4.621984e+02   5.547962e+02
  -8.458002e+02  -2.115303e+01
  -4.093784e+02  -5.807651e+02
   3.050213e+02  -5.910438e+02
   6.528889e+02  -1.728957e+02
   4.358467e+02   2.944319e+02
   5.798937e+01   5.600851e+02
  -3.112004e+02   3.158527e+02
  -2.421140e+02  -2.966100e+02
   1.993608e+02  -5.249257e+02
   5.722421e+02  -1.792763e+01
   3.362012e+02   7.372229e+02
  -3.411048e+02   8.566233e+02
  -6.695413e+02   4.602442e+00
  -3.005095e+02  -6.079873e+02
   3.145250e+02  -3.650405e+02
   4.304603e+02   3.189051e+02
  -7.135868e+01   6.151763e+02
  -5.802635e+02   1.851124e+02
  -6.200206e+02  -4.381623e+02
  -1.617762e+02  -6.557588e+02
   4.444924e+02  -3.622616e+02
   6.743009e+02   1.097179e+02
   4.089186e+02   4.770513e+02
  -1.999996e+02   3.869506e+02
  -5.018561e+02   3.455796e+01
  -2.711972e+02  -2.308500e+02
   1.718401e+02  -1.677383e+02
   1.545369e+02   2.052611e+02
  -1.750023e+02   2.030986e+02
  -3.665794e+02  -6.557987e+01
  -8.594590e+01  -3.145242e+02
   2.172108e+02  -2.339613e+02
   3.250474e+02  -4.507014e+01
   2.014565e+02   1.045288e+02
  -1.415096e+01   1.955613e+02
  -1.983531e+02   3.202478e+02
  -3.415656e+02   2.293960e+02
  -2.995687e+02  -1.334363e+02
  -9.415620e+01  -4.841326e+02
   1.403323e+02  -4.280559e+02
   1.703170e+02  -8.167949e+01
  -4.257542e+00   5.294647e+01
  -9.064705e+00  -7.922481e+01
   1.592100e+02  -1.621017e+02
   2.891629e+02   2.687530e+01
   1.730708e+02   2.785432e+02
  -7.367066e+01   2.832679e+02
  -2.644814e+02   1.605348e+01
  -2.292620e+02  -2.566053e+02
   7.541789e+00  -3.164382e+02
   2.783933e+02  -1.464466e+02
   3.791595e+02   1.682396e+02
   2.029390e+02   4.016493e+02
  -1.391496e+02   3.281857e+02
  -2.722031e+02   9.742446e+01
  -1.688271e+02  -3.443741e+01
  -1.104881e+02   5.258341e+01
  -2.171754e+02   8.211496e+01
  -3.859715e+02  -3.687389e+01
  -3.528095e+02  -2.985590e+02
   1.074374e-01  -4.661483e+02
   3.377370e+02  -4.429791e+02
   5.293052e+02  -1.831346e+02
   3.804485e+02   1.317210e+02
   5.538820e+01   3.055300e+02
  -1.761470e+02   2.538397e+02
  -1.105011e+02   3.165968e+01
   1.156832e+02  -1.467465e+02
   2.464032e+02   3.404750e+00
   8.366178e+01   2.258042e+02
  -1.602419e+02   1.888110e+02
  -2.287981e+02  -7.987322e+01
   1.673596e+01  -2.225915e+02
   2.128129e+02  -5.336602e+01
   1.892054e+02   2.504315e+02
  -2.066857e+01   3.722011e+02
  -2.382330e+02   2.147341e+02
  -3.263574e+02  -3.892526e+01
  -3.020415e+02  -2.257453e+02
  -1.070874e+02  -2.782463e+02
   1.087529e+02  -1.783977e+02
   1.873867e+02  -5.549652e+01
   1.086360e+02   2.635776e+01
  -9.119194e+01  -5.998791e+01
  -4.003293e+01  -1.246490e+02
   1.315850e+02  -1.183701e+02
   2.016713e+02   1.690616e+00
   6.729203e+01   5.560732e+01
  -7.666373e+01   5.170217e+01
  -8.112373e+01  -8.667594e+01
   1.174943e+02  -6.693875e+01
   2.583646e+02   5.566024e+00
   3.016272e+02   1.276792e+02
   1.009165e+02   2.806102e+02
  -1.648830e+02   2.869366e+02
  -2.980812e+02   1.348413e+02
  -2.185408e+02  -3.664943e+01
  -7.284968e+00  -1.322415e+02
   1.061774e+02   3.018187e+00
  -1.520024e+01   1.212325e+02
  -1.709893e+02   7.348267e+01
  -2.229751e+02  -6.765606e+01
  -9.202512e+01  -2.228834e+02
   1.037690e+02  -1.571879e+02
   1.489979e+02  -5.091977e+01
   1.125609e+02   4.250121e+01
  -1.516156e+01   2.436364e+01
  -3.334389e+01  -6.747479e+01
   4.759589e+01  -1.206115e+02
   1.680614e+02  -4.817687e+01
   1.964143e+02   1.256249e+02
   2.830557e+01   2.207014e+02
  -1.615441e+02   1.750234e+02
  -1.946916e+02   1.835226e+01
  -6.790258e+01  -1.297118e+02
   6.551084e+01  -1.278594e+02
   7.566738e+01  -7.079307e+00
   9.644889e+00   1.163435e+01
  -1.159197e+01   9.328785e-01
  -9.389275e+00  -5.211694e+00
   6.503046e+01   2.821897e+00
   8.126041e+01   7.609960e+01
   2.461421e+00   1.378781e+02
  -1.121273e+02   1.485116e+02
  -2.352508e+02   2.567488e+01
  -1.876255e+02  -1.566433e+02
  -5.325426e+01  -2.299387e+02
   1.112447e+02  -1.693515e+02
   1.433019e+02  -1.338225e+01
   7.497371e+01   8.080551e+01
   3.076394e+01   5.595375e+01
   2.093656e+01  -1.131454e+01
   6.921939e+01  -7.277339e+00
   3.632566e+01   2.972063e+01
  -5.924227e+01   7.910077e+01
  -8.404407e+01   5.052633e+01
  -9.890389e+01  -6.212584e+01
   1.103339e+01  -1.250380e+02
   1.216960e+02  -8.425578e+01
   1.794749e+02   4.810845e+01
   1.220713e+02   1.813816e+02
  -9.454123e+01   2.623311e+02
  -2.724946e+02   1.094180e+02
  -2.826018e+02  -5.225787e+01
  -1.265704e+02  -1.764697e+02
   3.497341e+01  -1.820973e+02
   1.041044e+02  -9.426079e+01
   1.092411e+02  -3.947933e+01
   8.538660e+01  -6.790544e+01
   9.205581e+01  -9.360841e+01
   1.247859e+02   2.285818e+01
   1.368786e+02   1.376364e+02
   1.331838e+01   1.982238e+02
  -1.021850e+02   1.669003e+02
  -1.696983e+02   9.929859e+00
  -1.217137e+02  -1.184240e+02
  -1.219234e+01  -1.856713e+02
   6.780959e+01  -7.596923e+01
   7.884734e+01   1.079895e+00
   1.216335e+01   6.984184e+01
   1.546123e+01   2.966457e+01
   2.528286e+01   2.149748e+01
   4.120135e+01   3.430288e+01
   4.591716e+01   5.745499e+01
  -5.683664e+01   6.332560e+01
  -1.427905e+02   7.407468e+00
  -1.476566e+02  -3.488559e+01
  -2.598369e+01  -8.780856e+01
   1.049244e+02  -6.853474e+01
   1.302300e+02  -2.711553e+01
   7.091094e+01   4.557452e+01
  -7.110723e+01   2.343611e+01
  -5.316531e+01  -5.227258e+00
  -6.169838e-01  -3.481702e+01
   3.753484e+01  -7.978649e+01
   4.902288e+01   3.358144e+01
   5.162232e+01   5.103310e+01
   6.070304e+01   2.383887e+01
   6.364775e+01   3.113938e-01
   6.755084e+01   2.972732e+00
   4.722927e+01   5.471441e+01
  -1.285764e+01   1.610122e+02
  -1.227899e+02   1.349755e+02
  -1.817834e+02   2.213832e+01
  -1.064104e+02  -8.921211e+01
  -1.657469e+01  -9.604984e+01
   7.690779e+01  -3.959784e+01
   3.140355e+01   2.123339e+01
  -6.095487e+01  -1.284540e+00
  -1.226636e+02  -5.078644e+01
  -9.058878e+01  -1.033730e+02
   8.425303e+01  -9.283035e+01
   1.706098e+02  -2.415049e+01
   1.554714e+02   4.612248e+01
   4.407206e+01   8.215486e+01
  -5.017083e+01   4.939963e+01
  -5.302000e+01   4.516652e+00
   2.834759e+01  -2.692543e+01
   1.067813e+02   3.264821e+01
   3.822258e+01   1.047318e+02
  -9.675374e+01   1.479498e+02
  -1.523168e+02   4.777542e+01
  -1.268242e+02  -1.023094e+02
   6.810691e+00  -1.782776e+02
   9.006414e+01  -1.373868e+02
   8.379231e+01   2.674842e+01
   8.506908e+01   1.088766e+02
   1.455172e+01   8.061123e+01
  -3.753263e+01  -6.245247e+00
  -6.657328e+01  -2.140348e+01
  -3.343466e+01  -2.666084e+01
  -1.657713e+01   1.528518e+01
  -2.704887e+01   3.229594e+00
  -5.323914e+01  -8.060927e+01
  -5.121736e+01  -1.152245e+02
   5.149662e+01  -5.408389e+01
   1.278865e+02   4.898304e+01
   1.388660e+02   9.035055e+01
  -9.477653e-01   7.105202e+01
  -8.296840e+01   3.399310e+01
  -8.050572e+01   6.217140e+00
   5.829311e-01  -4.591560e+01
   9.905071e+00  -3.359088e+01
   1.660008e+01  -3.848611e+01
  -4.990175e+01  -1.945532e+01
   1.578449e+01  -1.063973e+00
   9.602663e+01   3.201351e+00
   1.036479e+02   6.023886e+01
   6.033049e+00   8.537976e+01
  -1.369146e+02   1.090640e+02
  -1.856489e+02   5.665389e+01
  -1.656454e+02  -6.255260e+01
  -1.765583e+01  -1.669506e+02
   6.184677e+01  -1.484102e+02
   1.256868e+02  -5.650928e+01
   1.031039e+02   2.497214e+01
   2.363567e+01   4.315315e+01
  -3.058946e+01   3.489216e+01
  -4.503914e-01   1.794846e+00
   8.107448e+00   3.953462e+01
   3.085600e+01   1.029106e+02
  -3.345064e+01   9.798840e+01
  -8.725185e+01  -2.973580e+01
  -7.557831e+01  -1.051212e+02
   1.466451e+01  -1.039970e+02
   1.020248e+02  -3.782592e+01
   9.019584e+01   7.151350e+01
   6.033506e+01   1.292302e+02
  -7.950170e+01   5.360846e+01
  -9.044304e+01  -2.086529e+00
  -2.191722e+01  -3.608884e+01
   4.467797e+01  -5.185255e+01
   9.246096e+00  -3.929173e+01
  -3.294009e+01   2.214404e+01
  -6.872736e+01   7.119747e+00
  -8.974788e+00  -1.496670e+01
   8.723341e+01  -7.641307e+01
   1.312981e+02  -5.736419e+01
   7.740473e+01  -2.316344e+00
  -3.136475e+01   9.594438e+01
  -6.730423e+01   1.131580e+02
  -1.128617e+01  -6.988802e+00
   1.172844e-01  -7.266209e+01
   1.802728e+01  -3.666871e+01
   4.364830e+01  -3.136923e+00
   5.303104e+01   1.017693e+02
  -2.646636e+01   2.678424e+01
  -1.925800e+01  -5.925607e+00
  -4.172780e+01  -3.781377e+01
  -1.833802e+01  -1.825068e+00
   7.477920e+00   1.140276e+01
   2.036394e+01  -1.797731e+01
   1.050158e+01  -4.361375e+01
   5.089085e+01  -2.347668e+01
   3.927890e+01   5.854754e+00
   4.980082e+00   4.463225e+01
  -3.332516e+01   3.708777e+01
  -4.984272e+01   2.633908e+01
  -6.340172e+01  -4.606785e+01
  -4.563312e+01  -7.507537e+01
   7.674704e+01  -2.601141e+01
   1.050502e+02   1.158926e+01
   5.431400e+01   3.217016e+01
  -1.180748e+01   6.913244e+01
  -7.068521e+01  -6.742031e+00
  -5.930656e+01   2.577729e+00
   3.131761e+01  -4.469735e+00
   2.613729e+01   2.286044e+01
  -6.175215e+01   3.049405e+01
  -1.130705e+02   5.551884e+00
