
 $NMID
 id='ANONYMOUS ', fmtdat='(2E16.6)'
 volume=1.0
 tramp=1.0
 $END
  -4.673035e+03   2.281460e+02
  -2.749738e+03  -2.767505e+03
   9.037166e+02  -2.879575e+03
   2.241192e+03  -7.532091e+02
   8.676570e+02   8.311106e+02
  -8.439407e+02   5.737744e+02
  -9.900908e+02  -5.214389e+02
   6.723209e+01  -1.196238e+03
   8.931624e+02  -8.292156e+02
   9.915174e+02   1.673957e+02
   4.967916e+02   9.096614e+02
  -3.018392e+02   9.251891e+02
  -7.260406e+02   1.411785e+02
  -4.278673e+02  -7.659738e+02
   2.937258e+02  -8.245072e+02
   6.686785e+02   6.955508e+00
   2.922105e+02   6.990538e+02
  -3.104785e+02   6.531013e+02
  -6.148285e+02   9.020197e+01
  -3.575890e+02  -3.317521e+02
   1.681522e+00  -3.999567e+02
   2.923673e+02  -2.505685e+02
   2.365883e+02   1.221478e+01
  -1.226826e+02   1.539391e+02
  -4.653901e+02  -5.317839e+01
  -2.566310e+02  -4.444208e+02
   4.629601e+02  -4.654113e+02
   9.193371e+02   5.603262e+01
   4.571678e+02   5.995705e+02
  -4.080592e+02   5.653046e+02
  -7.784782e+02  -3.143846e+01
  -3.904361e+02  -5.157210e+02
   2.624433e+02  -5.478171e+02
   5.999444e+02  -1.950013e+02
   4.385432e+02   2.554533e+02
   6.284139e+01   5.153810e+02
  -2.444772e+02   2.940709e+02
  -2.435095e+02  -2.584268e+02
   1.763215e+02  -4.561087e+02
   5.070532e+02  -2.596249e+00
   2.910665e+02   7.214139e+02
  -3.335136e+02   7.772266e+02
  -6.359485e+02   4.543475e+01
  -2.779828e+02  -6.038595e+02
   3.043358e+02  -3.337714e+02
   4.147768e+02   3.109841e+02
  -3.165027e+01   5.638813e+02
  -5.586492e+02   1.334005e+02
  -5.622622e+02  -4.067686e+02
  -1.705589e+02  -6.073742e+02
   4.087664e+02  -3.677102e+02
   6.604637e+02   5.718453e+01
   4.056515e+02   3.610373e+02
  -1.812638e+02   3.824800e+02
  -4.915221e+02   4.938038e+01
  -2.371019e+02  -2.273700e+02
   1.784377e+02  -1.378603e+02
   1.547493e+02   1.944175e+02
  -1.566584e+02   1.605008e+02
  -3.550032e+02  -5.476491e+01
  -1.474909e+02  -3.026231e+02
   2.304251e+02  -2.684045e+02
   3.174312e+02  -6.332024e+01
   1.789305e+02   7.387775e+01
  -1.477112e+00   2.059645e+02
  -2.161109e+02   3.122732e+02
  -3.294432e+02   2.183003e+02
  -2.883752e+02  -9.258450e+01
  -1.044758e+02  -4.772878e+02
   1.503899e+02  -4.024347e+02
   1.260866e+02  -9.662467e+01
   5.877960e+01   3.542028e+01
   4.012822e+01  -7.367911e+01
   1.586770e+02  -1.370868e+02
   2.712446e+02   1.754689e+01
   1.719981e+02   2.914204e+02
  -7.670530e+01   2.572259e+02
  -2.426695e+02   1.230371e+01
  -2.204884e+02  -2.302427e+02
  -5.133634e+00  -2.869250e+02
   2.691367e+02  -1.299048e+02
   3.567737e+02   1.604597e+02
   2.192881e+02   3.489756e+02
  -1.235634e+02   3.263877e+02
  -2.224134e+02   1.313909e+02
  -1.472355e+02  -1.279577e+01
  -1.049019e+02   4.465932e+01
  -2.365360e+02   8.147360e+01
  -3.926261e+02  -5.969424e+01
  -2.832645e+02  -2.992410e+02
  -1.814568e+01  -4.280946e+02
   3.316249e+02  -4.345442e+02
   4.881632e+02  -2.132887e+02
   3.232966e+02   7.937172e+01
   6.966137e+01   2.865589e+02
  -1.246682e+02   2.666210e+02
  -9.422423e+01   1.885496e+01
   9.700914e+01  -1.012310e+02
   2.009567e+02   7.009524e+00
   2.418141e+01   1.699288e+02
  -1.842234e+02   1.696509e+02
  -2.005310e+02  -7.876472e+01
  -8.593294e+00  -1.933377e+02
   2.092130e+02  -5.056061e+01
   1.384209e+02   2.254067e+02
  -9.608223e+00   3.348111e+02
  -1.992891e+02   1.846187e+02
  -3.074098e+02  -1.912518e+01
  -2.674247e+02  -2.044129e+02
  -1.110448e+02  -2.595838e+02
   1.215527e+02  -1.920280e+02
   1.770253e+02  -2.846149e+01
   5.330323e+01   5.182991e+01
  -8.574308e+01  -4.013699e+01
  -4.320373e+01  -1.171326e+02
   1.391291e+02  -9.696771e+01
   1.779006e+02   1.109555e+01
   6.128625e+01   7.310019e+01
  -6.371922e+01   2.376212e+01
  -5.130359e+01  -7.938641e+01
   1.145068e+02  -5.759011e+01
   2.860757e+02  -1.087939e+01
   2.328040e+02   1.118912e+02
   8.164315e+01   2.489904e+02
  -1.266630e+02   2.586800e+02
  -2.827434e+02   1.392871e+02
  -1.745462e+02  -5.826009e+01
   2.497420e+01  -1.126507e+02
   9.763577e+01  -3.903603e+00
  -1.109107e+01   9.107823e+01
  -1.533579e+02   5.792990e+01
  -1.994845e+02  -8.948652e+01
  -7.986204e+01  -1.794272e+02
   6.205713e+01  -1.574379e+02
   1.069783e+02  -6.514703e+01
   8.540400e+01  -4.994554e+00
  -6.772508e+00   3.199684e+01
  -4.782655e+01  -9.013423e+01
   3.868660e+01  -1.117631e+02
   1.511571e+02  -2.120925e+01
   1.897690e+02   8.509530e+01
   3.852977e+01   2.335145e+02
  -1.418470e+02   1.636552e+02
  -2.216714e+02  -8.331815e+00
  -7.237600e+01  -1.167292e+02
   5.511725e+01  -1.206944e+02
   1.058913e+02  -2.401537e+01
   1.853725e+01   3.471507e+01
  -8.273214e+00  -2.667938e-01
   2.673903e+01   1.004448e+01
   7.532397e+01  -2.495319e+01
   8.468338e+01   6.934821e+01
   2.260052e+01   1.801259e+02
  -1.065084e+02   1.679620e+02
  -2.018148e+02   1.575428e+01
  -2.031299e+02  -1.177889e+02
  -6.837840e+01  -2.502785e+02
   1.098953e+02  -1.616509e+02
   9.997692e+01  -3.370865e+01
   3.244779e+01   4.088250e+01
   5.296478e+01   2.254297e+01
   5.227300e+01  -4.916879e+00
   8.035379e+01  -6.112610e+00
   2.986218e+01   2.197293e+01
  -2.247273e+01   6.604328e+01
  -8.788624e+01   6.234397e+01
  -7.990527e+01  -5.878691e+01
   2.014683e+01  -9.844630e+01
   1.270910e+02  -6.627435e+01
   1.730526e+02   1.920184e+01
   1.119087e+02   1.789426e+02
  -6.729418e+01   2.450712e+02
  -2.665764e+02   1.280684e+02
  -2.606831e+02  -8.217183e+01
  -9.840786e+01  -1.768314e+02
   3.325485e+01  -1.459648e+02
   1.047799e+02  -6.429437e+01
   8.600774e+01  -7.163651e+01
   5.796450e+01  -8.820393e+01
   5.594804e+01  -6.284254e+01
   1.220283e+02   3.319118e+01
   9.773224e+01   1.286704e+02
   3.197191e+01   2.187734e+02
  -9.037315e+01   1.503683e+02
  -1.489497e+02   4.202884e+01
  -1.496869e+02  -9.246142e+01
  -4.350757e+01  -1.512559e+02
   8.013857e+01  -9.838003e+01
   4.294637e+01  -3.001104e+01
  -1.122654e+01   2.596763e+01
   6.721318e+00   2.642703e+01
   2.960044e+01   2.332093e+00
   4.006571e+01   9.425097e+00
   5.577117e+01   6.916461e+01
  -4.395075e+01   3.117443e+01
  -1.587380e+02   2.711051e+01
  -1.326767e+02  -3.694508e+01
  -2.097649e+01  -7.246391e+01
   1.251064e+02  -8.107889e+01
   1.266898e+02  -3.907722e+01
   5.837385e+01   4.916300e+01
  -5.489863e+01   1.496892e+01
  -6.585039e+01  -2.755959e+01
   8.179917e+00  -7.685504e+01
   4.811237e+01  -2.578189e+01
   6.958590e+01   5.747104e+00
   4.070345e+01   4.453648e+01
   7.127844e+01   8.744882e+00
   4.338792e+01   6.932266e+00
   8.614622e+01  -1.184468e+00
   1.308366e+01   7.974571e+01
  -4.070158e+01   1.396800e+02
  -1.001504e+02   1.462135e+02
  -1.632779e+02   3.866034e+01
  -8.813668e+01  -8.202348e+01
  -1.205597e+01  -1.386048e+02
   6.833650e+01  -6.198028e+01
   8.129298e+01   2.718192e+01
  -2.201694e+01   1.394627e+01
  -1.387529e+02  -6.856187e+01
  -9.984306e+01  -1.212322e+02
   9.422169e+01  -1.001801e+02
   1.723307e+02  -5.390713e+01
   1.740130e+02   1.520294e+01
   6.135955e+01   1.060411e+02
  -5.237088e+01   5.729863e+01
  -4.738341e+01   3.883171e+00
   4.243356e+01  -3.750830e+01
   1.198149e+02   2.343716e+00
   4.378064e+01   1.076300e+02
  -5.736947e+01   1.323284e+02
  -1.515445e+02   6.187574e+01
  -1.288517e+02  -8.581089e+01
  -1.579801e+01  -1.979079e+02
   9.320730e+01  -1.173326e+02
   9.247579e+01  -7.015516e+00
   7.021940e+01   7.994395e+01
   4.555373e+00   1.183612e+02
  -4.477379e+01   3.980042e+01
  -3.222341e+01  -3.060099e+01
  -2.531754e+01   7.483968e+00
  -2.727181e+00   3.552206e+01
  -2.477181e+01  -2.226879e+01
  -7.005710e+01  -7.756612e+01
  -3.818123e+01  -1.252397e+02
   6.960462e+01  -5.207246e+01
   1.145678e+02   2.930782e+01
   1.302879e+02   8.014652e+01
   1.505073e+01   4.046916e+01
  -9.826598e+01   2.277909e+01
  -9.099163e+01   2.111315e+01
  -2.719130e+01  -2.448922e+01
   4.204128e+01  -3.141075e+01
   9.180031e+00  -1.052212e+01
  -2.175486e+01  -2.147076e+01
   1.220594e+01   2.830516e+01
   4.714005e+01  -1.070307e+01
   6.135069e+01   4.077210e+01
  -3.522247e+00   5.072877e+01
  -1.107771e+02   8.790861e+01
  -1.738935e+02   4.647154e+01
  -1.450771e+02  -6.903080e+01
  -3.130484e+01  -1.565792e+02
   6.568550e+01  -1.650857e+02
   1.030443e+02  -7.890421e+01
   1.024750e+02   2.499664e+01
   1.641465e+01   3.365380e+01
  -3.713033e+00   2.634030e+00
   2.812315e+01  -9.490358e+00
   2.123692e+01   4.408507e+01
   4.260880e+01   8.525529e+01
  -9.698067e+00   6.855835e+01
  -6.798592e+01  -1.614081e+01
  -7.893623e+01  -9.832896e+01
   9.657768e-03  -1.138914e+02
   7.091724e+01  -5.072262e+01
   1.081307e+02   6.817331e+01
   4.036239e+01   8.492053e+01
  -7.680551e+01   4.747062e+01
  -8.488304e+01   6.391499e+00
  -3.204529e+01  -6.922833e+01
   4.856932e+01  -7.260534e+01
   7.239703e+00  -4.526856e+00
  -3.117932e+01   8.505832e+00
  -5.259461e+01   1.550622e+01
   7.876742e+00  -3.742971e+01
   7.131276e+01  -4.577016e+01
   9.387229e+01  -6.443224e+01
   5.582130e+01   4.190889e+00
  -4.121167e+01   7.339732e+01
  -6.135389e+01   6.347945e+01
  -2.767448e+01  -3.081766e+00
   3.143902e+00  -4.540252e+01
   9.474730e+00  -2.909263e+01
   4.543126e+01   3.943160e+01
   4.165288e+01   5.078632e+01
  -1.107178e+01   5.530105e+01
  -3.284100e+01   4.030529e+00
  -3.308121e+01  -2.665098e+01
   6.308922e+00  -5.236700e-01
  -8.228830e+00   1.645349e+01
   2.192286e+01   8.894403e+00
   9.818429e+00  -5.126992e+01
   1.432169e+01  -7.413197e+01
   4.439232e+01  -3.968604e+00
   1.640583e+01   4.447273e+01
  -2.950706e+01   4.033020e+01
  -4.270426e+01   1.840496e+01
  -3.529829e+01  -6.643226e+01
  -3.660569e-01  -4.837064e+01
   7.164621e+01  -4.759040e+01
   9.521329e+01   1.200486e+01
   6.554697e+01   3.887648e+01
  -1.907165e+01   3.508654e+01
  -7.157484e+01   8.183917e+00
   1.287832e+01   2.299581e+01
   2.469785e+01   1.440014e+01
   2.334305e+01   3.219249e+01
  -5.004400e+01   8.842569e+00
  -1.090499e+02   2.060694e+01
