
 $NMID
 id='ANONYMOUS ', fmtdat='(2E16.6)'
 volume=1.0
 tramp=1.0
 $END
  -4.588371e+03   1.046376e+02
  -2.648248e+03  -2.723868e+03
   9.755385e+02  -2.834149e+03
   2.269323e+03  -9.139667e+02
   9.108209e+02   8.322570e+02
  -7.816801e+02   6.784680e+02
  -1.038985e+03  -4.925550e+02
   1.504772e+01  -1.185166e+03
   9.915267e+02  -8.812761e+02
   1.027983e+03   1.537061e+02
   4.626027e+02   9.961825e+02
  -3.504040e+02   9.588780e+02
  -7.701674e+02   8.266282e+01
  -4.162791e+02  -8.024968e+02
   3.135708e+02  -7.960865e+02
   6.706925e+02   5.438957e+01
   2.473952e+02   7.917292e+02
  -3.677905e+02   6.963655e+02
  -6.573057e+02   2.359425e+01
  -3.687979e+02  -4.208885e+02
   2.699947e+01  -4.634296e+02
   2.743385e+02  -2.400161e+02
   2.326782e+02  -1.697986e+00
  -9.569142e+01   1.618880e+02
  -4.554750e+02  -8.457154e+01
  -2.395402e+02  -4.388127e+02
   4.474290e+02  -4.511124e+02
   9.099305e+02   2.097965e+01
   4.675992e+02   5.771176e+02
  -4.083206e+02   5.480388e+02
  -7.691861e+02  -2.640265e+00
  -3.844128e+02  -5.334991e+02
   3.046103e+02  -5.328040e+02
   5.848928e+02  -1.949595e+02
   4.298133e+02   2.730040e+02
   5.056187e+01   5.135450e+02
  -2.397165e+02   2.954524e+02
  -2.391997e+02  -2.948151e+02
   1.869058e+02  -4.815026e+02
   4.802218e+02   2.922038e+00
   2.760254e+02   7.120016e+02
  -3.585764e+02   7.961918e+02
  -6.934824e+02   1.500008e+01
  -2.885146e+02  -6.583161e+02
   3.208776e+02  -4.014053e+02
   4.457784e+02   3.255621e+02
  -6.908909e+01   6.106624e+02
  -5.947171e+02   1.883106e+02
  -6.144865e+02  -3.772905e+02
  -1.583344e+02  -6.197501e+02
   4.261682e+02  -3.753180e+02
   6.813764e+02   6.953469e+01
   4.044820e+02   4.608600e+02
  -1.837840e+02   3.901042e+02
  -4.661342e+02   2.746626e+01
  -2.491523e+02  -2.489422e+02
   1.632999e+02  -1.571253e+02
   2.010824e+02   1.759812e+02
  -1.917435e+02   2.222764e+02
  -3.543837e+02  -8.427736e+01
  -1.792375e+02  -3.387673e+02
   2.412908e+02  -2.806134e+02
   3.304440e+02  -4.750468e+01
   2.018965e+02   1.099242e+02
  -3.904443e+01   2.144619e+02
  -2.119074e+02   2.874205e+02
  -3.236629e+02   2.395855e+02
  -3.001184e+02  -1.386932e+02
  -6.624535e+01  -4.106659e+02
   1.144025e+02  -4.017774e+02
   1.546288e+02  -1.114873e+02
   1.587000e+01   3.898658e+01
   3.572947e+01  -7.607568e+01
   1.798610e+02  -1.333574e+02
   2.915440e+02   2.244388e+01
   1.642120e+02   2.603249e+02
  -6.087025e+01   2.839475e+02
  -2.211286e+02   2.300304e+01
  -2.085926e+02  -2.445313e+02
   3.137292e+00  -3.195802e+02
   2.502769e+02  -1.204773e+02
   3.500618e+02   1.540041e+02
   2.109437e+02   4.029918e+02
  -1.000081e+02   3.010618e+02
  -2.681356e+02   1.370914e+02
  -1.365187e+02  -3.509878e+01
  -7.123406e+01   1.466822e+01
  -1.837040e+02   6.783514e+01
  -3.607867e+02  -8.301177e+01
  -3.303864e+02  -2.680538e+02
  -2.050708e+01  -4.531495e+02
   3.648486e+02  -4.224190e+02
   4.625164e+02  -2.083231e+02
   3.439469e+02   7.577294e+01
   3.465198e+01   3.073907e+02
  -1.108295e+02   2.377049e+02
  -1.301389e+02   5.105900e+01
   9.205635e+01  -1.632701e+02
   2.281337e+02  -7.512637e-01
   6.888844e+01   1.903534e+02
  -1.397843e+02   1.912523e+02
  -2.012837e+02  -4.608068e+01
  -1.196979e+01  -2.051814e+02
   1.936600e+02  -3.701529e+01
   1.575840e+02   2.259027e+02
  -1.041504e+01   3.533342e+02
  -2.388413e+02   1.859354e+02
  -3.145029e+02  -5.159186e+01
  -2.912574e+02  -2.153509e+02
  -1.083890e+02  -2.678494e+02
   1.064696e+02  -1.643728e+02
   2.044510e+02  -1.897282e+01
   7.122537e+01   4.013279e+01
  -6.923625e+01  -1.379756e+01
  -4.501541e+01  -1.142266e+02
   1.305717e+02  -1.107251e+02
   1.699758e+02   1.245532e+01
   6.421429e+01   5.926251e+01
  -7.035382e+01   3.938038e+01
  -5.781092e+01  -3.698903e+01
   1.046741e+02  -7.618100e+01
   2.793740e+02  -3.220768e+00
   2.423197e+02   1.275382e+02
   6.195570e+01   2.309357e+02
  -1.782742e+02   2.512868e+02
  -2.557321e+02   1.287296e+02
  -1.478451e+02  -6.891205e+01
   1.152071e+01  -1.440180e+02
   1.126904e+02  -1.333378e+01
  -3.089122e+01   1.276868e+02
  -1.702235e+02   7.023136e+01
  -2.193791e+02  -1.017824e+02
  -7.226100e+01  -2.108867e+02
   7.443630e+01  -1.235389e+02
   1.389914e+02  -4.619103e+01
   5.841809e+01   4.702366e+01
  -1.126816e+01   3.245281e+01
  -3.620517e+01  -9.221425e+01
   6.842074e+01  -1.122720e+02
   2.021910e+02  -3.827334e+01
   1.920829e+02   1.433221e+02
   1.574599e+01   2.017615e+02
  -1.557291e+02   1.581380e+02
  -1.958446e+02   1.710889e+01
  -6.691399e+01  -8.231709e+01
   2.669095e+01  -1.413393e+02
   1.091360e+02  -2.615540e+01
  -6.547794e+00   1.264497e+01
  -2.978895e+00   3.947088e+00
   5.089166e+00   1.126821e+01
   4.435152e+01  -6.532580e+00
   7.723114e+01   8.296311e+01
   6.250078e+01   1.630611e+02
  -1.025182e+02   1.875512e+02
  -2.638697e+02   3.060504e+01
  -1.902084e+02  -1.700193e+02
  -1.663587e+01  -2.301926e+02
   9.078861e+01  -1.858105e+02
   1.409150e+02  -1.290515e+01
   6.805557e+01   6.167431e+01
   4.946946e+01   5.743712e+01
   6.304143e+01   1.462700e+01
   7.926672e+01  -1.861000e+01
   2.700196e+01   4.109092e+01
  -5.949496e+01   1.099366e+02
  -1.069020e+02   6.664903e+01
  -7.557910e+01  -4.926994e+00
   2.477000e+00  -7.861216e+01
   1.009269e+02  -6.339338e+01
   1.703572e+02   3.837229e+01
   1.040137e+02   2.055946e+02
  -9.956998e+01   2.189292e+02
  -2.455158e+02   8.214594e+01
  -2.635435e+02  -1.050636e+02
  -1.121757e+02  -2.079381e+02
   7.769126e+01  -1.439933e+02
   8.979126e+01  -8.901153e+01
   6.640621e+01  -5.973128e+01
   7.309776e+01  -7.813257e+01
   8.091995e+01  -6.480709e+01
   1.217602e+02   1.932367e+01
   1.226375e+02   1.523483e+02
   2.866343e+01   2.384614e+02
  -1.088651e+02   1.635719e+02
  -1.891985e+02   1.383689e+01
  -1.515141e+02  -1.004109e+02
  -4.265253e+01  -1.682698e+02
   4.987654e+01  -9.832338e+01
   7.556230e+01  -4.033140e+00
  -1.409872e-02   5.827845e+01
  -1.373056e+01   5.014846e+01
   5.287101e+01   8.457192e+00
   7.394162e+01   1.094772e+01
   4.578077e+01   3.393619e+01
  -6.597408e+01   3.295528e+01
  -1.496525e+02   8.951082e+00
  -1.396450e+02  -2.944129e+01
  -3.689990e+01  -8.755144e+01
   1.082803e+02  -9.219425e+01
   1.614884e+02  -2.126104e+01
   1.544160e+01   6.429772e+01
  -6.102513e+01   3.860033e+01
  -6.469726e+01  -2.172583e+01
  -1.101693e+01  -7.066420e+01
   6.574414e+01  -6.983908e+01
   5.418673e+01   3.358156e+01
   3.490758e+01   5.973894e+01
   5.544978e+01   5.396126e+01
   4.809249e+01  -1.242097e+00
   4.908325e+01  -1.254570e+00
   4.304328e+01   3.672142e+01
  -1.227534e+01   1.500474e+02
  -1.351837e+02   1.535800e+02
  -1.616828e+02   4.292943e+01
  -1.188778e+02  -9.917679e+01
  -2.310146e+01  -1.113202e+02
   1.078239e+02  -5.175710e+01
   5.061262e+01   9.366866e+00
  -8.199184e+01   2.450497e+01
  -1.398165e+02  -3.510854e+01
  -3.945407e+01  -1.150096e+02
   9.808460e+01  -1.144028e+02
   1.712297e+02  -3.239846e+01
   1.483844e+02   2.747688e+01
   4.248474e+01   9.571973e+01
  -7.386305e+01   7.592587e+01
  -5.513368e+01   9.685038e+00
   4.856382e+01  -2.557520e+01
   9.146685e+01   4.915269e+01
   3.522130e+01   1.152559e+02
  -9.063565e+01   1.467003e+02
  -1.704621e+02   5.231334e+01
  -1.227243e+02  -8.759446e+01
  -1.405260e+01  -2.044794e+02
   6.849063e+01  -1.124229e+02
   1.137267e+02   4.929909e+00
   7.272304e+01   1.140786e+02
   7.033044e+00   1.126160e+02
  -6.794685e+01   4.197772e+01
  -7.865328e+01  -3.098456e+01
  -3.518559e+01  -2.670548e+01
   3.113800e+01   1.302392e+01
  -9.339712e+00  -2.068005e+01
  -5.681276e+01  -8.761069e+01
  -6.681020e+01  -1.058871e+02
   2.344116e+01  -4.171642e+01
   1.495488e+02   3.318771e+01
   1.453234e+02   7.755361e+01
   2.735342e+01   4.587412e+01
  -8.836719e+01   8.066577e+00
  -8.898787e+01   2.834255e+01
  -1.367543e+01  -1.839698e+00
   2.680540e+01  -2.960651e+01
   2.527263e+01   6.538472e+00
   2.337260e+01  -1.756457e+00
   9.293195e+00   1.635052e+00
   9.483994e+01   1.241104e+01
   9.721196e+01   1.463230e-01
   4.786020e+00   5.410613e+01
  -1.223766e+02   8.005942e+01
  -1.945497e+02   4.088984e+01
  -1.354986e+02  -8.531369e+01
  -4.472774e+01  -1.581768e+02
   5.002788e+01  -1.302185e+02
   1.333793e+02  -3.428255e+01
   9.551811e+01   4.201212e+01
   7.331152e+00   5.902046e+01
   1.792969e+00   3.423769e+01
   1.606082e+01  -1.345129e+01
   3.672539e+00   2.815131e+01
   2.001605e+01   7.946667e+01
  -5.580453e+00   6.226022e+01
  -7.866954e+01  -1.071650e+01
  -8.030787e+01  -1.129225e+02
   1.656858e+01  -9.785675e+01
   8.997546e+01  -1.635280e+01
   1.051529e+02   9.068762e+01
   2.173940e+01   1.184304e+02
  -5.657153e+01   4.290746e+01
  -9.949561e+01  -9.342116e+00
  -2.858231e+01  -6.400755e+01
   4.706493e+01  -3.954590e+01
   2.263525e+01  -5.764892e+01
  -1.552593e+01  -5.294253e-01
  -6.522769e+01   4.257502e+01
  -3.476042e+01  -2.373612e+01
   8.662270e+01  -6.484232e+01
   1.406471e+02  -5.853213e+01
   5.236066e+01   3.469479e+01
   1.331106e+01   9.242839e+01
  -7.644011e+01   5.278975e+01
  -5.743558e+01   1.845253e+01
   3.963851e+00  -7.421571e+01
   3.226825e+01  -1.245886e+01
   8.354259e+00   2.688847e+01
   4.555944e+01   5.918908e+01
  -1.406165e+01   3.315085e+01
  -2.953954e+01  -3.392432e+00
  -4.302306e+01  -2.890853e+01
  -7.182988e+00   1.235386e+01
   2.537950e+00   1.301319e+01
   1.341924e+00  -8.950690e+00
   1.350859e+01  -2.146829e+01
   2.525403e-01  -3.769736e+01
   3.336241e+01  -8.171500e+00
   4.505127e+00   4.808921e+01
   1.624053e+01   2.879337e+01
  -4.254178e+01   4.841046e+01
  -3.962466e+01  -2.759988e+01
  -4.498376e+00  -5.617254e+01
   4.104475e+01  -4.027613e+01
   9.055519e+01   5.162945e+01
   6.456662e+01   3.546914e+01
  -3.329521e+01   5.168608e+01
  -3.941663e+01   2.229373e+01
  -2.629226e+01  -5.511117e+00
   5.055172e+01  -4.601220e+00
   3.640518e+01   2.682126e+01
  -3.373668e+01   3.222325e+01
  -8.398562e+01   1.651250e+01
