
 $NMID
 id='ANONYMOUS ', fmtdat='(2E16.6)'
 volume=1.0
 tramp=1.0
 $END
  -4.332270e+03   1.234317e+02
  -2.597760e+03  -2.728509e+03
   9.153441e+02  -2.716141e+03
   2.203479e+03  -7.284356e+02
   8.249074e+02   8.362815e+02
  -7.515944e+02   6.060534e+02
  -9.954376e+02  -4.922240e+02
   9.073187e+00  -1.094732e+03
   9.267863e+02  -8.490193e+02
   9.976032e+02   1.598344e+02
   4.371352e+02   9.789930e+02
  -3.017287e+02   8.998839e+02
  -7.124170e+02   9.373753e+01
  -4.244288e+02  -7.862642e+02
   3.153914e+02  -7.555533e+02
   6.258129e+02   5.631085e+01
   2.277962e+02   7.384000e+02
  -3.636308e+02   6.497912e+02
  -6.094090e+02   1.677041e+01
  -3.649643e+02  -4.095675e+02
   1.686200e-01  -4.236001e+02
   2.618541e+02  -2.030797e+02
   2.654997e+02  -6.321457e-01
  -9.318564e+01   1.490181e+02
  -4.440934e+02  -1.077876e+02
  -2.056529e+02  -4.298886e+02
   4.730786e+02  -4.349198e+02
   8.894407e+02   8.096199e+01
   4.351026e+02   5.391848e+02
  -4.482888e+02   5.342567e+02
  -7.749081e+02   2.340238e+00
  -3.835258e+02  -4.736045e+02
   2.707701e+02  -5.126585e+02
   5.918691e+02  -2.028682e+02
   4.050710e+02   2.517935e+02
   1.958315e+01   4.616383e+02
  -2.444486e+02   2.754192e+02
  -2.551326e+02  -2.699926e+02
   1.986526e+02  -4.779493e+02
   5.154982e+02  -5.429622e+01
   2.887198e+02   7.210215e+02
  -3.519728e+02   7.652049e+02
  -6.344339e+02   1.140093e+01
  -2.839230e+02  -6.032502e+02
   3.122891e+02  -3.719821e+02
   4.684243e+02   3.368047e+02
  -6.483367e+01   5.661174e+02
  -5.270957e+02   1.764860e+02
  -6.038200e+02  -3.915618e+02
  -1.055773e+02  -5.851057e+02
   3.934803e+02  -3.544332e+02
   6.336113e+02   7.666741e+01
   3.878955e+02   4.121437e+02
  -1.975201e+02   3.787234e+02
  -4.442882e+02   2.576456e+01
  -2.516158e+02  -2.371508e+02
   1.439305e+02  -1.103835e+02
   2.076522e+02   1.878673e+02
  -2.038757e+02   2.244655e+02
  -3.999164e+02  -4.827221e+01
  -1.539665e+02  -3.071475e+02
   1.987622e+02  -2.682246e+02
   3.345881e+02  -4.682466e+01
   1.884381e+02   8.609969e+01
  -1.075367e+01   2.139870e+02
  -1.992012e+02   2.938487e+02
  -3.047553e+02   2.005586e+02
  -2.992486e+02  -1.168933e+02
  -8.267752e+01  -4.273218e+02
   1.365574e+02  -3.765463e+02
   1.458498e+02  -9.073806e+01
   3.049924e+01   5.740210e+01
  -5.105333e+00  -1.033761e+02
   1.763637e+02  -1.433655e+02
   3.108628e+02   2.000680e+01
   1.637151e+02   2.595886e+02
  -5.415378e+01   2.734894e+02
  -2.257967e+02   3.493473e+01
  -2.083162e+02  -2.300342e+02
  -6.553581e+00  -2.952326e+02
   2.510446e+02  -1.198484e+02
   3.618089e+02   1.715774e+02
   1.753318e+02   3.536135e+02
  -9.888823e+01   2.786404e+02
  -2.491913e+02   1.220800e+02
  -1.270744e+02  -1.986208e+01
  -7.401238e+01   2.081986e+01
  -2.120826e+02   8.114019e+01
  -3.698370e+02  -4.702014e+01
  -3.173958e+02  -2.623203e+02
  -1.113295e+01  -4.607193e+02
   3.311426e+02  -4.018201e+02
   4.774207e+02  -1.844966e+02
   3.326241e+02   1.118134e+02
   7.666223e+01   2.830907e+02
  -1.313042e+02   2.428401e+02
  -1.029224e+02  -2.460835e-01
   8.717688e+01  -1.219328e+02
   1.910348e+02   1.288893e+00
   6.815447e+01   2.033125e+02
  -1.418836e+02   1.691549e+02
  -2.060648e+02  -6.579135e+01
  -3.120963e+01  -1.949464e+02
   1.753193e+02  -5.202982e+01
   1.872549e+02   2.123024e+02
  -3.686764e+01   3.377988e+02
  -2.210538e+02   1.945214e+02
  -3.197369e+02  -3.689165e+01
  -2.572230e+02  -2.185601e+02
  -8.234774e+01  -2.510514e+02
   1.250262e+02  -1.640765e+02
   1.940548e+02  -3.353898e+00
   4.405824e+01   4.285214e+01
  -8.035008e+01  -2.387868e+01
  -2.778263e+01  -1.469815e+02
   1.101600e+02  -1.076696e+02
   1.924672e+02   2.700871e+01
   8.332085e+01   9.866145e+01
  -8.563924e+01   3.861470e+01
  -6.589790e+01  -8.291506e+01
   9.751279e+01  -8.503008e+01
   2.691698e+02  -3.222028e+01
   2.514234e+02   1.264159e+02
   7.599152e+01   2.485175e+02
  -1.652967e+02   2.690848e+02
  -2.866514e+02   1.274185e+02
  -1.673821e+02  -3.640540e+01
   3.579548e+01  -1.282836e+02
   8.389238e+01  -2.653783e+01
  -7.946203e+00   1.272130e+02
  -1.536359e+02   8.836842e+01
  -2.348824e+02  -7.389691e+01
  -8.211304e+01  -2.189407e+02
   8.764526e+01  -1.567162e+02
   1.453590e+02  -4.353694e+01
   8.428249e+01   2.546163e+01
  -1.463330e+01   3.229752e+01
  -9.775751e+00  -1.022263e+02
   8.450839e+01  -1.509751e+02
   1.856972e+02  -3.907136e+01
   1.800497e+02   1.242351e+02
   9.955586e+00   2.103955e+02
  -1.762192e+02   1.497514e+02
  -1.928008e+02  -1.856146e+00
  -8.458493e+01  -1.105063e+02
   7.521624e+01  -1.390477e+02
   7.922632e+01  -3.699947e+01
   8.187461e+00   7.539762e+00
   2.199998e-02   8.182174e+00
   2.137814e+01   5.506129e+00
   3.724053e+01  -3.017277e+01
   6.670782e+01   7.619466e+01
   1.355661e+01   1.578420e+02
  -9.774245e+01   1.597812e+02
  -2.137324e+02   3.168052e+01
  -2.168349e+02  -1.336842e+02
  -3.999297e+01  -2.383778e+02
   1.005604e+02  -1.693936e+02
   1.336453e+02  -2.605760e+01
   4.380731e+01   3.287351e+01
   1.320768e+01   4.305647e+01
   6.075148e+01  -1.580815e+01
   7.914050e+01   6.294708e+00
   4.301910e+01   7.713586e+01
  -4.864696e+01   8.661853e+01
  -1.120467e+02   4.345470e+01
  -7.781239e+01  -3.501279e+01
  -1.363941e+00  -9.766134e+01
   1.208267e+02  -8.529114e+01
   2.068071e+02   2.916056e+01
   1.099474e+02   2.172273e+02
  -9.418409e+01   1.840779e+02
  -2.599450e+02   1.043564e+02
  -2.360197e+02  -9.877020e+01
  -1.037767e+02  -1.715798e+02
   4.787798e+01  -1.401772e+02
   8.507356e+01  -8.356649e+01
   7.342339e+01  -9.944070e+01
   4.540893e+01  -7.509373e+01
   5.383326e+01  -4.275984e+01
   1.454173e+02   1.312793e+01
   8.772447e+01   1.366466e+02
   3.481878e+01   2.420597e+02
  -8.441887e+01   1.685027e+02
  -1.793224e+02   2.993451e+01
  -1.420795e+02  -1.065889e+02
  -1.806745e+01  -1.498449e+02
   7.626029e+01  -8.161624e+01
   7.233844e+01  -5.836800e+00
   3.364411e+00   2.860003e+01
   5.200883e+00   3.242153e+01
   7.170430e+01  -8.851750e+00
   7.787944e+01   9.819409e+00
   2.621719e+01   5.051516e+01
  -6.131469e+01   2.135752e+01
  -1.281755e+02   2.136695e+01
  -1.358122e+02  -6.461503e+01
  -1.244902e+01  -1.037651e+02
   8.860213e+01  -9.965683e+01
   1.455677e+02   5.678258e+00
   3.721947e+01   4.519940e+01
  -4.245944e+01   3.705125e+01
  -6.810804e+01  -2.869208e+01
  -1.363532e+00  -5.315547e+01
   3.361633e+01  -4.152634e+01
   8.094551e+01  -1.340521e+01
   4.162020e+01   5.283142e+01
   4.817635e+01   3.173107e+01
   6.867637e+01   2.179744e+01
   7.815043e+01   9.740505e+00
   3.090494e+01   6.603197e+01
  -4.432786e+01   1.209539e+02
  -1.154913e+02   1.320935e+02
  -1.324633e+02   3.523766e+01
  -1.139076e+02  -7.217286e+01
  -3.462653e+01  -1.260622e+02
   8.943727e+01  -6.676157e+01
   3.730345e+01  -5.483364e+00
  -6.910998e+01   4.966111e+01
  -1.495242e+02  -4.285850e+01
  -7.115679e+01  -1.257286e+02
   8.551373e+01  -1.103803e+02
   1.981216e+02  -6.052752e+01
   1.306659e+02   3.167043e+01
   6.088987e+01   1.002885e+02
  -6.852521e+01   7.093261e+01
  -6.382000e+01   2.611969e+01
   3.785176e+01  -2.531833e+01
   1.003544e+02   1.471599e+00
   2.735569e+01   1.311353e+02
  -8.178740e+01   1.322968e+02
  -1.612406e+02   3.920896e+01
  -1.157009e+02  -1.075957e+02
  -5.258749e+00  -1.982414e+02
   8.916685e+01  -1.339575e+02
   8.535884e+01  -8.996023e+00
   7.662851e+01   1.016257e+02
   5.130110e+00   1.038534e+02
  -4.280010e+01   3.767653e+01
  -5.634921e+01  -3.008495e+01
  -1.413262e+01  -8.982320e+00
  -4.992086e+00   2.939866e+01
  -2.038999e+01  -6.055136e+00
  -4.549746e+01  -8.549191e+01
  -6.542579e+01  -1.384957e+02
   4.603801e+01  -5.914005e+01
   1.401632e+02   2.014731e+01
   1.214077e+02   7.951362e+01
   1.902015e+01   3.750233e+01
  -1.099021e+02   1.546300e+00
  -1.041645e+02   7.341195e+00
  -2.704807e+01  -2.924934e+01
   4.591175e+01  -3.739647e+01
   2.893572e-01   4.730129e+00
  -4.001740e+01   1.811442e+01
   4.090151e+01   2.594853e+01
   8.258001e+01  -2.410847e+01
   7.127980e+01   8.844854e+00
  -6.062498e+00   5.508896e+01
  -1.003706e+02   1.027731e+02
  -1.827899e+02   5.758001e+01
  -1.284279e+02  -1.208294e+02
  -4.876144e+01  -1.784344e+02
   6.359132e+01  -1.611595e+02
   8.957289e+01  -4.400530e+01
   5.175576e+01   1.898673e+01
   4.979800e+01   2.391892e+01
  -2.306816e+01   2.151681e+01
   3.319362e+01   2.122741e+01
   2.521656e+01   4.749807e+01
   3.673879e+01   9.023052e+01
  -7.829690e+00   6.535682e+01
  -7.613077e+01  -1.969756e+01
  -7.142688e+01  -1.072272e+02
  -2.214807e+00  -1.180819e+02
   8.320270e+01  -1.926689e+01
   1.013894e+02   7.333279e+01
   2.053028e+01   1.097030e+02
  -8.837943e+01   4.505067e+01
  -9.585865e+01  -3.268091e+01
  -4.278292e+01  -4.983886e+01
   4.748838e+01  -3.955551e+01
   2.956997e+01  -3.478186e+01
  -7.920289e+00   7.961292e+00
  -5.341160e+01   1.271923e+01
  -1.500278e+01  -1.160261e+01
   5.914546e+01  -5.271068e+01
   1.239069e+02  -5.557474e+01
   7.490765e+01  -7.558810e+00
  -1.195247e+01   8.143332e+01
  -5.752970e+01   7.725849e+01
  -5.926222e+01   1.642233e+01
   2.011714e+00  -6.917969e+01
   2.773985e+01  -5.032554e+01
   3.997625e+01  -3.736101e+00
   4.439906e+01   3.002242e+01
  -8.580220e-01   1.819414e+01
  -4.443477e+01  -1.072077e+00
  -2.670302e+01   5.621198e+00
   1.463717e+00   1.317172e+01
  -5.124838e+00   2.214565e+01
   4.812234e-01  -8.439580e+00
   1.255891e+01  -5.069265e+01
   1.357510e+01  -3.281163e+01
   1.322967e+01  -1.188422e+01
  -9.814553e+00   3.805842e+01
   4.474746e+00   4.774319e+01
  -2.802974e+01   5.089883e+01
  -6.992009e+01  -3.730307e+01
  -1.877173e+01  -4.937896e+01
   4.180711e+01  -4.328618e+01
   1.010747e+02   1.760777e+01
   5.184655e+01   1.927497e+01
  -2.233463e+01   3.533932e+01
  -4.554933e+01   1.741657e+01
   1.530050e+01  -1.119463e+00
   1.989273e+01  -1.317572e+01
   2.891481e+01   2.973734e+01
  -5.840635e+01   2.360403e+01
  -7.675331e+01   2.373008e+01
