
 $NMID
 id='ANONYMOUS ', fmtdat='(2E16.6)'
 volume=1.0
 tramp=1.0
 $END
  -4.097213e+03  -1.914590e+02
  -2.387803e+03  -2.680940e+03
   7.024065e+02  -2.468633e+03
   2.033433e+03  -7.917462e+02
   8.237843e+02   6.320988e+02
  -5.798167e+02   5.086472e+02
  -7.690124e+02  -4.937087e+02
   7.179432e+01  -9.861575e+02
   7.997910e+02  -6.684362e+02
   8.793172e+02   1.318641e+02
   3.493927e+02   7.862362e+02
  -2.823266e+02   7.812642e+02
  -5.811014e+02   7.015277e+01
  -3.184971e+02  -6.759559e+02
   2.618949e+02  -6.615751e+02
   5.622347e+02   2.951077e+01
   1.780173e+02   6.390099e+02
  -3.260829e+02   5.499230e+02
  -5.581906e+02   4.451128e+01
  -3.391313e+02  -3.444002e+02
   5.410453e+00  -3.845800e+02
   1.876121e+02  -2.474490e+02
   2.239060e+02  -1.485006e+01
  -9.371858e+01   1.139655e+02
  -3.615688e+02  -1.193761e+02
  -1.567535e+02  -3.526442e+02
   4.028064e+02  -3.447813e+02
   7.258978e+02   9.242980e+01
   3.652475e+02   5.023588e+02
  -3.578089e+02   4.752253e+02
  -6.515926e+02  -5.820003e+00
  -2.928186e+02  -4.215384e+02
   2.497026e+02  -4.945606e+02
   5.155162e+02  -2.307539e+02
   3.946580e+02   1.946598e+02
   5.906281e+01   4.477852e+02
  -1.995690e+02   2.719013e+02
  -2.065690e+02  -2.010129e+02
   1.367078e+02  -4.000640e+02
   3.890652e+02   4.044701e+01
   1.930508e+02   6.220295e+02
  -3.013832e+02   6.004905e+02
  -5.645252e+02  -1.635630e+01
  -1.903118e+02  -5.601196e+02
   2.976569e+02  -3.055759e+02
   3.761645e+02   3.283138e+02
  -8.367854e+01   5.245561e+02
  -5.541462e+02   1.219822e+02
  -5.435812e+02  -4.133538e+02
  -1.179485e+02  -5.422513e+02
   3.582131e+02  -2.910907e+02
   5.920140e+02   8.841979e+01
   3.214985e+02   3.627663e+02
  -1.687773e+02   3.076295e+02
  -4.340780e+02   1.586029e+01
  -1.945667e+02  -1.871814e+02
   9.397297e+01  -8.233946e+01
   1.163458e+02   1.905847e+02
  -1.896007e+02   1.718301e+02
  -2.882917e+02  -4.671639e+01
  -7.060841e+01  -2.803083e+02
   2.027455e+02  -2.334718e+02
   2.916177e+02  -2.499911e+01
   1.473541e+02   8.306758e+01
  -2.580588e+01   1.773958e+02
  -1.806193e+02   2.637210e+02
  -2.900169e+02   1.705497e+02
  -2.705461e+02  -1.242831e+02
  -7.034193e+01  -3.914082e+02
   9.395841e+01  -3.427282e+02
   1.517595e+02  -6.139699e+01
   1.245898e+01   5.035349e+00
   2.885002e+01  -7.108466e+01
   1.493005e+02  -8.678081e+01
   2.502943e+02   4.643741e+01
   1.064494e+02   2.424112e+02
  -6.598406e+01   2.353293e+02
  -2.131544e+02   1.288450e+01
  -1.690665e+02  -2.115510e+02
   1.292868e+01  -2.697757e+02
   2.213490e+02  -9.184900e+01
   3.083449e+02   1.343872e+02
   1.759484e+02   3.080974e+02
  -6.692202e+01   2.727347e+02
  -2.063586e+02   1.130591e+02
  -1.005063e+02  -2.925956e+01
  -1.000632e+02   5.613119e+01
  -1.918334e+02   6.511918e+01
  -3.501275e+02  -5.796383e+01
  -2.792563e+02  -2.675132e+02
  -1.560354e+00  -3.878515e+02
   3.072596e+02  -3.562662e+02
   4.457326e+02  -1.384940e+02
   3.079218e+02   7.921940e+01
   3.234939e+01   2.731745e+02
  -1.120948e+02   1.926926e+02
  -7.512434e+01   2.708402e+01
   1.160114e+02  -9.834962e+01
   1.993398e+02   2.387304e+01
   5.282935e+01   1.517224e+02
  -1.398610e+02   1.311948e+02
  -1.594576e+02  -7.252331e+01
   2.262697e+01  -1.678217e+02
   1.640292e+02  -4.790853e+01
   1.578610e+02   2.225283e+02
  -3.835741e+01   2.975967e+02
  -1.876263e+02   1.596892e+02
  -2.742851e+02  -6.330967e+01
  -2.329896e+02  -2.235558e+02
  -7.523165e+01  -2.258514e+02
   1.123704e+02  -1.282469e+02
   1.498588e+02  -2.507301e+01
   6.221677e+01   2.573166e+01
  -5.630139e+01  -3.611657e+01
  -2.658313e+01  -9.566808e+01
   1.394979e+02  -1.049678e+02
   1.509829e+02   2.217558e+01
   7.247177e+01   6.780642e+01
  -5.255993e+01   2.299817e+01
  -4.901308e+01  -6.426629e+01
   7.911502e+01  -5.671606e+01
   2.335798e+02  -1.016307e+01
   2.346501e+02   1.042421e+02
   3.697542e+01   2.390864e+02
  -1.908744e+02   2.145366e+02
  -2.628648e+02   8.630041e+01
  -1.536544e+02  -4.769088e+01
   1.801189e+01  -6.634227e+01
   7.903135e+01  -1.424646e+01
  -3.290197e+01   9.859598e+01
  -1.502179e+02   7.932693e+01
  -2.129561e+02  -1.161850e+02
  -4.873663e+01  -1.799478e+02
   8.127044e+01  -1.343431e+02
   1.268092e+02  -1.688683e+01
   7.465727e+01   3.400413e+01
  -1.498393e+01   8.202608e+00
  -2.202502e+01  -8.163137e+01
   6.672131e+01  -1.115670e+02
   1.694900e+02  -1.131066e+01
   1.612363e+02   1.331071e+02
  -2.990560e+00   1.824223e+02
  -1.596093e+02   1.233854e+02
  -1.790991e+02  -1.487616e+01
  -6.091989e+01  -8.291801e+01
   6.248713e+01  -1.026486e+02
   6.788270e+01  -2.779611e+01
   3.430218e+01   8.655979e+00
  -2.042775e+01   3.908341e+01
   3.543706e+00   9.987494e+00
   7.380464e+01  -1.537159e+01
   6.052600e+01   9.853839e+01
   2.978499e+00   1.341270e+02
  -8.830663e+01   1.306889e+02
  -2.344022e+02   3.641919e+01
  -1.545436e+02  -1.371552e+02
  -3.093717e+01  -2.372169e+02
   1.057564e+02  -1.491060e+02
   1.185127e+02   6.834733e+00
   6.792692e+01   6.223875e+01
   4.066576e+01   6.719243e+01
   5.631153e+01  -2.061260e+01
   9.369846e+01  -5.036513e+00
   2.154161e+01   5.290860e+01
  -5.704484e+01   4.715805e+01
  -9.813699e+01   4.838356e+01
  -8.016686e+01  -1.208340e+01
   1.808034e+01  -8.804481e+01
   1.035688e+02  -6.977919e+01
   1.916438e+02   6.185932e+01
   7.092048e+01   1.733902e+02
  -1.144856e+02   1.947097e+02
  -2.358845e+02   7.163777e+01
  -2.331453e+02  -8.989255e+01
  -7.578950e+01  -1.697112e+02
   2.090503e+01  -1.397389e+02
   9.204824e+01  -5.430376e+01
   4.755168e+01  -8.509691e+01
   7.335634e+01  -8.821597e+01
   1.012944e+02  -8.244261e+01
   1.386111e+02   3.661193e+01
   1.069151e+02   1.578146e+02
   1.759780e+01   2.321307e+02
  -1.096265e+02   1.514833e+02
  -1.345009e+02   1.871920e+01
  -1.040023e+02  -1.072567e+02
  -2.741975e+01  -1.444931e+02
   7.140836e+01  -8.480748e+01
   6.637335e+01  -4.967203e+00
   1.569971e+00   4.696114e+01
  -4.553865e+01   3.730942e+01
   3.918966e+01   1.516332e+01
   6.801074e+01   1.046122e+01
   2.297258e+01   3.219940e+01
  -6.474284e+01   1.572878e+01
  -1.557714e+02  -7.902317e+00
  -1.149743e+02  -7.753055e+01
  -1.878113e+01  -8.180146e+01
   1.063523e+02  -5.318505e+01
   1.332645e+02   5.457140e+00
   4.136933e+01   6.789952e+01
  -6.887355e+01   4.185386e+01
  -4.523361e+01  -2.546801e+01
  -1.007171e+01  -1.040879e+02
   6.467534e+01  -5.022988e+01
   8.049660e+01   5.082269e+00
   4.478396e+01   4.185592e+01
   3.091291e+01   3.712695e+01
   5.501611e+01   1.538264e+01
   4.806593e+01   5.718365e+00
   2.895914e+01   6.273950e+01
  -4.830049e+01   1.284961e+02
  -9.516918e+01   1.314026e+02
  -1.580722e+02   2.396482e+01
  -1.139601e+02  -8.405220e+01
  -1.243247e+00  -9.457368e+01
   6.800413e+01  -5.410184e+01
   6.094644e+01   1.594177e+01
  -5.237124e+01   1.751071e+01
  -1.083693e+02  -4.230442e+01
  -6.288975e+01  -8.475423e+01
   5.359513e+01  -9.488610e+01
   1.685563e+02  -4.805485e+01
   1.575248e+02   2.762445e+01
   3.794831e+01   6.185997e+01
  -5.325708e+01   7.480078e+01
  -5.624502e+01  -1.165722e+01
   3.912254e+01  -3.106621e+01
   8.187713e+01   1.001332e+01
   3.718937e+01   8.513480e+01
  -1.044322e+02   1.426171e+02
  -1.417218e+02   5.162077e+01
  -1.052553e+02  -9.468807e+01
  -1.158960e+01  -1.950197e+02
   7.038861e+01  -1.249186e+02
   1.073299e+02   5.620777e-01
   4.294335e+01   8.798642e+01
   6.663540e+00   7.282362e+01
  -4.352161e+01   3.098183e+01
  -1.794807e+01  -2.828353e+01
  -1.212942e+00   2.604040e+00
   1.055788e+01  -1.018225e+00
  -1.257883e+01  -2.873110e+01
  -3.002191e+01  -6.898308e+01
  -3.532624e+01  -1.162070e+02
   4.158174e+01  -3.716242e+01
   1.143631e+02   3.365295e+01
   1.384019e+02   7.892136e+01
   9.690526e+00   5.785584e+01
  -8.385723e+01   1.306616e+01
  -1.135224e+02  -2.678089e+01
   7.345980e+00   1.526953e+01
   2.364521e+01  -3.833734e+01
   8.611243e+00   4.477916e+00
  -1.600288e+01  -8.845647e-01
   2.730793e+01  -1.729066e+00
   6.160274e+01   8.389558e+00
   7.949297e+01   2.728219e+01
  -1.359510e+01   7.625781e+01
  -1.132531e+02   6.630347e+01
  -1.561345e+02   5.407404e+01
  -1.233387e+02  -9.119364e+01
  -1.547618e+01  -1.491785e+02
   9.416925e+01  -1.459838e+02
   1.088697e+02  -4.202779e+01
   9.475685e+01   3.525664e+01
   3.297707e+01   4.813536e+01
   2.096676e+00   4.572810e+00
   2.083375e+01  -6.961466e+00
   3.197291e+01   1.707707e+01
   2.572957e+01   7.185213e+01
  -6.622288e+00   7.089587e+01
  -7.186262e+01  -1.114013e+01
  -7.470371e+01  -1.091629e+02
   6.764782e+00  -9.719238e+01
   7.792287e+01  -3.183813e+01
   1.160170e+02   6.561733e+01
   3.018518e+00   9.278320e+01
  -7.353872e+01   5.235548e+01
  -9.875596e+01  -1.172126e+01
  -2.658405e+01  -5.916865e+01
   2.837303e+01  -4.256715e+01
   4.319141e+01  -2.017348e+01
  -2.008872e+01   1.134657e+01
  -6.403863e+01  -1.576633e+01
  -2.290282e+01  -1.945501e+01
   8.581613e+01  -4.376055e+01
   1.160996e+02  -5.588512e+01
   3.845278e+01   1.360360e+01
  -8.804871e+00   7.315410e+01
  -7.970619e+01   9.269860e+01
  -4.024847e+01   8.206721e+00
  -3.246946e+00  -4.027636e+01
   1.975101e+01  -4.881513e+01
   3.312451e+01   4.131470e+01
   5.745012e+00   3.403317e+01
   1.564894e+01   2.665579e+01
  -3.362191e+01  -1.631098e+01
  -3.946508e+01  -7.046779e+00
  -2.238891e+01  -8.814904e+00
  -1.140125e+01   2.726750e+01
   1.898347e+01  -1.211837e+01
  -1.750268e+01  -5.297174e+01
  -4.055309e+00  -5.291809e+01
   8.075276e-01  -6.099877e+00
   2.460784e+01   4.590477e+01
  -6.130197e+00   3.899965e+01
  -3.477129e+01   1.939035e+01
  -5.949430e+00  -2.199880e+01
  -1.348825e+01  -5.251647e+01
   1.363365e+01  -5.626035e+01
   6.847831e+01   2.436190e+01
   1.775588e+01   4.122811e+01
  -4.013553e+01   1.233583e+01
  -4.215407e+01   1.606819e+01
  -2.371354e+01  -6.846111e-01
   5.601160e+01  -8.038684e+00
   4.110278e+01   8.688690e+00
  -5.426261e+01   4.003257e+01
  -7.693771e+01   1.829159e+01
