
 $NMID
 id='ANONYMOUS ', fmtdat='(2E16.6)'
 volume=1.0
 tramp=1.0
 $END
  -4.607348e+03  -1.124440e+02
  -2.499524e+03  -2.770299e+03
   8.632337e+02  -2.769479e+03
   2.188954e+03  -9.058229e+02
   9.398391e+02   7.016609e+02
  -8.176203e+02   6.939281e+02
  -9.398309e+02  -5.237366e+02
   3.482386e+01  -1.158474e+03
   9.156635e+02  -7.437041e+02
   9.617458e+02   1.903773e+02
   4.062479e+02   9.167288e+02
  -2.647661e+02   8.972270e+02
  -6.585566e+02   5.800759e+01
  -3.831457e+02  -7.112447e+02
   2.957767e+02  -7.476226e+02
   6.246400e+02   5.128480e+01
   2.587493e+02   6.860282e+02
  -3.575025e+02   6.278468e+02
  -6.014800e+02   2.924313e+01
  -4.019732e+02  -3.980274e+02
   1.323860e+00  -4.282023e+02
   2.723876e+02  -2.894796e+02
   2.178811e+02  -1.999668e+01
  -8.113796e+01   1.046917e+02
  -3.675399e+02  -5.773912e+01
  -2.037631e+02  -4.456431e+02
   4.572059e+02  -3.976683e+02
   8.527439e+02   8.009166e+01
   4.691224e+02   5.499150e+02
  -3.905247e+02   5.241951e+02
  -7.759599e+02  -9.396338e+00
  -3.460865e+02  -4.790363e+02
   2.812822e+02  -5.422535e+02
   5.778483e+02  -2.035030e+02
   4.402785e+02   2.319335e+02
   8.171539e+01   4.847006e+02
  -1.907147e+02   2.740118e+02
  -2.379964e+02  -2.094120e+02
   1.340122e+02  -4.348475e+02
   4.349455e+02   2.040517e+01
   2.311076e+02   6.683009e+02
  -3.214754e+02   6.711698e+02
  -5.940760e+02  -2.433479e+01
  -2.440284e+02  -5.581210e+02
   2.884612e+02  -3.705569e+02
   3.966762e+02   3.199445e+02
  -5.907129e+01   5.997697e+02
  -5.370988e+02   1.718773e+02
  -5.579457e+02  -4.302217e+02
  -1.429108e+02  -5.783887e+02
   3.764613e+02  -3.594767e+02
   6.537865e+02   1.069429e+02
   3.776773e+02   4.158309e+02
  -1.533921e+02   3.492557e+02
  -4.331904e+02   6.347375e+01
  -2.412160e+02  -1.900954e+02
   1.276444e+02  -1.068316e+02
   1.599275e+02   1.918193e+02
  -1.831809e+02   1.846521e+02
  -3.488458e+02  -9.450575e+01
  -1.463415e+02  -3.267918e+02
   1.901155e+02  -2.533304e+02
   3.194361e+02  -5.027032e+01
   1.787657e+02   9.745216e+01
  -6.308918e+01   2.095867e+02
  -1.706492e+02   2.811446e+02
  -3.240738e+02   1.957301e+02
  -2.767095e+02  -1.245048e+02
  -6.436683e+01  -4.239223e+02
   1.101926e+02  -3.841754e+02
   1.634618e+02  -6.716666e+01
   8.402646e-01   2.188594e+01
   1.023804e+00  -7.151262e+01
   1.559032e+02  -1.388409e+02
   2.798851e+02   3.904805e+01
   2.067599e+02   2.801887e+02
  -7.683551e+01   2.740262e+02
  -2.263635e+02   3.079225e+01
  -2.062098e+02  -2.443110e+02
   2.541548e+01  -2.967076e+02
   2.786178e+02  -1.466392e+02
   3.449551e+02   1.745123e+02
   1.952852e+02   3.661531e+02
  -7.996230e+01   3.089195e+02
  -2.229902e+02   1.204106e+02
  -1.367223e+02  -5.687041e+00
  -8.387802e+01   1.381930e+01
  -1.988312e+02   5.884949e+01
  -3.835444e+02  -3.553975e+01
  -3.358709e+02  -2.848196e+02
   2.233875e+00  -4.032370e+02
   3.392799e+02  -3.674600e+02
   4.789026e+02  -1.930552e+02
   3.487796e+02   1.072361e+02
   4.435134e+01   3.003422e+02
  -1.212164e+02   2.568491e+02
  -7.311267e+01   3.964311e+01
   1.181664e+02  -9.968065e+01
   2.045832e+02   3.670451e+00
   7.428286e+01   2.050698e+02
  -1.401936e+02   1.597250e+02
  -1.792259e+02  -3.823820e+01
   6.798316e-01  -2.193627e+02
   1.776578e+02  -2.953111e+01
   1.881303e+02   2.400745e+02
  -3.591942e+01   3.286675e+02
  -2.374044e+02   1.788414e+02
  -3.233048e+02  -5.184952e+01
  -2.801641e+02  -2.277094e+02
  -8.015792e+01  -2.669521e+02
   1.207613e+02  -1.736693e+02
   1.785119e+02  -1.741499e+01
   7.226473e+01   2.072052e+01
  -5.483698e+01  -2.271934e+01
  -4.569636e+01  -1.124490e+02
   1.356806e+02  -8.428753e+01
   1.760193e+02  -9.832977e+00
   5.487780e+01   5.309962e+01
  -4.890989e+01   4.180429e+01
  -7.905848e+01  -7.071559e+01
   1.012296e+02  -8.715155e+01
   2.564828e+02  -3.668783e+00
   2.450889e+02   1.199898e+02
   2.915422e+01   2.261416e+02
  -1.870728e+02   2.537022e+02
  -2.457854e+02   1.165997e+02
  -1.639187e+02  -7.194139e+01
   5.109220e+01  -1.085140e+02
   9.098374e+01   7.506140e+00
   2.189191e+00   9.838036e+01
  -2.031670e+02   6.363516e+01
  -1.974555e+02  -5.696716e+01
  -6.939424e+01  -2.174349e+02
   7.476045e+01  -1.721340e+02
   1.585639e+02  -2.017863e+01
   6.607106e+01   5.073488e+01
  -1.592826e+01   1.227261e+01
  -9.569325e+00  -7.059574e+01
   5.247600e+01  -1.080262e+02
   1.662760e+02  -2.290747e+01
   1.850408e+02   1.289961e+02
   3.811172e+01   2.208216e+02
  -1.413982e+02   1.714366e+02
  -2.151694e+02  -6.072464e+00
  -8.270601e+01  -1.158368e+02
   3.117829e+01  -1.095107e+02
   1.111961e+02  -5.376002e+01
   2.579555e+01   4.806761e+01
  -1.908862e+01   2.493192e+01
   1.040592e+01   4.901666e+00
   7.643090e+01  -1.196524e+00
   7.564484e+01   8.489904e+01
   2.161324e+01   1.470311e+02
  -1.103156e+02   1.384317e+02
  -2.064987e+02   2.856607e+01
  -1.834621e+02  -1.615093e+02
  -2.906315e+01  -2.336477e+02
   9.583744e+01  -1.763485e+02
   1.342924e+02   1.906961e+01
   8.538950e+01   4.812511e+01
   1.398793e+01   3.609509e+01
   4.814539e+01  -1.030065e+00
   5.846380e+01  -1.521374e+01
   4.259547e+01   5.151020e+01
  -5.523409e+01   9.028750e+01
  -1.108884e+02   5.874452e+01
  -8.149027e+01  -3.162852e+01
   3.667416e+01  -9.136485e+01
   1.209069e+02  -7.833730e+01
   1.864093e+02   2.641273e+01
   6.713584e+01   1.647924e+02
  -9.774725e+01   2.193489e+02
  -2.403089e+02   1.042670e+02
  -2.401011e+02  -9.574853e+01
  -8.838351e+01  -1.421354e+02
   2.219123e+01  -1.672319e+02
   9.626529e+01  -6.814778e+01
   5.825289e+01  -1.090483e+02
   8.494563e+01  -8.876441e+01
   9.704275e+01  -4.111702e+01
   1.148713e+02   4.136546e+01
   1.254288e+02   1.418718e+02
   9.252496e+00   2.335842e+02
  -9.444731e+01   1.569354e+02
  -1.862239e+02   3.764898e+01
  -1.216270e+02  -1.165371e+02
  -2.236260e+01  -1.587420e+02
   5.348610e+01  -6.921034e+01
   5.301014e+01  -8.328356e-01
  -3.196370e+00   7.088021e+01
   1.694866e+01   4.177922e+01
   3.996686e+01   2.909767e+01
   6.189078e+01   8.868538e+00
   5.674215e+01   4.226393e+01
  -6.572192e+01   4.603803e+01
  -1.529903e+02  -1.482780e+01
  -1.269027e+02  -7.505025e+01
  -1.273421e+01  -9.557159e+01
   1.135790e+02  -5.494666e+01
   1.223491e+02  -1.937724e+01
   6.015457e+01   3.451038e+01
  -6.363674e+01   3.790735e+01
  -7.072003e+01  -5.378529e+01
  -1.413774e+01  -6.511751e+01
   6.163138e+01  -3.533744e+01
   7.295560e+01  -7.364018e+00
   2.959077e+01   3.705640e+01
   4.284444e+01   4.748456e+01
   5.812271e+01   2.226823e+01
   6.230501e+01   6.105717e+00
   3.593677e+01   5.840387e+01
  -2.765817e+01   1.749768e+02
  -1.115331e+02   1.269911e+02
  -1.498017e+02   3.479044e+01
  -1.197833e+02  -8.010221e+01
  -2.282678e+01  -1.276846e+02
   8.859722e+01  -5.373729e+01
   3.709796e+01   1.956278e+01
  -6.416279e+01   2.611812e+01
  -1.801266e+02  -2.134513e+01
  -9.393894e+01  -1.198483e+02
   7.305244e+01  -1.189432e+02
   1.933965e+02  -6.715145e+01
   1.253163e+02   3.684986e+01
  -2.334827e-02   8.020820e+01
  -2.877935e+01   6.988951e+01
  -6.280842e+01   2.354112e+01
   4.831563e+01  -5.738143e+01
   6.470928e+01  -4.646799e+00
   4.599924e+01   1.131050e+02
  -1.003541e+02   1.483894e+02
  -1.517325e+02   6.307819e+01
  -1.220115e+02  -8.652226e+01
  -9.174532e+00  -2.073245e+02
   1.029554e+02  -1.256243e+02
   1.063147e+02  -9.400227e+00
   3.503647e+01   1.279821e+02
   1.005438e+01   7.671197e+01
  -4.133293e+01   1.637900e+01
  -4.307775e+01  -3.410975e+01
  -3.989758e+01  -1.672789e+01
  -7.066925e+00   3.766388e+00
  -2.574936e+01   4.619568e+00
  -5.331903e+01  -7.276529e+01
  -4.618506e+01  -9.299869e+01
   5.520467e+01  -7.247559e+01
   1.345263e+02   5.102533e+01
   1.523694e+02   5.712384e+01
   2.076268e-01   6.230609e+01
  -7.701272e+01   1.205979e+01
  -9.932333e+01  -1.565896e+01
  -6.328386e+00   2.443522e+01
   2.364102e+01  -2.331758e+01
   1.174854e+01  -8.639964e+00
  -2.287476e+01  -2.353002e+01
   5.856444e+00  -6.967920e+00
   4.407870e+01  -3.074667e+01
   8.470979e+01   4.369047e+01
   1.091481e+00   6.664525e+01
  -1.102515e+02   1.098189e+02
  -1.449838e+02   7.080771e+01
  -1.234922e+02  -6.030655e+01
   9.354264e+00  -1.439325e+02
   7.744364e+01  -1.419569e+02
   1.196668e+02  -6.672342e+01
   4.744720e+01   3.969321e+01
   1.967884e+01   3.730777e+01
  -2.606013e+01   8.195629e-01
   4.364541e-01   5.591304e+00
   2.314646e+01   2.800947e+01
   3.050336e+01   6.626277e+01
  -4.468762e+01   6.435079e+01
  -6.374549e+01  -1.602773e+01
  -8.574111e+01  -9.860120e+01
   1.071051e+01  -1.148486e+02
   8.913592e+01  -1.783113e+01
   7.673293e+01   6.839029e+01
   4.905453e+01   1.154375e+02
  -4.590527e+01   5.956980e+01
  -9.828312e+01   1.232071e+01
  -2.668935e+01  -1.849130e+01
   2.602461e+01  -3.847922e+01
   1.658452e+01  -1.917078e+01
  -3.791260e+01  -2.138886e+01
  -6.428290e+01   8.863092e+00
  -1.920931e+00  -1.924221e+01
   5.683562e+01  -6.719290e+01
   1.344073e+02  -4.856925e+01
   4.533089e+01   1.690464e+01
  -8.850893e+00   6.384654e+01
  -5.583163e+01   8.708076e+01
  -6.158965e+01   1.728303e+00
  -5.928419e+00  -4.019393e+01
   5.479673e+00  -5.773424e+01
   3.521885e+01  -5.323678e+00
   2.238698e+01   4.125575e+01
  -1.720100e+01   2.464850e+01
  -4.356428e+01   8.119054e+00
  -5.472725e+01  -2.818454e+01
  -2.114321e+01   5.561177e+00
   7.101770e+00   3.750975e+01
   1.469389e+00  -2.917812e+00
  -4.588089e+00  -4.205337e+01
   2.172114e+01  -3.391410e+01
   9.756342e+00  -8.498215e+00
   2.484690e+01   4.370546e+01
  -1.655767e+00   7.427327e+01
  -4.664999e+01   1.689789e+01
  -5.333060e+01  -4.758827e+01
  -2.284264e+00  -5.172010e+01
   3.073392e+01  -6.394171e+01
   9.877198e+01  -6.786736e+00
   5.453788e+01   4.595109e+01
  -2.616608e+00   1.753893e+01
  -8.443452e+01   4.945360e+00
  -5.758841e+00  -6.033534e+00
   3.399431e+01  -3.381848e-01
   5.017275e+01   2.451557e+01
  -4.712462e+01   4.030700e+01
  -9.085512e+01   1.190517e+01
