
 $NMID
 id='ANONYMOUS ', fmtdat='(2E16.6)'
 volume=1.0
 tramp=1.0
 $END
   4.583668e+03  -8.233763e+01
   2.732582e+03   2.797314e+03
  -7.125410e+02   2.811942e+03
  -2.132895e+03   9.443894e+02
  -9.694396e+02  -7.879777e+02
   7.320811e+02  -6.972332e+02
   1.058498e+03   4.583266e+02
  -1.016522e+00   1.134876e+03
  -8.850948e+02   8.857914e+02
  -1.042032e+03  -1.049298e+02
  -4.930578e+02  -9.072788e+02
   2.394668e+02  -9.740913e+02
   7.227392e+02  -1.351430e+02
   4.332407e+02   7.671350e+02
  -2.653216e+02   7.932940e+02
  -6.700534e+02  -1.999196e+01
  -3.132963e+02  -7.405225e+02
   3.933367e+02  -6.630531e+02
   6.436426e+02  -6.533111e+01
   3.916430e+02   3.819948e+02
   3.941856e+01   4.525797e+02
  -2.426085e+02   2.627230e+02
  -2.167926e+02   3.123557e+01
   1.036260e+02  -1.109583e+02
   4.365346e+02   7.189940e+01
   2.308528e+02   4.067613e+02
  -4.515900e+02   4.746367e+02
  -8.377964e+02  -1.421581e+01
  -4.548713e+02  -5.636087e+02
   3.912211e+02  -5.008541e+02
   7.903351e+02  -2.798011e+01
   3.726438e+02   5.091598e+02
  -2.870995e+02   5.905845e+02
  -5.687838e+02   2.247249e+02
  -4.632855e+02  -2.656746e+02
  -8.179018e+01  -5.024185e+02
   2.414116e+02  -3.154070e+02
   2.223018e+02   2.258121e+02
  -1.276340e+02   5.174230e+02
  -4.820683e+02   2.247885e+01
  -3.116557e+02  -6.596511e+02
   2.675004e+02  -7.221840e+02
   6.363354e+02  -4.273500e+01
   2.762365e+02   6.170222e+02
  -3.023832e+02   3.528344e+02
  -4.134444e+02  -2.771351e+02
   3.098755e+01  -5.913147e+02
   6.093999e+02  -1.743310e+02
   6.352064e+02   4.190968e+02
   1.863183e+02   6.193152e+02
  -3.843244e+02   3.709276e+02
  -7.291341e+02  -4.456218e+01
  -4.030007e+02  -4.429327e+02
   1.568226e+02  -3.858842e+02
   4.726334e+02  -6.810128e+01
   2.431058e+02   2.358381e+02
  -1.670115e+02   1.075298e+02
  -1.825865e+02  -1.716425e+02
   1.806656e+02  -2.236273e+02
   3.864230e+02   6.178542e+01
   1.505344e+02   3.192441e+02
  -2.286035e+02   2.653075e+02
  -3.320784e+02   8.162540e+01
  -2.132392e+02  -8.443096e+01
  -1.276665e+00  -2.241245e+02
   2.127901e+02  -3.220705e+02
   3.311719e+02  -2.067421e+02
   3.041340e+02   1.397921e+02
   8.161620e+01   4.256675e+02
  -1.396529e+02   3.861957e+02
  -1.495705e+02   8.659432e+01
  -1.233700e+01  -3.565505e+00
   1.465719e+01   1.009685e+02
  -1.889558e+02   1.537112e+02
  -3.021359e+02  -5.550436e+01
  -1.576935e+02  -2.625212e+02
   5.364510e+01  -2.591221e+02
   2.293684e+02  -2.136355e+01
   2.432451e+02   2.169449e+02
   3.778685e+00   3.115458e+02
  -2.710289e+02   1.200920e+02
  -3.740496e+02  -1.790941e+02
  -2.131361e+02  -3.755850e+02
   7.249479e+01  -3.259621e+02
   2.165708e+02  -1.378152e+02
   1.692133e+02   3.031282e+01
   8.675497e+01  -2.457554e+01
   2.431819e+02  -6.785644e+01
   3.526563e+02   4.784562e+01
   3.240520e+02   2.646551e+02
   3.584588e+01   4.330172e+02
  -3.947311e+02   4.392716e+02
  -4.778362e+02   2.013573e+02
  -3.550210e+02  -9.737028e+01
  -6.014377e+01  -2.963685e+02
   1.157682e+02  -2.735465e+02
   7.828902e+01  -1.298585e+01
  -1.198275e+02   1.254737e+02
  -1.972377e+02   2.298676e+01
  -3.513338e+01  -2.336719e+02
   1.802997e+02  -1.842670e+02
   1.826955e+02   5.488467e+01
  -3.378369e+01   2.109286e+02
  -2.051157e+02   3.926985e+01
  -1.822903e+02  -2.445416e+02
   3.480702e+01  -3.553029e+02
   2.368918e+02  -1.850351e+02
   3.629980e+02   4.191965e+01
   2.733253e+02   2.521116e+02
   7.153564e+01   2.876778e+02
  -1.402245e+02   1.685368e+02
  -2.244682e+02   1.523182e+01
  -7.676445e+01  -4.226573e+01
   6.006806e+01   4.654085e+01
   3.286274e+01   1.151318e+02
  -1.153289e+02   8.397656e+01
  -1.781740e+02  -6.396284e+00
  -7.884123e+01  -4.033589e+01
   9.708067e+01  -4.568655e+01
   8.993629e+01   5.294607e+01
  -1.283715e+02   5.084959e+01
  -2.666677e+02   1.466702e+01
  -2.715902e+02  -1.224274e+02
  -7.581940e+01  -2.696619e+02
   2.149178e+02  -2.505891e+02
   2.759993e+02  -1.708827e+02
   1.770899e+02   6.857019e+01
   2.836109e+00   1.249047e+02
  -1.364684e+02   2.644770e+01
   2.460802e+01  -1.045112e+02
   1.638054e+02  -6.450173e+01
   2.000128e+02   1.118591e+02
   7.685227e+01   2.108135e+02
  -6.579488e+01   1.823381e+02
  -1.634768e+02   1.799101e+01
  -7.069635e+01  -4.099546e+01
   2.065376e+01  -1.311252e+01
   6.607197e+01   8.407345e+01
  -7.777315e+01   1.118089e+02
  -1.718689e+02   2.577785e+01
  -2.192569e+02  -1.211834e+02
  -4.715858e+01  -2.055512e+02
   1.468870e+02  -1.614912e+02
   1.554735e+02  -1.337008e+01
   6.538025e+01   1.326723e+02
  -8.920606e+01   1.257690e+02
  -8.765296e+01   2.157787e+01
  -1.578605e+01  -1.433810e+01
   3.356869e+01  -3.569573e+01
   5.613476e+00   9.582441e+00
  -7.325495e+01  -4.734936e+00
  -1.020783e+02  -9.364342e+01
  -3.726323e+00  -1.516579e+02
   1.468851e+02  -1.557525e+02
   2.370101e+02  -3.833122e+01
   2.218928e+02   1.409454e+02
   5.016103e+01   2.315435e+02
  -1.129610e+02   1.593441e+02
  -1.691164e+02   3.593343e+01
  -6.385437e+01  -7.017829e+01
  -6.038087e+01  -2.636871e+01
  -6.059319e+01   1.405146e+00
  -6.021826e+01   1.344166e+01
  -2.474389e+01  -2.939496e+01
   5.505429e+01  -9.576373e+01
   8.771726e+01  -5.699217e+01
   8.781325e+01   2.243605e+01
   1.657559e+01   1.175732e+02
  -1.440391e+02   9.051813e+01
  -2.064723e+02  -5.283959e+01
  -9.730369e+01  -2.069995e+02
   1.046087e+02  -2.285915e+02
   2.653987e+02  -1.159394e+02
   2.680729e+02   8.933459e+01
   1.123531e+02   1.663083e+02
  -2.363765e+01   1.171169e+02
  -1.089944e+02   7.850809e+01
  -6.875212e+01   6.209287e+01
  -4.723585e+01   7.420624e+01
  -8.251499e+01   7.939991e+01
  -1.044405e+02  -1.074384e+01
  -1.447798e+02  -1.445943e+02
  -2.552869e+01  -2.246174e+02
   9.829335e+01  -1.689330e+02
   1.797687e+02  -2.954946e+01
   1.162037e+02   1.044459e+02
   4.710368e+01   1.719931e+02
  -5.308562e+01   8.317115e+01
  -7.183215e+01  -2.095648e+01
   5.649574e+00  -4.775036e+01
   1.271038e+01  -2.926243e+01
  -4.618574e+01   3.656883e+00
  -7.256286e+01  -3.849755e+01
  -3.292150e+01  -3.167737e+01
   6.566671e+01  -5.080454e+01
   1.454222e+02   7.246585e+00
   1.370017e+02   4.129622e+01
   3.883414e+01   8.627840e+01
  -9.384590e+01   8.986895e+01
  -1.381521e+02   1.089983e+01
  -4.997680e+01  -4.626196e+01
   7.402596e+01  -3.023858e+01
   8.487092e+01   1.160214e+01
   2.654186e+01   7.674543e+01
  -4.751847e+01   8.955436e+01
  -4.584458e+01  -1.205533e+01
  -6.331232e+01  -8.391824e+01
  -5.769162e+01  -3.169876e+01
  -6.980295e+01   5.592025e+00
  -6.758385e+01  -3.740372e+00
  -4.427649e+01  -3.593017e+01
   3.270360e+01  -1.443379e+02
   1.213707e+02  -1.333365e+02
   1.810568e+02  -3.024353e+01
   1.212748e+02   1.130574e+02
  -1.176685e+01   1.196898e+02
  -8.556518e+01   4.566391e+01
  -6.062778e+01  -2.393567e+00
   7.057367e+01  -2.726181e+01
   1.071647e+02   3.736317e+01
   9.753716e+01   8.791183e+01
  -5.772155e+01   1.228359e+02
  -2.032046e+02   6.745618e+01
  -1.548103e+02  -2.848827e+01
  -2.752992e+01  -7.280819e+01
   5.330185e+01  -5.969421e+01
   4.770530e+01   6.709914e+00
  -4.113432e+01   2.535496e+01
  -7.825089e+01  -1.788839e+01
  -5.141463e+01  -1.384060e+02
   8.499207e+01  -1.550516e+02
   1.916419e+02  -2.957867e+01
   1.467823e+02   1.141181e+02
   8.744862e-01   2.121847e+02
  -9.225517e+01   1.627164e+02
  -9.197235e+01  -1.183584e+01
  -6.418187e+01  -1.250253e+02
   2.363303e+00  -9.778051e+01
   3.697563e+01  -2.943078e+00
   1.696936e+01   2.941889e+01
   2.953382e+01   1.491894e+01
  -1.946788e+00  -2.238689e+01
   6.513849e+00  -2.228632e-01
   4.235874e+01   1.089520e+02
   4.275219e+01   8.999642e+01
  -4.375928e+01   4.466389e+01
  -1.260868e+02  -3.568105e+01
  -1.134979e+02  -6.393821e+01
  -5.068164e+01  -2.975228e+01
   8.704016e+01  -3.493258e+00
   1.023719e+02  -5.090100e-01
  -5.845478e+00   1.006855e+01
  -3.002318e+01   2.299338e+01
  -7.053527e+00   3.712206e+01
   2.944786e+01  -3.834343e+00
   3.863412e-01   2.696116e+01
  -6.445940e+01  -5.542114e-01
  -9.419739e+01  -2.670998e+01
  -2.640867e+01  -1.075902e+02
   1.152100e+02  -1.229456e+02
   1.498818e+02  -5.297020e+01
   1.119335e+02   3.809071e+01
   1.440343e+01   1.492736e+02
  -5.174116e+01   1.469787e+02
  -9.217944e+01   4.860086e+01
  -8.021488e+01  -2.417831e+01
  -2.121167e+01  -1.705129e+01
   5.370759e+00  -2.879643e+01
  -1.390647e+01  -7.364181e+00
  -9.241854e+00  -1.493864e+01
  -9.695855e+00  -9.752155e+01
   2.558730e+01  -6.563975e+01
   8.449639e+01   1.868396e+01
   6.215153e+01   1.345794e+02
  -8.477260e+00   1.018138e+02
  -9.161390e+01   1.659891e+01
  -9.837361e+01  -6.757464e+01
  -1.642993e+01  -1.034169e+02
   4.833576e+01  -4.474768e+01
   7.482349e+01   1.472596e+01
   2.935287e+01   3.923609e+01
  -7.054499e+01   5.404705e+01
  -2.342920e+01   2.720900e+01
   3.503162e+01  -1.528597e+01
   7.224043e+01  -1.647246e+01
   2.017956e+01   3.806202e+01
  -9.161703e+01   7.773234e+01
  -9.947903e+01   9.746213e+01
  -4.493007e+01   3.931450e+00
  -2.407452e+01  -9.051269e+01
   3.816086e+01  -9.026998e+01
   3.259895e+01   9.746117e+00
   1.151424e+01   5.869011e+01
  -1.061499e+01   5.977536e+01
  -7.775734e+01  -4.939486e+01
  -4.058920e+01  -6.109701e+01
   3.886456e+00  -3.988697e+01
   3.703084e+01   2.086939e+01
   3.650034e+01   1.606712e+01
  -8.713881e+00  -3.971388e+01
   4.873670e+00  -2.316300e+01
  -7.155672e+00  -1.919157e+01
   1.358074e+01   5.282611e+01
  -1.800354e+01   2.993311e+01
  -1.754322e+01   1.541320e+00
  -1.764262e+01  -1.566369e+01
   1.757680e+01  -7.428675e+01
   6.331204e+01  -1.667811e+01
   5.040704e+01   2.739071e+01
   1.840518e+01   3.589589e+01
  -4.580157e+01   1.082126e-01
  -5.861332e+01  -2.886429e+01
  -3.995489e+01  -3.920146e+01
   3.197910e+01  -5.751680e+01
   5.571644e+01  -2.199525e+01
   1.267157e+01   1.143148e+00
  -2.732334e+01   7.730193e+00
  -3.938279e+01  -1.912579e+01
   2.972519e+01  -1.136196e+01
   1.091605e+02   2.383009e+00
