
 $NMID
 id='ANONYMOUS ', fmtdat='(2E16.6)'
 volume=1.0
 tramp=1.0
 $END
   3.984209e+03   1.027878e+00
   2.247215e+03   2.453633e+03
  -5.249337e+02   2.358255e+03
  -1.865402e+03   7.524330e+02
  -8.483588e+02  -6.494106e+02
   5.550155e+02  -3.629157e+02
   8.610935e+02   4.133522e+02
  -5.106502e+00   9.867225e+02
  -7.918749e+02   6.606123e+02
  -8.257310e+02  -1.050294e+02
  -3.751857e+02  -8.211036e+02
   2.002216e+02  -7.824600e+02
   5.962134e+02  -4.684848e+01
   3.093406e+02   6.206564e+02
  -2.608965e+02   6.040524e+02
  -5.002480e+02  -3.569252e+01
  -1.615953e+02  -6.054821e+02
   3.172406e+02  -4.700920e+02
   5.456861e+02  -2.288254e+00
   2.932387e+02   2.938807e+02
   1.843249e+00   3.126480e+02
  -1.766141e+02   1.924226e+02
  -1.604388e+02   3.309565e+01
   9.552134e+01  -3.110901e+01
   2.822660e+02   1.027206e+02
   1.651186e+02   3.420050e+02
  -3.658358e+02   3.078799e+02
  -7.363374e+02  -8.399476e+01
  -3.537804e+02  -4.911606e+02
   3.423965e+02  -4.254774e+02
   5.859424e+02   5.820430e+01
   3.244164e+02   3.771360e+02
  -2.452022e+02   4.515491e+02
  -4.803654e+02   1.912298e+02
  -3.412999e+02  -1.723868e+02
  -9.758872e+01  -4.005041e+02
   1.527100e+02  -2.582874e+02
   1.653152e+02   1.692310e+02
  -1.466240e+02   3.786468e+02
  -3.498230e+02   3.587256e+00
  -1.634395e+02  -5.804299e+02
   2.560463e+02  -5.507219e+02
   5.165956e+02   4.579042e+00
   2.143204e+02   4.797212e+02
  -2.810598e+02   2.733605e+02
  -3.174826e+02  -2.763144e+02
   7.392642e+01  -4.629703e+02
   4.824915e+02  -1.450173e+02
   5.257656e+02   3.690588e+02
   1.099573e+02   4.893731e+02
  -3.512982e+02   3.194261e+02
  -5.631753e+02  -8.214137e+01
  -3.269566e+02  -3.674772e+02
   1.649435e+02  -3.050843e+02
   3.454963e+02  -3.601131e+01
   2.044099e+02   1.696560e+02
  -1.238396e+02   7.869666e+01
  -1.269102e+02  -1.357652e+02
   1.582662e+02  -1.750461e+02
   3.026143e+02   7.306568e+01
   1.042797e+02   2.764095e+02
  -1.888714e+02   2.176663e+02
  -2.554897e+02   6.798002e+01
  -1.561172e+02  -8.573286e+01
   1.607383e+01  -1.597169e+02
   1.493186e+02  -2.590838e+02
   2.727610e+02  -1.613590e+02
   2.163438e+02   1.149519e+02
   5.850365e+01   3.747760e+02
  -1.241781e+02   2.920540e+02
  -1.317202e+02   9.222134e+01
  -4.173104e+01  -3.011178e+01
  -2.879890e+01   7.380951e+01
  -1.539693e+02   1.023949e+02
  -2.107744e+02  -5.610062e+01
  -1.123907e+02  -2.498553e+02
   6.125817e+01  -2.272187e+02
   1.973905e+02   1.146846e+01
   1.384305e+02   1.987077e+02
  -2.672278e+01   2.538205e+02
  -2.120088e+02   9.587887e+01
  -3.161320e+02  -1.372280e+02
  -1.941565e+02  -2.827549e+02
   9.233754e+01  -2.495394e+02
   1.986512e+02  -1.039005e+02
   1.288232e+02  -2.471007e+00
   6.904758e+01  -3.695662e+01
   1.895020e+02  -6.464240e+01
   3.205273e+02   8.603784e+01
   2.754021e+02   2.373301e+02
   1.602583e+01   3.715589e+02
  -2.915297e+02   3.325777e+02
  -3.991770e+02   1.352765e+02
  -2.848321e+02  -7.153118e+01
  -3.251854e+01  -2.691809e+02
   1.334762e+02  -2.120943e+02
   6.357893e+01  -1.256000e+01
  -8.265400e+01   9.213883e+01
  -1.937925e+02  -1.950556e+01
  -3.666762e+01  -1.646309e+02
   1.627814e+02  -1.603443e+02
   1.487751e+02   5.282715e+01
  -1.301725e+01   1.796607e+02
  -1.478053e+02   2.140348e+01
  -1.216300e+02  -2.009032e+02
   3.446425e+01  -2.832896e+02
   1.930653e+02  -1.441543e+02
   2.296322e+02   5.951937e+01
   2.333517e+02   2.229055e+02
   6.875383e+01   2.395064e+02
  -1.058081e+02   1.269695e+02
  -1.718913e+02   6.506159e+01
  -3.632173e+01  -1.647182e+01
   2.134876e+01   5.406980e+01
   1.814594e+01   1.001931e+02
  -9.142848e+01   9.479797e+01
  -1.258290e+02  -1.498948e+01
  -2.106548e+01  -5.709824e+01
   5.258604e+01  -2.061380e+01
   5.001616e+01   9.118064e+01
  -1.092230e+02   4.644422e+01
  -2.344891e+02   1.487343e+01
  -2.200390e+02  -1.276729e+02
  -4.439120e+01  -2.507808e+02
   1.325129e+02  -2.327331e+02
   2.348279e+02  -1.521709e+02
   1.431454e+02   6.798676e+01
  -4.177083e+01   9.387651e+01
  -7.276672e+01   3.441286e+01
   3.555851e+01  -7.819910e+01
   1.723608e+02  -1.770520e+01
   1.695963e+02   7.008503e+01
   4.132038e+01   1.773673e+02
  -7.862632e+01   1.369105e+02
  -1.284955e+02   5.431131e+01
  -5.829764e+01  -3.770986e+01
   1.152250e+01   1.155607e+01
   4.353204e+01   6.653071e+01
  -5.984812e+01   9.356345e+01
  -1.556012e+02  -1.423634e+01
  -1.553347e+02  -1.070989e+02
   5.708424e+00  -1.839967e+02
   1.452477e+02  -1.385809e+02
   1.610371e+02  -9.782436e+00
   2.436497e+01   1.016204e+02
  -5.516362e+01   1.063921e+02
  -6.470740e+01   4.600243e+01
  -1.249486e+01  -1.652682e+01
  -4.992613e+00  -3.976240e+01
   8.573932e-01  -9.227543e+00
  -5.835775e+01  -9.316866e+00
  -6.756941e+01  -5.396723e+01
  -1.269051e+01  -1.253036e+02
   1.098174e+02  -1.125845e+02
   2.055831e+02  -8.744595e+00
   1.508048e+02   1.121462e+02
   1.372703e+01   1.979224e+02
  -8.554674e+01   1.269081e+02
  -1.333171e+02   2.183773e+01
  -5.751335e+01  -3.022696e+01
  -1.765688e+01  -2.311097e+01
  -4.392550e+01   1.677369e+01
  -4.264717e+01  -1.890716e+01
  -3.931791e+01  -4.785517e+01
   3.720804e+01  -7.237807e+01
   7.964249e+01  -5.146394e+01
   7.868949e+01   4.614771e+01
  -9.972612e-01   1.118956e+02
  -1.259175e+02   7.285250e+01
  -1.500568e+02  -6.368549e+01
  -1.051176e+02  -1.610573e+02
   1.127208e+02  -1.583591e+02
   2.108339e+02  -7.328725e+01
   2.305343e+02   6.898996e+01
   8.720710e+01   1.375944e+02
  -1.734802e+01   1.009011e+02
  -8.469681e+01   7.728243e+01
  -8.320130e+01   6.073872e+01
  -4.051308e+01   6.266148e+01
  -1.060587e+02   3.255331e+01
  -1.186401e+02  -7.649269e+00
  -8.558577e+01  -1.502650e+02
   5.795163e+00  -1.805339e+02
   8.777313e+01  -1.447501e+02
   1.533255e+02  -4.792777e+00
   8.554718e+01   1.000369e+02
   2.109405e+01   1.568552e+02
  -4.561598e+01   8.032321e+01
  -5.335141e+01   2.593535e+01
  -4.971852e+00  -3.215908e+01
  -1.022914e+00  -4.047648e+01
  -3.829352e+01  -1.223415e+01
  -5.247236e+01  -3.700891e+01
  -1.970971e+01  -3.408826e+01
   5.539129e+01  -3.141115e+01
   1.178836e+02   6.935170e+00
   9.805538e+01   2.963308e+01
   2.571971e+01   7.807193e+01
  -1.152200e+02   7.515615e+01
  -1.395127e+02   3.063796e+01
  -5.390138e+01  -5.726065e+01
   8.408968e+01  -4.111905e+01
   6.423342e+01   3.080017e+01
   5.935790e+00   4.933374e+01
  -3.940343e+01   6.646024e+01
  -4.872082e+01  -1.871855e+00
  -3.596881e+01  -5.608619e+01
  -3.616095e+01  -7.897094e+01
  -4.219459e+01  -1.011299e+01
  -5.946794e+01  -1.403511e-01
  -5.313593e+01  -5.612562e+01
   4.380462e+01  -1.251595e+02
   9.176390e+01  -1.352673e+02
   1.248998e+02  -2.497318e+01
   8.997113e+01   5.448776e+01
   1.760477e+01   9.720910e+01
  -4.966282e+01   2.878113e+01
  -5.046707e+01  -1.620477e+01
   4.859760e+01  -8.806102e+00
   8.384901e+01   1.335121e+01
   8.282771e+01   8.244942e+01
  -3.734098e+01   9.459643e+01
  -1.452398e+02   4.715811e+01
  -1.197664e+02  -2.746482e+01
  -4.122532e+01  -6.056621e+01
   6.709213e+01  -3.979654e+01
   2.870999e+01  -3.328045e+00
  -2.202191e+01   5.479851e+00
  -8.946656e+01  -2.111818e+01
   1.338793e+00  -8.246918e+01
   7.255786e+01  -1.223296e+02
   1.375983e+02  -4.267827e+01
   9.439780e+01   1.016336e+02
   1.320377e+01   1.812402e+02
  -7.918612e+01   1.335881e+02
  -7.136848e+01   1.341802e+01
  -5.340230e+01  -7.421444e+01
   1.120719e+01  -1.033183e+02
   1.768550e+01  -1.975601e+01
   3.654942e+01   1.477815e+01
   3.408426e+01   5.880030e-01
  -1.655166e+01  -3.269893e+01
   1.489398e+01   1.459376e+01
   6.424740e+01   6.303589e+01
   1.521737e+01   6.705557e+01
  -6.042129e+01   4.171807e+01
  -1.217969e+02  -3.447363e+01
  -1.166913e+02  -7.691185e+01
  -3.211048e+01  -2.219294e+01
   8.101253e+01  -1.908996e+01
   7.778699e+01  -3.544753e+01
   2.145861e+01  -6.111193e+00
  -1.886137e+01  -1.605771e+00
   2.035882e+01   3.804824e+01
   4.726755e+01  -3.295586e+01
   9.545716e+00  -1.744905e-02
  -9.450711e+01  -1.837506e+01
  -7.638308e+01  -3.103077e+01
  -1.273047e+01  -8.535281e+01
   1.188656e+02  -1.047521e+02
   1.698833e+02  -2.231938e+01
   9.209668e+01   5.897283e+01
   9.220016e+00   1.444778e+02
  -7.286238e+01   1.126917e+02
  -8.915687e+01   1.218863e+01
  -6.314771e+01  -2.468519e+01
  -8.088309e+00  -4.506586e+01
  -1.389116e+01   1.021091e+01
   1.793311e+01  -6.003175e+00
  -2.383809e+01  -2.414842e+01
  -2.648651e+01  -7.380613e+01
   1.367901e+01  -5.993713e+01
   4.732481e+01   2.933572e+01
   9.603749e+01   9.177549e+01
  -4.471013e+00   8.398874e+01
  -7.601461e+01   2.115024e+01
  -7.262725e+01  -6.741677e+01
  -2.372272e+01  -9.008868e+01
   7.721204e+01  -3.135583e+01
   8.442972e+01   2.144242e+01
   4.740263e+01   3.793772e+01
  -1.968408e+01   3.680015e+01
   3.461297e+00   3.886142e+01
   1.350653e+01   1.264143e+01
   4.622541e+01   1.510471e+01
   4.103046e+00   2.517571e+01
  -6.173102e+01   2.969420e+01
  -6.928019e+01   6.836278e+01
  -5.434149e+01  -6.825862e+00
  -1.113503e+01  -6.009526e+01
   3.651985e+01  -6.231735e+01
   3.738742e+01  -7.976621e+00
  -8.006274e+00   6.308813e+01
  -3.780063e+01   4.738231e+01
  -3.482048e+01  -1.923737e+01
  -1.653143e+01  -3.373754e+01
   2.291099e+01  -2.949663e+01
   3.847724e+01  -8.916912e+00
   4.668926e+01   2.767825e+01
   1.157782e+01  -1.476257e+01
   9.222568e+00   1.942140e+01
  -1.718071e+00   1.902744e+00
   3.503835e+00   3.328571e+01
  -9.971496e+00   3.681990e+01
  -3.524757e+01   2.390055e+01
  -1.356267e+01  -6.135252e+01
   5.559680e+00  -4.532285e+01
   4.054933e+01  -2.338260e+01
   3.959209e+01   5.142940e+01
   1.109704e+01   6.092007e+01
  -2.213564e+01   1.221871e+01
  -5.992052e+01  -4.755261e+00
  -5.324727e+01  -5.489200e+00
   3.566746e+01  -1.702938e+01
   3.160178e+01  -3.421497e+01
   4.167938e+00  -8.429996e+00
  -2.161748e+00   9.326955e+00
  -1.629647e+01  -3.588066e+01
   2.214390e+01  -3.051272e+00
   9.873443e+01  -1.404292e+01
