
 $NMID
 id='ANONYMOUS ', fmtdat='(2E16.6)'
 volume=1.0
 tramp=1.0
 $END
   3.614453e+03   2.135743e+02
   2.083951e+03   2.408562e+03
  -6.595870e+02   2.331041e+03
  -1.892058e+03   5.361029e+02
  -7.727934e+02  -5.470345e+02
   5.029012e+02  -4.844041e+02
   7.122078e+02   4.421497e+02
  -3.279768e+01   8.836594e+02
  -6.681810e+02   5.974416e+02
  -7.461941e+02  -1.410336e+02
  -3.206469e+02  -7.088762e+02
   2.350856e+02  -6.845799e+02
   5.254414e+02  -8.307852e+01
   2.846228e+02   5.289388e+02
  -1.966914e+02   6.162610e+02
  -4.658497e+02   8.171601e+00
  -1.715861e+02  -5.452205e+02
   2.825184e+02  -5.075118e+02
   4.422588e+02  -3.811020e+01
   3.074985e+02   2.733931e+02
   2.778702e+01   3.372305e+02
  -1.797548e+02   2.140511e+02
  -2.135480e+02   2.134269e+01
   5.418198e+01  -6.533742e+01
   3.130961e+02   6.602175e+01
   1.766291e+02   3.170597e+02
  -3.456953e+02   3.007741e+02
  -6.728856e+02  -5.686711e+01
  -3.723604e+02  -4.231776e+02
   2.951942e+02  -4.085427e+02
   5.785332e+02   2.198479e+01
   2.954273e+02   4.175185e+02
  -2.311744e+02   3.702652e+02
  -4.811538e+02   1.764113e+02
  -3.236294e+02  -1.854760e+02
  -5.901928e+01  -4.045049e+02
   1.621429e+02  -2.244359e+02
   1.540922e+02   1.735710e+02
  -1.448980e+02   3.847416e+02
  -3.606474e+02  -5.232752e+00
  -1.935446e+02  -5.131516e+02
   2.896358e+02  -5.493639e+02
   4.649393e+02  -1.574163e+01
   1.954180e+02   4.795000e+02
  -2.179904e+02   2.408999e+02
  -3.144542e+02  -2.568955e+02
   1.083397e+02  -4.295668e+02
   4.310868e+02  -7.422541e+01
   4.637783e+02   3.146219e+02
   1.183306e+02   4.835505e+02
  -2.674832e+02   2.727604e+02
  -4.846825e+02  -7.667803e+01
  -2.918465e+02  -2.961033e+02
   8.661390e+01  -2.644147e+02
   3.402984e+02  -5.707384e+01
   1.742527e+02   1.563103e+02
  -8.864842e+01   8.991762e+01
  -9.901057e+01  -1.306394e+02
   1.375864e+02  -1.635684e+02
   2.442899e+02   7.613495e+01
   6.091984e+01   1.770376e+02
  -1.708063e+02   1.665166e+02
  -2.318741e+02   3.739089e+01
  -1.235174e+02  -8.421647e+01
   2.447019e+01  -1.759482e+02
   1.814480e+02  -2.228541e+02
   2.525862e+02  -1.766439e+02
   2.100347e+02   8.857603e+01
   8.494758e+01   4.073475e+02
  -8.348205e+01   3.141993e+02
  -1.312721e+02   8.662329e+01
  -4.470202e+01  -6.179447e+00
  -4.210783e+01   6.718417e+01
  -1.389883e+02   7.079373e+01
  -2.168089e+02  -4.670122e+01
  -1.097020e+02  -2.099976e+02
   3.929832e+01  -1.995863e+02
   1.758379e+02  -1.165868e+01
   1.499072e+02   1.626990e+02
  -1.912909e+01   2.221431e+02
  -2.174333e+02   8.202724e+01
  -2.704053e+02  -1.357331e+02
  -1.288533e+02  -2.914298e+02
   9.783467e+01  -2.425765e+02
   2.091994e+02  -1.522468e+02
   1.308699e+02  -3.018762e+00
   6.545010e+01  -2.747135e+01
   1.734027e+02  -4.380162e+01
   3.270620e+02   5.759012e+01
   2.468387e+02   2.010727e+02
  -1.362961e+01   3.533439e+02
  -3.227883e+02   3.088875e+02
  -4.038232e+02   1.436745e+02
  -2.685972e+02  -5.937326e+01
  -5.192139e+01  -2.257377e+02
   1.193151e+02  -2.093672e+02
   6.040220e+01  -4.863173e+01
  -8.810671e+01   1.019283e+02
  -1.687789e+02  -1.289734e+01
  -3.717853e+01  -1.472542e+02
   9.629495e+01  -1.188002e+02
   1.397656e+02   6.714532e+01
   1.290860e+01   1.561359e+02
  -1.396787e+02   3.327395e+01
  -1.097600e+02  -2.039870e+02
   4.426552e+01  -2.531073e+02
   1.718384e+02  -1.380266e+02
   2.316214e+02   6.368490e+01
   2.122757e+02   2.132107e+02
   1.008030e+02   1.699174e+02
  -9.582287e+01   1.360401e+02
  -1.244773e+02   5.749075e+01
  -6.090706e+01  -2.716345e+01
   5.080287e+01   3.773196e+01
   3.032621e+01   9.690161e+01
  -7.463849e+01   7.236636e+01
  -1.572941e+02  -2.651957e+00
  -6.785053e+01  -5.761214e+01
   5.173173e+01  -3.376924e+01
   1.088296e+01   4.600335e+01
  -1.121854e+02   4.292879e+01
  -2.437269e+02  -4.623466e+00
  -1.816148e+02  -9.281372e+01
  -5.276213e+01  -1.921975e+02
   1.536584e+02  -1.871190e+02
   2.152314e+02  -9.932061e+01
   1.543249e+02   5.628381e+01
   1.030011e+01   7.844928e+01
  -8.412671e+01  -4.028913e+00
  -1.205290e+01  -7.630303e+01
   1.582478e+02  -5.867362e+01
   1.553894e+02   6.545165e+01
   5.256045e+01   1.468174e+02
  -5.709449e+01   1.257508e+02
  -1.051677e+02   2.304195e+01
  -5.362281e+01  -2.162383e+01
   1.899406e+01   4.684821e+00
   3.482646e+01   5.251724e+01
  -6.300980e+01   1.065547e+02
  -1.623727e+02   3.048207e+01
  -1.396671e+02  -9.760178e+01
  -3.094179e+01  -1.618185e+02
   1.444293e+02  -1.553377e+02
   1.512146e+02  -7.220813e+00
   6.552816e+01   7.941652e+01
  -3.371741e+01   8.519350e+01
  -7.606605e+01   5.536171e+01
  -1.627731e+01  -3.270517e+00
  -1.855483e+01   4.193561e+01
  -3.154352e+01   1.099011e+01
  -8.900302e+01  -1.897162e+01
  -4.588877e+01  -7.781677e+01
  -3.443585e+01  -1.262438e+02
   1.069594e+02  -1.337422e+02
   1.787643e+02  -1.688902e+01
   1.316226e+02   1.081665e+02
   3.430964e+01   1.908254e+02
  -7.652622e+01   1.368702e+02
  -1.126433e+02   2.374113e+01
  -4.408750e+01  -4.308996e+01
  -4.590185e+01  -2.985813e+01
  -4.800413e+01  -8.265109e+00
  -7.844178e+01  -1.820671e+01
   4.946081e+00  -4.610848e+01
   5.190411e+01  -5.824070e+01
   9.361600e+01  -3.847811e+01
   5.957336e+01   7.953674e+00
  -5.396408e+00   9.032047e+01
  -9.885523e+01   6.143246e+01
  -1.629517e+02  -5.582636e+01
  -6.178817e+01  -1.763290e+02
   8.145137e+01  -1.610949e+02
   2.195099e+02  -7.571673e+01
   2.050723e+02   1.210409e+02
   8.885371e+01   1.336501e+02
  -2.917129e+01   9.421689e+01
  -9.795594e+01   6.034281e+01
  -6.046015e+01   5.887569e+01
  -4.892005e+01   8.256303e+01
  -4.389140e+01   3.267458e+01
  -1.030733e+02  -2.446652e+01
  -1.045402e+02  -1.297313e+02
   1.081957e+01  -1.939676e+02
   7.989600e+01  -1.424099e+02
   1.651054e+02  -4.547180e+01
   9.812677e+01   1.182229e+02
  -4.724456e+00   1.322947e+02
  -2.131669e+01   6.335240e+01
  -3.352521e+01  -1.279843e+01
   6.350461e+00  -6.403568e+01
   2.325629e+01  -3.374152e+01
  -4.291282e+01  -2.943875e+00
  -5.805157e+01  -2.363625e+01
  -3.890635e+01  -3.072731e+01
   5.363102e+01  -9.926148e+00
   1.295451e+02   1.937216e+01
   9.730960e+01   4.142283e+01
  -2.134763e+01   9.077494e+01
  -9.360746e+01   5.762800e+01
  -1.228860e+02  -1.855665e+01
  -3.685831e+01  -3.501333e+01
   4.502324e+01  -1.935177e+01
   6.044371e+01   3.409912e+01
   9.037675e+00   7.009405e+01
  -5.399166e+01   4.740879e+01
  -4.381280e+01   6.470272e+00
  -5.504314e+01  -5.318992e+01
  -7.231700e+01  -3.772114e+01
  -4.364891e+01  -1.466083e+01
  -4.370352e+01  -4.480103e+01
  -1.660696e+01  -5.195606e+01
   2.573381e+01  -1.244481e+02
   8.727059e+01  -1.307340e+02
   1.217130e+02  -4.853785e+01
   8.771056e+01   5.448692e+01
   2.340912e+01   1.021650e+02
  -6.872229e+01   5.453028e+01
  -7.929283e+01   9.951802e+00
   6.220605e+01  -2.144755e+01
   1.139656e+02   4.326332e+01
   6.781442e+01   9.092812e+01
  -5.709402e+01   8.693650e+01
  -1.645063e+02   4.742809e+01
  -1.219295e+02  -1.336218e+01
  -4.505353e+01  -6.677672e+01
   3.793906e+01  -4.836514e+01
   3.520968e+01   2.795844e+01
  -2.960180e+01   5.860612e+00
  -7.449742e+01  -3.730846e+01
  -2.780577e+01  -8.755299e+01
   6.748162e+01  -1.162200e+02
   1.503542e+02  -3.132440e+01
   8.479481e+01   9.182958e+01
   1.774281e+01   1.690137e+02
  -8.194265e+01   9.511781e+01
  -9.421362e+01   5.702980e+00
  -1.862927e+01  -9.369748e+01
  -1.607817e+00  -9.876565e+01
   7.110505e+01  -2.963480e+00
   3.043853e+01   3.050811e+01
   4.860248e+00   6.111840e+00
   2.541067e+01  -7.680478e+00
  -1.022806e+01   1.762549e+01
   2.896425e+01   5.020444e+01
   2.783103e+01   1.022313e+02
  -4.066426e+01   4.239937e+01
  -1.151042e+02  -2.143942e+01
  -1.123350e+02  -3.735509e+01
  -2.091151e+01  -3.350257e+01
   2.871934e+01  -2.884097e+01
   7.787377e+01  -2.106235e+01
   3.032791e+01  -2.355726e+00
  -1.175623e+01   1.766593e+01
  -1.931187e+01   1.524798e+01
   3.515952e+01   3.049001e+01
  -2.240810e+01  -1.312999e+01
  -6.706938e+01   2.784905e+00
  -6.150484e+01  -2.377068e+01
   1.638891e+01  -4.696730e+01
   7.017184e+01  -7.961057e+01
   1.504313e+02  -5.115054e+01
   1.003847e+02   5.745693e+01
   3.000752e+01   1.210240e+02
  -4.958123e+01   1.027450e+02
  -1.272039e+02   3.055801e+01
  -6.212806e+01  -5.340079e+00
   6.147844e+00  -4.321199e+01
   4.309789e+01  -3.508067e+01
  -2.521833e+01   5.370709e+00
   3.413150e+00  -5.177023e+00
  -2.200803e+01  -6.267969e+01
  -7.724257e+00  -4.573820e+01
   6.586905e+01   1.589063e+01
   4.016973e+01   8.458592e+01
   1.667800e+00   8.321647e+01
  -4.904197e+01   1.601611e+01
  -6.143393e+01  -6.893790e+01
  -2.106537e+01  -7.359832e+01
   5.692632e+01  -3.113328e+01
   6.230249e+01   1.222722e+01
   2.169314e+01   4.136349e+01
  -3.171403e+01   4.259109e+01
  -2.557214e+01   1.888524e+01
   2.874814e+01   9.078504e+00
   2.530425e+01   1.600591e+01
  -1.229317e+01   1.935508e+01
  -8.954119e+01   3.569220e+01
  -8.334276e+01   1.125252e+01
  -4.240278e+01  -7.266653e+00
   1.202033e+01  -6.263554e+01
   5.653881e+01  -4.825664e+01
   3.357127e+01  -5.451914e+00
  -3.237451e+00   6.756899e+01
  -2.981986e+01   4.326799e+01
  -1.325607e+01  -2.118600e+01
  -2.568229e+01  -7.306848e+01
  -5.723353e+00  -3.321179e+01
   1.648711e+01  -1.170320e+01
   4.399188e+01   2.345425e+01
   3.574475e+01  -1.988834e+01
  -3.740285e+00  -2.423541e+01
   1.129249e+01  -4.543312e+00
   3.299502e+00   2.687535e+01
  -2.852589e+01   4.794824e+01
  -4.950787e+01   7.789514e+00
  -3.528297e+01  -1.367869e+01
  -3.294055e+00  -1.691887e+01
   3.764507e+01   1.420373e+00
   2.088973e+01   3.164907e+01
  -6.462632e+00   3.027111e+01
  -3.735031e+01   2.195395e+01
  -4.434710e+01  -9.839599e+00
  -2.171586e+00  -2.919375e+01
   4.731944e+01   1.233173e+01
   5.944300e+01  -1.060172e+01
   3.001647e+01  -3.088637e+00
  -2.152654e+01  -8.397960e+00
  -2.744300e+01  -1.339576e+01
   1.761064e+01  -2.795418e+01
   6.204864e+01  -1.247102e+01
