
 $NMID
 id='ANONYMOUS ', fmtdat='(2E16.6)'
 volume=1.0
 tramp=1.0
 $END
  -3.851905e+03  -2.031352e+02
  -2.206623e+03  -2.580002e+03
   7.753460e+02  -2.527848e+03
   2.009831e+03  -6.857605e+02
   8.120615e+02   6.412213e+02
  -6.276919e+02   5.834900e+02
  -7.896020e+02  -4.740654e+02
   3.791576e+01  -9.311073e+02
   7.783267e+02  -6.490713e+02
   7.744717e+02   1.414966e+02
   3.594849e+02   7.888966e+02
  -2.571889e+02   7.307471e+02
  -5.730205e+02   6.862972e+01
  -3.396002e+02  -6.659334e+02
   2.635518e+02  -6.957296e+02
   5.730157e+02   1.391330e+01
   1.699590e+02   5.908172e+02
  -3.125872e+02   5.683927e+02
  -4.890022e+02   2.087082e+01
  -3.115972e+02  -3.002887e+02
  -3.768593e+01  -3.651090e+02
   2.127523e+02  -2.023453e+02
   2.226401e+02  -9.037962e+00
  -8.256838e+01   8.542410e+01
  -3.629632e+02  -5.485989e+01
  -1.925233e+02  -3.548772e+02
   4.008357e+02  -3.622786e+02
   7.624012e+02   4.320931e+01
   4.086701e+02   4.409824e+02
  -3.336599e+02   4.422420e+02
  -6.383980e+02  -4.278146e+01
  -2.828776e+02  -4.539204e+02
   2.324024e+02  -4.304682e+02
   4.743779e+02  -1.711856e+02
   3.807502e+02   2.155075e+02
   7.420891e+01   4.306789e+02
  -2.001773e+02   2.689146e+02
  -1.569571e+02  -2.335574e+02
   1.048337e+02  -3.947256e+02
   4.326562e+02   1.425607e+01
   1.933755e+02   5.569185e+02
  -3.253499e+02   6.184010e+02
  -5.052362e+02   4.374014e+01
  -2.002906e+02  -4.961770e+02
   2.693918e+02  -2.593819e+02
   3.513052e+02   2.620540e+02
  -6.718901e+01   4.926988e+02
  -4.912257e+02   9.817693e+01
  -4.953037e+02  -3.529338e+02
  -1.517737e+02  -5.263313e+02
   3.300457e+02  -3.076047e+02
   5.274645e+02   6.449100e+01
   3.129859e+02   3.866376e+02
  -1.219783e+02   2.994180e+02
  -3.769715e+02   4.105609e+01
  -2.022415e+02  -1.904724e+02
   9.305411e+01  -8.427667e+01
   1.038543e+02   1.498591e+02
  -1.344520e+02   1.979249e+02
  -2.798629e+02  -6.031530e+01
  -7.467341e+01  -2.332883e+02
   1.606319e+02  -1.924497e+02
   2.750591e+02  -2.669356e+01
   1.362443e+02   6.550745e+01
  -2.046714e+01   1.699984e+02
  -1.857509e+02   2.747033e+02
  -2.886807e+02   1.670185e+02
  -2.406290e+02  -9.000351e+01
  -6.733594e+01  -3.838482e+02
   9.041049e+01  -3.461350e+02
   1.066822e+02  -8.633294e+01
   3.389769e+01   4.243598e-01
   6.199828e+01  -6.377460e+01
   1.368781e+02  -1.137177e+02
   2.287195e+02   5.339532e+01
   1.492443e+02   2.013887e+02
  -4.406308e+01   2.093149e+02
  -1.920332e+02   2.731289e+01
  -1.832741e+02  -1.828919e+02
   2.271850e+01  -2.514890e+02
   2.457952e+02  -9.032015e+01
   3.060602e+02   1.852330e+02
   1.523898e+02   3.033613e+02
  -1.018251e+02   2.320865e+02
  -2.062693e+02   1.337252e+02
  -1.360813e+02  -3.326876e+01
  -8.174138e+01   1.228215e+01
  -1.887794e+02   3.595254e+01
  -3.684341e+02  -6.459423e+01
  -2.864605e+02  -2.562515e+02
  -7.265537e+00  -3.744294e+02
   3.271002e+02  -3.107484e+02
   4.070280e+02  -1.693768e+02
   2.919086e+02   8.075654e+01
   3.686764e+01   2.251469e+02
  -8.340580e+01   2.230241e+02
  -1.042817e+02   4.931591e+01
   1.009191e+02  -1.214444e+02
   1.505572e+02   2.687546e+01
   4.424865e+01   1.994161e+02
  -1.316680e+02   1.541311e+02
  -1.494001e+02  -4.960642e+01
   5.471608e-01  -1.663832e+02
   1.344208e+02  -3.811057e+01
   1.152372e+02   1.881874e+02
  -7.300757e+01   3.083561e+02
  -2.166035e+02   1.448326e+02
  -2.390218e+02  -4.557819e+01
  -2.021567e+02  -2.198889e+02
  -1.105668e+02  -2.297939e+02
   1.117837e+02  -1.333494e+02
   1.675357e+02  -2.284528e+01
   5.932830e+01   2.964115e+01
  -6.916408e+01  -6.546219e+00
  -3.891154e+01  -9.970335e+01
   7.108655e+01  -1.215305e+02
   1.611722e+02  -2.870934e+01
   7.180403e+01   7.668452e+01
  -6.049346e+01   1.407852e+01
  -4.956215e+01  -6.657785e+01
   1.152828e+02  -4.055899e+01
   2.308355e+02  -2.686199e+01
   2.348406e+02   1.003130e+02
   5.225759e+01   2.011062e+02
  -1.391001e+02   2.313376e+02
  -2.213066e+02   1.033166e+02
  -1.617504e+02  -5.276351e+01
   4.716720e+01  -1.014644e+02
   8.029551e+01  -2.219872e+00
  -3.627132e+01   7.562383e+01
  -1.549151e+02   6.315427e+01
  -1.828473e+02  -8.879361e+01
  -5.905476e+01  -1.728733e+02
   6.800898e+01  -1.452867e+02
   1.419795e+02  -4.881106e+01
   7.768541e+01   4.366484e+01
  -1.325179e+01   1.369643e+01
   1.745106e+01  -4.941302e+01
   5.411110e+01  -6.033137e+01
   1.753761e+02  -2.943565e+01
   1.620306e+02   9.002379e+01
   3.202474e+01   1.809121e+02
  -1.176929e+02   1.451804e+02
  -1.746428e+02   1.491187e+01
  -4.805011e+01  -8.605871e+01
   3.255998e+01  -8.550675e+01
   6.862733e+01  -2.951873e+01
  -2.609761e+00   3.690574e+01
   6.807973e+00   3.538761e+00
   7.439212e+00  -1.213939e+01
   6.184164e+01   1.668741e+01
   6.026231e+01   8.433140e+01
   4.233475e+01   1.253722e+02
  -9.855190e+01   1.296690e+02
  -1.859005e+02  -5.828137e+00
  -1.478460e+02  -1.476885e+02
  -2.984444e+01  -2.062684e+02
   8.097173e+01  -1.111610e+02
   1.357403e+02  -1.033030e+01
   5.831548e+01   3.297070e+01
   3.873027e+01   4.413625e+01
   4.862840e+01  -3.267090e+01
   5.415618e+01  -7.913756e+00
   2.467699e+01   6.384794e+01
  -7.366237e+01   6.035465e+01
  -8.483764e+01   4.647512e+01
  -5.273242e+01  -2.328961e+01
   5.478260e+00  -7.420135e+01
   1.114150e+02  -8.691428e+01
   1.738238e+02   5.397767e+01
   7.123074e+01   1.761098e+02
  -7.305599e+01   2.116499e+02
  -2.409576e+02   7.801126e+01
  -2.129207e+02  -8.140551e+01
  -7.667825e+01  -1.693218e+02
   5.952134e+00  -1.143154e+02
   9.722424e+01  -6.214202e+01
   4.974606e+01  -5.568853e+01
   3.349175e+01  -7.357269e+01
   6.505980e+01  -5.782925e+01
   1.052526e+02  -1.372639e+01
   1.239261e+02   1.375210e+02
   1.354375e+01   1.887212e+02
  -8.978663e+01   1.355614e+02
  -1.557949e+02   6.478294e+00
  -1.130497e+02  -1.317255e+02
  -1.171614e+01  -1.541145e+02
   4.380724e+01  -6.630901e+01
   3.548610e+01  -1.610519e+01
   1.615681e+01   8.196342e+01
  -3.548402e+01   3.132960e+01
   1.517557e+01   1.776649e+01
   4.689409e+01   3.391499e+01
   4.187313e+01   1.830773e+01
  -3.408996e+01   1.477536e+01
  -1.186240e+02  -2.414079e+01
  -1.163797e+02  -6.102213e+01
  -2.074850e+01  -7.991285e+01
   1.005043e+02  -6.457515e+01
   1.194173e+02  -5.917880e+00
   3.232143e+01   5.580929e+01
  -3.019172e+01   2.915900e+01
  -3.774582e+01  -2.549975e+01
  -4.838045e+01  -6.845949e+01
   2.902378e+01  -5.682163e+01
   5.667361e+01   9.868302e+00
   1.884666e+01   4.298197e+01
   4.773672e+01   3.441078e+01
   4.225336e+01   6.379297e+00
   4.868341e+01   3.343560e+01
   2.923731e+01   3.735491e+01
  -3.288962e+01   1.328019e+02
  -9.682487e+01   1.309566e+02
  -1.252496e+02   2.559272e+01
  -9.052297e+01  -8.533043e+01
  -1.224345e+00  -1.200981e+02
   7.788268e+01  -3.214068e+01
   6.267946e+01  -2.186680e+00
  -7.273506e+01   1.461938e+00
  -1.495031e+02  -5.396531e+01
  -7.145425e+01  -1.091680e+02
   7.543699e+01  -1.066742e+02
   1.372091e+02  -2.173897e+01
   1.407402e+02   2.650512e+01
   5.859109e+01   6.208903e+01
  -4.919797e+01   5.255799e+01
  -3.173810e+01   5.246078e+00
   6.037595e+01  -3.534128e+01
   8.129184e+01   2.954703e+01
   2.221420e+01   1.145024e+02
  -7.479316e+01   1.254141e+02
  -1.271758e+02   6.486391e+01
  -1.053227e+02  -1.038170e+02
  -2.513166e+01  -1.724203e+02
   1.037179e+02  -1.172991e+02
   7.887533e+01   2.068230e+01
   5.052110e+01   1.106126e+02
  -1.048474e+01   1.063200e+02
  -4.245987e+01   1.410468e+01
  -3.725842e+01  -2.459468e+01
  -5.803797e+01   1.172091e+01
  -3.221826e+00   1.200568e+01
  -2.250593e+01  -7.851894e+00
  -4.795880e+01  -7.541550e+01
  -1.984906e+01  -8.841546e+01
   5.282035e+01  -3.522683e+01
   1.047369e+02   3.565309e+01
   1.310159e+02   6.835427e+01
   1.176851e+01   3.291894e+01
  -8.954972e+01   1.760575e+01
  -1.019090e+02  -6.631940e+00
  -1.018472e+01  -9.019930e-01
   1.444358e+01  -4.055615e+01
   3.202278e+01  -2.590125e+01
  -2.652621e+01  -1.651833e+00
   1.632652e+01   6.876779e+00
   5.065233e+01  -3.882186e+00
   8.165072e+01   2.296636e+01
  -3.132597e+01   4.226156e+01
  -9.786384e+01   7.048518e+01
  -1.345172e+02   3.531200e+01
  -1.105875e+02  -6.427038e+01
  -1.653892e+01  -1.416944e+02
   4.771592e+01  -1.243976e+02
   1.221862e+02  -5.114598e+01
   8.007781e+01   3.045088e+01
   9.769010e+00   4.143775e+01
  -1.281914e+01   2.955430e+01
   8.665332e-01   6.529581e+00
   8.144287e+00   3.079673e+00
   2.512737e+01   5.855369e+01
  -2.310321e+00   7.055440e+01
  -6.691942e+01  -3.367715e+00
  -6.709494e+01  -7.670460e+01
   3.368862e+01  -6.974440e+01
   6.553626e+01   1.558134e+01
   9.738346e+01   7.433885e+01
   2.626693e+01   1.058269e+02
  -4.547380e+01   5.305486e+01
  -9.184328e+01  -8.917663e+00
  -2.982296e+01  -4.095085e+01
   4.818031e+01  -3.846228e+01
   3.034305e+01  -2.200433e+01
  -3.939427e+01  -8.365022e+00
  -7.682452e+01  -1.786594e+01
  -3.383914e+01  -2.298766e+01
   9.150119e+01  -4.885333e+01
   9.983390e+01  -3.796250e+01
   6.711473e+01   2.035907e+01
  -1.797112e+01   6.080320e+01
  -6.303323e+01   4.110951e+01
  -1.518841e+01   3.793744e+00
   2.328175e+01  -7.369444e+01
   3.558434e+01  -2.216129e+01
   4.038974e+01   2.660370e+01
   3.153585e+01   4.856031e+01
   4.818049e+00   5.215369e+01
  -3.745641e+01  -1.398944e+01
  -7.474626e+01  -1.385348e+01
  -3.263762e+01   1.555935e+01
   2.458539e+01   3.968587e+01
  -3.358261e+00   1.158527e+01
   3.101573e+00  -3.862972e+01
   1.397261e+01  -2.108744e+01
   4.204851e+01   4.805928e-01
   5.973036e+00   6.652959e+01
  -9.698969e+00   4.906627e+01
  -2.965640e+01   1.231242e+01
  -6.054182e+01  -5.721517e+01
  -3.008678e+00  -8.184919e+01
   3.714430e+01  -1.449384e+01
   8.785043e+01   7.985792e+00
   1.504929e+01   4.944371e+01
  -2.471550e+01   1.423729e+01
  -5.516277e+01   2.179055e+01
  -2.760086e+01  -2.694771e+00
  -1.353379e+00   9.183455e+00
   2.858424e+01   3.399393e+00
  -4.423922e+01   1.264289e+01
  -6.272165e+01   2.047222e+01
