
 $NMID
 id='ANONYMOUS ', fmtdat='(2E16.6)'
 volume=1.0
 tramp=1.0
 $END
  -4.444674e+03  -3.169214e+01
  -2.461200e+03  -2.611781e+03
   7.336940e+02  -2.819559e+03
   2.143616e+03  -7.858824e+02
   9.713119e+02   7.344851e+02
  -7.371672e+02   6.257335e+02
  -9.462628e+02  -6.292948e+02
  -1.946631e+01  -1.193375e+03
   9.049675e+02  -8.246411e+02
   1.008795e+03   1.535090e+02
   4.484448e+02   9.417879e+02
  -2.983708e+02   9.246221e+02
  -6.918981e+02   7.383685e+01
  -3.519524e+02  -7.219921e+02
   2.815704e+02  -7.566688e+02
   6.712614e+02   5.005378e+01
   2.789071e+02   7.033107e+02
  -3.146665e+02   6.515947e+02
  -5.848394e+02   3.833465e+01
  -3.938054e+02  -3.421620e+02
   1.212143e+01  -4.546489e+02
   2.701691e+02  -2.324915e+02
   2.365159e+02   1.061465e+01
  -1.344889e+02   1.244756e+02
  -4.401519e+02  -1.256157e+02
  -2.324981e+02  -4.584439e+02
   4.683531e+02  -4.672763e+02
   8.662503e+02   7.776240e+01
   4.376670e+02   5.627494e+02
  -4.202548e+02   5.105340e+02
  -7.890013e+02  -7.062638e+01
  -3.741792e+02  -5.095940e+02
   2.739999e+02  -5.309981e+02
   5.972719e+02  -1.953002e+02
   4.166811e+02   2.590724e+02
   5.766704e+01   4.916111e+02
  -2.210316e+02   2.725536e+02
  -2.073641e+02  -2.303841e+02
   1.563195e+02  -4.446836e+02
   4.702581e+02   1.233904e+01
   2.693828e+02   6.734678e+02
  -2.848182e+02   7.370193e+02
  -6.389792e+02   5.786898e+00
  -3.101674e+02  -5.501291e+02
   3.079974e+02  -3.697138e+02
   4.229531e+02   2.996357e+02
  -3.734972e+01   5.626506e+02
  -5.836803e+02   1.484206e+02
  -6.028126e+02  -4.239626e+02
  -1.652235e+02  -6.043009e+02
   3.799478e+02  -3.671541e+02
   6.155156e+02   8.909701e+01
   3.768108e+02   4.007440e+02
  -1.634229e+02   3.575420e+02
  -4.461293e+02   1.056703e+02
  -2.713404e+02  -2.015590e+02
   1.564944e+02  -1.205542e+02
   1.605007e+02   1.703687e+02
  -1.275832e+02   2.092850e+02
  -3.378422e+02  -5.756344e+01
  -1.569643e+02  -3.013218e+02
   2.129982e+02  -2.684710e+02
   3.228282e+02  -6.407889e+01
   2.066308e+02   9.382706e+01
  -6.737920e+00   2.573288e+02
  -2.090013e+02   3.306140e+02
  -3.335082e+02   2.114197e+02
  -2.951475e+02  -1.464719e+02
  -1.136478e+02  -4.347668e+02
   9.759650e+01  -3.759960e+02
   1.350611e+02  -1.017380e+02
   1.833928e+01   7.396897e+00
   4.848468e+01  -9.971841e+01
   2.075277e+02  -1.444006e+02
   2.880952e+02   2.476193e+01
   1.709949e+02   2.685615e+02
  -6.994005e+01   2.717750e+02
  -2.462896e+02   5.109139e+01
  -1.987916e+02  -2.649196e+02
   2.211411e+01  -2.780257e+02
   2.410096e+02  -1.136166e+02
   3.684111e+02   1.410048e+02
   1.752724e+02   3.461332e+02
  -1.123410e+02   2.976033e+02
  -2.297019e+02   9.962561e+01
  -1.474575e+02   2.382500e+01
  -1.248644e+02   3.363060e+01
  -2.301230e+02   7.425621e+01
  -3.983020e+02  -4.439908e+01
  -3.179258e+02  -2.718413e+02
  -2.257709e+01  -4.193564e+02
   3.133459e+02  -4.024436e+02
   4.896473e+02  -2.114778e+02
   3.334225e+02   1.009682e+02
   6.990758e+01   2.866730e+02
  -1.385263e+02   2.626000e+02
  -1.008546e+02   1.401359e+01
   9.804827e+01  -1.036994e+02
   2.120460e+02  -4.406906e+00
   8.351638e+01   2.205771e+02
  -1.530824e+02   1.571266e+02
  -2.046533e+02  -6.527969e+01
   3.106199e+01  -2.218930e+02
   1.754813e+02  -4.151060e+01
   1.430776e+02   2.295247e+02
   8.275442e+00   3.317395e+02
  -2.105163e+02   1.962628e+02
  -3.112327e+02  -8.759205e+01
  -2.584543e+02  -2.595518e+02
  -1.019659e+02  -2.573987e+02
   1.334379e+02  -1.668903e+02
   1.693436e+02  -2.684133e+01
   5.953576e+01   3.718378e+01
  -7.714520e+01  -5.048354e+01
  -2.799120e+01  -1.288861e+02
   1.229759e+02  -8.007764e+01
   1.904491e+02   1.881134e+01
   6.229403e+01   5.844179e+01
  -8.350863e+01   7.281083e+00
  -5.008978e+01  -6.782754e+01
   1.271152e+02  -9.423021e+01
   2.488736e+02  -2.100690e+01
   2.577510e+02   1.151196e+02
   3.612505e+01   2.449456e+02
  -1.872115e+02   2.673573e+02
  -2.884612e+02   1.383989e+02
  -1.813155e+02  -6.218502e+01
   5.807811e+00  -1.207708e+02
   9.982124e+01  -1.185714e+01
  -3.416127e+01   1.087559e+02
  -1.736880e+02   6.017746e+01
  -2.024209e+02  -9.731730e+01
  -5.890137e+01  -1.847104e+02
   6.364605e+01  -1.427895e+02
   1.461932e+02  -4.598160e+01
   7.812162e+01   1.872448e+01
  -2.057853e+01   8.169818e+00
  -1.197205e+01  -8.032767e+01
   5.970096e+01  -1.061842e+02
   1.916912e+02  -8.820349e+00
   2.242499e+02   1.122493e+02
   2.059507e+01   1.940291e+02
  -1.651812e+02   1.687449e+02
  -1.985761e+02   5.147914e+00
  -8.814994e+01  -1.114707e+02
   9.517765e+01  -1.069446e+02
   9.855462e+01  -8.029450e-01
   3.237751e+01   1.780324e+01
  -7.651151e+00   2.415380e+01
   1.772706e+00   1.082854e+01
   8.809038e+01   1.808261e+01
   8.820711e+01   7.771704e+01
   2.121462e+01   1.279306e+02
  -1.275697e+02   1.459987e+02
  -2.551134e+02   3.031624e+01
  -2.022997e+02  -1.501725e+02
  -3.012424e+01  -2.248663e+02
   1.103922e+02  -1.487971e+02
   1.286995e+02  -5.432782e+01
   3.915975e+01   6.176196e+01
   1.016152e+00   7.213990e+00
   5.107147e+01   1.228629e+01
   8.562413e+01  -1.575129e+01
   4.534056e+01   3.656972e+01
  -5.036303e+01   8.009849e+01
  -8.813874e+01   3.298741e+01
  -8.087744e+01  -4.383811e+01
  -2.565453e+01  -1.144795e+02
   1.352262e+02  -9.562359e+01
   1.797069e+02   4.379447e+01
   1.053084e+02   2.018762e+02
  -8.810239e+01   2.310495e+02
  -2.533709e+02   1.086277e+02
  -2.489937e+02  -6.864213e+01
  -9.658055e+01  -1.523996e+02
   4.507595e+01  -1.649092e+02
   1.168856e+02  -6.819885e+01
   6.993564e+01  -5.737823e+01
   4.937097e+01  -8.748524e+01
   9.185623e+01  -8.792771e+01
   1.332971e+02   2.324402e+01
   1.440659e+02   1.133140e+02
   3.941349e+01   2.300494e+02
  -9.478915e+01   1.868711e+02
  -1.548752e+02   4.478826e+00
  -1.148360e+02  -1.154763e+02
  -2.588300e+01  -1.278588e+02
   7.135181e+01  -9.945555e+01
   5.795306e+01   4.425337e+00
   2.230296e+00   5.532541e+01
  -2.643370e+01   3.705715e+01
   4.044858e+01   3.480047e+01
   8.254655e+01   2.713595e+01
   5.483339e+01   3.847573e+01
  -6.807027e+01   3.929659e+01
  -1.404272e+02  -4.469999e-01
  -1.329906e+02  -3.769135e+01
  -1.722286e+01  -7.323039e+01
   1.255853e+02  -6.857608e+01
   1.617972e+02  -1.166881e+01
   4.372117e+01   3.214187e+01
  -3.770636e+01   3.061000e+01
  -7.561215e+01  -1.713432e-01
   1.581271e+01  -8.021298e+01
   7.302083e+01  -6.337218e+01
   8.216644e+01  -1.084156e+01
   5.918211e+01   7.045394e+01
   4.001360e+01   4.037599e+01
   6.485466e+01  -2.395079e+00
   7.830813e+01   1.888278e+01
   4.447477e+01   6.732817e+01
  -1.451252e+01   1.365309e+02
  -1.091656e+02   1.322592e+02
  -1.484429e+02   5.176964e+01
  -1.135673e+02  -7.338468e+01
  -1.514770e+01  -1.290094e+02
   1.026266e+02  -4.341295e+01
   8.585539e+01  -7.154277e-02
  -5.122811e+01   4.927359e+00
  -1.145767e+02  -2.427608e+01
  -1.081708e+02  -1.048162e+02
   7.474113e+01  -1.117992e+02
   1.851572e+02  -5.896269e+01
   1.537317e+02   4.010264e+01
   3.729269e+01   8.144548e+01
  -5.364684e+01   6.868596e+01
  -1.515786e+01   1.630347e+01
   5.000887e+01  -3.120930e+01
   1.197083e+02   1.007143e+01
   3.257941e+01   1.802404e+02
  -1.314334e+02   1.597434e+02
  -1.518958e+02   3.715828e+01
  -1.291412e+02  -6.996943e+01
  -1.597412e+01  -1.614977e+02
   1.216078e+02  -1.520925e+02
   9.993914e+01   2.474492e+01
   5.823455e+01   1.031485e+02
   1.606993e+00   8.818823e+01
  -4.163206e+01   2.155799e+01
  -4.916902e+01  -1.596568e+01
  -6.134761e+00   6.187036e+00
   9.027344e+00   1.321476e+01
  -2.871460e+01   1.273219e+01
  -5.104263e+01  -6.466486e+01
  -3.019474e+01  -1.011911e+02
   5.207335e+01  -3.563510e+01
   1.030101e+02   3.952091e+01
   1.025326e+02   5.722410e+01
   2.460471e+01   3.393293e+01
  -7.276992e+01   5.119906e+01
  -6.795105e+01   2.469973e+01
  -4.386365e+00  -1.782025e+01
   1.618559e+01  -2.371562e+01
  -2.059613e+01  -2.223059e+00
  -2.509720e+01   3.802062e+00
  -9.434067e+00   9.028119e+00
   9.418537e+01   1.502142e+01
   6.862410e+01   4.748528e+01
  -2.481851e+00   8.263929e+01
  -1.252274e+02   9.343627e+01
  -1.609565e+02   5.889787e+01
  -1.291041e+02  -5.049740e+01
  -3.317401e+01  -1.584183e+02
   9.163989e+01  -1.312135e+02
   1.115762e+02  -3.942444e+01
   8.148370e+01   3.881876e+01
   3.022392e+01   2.361928e+01
   1.163765e+01   3.421347e+00
   8.219379e+00   1.636716e+01
   2.870853e+01   5.734040e+01
   1.695173e+01   1.023407e+02
  -5.186660e+01   8.591998e+01
  -8.020453e+01  -5.210675e+01
  -8.251219e+01  -8.938903e+01
   6.090744e+00  -1.503207e+02
   6.636168e+01  -2.919693e+01
   7.880901e+01   7.407489e+01
   1.063426e+01   6.541518e+01
  -6.484950e+01   5.322685e+01
  -1.130130e+02  -1.094585e+01
  -4.954615e+01  -5.375718e+01
   5.092093e+01  -2.534359e+01
   5.029234e+01  -8.742098e+00
  -5.760426e+01   1.070058e-01
  -6.496208e+01   1.191063e+01
  -5.762257e+00  -3.812458e+01
   4.618994e+01  -4.810946e+01
   1.134600e+02  -5.071859e+01
   5.534222e+01  -1.566938e+01
  -7.814013e+00   8.294319e+01
  -3.903301e+01   7.923290e+01
  -2.903773e+01   2.631695e+00
  -9.212873e+00  -8.263854e+01
   1.689329e+00  -7.624736e+01
   3.350966e+01   5.093442e+01
   3.385483e+01   9.125496e+01
  -1.453776e+01   2.214334e+01
  -3.384462e+01   9.178425e+00
  -3.509029e+01  -7.036984e+00
  -1.408426e+01  -2.448544e+01
   2.202121e+01   5.765630e+00
   6.804278e+00   1.630598e+01
   1.966089e+01  -4.434534e+01
   1.329562e+01  -2.491942e+01
  -4.774780e+00   2.663941e+01
   1.449379e+01   6.792673e+01
  -4.468734e+00   6.205603e+01
  -3.888680e+01  -9.254612e+00
  -7.924982e+01  -5.289852e+01
  -1.973470e+01  -3.271230e+01
   6.145939e+01  -3.553722e+01
   7.787990e+01   6.684274e+00
   5.071123e+01   2.915516e+01
  -2.747182e+01   3.896765e+01
  -6.345458e+01   3.959188e+01
   1.322705e+00   9.933534e+00
   3.925835e+01   2.521373e+00
   3.998153e+01   2.026757e+01
  -2.205455e+01   1.394309e+01
  -1.047627e+02  -1.855097e+00
