
 $NMID
 id='ANONYMOUS ', fmtdat='(2E16.6)'
 volume=1.0
 tramp=1.0
 $END
  -4.295825e+03   8.474340e+00
  -2.348791e+03  -2.827168e+03
   7.691882e+02  -2.832171e+03
   2.147864e+03  -7.888741e+02
   9.471209e+02   6.845697e+02
  -6.602321e+02   5.339933e+02
  -8.586397e+02  -4.235719e+02
   5.694916e+00  -1.081646e+03
   8.337223e+02  -7.196048e+02
   9.065270e+02   1.007445e+02
   4.468280e+02   8.229634e+02
  -2.453329e+02   8.564497e+02
  -6.655134e+02   8.330044e+01
  -3.964576e+02  -7.260797e+02
   2.601432e+02  -7.689202e+02
   5.857844e+02  -3.495267e+00
   2.665429e+02   6.648702e+02
  -3.030097e+02   6.378388e+02
  -5.584966e+02   5.922186e+01
  -3.836115e+02  -3.764930e+02
   8.279616e+00  -4.152597e+02
   2.515686e+02  -2.618175e+02
   2.242089e+02  -2.013692e+01
  -8.268712e+01   1.008636e+02
  -3.852694e+02  -5.042332e+01
  -2.154212e+02  -4.003532e+02
   4.287498e+02  -3.975683e+02
   7.800028e+02   2.208553e+01
   3.899500e+02   5.345193e+02
  -3.659497e+02   4.893839e+02
  -7.360120e+02  -1.393471e+01
  -3.664882e+02  -4.513811e+02
   2.606673e+02  -5.143282e+02
   5.294106e+02  -1.800622e+02
   3.905251e+02   2.535961e+02
   7.868391e+01   4.689036e+02
  -2.085835e+02   2.707889e+02
  -1.748197e+02  -2.234834e+02
   1.588067e+02  -4.031748e+02
   4.312704e+02   3.373415e+01
   2.734214e+02   6.533617e+02
  -2.997066e+02   6.613018e+02
  -5.577574e+02   1.308838e+00
  -2.732629e+02  -4.797760e+02
   2.745680e+02  -3.188323e+02
   3.614751e+02   2.824494e+02
  -4.837532e+01   5.534362e+02
  -5.202911e+02   1.223223e+02
  -5.857162e+02  -3.896999e+02
  -1.501200e+02  -5.345659e+02
   3.838629e+02  -3.110329e+02
   5.722731e+02   3.968117e+01
   3.370641e+02   3.727251e+02
  -1.425663e+02   3.670097e+02
  -4.331169e+02   6.879244e+01
  -2.505773e+02  -2.063949e+02
   9.725173e+01  -1.215035e+02
   1.601977e+02   1.735448e+02
  -1.264421e+02   1.561473e+02
  -3.112505e+02  -9.076050e+01
  -1.414869e+02  -2.564648e+02
   2.272206e+02  -2.468131e+02
   2.513381e+02  -8.802194e+01
   1.501705e+02   9.673953e+01
  -3.214782e+01   2.184633e+02
  -1.802766e+02   3.033818e+02
  -3.296303e+02   1.984714e+02
  -2.755606e+02  -1.134400e+02
  -1.014705e+02  -4.291580e+02
   9.127998e+01  -3.548656e+02
   1.455289e+02  -1.191196e+02
   3.228196e+01   1.362819e+01
   5.041592e+01  -8.277391e+01
   1.390155e+02  -1.351934e+02
   2.761691e+02   5.798217e+01
   1.863704e+02   2.356740e+02
  -4.529251e+01   2.174313e+02
  -2.089004e+02   1.304638e+01
  -1.865717e+02  -1.878272e+02
   6.978539e+00  -2.958620e+02
   2.658595e+02  -1.086596e+02
   3.514893e+02   1.746717e+02
   1.740041e+02   3.420480e+02
  -9.566451e+01   2.803142e+02
  -2.265426e+02   9.369423e+01
  -1.495287e+02   1.727613e+01
  -9.809944e+01   8.604949e+00
  -2.312167e+02   7.487467e+01
  -3.858028e+02  -4.631599e+01
  -2.794314e+02  -2.584097e+02
   2.115991e+01  -4.354175e+02
   3.453507e+02  -3.501799e+02
   4.751448e+02  -1.959743e+02
   3.528124e+02   8.183006e+01
   5.599778e+01   2.565383e+02
  -1.339391e+02   2.264030e+02
  -9.285302e+01   3.103509e+01
   8.419714e+01  -8.289270e+01
   1.764747e+02  -8.992113e+00
   6.085403e+01   1.970218e+02
  -1.507924e+02   1.690278e+02
  -1.685235e+02  -4.951259e+01
   1.274399e+01  -2.070059e+02
   2.115136e+02  -4.910231e+01
   1.229764e+02   2.423127e+02
  -6.158235e+01   3.190378e+02
  -2.113416e+02   1.574920e+02
  -2.722864e+02  -7.534515e+01
  -2.332890e+02  -2.060449e+02
  -8.331913e+01  -2.240098e+02
   9.992997e+01  -1.404421e+02
   1.480222e+02  -2.488143e+01
   3.153558e+01   2.331616e+01
  -7.333584e+01  -7.250904e+01
  -2.903346e+01  -1.109043e+02
   1.291214e+02  -9.361063e+01
   1.687271e+02   1.707804e+01
   2.799095e+01   6.782560e+01
  -7.608483e+01  -1.489096e+01
  -4.262962e+01  -2.621455e+01
   1.122891e+02  -8.562668e+01
   2.448458e+02   1.256309e+01
   2.298831e+02   1.475053e+02
   8.828472e+01   2.426883e+02
  -1.866943e+02   2.325214e+02
  -2.622043e+02   1.165660e+02
  -1.445866e+02  -2.939696e+01
   9.195186e+00  -1.170215e+02
   7.823150e+01  -1.941945e+01
  -3.390540e+01   6.568119e+01
  -1.630662e+02   5.740330e+01
  -1.845147e+02  -7.956170e+01
  -4.802353e+01  -1.858168e+02
   9.794196e+01  -1.306461e+02
   1.199251e+02  -3.198985e+01
   7.406649e+01   4.289357e+01
  -2.711460e+01  -1.563062e+01
  -6.197371e+01  -9.114652e+01
   9.257016e+01  -9.880619e+01
   2.084011e+02  -2.063206e+01
   1.908285e+02   1.098018e+02
   1.508874e+01   1.901981e+02
  -1.340853e+02   1.761937e+02
  -1.857240e+02   9.897313e+00
  -5.799419e+01  -1.169607e+02
   4.907184e+01  -1.097267e+02
   6.060559e+01  -3.833757e+01
   1.173167e+00   1.854737e+01
  -4.014004e+01   6.139446e+01
  -2.070688e+00  -2.371203e+00
   6.264967e+01   1.778903e-01
   7.499609e+01   7.634832e+01
  -3.162982e+00   1.754722e+02
  -1.313767e+02   9.629339e+01
  -2.319021e+02   3.712396e+01
  -1.635332e+02  -1.377912e+02
  -1.082370e+01  -2.051419e+02
   1.316257e+02  -1.590582e+02
   1.373269e+02  -1.163450e+00
   7.554822e+01   8.220803e+01
   2.010812e+01   5.858429e+01
   2.409377e+01  -4.108177e-02
   4.265154e+01  -1.912361e+00
   2.905457e+01   2.822489e+01
  -4.566937e+01   9.750473e+01
  -6.325032e+01   2.282353e+01
  -6.645093e+01  -3.766627e+01
   2.334035e+01  -1.061784e+02
   1.239712e+02  -7.920970e+01
   1.614672e+02   4.161588e+01
   1.002776e+02   1.775125e+02
  -8.237576e+01   2.114906e+02
  -2.324891e+02   7.798915e+01
  -2.381355e+02  -7.189300e+01
  -9.676055e+01  -1.718973e+02
   3.519441e+01  -1.700291e+02
   9.080152e+01  -8.403592e+01
   9.952832e+01  -5.030744e+01
   5.737200e+01  -6.345091e+01
   6.924750e+01  -7.155829e+01
   1.516544e+02   1.613874e+01
   1.349449e+02   1.453949e+02
   9.758399e+00   2.098918e+02
  -8.246851e+01   1.667485e+02
  -1.466279e+02   4.652146e+01
  -1.157585e+02  -1.051781e+02
   3.867102e+00  -1.339350e+02
   3.907600e+01  -8.830402e+01
   5.665687e+01  -1.944649e+01
   1.107986e+01   2.825110e+01
  -1.584965e+01   4.404788e+01
   8.330570e+00   2.274496e+01
   6.846915e+01  -1.822549e+01
   1.668214e+01   1.765424e+01
  -2.730223e+01   2.563375e+01
  -1.451607e+02  -1.169217e+01
  -1.156708e+02  -2.796864e+01
  -2.622292e+01  -8.186812e+01
   1.125360e+02  -7.315193e+01
   1.226330e+02  -2.349874e+01
   4.324680e+01   4.734467e+01
  -5.402856e+01   5.612435e+01
  -9.036877e+01  -1.132625e+01
  -5.572984e+00  -5.230487e+01
   4.076395e+01  -1.024031e+02
   5.841445e+01   5.014513e+00
   3.284419e+01   3.951530e+01
   3.596854e+01   3.418392e+01
   6.099088e+01   1.597571e+01
   9.614595e+01   2.335121e+01
   3.311212e+01   7.654329e+01
  -1.734464e+01   1.141518e+02
  -9.168042e+01   9.747907e+01
  -1.296131e+02   1.591557e+01
  -1.333893e+02  -8.664856e+01
   1.645974e+01  -1.157468e+02
   1.043656e+02  -6.536065e+01
   7.004896e+01   2.317463e+01
  -3.351083e+01   1.034677e+01
  -1.310613e+02  -4.467093e+01
  -5.178841e+01  -9.192134e+01
   7.202877e+01  -1.131145e+02
   1.794683e+02  -3.655336e+01
   1.588955e+02   6.362015e+01
   4.700649e+01   9.910221e+01
  -3.193528e+01   4.402890e+01
  -4.328882e+01   1.400676e+00
   3.107942e+01  -2.166473e+01
   9.076272e+01   1.991775e+01
   3.727512e+01   1.213386e+02
  -9.425461e+01   1.385721e+02
  -1.759597e+02   3.921923e+01
  -1.159144e+02  -8.264597e+01
   1.530648e+01  -1.717637e+02
   8.042589e+01  -1.396639e+02
   1.130911e+02   1.700990e+01
   6.236123e+01   1.126823e+02
  -2.502195e+01   9.457828e+01
  -5.323968e+01   7.061217e+00
  -2.723526e+01  -2.415177e+01
  -2.523715e+01  -2.223147e+01
  -2.366983e+01   3.587298e+01
  -1.013623e+00  -3.664622e+01
  -3.809972e+01  -5.981057e+01
  -4.196929e+01  -1.037258e+02
   4.989821e+01  -6.347414e+01
   1.259074e+02   5.029464e+01
   1.230912e+02   6.104591e+01
   2.390506e+01   3.776177e+01
  -8.534651e+01   2.831422e+01
  -8.735375e+01  -3.280517e+00
   2.421304e+00  -2.034482e+01
   2.514114e+01  -1.879960e+01
  -2.252769e+01  -1.564344e+01
  -1.781598e+01  -8.677226e+00
   2.769263e+01  -8.299267e+00
   7.368998e+01   7.662229e+00
   8.567445e+01   3.023661e+01
   5.711256e+00   7.202776e+01
  -1.139619e+02   1.129651e+02
  -1.487273e+02   4.302258e+01
  -1.216301e+02  -6.327274e+01
  -2.895863e+01  -1.530367e+02
   9.467102e+01  -1.272963e+02
   1.363184e+02  -3.048261e+01
   6.880684e+01   1.592248e+01
   1.088875e+01   2.452148e+01
   2.446704e+01   1.773998e+01
   1.468105e+01   1.518759e+01
   7.147385e+00   4.911380e+01
   1.595851e+01   6.903247e+01
  -2.612682e+01   4.679140e+01
  -5.683391e+01  -4.733295e+01
  -6.037241e+01  -1.027802e+02
   1.481546e+01  -5.705784e+01
   7.740691e+01  -5.060224e+00
   9.070814e+01   6.688269e+01
   3.800522e+01   1.144495e+02
  -5.571075e+01   5.792401e+01
  -8.136490e+01  -9.496070e+00
  -4.032787e+01  -4.578027e+01
   5.199436e+01  -6.064969e+01
  -1.047916e+00  -5.097933e+01
  -3.362750e+01  -2.891980e+00
  -8.207094e+01   1.831361e+01
  -5.478902e+00   7.691037e+00
   8.654302e+01  -6.150506e+01
   1.210615e+02  -7.636882e+01
   6.130733e+01   2.250572e+00
   4.223855e-01   1.031508e+02
  -4.663903e+01   6.431655e+01
  -4.906256e+01  -7.080268e+00
  -1.695702e+01  -6.534732e+01
   5.798424e+01  -6.147216e+01
   3.054760e+01   1.382074e+01
   2.049171e+01   3.624764e+01
   4.500593e+00   5.927825e+01
  -3.226909e+01  -8.054309e+00
  -2.577522e+01  -2.284406e+01
   7.407162e-01  -2.027330e-01
   1.094006e+01  -3.271156e+00
   8.659966e+00   2.214180e+01
   2.578860e+01  -5.522189e+01
   3.078423e+01  -5.079398e+01
   2.660723e+01  -2.428716e+00
  -2.632814e+00   2.519834e+01
  -3.121004e+01   5.038314e+01
  -5.712517e+01   1.593831e+01
  -2.456714e+01  -2.982915e+01
  -1.322758e+01  -5.130941e+01
   3.676970e+01  -4.721946e+01
   7.271930e+01   1.674218e+01
   6.527171e+01   2.726086e+01
   4.693869e+00   5.994543e+01
  -4.735466e+01   1.692670e+01
  -1.286389e+01   2.449837e+01
   4.306579e+01   1.866731e+01
   1.953493e+01   2.239144e+01
  -3.485625e+01   3.423757e+01
  -9.215356e+01   1.177638e+01
