
 $NMID
 id='ANONYMOUS ', fmtdat='(2E16.6)'
 volume=1.0
 tramp=1.0
 $END
  -3.831185e+03  -2.403825e+02
  -1.923771e+03  -2.451440e+03
   7.004841e+02  -2.371239e+03
   1.873868e+03  -7.319377e+02
   8.580795e+02   5.941903e+02
  -5.096654e+02   4.225351e+02
  -7.203054e+02  -4.739535e+02
   5.620112e+00  -9.534944e+02
   7.505196e+02  -6.082734e+02
   7.847849e+02   1.394815e+02
   3.230584e+02   7.172260e+02
  -2.240602e+02   7.061267e+02
  -5.121313e+02   7.152533e+01
  -3.151568e+02  -6.166653e+02
   2.599420e+02  -6.301019e+02
   5.159748e+02   2.968610e+01
   2.214378e+02   5.783686e+02
  -2.805095e+02   5.121848e+02
  -4.703635e+02   2.648035e+01
  -2.991993e+02  -3.095542e+02
  -4.073626e+01  -3.306640e+02
   1.962866e+02  -2.235607e+02
   2.075742e+02  -3.536782e+01
  -9.489357e+01   7.506062e+01
  -3.016476e+02  -9.687033e+01
  -1.619482e+02  -3.523649e+02
   3.911840e+02  -3.375117e+02
   6.942023e+02   1.011063e+02
   3.291012e+02   4.871775e+02
  -3.400822e+02   4.069598e+02
  -5.788752e+02  -6.172834e+01
  -3.129838e+02  -3.662605e+02
   2.075652e+02  -4.099323e+02
   4.667727e+02  -1.827001e+02
   3.501296e+02   2.318432e+02
   7.526455e+01   3.938452e+02
  -1.518924e+02   2.361693e+02
  -1.543904e+02  -1.733997e+02
   1.299950e+02  -3.298855e+02
   3.746811e+02   1.680261e+00
   1.843640e+02   5.262249e+02
  -2.426719e+02   5.918678e+02
  -4.789810e+02   7.102765e+00
  -2.020380e+02  -4.367368e+02
   2.732946e+02  -2.688021e+02
   2.981740e+02   2.464215e+02
  -5.178914e+01   4.351581e+02
  -4.260354e+02   8.797849e+01
  -4.807922e+02  -3.589294e+02
  -1.400770e+02  -4.634709e+02
   2.875498e+02  -2.911364e+02
   4.629246e+02   4.665912e+01
   3.074470e+02   3.347444e+02
  -1.291551e+02   2.795612e+02
  -3.523279e+02   6.211875e+01
  -2.291122e+02  -2.048915e+02
   9.840257e+01  -1.132852e+02
   1.230683e+02   8.545300e+01
  -1.032056e+02   1.183908e+02
  -2.507068e+02  -4.867887e+01
  -9.149432e+01  -2.552673e+02
   1.987240e+02  -1.884765e+02
   2.584448e+02  -4.508200e+01
   1.139624e+02   7.480931e+01
  -3.176493e+01   1.777758e+02
  -1.807782e+02   2.665434e+02
  -2.967684e+02   1.892299e+02
  -2.440877e+02  -1.028304e+02
  -9.961758e+01  -3.762341e+02
   8.780916e+01  -3.058424e+02
   9.401292e+01  -1.160007e+02
   1.675406e+01   1.069680e+01
   4.617913e+01  -7.302927e+01
   1.415275e+02  -1.397667e+02
   2.254131e+02   3.412233e+01
   1.369439e+02   2.031062e+02
  -4.408000e+01   1.991982e+02
  -1.606684e+02  -1.588130e+01
  -1.272043e+02  -1.813849e+02
  -6.155918e+00  -2.400626e+02
   1.879106e+02  -4.986485e+01
   2.707259e+02   1.559196e+02
   1.404968e+02   2.867379e+02
  -8.072207e+01   2.333708e+02
  -1.974962e+02   7.105184e+01
  -1.320145e+02   3.375124e+01
  -8.780115e+01   5.376311e+00
  -2.159986e+02   3.589650e+01
  -3.288970e+02  -8.183764e+01
  -2.490728e+02  -2.486788e+02
   1.934569e+01  -3.383729e+02
   2.904122e+02  -3.062553e+02
   3.876783e+02  -1.795810e+02
   2.824201e+02   6.469534e+01
   3.063057e+00   2.113856e+02
  -1.133739e+02   2.175056e+02
  -1.106892e+02   2.555631e+01
   1.067811e+02  -1.057004e+02
   2.050258e+02   4.109892e+01
   5.636888e+01   1.718196e+02
  -1.312867e+02   1.610740e+02
  -1.484062e+02  -5.948099e+01
   5.908567e+00  -1.547490e+02
   1.536335e+02  -3.236872e+01
   1.153590e+02   1.856401e+02
  -2.479780e+01   3.130362e+02
  -2.141958e+02   1.512102e+02
  -2.160754e+02  -8.764764e+01
  -2.097942e+02  -1.753409e+02
  -6.077938e+01  -2.160726e+02
   8.209688e+01  -1.509909e+02
   1.280839e+02  -1.928289e+01
   1.741160e+01  -1.224696e+01
  -5.993407e+01  -3.628054e+01
  -3.059996e+01  -1.122400e+02
   1.182195e+02  -7.122701e+01
   1.747026e+02  -5.732358e+00
   2.140403e+01   2.907505e+01
  -3.209915e+01   1.834546e+01
  -3.747960e+01  -6.102378e+01
   1.086501e+02  -3.278015e+01
   2.239681e+02   1.132854e-01
   1.908194e+02   1.618475e+02
   7.307104e+01   2.323218e+02
  -1.474839e+02   2.001306e+02
  -2.442849e+02   1.200101e+02
  -1.453805e+02  -4.762179e+01
   1.283817e+01  -6.416456e+01
   3.605545e+01  -1.662526e+01
  -2.570278e+01   1.102521e+02
  -1.585681e+02   4.408141e+01
  -1.500033e+02  -6.683108e+01
  -4.946310e+01  -1.579488e+02
   8.699379e+01  -1.151024e+02
   1.056586e+02  -3.612528e+01
   4.725534e+01   3.137661e+01
   6.284691e+00  -3.533002e+00
  -2.264398e+01  -5.433488e+01
   6.439867e+01  -1.086749e+02
   1.769995e+02  -2.925669e+01
   1.401284e+02   1.314232e+02
   1.027596e+01   1.704450e+02
  -1.394851e+02   1.097034e+02
  -1.589550e+02  -1.223216e+01
  -7.092565e+01  -6.903432e+01
   4.837254e+01  -9.985722e+01
   7.108945e+01  -3.836945e+01
   1.020380e+01  -7.846329e-03
  -2.058667e+01   1.815820e+01
   3.579398e+00   2.175995e+01
   6.266122e+01   1.868186e+01
   5.652275e+01   7.387342e+01
   2.628339e+00   1.327660e+02
  -1.059776e+02   1.104590e+02
  -1.783887e+02   5.278710e+00
  -1.283282e+02  -1.281985e+02
  -3.925773e+01  -1.867733e+02
   9.600266e+01  -1.303831e+02
   1.175516e+02  -1.239518e+01
   7.177218e+01   1.134472e+01
   1.594746e+01   7.036082e+01
   5.900843e+01  -1.805265e+01
   4.994228e+01   5.284657e+00
  -5.397046e+00   3.573850e+01
  -1.002293e+01   5.222360e+01
  -7.511357e+01   3.875818e+01
  -6.425406e+01  -3.451698e+01
   1.883170e+01  -8.267976e+01
   1.038084e+02  -5.282835e+01
   1.441243e+02   3.664799e+01
   6.749208e+01   1.636270e+02
  -1.001683e+02   1.645948e+02
  -2.047672e+02   7.929185e+01
  -2.143440e+02  -6.221865e+01
  -7.969655e+01  -1.468768e+02
   4.545026e+01  -1.292180e+02
   7.868645e+01  -9.475623e+01
   1.032417e+02  -5.626452e+01
   5.116886e+01  -9.328397e+01
   5.679370e+01  -6.941149e+01
   7.984927e+01   3.441609e+01
   8.680704e+01   1.066712e+02
   1.662491e+01   2.117409e+02
  -6.771076e+01   1.275334e+02
  -1.398219e+02   7.299211e+00
  -8.690459e+01  -1.060658e+02
  -2.184753e+01  -1.295005e+02
   5.892045e+01  -1.019711e+02
   5.881829e+01   3.046824e+00
  -7.764111e+00   4.007455e+01
   2.657509e+00   9.485398e+00
   2.199053e+01   1.710730e+01
   7.399009e+01  -1.843003e+00
   5.784973e+01   4.483377e+01
  -3.350413e+01   4.757026e+01
  -1.326997e+02  -9.733521e+00
  -8.299813e+01  -3.273063e+01
  -2.838555e+01  -7.014807e+01
   1.195949e+02  -8.298244e+01
   1.017000e+02  -2.843559e+01
   3.348707e+01   4.548141e+01
  -4.382103e+01  -2.035503e-01
  -4.579610e+01  -3.404427e+00
  -2.191176e+01  -4.478407e+01
   4.448192e+01  -6.079025e+01
   5.270273e+01   1.151394e+01
   1.840749e+01   6.297033e+01
   1.774313e+01   2.129551e+01
   6.283733e+01  -3.082296e+00
   4.986006e+01  -1.228077e+01
   2.499096e+01   5.923843e+01
  -3.944413e+01   1.058030e+02
  -1.015608e+02   1.099682e+02
  -1.292643e+02   2.019900e+01
  -8.157582e+01  -6.690757e+01
  -2.463960e+01  -8.784775e+01
   7.605291e+01  -5.081242e+01
   5.145651e+01  -5.956848e+00
  -2.781051e+01   1.297447e+01
  -1.090572e+02  -9.734450e+00
  -7.038390e+01  -9.699069e+01
   6.673333e+01  -9.052797e+01
   1.436042e+02  -3.288656e+01
   9.939241e+01   4.919294e+01
   3.934286e+01   5.819608e+01
  -7.351125e+01   4.207546e+01
  -2.282291e+01  -3.956879e+00
   4.559769e+01  -5.002607e+01
   7.075038e+01   1.019765e+01
   1.972752e+01   1.147518e+02
  -8.324616e+01   1.326068e+02
  -1.509022e+02   5.237184e+01
  -8.167107e+01  -8.106396e+01
  -4.604996e+00  -1.597593e+02
   6.304277e+01  -1.078936e+02
   9.110444e+01  -1.995476e-02
   4.488934e+01   9.593580e+01
  -1.753427e+01   1.021673e+02
  -4.999628e+01   9.911744e+00
  -3.389341e+01  -4.654456e+01
  -3.323190e+01   4.164409e+00
   8.085562e+00   2.113317e+00
  -2.476175e+01  -4.474105e+01
  -4.060670e+01  -7.244861e+01
  -2.643073e+01  -8.234053e+01
   3.346859e+01  -4.110736e+01
   1.115471e+02   4.996877e+01
   8.587023e+01   3.428595e+01
   2.386633e+01   2.671886e+01
  -4.635559e+01  -7.257932e+00
  -5.425289e+01   4.545380e+01
  -1.280304e+01   1.734299e+00
   2.151410e+01  -3.396263e+01
  -5.721743e+00  -3.368206e+01
  -2.109000e+01   5.306861e+00
   1.839911e+01   3.360845e+01
   7.330457e+01   1.063177e+01
   4.989369e+01   2.518818e+00
  -7.929362e+00   7.635492e+01
  -1.154846e+02   8.472883e+01
  -1.682485e+02   3.645168e+01
  -9.832690e+01  -4.704828e+01
  -2.428791e+01  -1.330759e+02
   5.270831e+01  -1.208052e+02
   9.127134e+01  -3.497378e+01
   8.584048e+01   9.213495e+00
   3.011545e+01   6.954101e+00
   2.839683e+01   2.404764e+01
   1.353503e+01   6.169025e+00
   4.630832e+01   5.818823e+01
   3.845872e+00   6.909433e+01
  -3.461962e+01   5.476185e+01
  -5.809285e+01  -2.199851e+01
  -7.171053e+01  -8.925342e+01
   3.603354e+01  -1.025454e+02
   4.592965e+01  -5.025902e+00
   7.576000e+01   6.145604e+01
   5.099239e+00   8.733517e+01
  -5.121707e+01   5.143522e+01
  -7.219035e+01  -2.981314e+00
  -2.178445e+01  -3.658649e+01
   1.668964e+01  -3.514210e+01
   2.274088e+01  -1.349559e+01
  -5.981007e+00  -8.494429e+00
  -5.491145e+01  -2.866523e+00
  -4.057664e-01  -3.338529e+01
   4.361981e+01  -5.852828e+01
   6.369742e+01  -5.517071e+01
   4.756987e+01  -2.558635e+00
   1.470492e+00   6.426877e+01
  -3.938400e+01   4.164338e+01
  -1.954962e+01   1.502934e+00
   1.438257e+01  -5.219439e+01
   1.818405e+01  -3.830070e+00
   2.173481e+01   3.262427e+01
   2.004650e+01   2.391066e+01
   1.382390e+01   3.746844e+01
  -2.792220e+01   2.455839e+00
  -4.789024e+01   8.655163e+00
  -2.610603e+01  -1.244916e+01
  -2.082335e+01  -7.938630e+00
   3.845835e+01   7.234662e-02
  -3.494190e+01  -4.816630e+01
   1.660647e+01  -4.540063e+01
  -8.873390e+00   1.568729e+01
   3.047455e+01   1.854329e+01
  -4.062476e+00   3.397681e+01
  -4.837376e+01   1.277741e+01
  -3.415287e+01  -2.990067e+01
  -1.023438e+01  -4.744731e+01
   5.032514e+01  -1.157786e+01
   7.167602e+01   3.216852e+01
   1.166248e+01   1.462579e+01
  -3.152319e+01   2.893604e+01
  -7.220257e+01   1.300402e+01
  -3.981175e+00   1.993390e+01
   2.037612e+01  -2.902387e+00
   9.202962e+00   2.807562e+01
  -2.941498e+01  -3.687173e+00
  -6.587140e+01   7.540387e+00
