
 $NMID
 id='ANONYMOUS ', fmtdat='(2E16.6)'
 volume=1.0
 tramp=1.0
 $END
   3.894997e+03   1.306005e+02
   2.304086e+03   2.415610e+03
  -6.648148e+02   2.609953e+03
  -1.940110e+03   8.481712e+02
  -9.229742e+02  -6.228862e+02
   5.098105e+02  -6.051004e+02
   7.016533e+02   3.734761e+02
   3.878294e+01   9.095046e+02
  -7.269356e+02   7.675328e+02
  -8.303898e+02  -7.590874e+01
  -4.555586e+02  -7.715579e+02
   2.040752e+02  -8.366396e+02
   6.313265e+02  -9.733246e+01
   3.437052e+02   6.640813e+02
  -2.945731e+02   7.109647e+02
  -6.143600e+02  -5.108411e+00
  -2.693248e+02  -6.608975e+02
   3.055958e+02  -6.823536e+02
   5.652824e+02  -1.304421e+02
   4.112976e+02   3.564607e+02
   5.230975e+01   4.405891e+02
  -2.594061e+02   2.562772e+02
  -2.300155e+02  -3.092836e+01
   1.226253e+02  -1.106321e+02
   4.380878e+02   8.520916e+01
   1.933830e+02   4.332598e+02
  -4.142305e+02   3.917324e+02
  -8.160794e+02  -5.898950e+01
  -3.966546e+02  -5.514504e+02
   3.375203e+02  -5.019758e+02
   6.959326e+02   3.838668e+01
   3.044553e+02   5.010319e+02
  -2.715866e+02   4.857958e+02
  -5.449188e+02   2.013497e+02
  -4.223669e+02  -2.578916e+02
  -2.053187e+01  -4.621441e+02
   2.107326e+02  -2.513421e+02
   1.164002e+02   2.732267e+02
  -1.902087e+02   4.111466e+02
  -4.145528e+02  -4.128176e+01
  -2.238015e+02  -6.404946e+02
   2.976431e+02  -6.197943e+02
   5.173805e+02   5.042253e+00
   2.275187e+02   4.903928e+02
  -3.181251e+02   2.704248e+02
  -3.516465e+02  -3.287756e+02
   8.850731e+01  -4.918990e+02
   5.327996e+02  -1.335719e+02
   5.522185e+02   3.624939e+02
   1.616245e+02   5.338196e+02
  -3.389933e+02   3.300031e+02
  -5.890285e+02  -1.011500e+02
  -3.519912e+02  -3.475249e+02
   1.470822e+02  -3.485712e+02
   3.978397e+02  -5.106186e+01
   2.085374e+02   1.719669e+02
  -1.044334e+02   6.682755e+01
  -1.216539e+02  -1.409974e+02
   1.388031e+02  -1.474921e+02
   3.247470e+02   5.533863e+01
   1.127787e+02   2.730217e+02
  -1.777943e+02   2.625569e+02
  -3.043558e+02   8.132082e+01
  -1.987371e+02  -1.055671e+02
   2.756026e+01  -2.125841e+02
   2.076412e+02  -3.501574e+02
   3.264024e+02  -1.736106e+02
   2.665686e+02   1.318050e+02
   8.001847e+01   4.206808e+02
  -1.050590e+02   3.558856e+02
  -9.230613e+01   1.032601e+02
  -2.382024e+01   4.336551e+00
  -2.350268e+01   9.049472e+01
  -2.074875e+02   1.327144e+02
  -2.519087e+02  -5.782482e+01
  -1.403705e+02  -2.393282e+02
   6.884072e+01  -2.287113e+02
   2.001790e+02  -3.007248e+01
   2.115028e+02   2.019817e+02
  -1.280808e+01   2.715758e+02
  -2.457237e+02   1.003794e+02
  -3.558523e+02  -1.412982e+02
  -1.899599e+02  -3.294563e+02
   6.725381e+01  -2.893944e+02
   2.182169e+02  -1.347030e+02
   1.627792e+02   2.623680e+01
   7.056177e+01  -1.644627e+01
   1.986439e+02  -2.920742e+01
   3.843767e+02   5.744752e+01
   2.943750e+02   2.838709e+02
   2.966014e+00   4.432782e+02
  -3.165258e+02   4.082512e+02
  -4.700576e+02   1.432051e+02
  -3.337421e+02  -1.296273e+02
  -4.651875e+01  -2.668421e+02
   1.297576e+02  -2.303532e+02
   8.917306e+01  -4.194870e+01
  -9.937521e+01   8.421245e+01
  -1.701658e+02  -2.560726e+01
  -4.252785e+01  -1.947311e+02
   1.661443e+02  -1.331001e+02
   1.518884e+02   5.588261e+01
  -2.602133e+00   1.948476e+02
  -1.645135e+02   1.978190e+01
  -1.480729e+02  -2.218444e+02
   3.865222e+01  -3.190407e+02
   2.172448e+02  -1.620278e+02
   3.100140e+02   4.607603e+01
   2.830139e+02   2.268223e+02
   9.962156e+01   2.562264e+02
  -1.112842e+02   1.596660e+02
  -1.773799e+02   1.080482e+01
  -5.212025e+01  -5.275425e+01
   4.066749e+01   2.738150e+01
   4.638235e+01   1.378161e+02
  -1.217136e+02   9.358885e+01
  -1.837417e+02  -2.716629e+01
  -5.176569e+01  -9.913415e+01
   8.085491e+01  -1.267006e+00
   6.802427e+01   6.526120e+01
  -1.056370e+02   9.685432e+01
  -2.677852e+02   2.594998e+01
  -2.104945e+02  -1.008447e+02
  -6.169314e+01  -2.546430e+02
   1.746825e+02  -2.367672e+02
   2.445191e+02  -1.173422e+02
   1.489300e+02   9.587812e+01
  -1.828272e+01   1.049489e+02
  -8.220154e+01   2.591438e+00
   2.819367e+01  -1.107103e+02
   1.811307e+02  -5.532397e+01
   1.988755e+02   1.322187e+02
   4.436663e+01   2.172894e+02
  -9.860705e+01   1.431527e+02
  -1.604928e+02   2.796086e+01
  -6.600910e+01  -4.073388e+01
   3.577753e+01  -1.909290e+01
   4.196466e+01   8.056494e+01
  -3.465565e+01   1.111022e+02
  -1.856301e+02   8.013377e+00
  -1.900315e+02  -1.039438e+02
  -2.506383e+01  -2.126336e+02
   1.347352e+02  -1.728755e+02
   2.028121e+02  -8.317310e+00
   4.447338e+01   1.182446e+02
  -8.991210e+01   9.318169e+01
  -9.370875e+01   4.221404e+01
  -4.551951e+01  -3.191835e+01
   1.114824e+01   1.161654e+01
  -9.384626e+00   2.266926e+01
  -6.336786e+01   2.609130e+01
  -8.581175e+01  -6.650352e+01
  -4.990351e+01  -1.458298e+02
   1.180134e+02  -1.583618e+02
   2.146349e+02  -1.656924e+01
   1.778196e+02   1.407796e+02
   3.498956e+01   2.063195e+02
  -7.205932e+01   1.342748e+02
  -1.296172e+02   2.984972e+01
  -6.185030e+01  -6.181197e+01
  -3.623807e+01  -6.789976e+00
  -3.586876e+01  -2.862756e+00
  -9.515215e+01   4.177112e+00
  -5.094986e+01  -6.772418e+01
   3.085821e+01  -6.894625e+01
   8.168772e+01  -4.520054e+01
   9.868432e+01   1.674707e+00
  -1.186616e+01   1.115851e+02
  -1.205558e+02   8.620113e+01
  -1.837108e+02  -5.116043e+01
  -1.044794e+02  -2.014975e+02
   8.632583e+01  -1.978536e+02
   2.403747e+02  -1.056679e+02
   2.262270e+02   7.295851e+01
   1.194279e+02   1.731989e+02
  -2.298863e-01   1.339389e+02
  -7.282756e+01   5.573891e+01
  -6.002130e+01   6.620211e+01
  -7.675476e+01   8.410353e+01
  -4.875519e+01   8.261152e+01
  -9.142761e+01   7.903139e+00
  -1.182819e+02  -1.557470e+02
  -2.280000e+01  -1.995284e+02
   9.669480e+01  -1.952968e+02
   1.773863e+02  -2.289070e+01
   1.193328e+02   1.155884e+02
   1.209098e+01   1.439699e+02
  -9.306639e+01   7.613582e+01
  -6.690795e+01  -1.017713e+00
  -1.607075e+01  -4.163892e+01
   1.562759e+01  -4.341691e+01
  -3.493484e+01  -1.879316e+01
  -5.731466e+01  -3.745656e+01
  -2.688607e+01  -2.679210e+01
   5.811492e+01  -1.367094e+01
   1.414374e+02   6.310686e+00
   1.267342e+02   5.012171e+01
   2.826232e+01   6.008026e+01
  -1.173434e+02   6.345865e+01
  -1.688410e+02   1.954753e+01
  -5.837145e+01  -7.720590e+01
   3.865075e+01  -5.767551e+01
   8.106011e+01   7.544132e+00
   2.783692e+01   4.771274e+01
  -3.880932e+01   8.614988e+01
  -5.090490e+01   2.890335e+01
  -6.473890e+01  -8.979494e+00
  -4.512049e+01  -4.742085e+01
  -4.716002e+01  -1.673986e+01
  -4.223984e+01  -2.814267e+01
  -4.372672e+01  -6.053864e+01
   1.183997e+01  -1.223164e+02
   9.144130e+01  -1.200122e+02
   1.530271e+02  -5.260811e+01
   1.218559e+02   7.121499e+01
  -4.840781e-01   9.408599e+01
  -6.509071e+01   5.210215e+01
  -4.061577e+01  -1.417782e+01
   6.898794e+01  -2.430172e+01
   1.228486e+02   4.772733e+01
   6.303579e+01   1.084711e+02
  -5.930596e+01   1.086316e+02
  -1.407814e+02   6.701712e+01
  -1.554845e+02  -6.987202e+00
  -4.987860e+01  -8.266669e+01
   3.206112e+01  -7.662555e+01
   3.538928e+01  -1.829293e+01
  -4.910872e+01   1.655842e+01
  -8.496212e+01   4.727359e+00
  -2.390715e+01  -1.078697e+02
   6.333403e+01  -1.432912e+02
   1.295788e+02  -9.092927e+01
   1.245926e+02   8.648046e+01
   1.239323e+01   1.801181e+02
  -6.516076e+01   1.168659e+02
  -9.776642e+01  -7.502834e+00
  -6.044565e+01  -1.036304e+02
   9.665567e+00  -9.986401e+01
   1.941708e+01  -1.962113e+01
   3.692235e+01   3.188303e+01
   1.307546e+00   1.471155e+01
  -1.009024e+01  -1.731912e+01
   2.405728e+01   3.792452e+01
   4.816898e+01   1.005725e+02
   3.639602e+01   9.469296e+01
  -7.310046e+01   6.455082e+01
  -1.302759e+02  -4.138379e+01
  -1.219189e+02  -8.902946e+01
  -5.928263e+00  -5.106171e+01
   8.157832e+01  -3.531609e+01
   8.994388e+01  -5.597621e+00
  -9.617072e+00   1.977173e+00
  -2.137291e+01   2.124898e+01
  -1.600191e+01   1.409080e+01
   1.117697e+01   1.375855e+01
  -2.610821e+01   1.001356e+01
  -8.782388e+01  -1.562177e+01
  -7.655813e+01   3.734852e+00
  -1.626011e+01  -3.628258e+01
   1.067626e+02  -1.096642e+02
   1.357958e+02  -7.233819e+01
   1.306295e+02   7.754689e+01
   2.435297e+01   1.470230e+02
  -8.842481e+01   1.281040e+02
  -1.273930e+02   5.125766e+01
  -8.580018e+01  -1.494227e+01
   9.098963e+00  -3.544627e+01
   1.499925e+01  -1.662568e+01
  -3.083218e+01  -1.624217e+01
  -3.189930e+01  -2.878680e+01
  -2.271034e+01  -6.905125e+01
   1.272666e+01  -8.195025e+01
   7.389265e+01   1.154480e+01
   5.520958e+01   8.205819e+01
   4.324691e+00   1.024592e+02
  -7.540439e+01   5.334696e+00
  -9.521600e+01  -6.902929e+01
  -3.304883e+01  -9.352493e+01
   4.484806e+01  -6.355114e+01
   8.106541e+01   1.691511e+01
   5.386029e+01   5.988205e+01
  -2.584275e+01   7.451954e+01
  -5.185999e+01   4.511986e+01
   1.740795e+01  -1.302475e+01
   8.980972e+01   6.951185e+00
   2.926600e+01   2.952718e+01
  -7.608975e+01   4.383759e+01
  -8.924551e+01   1.917465e+01
  -5.080077e+01  -1.895798e+00
   3.578118e+01  -7.042215e+01
   7.195349e+01  -6.217650e+01
   2.499780e+01   7.381499e+00
   2.534432e+00   3.655485e+01
  -3.125212e+01   2.696021e+01
  -5.231387e+01  -4.104243e+01
  -2.124207e+01  -4.073577e+01
  -6.198616e+00  -4.487581e+01
   4.142960e+01   2.613764e+01
   3.114906e+01   1.680415e+01
   3.384358e+00  -2.154801e+01
  -6.456276e+00  -8.118334e+00
   8.923351e+00   1.285312e+01
   3.587271e+01   4.909594e+01
  -2.380170e+01   6.174073e+01
  -3.453064e+01   6.273399e+00
  -3.245573e+01  -1.100356e+01
   7.511446e+00  -5.959099e+01
   4.021205e+01   1.741921e+00
   6.591052e+01   4.785130e+01
   1.167588e+01   2.658123e+01
  -6.575595e+01   2.486798e+01
  -7.221941e+01   1.301139e+01
  -4.613365e+01  -4.852689e+01
   2.020590e+01  -1.095768e+01
   4.119494e+01  -1.938261e+01
   4.154972e+01   2.489630e+01
  -2.851619e+01  -2.667340e+01
  -3.405256e+01  -1.399685e+01
   2.242658e+01  -4.166405e+00
   7.257144e+01  -4.851891e+01
