
 $NMID
 id='ANONYMOUS ', fmtdat='(2E16.6)'
 volume=1.0
 tramp=1.0
 $END
  -4.102316e+03   5.756387e+01
  -2.601794e+03  -2.364294e+03
   5.801352e+02  -2.548823e+03
   2.100700e+03  -9.803813e+02
   1.048346e+03   5.943617e+02
  -5.302952e+02   5.687823e+02
  -8.544741e+02  -4.234301e+02
  -5.179799e+01  -1.009832e+03
   7.735247e+02  -8.062342e+02
   9.045104e+02   3.936870e+01
   4.936157e+02   8.493868e+02
  -1.975860e+02   9.019542e+02
  -6.072728e+02   1.286979e+02
  -3.702321e+02  -7.141779e+02
   2.814172e+02  -7.241289e+02
   5.955555e+02   3.021616e+01
   2.944418e+02   7.101904e+02
  -3.299740e+02   6.767088e+02
  -5.948106e+02   1.218353e+02
  -4.417673e+02  -3.696145e+02
  -5.911210e+00  -4.516658e+02
   2.605440e+02  -2.387632e+02
   1.914971e+02   2.699322e+01
  -1.534170e+02   8.727036e+01
  -3.861791e+02  -1.660357e+02
  -1.915365e+02  -4.503139e+02
   4.777158e+02  -4.085688e+02
   8.135233e+02   9.550441e+01
   4.160507e+02   5.374721e+02
  -3.993547e+02   4.502766e+02
  -7.659674e+02  -6.694926e+01
  -3.380643e+02  -4.894492e+02
   2.969990e+02  -5.123145e+02
   5.897244e+02  -1.792316e+02
   4.092686e+02   2.724059e+02
   6.126516e+01   4.539298e+02
  -1.784102e+02   2.466416e+02
  -1.437800e+02  -2.223113e+02
   1.896954e+02  -4.144008e+02
   4.591649e+02   2.383664e+01
   2.214729e+02   6.764171e+02
  -3.285713e+02   7.173285e+02
  -6.081932e+02  -1.527907e+01
  -2.752145e+02  -4.916146e+02
   2.645699e+02  -3.088239e+02
   4.228124e+02   3.156290e+02
  -8.202892e+01   5.604895e+02
  -5.705252e+02   1.455357e+02
  -5.824469e+02  -3.721568e+02
  -1.670200e+02  -6.036953e+02
   3.745752e+02  -3.406323e+02
   5.948300e+02   5.119642e+01
   3.350923e+02   3.636277e+02
  -1.229483e+02   3.127899e+02
  -4.160812e+02   6.217780e+01
  -2.562105e+02  -1.663932e+02
   9.306874e+01  -1.065245e+02
   1.383937e+02   1.208832e+02
  -1.499974e+02   2.045571e+02
  -3.163647e+02  -3.542269e+01
  -1.577902e+02  -2.671066e+02
   1.704433e+02  -2.667049e+02
   3.534843e+02  -8.894317e+01
   2.182306e+02   1.530245e+02
  -4.502489e+01   2.844469e+02
  -2.241542e+02   3.338174e+02
  -3.488622e+02   2.034924e+02
  -2.825495e+02  -1.357707e+02
  -1.069842e+02  -4.104664e+02
   1.117867e+02  -3.795524e+02
   1.115191e+02  -1.012767e+02
   1.287438e+00  -3.560019e+01
   9.511795e+01  -7.737316e+01
   2.072711e+02  -1.455909e+02
   2.668276e+02   3.364025e+01
   1.604358e+02   2.747118e+02
  -8.034103e+01   2.428025e+02
  -2.330849e+02   3.324408e+01
  -1.911268e+02  -2.547378e+02
   3.377974e+01  -2.749324e+02
   2.547874e+02  -1.223722e+02
   3.534290e+02   1.489049e+02
   1.832263e+02   3.529817e+02
  -1.272241e+02   3.000308e+02
  -2.182847e+02   1.231381e+02
  -1.710685e+02   1.609168e+01
  -1.006516e+02   2.643893e+01
  -2.219485e+02   8.915059e+01
  -3.986723e+02  -3.731466e+01
  -3.454085e+02  -2.972005e+02
  -2.700296e+01  -4.481626e+02
   3.785973e+02  -4.260902e+02
   4.527170e+02  -1.988225e+02
   3.360588e+02   9.533015e+01
   5.779894e+01   2.874828e+02
  -1.287341e+02   2.324634e+02
  -7.756686e+01  -3.309567e-01
   1.053928e+02  -6.952479e+01
   2.021961e+02   1.472462e+01
   6.575733e+01   1.805691e+02
  -1.415610e+02   1.692953e+02
  -2.032730e+02  -5.559737e+01
   1.135770e+01  -1.993931e+02
   1.395902e+02  -4.566976e+01
   1.826661e+02   2.531838e+02
  -2.983284e+01   3.534599e+02
  -2.290683e+02   1.791432e+02
  -3.468872e+02  -5.611974e+01
  -2.805050e+02  -2.342854e+02
  -7.135304e+01  -2.771462e+02
   1.396563e+02  -1.524589e+02
   1.618612e+02  -2.380691e+01
   4.211802e+01   3.417646e+01
  -5.746883e+01  -6.036770e+01
  -8.894023e+00  -1.481351e+02
   1.393267e+02  -9.610535e+01
   1.616984e+02   2.358581e+01
   7.386614e+01   8.911379e+01
  -1.093631e+02   7.575159e+00
  -7.531818e+01  -4.898756e+01
   1.327822e+02  -8.099484e+01
   2.390028e+02  -2.890245e+01
   2.507059e+02   1.402788e+02
   5.770454e+01   2.514098e+02
  -1.789310e+02   2.831974e+02
  -2.762944e+02   9.058899e+01
  -1.514279e+02  -3.634519e+01
  -1.722851e+00  -1.096385e+02
   6.411318e+01  -2.586291e+01
  -1.899361e+01   9.082160e+01
  -2.047712e+02   3.756449e+01
  -2.295762e+02  -1.096332e+02
  -7.778927e+01  -2.112996e+02
   9.828235e+01  -1.436160e+02
   1.449843e+02  -2.462860e+01
   6.923410e+01   6.232411e+01
  -8.150798e+00  -1.572036e+01
  -4.083163e+01  -8.453792e+01
   6.729400e+01  -1.199271e+02
   1.896936e+02  -2.879267e+01
   2.016310e+02   1.152231e+02
   1.437919e+00   2.050772e+02
  -1.451509e+02   1.775188e+02
  -1.955075e+02   1.672534e+01
  -6.474383e+01  -1.059046e+02
   5.456661e+01  -1.091966e+02
   1.106353e+02  -3.843046e+01
   1.632296e+01   4.759903e+01
  -6.476625e+00   2.938493e+01
  -4.216625e+00   2.590253e+01
   8.196176e+01   9.598433e+00
   1.108212e+02   1.159306e+02
   9.547579e+00   1.619688e+02
  -1.076332e+02   1.729991e+02
  -2.154965e+02   1.738873e+01
  -2.071953e+02  -1.371067e+02
  -5.594205e+01  -2.255633e+02
   9.542813e+01  -1.913281e+02
   1.429731e+02  -3.866320e+01
   8.573450e+01   6.704693e+01
   2.617525e+01   2.804423e+01
   4.623309e+01  -1.084481e+00
   6.921666e+01  -1.385853e+01
   7.162693e+01   5.799566e+01
  -1.262200e+01   8.873980e+01
  -9.488856e+01   3.028609e+01
  -8.527071e+01  -6.942101e+01
   3.002108e+01  -1.104870e+02
   1.374875e+02  -8.612685e+01
   1.788571e+02   3.884319e+01
   9.566973e+01   1.889534e+02
  -8.602174e+01   2.432484e+02
  -2.566879e+02   9.998598e+01
  -2.648715e+02  -9.013701e+01
  -1.030643e+02  -1.701701e+02
   2.061517e+01  -1.541872e+02
   9.170064e+01  -8.669528e+01
   6.538000e+01  -9.069121e+01
   6.943180e+01  -9.396026e+01
   5.251900e+01  -7.529787e+01
   1.252579e+02   2.581515e+01
   1.517816e+02   1.380849e+02
   4.864218e+01   2.045118e+02
  -1.008218e+02   1.754978e+02
  -1.675130e+02   1.324052e+01
  -1.230336e+02  -1.207705e+02
  -2.038451e+00  -1.600389e+02
   6.890694e+01  -5.464571e+01
   6.606325e+01   6.496856e+00
   1.461058e+01   3.544910e+01
  -2.230404e+01   4.880911e+01
   9.013734e+00   3.271633e+01
   9.237548e+01   2.578738e+01
   3.648970e+01   4.853487e+01
  -8.886092e+01   4.105509e+01
  -1.385703e+02  -1.395984e+01
  -1.367817e+02  -4.458066e+01
   1.112514e+01  -9.589910e+01
   1.175895e+02  -5.903896e+01
   1.476243e+02  -3.122412e+01
   4.321814e+01   5.327023e+01
  -4.754969e+01   3.643810e+01
  -6.211840e+01  -2.266526e+01
  -8.429130e+00  -6.657258e+01
   5.417974e+01  -5.845477e+01
   6.733719e+01   1.632658e+01
   2.328263e+01   5.432876e+01
   3.629978e+01   2.462941e+01
   7.698292e+01  -1.039358e+01
   1.064457e+02   9.702439e+00
   4.860170e+01   7.985389e+01
  -2.710817e+01   1.469884e+02
  -1.109179e+02   1.505979e+02
  -1.437595e+02   5.055781e+01
  -1.264051e+02  -8.590004e+01
  -1.524236e+01  -1.353896e+02
   7.460644e+01  -7.007140e+01
   5.599254e+01   3.155899e+01
  -7.938491e+01   6.681097e+00
  -1.388214e+02  -3.592091e+01
  -8.695899e+01  -1.115628e+02
   7.740797e+01  -1.288621e+02
   1.835260e+02  -5.145752e+01
   1.292568e+02   1.192932e+01
   1.928227e+01   8.913132e+01
  -4.168200e+01   7.197159e+01
  -2.253013e+01   3.108370e+00
   5.960653e+01  -2.816193e+01
   7.140559e+01   1.117955e+01
   4.564737e+01   1.170525e+02
  -9.220860e+01   1.701033e+02
  -1.697646e+02   6.241806e+01
  -1.299712e+02  -8.493891e+01
  -2.460832e+01  -1.616500e+02
   9.881197e+01  -1.412231e+02
   1.099930e+02  -1.674144e+00
   5.657836e+01   1.342708e+02
  -2.056947e+00   1.188181e+02
  -4.280846e+01   3.056644e+01
  -7.356441e+01  -4.432643e+01
  -1.642419e+01  -1.017082e+01
  -4.684891e+00   3.002613e+01
  -2.031131e+01  -4.682773e+00
  -6.176800e+01  -8.905487e+01
  -4.730171e+01  -1.148953e+02
   6.315019e+01  -4.475283e+01
   1.507102e+02   4.939142e+01
   1.350342e+02   8.133218e+01
  -6.698289e+00   6.214356e+01
  -1.047306e+02   5.338298e+01
  -9.918267e+01  -2.497825e+01
  -1.173596e+01  -1.998855e+01
   5.362219e+01  -3.759182e+01
   4.244665e+01   1.462407e+01
  -2.406199e+01   3.939600e+00
   1.906659e+01   1.571102e+01
   7.970558e+01  -2.179593e+01
   1.113660e+02   2.150822e+01
   1.027914e+01   1.156419e+02
  -1.410594e+02   1.090677e+02
  -2.065167e+02   6.100347e+01
  -1.385301e+02  -1.437407e+01
  -4.079618e+01  -1.525929e+02
   6.409116e+01  -1.710816e+02
   1.343076e+02  -8.717443e+01
   8.472624e+01   3.230281e+01
   3.229035e+01   2.797968e+01
   1.749933e+00   2.006779e-01
   9.191698e+00   1.181088e+01
   6.424680e+01   2.240168e+01
   2.871416e+01   8.567758e+01
  -3.976826e+01   7.167167e+01
  -6.446602e+01  -5.801391e+00
  -8.720292e+01  -9.951189e+01
   1.238318e+01  -1.027071e+02
   8.604281e+01  -2.159341e+01
   8.853289e+01   6.356332e+01
   2.674842e+01   1.009478e+02
  -6.936140e+01   6.202874e+01
  -1.305266e+02  -3.022178e+01
  -4.601156e+01  -4.551448e+01
   3.896982e+01  -5.986213e+01
   4.878983e+01  -1.742848e+01
  -2.262628e+01   7.274256e+00
  -5.301461e+01  -4.990125e+00
  -3.236753e+01  -3.640865e+01
   5.705485e+01  -5.833280e+01
   1.375626e+02  -6.430552e+01
   1.891988e+01   5.244856e+01
  -2.678905e+01   7.508875e+01
  -6.959852e+01   8.014280e+01
  -2.618174e+01  -2.198002e+00
  -1.919956e+01  -3.004580e+01
   2.551687e+01  -9.533778e+01
   1.397644e+01   1.949674e+01
   4.010386e+01   5.478390e+01
  -2.390937e+00   2.699775e+01
  -5.276494e+01   2.044065e+01
  -2.674313e+01  -4.084133e+01
  -3.612096e+01   5.651005e+00
   1.024497e+01   1.194396e+01
   1.163998e+00  -7.785772e+00
   1.279556e+01  -5.260063e+01
   8.455762e+00  -3.268328e+01
   3.581297e+01  -7.880538e+00
   4.588429e+01   3.997063e+01
   7.667992e+00   6.604597e+01
  -2.725877e+01   7.491645e-01
  -5.413832e+01  -5.080362e+01
  -2.699181e+01  -5.343583e+01
   6.882846e+01  -4.455773e+01
   1.101509e+02   1.912990e+01
   5.361423e+01   6.695444e+01
  -2.599452e+01   4.447517e+01
  -3.525070e+01   1.805622e+01
  -6.086723e+01   5.369266e+00
   1.779998e+01  -5.054229e+00
   3.061670e+01   1.103489e+01
  -1.064332e+01   6.308435e+01
  -1.077117e+02   2.291016e+01
