
 $NMID
 id='ANONYMOUS ', fmtdat='(2E16.6)'
 volume=1.0
 tramp=1.0
 $END
  -3.979653e+03  -4.193320e+01
  -2.341622e+03  -2.177864e+03
   4.474525e+02  -2.608435e+03
   1.926183e+03  -1.036569e+03
   1.046747e+03   3.880085e+02
  -3.445800e+02   4.892388e+02
  -7.547370e+02  -2.949410e+02
  -3.991115e-01  -8.856101e+02
   7.358318e+02  -7.793464e+02
   8.753354e+02   1.198458e+01
   4.561418e+02   7.421173e+02
  -1.238006e+02   8.436157e+02
  -5.254372e+02   1.561173e+02
  -3.324921e+02  -6.408948e+02
   2.179427e+02  -6.822673e+02
   5.276908e+02   1.334731e+01
   3.010339e+02   6.454639e+02
  -2.537382e+02   6.614477e+02
  -5.978716e+02   1.479297e+02
  -4.223738e+02  -3.252804e+02
  -2.304466e+01  -4.162633e+02
   2.531484e+02  -2.503973e+02
   1.609453e+02  -1.513469e+01
  -1.490684e+02   2.514671e+01
  -3.702596e+02  -1.918132e+02
  -1.122215e+02  -4.004815e+02
   4.541856e+02  -3.021495e+02
   7.841622e+02   9.373154e+01
   3.482563e+02   4.995099e+02
  -3.291803e+02   4.423138e+02
  -6.552090e+02  -6.353400e+01
  -3.020409e+02  -4.591382e+02
   3.323731e+02  -4.511193e+02
   5.473435e+02  -1.441810e+02
   3.537593e+02   2.339170e+02
   6.092543e+01   3.944320e+02
  -1.558893e+02   1.987716e+02
  -8.763525e+01  -2.303182e+02
   1.719110e+02  -3.010121e+02
   3.816875e+02   1.079920e+02
   1.713407e+02   5.908503e+02
  -3.124993e+02   6.220503e+02
  -4.569505e+02   6.848549e+01
  -2.185044e+02  -4.259924e+02
   2.766406e+02  -2.445299e+02
   3.236641e+02   2.778824e+02
  -7.503663e+01   4.817578e+02
  -5.053937e+02   1.170529e+02
  -5.304007e+02  -3.526885e+02
  -1.520722e+02  -5.654427e+02
   3.246135e+02  -3.212005e+02
   5.769434e+02   6.984459e+01
   3.383706e+02   3.601566e+02
  -9.556483e+01   3.328792e+02
  -3.567918e+02   8.518388e+01
  -2.348719e+02  -1.153401e+02
   8.479632e+01  -8.468602e+01
   1.351873e+02   9.397741e+01
  -1.179945e+02   1.305366e+02
  -3.095226e+02  -3.165234e+01
  -1.556456e+02  -2.390977e+02
   1.953523e+02  -2.915263e+02
   3.179372e+02  -1.094728e+02
   2.240336e+02   1.073748e+02
  -4.124941e+01   2.962087e+02
  -2.482314e+02   3.359006e+02
  -3.318549e+02   1.565008e+02
  -2.696143e+02  -1.661688e+02
  -7.304205e+01  -3.880477e+02
   6.257429e+01  -3.210697e+02
   8.666176e+01  -1.432731e+02
   2.183722e+01  -4.977908e+01
   9.921255e+01  -8.514825e+01
   2.365742e+02  -1.361044e+02
   2.652924e+02   6.189174e+01
   1.572626e+02   2.398922e+02
  -7.718681e+01   1.794894e+02
  -2.200829e+02   1.324205e+01
  -1.901500e+02  -2.334400e+02
   2.556247e+01  -2.656848e+02
   2.579489e+02  -9.568489e+01
   3.521120e+02   1.795644e+02
   1.756144e+02   3.575903e+02
  -8.404572e+01   3.121942e+02
  -1.945465e+02   1.145754e+02
  -1.523558e+02   4.004508e+01
  -1.034339e+02   5.218604e+01
  -2.451409e+02   6.740221e+01
  -3.756539e+02  -3.583679e+01
  -3.365210e+02  -2.915745e+02
   1.335722e+00  -4.211438e+02
   3.772215e+02  -4.005338e+02
   4.729304e+02  -2.027560e+02
   2.928001e+02   1.007395e+02
   5.674228e+01   2.590122e+02
  -1.290328e+02   2.321036e+02
  -8.405136e+01   3.005113e+01
   1.136719e+02  -5.992353e+01
   1.677391e+02   2.494270e+01
   3.951219e+01   1.595565e+02
  -1.485802e+02   1.456691e+02
  -1.378146e+02  -5.474113e+01
   2.362214e+01  -1.819372e+02
   2.053731e+02  -4.113798e+01
   1.529114e+02   2.707240e+02
  -2.260903e+01   3.542944e+02
  -2.334081e+02   2.139387e+02
  -3.490746e+02  -8.399098e+01
  -2.548987e+02  -2.495647e+02
  -5.647607e+01  -2.367803e+02
   1.068302e+02  -1.436066e+02
   1.638042e+02   4.823061e+00
   5.240888e+01   1.584464e+01
  -8.217572e+01  -5.067908e+01
  -1.316518e+01  -1.364673e+02
   1.305071e+02  -9.644489e+01
   1.710712e+02   4.001716e+01
   3.904852e+01   8.006221e+01
  -9.545048e+01   2.954416e+01
  -6.750416e+01  -1.055420e+02
   1.440284e+02  -9.454339e+01
   2.573474e+02  -4.825654e-01
   2.585213e+02   1.356430e+02
   3.970753e+01   2.412550e+02
  -2.123874e+02   2.502649e+02
  -2.631737e+02   1.151661e+02
  -1.233580e+02  -5.090048e+01
   4.261912e+01  -1.149117e+02
   8.420659e+01   4.246080e+00
  -4.965946e+01   1.057689e+02
  -1.734294e+02   3.411190e+01
  -1.906205e+02  -1.345703e+02
  -7.633792e+01  -2.062267e+02
   8.763863e+01  -1.513723e+02
   1.302384e+02  -1.296623e-01
   5.211669e+01   4.380985e+01
  -3.225480e+01  -7.343808e+00
  -2.238607e+01  -8.102382e+01
   1.089517e+02  -9.827467e+01
   1.969544e+02   1.007590e+00
   1.688889e+02   1.068415e+02
   2.654843e+01   1.869343e+02
  -1.689644e+02   1.459241e+02
  -1.599645e+02   1.431994e+01
  -4.367866e+01  -1.117547e+02
   4.143266e+01  -1.099083e+02
   9.572143e+01  -2.849979e+01
   4.295505e+00   3.261109e+01
  -3.831592e+01   2.403885e+01
  -8.622510e+00  -3.778528e+01
   5.359968e+01  -1.309998e+01
   1.271234e+02   5.020983e+01
   3.587975e+01   1.897376e+02
  -1.444111e+02   1.794701e+02
  -2.697363e+02   1.906004e+01
  -2.093527e+02  -1.628438e+02
  -3.956508e+01  -2.424843e+02
   1.224781e+02  -1.824714e+02
   1.145576e+02  -1.622119e+01
   8.762030e+01   6.482823e+01
   3.463132e+01   3.035683e+01
   6.162384e+01   5.331962e+00
   8.907354e+01  -2.324586e+01
   4.773082e+01   3.709983e+01
  -6.123764e+01   9.135102e+01
  -1.032454e+02   4.929448e+01
  -1.052543e+02  -5.059641e+01
  -8.680986e+00  -1.144930e+02
   1.678439e+02  -7.591001e+01
   2.181321e+02   5.136618e+01
   7.592709e+01   1.974950e+02
  -8.725914e+01   2.227707e+02
  -2.466967e+02   9.162323e+01
  -2.283485e+02  -1.295852e+02
  -1.018559e+02  -1.524168e+02
   3.306575e+01  -1.339948e+02
   9.287461e+01  -9.936630e+01
   6.690289e+01  -6.220619e+01
   3.999981e+01  -9.306469e+01
   6.754404e+01  -6.707553e+01
   1.390049e+02   9.652226e+00
   1.150035e+02   1.609647e+02
   3.344135e+01   2.250339e+02
  -8.951410e+01   1.765561e+02
  -1.648268e+02   1.583209e+01
  -1.294614e+02  -1.101350e+02
   9.807648e+00  -1.612520e+02
   9.410915e+01  -7.929208e+01
   7.759359e+01  -7.712584e+00
   1.783378e+01   1.455721e+01
  -2.062576e+01   9.314837e+00
   3.516385e+01  -2.065182e+01
   6.719630e+01   4.815611e+01
   4.601578e+01   5.970369e+01
  -6.870875e+01   5.590660e+01
  -1.628004e+02  -1.584256e+01
  -1.374190e+02  -7.236385e+01
   8.569713e+00  -8.759461e+01
   1.458644e+02  -6.385596e+01
   1.107172e+02  -2.226134e+01
   3.956380e+01   7.000006e+01
  -6.684566e+01   3.423835e+01
  -8.832120e+01   3.874763e+00
  -3.314862e+01  -4.765794e+01
   6.153915e+01  -5.804857e+01
   8.630952e+01   3.441904e+01
   3.688043e+01   6.080076e+01
   4.800478e+01   5.606112e+01
   4.637682e+01  -2.507394e+01
   8.244159e+01   2.686836e+01
   5.972487e+01   8.534838e+01
  -2.873733e+01   1.535170e+02
  -1.110584e+02   1.195799e+02
  -1.782248e+02   1.491630e+01
  -1.412293e+02  -1.100697e+02
  -7.944485e+00  -1.406457e+02
   8.586946e+01  -6.067761e+01
   6.425386e+01   3.362808e+01
  -1.047607e+02   3.831096e+01
  -1.025553e+02  -4.658172e+01
  -8.278910e+01  -9.437593e+01
   7.150978e+01  -1.090115e+02
   1.943896e+02  -7.989017e+01
   1.466370e+02   3.497918e+01
   3.400174e+01   8.571046e+01
  -5.896595e+01   6.267424e+01
  -9.142970e+01   7.388095e+00
   2.379252e+01  -1.929281e+01
   8.074443e+01   1.608991e+01
   6.148526e+01   1.156803e+02
  -8.792677e+01   1.628909e+02
  -1.780882e+02   7.507183e+01
  -1.282396e+02  -9.173838e+01
   1.040953e+01  -2.022299e+02
   1.023709e+02  -1.188160e+02
   8.460537e+01   3.147498e+01
   5.891490e+01   1.168765e+02
  -1.738000e+01   9.220878e+01
  -5.564087e+01   1.525145e+01
  -4.177245e+01  -5.098475e+01
  -1.213633e+01   2.918116e+01
   1.212660e+00   3.987606e+01
  -6.531735e+00   8.661506e+00
  -4.617799e+01  -1.007369e+02
  -3.469026e+01  -1.128520e+02
   3.644181e+01  -2.701531e+01
   1.220268e+02   2.138826e+01
   1.289867e+02   4.695403e+01
   2.308823e+01   5.096147e+01
  -8.538273e+01   4.637147e+01
  -7.824418e+01   8.108732e+00
  -3.280703e+01  -5.873541e+00
   3.125912e+01  -2.014738e+01
   1.465476e+01   2.680450e+01
  -1.350394e+01   1.372712e+01
  -1.639272e+01   1.708918e+01
   7.593369e+01  -2.141624e-01
   6.938821e+01   5.425339e+01
   2.976513e+01   1.206751e+02
  -1.033976e+02   9.432069e+01
  -1.944863e+02   7.976867e+01
  -1.610753e+02  -4.799435e+01
  -2.972005e+01  -1.407001e+02
   6.419371e+01  -1.240458e+02
   1.111088e+02  -2.904222e+01
   8.826795e+01   1.960875e+01
   1.016786e+01   2.258414e+01
  -3.590614e+01   1.919712e+01
   2.982492e+01   1.039719e+01
   2.436640e+01   4.979942e+01
   2.648835e+01   8.632242e+01
  -2.712490e+01   7.685049e+01
  -8.093842e+01  -2.455106e+01
  -5.314965e+01  -1.185708e+02
   7.458637e-01  -1.051910e+02
   1.050430e+02  -3.652263e+01
   1.125445e+02   7.177956e+01
   4.485004e+01   1.202512e+02
  -4.398722e+01   4.245803e+01
  -1.047744e+02  -2.689182e+00
  -3.740712e+01  -5.842603e+01
   5.607000e+01  -5.048162e+01
   2.624946e+01  -2.000779e+01
  -3.909106e+01  -1.126802e+01
  -7.391310e+01  -2.303979e+01
  -3.033446e+01  -5.678537e+01
   9.368677e+01  -5.496886e+01
   1.246272e+02  -3.969024e+01
   5.583588e+01   2.188769e+01
  -2.700867e+01   7.491469e+01
  -7.792496e+01   6.198898e+01
  -4.460915e+01  -2.967734e+01
  -1.684029e+01  -4.894039e+01
   3.022127e+01  -5.401902e+01
   2.307025e+01   2.152647e+01
   1.936446e+01   7.533088e+01
  -2.164410e+00   3.083375e+01
  -1.036407e+01   1.003191e+01
  -1.125825e+01  -2.943066e+01
  -5.235785e+00   2.176411e+01
   1.346366e+01   4.289668e+01
  -2.985441e+00   1.932237e+01
  -1.646139e+01  -1.478088e+01
   2.917665e+01  -3.933839e+01
   2.590822e+01   6.995487e+00
   3.260801e+01   1.197099e+01
  -8.726281e+00   7.535966e+01
  -4.955404e+01   4.147277e+00
  -7.447840e+01  -5.553141e+01
  -4.690653e+01  -5.807933e+01
   5.870143e+01  -1.597729e+01
   7.679453e+01   7.822212e+00
   5.910438e+01   3.009085e+01
  -4.129928e+01   2.782739e+01
  -4.930230e+01   3.453661e+01
  -5.104172e+01   2.429975e+01
   4.174324e+01   2.629200e+01
   5.578500e+01   1.554450e+01
  -3.337434e+01   2.899674e+01
  -8.140147e+01   2.479489e+01
