
 $NMID
 id='ANONYMOUS ', fmtdat='(2E16.6)'
 volume=1.0
 tramp=1.0
 $END
  -3.108700e+03   3.807639e+02
  -2.246130e+03  -1.593631e+03
   1.462200e+01  -2.112057e+03
   1.193181e+03  -1.310142e+03
   9.614954e+02  -7.705365e+01
  -4.260740e+01   3.286501e+02
  -4.778450e+02  -9.945774e+01
  -3.160160e+01  -5.108895e+02
   4.087151e+02  -5.584158e+02
   6.068435e+02  -8.279957e+01
   4.881857e+02   5.005040e+02
   5.866197e+01   6.607942e+02
  -3.002171e+02   1.944377e+02
  -2.353839e+02  -3.768702e+02
   7.329391e+01  -4.953702e+02
   3.766660e+02  -7.587997e+01
   2.913966e+02   4.395621e+02
  -1.605779e+02   5.560518e+02
  -4.187340e+02   2.382767e+02
  -4.152544e+02  -1.953428e+02
  -1.197891e+02  -3.374218e+02
   1.289118e+02  -2.194576e+02
   4.916798e+01  -1.037414e+02
  -1.477055e+02  -1.009029e+02
  -2.006487e+02  -2.010691e+02
  -2.025366e+00  -2.920427e+02
   4.131096e+02  -1.570071e+02
   5.593333e+02   1.255112e+02
   2.032849e+02   3.088652e+02
  -2.817701e+02   2.228550e+02
  -4.680284e+02  -9.807204e+01
  -1.881305e+02  -3.177171e+02
   1.675993e+02  -3.357571e+02
   3.847845e+02  -1.257324e+02
   3.191802e+02   9.190156e+01
   8.364821e+01   3.069965e+02
  -1.406504e+01   1.701213e+02
  -6.978841e+00  -6.383737e+01
   1.380277e+02  -1.956185e+02
   1.638201e+02   1.058548e+02
   5.409115e+01   4.248558e+02
  -2.139888e+02   4.355505e+02
  -3.611750e+02  -1.726050e+01
  -1.502062e+02  -2.990474e+02
   1.540508e+02  -1.679051e+02
   1.857193e+02   2.366905e+02
  -6.060079e+01   3.558735e+02
  -4.066578e+02   7.523647e+01
  -4.326469e+02  -2.970500e+02
  -1.309639e+02  -4.228006e+02
   2.813437e+02  -2.229990e+02
   5.074883e+02   5.768158e+01
   3.109418e+02   2.604112e+02
  -5.906412e+01   2.188723e+02
  -2.490119e+02   1.124688e+02
  -2.231784e+02  -6.687135e+01
  -1.324366e+01  -4.205090e+00
   6.338346e+01   8.330720e+01
  -1.106918e+02   1.047981e+02
  -2.600979e+02  -2.632868e+01
  -1.173327e+02  -1.617004e+02
   1.499902e+02  -2.296799e+02
   3.181784e+02  -9.793394e+01
   1.817197e+02   1.078566e+02
  -2.188539e+01   2.893684e+02
  -2.604988e+02   3.179240e+02
  -3.405900e+02   1.414833e+02
  -2.182731e+02  -1.492446e+02
  -7.243374e+01  -3.401085e+02
   6.221940e+01  -2.732523e+02
   4.576992e+01  -1.730895e+02
   2.862473e+01  -5.122369e+01
   1.047970e+02  -1.070900e+02
   2.353783e+02  -7.217092e+01
   2.222518e+02   9.718666e+01
   9.333967e+01   2.311101e+02
  -8.033488e+01   1.829382e+02
  -1.643920e+02  -1.855816e+01
  -1.566511e+02  -2.026168e+02
   1.578541e+01  -2.480664e+02
   2.036988e+02  -6.440724e+01
   3.162630e+02   1.563114e+02
   1.756595e+02   2.642909e+02
  -4.463169e+01   2.550464e+02
  -1.682367e+02   1.556868e+02
  -1.788834e+02   6.143228e+01
  -1.206741e+02   7.149090e+01
  -2.409872e+02   4.658600e+01
  -3.796644e+02  -7.140299e+01
  -2.640563e+02  -2.611219e+02
   2.654302e+01  -4.021626e+02
   3.360688e+02  -3.189023e+02
   3.833869e+02  -1.768817e+02
   2.686597e+02   9.437972e+01
   6.665298e+01   2.087094e+02
  -8.502164e+01   1.970493e+02
  -4.879614e+01   4.714463e+01
   9.333973e+01  -5.957104e+01
   1.215109e+02   1.144258e+01
   2.354995e+01   1.630201e+02
  -8.655434e+01   1.003039e+02
  -1.006857e+02  -1.680870e+01
   2.448674e+01  -1.269749e+02
   1.613962e+02  -1.322360e+01
   1.614474e+02   2.306968e+02
  -2.975454e+00   3.029767e+02
  -2.061210e+02   1.828484e+02
  -3.349299e+02  -8.470520e+01
  -2.474908e+02  -2.618144e+02
  -6.051184e+01  -2.814477e+02
   1.343030e+02  -1.129513e+02
   1.257982e+02  -5.397227e+00
   2.821158e+01   2.452304e+01
  -4.082581e+01  -5.402996e+01
  -4.495444e+00  -9.692451e+01
   9.481451e+01  -4.807588e+01
   1.187888e+02   3.507172e+01
   2.041421e+01   7.867088e+01
  -7.575147e+01  -2.550614e+01
  -2.264144e+01  -7.778849e+01
   1.121745e+02  -7.128627e+01
   2.590066e+02   1.220395e+01
   2.396922e+02   1.753702e+02
   8.140095e+00   2.269740e+02
  -1.948253e+02   2.085807e+02
  -2.397487e+02   7.875378e+01
  -1.078399e+02  -2.347693e+01
   2.243897e+01  -6.935050e+01
   4.290547e+01   1.268182e+01
  -2.017810e+01   8.558637e+01
  -1.500992e+02   2.855176e+01
  -1.899943e+02  -9.134817e+01
  -5.091718e+01  -1.652351e+02
   7.716279e+01  -1.237506e+02
   1.390961e+02  -2.734821e+01
   3.579539e+01   3.262449e+01
  -4.080860e+01  -2.559794e+01
  -1.463228e+01  -8.966027e+01
   8.442640e+01  -8.360126e+01
   1.930861e+02  -3.344239e+01
   1.733963e+02   9.872979e+01
   1.457010e+01   1.972429e+02
  -1.457298e+02   1.561389e+02
  -1.636178e+02   1.065789e+01
  -5.529389e+01  -6.932060e+01
   4.582068e+01  -8.181225e+01
   5.751777e+01  -3.224006e+01
  -1.629519e+00   3.198505e+01
  -3.076724e+00   1.846633e+01
  -2.419104e+01  -2.212635e+01
   7.765057e+01   1.941722e+00
   9.422199e+01   8.553599e+01
   1.611204e+01   1.523588e+02
  -1.105214e+02   1.508483e+02
  -2.340742e+02   5.026205e+00
  -1.688929e+02  -1.550290e+02
  -2.633541e+01  -2.232908e+02
   7.480835e+01  -1.637523e+02
   1.330418e+02  -4.623786e+01
   8.954088e+01   1.685685e+01
   3.228191e+01   4.617219e+01
   5.892644e+01   2.251674e+01
   6.747487e+01   2.571751e+00
   7.308015e+01   4.915528e+01
  -1.582398e+01   8.959637e+01
  -1.073467e+02   7.000061e+01
  -1.009713e+02  -6.379886e+01
   3.692903e+00  -1.214285e+02
   1.473535e+02  -7.529224e+01
   1.742791e+02   7.823395e+01
   5.630710e+01   2.051349e+02
  -1.179907e+02   2.293283e+02
  -2.403286e+02   9.246957e+01
  -2.304293e+02  -6.986045e+01
  -7.612846e+01  -1.255023e+02
   1.713874e+01  -1.205581e+02
   6.812229e+01  -9.573501e+01
   2.400501e+01  -6.836598e+01
   5.800064e+01  -1.029263e+02
   1.066120e+02  -8.731798e+01
   1.190053e+02   1.667264e+01
   1.152616e+02   1.282618e+02
  -1.368595e+01   1.954775e+02
  -1.081056e+02   1.392644e+02
  -1.295880e+02   9.642924e+00
  -1.049658e+02  -1.357623e+02
  -1.441181e+01  -1.789550e+02
   6.021949e+01  -7.364435e+01
   6.394277e+01  -1.262631e+01
   1.543726e+01   5.802992e+01
   5.889636e+00   1.085424e+01
   8.130259e+00   1.236934e+01
   5.834322e+01   4.737307e+01
   3.563224e+01   4.736807e+01
  -1.001037e+02   5.201126e+01
  -1.515615e+02   7.148162e+00
  -1.143804e+02  -4.798527e+01
   1.767479e+01  -8.950043e+01
   1.207749e+02  -5.450274e+01
   1.374533e+02   4.563122e+00
   2.332545e+01   5.089437e+01
  -6.423776e+01   4.691434e+01
  -6.899500e+01   1.792181e+01
  -4.854736e-01  -9.407378e+01
   4.148172e+01  -6.855002e+01
   8.950902e+01  -7.548407e+00
   5.679066e+01   5.955398e+01
   4.843166e+01   4.820527e+01
   3.900800e+01  -1.329745e+01
   4.090278e+01   3.695550e+00
   2.721577e+01   7.740669e+01
  -4.452425e+01   1.526357e+02
  -9.689260e+01   1.335245e+02
  -1.918631e+02   5.264128e+00
  -1.369110e+02  -8.131886e+01
   1.652522e+01  -1.183190e+02
   7.523713e+01  -7.398259e+01
   5.031624e+01   1.546944e+01
  -5.653699e+01   2.219354e+01
  -1.103888e+02  -2.358529e+01
  -8.439406e+01  -1.036780e+02
   7.249409e+01  -1.297996e+02
   1.826499e+02  -4.086354e+01
   1.621245e+02   3.976913e+01
   5.445964e+01   7.139154e+01
  -4.979479e+01   7.753480e+01
  -4.095751e+01  -2.351226e+01
   2.584407e+01  -2.015541e+01
   6.579742e+01   1.106448e+01
   6.532168e+01   1.021061e+02
  -8.125822e+01   1.385720e+02
  -1.245811e+02   6.162290e+01
  -1.148916e+02  -8.623010e+01
  -1.724780e+01  -1.794174e+02
   7.740949e+01  -1.606319e+02
   9.022185e+01   5.490854e+00
   7.526939e+01   8.103145e+01
  -8.608215e+00   9.358407e+01
  -3.537889e+01   8.399448e+00
  -3.914890e+01  -1.748487e+01
  -1.858452e+01  -2.424542e+01
  -5.391508e+00   3.052610e+00
  -2.482113e+01  -2.019862e+01
  -4.099105e+01  -8.088361e+01
  -2.309336e+01  -7.493342e+01
   3.669312e+01  -2.846933e+01
   1.145929e+02   3.986089e+01
   1.340078e+02   3.450785e+01
   1.194231e+01   3.609280e+01
  -7.245953e+01   3.031740e+01
  -6.009049e+01  -2.701685e+00
  -1.833427e+01   5.684014e+00
   7.044478e+00  -3.165184e+01
   5.469351e+00  -2.497020e+01
  -1.307033e+01  -1.624555e+01
  -4.306608e+00   4.529554e+00
   5.145417e+01  -3.116757e+01
   5.628232e+01   1.397884e+01
  -7.974642e+00   7.813318e+01
  -1.076901e+02   1.211221e+02
  -1.721426e+02   6.366306e+01
  -1.463754e+02  -5.384124e+01
  -5.485117e+00  -1.493467e+02
   6.529193e+01  -1.407045e+02
   1.316973e+02  -6.265287e+01
   8.206126e+01   2.683586e+00
   5.556475e+01   3.064600e+01
   1.180863e+00   1.406872e+01
   2.834837e+01   5.719660e+00
   4.204425e+00   3.876554e+01
   2.285214e+01   9.041021e+01
  -1.218780e+01   8.068370e+01
  -7.161339e+01   1.781180e+00
  -8.424453e+01  -1.138133e+02
  -3.431918e+01  -9.750570e+01
   7.337675e+01  -3.877589e+01
   1.104103e+02   4.261787e+01
   6.057934e+01   9.576788e+01
  -6.321000e+01   4.362647e+01
  -8.064935e+01  -1.873642e+01
  -5.537162e+01  -4.753804e+01
   4.876521e+01  -3.739774e+01
   2.320623e+01  -4.547221e+01
  -3.372247e+01   7.687258e+00
  -5.685265e+01   1.080732e+01
  -1.593639e+01  -2.948436e+01
   9.451091e+01  -5.096531e+01
   1.261530e+02  -7.063244e+01
   7.845680e+01   4.011712e+01
  -3.220003e+01   9.724661e+01
  -5.452122e+01   5.909626e+01
  -1.909844e+01   1.409625e+01
   3.152688e+00  -6.256161e+01
   5.073502e+01  -4.532438e+01
   4.302319e+01   1.923547e+00
   1.786976e+01   4.409026e+01
  -1.335259e+00   3.260051e+01
  -2.283582e+01   2.166172e+01
  -1.464214e+01   3.721752e+00
  -2.661838e+01   1.719226e+01
   7.799702e+00   2.787908e+01
   2.464005e+01  -5.875947e+00
  -1.939952e+01  -1.603950e+01
  -1.468052e+01  -4.421822e+01
   2.106448e+01   1.521789e+00
   3.881855e+01   3.451204e+01
   3.215275e+01   6.026033e+01
  -5.642600e+01   2.643160e+01
  -6.015079e+01  -2.593343e+01
  -1.782256e+01  -5.640731e+01
   2.646984e+01  -3.657208e+01
   9.320836e+01   2.991123e+01
   5.805816e+01   3.307241e+01
  -1.465859e+01   2.859811e+01
  -6.777266e+01   2.666654e+01
  -3.871966e+01   2.479355e+01
   3.703619e+01  -8.647814e+00
   2.281545e+01   4.678857e+00
  -1.515362e+00   2.138083e+01
  -5.241041e+01   3.553833e+01
