
 $NMID
 id='ANONYMOUS ', fmtdat='(2E16.6)'
 volume=1.0
 tramp=1.0
 $END
  -3.048621e+03   1.962619e+01
  -1.952329e+03  -1.558584e+03
   2.155619e+02  -1.951290e+03
   1.239948e+03  -1.231919e+03
   7.592818e+02  -2.712038e+01
  -5.997140e+01   2.277495e+02
  -3.547338e+02  -1.782755e+02
  -9.147874e+00  -5.198947e+02
   4.611371e+02  -5.773015e+02
   5.927320e+02   2.668852e+00
   3.559333e+02   5.079017e+02
  -5.941717e+01   6.131967e+02
  -3.438159e+02   1.263321e+02
  -1.976716e+02  -4.112937e+02
   1.423863e+02  -5.053820e+02
   3.642255e+02  -1.327381e+01
   2.265808e+02   4.927988e+02
  -1.369486e+02   5.366068e+02
  -4.173445e+02   1.906304e+02
  -4.023106e+02  -1.966366e+02
  -1.197416e+02  -3.504173e+02
   1.319408e+02  -2.024946e+02
   8.301322e+01  -6.724815e+01
  -1.610510e+02  -8.080593e+01
  -2.677426e+02  -2.486129e+02
  -1.636217e+01  -3.367072e+02
   3.993428e+02  -1.630262e+02
   5.521921e+02   2.149900e+02
   1.996808e+02   3.723288e+02
  -3.288866e+02   2.266304e+02
  -4.826403e+02  -1.629941e+02
  -1.554944e+02  -3.597076e+02
   2.549348e+02  -3.138231e+02
   4.111828e+02  -1.178662e+02
   2.875212e+02   1.548281e+02
   4.867850e+01   2.740184e+02
  -2.552147e+01   1.454836e+02
   4.430356e+01  -9.712642e+01
   1.361165e+02  -1.612445e+02
   2.281005e+02   1.433321e+02
   1.440392e+01   5.078544e+02
  -2.781441e+02   4.045437e+02
  -3.392558e+02  -1.499098e+01
  -9.847147e+01  -3.641412e+02
   1.770742e+02  -1.411007e+02
   1.656403e+02   2.829495e+02
  -1.204728e+02   3.523222e+02
  -4.403540e+02   3.588030e+01
  -4.162294e+02  -3.993424e+02
  -1.339009e+02  -4.892379e+02
   2.912796e+02  -2.394721e+02
   4.912292e+02   9.389613e+01
   3.303173e+02   2.472171e+02
  -7.893716e+01   2.332894e+02
  -2.737360e+02   5.412751e+01
  -1.788906e+02  -3.991831e+01
   4.672016e+01  -1.353069e+01
   4.619736e+01   7.445430e+01
  -8.528028e+01   6.807837e+01
  -2.309026e+02  -1.653796e+01
  -1.196194e+02  -1.788995e+02
   1.332451e+02  -2.339653e+02
   2.953646e+02  -8.873998e+01
   1.896304e+02   1.501261e+02
  -8.150062e+00   2.885839e+02
  -2.559322e+02   3.415038e+02
  -3.359019e+02   1.282113e+02
  -2.259088e+02  -1.750681e+02
  -1.761501e+01  -3.034758e+02
   5.699075e+01  -2.819011e+02
   3.583632e+01  -1.554148e+02
   2.481475e+01  -9.358223e+01
   1.265412e+02  -1.265661e+02
   1.997257e+02  -6.147261e+01
   2.016065e+02   1.063540e+02
   6.260396e+01   2.560678e+02
  -8.899316e+01   1.895285e+02
  -1.963327e+02  -2.287657e+01
  -9.062329e+01  -1.911924e+02
   2.979113e+01  -2.370400e+02
   2.226678e+02  -6.151416e+01
   2.572015e+02   1.737021e+02
   1.477783e+02   2.829541e+02
  -5.441619e+01   2.510093e+02
  -1.478682e+02   1.125435e+02
  -1.140544e+02   5.511981e+01
  -1.221271e+02   5.264477e+01
  -2.546279e+02   2.986855e+01
  -3.697468e+02  -9.440616e+01
  -2.557304e+02  -2.988754e+02
   3.957525e+01  -3.870148e+02
   3.188405e+02  -3.563742e+02
   4.482485e+02  -1.225678e+02
   2.434656e+02   1.155721e+02
   1.007675e+01   2.331943e+02
  -8.020447e+01   1.845042e+02
  -2.717104e+01   3.102762e+01
   1.169278e+02  -6.197060e+01
   1.093220e+02   8.180676e+00
   4.587557e+00   1.426121e+02
  -1.084885e+02   9.498220e+01
  -1.050490e+02  -2.482264e+01
   3.098291e+01  -1.037920e+02
   1.496377e+02   1.662714e+01
   1.349079e+02   1.968099e+02
  -2.768564e+01   3.237737e+02
  -2.317696e+02   1.901023e+02
  -3.088091e+02  -7.496756e+01
  -2.695943e+02  -2.550550e+02
  -5.047993e+01  -2.635826e+02
   1.149459e+02  -1.240087e+02
   1.369345e+02  -1.423262e+01
   5.091116e+01   1.168610e+01
  -7.343290e+01  -6.058879e+01
  -2.121762e+01  -1.038470e+02
   1.236524e+02  -5.406091e+01
   1.443707e+02   8.258699e+01
   2.579204e+01   6.852704e+01
  -9.377620e+01   3.137618e+00
  -6.517507e+01  -1.071335e+02
   1.204623e+02  -6.834299e+01
   2.916478e+02   2.313218e+01
   2.199377e+02   1.530438e+02
   3.061373e+01   2.464343e+02
  -1.740281e+02   2.191498e+02
  -2.707858e+02   7.247067e+01
  -1.040026e+02  -3.277494e+01
   2.473269e+01  -6.586360e+01
   7.079465e+01  -3.506170e+00
  -4.236580e+01   1.030937e+02
  -1.660117e+02   1.371111e+01
  -1.690529e+02  -1.061772e+02
  -2.892951e+01  -1.892495e+02
   1.057168e+02  -1.324267e+02
   1.054849e+02   1.668671e+01
   4.324806e+01   5.178496e+01
  -4.378689e+01  -1.602414e+01
  -1.707470e+01  -9.258626e+01
   9.821681e+01  -9.409743e+01
   2.024788e+02  -4.306963e+00
   1.428957e+02   1.036996e+02
  -2.474297e+00   1.772681e+02
  -1.327192e+02   1.256660e+02
  -1.341603e+02   2.521958e+00
  -5.093417e+01  -1.041964e+02
   5.650861e+01  -8.967089e+01
   5.846132e+01   1.014156e+01
  -1.214718e-01   2.038361e+01
  -2.604671e+01   1.021629e+01
  -4.093918e+00   4.782398e-01
   6.730215e+01  -3.768229e+01
   1.009373e+02   6.225545e+01
  -7.980812e+00   1.384802e+02
  -1.227733e+02   1.300398e+02
  -2.013178e+02   1.349758e+01
  -1.668485e+02  -1.332591e+02
  -2.440526e+01  -1.954658e+02
   1.108228e+02  -1.730572e+02
   1.295587e+02  -1.042183e+01
   6.094852e+01   2.684896e+01
   3.225232e+01   3.238533e+01
   3.517091e+01  -1.379845e+01
   7.430477e+01   3.172524e+00
   5.388621e+01   6.589634e+01
  -2.521814e+01   9.513555e+01
  -1.232081e+02   5.465292e+01
  -8.150452e+01  -1.362447e+01
   7.202429e+00  -1.176687e+02
   1.654250e+02  -7.811817e+01
   1.851821e+02   7.758928e+01
   8.739580e+01   2.073380e+02
  -1.221158e+02   2.064261e+02
  -2.402529e+02   7.375525e+01
  -2.165675e+02  -9.401996e+01
  -6.324612e+01  -1.271343e+02
   3.374316e+01  -1.074146e+02
   5.988779e+01  -7.003902e+01
   3.608939e+01  -7.667297e+01
   5.014990e+01  -8.040207e+01
   1.139035e+02  -9.428251e+01
   1.044256e+02   1.811170e+01
   1.082729e+02   1.284414e+02
   1.761892e+01   2.084213e+02
  -8.480508e+01   1.632343e+02
  -1.480386e+02  -6.232720e+00
  -9.383152e+01  -1.053678e+02
  -1.445624e+00  -1.119690e+02
   7.875458e+01  -6.440647e+01
   5.564627e+01   2.778793e+01
   1.078514e+01   4.993632e+01
  -1.824092e+01   2.462839e+01
   3.647665e+01  -1.223507e+01
   8.343782e+01   2.463639e+01
   4.101576e+01   5.181262e+01
  -7.589848e+01   3.884718e+01
  -1.883160e+02  -7.851431e+00
  -1.323968e+02  -5.687812e+01
   2.071612e+01  -1.047073e+02
   1.625883e+02  -7.865663e+01
   1.212867e+02   2.608797e+01
   3.939490e+01   7.517479e+01
  -6.609047e+01   2.244837e+01
  -7.623279e+01  -3.788457e+01
  -2.483318e+01  -7.840166e+01
   3.225137e+01  -5.913605e+01
   5.403858e+01  -1.292325e+01
   4.335687e+01   4.348828e+01
   5.146567e+01   2.335314e+01
   7.805520e+01  -2.252519e+01
   5.403689e+01  -5.273288e+00
   6.369042e+01   6.279077e+01
  -1.149227e+01   1.376960e+02
  -1.063777e+02   1.244530e+02
  -1.780201e+02   1.342721e+01
  -1.135340e+02  -9.009530e+01
   2.419161e+01  -1.228545e+02
   9.335924e+01  -4.939894e+01
   5.178316e+01   1.275257e+01
  -6.678753e+01   1.271758e+01
  -1.246259e+02  -6.048915e+01
  -7.798869e+01  -7.739470e+01
   6.736510e+01  -1.054130e+02
   1.847717e+02  -4.625244e+01
   1.576495e+02   3.897492e+01
   4.318800e+01   1.166051e+02
  -8.884139e+01   7.514014e+01
  -4.616327e+01   4.409167e+00
   6.048881e+01  -5.066909e+01
   1.030637e+02   3.026228e+01
   7.934083e+01   1.152546e+02
  -7.326950e+01   1.478383e+02
  -1.269567e+02   6.688347e+01
  -1.280741e+02  -9.347849e+01
  -1.005176e+01  -2.112753e+02
   7.720183e+01  -1.554900e+02
   1.219425e+02   4.142682e+01
   4.193069e+01   9.591170e+01
  -1.567847e+01   9.475239e+01
  -3.966471e+01   2.852672e+01
  -2.235574e+01  -3.114072e+01
  -1.254130e+01   3.958878e+00
  -1.382205e+01   4.882048e+01
  -1.435395e+01  -2.755678e+01
  -4.550545e+01  -7.341718e+01
  -2.861760e+01  -9.464817e+01
   5.391260e+01  -2.766153e+01
   1.154617e+02   3.812387e+01
   9.355790e+01   4.800625e+01
  -7.280133e+00   4.721980e+01
  -9.471765e+01   1.516893e+01
  -7.634597e+01  -3.457649e+00
  -4.956890e+00   3.635541e+00
   2.200158e+01  -1.855120e+01
   8.560663e+00  -1.407810e+01
  -1.246466e+01  -6.722810e+00
   3.901239e+00   9.673302e+00
   7.607184e+01  -1.543376e+01
   9.311115e+01   1.146360e+01
   2.132559e+01   8.360669e+01
  -1.170193e+02   1.292561e+02
  -1.565153e+02   6.878494e+01
  -1.163123e+02  -4.461429e+01
  -1.374650e+01  -1.527490e+02
   6.807713e+01  -1.361946e+02
   9.960755e+01  -5.158300e+01
   7.189005e+01   2.653519e+01
   1.089347e+01   5.781227e+01
   1.835894e-02   7.329523e+00
   1.823915e+01   4.162303e+01
   3.949068e+01   4.392128e+01
   3.121615e+01   8.431730e+01
  -2.265663e+01   8.005804e+01
  -7.236635e+01  -1.828266e+01
  -1.029865e+02  -1.174801e+02
  -5.121120e+01  -1.175904e+02
   7.878695e+01   7.887811e+00
   1.007097e+02   6.130326e+01
   2.797459e+01   1.079671e+02
  -4.963633e+01   6.831796e+01
  -1.018730e+02  -2.008119e+01
  -3.980363e+01  -8.419715e+01
   6.282932e+01  -7.559063e+01
   1.889441e+01  -2.078422e+01
  -1.984920e+01   4.195186e+01
  -6.461188e+01   1.017303e+01
  -1.572760e+01  -2.916071e+01
   7.830560e+01  -6.733446e+01
   1.052688e+02  -6.061382e+01
   6.183182e+01  -6.848951e+00
  -2.302148e+01   9.213897e+01
  -6.668171e+01   6.381627e+01
  -5.020812e+01   7.225790e+00
  -1.492435e+01  -4.509561e+01
   5.126364e+01  -6.483523e+01
   4.198760e+01  -4.859244e+00
   4.360014e+01   3.865389e+01
   1.196574e+01   2.792216e+01
  -3.628044e+01  -8.072056e+00
  -3.516763e+01  -3.020566e+01
  -3.206182e+01   2.336256e+01
  -1.607709e+01   2.817974e+01
  -6.299617e+00   2.942449e+01
  -2.272381e+01  -1.952485e+01
  -7.886640e+00  -5.361731e+01
   6.600260e+00  -1.542531e+01
   3.454087e+01   2.863093e+01
   1.987239e+01   4.558409e+01
  -2.906613e+01   1.891305e+01
  -7.535056e+01  -4.775132e+01
  -4.021964e+01  -5.519377e+01
   3.583540e+01  -2.666429e+01
   8.758715e+01  -3.316943e+00
   4.385378e+01   2.399606e+01
  -3.879980e-01   4.479364e+01
  -6.166989e+01   3.861261e+01
  -3.949062e+01   8.076054e+00
   2.947286e+01  -8.523359e+00
   4.254816e+01   5.020650e+00
  -1.165136e+01   3.052247e+01
  -8.089410e+01   4.129316e+00
