
 $NMID
 id='ANONYMOUS ', fmtdat='(2E16.6)'
 volume=1.0
 tramp=1.0
 $END
   3.161976e+03   1.849661e+00
   1.934594e+03   1.620807e+03
  -2.195867e+02   1.902381e+03
  -1.183929e+03   1.107951e+03
  -8.035328e+02   3.972543e+01
   1.447317e+02  -2.015484e+02
   4.233566e+02   1.630457e+02
  -5.100805e+01   5.642116e+02
  -5.152384e+02   5.685155e+02
  -6.817296e+02   1.691510e-01
  -3.716632e+02  -5.137398e+02
   6.154988e+01  -6.247732e+02
   3.677608e+02  -1.058999e+02
   1.872055e+02   4.447410e+02
  -1.747329e+02   4.822057e+02
  -3.712206e+02  -3.169463e+00
  -2.523492e+02  -5.057970e+02
   1.471600e+02  -5.689750e+02
   4.348014e+02  -1.908309e+02
   3.725520e+02   1.889294e+02
   1.010357e+02   3.350913e+02
  -1.231192e+02   2.067572e+02
  -8.288992e+01   7.288517e+01
   1.835343e+02   7.854212e+01
   2.782456e+02   2.506665e+02
  -1.982385e+01   3.499361e+02
  -4.298277e+02   2.166756e+02
  -5.937233e+02  -2.105359e+02
  -2.038167e+02  -3.781577e+02
   3.434904e+02  -2.558726e+02
   4.976943e+02   1.474140e+02
   1.842555e+02   3.910147e+02
  -2.598328e+02   3.548435e+02
  -4.393149e+02   1.047009e+02
  -2.983316e+02  -1.641723e+02
  -6.199645e+01  -3.038356e+02
   5.738050e+01  -1.609441e+02
  -5.599412e+01   1.223898e+02
  -1.914553e+02   1.532518e+02
  -2.213043e+02  -1.229434e+02
  -1.894046e+01  -5.539199e+02
   2.745256e+02  -4.597819e+02
   3.625353e+02   6.009036e+01
   1.298477e+02   3.501843e+02
  -1.842789e+02   1.596302e+02
  -1.669457e+02  -2.782300e+02
   1.103620e+02  -3.662176e+02
   4.435847e+02  -7.350653e+01
   4.589555e+02   3.677001e+02
   1.205963e+02   4.706346e+02
  -2.609978e+02   2.679583e+02
  -5.040913e+02  -8.939133e+01
  -3.134924e+02  -2.373601e+02
   1.067141e+02  -2.316226e+02
   3.113592e+02  -5.180256e+01
   1.751286e+02   6.371393e+01
  -9.866056e+00   9.493023e+00
  -7.034732e+01  -5.716878e+01
   1.053911e+02  -6.401663e+01
   2.505398e+02   6.566684e+01
   1.202842e+02   2.147485e+02
  -1.218493e+02   2.334649e+02
  -3.200789e+02   1.142427e+02
  -2.093928e+02  -1.140667e+02
   1.239523e+01  -3.034230e+02
   2.652207e+02  -3.158676e+02
   3.655197e+02  -1.435656e+02
   2.188497e+02   1.831461e+02
   4.931169e+01   3.232925e+02
  -5.024705e+01   2.975731e+02
  -4.131174e+01   1.470899e+02
  -2.470445e+01   9.750657e+01
  -1.084130e+02   1.150556e+02
  -2.212061e+02   8.176634e+01
  -2.454818e+02  -9.049244e+01
  -1.045489e+02  -2.451879e+02
   7.635321e+01  -1.941411e+02
   1.764315e+02   1.331577e+01
   1.466426e+02   1.940240e+02
  -3.774803e+01   2.317846e+02
  -2.522856e+02   8.566220e+01
  -2.758425e+02  -1.541665e+02
  -1.762010e+02  -2.876559e+02
   2.711136e+01  -2.354590e+02
   1.495349e+02  -1.244230e+02
   1.356514e+02  -5.831744e+01
   1.327685e+02  -6.768116e+01
   2.823605e+02  -5.660004e+01
   3.694299e+02   9.195314e+01
   3.018119e+02   3.050648e+02
  -4.564103e+01   3.885863e+02
  -3.303190e+02   3.869557e+02
  -4.590986e+02   1.474517e+02
  -2.638004e+02  -1.198112e+02
  -3.033580e+01  -2.310211e+02
   8.284487e+01  -1.942102e+02
   1.716714e+01  -2.193128e+01
  -1.145466e+02   4.204415e+01
  -1.383451e+02  -3.436593e+01
  -9.655948e+00  -1.335025e+02
   1.246183e+02  -1.167144e+02
   1.210054e+02   5.315745e+01
  -4.481437e+01   1.372724e+02
  -1.933972e+02  -3.232958e+01
  -1.365463e+02  -2.227151e+02
   3.445052e+01  -3.203416e+02
   2.315330e+02  -1.951192e+02
   3.193011e+02   3.600420e+01
   2.365166e+02   2.559989e+02
   5.395078e+01   2.678198e+02
  -1.339642e+02   1.434609e+02
  -1.352812e+02   3.283155e+00
  -2.197864e+01  -1.322684e+01
   5.661790e+01   3.985283e+01
   2.612171e+01   1.012481e+02
  -1.156632e+02   4.520113e+01
  -1.617302e+02  -5.987204e+01
  -1.914982e+01  -6.014394e+01
   9.830947e+01   9.618667e+00
   4.885409e+01   8.937046e+01
  -1.023698e+02   8.077062e+01
  -2.971553e+02  -2.473817e+01
  -2.226444e+02  -1.673709e+02
  -4.076578e+01  -2.464559e+02
   1.934502e+02  -2.232228e+02
   2.406007e+02  -7.848507e+01
   1.228163e+02   4.055464e+01
  -2.707648e+01   8.204322e+01
  -3.344709e+01  -2.897012e+01
   6.663066e+01  -8.364319e+01
   1.822948e+02  -3.059503e+01
   1.810661e+02   8.556118e+01
   2.828068e+01   1.885961e+02
  -1.260698e+02   1.142813e+02
  -1.248580e+02   1.561418e+01
  -2.982306e+01  -4.932599e+01
   3.566402e+01   4.619068e+00
   2.913667e+01   1.038256e+02
  -9.647388e+01   1.157962e+02
  -1.965713e+02  -1.056527e+00
  -1.520915e+02  -1.095919e+02
  -2.574084e+01  -1.876244e+02
   1.371592e+02  -1.186683e+02
   1.539041e+02  -2.674683e+01
   7.580131e+01   1.094253e+02
  -5.906883e+01   7.932167e+01
  -6.964473e+01   4.387919e+01
  -1.079651e+01  -9.127217e+00
   4.716823e+01  -3.363987e+01
   5.469354e+00   1.109523e+01
  -4.035733e+01   2.829632e+01
  -7.793670e+01  -5.290379e+01
   3.885332e+00  -1.404014e+02
   1.386604e+02  -1.556149e+02
   2.019259e+02  -1.933124e+01
   1.667451e+02   1.360186e+02
   2.843271e+01   1.981998e+02
  -1.229529e+02   1.621502e+02
  -1.279758e+02  -6.596371e+00
  -5.457123e+01  -1.472482e+01
  -3.501810e+01  -6.309864e+01
  -4.265426e+01   2.074852e+01
  -1.027135e+02  -1.845859e+01
  -3.374431e+01  -3.071733e+01
   1.764586e+01  -1.090927e+02
   1.136102e+02  -6.019475e+01
   7.842866e+01   3.824160e+01
  -2.480138e+01   1.138793e+02
  -1.765875e+02   7.507193e+01
  -1.834233e+02  -7.699915e+01
  -7.080696e+01  -1.907199e+02
   1.043765e+02  -2.230256e+02
   2.296353e+02  -5.064670e+01
   2.041663e+02   8.215321e+01
   7.626735e+01   1.429355e+02
  -3.302381e+01   1.023458e+02
  -6.379548e+01   5.515007e+01
  -5.008592e+01   7.905000e+01
  -6.358205e+01   6.991421e+01
  -7.115573e+01   8.196784e+01
  -1.234207e+02  -1.038965e+01
  -1.122568e+02  -1.202781e+02
  -3.321433e+01  -2.041433e+02
   9.883380e+01  -1.528023e+02
   1.633783e+02   3.773971e-01
   1.281207e+02   1.454886e+02
  -2.922938e+00   1.207513e+02
  -7.958104e+01   6.995921e+01
  -7.812235e+01  -2.701550e+01
   7.714898e+00  -3.462913e+01
   5.107768e+01  -1.464993e+01
  -3.816512e+01   1.703179e+00
  -8.811879e+01   1.229962e+01
  -5.334056e+01  -9.495930e+00
   6.202022e+01  -4.422422e+01
   1.567013e+02  -1.519526e+00
   1.374795e+02   5.822187e+01
   4.665410e+00   8.477962e+01
  -1.270722e+02   6.625199e+01
  -1.291142e+02  -8.380552e+00
  -3.279387e+01  -3.310491e+01
   6.756195e+01  -4.291426e+01
   7.321262e+01   1.207582e+01
   1.458414e+01   4.994342e+01
  -4.584363e+01   7.969066e+01
  -6.352119e+01  -4.365516e+00
  -2.384445e+01  -3.715722e+01
  -4.054332e+01  -4.589046e+01
  -5.629979e+01   1.794203e+01
  -4.421987e+01   2.067587e+01
  -5.302446e+01  -9.215365e+01
   2.812970e+01  -1.510640e+02
   1.071580e+02  -1.319986e+02
   1.987740e+02  -3.371033e+01
   1.098944e+02   8.050742e+01
  -3.812913e+01   1.274453e+02
  -1.031532e+02   5.500839e+01
  -7.333437e+01  -3.353543e+01
   4.103794e+01  -2.013926e+01
   1.420452e+02   3.260725e+01
   4.015440e+01   8.479007e+01
  -6.708377e+01   1.184066e+02
  -1.908733e+02   3.586851e+01
  -1.483656e+02  -1.744891e+01
  -2.641564e+01  -8.768282e+01
   5.143220e+01  -4.810206e+01
   3.564173e+01  -4.934033e+00
  -3.373193e+01   4.599930e+01
  -9.699930e+01  -2.252340e+01
  -3.249345e+01  -1.262070e+02
   5.829121e+01  -1.496186e+02
   1.561871e+02  -5.819797e+01
   1.370872e+02   1.005200e+02
   1.080439e-02   2.016269e+02
  -8.357026e+01   1.129303e+02
  -1.044987e+02  -5.359622e+00
  -3.621975e+01  -1.170675e+02
  -6.465734e+00  -8.938188e+01
   4.204116e+01  -2.384075e-01
   3.237578e+01   2.293449e+01
   1.904211e+01  -1.706128e+01
   3.044171e+00  -2.682167e+01
   2.946732e+01   1.945302e+01
   5.009864e+01   8.361288e+01
   5.622600e+01   1.119601e+02
  -4.759372e+01   5.124227e+01
  -1.437025e+02  -6.012757e+01
  -8.268315e+01  -6.994782e+01
   1.096102e+00  -3.832010e+01
   8.437369e+01  -1.968307e+01
   7.436915e+01  -2.422855e-02
   2.615720e+01  -7.983902e-01
  -2.403682e+01   6.697786e+00
  -1.356770e+01   2.479957e+01
   8.702672e+00   2.671461e+00
   8.197826e+00   9.672908e-01
  -7.942579e+01   1.254591e+01
  -9.491322e+01  -9.334245e+00
  -1.663583e+01  -9.187727e+01
   1.096167e+02  -9.338320e+01
   1.517885e+02  -4.746477e+01
   1.300745e+02   5.446393e+01
  -1.231577e+01   1.515403e+02
  -9.412276e+01   1.790428e+02
  -1.279480e+02   6.000579e+01
  -7.277826e+01  -2.257979e+01
  -2.841511e+00  -3.662527e+01
  -1.607873e+01  -1.011151e+01
  -2.896283e+01  -3.341275e+00
  -4.259236e+01  -4.225736e+01
  -3.249431e+01  -8.668131e+01
   5.561613e+00  -8.466380e+01
   7.149385e+01   3.278661e+01
   9.629318e+01   1.037215e+02
   3.079093e+00   1.063198e+02
  -8.626324e+01  -2.747636e+00
  -9.886108e+01  -5.734752e+01
  -3.302514e+01  -1.157109e+02
   4.552436e+01  -4.956141e+01
   1.060775e+02   4.018897e+01
   2.238875e+01   5.974241e+01
  -2.685430e+01   5.199048e+01
  -3.261267e+01   2.913871e+01
   2.524011e+01   1.048923e+00
   4.388854e+01  -1.651981e+01
   1.225424e+01   1.307377e+01
  -7.648514e+01   5.224376e+01
  -1.107401e+02   5.491980e+01
  -5.799598e+01  -3.397349e+01
   2.355919e+01  -8.320175e+01
   5.980072e+01  -7.223844e+01
   4.946988e+01  -1.433799e+01
  -3.882980e+00   4.920839e+01
  -3.188587e+01   9.027658e+01
  -4.977039e+01  -3.041795e+01
  -1.683390e+01  -4.870263e+01
   1.044086e+01  -2.103714e+01
  -5.412144e+00  -6.073667e+00
   2.612899e+01   5.945096e-01
   2.894606e+01  -1.298009e+01
   1.322127e+01  -6.456735e+00
  -1.012606e+01  -1.430491e+01
   1.058168e-01   6.123568e+01
  -2.609473e+01   3.938638e+01
  -1.708934e+01   1.889025e+01
  -4.355088e+01  -5.468684e+01
  -1.168926e+01  -4.697334e+01
   3.636864e+01  -3.522628e+01
   7.757065e+01   3.214547e+01
   1.493749e+00   6.061612e+01
  -5.403252e+01   4.468879e+01
  -6.751019e+01  -4.465430e+00
  -4.630538e+01  -1.842566e+01
   1.882092e+01  -3.894307e+01
   6.052016e+01  -1.872969e+01
   1.565943e+01  -1.749394e+00
  -3.194045e+01  -8.276683e+00
  -3.737207e+01   7.443358e+00
   2.959683e+01  -4.716161e+01
   6.127401e+01  -1.451603e+01
