
 $NMID
 id='ANONYMOUS ', fmtdat='(2E16.6)'
 volume=1.0
 tramp=1.0
 $END
   3.371699e+03  -1.439439e+02
   2.219528e+03   1.739231e+03
  -2.333231e+02   2.126404e+03
  -1.381475e+03   1.109885e+03
  -9.350803e+02  -8.769763e+01
   2.154257e+02  -2.831027e+02
   4.615018e+02   2.086428e+02
  -1.754060e+01   6.928442e+02
  -5.547928e+02   6.388561e+02
  -7.215716e+02   2.238742e+01
  -3.994055e+02  -5.627089e+02
   2.991602e+01  -7.439569e+02
   3.675833e+02  -1.500046e+02
   2.604767e+02   4.898753e+02
  -1.836989e+02   5.456581e+02
  -4.586713e+02   8.049106e+01
  -2.706277e+02  -5.143109e+02
   1.552465e+02  -5.869361e+02
   4.319933e+02  -2.226565e+02
   3.972260e+02   2.313631e+02
   9.774427e+01   3.415537e+02
  -1.732204e+02   2.125183e+02
  -1.028512e+02   7.021738e+00
   1.439010e+02  -1.781930e+01
   2.857219e+02   1.913187e+02
   4.761794e+01   3.386925e+02
  -4.032005e+02   2.363444e+02
  -6.416056e+02  -1.154222e+02
  -2.689454e+02  -3.496945e+02
   2.888576e+02  -2.813149e+02
   5.623685e+02   6.592916e+01
   2.430129e+02   3.643568e+02
  -2.022833e+02   3.942638e+02
  -4.500273e+02   1.447417e+02
  -3.623321e+02  -1.388697e+02
  -9.631994e+01  -3.723541e+02
   1.277474e+02  -2.493677e+02
   7.139925e+01   1.475328e+02
  -1.292104e+02   2.423926e+02
  -2.889556e+02  -8.463417e+01
  -1.124584e+02  -5.360884e+02
   2.643618e+02  -4.546485e+02
   3.700453e+02  -2.251070e+01
   2.092181e+02   3.603260e+02
  -2.163880e+02   1.915345e+02
  -2.781126e+02  -2.307661e+02
   7.823195e+01  -3.890265e+02
   4.317823e+02  -1.346630e+02
   4.749295e+02   3.400989e+02
   1.752741e+02   4.999128e+02
  -2.709306e+02   2.947632e+02
  -5.148405e+02  -3.971376e+01
  -2.818626e+02  -2.535338e+02
   4.425863e+01  -2.598272e+02
   3.310594e+02  -8.424156e+01
   2.187990e+02   1.036429e+02
  -4.052925e+01   3.131758e+01
  -8.921909e+01  -5.156943e+01
   5.303878e+01  -1.060963e+02
   2.042161e+02   7.144694e+01
   1.576354e+02   2.144777e+02
  -1.515150e+02   2.466407e+02
  -2.780287e+02   1.039164e+02
  -2.229226e+02  -7.581645e+01
  -1.243622e+00  -2.761565e+02
   2.342111e+02  -3.039980e+02
   3.518328e+02  -1.379431e+02
   2.420145e+02   1.442095e+02
   5.199241e+01   3.359834e+02
  -6.843232e+01   3.199595e+02
  -6.618725e+01   1.096170e+02
  -1.811369e+01   5.583630e+01
  -9.270592e+01   8.595446e+01
  -2.434077e+02   9.582323e+01
  -2.332889e+02  -4.305417e+01
  -1.153892e+02  -2.418897e+02
   2.740061e+01  -2.096147e+02
   1.895522e+02  -1.126708e-01
   1.666610e+02   2.114520e+02
  -1.631349e+01   2.326141e+02
  -2.119369e+02   1.055188e+02
  -3.114499e+02  -1.261812e+02
  -1.720753e+02  -2.715115e+02
   3.919492e+01  -2.720638e+02
   1.489018e+02  -1.289447e+02
   1.485510e+02  -5.278790e+01
   1.245591e+02  -3.597737e+01
   2.254051e+02  -7.200088e+01
   3.449371e+02   7.630946e+01
   2.907845e+02   2.726169e+02
   6.527836e+00   3.729329e+02
  -3.126819e+02   3.833330e+02
  -4.240186e+02   1.528623e+02
  -2.720221e+02  -8.935983e+01
  -2.846080e+01  -2.273354e+02
   9.827772e+01  -1.747604e+02
   3.052652e+01  -3.499617e+01
  -1.001196e+02   1.011483e+02
  -1.472526e+02   1.935771e+00
  -3.772992e+01  -1.515558e+02
   1.134409e+02  -1.056545e+02
   1.060665e+02   4.010433e+01
  -4.805565e+00   1.354283e+02
  -1.841964e+02   1.996039e+01
  -1.425600e+02  -2.246802e+02
   7.315456e+00  -3.118012e+02
   1.728815e+02  -1.835648e+02
   2.997538e+02   4.162774e+01
   2.696937e+02   2.466650e+02
   8.153041e+01   2.323538e+02
  -1.193245e+02   1.440600e+02
  -1.363439e+02   8.366902e+00
  -6.024024e+01  -3.286005e+01
   4.531060e+01   7.000510e+01
   3.829826e+01   9.152337e+01
  -1.204730e+02   5.917949e+01
  -1.499912e+02  -2.234160e+01
  -3.334291e+01  -6.944350e+01
   8.603962e+01   4.054446e-01
   3.261580e+01   9.393637e+01
  -1.151464e+02   9.092919e+01
  -2.671227e+02  -2.221184e+01
  -2.304197e+02  -1.452323e+02
  -3.224619e+01  -2.199247e+02
   1.664446e+02  -2.276868e+02
   2.158328e+02  -8.912269e+01
   1.274693e+02   5.521021e+01
  -7.740258e+00   7.662306e+01
  -4.624733e+01  -1.127489e+01
   3.287311e+01  -6.119369e+01
   1.779865e+02  -4.085479e+01
   1.792294e+02   7.839297e+01
   7.732135e+01   1.940324e+02
  -9.599449e+01   1.122812e+02
  -1.276117e+02   2.643970e+01
  -6.533542e+01  -2.649832e+01
   2.244077e+01   2.794258e+01
   4.768328e+01   1.029440e+02
  -9.055924e+01   1.154698e+02
  -1.755332e+02   2.948927e+01
  -1.719963e+02  -9.883468e+01
  -5.043011e+00  -1.621752e+02
   1.230843e+02  -1.528039e+02
   1.540048e+02  -9.455275e-01
   7.200788e+01   6.683204e+01
  -5.105860e+01   5.657032e+01
  -5.261472e+01   1.900889e+01
   5.023140e-01  -4.115994e+00
   2.054653e+01  -7.885270e+00
  -3.339501e+01   1.229393e+01
  -6.730409e+01  -3.507960e+00
  -1.018859e+02  -9.842051e+01
  -1.942644e+01  -1.501834e+02
   1.050660e+02  -1.450293e+02
   2.190358e+02  -5.001074e+01
   1.768555e+02   1.510979e+02
   4.431471e+01   2.084178e+02
  -8.385458e+01   1.384026e+02
  -1.408569e+02   1.132568e+01
  -5.548660e+01  -4.021414e+01
  -2.549814e+01  -3.014298e+01
  -4.171568e+01  -1.068410e+01
  -6.390821e+01   2.832483e+01
  -4.196049e+01  -4.226333e+01
   2.869019e+01  -7.902683e+01
   1.067999e+02  -5.034114e+01
   6.814533e+01   5.637575e+01
  -1.002404e+01   1.172013e+02
  -1.459268e+02   6.385583e+01
  -1.776631e+02  -5.368819e+01
  -8.688671e+01  -2.034988e+02
   1.025992e+02  -2.109528e+02
   2.184991e+02  -9.459290e+01
   2.293942e+02   7.979416e+01
   9.986706e+01   1.710262e+02
  -4.453385e+01   1.314987e+02
  -7.475092e+01   5.374305e+01
  -6.268616e+01   8.025557e+01
  -5.820525e+01   1.188755e+02
  -7.818745e+01   5.337961e+01
  -1.344759e+02  -2.013921e+01
  -1.219508e+02  -1.411575e+02
  -2.168460e+01  -2.063762e+02
   8.282693e+01  -1.849705e+02
   1.622094e+02  -1.426549e+01
   1.100663e+02   8.807346e+01
   2.147211e+01   1.452494e+02
  -6.143461e+01   8.884761e+01
  -5.665404e+01   9.441255e-01
  -1.211608e+01  -6.379810e+01
  -1.814414e+01  -3.926310e+01
  -2.414111e+01   2.002956e+01
  -9.853403e+01   1.015326e+01
  -4.387673e+01  -5.386065e+01
   5.738772e+01  -2.925921e+01
   1.731147e+02   3.259892e+00
   1.231157e+02   5.057536e+01
  -1.503119e+01   8.985270e+01
  -1.132826e+02   7.552566e+01
  -1.380795e+02   8.709894e-01
  -2.324599e+01  -3.738351e+01
   6.026560e+01  -3.521704e+01
   7.208087e+01   1.936036e+00
  -2.247191e+00   9.486623e+01
  -3.661726e+01   8.865628e+01
  -3.035822e+01  -2.469117e+00
  -3.858755e+01  -5.948914e+01
  -4.455138e+01  -5.643503e+01
  -3.187765e+01  -1.100107e+00
  -6.080526e+01   3.245751e+01
  -7.859048e+01  -8.629364e+01
   3.216054e+01  -1.706220e+02
   9.731672e+01  -1.495802e+02
   1.535963e+02  -2.806698e+01
   1.097889e+02   9.215905e+01
   1.525941e+01   1.267361e+02
  -7.916299e+01   7.236901e+01
  -4.363377e+01  -3.853435e+00
   2.950107e+01  -2.944470e+01
   1.069560e+02   2.849534e+01
   5.398174e+01   9.363095e+01
  -7.666406e+01   1.189351e+02
  -1.637540e+02   3.601471e+01
  -1.471067e+02  -4.142599e+01
  -3.209469e+01  -9.080179e+01
   6.051631e+01  -6.750442e+01
   3.329532e+01  -3.026914e+01
  -5.185877e+01   3.197930e+01
  -4.719375e+01  -6.219913e+01
  -3.153343e+01  -1.087395e+02
   5.439311e+01  -1.519322e+02
   1.727852e+02  -7.729414e+01
   1.356719e+02   7.857571e+01
   8.216271e+00   1.823220e+02
  -9.533018e+01   1.107551e+02
  -9.936983e+01   1.142668e+01
  -4.142816e+01  -9.769047e+01
   3.349463e+00  -7.879182e+01
   1.220316e+01  -5.355232e+01
   3.825251e+01  -4.476621e+00
   2.427348e+01  -1.344172e+00
   2.340889e+01  -3.507526e+01
   1.930000e+01  -9.611312e-01
   4.175762e+01   5.863669e+01
   5.995616e+01   8.961501e+01
  -5.384014e+01   5.499892e+01
  -1.526047e+02  -4.976246e+01
  -1.124111e+02  -4.474626e+01
  -2.012836e+01  -4.942855e+01
   9.518858e+01  -2.120814e+01
   5.985666e+01  -4.908862e+00
   1.541983e+01   2.769136e+01
  -3.266300e+01   1.012606e+01
  -1.161693e+01  -8.395267e-01
   3.137826e+01  -9.900499e+00
  -2.312119e+00  -1.925205e+01
  -8.883459e+01  -3.326388e+00
  -8.110699e+01   2.176766e+00
  -1.336396e+01  -4.554007e+01
   8.650670e+01  -1.027086e+02
   1.816157e+02  -3.076221e+01
   1.281751e+02   5.207617e+01
   3.204110e+00   1.108178e+02
  -7.969210e+01   1.300098e+02
  -1.418016e+02   6.232248e+01
  -6.082470e+01  -1.206838e+01
  -1.443005e+01  -6.103458e+01
  -1.247901e+01  -2.883179e+01
   2.164993e+01   6.211155e+00
  -5.811512e+01  -3.157621e+01
  -1.799712e+00  -9.101731e+01
   4.834688e+01  -7.196061e+01
   9.086661e+01   3.107683e+01
   9.215419e+01   9.341801e+01
   1.556050e+01   1.201197e+02
  -5.560882e+01   2.722096e+01
  -9.773778e+01  -5.507549e+01
  -2.906541e+01  -8.081300e+01
   7.907161e+01  -6.628886e+01
   9.499164e+01   2.003287e+01
   4.560242e+01   6.608388e+01
  -3.226433e+01   5.355945e+01
  -3.173541e+01   2.433781e+01
   2.183516e+01  -1.367304e+01
   4.400161e+01   1.844298e+01
   5.329699e+01   1.815977e+01
  -4.853011e+01   6.052693e+01
  -9.845960e+01   6.959020e+01
  -9.144160e+01  -3.500604e+01
   2.241025e+01  -6.568861e+01
   3.479691e+01  -5.807400e+01
   3.556681e+01  -5.956650e+00
  -8.722952e+00   3.647153e+01
  -2.056523e+01   4.933876e+01
  -3.264449e+01   1.381717e+00
   7.071963e+00  -2.965748e+01
   1.663865e+01  -3.080871e+01
   3.737790e+01   2.572204e+00
   7.019404e+01  -5.538804e+00
   4.034322e+01  -9.215834e+00
   2.619505e+01  -2.736403e+01
  -2.242628e+01  -2.289539e+01
  -1.482222e+01   1.584509e+01
  -1.720434e+01   4.816779e+01
  -1.938374e+01   4.039231e+01
  -3.923463e+01  -3.758459e+01
   7.542523e-01  -5.819634e+01
   2.966556e+01  -4.265966e+01
   6.350716e+01   2.129074e+01
   9.480806e+00   6.544284e+01
  -4.701114e+01   7.412931e+01
  -7.422231e+01   4.268260e+00
  -3.902163e+01  -5.514302e+01
  -1.643533e+00  -6.942086e+01
   6.129819e+01  -3.965516e+01
   4.429809e+01  -2.444300e+01
  -1.214149e+01  -7.721478e+00
  -2.688057e+01  -1.536724e+01
   1.118754e+01  -4.873939e+01
   6.764202e+01  -3.750179e+01
