
 $NMID
 id='ANONYMOUS ', fmtdat='(2E16.6)'
 volume=1.0
 tramp=1.0
 $END
  -3.297858e+03   1.562494e+02
  -2.124521e+03  -1.717320e+03
   2.842802e+02  -2.173001e+03
   1.415259e+03  -1.142787e+03
   9.972080e+02   1.416617e+02
  -2.128024e+02   3.599503e+02
  -5.177051e+02  -1.840941e+02
  -9.013512e+01  -6.507802e+02
   5.155251e+02  -6.043789e+02
   7.062774e+02  -3.925582e+01
   4.039682e+02   5.368626e+02
  -4.078472e+01   7.360382e+02
  -3.849746e+02   1.436394e+02
  -2.380092e+02  -4.446803e+02
   1.449283e+02  -5.433307e+02
   4.264234e+02  -7.353994e+01
   2.919784e+02   5.430282e+02
  -1.673636e+02   5.911837e+02
  -4.699890e+02   2.122235e+02
  -4.066376e+02  -2.104351e+02
  -9.382507e+01  -3.545206e+02
   1.481371e+02  -2.217904e+02
   1.284123e+02  -1.422166e+01
  -1.122978e+02  -7.670585e-01
  -2.698379e+02  -1.618709e+02
  -6.667020e+01  -3.398406e+02
   4.001372e+02  -2.289830e+02
   6.556769e+02   1.272604e+02
   3.026150e+02   3.324419e+02
  -2.939419e+02   3.095553e+02
  -5.627981e+02  -1.569010e+01
  -2.159719e+02  -3.589471e+02
   2.332218e+02  -3.830969e+02
   4.634614e+02  -1.634621e+02
   3.334691e+02   1.418203e+02
   1.107783e+02   3.487770e+02
  -1.188482e+02   2.214441e+02
  -6.832281e+01  -1.455583e+02
   1.297998e+02  -2.506328e+02
   2.985654e+02   2.177877e+01
   1.072655e+02   5.277351e+02
  -2.725654e+02   4.742135e+02
  -4.063605e+02  -6.656643e-01
  -1.659737e+02  -3.868378e+02
   1.929233e+02  -2.181969e+02
   2.414152e+02   2.479040e+02
  -1.009878e+02   4.055681e+02
  -4.495058e+02   1.045190e+02
  -4.980463e+02  -3.055386e+02
  -1.761180e+02  -4.671342e+02
   2.930646e+02  -2.827132e+02
   5.019656e+02   3.669552e+01
   3.275739e+02   2.551605e+02
  -6.284847e+01   2.810616e+02
  -3.408408e+02   9.794933e+01
  -2.390214e+02  -1.080641e+02
   1.692646e+01  -4.585544e+01
   7.672276e+01   7.490968e+01
  -1.005991e+02   1.330461e+02
  -2.502766e+02  -4.150887e+01
  -1.620331e+02  -2.362441e+02
   1.388818e+02  -2.258712e+02
   2.991316e+02  -1.171512e+02
   2.202183e+02   1.020083e+02
   7.880998e+00   2.583537e+02
  -2.395214e+02   3.471093e+02
  -3.355585e+02   1.536471e+02
  -2.635536e+02  -1.407929e+02
  -4.812699e+01  -3.296852e+02
   5.300885e+01  -3.288025e+02
   7.985018e+01  -9.593051e+01
   2.620969e+01  -5.379475e+01
   8.040948e+01  -1.065758e+02
   2.270303e+02  -9.620784e+01
   2.290422e+02   9.924606e+01
   8.992880e+01   2.355175e+02
  -4.418484e+01   2.125086e+02
  -1.699874e+02  -1.890269e+00
  -1.698444e+02  -2.000559e+02
   7.087863e+00  -2.501786e+02
   2.108393e+02  -8.782376e+01
   2.819807e+02   1.401955e+02
   1.970393e+02   2.974680e+02
  -3.856909e+01   2.798924e+02
  -1.735619e+02   1.184120e+02
  -1.543520e+02   5.863191e+01
  -1.249043e+02   3.278353e+01
  -2.118616e+02   3.455679e+01
  -3.348281e+02  -7.321781e+01
  -2.896119e+02  -2.426113e+02
   4.078739e-01  -3.900253e+02
   3.242136e+02  -3.577864e+02
   4.131097e+02  -1.606997e+02
   2.873078e+02   8.250135e+01
   5.337138e+01   2.279645e+02
  -9.712488e+01   1.859188e+02
  -5.157976e+01   3.483563e+01
   1.031082e+02  -7.519763e+01
   1.282174e+02   2.353494e+01
   4.612141e+01   1.813533e+02
  -1.208741e+02   1.337734e+02
  -1.163254e+02  -6.385162e+01
   3.699039e+01  -1.362042e+02
   1.561277e+02  -2.459982e+01
   1.451413e+02   2.084975e+02
  -1.325873e+01   3.236246e+02
  -1.989490e+02   1.864389e+02
  -2.966638e+02  -6.075720e+01
  -2.309576e+02  -2.249169e+02
  -7.286338e+01  -2.568454e+02
   1.079243e+02  -1.210871e+02
   1.384762e+02  -1.638472e+01
   7.051188e+01   2.475769e+01
  -5.804635e+01  -2.456263e+01
  -2.226646e+01  -8.685904e+01
   1.112862e+02  -5.229064e+01
   1.500948e+02   2.888637e+01
   1.772432e+01   6.914496e+01
  -5.047085e+01   8.266821e+00
  -4.902700e+01  -6.451988e+01
   1.040231e+02  -7.384590e+01
   2.849245e+02  -5.242579e+00
   2.316680e+02   1.399039e+02
   3.746871e+01   2.125874e+02
  -1.596065e+02   2.114779e+02
  -2.279169e+02   8.737044e+01
  -1.327074e+02  -4.608808e+01
   5.041847e+01  -6.367467e+01
   2.616088e+01   6.609680e+00
  -4.351985e+01   7.290146e+01
  -1.462935e+02   4.994728e+01
  -1.973721e+02  -7.468659e+01
  -7.778234e+01  -1.822019e+02
   9.293838e+01  -1.315807e+02
   1.143092e+02  -1.070829e+01
   5.457764e+01   3.449613e+01
  -3.597305e+00  -3.114042e+01
  -2.522003e+01  -8.274570e+01
   8.233888e+01  -9.966372e+01
   2.055034e+02  -2.484763e+01
   1.793072e+02   1.048802e+02
  -1.121592e+00   1.683106e+02
  -1.405397e+02   1.412788e+02
  -1.748257e+02   7.361454e+00
  -8.269608e+01  -8.659140e+01
   5.534784e+01  -1.093337e+02
   7.671990e+01  -2.438984e+01
   1.854253e+01   1.717478e+01
  -2.668963e+01   1.813519e+01
   7.174923e+00  -1.695967e+01
   4.649023e+01  -1.296025e+01
   8.625309e+01   6.454142e+01
  -1.840241e+00   1.366194e+02
  -9.730121e+01   1.057607e+02
  -2.020349e+02   3.569567e+01
  -1.548204e+02  -1.137104e+02
  -6.263631e+01  -1.895001e+02
   8.474183e+01  -1.427648e+02
   1.029854e+02  -2.282192e+01
   6.366262e+01   3.315139e+01
   8.773323e+00   4.803675e+01
   3.146497e+01  -3.543521e+01
   7.651791e+01  -2.406945e-01
   5.445631e+01   3.376289e+01
  -2.880506e+01   8.396093e+01
  -1.037929e+02   6.230722e+01
  -6.911180e+01  -3.613956e+01
  -2.518117e+00  -1.035972e+02
   9.511742e+01  -6.863756e+01
   1.458343e+02   4.560555e+01
   7.698579e+01   2.025806e+02
  -1.425594e+02   2.273270e+02
  -2.236983e+02   8.737523e+01
  -2.288110e+02  -6.300046e+01
  -1.033167e+02  -1.393587e+02
   3.796195e+01  -1.351422e+02
   7.233376e+01  -1.099060e+02
   9.488475e+01  -7.326208e+01
   5.604793e+01  -7.279050e+01
   9.804361e+01  -9.145165e+01
   1.154643e+02  -1.338958e+01
   1.185871e+02   1.074726e+02
   3.632600e+01   2.210611e+02
  -6.728181e+01   1.763025e+02
  -1.441384e+02   1.768768e+01
  -1.063522e+02  -1.109686e+02
  -1.575514e+01  -1.451079e+02
   5.417614e+01  -9.507965e+01
   6.735621e+01  -1.655325e+01
  -6.590170e-01   4.449609e+01
  -7.868965e+00   9.449747e+00
   4.564830e+01   3.031345e+01
   9.152847e+01  -3.848513e+00
   2.405357e+01   4.484829e+01
  -4.251522e+01   4.089375e+01
  -1.692492e+02   1.281869e+01
  -8.910559e+01  -6.483602e+01
  -1.466202e+01  -9.196299e+01
   1.392138e+02  -9.296109e+01
   1.103876e+02   3.137545e-01
   4.019711e+01   3.484309e+01
  -6.825893e+01   5.236895e+01
  -5.415996e+01  -2.873182e+01
  -1.713945e+01  -7.285051e+01
   1.852848e+01  -6.184714e+01
   7.635546e+01   3.431881e+01
   1.273765e+01   3.634821e+01
   2.233725e+01   2.684072e+01
   1.676303e+01   1.192571e+01
   6.321993e+01  -6.365404e+00
   4.265486e+01   7.182935e+01
  -2.506240e+01   1.454453e+02
  -1.164598e+02   1.168158e+02
  -1.555900e+02   4.188483e+01
  -1.203529e+02  -6.617861e+01
  -8.302688e+00  -1.211507e+02
   1.036917e+02  -4.693060e+01
   6.726643e+01  -4.427020e+00
  -4.198818e+01   1.802987e+01
  -1.150931e+02  -1.124814e+01
  -6.088164e+01  -1.046748e+02
   6.268230e+01  -1.206004e+02
   1.451721e+02  -5.226189e+01
   1.285800e+02   1.206802e+01
   3.585168e+01   7.166779e+01
  -3.676362e+01   4.829265e+01
  -4.691156e+01  -1.898386e-01
   1.770037e+01  -1.676275e+01
   6.284722e+01   1.064571e+01
   1.058625e+01   8.758704e+01
  -5.814290e+01   1.538827e+02
  -1.246953e+02   6.906066e+01
  -1.146817e+02  -8.512958e+01
  -3.721737e+01  -1.878610e+02
   7.781616e+01  -1.120533e+02
   1.195814e+02  -8.603335e+00
   6.178577e+01   1.128701e+02
   2.344629e+00   1.106922e+02
  -3.839978e+01   3.106910e+01
  -5.551230e+01  -5.743998e+00
  -1.727088e+01  -6.863688e+00
  -2.164065e+01   1.873374e+01
  -1.941692e+00  -1.883519e+01
  -3.257948e+01  -8.398872e+01
  -4.624865e+01  -8.015011e+01
   3.328298e+01  -1.816012e+01
   1.291044e+02   3.657083e+01
   9.494152e+01   8.751720e+01
   8.260601e+00   4.599300e+01
  -7.527182e+01   1.983121e+01
  -6.709732e+01  -4.819590e+00
  -6.547697e+00   4.339172e+00
   4.237451e+01  -1.979216e+01
  -6.489312e+00  -2.407610e+01
  -3.108383e+01  -1.204343e+01
   2.107238e+01  -4.405804e+00
   6.769954e+01   5.952339e+00
   7.450598e+01   1.099405e+01
  -4.625278e+00   5.171873e+01
  -9.290026e+01   1.196626e+02
  -1.656491e+02   4.607513e+01
  -1.315201e+02  -4.143238e+01
  -4.504976e+01  -1.399091e+02
   6.952449e+01  -1.400876e+02
   8.787327e+01  -5.473487e+01
   8.516563e+01   8.831820e+00
   3.012960e+01   3.530758e+01
   3.563077e+00   4.435638e+00
  -2.507949e+01   4.331163e+00
   2.573369e+01   4.622728e+01
   1.700609e+01   6.956850e+01
  -3.937808e+01   6.325944e+01
  -7.812052e+01  -2.412310e+01
  -7.250656e+01  -7.437835e+01
   1.574185e+01  -9.447375e+01
   7.457542e+01  -1.898357e+01
   8.697462e+01   7.506841e+01
   4.854690e+01   9.916482e+01
  -7.183847e+01   7.599647e+01
  -6.217719e+01  -2.143063e+01
  -6.348662e+01  -3.672452e+01
   4.674876e+01  -4.944999e+01
   4.347751e+01  -2.479238e+01
  -1.978731e+01   1.796735e+00
  -2.588838e+01   3.549706e+00
  -2.235123e-01  -1.666694e+01
   7.776027e+01  -7.123971e+01
   1.145537e+02  -6.466547e+01
   8.956486e+01   3.108727e+01
   1.638515e+01   6.067982e+01
  -5.790206e+01   7.322067e+01
  -5.271259e+01   1.484991e+01
   1.936610e+01  -3.496206e+01
   2.456492e+01  -4.966670e+01
   2.714131e+01  -3.491431e+00
   1.314560e+01   4.486896e+01
  -1.405584e+01   7.887213e+00
  -2.793388e+01  -7.207924e+00
  -2.272988e+01   3.190023e+00
  -8.830608e+00   6.238264e+00
  -9.216225e+00   7.965026e+00
  -3.988246e+00   8.359829e+00
   1.616513e+01  -2.647614e+01
   2.672897e+01  -4.618837e+01
   2.660570e+01   3.710234e-01
   2.290102e+01   5.831303e+00
   1.695770e+01   4.240349e+01
  -5.063112e+01   4.627178e+01
  -6.511889e+01  -8.006851e+00
  -2.185108e+01  -5.441054e+01
   3.891836e+01  -2.930409e+01
   8.221653e+01  -2.665395e+01
   7.070186e+01   6.292277e+01
  -2.584628e+01   5.434293e+01
  -3.465732e+01   5.106930e+01
   2.875899e-01  -5.347146e+00
   4.304343e+01  -3.113563e+00
   1.945009e+01   4.488648e+01
  -3.129147e+01   4.026938e+01
  -8.875069e+01   2.944731e+01
