
 $NMID
 id='ANONYMOUS ', fmtdat='(2E16.6)'
 volume=1.0
 tramp=1.0
 $END
  -2.263403e+03  -1.385752e+02
  -1.612395e+03  -1.196473e+03
  -1.182738e+02  -1.474315e+03
   8.983145e+02  -9.509741e+02
   6.367624e+02  -3.542208e+02
   1.123545e+02   6.810986e+01
  -1.201942e+02  -2.090753e+01
  -5.767659e+00  -3.156727e+02
   2.862376e+02  -3.778779e+02
   3.887178e+02  -4.266711e+01
   3.278784e+02   3.626484e+02
   3.923959e+01   4.058602e+02
  -1.589903e+02   1.768204e+02
  -1.564126e+02  -2.733212e+02
   4.717791e+01  -3.473946e+02
   2.379010e+02  -9.087806e+01
   2.084702e+02   3.182515e+02
  -3.208059e+01   4.595649e+02
  -2.859917e+02   2.208744e+02
  -2.971008e+02  -6.155625e+01
  -1.213895e+02  -2.112182e+02
   3.978267e+01  -1.866830e+02
   3.166520e+01  -1.080780e+02
  -1.403773e+02  -1.507696e+02
  -1.646032e+02  -2.667088e+02
   6.245059e+01  -2.293619e+02
   3.580188e+02  -4.598489e+01
   3.950689e+02   1.550281e+02
   1.037886e+02   2.210112e+02
  -2.392051e+02   1.067849e+02
  -3.359707e+02  -1.548192e+02
  -8.977041e+01  -2.185528e+02
   1.726681e+02  -1.972177e+02
   3.055451e+02  -1.023883e+02
   2.343809e+02   9.105526e+01
   7.972519e+01   1.872325e+02
   6.897215e+01   1.310375e+02
   9.233230e+01  -2.012518e+01
   1.525998e+02  -3.562666e+01
   7.222909e+01   1.445221e+02
  -3.839216e+01   3.118410e+02
  -1.572612e+02   2.577783e+02
  -2.376551e+02   3.224694e+00
  -3.269341e+01  -1.941760e+02
   6.430830e+01  -2.463164e+01
   6.977590e+01   2.118054e+02
  -1.372591e+02   2.229984e+02
  -3.208757e+02   1.148984e+01
  -3.394762e+02  -2.952442e+02
  -1.109212e+02  -3.569961e+02
   2.116948e+02  -1.654654e+02
   3.414241e+02   3.149692e+01
   2.211633e+02   1.344045e+02
  -7.475045e+00   1.456267e+02
  -2.106265e+02   4.763835e+01
  -1.487347e+02   8.472372e+00
  -3.512301e+01   1.394153e+01
  -6.251722e-01   1.559533e+01
  -7.688188e+01  -2.205764e+01
  -1.404848e+02  -1.892838e+01
  -8.186443e+01  -1.323454e+02
   9.319281e+01  -1.466943e+02
   2.321883e+02  -1.041012e+02
   1.694119e+02   7.039483e+01
  -2.014455e+01   1.799740e+02
  -2.345260e+02   2.905351e+02
  -2.525288e+02   1.263488e+02
  -1.628590e+02  -1.033686e+02
  -5.300093e+01  -2.566917e+02
  -2.042052e+01  -2.738389e+02
   2.311550e+01  -1.564001e+02
   2.790037e+01  -1.236087e+02
   1.311458e+02  -8.731437e+01
   2.210168e+02  -5.133775e+01
   1.680181e+02   1.340914e+02
   6.887844e+01   2.260312e+02
  -8.115362e+01   1.017738e+02
  -1.525817e+02  -4.119979e+01
  -8.080353e+01  -1.763216e+02
   3.685800e+01  -1.664988e+02
   1.853903e+02  -9.642223e+00
   2.084139e+02   1.342871e+02
   1.158634e+02   2.242457e+02
  -5.919824e+00   1.704429e+02
  -8.048110e+01   1.283168e+02
  -1.098353e+02   9.910390e+01
  -1.251797e+02   7.690178e+01
  -2.439991e+02   2.460535e+01
  -3.276162e+02  -9.238035e+01
  -2.381537e+02  -2.215238e+02
  -6.598689e+00  -3.217797e+02
   2.958447e+02  -2.857976e+02
   3.337208e+02  -1.167709e+02
   1.995156e+02   4.866128e+01
   1.161558e+01   1.737173e+02
  -7.590697e+01   1.635535e+02
   1.450784e+01   4.472564e+01
   8.743467e+01   1.068412e+01
   7.890361e+01   2.521336e+01
   2.332850e+01   1.090925e+02
  -7.503985e+01   5.836221e+01
  -2.714062e+01  -1.953182e+01
   3.689208e+01  -5.456894e+01
   1.183566e+02   3.917181e+01
   8.005196e+01   1.603924e+02
  -3.930062e+01   2.588269e+02
  -1.837358e+02   1.383765e+02
  -2.432070e+02  -7.924806e+01
  -2.387738e+02  -1.900736e+02
  -4.829442e+01  -1.626274e+02
   6.709995e+01  -8.691089e+01
   1.344910e+02  -3.070340e+00
   2.009585e+01  -1.777370e+01
  -3.299559e+01  -4.039986e+01
   2.135705e+01  -8.022317e+01
   1.007360e+02  -5.033840e+01
   1.063125e+02   3.172499e+01
   1.693602e+01   4.223249e+01
  -6.647629e+01  -1.603190e+01
  -1.049554e+01  -7.865472e+01
   1.357277e+02  -5.354910e+01
   2.414864e+02   3.567877e+01
   1.873521e+02   1.441278e+02
  -1.660657e+01   2.077412e+02
  -1.802891e+02   1.396745e+02
  -2.098382e+02   7.308973e+01
  -9.451461e+01  -3.261127e+01
  -2.305816e+01  -5.058947e+01
   2.712447e+01   4.309532e+00
  -4.752761e+01   6.159138e+01
  -1.263784e+02   5.154112e+00
  -1.339877e+02  -6.311747e+01
  -2.781674e+01  -1.294803e+02
   6.251080e+01  -9.180461e+01
   6.078878e+01  -9.940141e+00
   3.154680e+01  -2.759762e+00
  -3.613980e+01  -4.423043e+01
  -3.367919e+00  -7.575441e+01
   8.794150e+01  -7.519889e+01
   1.711751e+02   2.803846e+01
   1.455642e+02   1.095533e+02
   1.180889e+01   1.174558e+02
  -1.288424e+02   1.070903e+02
  -1.042544e+02   7.282261e+00
  -1.100925e+01  -7.242608e+01
   5.636685e+01  -5.430929e+01
   3.125113e+01  -2.920226e+01
   1.275821e+01   1.942107e+01
  -5.549866e+01   2.023784e+01
  -2.084770e+00  -2.304256e+01
   6.802619e+01  -4.989711e+01
   5.891989e+01   8.927868e+01
  -2.344939e-01   1.409937e+02
  -1.235999e+02   1.184365e+02
  -1.669172e+02  -9.324617e+00
  -1.310466e+02  -1.074478e+02
  -1.504292e+01  -1.621230e+02
   8.214634e+01  -1.411637e+02
   8.439114e+01  -1.053455e+00
   4.480339e+01   3.382673e+01
   2.120654e+01   1.474119e+01
   5.700176e+01  -7.266223e+00
   6.471308e+01   7.491186e+00
   6.937853e+01   3.738845e+01
  -3.131021e+01   1.082857e+02
  -1.107210e+02   4.971431e+01
  -7.597352e+01  -3.023648e+01
   4.710646e+00  -9.134946e+01
   1.364790e+02  -7.862733e+01
   1.705801e+02   5.892712e+01
   6.716888e+01   1.748250e+02
  -1.001131e+02   1.796278e+02
  -2.148853e+02   5.910206e+01
  -1.775001e+02  -8.829550e+01
  -6.150854e+01  -1.089563e+02
   2.877505e+01  -1.039160e+02
   7.378866e+01  -7.602167e+01
   6.063047e+01  -3.392466e+01
   7.784389e+01  -7.129682e+01
   7.062219e+01  -8.889476e+01
   1.083181e+02  -3.173634e+00
   7.191850e+01   1.127895e+02
   2.525909e+00   1.832233e+02
  -4.902714e+01   9.942959e+01
  -1.450729e+02  -4.678790e+00
  -9.324730e+01  -1.013212e+02
  -1.976707e+00  -1.076762e+02
   8.361198e+01  -6.220308e+01
   4.691715e+01   2.204651e+01
   8.539808e+00   3.322843e+01
  -1.984363e+01   2.999214e+01
   1.020804e+01  -1.485259e+01
   6.001226e+01   2.816982e+01
   3.075259e+01   2.501184e+01
  -9.613236e+01   3.193077e+01
  -1.371974e+02  -1.358055e+01
  -9.642209e+01  -6.606598e+01
   1.434040e+00  -9.116965e+01
   9.990960e+01  -4.941989e+01
   1.029177e+02   2.307979e+01
   3.413492e+01   5.113048e+01
  -3.692702e+01  -1.271489e+01
  -4.306380e+01  -2.090760e+01
  -3.698553e+01  -7.037696e+01
   3.224704e+01  -3.832601e+01
   5.574257e+01  -2.305989e+01
   4.374015e+01   2.387207e+01
   4.569176e+01   2.853160e+01
   7.122455e+01  -3.152605e+01
   7.294449e+00   6.199471e+00
   2.496090e+01   4.796062e+01
  -4.032399e+01   1.136235e+02
  -8.630445e+01   9.434570e+01
  -1.442646e+02   8.510753e+00
  -9.651914e+01  -5.082335e+01
  -2.305104e+00  -1.066475e+02
   7.341954e+01  -6.458454e+01
   4.484249e+01   1.107992e+01
  -3.849505e+01   1.428952e+00
  -1.131038e+02  -3.139782e+01
  -7.361623e+01  -4.060659e+01
   6.762002e+01  -7.832651e+01
   1.521541e+02  -4.575292e+01
   1.241273e+02   3.478434e+01
   1.899143e+01   4.620926e+01
  -6.441342e+01   7.400635e+01
  -6.060397e+01  -3.219394e+01
   3.169981e+01  -1.013343e+01
   7.776098e+01  -1.849736e+00
   2.007826e+01   6.932461e+01
  -4.651791e+01   1.099643e+02
  -1.249378e+02   5.872779e+01
  -9.387668e+01  -6.421570e+01
  -3.351540e+01  -1.457632e+02
   6.463949e+01  -1.189325e+02
   7.477957e+01   2.973773e-01
   5.393362e+01   9.438571e+01
  -2.303348e+01   8.002422e+01
  -6.440668e+01   3.351904e+01
  -2.831282e+01  -4.326705e+01
  -9.917824e+00   5.422096e+00
   2.371921e+00   2.321897e+01
  -1.431373e+01  -9.501350e+00
  -2.146468e+01  -7.428805e+01
  -4.249820e+00  -7.078893e+01
   2.915339e+01  -4.489497e+01
   6.407116e+01   2.336666e+01
   1.041514e+02   4.444913e+01
   3.079649e+01   1.982033e+01
  -6.345559e+01   3.959797e+01
  -6.708274e+01  -9.333397e+00
   4.288954e+00  -5.811742e+00
   2.076655e+01  -8.843156e+00
   1.889485e+01  -3.552253e+00
   8.858885e+00  -4.285805e-01
  -9.310472e+00   9.486931e+00
   4.095267e+01  -7.420124e+00
   6.708500e+01   2.897096e+01
   4.792530e+00   5.530735e+01
  -8.871827e+01   8.595521e+01
  -1.258845e+02   5.752487e+01
  -8.785714e+01  -4.782060e+01
  -2.306989e+01  -1.072117e+02
   4.975323e+01  -1.386256e+02
   6.471775e+01  -4.236547e+01
   5.082711e+01  -5.335919e+00
  -1.190967e+01   4.625086e+01
  -1.454674e+00   2.085464e+01
  -2.679192e+01  -6.791212e+00
   1.996990e+01   6.943604e+01
   2.864838e+01   9.140542e+01
  -2.899944e+01   4.084180e+01
  -6.465427e+01  -5.335434e+00
  -6.652979e+01  -9.364377e+01
  -2.538040e+01  -7.082888e+01
   4.143473e+01  -1.912124e+01
   8.204518e+01   5.535993e+01
   2.790712e+01   8.410970e+01
  -5.942878e+01   2.321557e+01
  -7.056672e+01  -2.421747e+01
  -6.934697e+00  -5.081113e+01
   1.537810e+01  -6.586238e+01
   4.828486e+01  -2.748719e+01
  -1.626423e+01   4.051686e+00
  -4.053484e+01   8.133938e+00
  -2.047280e+01  -2.907123e+01
   5.676359e+01  -5.462655e+01
   1.013322e+02  -4.087682e+01
   3.531976e+01   2.224837e+01
  -1.986409e+01   3.669266e+01
  -6.090595e+01   6.435531e+01
  -7.486742e+01  -2.489212e+01
  -1.776697e+01  -2.189214e+01
   3.179628e+01  -7.356929e+01
   3.655578e+01   1.705536e+01
   5.003701e+01   5.085337e+01
  -7.678638e-01   2.477811e+01
  -3.102556e+01  -2.087989e+00
  -3.988306e+01  -3.096618e+01
  -1.606308e+01  -1.604230e+01
   3.193390e-01   2.700173e+01
  -1.365828e+01   4.383460e+00
   1.436659e+01  -2.965484e+01
  -3.589227e+01  -3.205198e+01
   6.344831e+00   1.015285e+01
   1.123757e+01   2.918302e-01
   7.095527e+00   4.910231e+01
  -5.354062e+01   3.813557e+01
  -8.068085e+01   6.418189e+00
  -1.375219e+01  -3.710172e+01
   5.088324e+01  -3.619073e+01
   6.202640e+01   3.462424e+01
   5.650827e+01   5.990055e+00
  -2.505588e+01   2.594199e+01
  -2.515540e+01   2.671361e+01
  -2.662962e+01   3.019745e+01
   3.651510e+01   2.928748e+00
   3.475101e+01   9.716428e-01
   2.170466e+00   1.144345e+01
  -1.970511e+01   1.849931e+01
