
 $NMID
 id='ANONYMOUS ', fmtdat='(2E16.6)'
 volume=1.0
 tramp=1.0
 $END
   2.383617e+03   5.799663e+01
   1.621664e+03   1.147803e+03
   5.600371e+01   1.524082e+03
  -8.974692e+02   9.889378e+02
  -6.110720e+02   2.535000e+02
  -3.870043e+01  -7.110243e+01
   1.719381e+02   1.107411e+02
  -5.284246e+01   4.009358e+02
  -3.515000e+02   3.570386e+02
  -4.328837e+02   1.972194e+01
  -2.847614e+02  -3.882745e+02
  -3.032376e+01  -4.266447e+02
   1.890531e+02  -1.608210e+02
   1.757684e+02   3.318076e+02
  -5.240946e+01   3.716153e+02
  -2.404985e+02   7.282046e+01
  -1.987014e+02  -3.459998e+02
   3.800355e+01  -4.621419e+02
   2.993727e+02  -2.281804e+02
   2.767011e+02   7.511641e+01
   1.242296e+02   2.190717e+02
  -5.228001e+01   1.662629e+02
  -2.174648e+01   8.895477e+01
   1.747369e+02   1.273240e+02
   1.900144e+02   2.421313e+02
  -1.132995e+01   2.333096e+02
  -3.659504e+02   6.887661e+01
  -3.770689e+02  -1.445776e+02
  -1.357628e+02  -2.641810e+02
   2.426067e+02  -1.378714e+02
   3.585747e+02   1.283362e+02
   8.893300e+01   2.761044e+02
  -1.711725e+02   2.340409e+02
  -3.008562e+02   5.126088e+01
  -2.185374e+02  -1.264341e+02
  -6.547384e+01  -2.372423e+02
  -4.090853e+01  -1.751408e+02
  -7.846105e+01   3.965071e+01
  -1.098567e+02   7.872852e+01
  -1.169932e+02  -1.135676e+02
   3.863493e+01  -3.386548e+02
   1.634351e+02  -2.856000e+02
   2.303425e+02   3.601373e+01
   6.906485e+01   2.314942e+02
  -1.072263e+02   5.475530e+01
  -6.767461e+01  -2.214081e+02
   1.204921e+02  -2.633205e+02
   3.423667e+02  -2.682660e+01
   3.068025e+02   2.818091e+02
   1.007990e+02   3.921274e+02
  -2.387592e+02   1.792806e+02
  -3.537254e+02  -2.657253e+01
  -2.587996e+02  -1.739878e+02
   5.362446e+01  -1.673965e+02
   2.367045e+02  -3.850818e+01
   1.734383e+02   2.067066e+01
   1.070789e+00  -5.786177e+00
   4.410312e+00  -3.277655e+01
   6.769291e+01  -1.047878e+01
   1.463802e+02   5.999867e+01
   6.313412e+01   1.332629e+02
  -1.242988e+02   1.850401e+02
  -2.605906e+02   1.050500e+02
  -1.754533e+02  -5.557414e+01
  -7.212322e+00  -2.171469e+02
   2.444376e+02  -2.942520e+02
   2.738886e+02  -1.246140e+02
   1.828099e+02   9.949067e+01
   4.071972e+01   2.793743e+02
  -9.827971e+00   2.690954e+02
  -1.220906e+01   1.386594e+02
  -7.615847e+01   1.151941e+02
  -1.209225e+02   9.360202e+01
  -2.049402e+02   4.522461e+01
  -2.037082e+02  -1.214989e+02
  -7.895041e+01  -2.361211e+02
   8.321176e+01  -1.341242e+02
   1.433833e+02   3.409388e+01
   8.003784e+01   1.732932e+02
   7.953862e+00   1.846682e+02
  -2.060028e+02   4.929094e+01
  -2.394437e+02  -1.441186e+02
  -7.985007e+01  -2.162500e+02
  -1.440635e-01  -1.837458e+02
   9.754615e+01  -1.038385e+02
   1.169285e+02  -8.809748e+01
   1.245461e+02  -5.571621e+01
   2.423099e+02  -3.617319e+00
   3.310078e+02   9.863092e+01
   2.195877e+02   2.328646e+02
  -3.700688e+01   3.497582e+02
  -3.005509e+02   3.173001e+02
  -3.630357e+02   1.165082e+02
  -2.274390e+02  -5.069657e+01
  -3.485478e+01  -1.884055e+02
   5.790427e+01  -1.315374e+02
  -1.017223e+01  -4.389468e+01
  -9.062157e+01   1.569657e+01
  -9.477662e+01  -1.857457e+01
  -1.418708e+01  -1.071200e+02
   5.827778e+01  -6.363725e+01
   5.159439e+01   1.984640e+01
  -1.739722e+01   9.611285e+01
  -1.367099e+02  -4.487834e+01
  -8.609657e+01  -1.581634e+02
   2.851673e+01  -2.330844e+02
   1.967099e+02  -1.648862e+02
   2.603434e+02   6.810777e+01
   2.032462e+02   1.835657e+02
   4.357894e+01   1.985319e+02
  -1.005704e+02   1.135479e+02
  -1.230742e+02   3.154776e+01
  -3.426197e+01  -1.108080e+01
   1.438440e+01   6.946784e+01
  -1.954306e+01   7.296489e+01
  -9.411683e+01   5.399980e+01
  -1.172050e+02  -2.850239e+01
  -3.113270e+01  -3.291809e+01
   7.992664e+01   2.256141e+01
   4.452420e+01   7.153445e+01
  -1.096763e+02   4.300188e+01
  -2.330567e+02  -2.529979e+01
  -2.037867e+02  -1.595685e+02
  -1.480102e+01  -2.058796e+02
   1.652179e+02  -1.909321e+02
   2.302772e+02  -8.631282e+01
   1.040907e+02   3.875968e+01
  -2.868446e+01   6.207729e+01
  -2.375694e+01  -8.048546e+00
   6.393971e+01  -5.746935e+01
   1.581678e+02  -1.874880e+01
   1.045087e+02   8.439660e+01
   2.944936e+01   1.329392e+02
  -7.291754e+01   1.093058e+02
  -8.680334e+01   3.111579e+01
  -3.336966e+01  -1.362432e+01
   4.562010e+00   3.652454e+01
  -4.493843e+00   9.857814e+01
  -9.737232e+01   9.891440e+01
  -1.747288e+02  -5.709553e+00
  -1.379444e+02  -9.088278e+01
   7.825890e+00  -1.510361e+02
   1.103090e+02  -9.982467e+01
   1.186668e+02  -8.840763e+00
   1.367784e+01   6.010058e+01
  -3.995078e+01   4.667409e+01
  -2.417192e+01   3.530805e+01
   1.102759e+01  -2.830694e+01
   2.928017e+01  -4.293490e+00
  -3.610573e+01   1.933155e+01
  -5.786202e+01   5.924615e+01
  -8.803551e+01  -6.508283e+01
  -2.442138e+00  -1.215139e+02
   1.084280e+02  -1.056663e+02
   1.795377e+02   1.713214e+01
   1.545199e+02   1.073665e+02
   1.986433e+01   1.701146e+02
  -8.220499e+01   1.185052e+02
  -8.946364e+01   1.629869e+01
  -4.720660e+01  -3.655238e+01
  -3.434348e+00  -1.628060e+01
  -5.009491e+01   5.976639e+00
  -8.475637e+01  -2.899184e+01
  -4.728435e+01  -5.404670e+01
   3.187260e+01  -9.565912e+01
   1.168959e+02  -3.298094e+01
   9.160529e+01   2.188659e+01
  -1.056955e+01   1.245503e+02
  -1.344765e+02   7.929423e+01
  -1.626878e+02  -5.573966e+01
  -5.954737e+01  -1.788048e+02
   9.692332e+01  -1.593673e+02
   2.138560e+02  -6.021966e+01
   1.609122e+02   7.532379e+01
   6.236645e+01   1.444358e+02
  -3.158494e+01   1.111990e+02
  -7.668185e+01   7.739954e+01
  -3.343792e+01   4.166089e+01
  -6.307118e+01   5.180840e+01
  -9.438545e+01   4.654040e+01
  -1.156940e+02  -3.194246e-01
  -6.984070e+01  -1.187226e+02
  -2.520495e+01  -1.738917e+02
   7.389017e+01  -1.190438e+02
   1.144963e+02  -8.267144e+00
   1.003423e+02   9.181978e+01
   2.778922e+01   1.204017e+02
  -6.489418e+01   9.213198e+01
  -9.032068e+01  -1.902091e+01
   2.319498e+01  -6.098683e+01
   2.184678e+01  -2.417676e+01
  -2.094130e+01  -7.582294e+00
  -7.263143e+01   1.628073e+01
  -1.576875e+01  -2.186713e+01
   8.445005e+01  -1.264060e+01
   1.609147e+02   1.844954e+01
   1.237330e+02   5.498667e+01
   5.505296e+00   9.193966e+01
  -1.337598e+02   5.852394e+01
  -1.038486e+02   1.394508e+01
  -2.960619e+01  -5.194092e+01
   4.967956e+01  -2.826176e+01
   5.509357e+01   1.653830e+01
   2.466937e+01   7.274479e+01
  -3.728360e+01   5.626463e+01
  -7.127913e+01   9.110242e+00
  -8.917102e+00  -1.824280e+01
  -2.619326e+01  -1.730930e+01
  -6.421296e+01   3.468776e+01
  -6.067075e+00   5.820502e+00
  -1.675315e+01  -5.569006e+01
   3.704956e+01  -1.136919e+02
   8.893441e+01  -1.326785e+02
   1.542359e+02  -5.605475e+00
   1.046650e+02   7.474396e+01
  -3.265718e-01   1.314495e+02
  -7.553997e+01   5.824479e+01
  -5.025190e+01  -5.544096e+00
   5.121719e+01  -1.674404e+01
   1.061189e+02   3.639216e+01
   3.011266e+01   3.946471e+01
  -7.372351e+01   6.930674e+01
  -1.453715e+02   6.278376e+01
  -1.007357e+02  -3.225298e+01
  -3.098743e+01  -9.540636e+01
   6.735861e+01  -4.829480e+01
   6.230411e+01  -1.531285e+01
  -3.314245e+01   1.222048e+01
  -7.289937e+01  -2.601329e+01
  -5.244066e+01  -9.053284e+01
   5.858517e+01  -1.045999e+02
   1.262921e+02  -7.546640e+01
   1.104115e+02   6.033417e+01
   2.975695e+01   1.606416e+02
  -5.719498e+01   9.511138e+01
  -7.799840e+01  -9.917141e+00
  -4.637479e+01  -1.073863e+02
   1.660883e+01  -9.134840e+01
   4.502288e+01  -4.010888e+01
   2.509640e+01   3.101348e+01
   2.590478e+01   1.150879e+01
  -5.250262e+00  -1.205097e+01
   9.679994e+00   1.434858e+01
   4.945965e+01   8.589873e+01
   2.903686e+01   6.675237e+01
   4.120121e+00   4.585937e+01
  -9.466303e+01  -1.281718e+01
  -8.929968e+01  -1.897560e+01
  -3.417710e+01  -3.591281e+01
   5.787488e+01  -1.945335e+01
   6.125029e+01  -3.959942e+01
   2.127523e+01   5.625366e+00
  -2.416825e+01   8.628758e+00
  -1.994098e+01   7.036787e+00
   1.815210e-01  -8.268530e+00
  -3.456004e+00  -1.920148e+00
  -5.513989e+01  -9.763926e+00
  -4.567665e+01  -2.072922e+01
  -2.379644e+00  -3.853785e+01
   8.758779e+01  -9.873413e+01
   1.292753e+02  -3.583541e+01
   1.183147e+02   2.856405e+01
  -1.735577e+00   1.274165e+02
  -3.804588e+01   1.325386e+02
  -1.106746e+02   4.079619e+01
  -6.288916e+01  -1.138306e+01
  -2.180651e+01  -4.203964e+01
  -2.295024e+01   1.163167e+01
  -1.217425e+01  -2.573190e+01
  -3.347981e+01  -6.840902e+01
  -2.434044e+01  -9.120582e+01
   3.400574e+01  -5.900383e+01
   8.072434e+01   9.033824e+00
   6.753758e+01   8.404720e+01
   2.010494e+01   7.849228e+01
  -6.510181e+01   1.305324e+01
  -1.084250e+02  -4.058585e+01
  -1.137033e+01  -7.856208e+01
   4.173535e+01  -5.081845e+01
   7.230776e+01   2.360541e+01
   4.009321e+01   5.816018e+01
  -8.720407e+00   5.169170e+01
  -3.088988e+01   4.067244e+01
   2.184162e+01   1.075204e+01
   3.676384e+01  -3.178458e+00
  -1.768764e+00   2.676024e+01
  -7.248399e+01   5.709411e+01
  -5.651799e+01   4.729218e+01
  -3.344728e+01   7.530207e+00
   2.235588e+01  -7.648867e+01
   4.295173e+01  -4.112121e+01
   6.242888e+01   8.565462e+00
  -5.450779e+00   4.443202e+01
   5.168419e+00   5.421362e+01
  -2.700390e+01   1.443197e+01
  -2.959394e+01  -5.773194e+01
   1.119511e+01  -2.212484e+01
   3.215455e+01   2.352800e+01
   3.545033e+01   3.061570e+01
   1.220564e+00   2.521427e+01
   9.599365e+00  -1.047530e+01
  -7.072584e+00   1.461603e+00
   2.031430e+00   1.725850e+01
   2.112269e+00   2.680636e+01
  -8.318226e-01   1.480801e+01
  -3.153397e+01  -3.866774e+01
  -1.098660e+01  -4.649442e+01
   3.242480e+01  -3.055127e+01
   4.718567e+01   2.970118e+01
  -2.153949e+00   4.114037e+01
  -5.986719e+01   3.205821e+01
  -6.700057e+01  -1.725600e+01
  -3.467243e+01  -1.004601e+01
   2.201806e+01  -3.216746e+01
   5.757364e+01  -3.026460e+01
   2.862256e+01  -6.552564e-01
  -2.761784e+01   1.186440e+01
  -9.267672e+00  -2.451808e+00
  -1.945827e+01  -1.272979e+01
   1.597356e+01  -1.660525e+01
