
 $NMID
 id='ANONYMOUS ', fmtdat='(2E16.6)'
 volume=1.0
 tramp=1.0
 $END
   3.056269e+03   7.557482e+01
   1.826921e+03   1.528459e+03
  -2.274192e+02   1.887032e+03
  -1.177812e+03   8.895183e+02
  -8.022976e+02  -7.774195e+01
   2.030032e+02  -2.858943e+02
   3.533409e+02   1.125944e+02
   9.506826e+01   5.650894e+02
  -4.330662e+02   5.157054e+02
  -6.256030e+02   2.585906e+01
  -3.918850e+02  -4.832689e+02
   3.290791e+01  -5.744125e+02
   3.086661e+02  -1.455128e+02
   2.358880e+02   4.002832e+02
  -1.178578e+02   4.666488e+02
  -3.954864e+02   9.661046e+01
  -2.299477e+02  -4.441438e+02
   1.280978e+02  -5.182022e+02
   3.816788e+02  -2.152968e+02
   3.089928e+02   1.881156e+02
   7.883958e+01   2.947225e+02
  -1.250954e+02   2.031030e+02
  -7.587944e+01   2.941310e+01
   1.306432e+02   5.924797e+01
   2.505220e+02   2.130657e+02
   7.185274e+01   3.389736e+02
  -3.948498e+02   1.731119e+02
  -5.163395e+02  -6.645811e+01
  -2.020970e+02  -3.231749e+02
   2.982784e+02  -2.455044e+02
   5.048168e+02   7.136975e+01
   1.818565e+02   3.102639e+02
  -1.943623e+02   3.121759e+02
  -3.904846e+02   9.614508e+01
  -2.825610e+02  -1.252083e+02
  -7.545551e+01  -3.215553e+02
   4.577467e+01  -1.921338e+02
   3.957937e+00   7.601103e+01
  -1.408592e+02   1.960749e+02
  -2.336008e+02  -5.138787e+01
  -6.045913e+01  -4.321371e+02
   2.046299e+02  -4.250940e+02
   3.607969e+02   3.700332e+01
   1.355130e+02   3.440842e+02
  -1.835747e+02   1.633117e+02
  -2.116973e+02  -2.597099e+02
   5.619696e+01  -3.719346e+02
   3.735734e+02  -6.360941e+01
   4.703698e+02   2.737367e+02
   1.546202e+02   4.224467e+02
  -2.914637e+02   2.808976e+02
  -4.281539e+02  -5.301789e+01
  -3.211500e+02  -2.508695e+02
   6.253463e+01  -2.600898e+02
   2.915703e+02  -7.041869e+01
   2.173186e+02   6.444243e+01
  -1.058238e+01   1.642017e+01
  -7.196519e+01  -6.564103e+01
   8.621324e+01  -6.978282e+01
   2.323060e+02   6.935702e+01
   1.194493e+02   1.972078e+02
  -1.456700e+02   1.910413e+02
  -2.586297e+02   1.161338e+02
  -2.288696e+02  -4.680118e+01
   1.426173e+01  -2.169752e+02
   2.325311e+02  -3.071749e+02
   3.058846e+02  -1.538056e+02
   2.044396e+02   1.195330e+02
   2.807999e+01   2.932337e+02
  -6.150213e+01   2.801246e+02
  -5.456793e+01   1.262848e+02
   1.958964e+00   6.611371e+01
  -7.558815e+01   1.057099e+02
  -2.150522e+02   4.488051e+01
  -2.173227e+02  -9.425729e+01
  -1.129689e+02  -2.135876e+02
   7.592206e+01  -2.196872e+02
   1.335725e+02   4.920873e+01
   1.330745e+02   1.965194e+02
   9.233988e+00   2.196203e+02
  -1.737703e+02   8.608252e+01
  -2.695464e+02  -1.205744e+02
  -1.399004e+02  -2.580140e+02
   5.947117e+01  -2.608648e+02
   1.404355e+02  -9.587794e+01
   1.471012e+02  -7.167141e+01
   8.619544e+01  -6.026604e+01
   2.098987e+02  -5.715464e+01
   3.389064e+02   8.641062e+01
   2.798752e+02   2.307541e+02
  -2.577923e+01   3.613748e+02
  -3.029267e+02   3.703620e+02
  -3.738986e+02   1.584073e+02
  -2.527460e+02  -9.638038e+01
  -4.275758e+01  -1.960460e+02
   7.131565e+01  -1.805969e+02
   4.748998e+01  -1.386302e+01
  -7.069318e+01   3.617795e+01
  -1.120382e+02  -7.253811e+00
  -2.122329e+01  -1.360510e+02
   1.099775e+02  -1.120718e+02
   8.030823e+01   5.001019e+01
  -1.726763e+00   9.874727e+01
  -1.701468e+02   1.259901e+01
  -1.404692e+02  -2.079512e+02
   2.067699e+01  -2.821455e+02
   1.790622e+02  -1.890654e+02
   2.701306e+02   6.825622e+01
   2.358567e+02   2.005954e+02
   8.409021e+01   2.083039e+02
  -1.019928e+02   1.216119e+02
  -1.278307e+02   1.089477e+01
  -6.708011e+01  -6.248197e+00
   2.906390e+01   4.060250e+01
  -4.079943e+00   8.685775e+01
  -1.077059e+02   6.707395e+01
  -1.615513e+02  -1.756211e+01
  -5.953367e+00  -6.187498e+01
   6.801214e+01  -4.341254e+00
   3.074279e+01   9.740946e+01
  -1.168507e+02   5.667045e+01
  -2.539454e+02  -3.552696e+01
  -2.319977e+02  -1.388187e+02
  -2.333535e+01  -2.190784e+02
   1.482912e+02  -2.138545e+02
   2.214227e+02  -1.141746e+02
   1.269766e+02   1.870425e+01
  -1.355612e+01   8.004812e+01
  -2.545803e+01   9.843204e+00
   3.126544e+01  -4.391776e+01
   1.377083e+02  -4.673896e+01
   1.251098e+02   7.833519e+01
   4.161698e+01   1.514061e+02
  -5.067923e+01   1.144497e+02
  -9.328781e+01   1.129677e+01
  -4.754945e+01  -2.300636e+01
   2.282314e+01   2.156828e+01
   1.252932e+01   8.516457e+01
  -6.283401e+01   1.031128e+02
  -1.641073e+02   4.611480e+01
  -1.563654e+02  -9.330429e+01
   3.580785e+00  -1.864359e+02
   1.146986e+02  -1.267396e+02
   1.333238e+02  -1.587964e+01
   4.981089e+01   4.871351e+01
  -7.084844e+01   5.737453e+01
  -3.160927e+01   7.959146e+00
  -2.081437e+01  -2.242310e+01
   1.182125e+01  -1.822015e+01
  -7.553187e+00   2.090055e+01
  -8.315732e+01  -1.283724e+01
  -1.052464e+02  -8.220585e+01
  -4.656751e+00  -1.226306e+02
   1.167699e+02  -1.325766e+02
   2.099330e+02  -2.698792e+01
   1.698270e+02   1.329609e+02
   1.813327e+01   1.779479e+02
  -1.018257e+02   1.181935e+02
  -1.047531e+02   1.774609e+01
  -2.746731e+01  -3.504918e+01
  -2.330698e+01  -2.776892e+01
  -6.226543e+01   7.898282e+00
  -9.584479e+01  -1.103213e+01
  -4.789576e+01  -2.983193e+01
   3.981066e+01  -7.479100e+01
   1.013296e+02  -7.580766e+01
   8.458639e+01   3.194407e+01
  -2.544680e+01   1.033942e+02
  -1.119158e+02   7.090867e+01
  -1.953772e+02  -7.815206e+01
  -5.419873e+01  -1.618540e+02
   1.034824e+02  -2.081324e+02
   2.338491e+02  -5.476056e+01
   2.095212e+02   6.323883e+01
   8.761559e+01   1.341823e+02
  -1.838841e+01   1.046569e+02
  -7.987697e+01   5.756732e+01
  -6.919989e+01   7.957153e+01
  -4.887196e+01   9.695844e+01
  -1.014968e+02   6.586369e+01
  -1.127414e+02  -6.686353e+00
  -9.413315e+01  -1.315168e+02
  -3.155273e+01  -1.907510e+02
   8.407299e+01  -1.774947e+02
   1.333235e+02  -2.640002e+01
   8.543096e+01   1.072690e+02
   1.059146e+01   1.375568e+02
  -5.799358e+01   7.776769e+01
  -5.491192e+01   1.987804e+01
  -9.637517e+00  -5.411745e+01
  -1.661882e-01  -4.190492e+01
  -5.669881e+01   3.122253e+00
  -8.143872e+01  -2.872116e+01
  -2.653236e+01  -2.570198e+01
   6.716252e+01  -3.631000e+01
   1.405324e+02   3.296245e-01
   1.283242e+02   3.664513e+01
  -9.479008e+00   8.466289e+01
  -1.144032e+02   3.938943e+01
  -8.292255e+01   2.848862e+01
  -3.796793e+01  -3.504680e+01
   5.117592e+01  -2.863219e+01
   7.214667e+01   2.979253e+01
   1.856727e+01   6.357194e+01
  -4.797843e+01   6.708660e+01
  -5.308743e+01  -2.231765e+00
  -3.341647e+01  -3.210458e+01
  -3.847359e+01  -4.540678e+01
  -4.813037e+01   5.145108e+00
  -5.169259e+01  -8.976292e+00
  -3.655173e+01  -5.963484e+01
   2.812003e+01  -1.127507e+02
   1.018665e+02  -1.220275e+02
   1.158003e+02  -5.696721e+01
   1.096877e+02   8.164331e+01
   1.773374e+01   1.141499e+02
  -7.771322e+01   5.587354e+01
  -6.506726e+01  -2.377573e+01
   6.677514e+01  -3.206578e+01
   9.102363e+01   4.621642e+01
   4.626893e+01   7.512130e+01
  -5.798561e+01   9.968006e+01
  -1.647980e+02   4.475517e+01
  -1.330416e+02  -2.696378e+01
  -4.521634e+01  -3.561907e+01
   3.357692e+01  -2.801049e+01
   8.831770e+00   3.968519e+00
  -3.627318e+01   3.050856e+01
  -8.343999e+01  -7.950596e+00
  -5.403298e+01  -8.885727e+01
   7.680253e+01  -1.360737e+02
   1.277809e+02  -7.281419e+01
   1.024749e+02   8.268748e+01
   4.162998e+01   1.491372e+02
  -4.871892e+01   6.754006e+01
  -1.056335e+02   2.160439e+01
  -3.190368e+01  -9.464712e+01
   8.415239e+00  -1.041279e+02
   1.315441e+01  -5.783587e+00
   3.423020e+01   1.786714e+01
   1.461225e+01   8.111885e+00
   2.203823e+01  -3.885689e+00
   4.092136e+01   8.077549e+00
   3.184272e+01   8.569517e+01
   4.942437e+01   9.307295e+01
  -5.888802e+01   1.072935e+01
  -1.047777e+02  -2.842716e+01
  -9.594551e+01  -7.983904e+01
  -9.879475e+00  -6.257679e+01
   6.438896e+01  -1.222045e+01
   5.681715e+01  -1.247939e-02
  -4.078869e-01   1.030930e+01
  -1.891448e+01   7.524442e+00
  -9.892490e+00   3.687829e+00
   3.035652e+01  -5.473716e+00
  -1.653437e+01   1.862654e+01
  -5.318081e+01  -2.601558e+01
  -6.599356e+01  -1.777518e+01
  -2.020027e+01  -4.429914e+01
   8.874381e+01  -9.734290e+01
   1.421928e+02  -3.356077e+01
   1.155114e+02   5.507432e+01
   4.751418e+01   1.382023e+02
  -6.122185e+01   1.457472e+02
  -1.154169e+02   5.214259e+01
  -6.637790e+01   1.082958e+01
  -3.433376e+01  -3.463260e+01
  -8.791986e+00   1.408590e+01
  -4.348198e+00  -2.947198e-01
  -2.087245e+01  -4.607821e+01
  -2.374528e+01  -8.502377e+01
   5.042095e+01  -5.864224e+01
   1.042966e+02   2.258900e+01
   6.960245e+01   7.355836e+01
  -3.151200e+01   8.376283e+01
  -7.490104e+01   3.451453e+01
  -9.058513e+01  -6.171236e+01
  -2.015209e-05  -8.620646e+01
   5.501246e+01  -5.267300e+01
   1.002374e+02   1.241996e+01
   4.730388e+01   3.533734e+01
  -2.083728e+01   3.325521e+01
   2.157436e+00   2.397618e+01
   2.663272e+01  -3.690928e+00
   6.690426e+01  -2.838311e+00
   1.201426e+01   1.689420e+01
  -6.930376e+01   7.336943e+01
  -1.083811e+02   4.323532e+01
  -4.836163e+01  -2.656719e+01
  -2.576619e-01  -8.130563e+01
   2.836753e+01  -6.382670e+01
   4.828556e+01  -2.073206e+01
  -5.975911e+00   3.219332e+01
  -1.757334e+00   3.084791e+01
  -3.021435e+01  -8.821767e+00
  -2.341805e+00  -5.254876e+01
   2.882510e+01  -1.167384e+01
  -5.909622e+00  -1.377779e+01
   5.025867e+01   2.204361e+00
  -8.794650e+00   8.044251e-01
   3.408719e+00  -2.282022e+01
   1.097325e+01  -2.659383e+01
   7.024618e+00   3.620204e+01
  -1.543437e+01   5.376253e+01
  -2.377610e+01   8.675134e+00
  -1.500762e+01  -5.133190e+01
   7.450900e+00  -3.039918e+01
   3.921664e+01  -2.452950e+01
   3.714542e+01   4.468223e+01
   2.111138e+01   5.754945e+01
  -4.924185e+01  -1.186844e+00
  -4.658892e+01   8.692284e-01
  -5.078759e+01  -2.761923e+01
   2.128939e+01  -2.225614e+01
   4.270332e+01  -3.237907e+01
   4.059445e+01   3.054289e+01
  -1.718098e+01  -4.192562e+00
  -2.441894e+01  -2.660762e+01
   4.178209e+01  -2.677903e+01
   6.065896e+01  -5.488470e+01
