
 $NMID
 id='ANONYMOUS ', fmtdat='(2E16.6)'
 volume=1.0
 tramp=1.0
 $END
  -2.846361e+03  -7.888004e+01
  -1.922070e+03  -1.522250e+03
   2.048490e+02  -1.832521e+03
   1.192352e+03  -8.556824e+02
   7.793250e+02   1.086791e+02
  -1.771293e+02   2.079433e+02
  -3.948079e+02  -1.271935e+02
  -2.250024e+01  -5.570797e+02
   4.578437e+02  -5.227902e+02
   5.613602e+02  -3.145568e+01
   3.563784e+02   4.452515e+02
  -4.572644e+01   5.307128e+02
  -3.011448e+02   1.423263e+02
  -2.370505e+02  -3.526025e+02
   1.457980e+02  -4.669678e+02
   3.351093e+02  -2.288030e+01
   2.073391e+02   4.005318e+02
  -1.687704e+02   4.677885e+02
  -3.424365e+02   2.119668e+02
  -3.338963e+02  -1.907219e+02
  -6.618378e+01  -2.934441e+02
   1.097771e+02  -2.067376e+02
   1.029640e+02  -3.475071e+01
  -1.115824e+02  -5.078120e+01
  -2.410305e+02  -1.739963e+02
  -6.573662e+01  -3.383846e+02
   3.846726e+02  -1.968574e+02
   5.232041e+02   9.173051e+01
   1.703775e+02   3.322847e+02
  -2.746330e+02   2.729974e+02
  -4.675830e+02  -3.843485e+01
  -1.766516e+02  -2.870067e+02
   2.078074e+02  -3.273376e+02
   3.853143e+02  -8.838759e+01
   2.758978e+02   1.272064e+02
   8.512470e+01   2.899974e+02
  -5.106422e+01   1.694024e+02
  -3.731169e+01  -7.007997e+01
   1.383858e+02  -2.315102e+02
   1.687537e+02   6.232150e+01
   4.001273e+01   4.077084e+02
  -2.041577e+02   3.921849e+02
  -3.209544e+02  -3.404024e+01
  -1.240033e+02  -2.948366e+02
   1.525423e+02  -1.304106e+02
   1.920041e+02   2.159362e+02
  -6.664172e+01   3.394722e+02
  -3.959085e+02   7.849050e+01
  -4.045672e+02  -3.189530e+02
  -1.379831e+02  -4.287821e+02
   2.454544e+02  -2.371761e+02
   4.470935e+02   5.201276e+01
   2.821087e+02   2.472151e+02
  -8.227717e+01   2.206689e+02
  -2.778608e+02   4.735391e+01
  -1.862866e+02  -7.189308e+01
   9.551494e+00  -5.146012e+01
   6.298626e+01   5.418442e+01
  -1.000179e+02   8.302839e+01
  -2.125568e+02  -2.558979e+01
  -7.839432e+01  -2.090636e+02
   1.252639e+02  -1.951407e+02
   2.724982e+02  -8.991796e+01
   1.977917e+02   1.122696e+02
  -3.927688e+01   2.143808e+02
  -2.132734e+02   2.975329e+02
  -2.749116e+02   1.295997e+02
  -2.054290e+02  -1.069673e+02
  -4.155378e+01  -2.940027e+02
   5.404465e+01  -2.811271e+02
   1.311943e+01  -9.919785e+01
   4.188998e+01  -4.604577e+01
   8.878043e+01  -6.899431e+01
   2.002965e+02  -4.790144e+01
   2.027258e+02   8.848801e+01
   8.433942e+01   1.990467e+02
  -5.768016e+01   1.805942e+02
  -1.421781e+02  -5.131383e+01
  -1.364273e+02  -1.733987e+02
   4.813733e+01  -1.995929e+02
   2.064369e+02  -4.759460e+01
   2.457577e+02   1.017538e+02
   1.517424e+02   2.292363e+02
  -6.853453e+01   2.378800e+02
  -1.185469e+02   1.077185e+02
  -1.143359e+02   6.555753e+01
  -1.059218e+02   6.599214e+01
  -1.961610e+02   5.338598e+01
  -2.855122e+02  -7.498121e+01
  -2.371653e+02  -2.241655e+02
   3.211377e+01  -3.878415e+02
   2.913826e+02  -3.265543e+02
   3.673030e+02  -1.432374e+02
   2.270662e+02   7.561912e+01
   4.045033e+01   2.133014e+02
  -6.553107e+01   1.626376e+02
  -1.893272e+01   2.307175e+01
   9.871424e+01  -7.781604e+01
   1.125717e+02   3.032017e+01
   3.153938e+01   1.267451e+02
  -1.105798e+02   7.224638e+01
  -9.483024e+01  -4.022253e+01
  -3.867592e+00  -1.026395e+02
   1.589164e+02  -4.100217e+00
   1.294656e+02   2.024527e+02
  -9.087136e+00   2.882993e+02
  -1.783196e+02   1.768889e+02
  -2.559345e+02  -5.270212e+01
  -2.114000e+02  -1.872518e+02
  -6.912961e+01  -1.936825e+02
   7.252408e+01  -1.412715e+02
   1.166598e+02  -8.336865e+00
   6.209711e+01  -9.180073e+00
  -2.387836e+01  -5.094846e+01
  -1.475152e+01  -7.713740e+01
   8.060306e+01  -2.691832e+01
   1.495728e+02   1.116844e+01
   2.111542e+01   6.997127e+01
  -5.253665e+01  -9.980392e+00
  -6.471434e+01  -5.673460e+01
   1.125314e+02  -1.056137e+02
   2.487755e+02   9.182167e+00
   2.328066e+02   1.385616e+02
   4.549870e+01   1.963256e+02
  -1.498898e+02   2.167678e+02
  -2.032965e+02   1.107551e+02
  -1.355975e+02  -3.571351e+01
   2.236061e+01  -4.380886e+01
   6.372457e+01  -8.828187e-01
  -2.874166e+01   8.337701e+01
  -1.456863e+02  -8.258219e+00
  -1.374552e+02  -7.128374e+01
  -4.118914e+01  -1.840929e+02
   6.595163e+01  -1.012466e+02
   1.150673e+02  -2.394904e+01
   5.679812e+01   4.875909e+01
  -5.104152e+01  -9.252907e-01
  -4.050664e+01  -8.975697e+01
   8.472030e+01  -1.220336e+02
   1.404529e+02  -2.698462e+01
   1.532551e+02   9.334508e+01
   8.149158e+00   1.643157e+02
  -1.420563e+02   1.285507e+02
  -1.333279e+02   2.303944e+01
  -4.128237e+01  -8.808263e+01
   3.334479e+01  -7.215662e+01
   5.468703e+01  -2.446247e+01
   1.113004e+01   6.900919e+00
  -1.845002e+01   7.829832e+00
   1.657683e+01  -1.240454e+01
   6.407453e+01   1.730199e+01
   8.079839e+01   8.197873e+01
   8.809268e+00   1.190194e+02
  -1.164219e+02   1.336620e+02
  -1.838156e+02   1.439732e+01
  -1.653336e+02  -1.193884e+02
  -1.853255e+01  -1.993503e+02
   6.696647e+01  -1.122792e+02
   1.047225e+02  -6.757776e+00
   6.317562e+01   2.519602e+01
   3.261059e+01   3.221881e+01
   4.949787e+01  -2.513260e+01
   8.765926e+01   2.183556e+00
   2.127594e+01   5.788625e+01
  -3.732964e+01   7.989858e+01
  -8.915671e+01   7.618025e+01
  -5.151545e+01  -3.391037e+01
  -8.024439e+00  -1.014519e+02
   9.433704e+01  -7.561649e+01
   1.735744e+02   5.110010e+01
   7.718648e+01   1.693555e+02
  -9.922482e+01   1.996224e+02
  -2.171026e+02   6.089127e+01
  -1.901708e+02  -6.661817e+01
  -9.380277e+01  -1.613714e+02
   5.577042e+01  -1.050545e+02
   6.402856e+01  -5.614527e+01
   8.021015e+01  -5.540584e+01
   5.488860e+01  -9.086856e+01
   6.058864e+01  -7.419410e+01
   9.618757e+01   1.887521e+01
   8.668987e+01   1.323195e+02
   1.499679e+01   1.878593e+02
  -9.475466e+01   1.474434e+02
  -1.440903e+02   2.683720e+01
  -1.170765e+02  -7.329196e+01
  -2.162228e+01  -1.084833e+02
   6.193702e+01  -5.421756e+01
   5.599965e+01  -1.858239e+01
  -5.020396e+00   5.649913e+01
  -1.421125e+01   3.661919e+01
   5.496932e+01   4.601661e+01
   7.116095e+01   2.347311e+01
   1.810428e+01   2.720229e+01
  -8.551332e+01   3.324483e+01
  -1.347172e+02  -1.367313e+01
  -1.276977e+02  -4.886186e+01
   1.776628e+00  -6.394959e+01
   8.912784e+01  -1.871365e+01
   8.699007e+01  -3.903845e+01
   3.894455e+01   2.556698e+01
  -3.208868e+01   1.373812e+01
  -5.997217e+01  -1.724063e+01
   5.474158e-01  -7.725489e+01
   1.961790e+01  -4.682879e+01
   3.948933e+01   7.638387e+00
   3.600116e+01   1.125733e+01
   5.894036e+01   2.676671e+01
   4.551614e+01   7.154083e+00
   3.084294e+01  -6.677047e+00
   3.336036e+01   6.231473e+01
  -6.208751e+01   1.153329e+02
  -1.032447e+02   1.271099e+02
  -1.296630e+02   2.744258e+01
  -1.166930e+02  -6.490274e+01
  -1.660264e+01  -1.159229e+02
   9.261889e+01  -4.411361e+01
   4.615591e+01   7.855994e-01
  -1.732395e+01   1.505138e+01
  -1.148874e+02  -2.919545e+01
  -5.182504e+01  -9.920677e+01
   4.683797e+01  -7.516111e+01
   1.215337e+02  -1.272615e+01
   1.115857e+02   3.775710e+01
   1.641779e+01   5.021063e+01
  -3.128047e+01   3.988873e+01
  -2.271571e+01   1.266911e+01
   2.952126e+01  -1.949537e+01
   7.764113e+01   2.305433e+01
   3.770054e+01   5.499974e+01
  -6.512012e+01   1.492896e+02
  -1.564545e+02   8.100822e+01
  -1.051844e+02  -6.671280e+01
  -3.168286e+01  -1.567321e+02
   5.232084e+01  -7.705492e+01
   6.010902e+01  -6.315456e+00
   2.450573e+01   9.065247e+01
   1.347568e-01   9.994953e+01
  -4.211022e+01   1.087916e+00
  -3.899059e+01  -2.796201e+01
  -2.345387e+01   4.885230e+00
   4.448544e+00  -4.082920e+00
  -1.890242e+01  -3.561201e+01
  -4.587639e+01  -6.875286e+01
  -2.751597e+01  -7.588061e+01
   4.713631e+01  -5.195062e+01
   1.017904e+02   1.248313e+01
   9.648508e+01   3.475736e+01
   5.275548e+00   2.656814e+01
  -5.141337e+01   4.430869e+01
  -7.734647e+01  -3.115127e-01
   1.119572e+01   5.810617e+00
   3.197912e+01  -5.205817e+00
   9.188280e+00  -4.314244e+00
  -1.541992e+01   7.190972e+00
  -7.687754e-01  -5.907936e+00
   5.743825e+01   5.042711e+00
   7.848240e+01   4.388143e+01
   1.913032e+01   6.650769e+01
  -1.041685e+02   8.027814e+01
  -1.228659e+02   3.636909e+01
  -1.228645e+02  -6.172754e+01
  -6.737987e+00  -1.287234e+02
   5.667091e+01  -1.359663e+02
   6.693952e+01  -6.214791e+01
   4.698288e+01   3.416080e+00
   2.541502e+01   3.304894e+01
  -6.224293e+00   2.028838e+00
   3.583947e+01  -1.713607e+00
   2.788739e+01   4.219940e+01
   2.528212e+01   7.259790e+01
  -2.037827e+01   6.744566e+01
  -1.076414e+02  -2.901558e+01
  -5.779858e+01  -8.567670e+01
   1.577943e-01  -9.172528e+01
   7.777072e+01  -1.487340e+01
   6.313803e+01   4.149226e+01
   4.457705e+00   6.654915e+01
  -5.413242e+01   5.445395e+01
  -6.905999e+01  -2.494519e+01
  -3.407745e+01  -3.583245e+01
   1.735405e+01  -1.662640e+01
   2.617092e+01  -2.219899e+01
  -1.482301e+01   1.486233e+01
  -6.596798e+01   3.852056e+00
   4.970900e+00  -3.715557e+00
   6.143252e+01  -5.609194e+01
   9.547726e+01  -3.633277e+01
   4.062054e+01   2.941981e+01
  -1.203804e+01   4.876363e+01
  -1.468039e+01   7.228478e+01
  -2.176305e+01   1.311969e+01
  -6.950033e+00  -7.011418e+01
   2.642642e+01  -3.533323e+01
   4.011931e+01  -6.533202e+00
   6.058446e-01   5.735795e+01
   1.515527e+01   5.813274e+01
   1.087279e+01   2.913343e+00
  -4.032883e+01  -2.760961e+01
  -9.492570e+00   1.449604e+01
   2.050751e+01   1.730318e+01
  -2.551880e+01  -2.745161e+01
  -1.570139e+01  -3.625576e+01
   1.733322e+01  -4.883013e+01
   6.659197e+00  -1.848854e+01
   3.691545e+01   5.132571e+01
  -1.735391e+01   5.388533e+01
  -3.025234e+01   4.119826e+01
  -4.607649e+01  -4.408707e+01
  -7.048220e+00  -3.997369e+01
   3.911005e+01  -1.081259e+01
   4.596074e+01  -1.805424e+01
   4.740653e+01   3.184498e+01
  -1.407563e+01   4.708676e+01
  -5.521158e+01   1.511032e+01
  -2.761904e+00   5.485705e+00
   5.251062e+01  -2.335902e+01
   2.376462e+01   1.449119e+01
  -1.673697e+01   2.688291e+01
  -3.953940e+01   2.902327e+01
