
 $NMID
 id='ANONYMOUS ', fmtdat='(2E16.6)'
 volume=1.0
 tramp=1.0
 $END
   2.843907e+03   1.112387e+02
   1.764970e+03   1.435745e+03
  -1.958600e+02   1.783826e+03
  -1.105653e+03   8.703515e+02
  -6.911460e+02  -4.882805e+00
   1.277150e+02  -1.580681e+02
   3.680769e+02   1.503959e+02
   1.551211e+01   5.561013e+02
  -4.578587e+02   4.753134e+02
  -5.300465e+02   5.185665e+00
  -3.598734e+02  -4.692777e+02
   1.933620e+01  -5.424360e+02
   3.075958e+02  -1.791722e+02
   2.302749e+02   3.520068e+02
  -1.122349e+02   4.563578e+02
  -3.127899e+02   2.384269e+01
  -2.197436e+02  -3.943020e+02
   1.405669e+02  -4.410595e+02
   3.892077e+02  -1.792236e+02
   3.188292e+02   1.704522e+02
   9.348137e+01   2.792561e+02
  -1.113970e+02   2.004076e+02
  -7.339107e+01   4.985238e+01
   1.342109e+02   2.488774e+01
   2.342701e+02   1.807715e+02
   3.812329e+00   3.104382e+02
  -3.987757e+02   1.790248e+02
  -5.011348e+02  -1.164430e+02
  -2.153147e+02  -2.831814e+02
   2.575266e+02  -2.338132e+02
   4.418780e+02   5.182641e+01
   1.796212e+02   3.028921e+02
  -2.085731e+02   2.903261e+02
  -3.740179e+02   1.027363e+02
  -2.469457e+02  -1.516868e+02
  -9.156260e+01  -2.591824e+02
   4.924067e+01  -1.712480e+02
   9.921578e+00   7.539448e+01
  -1.363282e+02   1.902992e+02
  -1.956776e+02  -7.709548e+01
  -4.699706e+01  -3.781353e+02
   1.879474e+02  -3.610443e+02
   3.108325e+02   5.157224e+01
   1.014720e+02   3.052644e+02
  -1.385330e+02   1.346330e+02
  -1.419275e+02  -2.256526e+02
   7.550035e+01  -3.417753e+02
   3.621644e+02  -4.243541e+01
   4.018997e+02   3.134089e+02
   1.003324e+02   4.258570e+02
  -2.615051e+02   2.414380e+02
  -4.189021e+02  -4.385186e+01
  -2.863408e+02  -2.141930e+02
   7.840995e+01  -2.041882e+02
   2.667660e+02  -6.122226e+01
   1.790776e+02   4.337967e+01
  -9.838650e+00   3.190486e+01
  -3.458821e+01  -3.350456e+01
   7.512048e+01  -6.171671e+01
   2.170354e+02   5.100201e+01
   7.363047e+01   1.845089e+02
  -1.431408e+02   1.943505e+02
  -2.735468e+02   9.544689e+01
  -1.808123e+02  -8.947052e+01
   2.349325e+01  -2.192524e+02
   2.175887e+02  -2.626474e+02
   2.507621e+02  -1.294640e+02
   2.042853e+02   1.134292e+02
   3.660323e+01   2.719612e+02
  -3.118529e+01   2.839495e+02
  -5.417759e+01   1.078767e+02
  -3.253063e+01   5.087336e+01
  -8.835078e+01   6.363730e+01
  -1.992152e+02   6.636847e+01
  -1.876968e+02  -8.699596e+01
  -7.588497e+01  -1.858957e+02
   6.719135e+01  -1.717462e+02
   1.621461e+02   1.944551e+01
   1.087007e+02   2.071692e+02
  -3.377408e+01   1.814114e+02
  -1.881421e+02   4.023348e+01
  -2.567504e+02  -1.475521e+02
  -1.085247e+02  -2.270375e+02
   5.751011e+01  -2.303930e+02
   1.358845e+02  -8.652084e+01
   1.257964e+02  -3.779670e+01
   1.067928e+02  -8.706466e+01
   1.895119e+02  -4.498201e+01
   2.960325e+02   7.433105e+01
   2.434932e+02   2.331906e+02
  -3.019389e+01   3.355987e+02
  -2.732521e+02   2.953115e+02
  -3.636631e+02   1.482439e+02
  -2.318447e+02  -7.417299e+01
   2.658987e+00  -2.108712e+02
   7.630088e+01  -1.882373e+02
   2.218301e+01  -3.941914e+01
  -8.687754e+01   4.902221e+01
  -1.047752e+02  -6.892064e+00
  -1.088794e+01  -1.316200e+02
   1.034591e+02  -6.971853e+01
   9.379601e+01   6.963116e+01
   6.098260e+00   1.033530e+02
  -1.522685e+02   7.484829e+00
  -1.175616e+02  -1.848075e+02
   3.935427e+01  -2.356263e+02
   1.798952e+02  -1.675716e+02
   2.834444e+02   4.882555e+01
   2.066725e+02   1.810851e+02
   5.828503e+01   2.260948e+02
  -8.441080e+01   1.070801e+02
  -1.111503e+02   6.467329e+00
  -3.023005e+01  -1.872668e+00
   3.732891e+01   5.473707e+01
   1.825518e+01   7.221689e+01
  -1.005261e+02   5.446427e+01
  -1.251086e+02  -5.070980e+00
  -5.199223e+01  -5.460408e+01
   6.748058e+01   3.435218e+00
   3.615252e+01   6.157829e+01
  -1.117712e+02   7.108998e+01
  -2.011555e+02  -4.729667e+00
  -2.190268e+02  -1.228176e+02
  -2.275605e+01  -1.788432e+02
   1.354052e+02  -1.690736e+02
   2.181059e+02  -9.369736e+01
   1.265554e+02   5.464547e+01
  -1.978546e+01   6.307084e+01
  -7.837671e+01  -5.469225e-01
   4.336083e+01  -5.418419e+01
   1.609671e+02   5.516655e-01
   1.297432e+02   6.860936e+01
   3.841685e+01   1.520872e+02
  -5.420677e+01   1.081091e+02
  -8.941376e+01  -1.283368e+00
  -5.813592e+01  -5.152856e+00
   2.390271e+01  -1.352483e+01
   1.758752e+01   7.771968e+01
  -3.886562e+01   1.052105e+02
  -1.637322e+02   1.726819e+01
  -1.733888e+02  -1.012236e+02
   7.323837e+00  -1.768484e+02
   1.138782e+02  -1.018582e+02
   1.499538e+02   1.034683e+01
   1.676379e+01   7.053557e+01
  -3.601939e+01   6.269720e+01
  -5.046870e+01   8.724198e+00
  -1.597322e+01  -3.478640e+00
   1.766843e+01  -1.827861e+00
  -2.547177e+01   1.047205e+01
  -5.739800e+01  -3.403769e+01
  -7.138685e+01  -8.867653e+01
  -1.529596e+01  -1.284654e+02
   1.052681e+02  -1.191808e+02
   1.844583e+02  -1.440882e+01
   1.346689e+02   1.164931e+02
   5.161823e+01   1.832238e+02
  -8.814079e+01   1.004896e+02
  -9.572290e+01   3.171554e+01
  -6.229680e+01  -3.383225e+01
  -3.802786e+01  -3.122425e+01
  -5.023200e+01   9.931249e+00
  -7.210086e+01  -2.191027e+00
  -1.426081e+01  -2.203516e+01
   4.731000e+01  -6.874796e+01
   6.496877e+01  -5.287171e+01
   1.052125e+02   2.221251e+01
  -8.767149e-02   7.099691e+01
  -9.126525e+01   7.095259e+01
  -1.693138e+02  -4.540255e+01
  -5.021280e+01  -1.653562e+02
   9.994545e+01  -1.759983e+02
   2.096993e+02  -5.284664e+01
   1.796669e+02   6.600252e+01
   9.343099e+01   1.326423e+02
  -1.611456e+01   1.102170e+02
  -6.672738e+01   4.980089e+01
  -4.879146e+01   5.170672e+01
  -5.475361e+01   8.661947e+01
  -6.159891e+01   8.210774e+01
  -1.032685e+02   5.854568e+00
  -1.004090e+02  -1.442688e+02
  -4.595136e+00  -1.887667e+02
   8.020098e+01  -1.396996e+02
   1.342803e+02  -5.025408e+01
   7.495010e+01   7.035596e+01
   1.088048e+01   9.730441e+01
  -5.949370e+01   7.562307e+01
  -4.429419e+01  -2.603636e+01
  -8.937325e-01  -3.085494e+01
   3.614687e-01  -2.966901e+01
  -3.381244e+01   1.453269e+01
  -7.847182e+01  -7.752132e+00
  -1.289812e+01  -2.020872e+01
   6.246248e+01  -2.618762e+01
   1.695476e+02   2.116337e+01
   1.024737e+02   7.119247e+01
  -1.438569e+01   6.792912e+01
  -1.004267e+02   3.717407e+01
  -9.182201e+01   1.282102e+01
  -5.553677e+01  -3.818695e+01
   5.260691e+01  -2.809443e+01
   5.065249e+01   1.665572e+01
   2.843330e+01   8.139367e+01
  -1.089284e+01   4.883438e+01
  -2.819536e+01   8.934932e+00
  -3.811122e+01  -6.460388e+00
  -4.443789e+01  -2.332586e+01
  -4.454870e+01   4.099042e+00
  -4.719246e+01   1.647634e+01
  -1.480921e+01  -4.979728e+01
   3.040840e+01  -9.441161e+01
   8.686862e+01  -9.521749e+01
   1.304977e+02  -3.255709e+01
   1.128162e+02   5.616583e+01
   2.112738e+00   1.107138e+02
  -5.731656e+01   4.963485e+01
  -5.828083e+01   6.919903e+00
   4.291319e+01  -8.671672e+00
   9.170088e+01   5.770713e+01
   5.531052e+01   5.775621e+01
  -2.301003e+01   8.601402e+01
  -1.555952e+02   2.527204e+01
  -1.262122e+02  -9.215135e+00
  -1.725727e+01  -5.307804e+01
   5.337318e+01  -4.956196e+01
   2.447395e+01  -1.621912e+01
  -2.157091e+01   3.805088e+00
  -7.536253e+01  -2.825654e+01
  -1.513376e+01  -4.746185e+01
   6.289628e+01  -1.331032e+02
   1.202006e+02  -6.662384e+01
   1.014315e+02   5.632413e+01
   2.918832e+01   1.413908e+02
  -5.083866e+01   9.070629e+01
  -8.747679e+01   1.497436e+01
  -7.221700e+01  -1.244471e+02
   1.031852e+01  -6.094702e+01
   3.969779e+01  -1.682666e-01
   3.312326e+01   1.162359e+01
   2.351880e+01   7.921836e+00
  -6.538481e+00  -6.525252e+00
   1.652523e+01   1.408075e+01
   4.302388e+01   6.152011e+01
   6.682357e+00   6.887447e+01
  -4.837550e+01   3.361959e+01
  -9.860684e+01  -2.608766e+01
  -1.041807e+02  -5.795156e+01
   3.576866e+00  -4.798100e+01
   4.361461e+01  -2.428658e+01
   4.076840e+01   2.054760e+01
   2.882816e+01   2.020358e+01
  -3.584913e+01   1.986356e+01
  -2.673562e+00   1.531455e+01
   1.370843e+01   1.602008e+01
  -1.964432e+01   1.474724e+00
  -5.851833e+01  -1.766268e+01
  -6.806131e+01  -3.250485e+01
   2.263741e+00  -7.308536e+01
   9.243041e+01  -7.410076e+01
   1.354140e+02  -4.422473e+01
   1.243514e+02   5.501547e+01
   3.515148e+01   1.331240e+02
  -5.054410e+01   1.345988e+02
  -8.425731e+01   5.019826e+01
  -6.383854e+01  -3.967937e+01
  -7.985462e+00  -1.230423e+01
   9.607422e+00  -1.590855e+01
   9.584633e+00  -5.800572e+00
  -5.599001e+01  -2.459187e+01
  -1.720967e+01  -6.030153e+01
   2.947822e+01  -6.058907e+01
   7.120031e+01   1.061050e+01
   4.961313e+01   8.016794e+01
   1.527269e+01   8.482884e+01
  -6.314385e+01   2.774539e+01
  -4.780994e+01  -4.842681e+01
  -1.526860e+01  -8.117994e+01
   3.220798e+01  -6.728091e+01
   6.155353e+01   1.851294e+01
   1.214500e+01   2.716359e+01
  -2.561861e+01   4.674702e+01
  -3.365707e+01   8.028909e+00
   2.002125e+01  -7.211075e+00
   2.464584e+01  -7.720634e+00
   1.788682e+01  -1.752108e+00
  -7.844919e+01   2.142949e+01
  -1.014119e+02   4.241256e+01
  -1.343691e+01   6.505130e+00
  -2.306910e+01  -5.808458e+01
   2.038526e+01  -4.908384e+01
   3.808900e+01  -2.126111e+01
  -5.104618e+00   3.017483e+01
  -3.617361e+01   4.934079e+01
  -6.224615e+01  -2.709512e+01
  -4.940541e-01  -4.332107e+01
  -1.566759e+01  -4.271000e+01
   3.154995e+01  -1.736213e+00
   4.973111e+01   3.765064e+00
  -1.555095e+00  -1.018018e+00
  -7.341746e+00  -2.695516e+01
   1.198636e+01   4.262972e+00
   1.747803e+01   2.176912e+01
  -1.205224e+01   2.851740e+01
  -6.690500e+00  -1.343037e+01
  -4.777879e+01  -4.238954e+01
  -1.459267e+01  -3.553521e+01
   9.397867e+00  -3.881982e+01
   3.054208e+01   1.893216e+01
   3.155566e+01   2.356027e+01
  -2.538574e+01   2.316836e+01
  -4.025172e+01   1.987040e+00
  -2.149828e+01  -1.078526e+01
   1.850308e+01  -2.665175e+01
   2.293511e+01  -2.033679e+01
   1.758574e+01  -2.698842e+01
  -2.379115e+01  -1.551034e+01
  -8.255613e-01  -3.314824e+01
   2.306811e+01  -2.501245e+01
   7.993149e+01  -2.176032e+01
