
 $NMID
 id='ANONYMOUS ', fmtdat='(2E16.6)'
 volume=1.0
 tramp=1.0
 $END
   5.591166e+07   2.027384e+06
   3.229067e+07   3.557686e+07
  -8.640023e+06   3.736731e+07
  -2.765654e+07   1.369284e+07
  -1.601073e+07  -7.252111e+06
   3.495450e+06  -9.069688e+06
   9.623293e+06   1.383810e+06
   2.531777e+06   9.661238e+06
  -6.278192e+06   9.122770e+06
  -9.571253e+06   1.773286e+06
  -6.795160e+06  -6.386815e+06
  -5.791140e+05  -8.637265e+06
   4.100637e+06  -2.606900e+06
   2.550592e+06   5.561202e+06
  -3.857602e+06   6.473996e+06
  -7.755533e+06  -1.518348e+06
  -4.126187e+06  -1.025661e+07
   4.097966e+06  -1.160433e+07
   1.024006e+07  -5.537787e+06
   1.068749e+07   2.443265e+06
   6.275096e+06   7.717393e+06
   2.991433e+05   8.587577e+06
  -3.099388e+06   5.793076e+06
  -1.767589e+06   2.524181e+06
   1.238047e+06   2.235180e+06
   1.794306e+05   4.317967e+06
  -5.638211e+06   4.325270e+06
  -9.798143e+06   2.099996e+05
  -6.947160e+06  -4.391312e+06
  -1.732515e+04  -5.134415e+06
   3.929752e+06  -2.479889e+06
   2.562394e+06   1.559208e+05
  -6.803719e+05   1.101738e+06
  -2.452045e+06   5.226644e+05
  -2.282831e+06  -1.579978e+06
  -5.777664e+05  -4.091231e+06
   1.979582e+06  -3.803109e+06
   3.222249e+06   3.208888e+05
   1.509492e+06   3.741931e+06
  -9.170089e+05   1.806765e+06
  -2.970292e+05  -2.599746e+06
   2.519139e+06  -2.296551e+06
   2.349588e+06   3.219070e+06
  -2.547127e+06   5.966290e+06
  -6.842946e+06   7.371303e+05
  -4.805745e+06  -7.032951e+06
   2.168820e+06  -8.361692e+06
   7.461384e+06  -2.156381e+06
   6.843636e+06   4.611280e+06
   1.744701e+06   6.059715e+06
  -3.514606e+06   2.663039e+06
  -5.245222e+06  -1.591560e+06
  -2.384613e+06  -3.500524e+06
   2.429847e+06  -2.117793e+06
   4.473032e+06   1.026944e+06
   1.871799e+06   2.739096e+06
  -1.744392e+06   1.311357e+06
  -1.734866e+06  -1.050452e+06
   1.268327e+06  -8.810685e+05
   2.361713e+06   1.732171e+06
  -6.789080e+05   3.284018e+06
  -4.569691e+06   1.706177e+06
  -5.180110e+06  -1.461081e+06
  -2.187539e+06  -3.985370e+06
   1.971198e+06  -5.232083e+06
   5.211729e+06  -4.753374e+06
   6.307127e+06  -1.567960e+06
   4.504302e+06   3.348344e+06
   7.685396e+05   6.252019e+06
  -1.949035e+06   4.744751e+06
  -1.725108e+06   1.222436e+06
  -1.417980e+05  -1.555433e+05
  -7.389675e+04   1.088246e+06
  -1.779561e+06   1.794096e+06
  -2.942310e+06   1.236905e+05
  -2.050865e+06  -2.092091e+06
   4.010983e+04  -2.257962e+06
   1.649349e+06  -2.074848e+05
   1.721430e+06   2.171408e+06
  -5.850450e+04   3.018376e+06
  -2.879526e+06   1.607360e+06
  -4.506847e+06  -1.358543e+06
  -3.121667e+06  -3.904083e+06
   1.891982e+05  -4.236470e+06
   2.366356e+06  -2.630317e+06
   2.245084e+06  -1.066123e+06
   1.837066e+06  -6.611551e+05
   2.984612e+06  -4.496264e+05
   4.407427e+06   8.439453e+05
   3.504501e+06   2.878910e+06
   6.303629e+04   4.220607e+06
  -3.358994e+06   3.939554e+06
  -4.339505e+06   2.089953e+06
  -2.729743e+06  -5.107729e+05
  -2.205835e+05  -2.328424e+06
   1.195480e+06  -1.968124e+06
   5.825455e+05   5.924598e+04
  -1.151716e+06   1.325750e+06
  -1.959073e+06   3.651805e+05
  -9.063973e+05  -1.259251e+06
   5.594065e+05  -1.142432e+06
   4.463250e+05   3.905086e+05
  -1.058393e+06   6.991293e+05
  -1.828012e+06  -1.295234e+06
  -6.133266e+05  -3.499410e+06
   1.603024e+06  -3.430074e+06
   3.155695e+06  -1.124557e+06
   3.358529e+06   1.475055e+06
   2.327025e+06   2.842907e+06
   4.467915e+05   2.693495e+06
  -1.304896e+06   1.489947e+06
  -1.634800e+06   2.053401e+05
  -5.058238e+05  -5.617145e+04
   3.543565e+05   7.789613e+05
  -4.513899e+05   1.360563e+06
  -1.963492e+06   5.475664e+05
  -2.060102e+06  -9.481076e+05
  -3.654708e+05  -1.452818e+06
   1.211284e+06  -5.649670e+05
   9.110891e+05   4.764484e+05
  -8.647991e+05   5.229921e+05
  -2.227695e+06  -3.464995e+05
  -1.782793e+06  -1.406428e+06
   2.710171e+05  -2.021205e+06
   2.395609e+06  -1.667834e+06
   2.856728e+06  -2.337269e+05
   1.222534e+06   1.323059e+06
  -9.802154e+05   1.519113e+06
  -1.605005e+06   1.545251e+05
  -1.778741e+05  -1.118240e+06
   1.576369e+06  -7.266094e+05
   1.749830e+06   8.345846e+05
   3.186506e+05   1.698406e+06
  -1.130666e+06   9.811883e+05
  -1.278608e+06  -3.382257e+05
  -2.374430e+05  -7.999522e+05
   8.176807e+05  -3.637590e+04
   7.365114e+05   1.101212e+06
  -6.228849e+05   1.458573e+06
  -2.082743e+06   5.212001e+05
  -2.078851e+06  -1.122754e+06
  -3.544572e+05  -2.144657e+06
   1.514164e+06  -1.661431e+06
   1.778477e+06  -1.827171e+05
   4.995530e+05   9.005156e+05
  -6.913096e+05   8.135991e+05
  -6.565159e+05   7.165356e+04
   1.181431e+05  -3.679992e+05
   5.029794e+05  -2.164804e+05
   1.329314e+05   5.508797e+04
  -4.437947e+05  -9.126863e+04
  -5.106571e+05  -6.937084e+05
   2.351953e+05  -1.210006e+06
   1.437920e+06  -8.934060e+05
   2.135023e+06   4.657834e+05
   1.471970e+06   2.030266e+06
  -2.662816e+05   2.490793e+06
  -1.683172e+06   1.427894e+06
  -1.734113e+06  -1.528080e+05
  -8.760939e+05  -9.300823e+05
  -3.321893e+05  -6.784689e+05
  -4.951630e+05  -2.464323e+05
  -6.330403e+05  -3.436871e+05
  -7.205304e+04  -7.883364e+05
   9.165239e+05  -9.082439e+05
   1.492133e+06  -3.105064e+05
   1.070867e+06   7.560165e+05
  -2.749796e+05   1.495160e+06
  -1.787090e+06   1.074613e+06
  -2.305125e+06  -5.357828e+05
  -1.127701e+06  -2.178627e+06
   1.083340e+06  -2.409592e+06
   2.631026e+06  -1.009645e+06
   2.400840e+06   7.173981e+05
   9.612651e+05   1.384262e+06
  -2.181303e+05   9.653266e+05
  -4.019339e+05   5.275701e+05
  -9.814305e+04   7.879280e+05
  -1.400083e+05   1.349646e+06
  -7.200927e+05   1.311647e+06
  -1.339880e+06   3.001434e+05
  -1.359354e+06  -1.139175e+06
  -5.401512e+05  -1.963080e+06
   6.665380e+05  -1.470882e+06
   1.322731e+06   2.451673e+04
   8.095225e+05   1.334083e+06
  -4.278086e+05   1.424257e+06
  -1.196363e+06   3.894806e+05
  -8.104423e+05  -7.329192e+05
   1.525961e+05  -1.096607e+06
   5.645980e+05  -7.852983e+05
   9.060534e+04  -4.228987e+05
  -4.428910e+05  -3.555755e+05
  -5.601076e+04  -3.972741e+05
   1.185615e+06  -1.920801e+05
   2.117237e+06   3.844064e+05
   1.643888e+06   1.097090e+06
  -6.985445e+04   1.471187e+06
  -1.660212e+06   1.139143e+06
  -1.887276e+06   2.502008e+05
  -8.410404e+05  -5.221545e+05
   2.834385e+05  -5.783882e+05
   5.243126e+05  -2.294382e+04
   1.939122e+04   4.378297e+05
  -4.618482e+05   2.620987e+05
  -4.911001e+05  -3.614761e+05
  -2.530728e+05  -7.554511e+05
  -9.341121e+04  -5.015923e+05
  -1.383047e+05   9.462836e+04
  -2.854310e+05   2.998633e+05
  -2.786667e+05  -2.430881e+05
   1.585618e+05  -1.016722e+06
   9.458410e+05  -1.084156e+06
   1.414595e+06  -1.526096e+05
   8.676146e+05   9.641542e+05
  -4.525001e+05   1.171054e+06
  -1.310933e+06   3.268869e+05
  -7.502716e+05  -6.021348e+05
   7.342875e+05  -6.541087e+05
   1.629773e+06   1.252740e+05
   1.014023e+06   8.991543e+05
  -5.149741e+05   1.000506e+06
  -1.542009e+06   4.624371e+05
  -1.257826e+06  -2.156330e+05
  -1.283126e+05  -5.274273e+05
   6.716963e+05  -2.629225e+05
   3.915719e+05   3.138371e+05
  -6.114397e+05   5.370592e+05
  -1.225878e+06  -9.521391e+04
  -6.868241e+05  -1.231666e+06
   6.250752e+05  -1.760973e+06
   1.543942e+06  -9.048848e+05
   1.290151e+06   7.953654e+05
   1.883495e+05   1.851289e+06
  -7.782159e+05   1.320714e+06
  -9.462014e+05  -2.006675e+05
  -4.202653e+05  -1.232692e+06
   2.468685e+05  -9.854894e+05
   5.818332e+05  -7.265520e+04
   4.692642e+05   3.899934e+05
   1.598367e+05   1.364156e+05
   5.334978e+04  -9.307688e+04
   2.941911e+05   3.219946e+05
   5.165250e+05   1.009863e+06
   1.723203e+05   1.107779e+06
  -7.549314e+05   3.889168e+05
  -1.514816e+06  -4.981546e+05
  -1.299259e+06  -8.750144e+05
  -1.791865e+05  -7.254180e+05
   8.764211e+05  -4.287336e+05
   1.012591e+06  -1.735515e+05
   3.781216e+05   7.029070e+04
  -1.491539e+05   2.346006e+05
  -4.990699e+04   1.984589e+05
   2.612538e+05   8.586665e+04
   5.734552e+04   1.398113e+05
  -6.722508e+05   2.504540e+05
  -1.086367e+06  -1.783103e+04
  -4.637753e+05  -7.324895e+05
   8.695768e+05  -1.226910e+06
   1.781206e+06  -7.752206e+05
   1.481126e+06   4.568830e+05
   2.808583e+05   1.456732e+06
  -8.121147e+05   1.420877e+06
  -1.095359e+06   5.603750e+05
  -6.775386e+05  -2.345549e+05
  -1.433698e+05  -3.751522e+05
   6.155650e+04  -8.480335e+04
  -8.552280e+04   2.088277e+03
  -2.972610e+05  -3.855248e+05
  -2.417228e+05  -8.358792e+05
   1.880356e+05  -7.071824e+05
   7.050118e+05   1.151471e+05
   7.752684e+05   9.802286e+05
   1.351576e+05   1.077914e+06
  -7.749951e+05   2.759077e+05
  -1.080095e+06  -7.351080e+05
  -3.681655e+05  -1.135122e+06
   7.431770e+05  -7.140473e+05
   1.169674e+06   8.022018e+04
   5.544313e+05   6.544099e+05
  -3.078909e+05   7.188328e+05
  -4.129057e+05   3.780688e+05
   2.396337e+05  -2.388045e+03
   6.686770e+05  -4.206859e+04
   1.557069e+05   3.253521e+05
  -8.575066e+05   6.957671e+05
  -1.318692e+06   5.330576e+05
  -8.028621e+05  -2.086055e+05
   1.046494e+05  -9.078576e+05
   5.953238e+05  -8.866130e+05
   4.652064e+05  -1.740340e+05
   6.649080e+04   4.913363e+05
  -2.488646e+05   4.618101e+05
  -3.681184e+05  -1.355371e+05
  -2.640721e+05  -5.989763e+05
   5.599062e+04  -4.602884e+05
   4.078822e+05   3.977235e+04
   4.943156e+05   3.069351e+05
   2.477073e+05   1.122586e+05
  -4.022026e+04  -1.726199e+05
  -7.737308e+04  -7.509092e+04
   4.035735e+04   3.614750e+05
  -2.234591e+04   6.004137e+05
  -3.286864e+05   2.629732e+05
  -5.049539e+05  -3.784989e+05
  -1.953143e+05  -6.776270e+05
   4.164762e+05  -3.371418e+05
   7.041126e+05   2.815234e+05
   2.739641e+05   5.895252e+05
  -5.331245e+05   3.789849e+05
  -9.282962e+05  -7.417700e+04
  -5.016660e+05  -3.932316e+05
   3.090041e+05  -4.290093e+05
   6.727191e+05  -2.520634e+05
   2.759806e+05  -1.767418e+04
  -3.411163e+05   9.228067e+04
  -4.195103e+05  -4.179123e+04
   1.529191e+05  -2.928450e+05
   7.409079e+05  -2.890968e+05
