
 $NMID
 id='ANONYMOUS ', fmtdat='(2E16.6)'
 volume=1.0
 tramp=1.0
 $END
  -4.279628e+07  -1.773565e+05
  -2.625625e+07  -2.406829e+07
   3.830135e+06  -2.788648e+07
   1.963309e+07  -1.342423e+07
   1.314523e+07   2.531034e+06
  -1.197482e+06   7.078788e+06
  -7.589745e+06   9.232764e+05
  -3.712315e+06  -6.917229e+06
   3.396849e+06  -8.661036e+06
   7.343278e+06  -2.955779e+06
   5.987842e+06   4.932548e+06
   8.801787e+05   7.456706e+06
  -3.481535e+06   2.087360e+06
  -2.730642e+06  -5.295948e+06
   2.474287e+06  -6.379496e+06
   6.315343e+06   2.575184e+05
   4.150010e+06   7.893109e+06
  -2.431773e+06   9.556637e+06
  -7.862108e+06   4.737517e+06
  -8.342608e+06  -1.927133e+06
  -4.488907e+06  -5.949807e+06
   5.888052e+04  -5.979515e+06
   1.627373e+06  -3.691012e+06
  -3.639407e+05  -2.160740e+06
  -2.305247e+06  -3.111643e+06
   1.380645e+04  -4.831469e+06
   5.792143e+06  -3.959738e+06
   9.109848e+06   9.084590e+04
   5.907711e+06   3.968031e+06
  -7.276327e+05   4.371985e+06
  -4.261262e+06   1.700406e+06
  -2.315709e+06  -1.147508e+06
   1.703101e+06  -2.008682e+06
   3.614962e+06  -4.886952e+05
   2.498112e+06   2.439376e+06
  -2.976018e+04   4.405356e+06
  -2.004726e+06   2.982123e+06
  -2.107170e+06  -9.968528e+05
  -4.652750e+05  -3.058677e+06
   8.764553e+05  -4.879040e+05
  -7.526644e+04   3.226905e+06
  -2.264630e+06   2.516781e+06
  -2.280137e+06  -2.268186e+06
   1.064390e+06  -4.710403e+06
   4.450400e+06  -9.544618e+05
   3.732210e+06   4.954341e+06
  -1.075631e+06   6.325578e+06
  -5.761829e+06   1.955420e+06
  -6.302145e+06  -3.407435e+06
  -2.380264e+06  -5.165587e+06
   2.770859e+06  -2.950465e+06
   5.078517e+06   5.926630e+05
   2.858165e+06   2.676559e+06
  -1.542655e+06   2.045321e+06
  -3.736231e+06  -3.419344e+05
  -1.873134e+06  -1.949333e+06
   1.273778e+06  -1.174597e+06
   1.799109e+06   7.062901e+05
  -4.472102e+05   1.131603e+06
  -1.976750e+06  -4.181951e+05
  -3.953579e+05  -1.944570e+06
   2.718231e+06  -1.642249e+06
   4.035674e+06   3.316295e+05
   2.146489e+06   2.787310e+06
  -1.620913e+06   4.563233e+06
  -4.846271e+06   4.357062e+06
  -5.673393e+06   1.339803e+06
  -3.783320e+06  -3.077941e+06
  -7.334975e+05  -5.588253e+06
   1.158852e+06  -4.472116e+06
   1.062892e+06  -1.778287e+06
   4.253022e+05  -6.660230e+05
   9.747594e+05  -1.370373e+06
   2.466321e+06  -1.421022e+06
   3.127316e+06   4.927014e+05
   1.923440e+06   2.642286e+06
  -3.855114e+05   2.608365e+06
  -2.145466e+06   2.300132e+05
  -2.062914e+06  -2.404659e+06
   4.648993e+04  -3.136814e+06
   2.854584e+06  -1.435387e+06
   4.100970e+06   1.434557e+06
   2.615548e+06   3.445611e+06
  -1.913647e+05   3.432575e+06
  -1.794235e+06   2.077445e+06
  -1.598539e+06   1.028609e+06
  -1.461151e+06   9.419335e+05
  -2.808622e+06   8.496885e+05
  -4.365474e+06  -3.861582e+05
  -3.689378e+06  -2.542230e+06
  -3.839970e+05  -4.229991e+06
   3.205833e+06  -4.186217e+06
   4.416544e+06  -2.201105e+06
   2.755023e+06   6.541820e+05
   4.964235e+04   2.475612e+06
  -1.353076e+06   1.945835e+06
  -5.712814e+05  -1.376618e+05
   1.180195e+06  -1.368225e+06
   1.879355e+06  -4.446132e+05
   8.358324e+05   1.176581e+06
  -5.943305e+05   1.214102e+06
  -6.664387e+05  -3.050208e+05
   6.790824e+05  -1.045147e+06
   1.839091e+06   4.825627e+05
   1.407437e+06   2.934322e+06
  -5.210571e+05   3.777676e+06
  -2.716402e+06   2.107792e+06
  -3.819167e+06  -7.355588e+05
  -3.060982e+06  -2.760467e+06
  -8.157355e+05  -2.933150e+06
   1.318710e+06  -1.646251e+06
   1.724694e+06  -2.540104e+05
   5.201753e+05   2.433000e+04
  -4.200779e+05  -7.582279e+05
   2.981912e+05  -1.320156e+06
   1.802084e+06  -6.612281e+05
   2.065381e+06   6.876205e+05
   5.327848e+05   1.328491e+06
  -1.143260e+06   6.982370e+05
  -1.073489e+06  -3.876551e+05
   7.315982e+05  -7.764286e+05
   2.425650e+06  -6.692883e+04
   2.214582e+06   1.262787e+06
   4.576265e+04   2.261134e+06
  -2.333910e+06   2.031855e+06
  -2.920244e+06   4.919445e+05
  -1.311811e+06  -1.190593e+06
   8.507940e+05  -1.489307e+06
   1.486988e+06  -2.229744e+05
   1.757439e+05   1.057686e+06
  -1.525062e+06   8.163503e+05
  -1.840687e+06  -6.569720e+05
  -5.670483e+05  -1.673086e+06
   9.591750e+05  -1.192475e+06
   1.342839e+06   9.205075e+04
   4.080238e+05   7.292951e+05
  -7.480467e+05   1.093808e+05
  -7.869407e+05  -1.049421e+06
   5.700715e+05  -1.503398e+06
   2.098275e+06  -6.254500e+05
   2.166881e+06   1.026105e+06
   5.031220e+05   2.133949e+06
  -1.375186e+06   1.785825e+06
  -1.768785e+06   3.586745e+05
  -6.216454e+05  -8.454066e+05
   6.114238e+05  -9.070939e+05
   7.363123e+05  -1.219012e+05
  -1.629513e+04   5.046863e+05
  -5.847529e+05   4.034871e+05
  -3.555856e+05  -5.661596e+04
   3.270250e+05  -1.086758e+05
   6.152340e+05   5.135630e+05
  -5.033271e+04   1.209899e+06
  -1.357809e+06   1.035954e+06
  -2.203186e+06  -3.041770e+05
  -1.632111e+06  -1.958212e+06
   9.744142e+04  -2.589631e+06
   1.624634e+06  -1.677116e+06
   1.873417e+06  -5.464202e+04
   1.122807e+06   9.629899e+05
   4.624572e+05   8.910075e+05
   4.222559e+05   3.718446e+05
   5.222039e+05   2.718462e+05
   9.672363e+04   7.097532e+05
  -8.232818e+05   1.013232e+06
  -1.522302e+06   5.034233e+05
  -1.257606e+06  -7.110739e+05
   9.165222e+04  -1.660188e+06
   1.754584e+06  -1.313760e+06
   2.441675e+06   3.547902e+05
   1.374998e+06   2.115530e+06
  -8.283317e+05   2.517943e+06
  -2.525564e+06   1.287475e+06
  -2.547179e+06  -4.368716e+05
  -1.247809e+06  -1.321742e+06
   4.684350e+04  -1.134423e+06
   4.589059e+05  -7.118977e+05
   2.315474e+05  -8.187335e+05
   1.541678e+05  -1.287573e+06
   6.246314e+05  -1.301901e+06
   1.294796e+06  -3.640777e+05
   1.442721e+06   1.087799e+06
   6.727196e+05   1.981543e+06
  -5.985252e+05   1.553416e+06
  -1.364734e+06   9.136221e+04
  -9.467469e+05  -1.250595e+06
   2.512871e+05  -1.467179e+06
   1.081216e+06  -5.747959e+05
   8.477626e+05   5.327562e+05
   2.124343e+04   1.028004e+06
  -3.787274e+05   8.450388e+05
   1.568788e+03   4.898387e+05
   4.547197e+05   3.689403e+05
   6.826744e+04   4.183458e+05
  -1.148418e+06   2.905643e+05
  -2.119862e+06  -2.272587e+05
  -1.750408e+06  -9.608780e+05
  -1.090422e+05  -1.432648e+06
   1.520816e+06  -1.236966e+06
   1.869010e+06  -4.457738e+05
   9.152033e+05   3.547127e+05
  -2.103359e+05   5.505751e+05
  -4.976889e+05   1.037994e+05
  -4.594098e+03  -3.808336e+05
   4.965873e+05  -2.826965e+05
   5.132293e+05   3.420238e+05
   2.243525e+05   7.931605e+05
   4.711429e+04   5.236072e+05
   1.383552e+05  -1.680471e+05
   3.312207e+05  -4.094890e+05
   3.173653e+05   2.188289e+05
  -1.351405e+05   1.087929e+06
  -8.951236e+05   1.156249e+06
  -1.343125e+06   1.786453e+05
  -8.494724e+05  -9.468772e+05
   3.969724e+05  -1.147347e+06
   1.272915e+06  -3.284542e+05
   7.982379e+05   5.987835e+05
  -6.845656e+05   7.352979e+05
  -1.714725e+06   3.552952e+04
  -1.217432e+06  -8.172643e+05
   3.652651e+05  -1.126146e+06
   1.562250e+06  -7.080488e+05
   1.380386e+06   6.090215e+04
   2.164090e+05   5.492989e+05
  -6.568044e+05   3.572589e+05
  -3.909942e+05  -2.715198e+05
   6.404120e+05  -5.527952e+05
   1.265092e+06   8.728587e+04
   7.068193e+05   1.266835e+06
  -6.324789e+05   1.827410e+06
  -1.586250e+06   9.719635e+05
  -1.378668e+06  -7.745626e+05
  -2.998550e+05  -1.921530e+06
   7.168293e+05  -1.461733e+06
   1.001354e+06   8.870917e+04
   5.720440e+05   1.233022e+06
  -1.116718e+05   1.069657e+06
  -5.706784e+05   1.423587e+05
  -5.670778e+05  -3.802294e+05
  -2.375281e+05  -1.439816e+05
  -2.350248e+04   1.163648e+05
  -2.319236e+05  -2.813359e+05
  -5.633030e+05  -9.968945e+05
  -3.250027e+05  -1.141000e+06
   6.693070e+05  -4.551343e+05
   1.611849e+06   4.205053e+05
   1.470535e+06   8.156037e+05
   2.382795e+05   7.233348e+05
  -9.425193e+05   4.975805e+05
  -1.057593e+06   2.689602e+05
  -3.395422e+05  -1.769965e+04
   1.647523e+05  -2.478038e+05
  -3.730154e+04  -2.372935e+05
  -3.573344e+05  -1.071622e+05
  -3.743351e+04  -1.491194e+05
   7.669472e+05  -2.762778e+05
   1.115835e+06  -1.788210e+04
   4.042854e+05   7.296369e+05
  -9.091670e+05   1.275959e+06
  -1.750327e+06   8.354440e+05
  -1.462777e+06  -4.454721e+05
  -3.395227e+05  -1.505889e+06
   7.437985e+05  -1.482962e+06
   1.104718e+06  -5.844425e+05
   7.277229e+05   2.480124e+05
   1.344605e+05   3.817691e+05
  -1.304696e+05   5.216955e+04
   5.786513e+04  -5.636091e+04
   3.610560e+05   3.549808e+05
   3.251968e+05   8.462373e+05
  -1.741066e+05   7.250157e+05
  -7.541013e+05  -1.321736e+05
  -8.109039e+05  -1.027078e+06
  -1.105919e+05  -1.106173e+06
   8.386924e+05  -2.569815e+05
   1.135005e+06   7.738489e+05
   3.882489e+05   1.154272e+06
  -7.489593e+05   7.210317e+05
  -1.177110e+06  -4.919595e+04
  -5.578827e+05  -6.017129e+05
   2.835784e+05  -6.899347e+05
   3.484432e+05  -3.888046e+05
  -3.162279e+05  -4.288768e+03
  -7.067915e+05   6.794617e+04
  -1.526482e+05  -3.175448e+05
   8.489871e+05  -7.707397e+05
   1.271977e+06  -6.610834e+05
   7.673388e+05   1.294099e+05
  -7.126496e+04   9.163580e+05
  -5.146932e+05   9.115086e+05
  -4.101694e+05   1.476037e+05
  -6.044113e+04  -5.350724e+05
   2.506039e+05  -4.540499e+05
   3.966183e+05   1.808610e+05
   2.925583e+05   6.086782e+05
  -5.727315e+04   4.248974e+05
  -4.230684e+05  -4.782995e+04
  -4.997653e+05  -2.531842e+05
  -2.565890e+05  -6.643876e+04
   1.468226e+04   1.324020e+05
   7.230176e+04  -2.342014e+04
   2.021250e+04  -4.185213e+05
   1.195326e+05  -5.672459e+05
   3.761794e+05  -1.814227e+05
   4.667834e+05   4.467262e+05
   1.278079e+05   7.109431e+05
  -4.478501e+05   3.408998e+05
  -7.038188e+05  -3.020250e+05
  -2.818385e+05  -6.233294e+05
   5.153200e+05  -4.052328e+05
   9.284992e+05   6.431040e+04
   5.181958e+05   3.859084e+05
  -3.037642e+05   4.117013e+05
  -6.721292e+05   2.338940e+05
  -2.375359e+05   1.633766e+04
   4.194981e+05  -6.909297e+04
   4.682246e+05   8.889129e+04
  -1.946196e+05   3.555703e+05
  -8.413124e+05   3.393663e+05
