
 $NMID
 id='ANONYMOUS ', fmtdat='(2E16.6)'
 volume=1.0
 tramp=1.0
 $END
  -2.316092e+07  -3.887591e+05
  -1.362429e+07  -1.460850e+07
   3.380151e+06  -1.560022e+07
   1.141861e+07  -5.762989e+06
   6.656799e+06   3.030700e+06
  -1.446970e+06   3.784865e+06
  -3.990740e+06  -5.992046e+05
  -1.036847e+06  -4.009868e+06
   2.602064e+06  -3.741722e+06
   3.949959e+06  -7.303917e+05
   2.825931e+06   2.578661e+06
   2.925693e+05   3.520202e+06
  -1.651356e+06   1.111012e+06
  -1.056791e+06  -2.218454e+06
   1.569948e+06  -2.633264e+06
   3.205658e+06   6.098911e+05
   1.746217e+06   4.207417e+06
  -1.630389e+06   4.804972e+06
  -4.186031e+06   2.359913e+06
  -4.436312e+06  -9.065211e+05
  -2.688778e+06  -3.129633e+06
  -2.257803e+05  -3.584397e+06
   1.267411e+06  -2.474591e+06
   8.099502e+05  -1.056958e+06
  -4.459863e+05  -8.375411e+05
  -1.162580e+05  -1.693873e+06
   2.207702e+06  -1.797130e+06
   3.955306e+06  -1.868607e+05
   2.878175e+06   1.717395e+06
   9.809882e+04   2.093726e+06
  -1.526487e+06   1.068655e+06
  -1.035136e+06   1.914395e+04
   2.069572e+05  -3.871859e+05
   9.072952e+05  -2.255394e+05
   9.094437e+05   5.631108e+05
   3.000243e+05   1.609924e+06
  -7.541624e+05   1.586306e+06
  -1.354010e+06  -5.538682e+04
  -7.002551e+05  -1.518709e+06
   3.473263e+05  -8.083450e+05
   1.592099e+05   9.981533e+05
  -1.004610e+06   9.277015e+05
  -9.754338e+05  -1.323411e+06
   1.050270e+06  -2.488653e+06
   2.872885e+06  -3.508574e+05
   2.054052e+06   2.889949e+06
  -8.524257e+05   3.487675e+06
  -3.065432e+06   9.446726e+05
  -2.813073e+06  -1.855763e+06
  -7.149939e+05  -2.464916e+06
   1.428571e+06  -1.080937e+06
   2.125598e+06   6.509341e+05
   9.592466e+05   1.430849e+06
  -1.005533e+06   8.757529e+05
  -1.844014e+06  -4.099469e+05
  -7.754696e+05  -1.126001e+06
   7.134204e+05  -5.492165e+05
   7.004153e+05   4.260535e+05
  -5.494053e+05   3.519890e+05
  -9.880455e+05  -7.486257e+05
   3.009147e+05  -1.403184e+06
   1.922359e+06  -7.333015e+05
   2.157193e+06   6.021297e+05
   9.165473e+05   1.646272e+06
  -7.622272e+05   2.150391e+06
  -2.064570e+06   1.969864e+06
  -2.545800e+06   6.962829e+05
  -1.873334e+06  -1.313963e+06
  -3.650038e+05  -2.532992e+06
   7.850594e+05  -1.934003e+06
   7.216335e+05  -4.741046e+05
   4.565813e+04   1.106808e+05
  -3.098672e+04  -4.145506e+05
   6.543502e+05  -7.505415e+05
   1.161396e+06  -1.092588e+05
   8.421615e+05   7.862541e+05
   2.151146e+04   8.805929e+05
  -6.283561e+05   9.283724e+04
  -6.849548e+05  -8.417653e+05
  -5.027385e+02  -1.200441e+06
   1.138625e+06  -6.770555e+05
   1.837268e+06   4.991703e+05
   1.313286e+06   1.559877e+06
  -3.611588e+04   1.743460e+06
  -9.555704e+05   1.107369e+06
  -9.271948e+05   4.506657e+05
  -7.529624e+05   2.649961e+05
  -1.202376e+06   1.817409e+05
  -1.774499e+06  -3.278956e+05
  -1.416247e+06  -1.143138e+06
  -4.118387e+04  -1.688418e+06
   1.320992e+06  -1.589531e+06
   1.714059e+06  -8.649150e+05
   1.093575e+06   1.731022e+05
   1.169429e+05   9.196309e+05
  -4.520766e+05   7.975433e+05
  -2.335479e+05  -1.398427e+04
   4.479865e+05  -5.369339e+05
   7.852770e+05  -1.580595e+05
   3.775006e+05   5.003795e+05
  -2.122341e+05   4.569491e+05
  -1.688669e+05  -1.585480e+05
   4.416422e+05  -2.695817e+05
   7.450849e+05   5.511261e+05
   2.301447e+05   1.431847e+06
  -6.783050e+05   1.369905e+06
  -1.283640e+06   4.199719e+05
  -1.331990e+06  -6.080384e+05
  -9.113318e+05  -1.126139e+06
  -1.780275e+05  -1.061155e+06
   5.094612e+05  -5.974514e+05
   6.469991e+05  -9.247405e+04
   2.020925e+05   2.015655e+04
  -1.443195e+05  -3.100749e+05
   1.780942e+05  -5.508757e+05
   7.906627e+05  -2.292948e+05
   8.325367e+05   3.773747e+05
   1.488966e+05   5.858929e+05
  -4.842334e+05   2.282224e+05
  -3.588673e+05  -1.890607e+05
   3.508507e+05  -2.018185e+05
   8.841418e+05   1.457541e+05
   6.997122e+05   5.584117e+05
  -1.116364e+05   7.979106e+05
  -9.496642e+05   6.656029e+05
  -1.137997e+06   1.016508e+05
  -4.952963e+05  -5.271149e+05
   3.867768e+05  -6.180016e+05
   6.477813e+05  -7.174335e+04
   8.083405e+04   4.491452e+05
  -6.277639e+05   2.985350e+05
  -7.021218e+05  -3.301418e+05
  -1.269722e+05  -6.791721e+05
   4.550881e+05  -3.900356e+05
   5.113868e+05   1.394862e+05
   9.175443e+04   3.227740e+05
  -3.311207e+05   1.712387e+04
  -3.007576e+05  -4.377140e+05
   2.405402e+05  -5.860306e+05
   8.282744e+05  -2.193445e+05
   8.359358e+05   4.379771e+05
   1.508008e+05   8.560947e+05
  -6.005295e+05   6.703322e+05
  -7.110954e+05   7.758172e+04
  -2.003019e+05  -3.596655e+05
   2.747912e+05  -3.258390e+05
   2.572987e+05  -3.074807e+04
  -5.105720e+04   1.404121e+05
  -1.954684e+05   7.908212e+04
  -4.030276e+04  -2.204453e+04
   1.863229e+05   4.412741e+04
   2.047540e+05   2.845309e+05
  -9.504286e+04   4.869113e+05
  -5.732202e+05   3.611960e+05
  -8.545392e+05  -1.785396e+05
  -5.964131e+05  -8.048678e+05
   9.626925e+04  -9.933568e+05
   6.659327e+05  -5.705847e+05
   6.875637e+05   5.962452e+04
   3.434159e+05   3.638753e+05
   1.298536e+05   2.565813e+05
   2.038899e+05   8.668124e+04
   2.630190e+05   1.360216e+05
   3.428889e+04   3.196257e+05
  -3.651621e+05   3.652029e+05
  -5.935257e+05   1.249765e+05
  -4.238242e+05  -2.971741e+05
   1.092903e+05  -5.914859e+05
   7.090418e+05  -4.306064e+05
   9.192096e+05   2.066053e+05
   4.546882e+05   8.669355e+05
  -4.289883e+05   9.674631e+05
  -1.051478e+06   4.096312e+05
  -9.587861e+05  -2.843166e+05
  -3.792217e+05  -5.506746e+05
   9.019127e+04  -3.786337e+05
   1.538467e+05  -2.031283e+05
   2.490350e+04  -3.135132e+05
   4.361790e+04  -5.446051e+05
   2.827147e+05  -5.316275e+05
   5.363801e+05  -1.275957e+05
   5.484369e+05   4.477663e+05
   2.243814e+05   7.801708e+05
  -2.587792e+05   5.892210e+05
  -5.272490e+05  -5.917928e+03
  -3.270590e+05  -5.324633e+05
   1.699808e+05  -5.714586e+05
   4.829724e+05  -1.551962e+05
   3.289337e+05   2.985282e+05
  -6.197915e+04   4.447687e+05
  -2.306623e+05   3.160542e+05
  -3.849971e+04   1.663082e+05
   1.793951e+05   1.378200e+05
   2.490080e+04   1.572887e+05
  -4.753466e+05   8.100253e+04
  -8.506764e+05  -1.455634e+05
  -6.609127e+05  -4.337738e+05
   2.625155e+04  -5.921146e+05
   6.633555e+05  -4.642124e+05
   7.547322e+05  -1.041969e+05
   3.370380e+05   2.121669e+05
  -1.128072e+05   2.357059e+05
  -2.114953e+05   8.835832e+03
  -1.257066e+04  -1.783595e+05
   1.805686e+05  -1.073761e+05
   1.982594e+05   1.417382e+05
   1.091196e+05   2.977224e+05
   4.423198e+04   1.983469e+05
   5.487624e+04  -3.464308e+04
   1.094682e+05  -1.155538e+05
   1.113129e+05   9.662880e+04
  -5.671371e+04   4.039471e+05
  -3.727460e+05   4.374528e+05
  -5.690177e+05   7.151471e+04
  -3.562405e+05  -3.794436e+05
   1.744950e+05  -4.738695e+05
   5.239719e+05  -1.417558e+05
   3.023054e+05   2.350152e+05
  -2.915873e+05   2.631545e+05
  -6.486077e+05  -4.647880e+04
  -4.013378e+05  -3.569988e+05
   2.071410e+05  -3.976729e+05
   6.128290e+05  -1.830775e+05
   4.982878e+05   8.555869e+04
   5.035941e+04   2.089766e+05
  -2.677753e+05   1.051729e+05
  -1.594314e+05  -1.248083e+05
   2.384613e+05  -2.188368e+05
   4.888397e+05   2.853555e+04
   2.836484e+05   4.849449e+05
  -2.351930e+05   7.056256e+05
  -6.078073e+05   3.706693e+05
  -5.175246e+05  -3.090063e+05
  -8.383234e+04  -7.352562e+05
   3.045565e+05  -5.266336e+05
   3.773506e+05   7.932091e+04
   1.692942e+05   4.902285e+05
  -9.900916e+04   3.917921e+05
  -2.331108e+05   2.975972e+04
  -1.851382e+05  -1.531041e+05
  -6.037253e+04  -5.310913e+04
  -2.243607e+04   3.640521e+04
  -1.242540e+05  -1.285313e+05
  -2.122854e+05  -4.006223e+05
  -6.888938e+04  -4.403261e+05
   3.041413e+05  -1.582552e+05
   6.046272e+05   1.916864e+05
   5.170297e+05   3.434612e+05
   7.420090e+04   2.890768e+05
  -3.433491e+05   1.744288e+05
  -4.013226e+05   7.196854e+04
  -1.543805e+05  -2.795642e+04
   5.681363e+04  -9.423335e+04
   2.367628e+04  -7.785028e+04
  -9.937823e+04  -3.131685e+04
  -2.523595e+04  -5.482452e+04
   2.612816e+05  -1.038448e+05
   4.331028e+05   3.523770e+02
   1.951969e+05   2.890754e+05
  -3.354521e+05   4.949400e+05
  -7.081621e+05   3.214821e+05
  -5.974546e+05  -1.710229e+05
  -1.207832e+05  -5.776987e+05
   3.173878e+05  -5.717317e+05
   4.330611e+05  -2.318038e+05
   2.699244e+05   8.760497e+04
   6.096502e+04   1.484509e+05
  -1.966386e+04   3.609932e+04
   3.607923e+04   1.587646e+03
   1.184251e+05   1.538441e+05
   9.860117e+04   3.320793e+05
  -7.023908e+04   2.834265e+05
  -2.799559e+05  -3.938252e+04
  -3.159548e+05  -3.829873e+05
  -6.441027e+04  -4.282603e+05
   3.038157e+05  -1.177041e+05
   4.347487e+05   2.829565e+05
   1.554636e+05   4.499487e+05
  -2.910256e+05   2.913981e+05
  -4.682605e+05  -2.423538e+04
  -2.272457e+05  -2.603447e+05
   1.185286e+05  -2.919493e+05
   1.659354e+05  -1.542835e+05
  -9.123420e+04   3.052903e+03
  -2.649744e+05   2.069553e+04
  -6.521975e+04  -1.293132e+05
   3.380425e+05  -2.810207e+05
   5.263917e+05  -2.167558e+05
   3.253619e+05   8.134789e+04
  -3.632215e+04   3.636668e+05
  -2.356855e+05   3.584779e+05
  -1.878401e+05   7.531000e+04
  -3.088263e+04  -1.933536e+05
   9.557020e+04  -1.872768e+05
   1.465010e+05   4.854991e+04
   1.088862e+05   2.369448e+05
  -1.833782e+04   1.867128e+05
  -1.625509e+05  -1.208706e+04
  -2.001924e+05  -1.219006e+05
  -9.968530e+04  -4.562016e+04
   1.921958e+04   7.102204e+04
   3.228511e+04   3.527431e+04
  -2.255335e+04  -1.405958e+05
  -2.029902e+03  -2.419577e+05
   1.261089e+05  -1.126332e+05
   2.071625e+05   1.429526e+05
   8.769285e+04   2.671717e+05
  -1.619304e+05   1.379886e+05
  -2.839520e+05  -1.055206e+05
  -1.138976e+05  -2.315565e+05
   2.112856e+05  -1.545518e+05
   3.719945e+05   2.252790e+04
   2.029984e+05   1.536275e+05
  -1.202730e+05   1.752486e+05
  -2.669597e+05   1.075366e+05
  -1.125516e+05   9.618677e+03
   1.308855e+05  -4.082306e+04
   1.650455e+05   1.059115e+04
  -5.648590e+04   1.144850e+05
  -2.881583e+05   1.184012e+05
