
 $NMID
 id='ANONYMOUS ', fmtdat='(2E16.6)'
 volume=1.0
 tramp=1.0
 $END
  -2.997380e+07   1.330974e+06
  -2.096296e+07  -1.333045e+07
  -9.091894e+05  -1.926021e+07
   1.271050e+07  -1.333432e+07
   1.119204e+07  -1.638605e+06
   9.217835e+05   5.549707e+06
  -6.204789e+06   2.984194e+06
  -4.895203e+06  -4.810159e+06
   1.219182e+06  -8.532074e+06
   5.654194e+06  -3.979965e+06
   5.059961e+06   3.766272e+06
   8.085764e+05   6.350822e+06
  -2.875090e+06   1.407830e+06
  -2.461707e+06  -5.240021e+06
   1.640129e+06  -6.328366e+06
   5.136667e+06  -7.834482e+05
   4.036248e+06   5.858773e+06
  -1.083442e+06   7.653865e+06
  -5.644509e+06   3.829876e+06
  -5.916391e+06  -1.505492e+06
  -2.647432e+06  -4.071034e+06
   2.337006e+05  -3.277343e+06
  -4.263955e+04  -1.858593e+06
  -2.306423e+06  -2.365108e+06
  -2.787078e+06  -4.375906e+06
   7.527869e+05  -5.187560e+06
   6.088014e+06  -2.997810e+06
   8.206923e+06   9.902503e+05
   4.574439e+06   3.737949e+06
  -1.612982e+06   3.308154e+06
  -4.451856e+06   4.642772e+05
  -1.679283e+06  -2.216015e+06
   3.066997e+06  -2.424734e+06
   4.697877e+06   1.731858e+05
   2.219150e+06   3.490923e+06
  -1.078474e+06   4.461991e+06
  -2.035457e+06   1.959714e+06
  -7.351509e+05  -1.517351e+06
   6.304052e+05  -2.117085e+06
   5.176666e+05   8.482267e+05
  -8.760152e+05   3.666318e+06
  -2.257321e+06   2.553780e+06
  -2.225479e+06  -1.499555e+06
  -2.929788e+05  -3.726021e+06
   2.224790e+06  -1.389534e+06
   2.758295e+06   2.922256e+06
  -2.327795e+04   4.463973e+06
  -4.152858e+06   1.677381e+06
  -5.696772e+06  -2.601246e+06
  -2.733750e+06  -4.594424e+06
   2.344484e+06  -3.128185e+06
   5.042204e+06   2.560339e+04
   3.242445e+06   2.215031e+06
  -8.299112e+05   2.037949e+06
  -3.117456e+06   1.855483e+05
  -1.876851e+06  -1.324777e+06
   8.703421e+05  -1.035794e+06
   1.857499e+06   5.397540e+05
   1.790432e+05   1.529123e+06
  -1.884372e+06   7.737690e+05
  -1.598382e+06  -9.487802e+05
   1.026312e+06  -1.804742e+06
   3.138196e+06  -7.055190e+05
   2.142828e+06   1.767399e+06
  -1.475751e+06   3.793618e+06
  -4.683120e+06   3.576168e+06
  -5.022354e+06   7.725461e+05
  -2.830306e+06  -2.903131e+06
  -3.753952e+05  -4.908523e+06
   7.000069e+05  -4.238291e+06
   7.103571e+05  -2.358585e+06
   9.605165e+05  -1.327827e+06
   2.011175e+06  -1.295774e+06
   3.106154e+06  -6.460673e+05
   3.046056e+06   1.394072e+06
   1.393328e+06   3.257531e+06
  -1.030062e+06   2.774284e+06
  -2.610141e+06  -7.087073e+04
  -2.082898e+06  -2.856901e+06
   3.394078e+05  -3.194890e+06
   2.861022e+06  -1.003423e+06
   3.495619e+06   1.732049e+06
   1.905922e+06   3.039739e+06
  -2.765136e+05   2.584796e+06
  -1.248906e+06   1.506167e+06
  -1.029792e+06   1.006168e+06
  -1.230887e+06   1.166726e+06
  -2.770316e+06   1.021008e+06
  -4.336228e+06  -3.082451e+05
  -3.669773e+06  -2.544043e+06
  -3.148290e+05  -4.283262e+06
   3.431425e+06  -4.111668e+06
   4.633433e+06  -1.864875e+06
   2.636437e+06   1.027089e+06
  -3.692856e+05   2.533043e+06
  -1.644536e+06   1.730361e+06
  -5.181395e+05  -2.586815e+05
   1.318190e+06  -1.275335e+06
   1.831096e+06  -3.692820e+05
   6.725778e+05   1.132228e+06
  -7.439673e+05   1.200257e+06
  -8.626557e+05  -3.355041e+05
   4.874138e+05  -1.400416e+06
   1.991833e+06  -1.411832e+05
   2.037511e+06   2.674178e+06
   1.031238e+05   4.284518e+06
  -2.691000e+06   2.891913e+06
  -4.323492e+06  -4.679469e+05
  -3.490986e+06  -3.092490e+06
  -8.365339e+05  -3.279209e+06
   1.492623e+06  -1.648504e+06
   1.814990e+06  -1.220254e+05
   5.306765e+05   4.262014e+04
  -4.154379e+05  -7.796159e+05
   2.508955e+05  -1.273833e+06
   1.704692e+06  -6.443868e+05
   2.043998e+06   6.086149e+05
   6.001377e+05   1.278490e+06
  -1.156005e+06   7.327532e+05
  -1.201552e+06  -4.331336e+05
   7.254351e+05  -9.788694e+05
   2.688524e+06  -1.997503e+05
   2.518278e+06   1.409486e+06
   8.867070e+04   2.539409e+06
  -2.506869e+06   2.158545e+06
  -3.040899e+06   4.595612e+05
  -1.305246e+06  -1.181167e+06
   8.344889e+05  -1.394926e+06
   1.385901e+06  -1.856523e+05
   9.423457e+04   9.968714e+05
  -1.544824e+06   7.691117e+05
  -1.885660e+06  -6.601379e+05
  -6.555574e+05  -1.735222e+06
   9.389054e+05  -1.335756e+06
   1.438704e+06  -1.045105e+04
   5.191498e+05   7.310162e+05
  -6.985431e+05   1.318278e+05
  -7.456613e+05  -1.063372e+06
   6.510770e+05  -1.485656e+06
   2.158454e+06  -5.290964e+05
   2.150129e+06   1.126789e+06
   4.541221e+05   2.169545e+06
  -1.406447e+06   1.790728e+06
  -1.806215e+06   3.687963e+05
  -6.679666e+05  -8.652054e+05
   6.289933e+05  -9.489944e+05
   8.246212e+05  -8.195435e+04
   1.682280e+03   6.536768e+05
  -7.379181e+05   5.041354e+05
  -5.582107e+05  -1.468287e+05
   2.711606e+05  -3.016367e+05
   7.078959e+05   4.121072e+05
   2.346113e+04   1.232807e+06
  -1.384240e+06   1.058078e+06
  -2.246179e+06  -3.527403e+05
  -1.606166e+06  -2.038513e+06
   1.850949e+05  -2.674721e+06
   1.751831e+06  -1.760293e+06
   2.033227e+06  -5.238157e+04
   1.245997e+06   1.140405e+06
   4.444078e+05   1.153076e+06
   2.790791e+05   5.019996e+05
   4.025293e+05   2.132976e+05
   7.859398e+04   6.360854e+05
  -8.341618e+05   1.049016e+06
  -1.618226e+06   5.400302e+05
  -1.364328e+06  -8.129421e+05
   1.015541e+05  -1.829162e+06
   1.869150e+06  -1.376522e+06
   2.546559e+06   4.226684e+05
   1.421207e+06   2.202844e+06
  -8.165715e+05   2.573725e+06
  -2.565779e+06   1.339971e+06
  -2.679195e+06  -4.207434e+05
  -1.401922e+06  -1.423450e+06
   2.569716e+04  -1.317945e+06
   6.162438e+05  -8.206350e+05
   4.343349e+05  -7.778065e+05
   2.600918e+05  -1.187939e+06
   6.324732e+05  -1.240681e+06
   1.277291e+06  -3.186013e+05
   1.416335e+06   1.166665e+06
   6.109437e+05   2.057872e+06
  -6.796765e+05   1.571201e+06
  -1.419898e+06   7.108380e+04
  -9.754410e+05  -1.267340e+06
   2.164835e+05  -1.507778e+06
   1.051358e+06  -6.792816e+05
   8.760942e+05   4.149635e+05
   1.168004e+05   9.925456e+05
  -2.832596e+05   9.045050e+05
   2.915071e+04   5.701298e+05
   4.221465e+05   4.173276e+05
   3.700092e+04   4.398605e+05
  -1.143503e+06   2.903591e+05
  -2.106771e+06  -2.565172e+05
  -1.774611e+06  -9.933491e+05
  -1.648986e+05  -1.428010e+06
   1.493553e+06  -1.214530e+06
   1.909456e+06  -4.679352e+05
   9.843405e+05   2.874667e+05
  -1.766249e+05   5.155109e+05
  -4.939312e+05   1.435076e+05
   2.720990e+04  -3.153452e+05
   5.506389e+05  -2.445088e+05
   5.004502e+05   3.675615e+05
   1.137713e+05   8.262503e+05
  -4.945897e+04   5.266779e+05
   1.700576e+05  -2.232917e+05
   4.339989e+05  -4.663436e+05
   3.365661e+05   2.289340e+05
  -2.230854e+05   1.130808e+06
  -9.494826e+05   1.141027e+06
  -1.272843e+06   1.040397e+05
  -7.396409e+05  -9.815520e+05
   4.292857e+05  -1.084594e+06
   1.242096e+06  -2.242042e+05
   7.786321e+05   6.667089e+05
  -7.101124e+05   7.537583e+05
  -1.811366e+06   1.736271e+04
  -1.341440e+06  -8.843422e+05
   3.466825e+05  -1.234761e+06
   1.680978e+06  -7.896679e+05
   1.509365e+06   6.424308e+04
   2.433740e+05   6.029056e+05
  -6.872935e+05   3.883493e+05
  -3.715201e+05  -2.598700e+05
   7.086561e+05  -4.947512e+05
   1.274427e+06   1.981691e+05
   5.939980e+05   1.344140e+06
  -8.043181e+05   1.801005e+06
  -1.700204e+06   8.695866e+05
  -1.376784e+06  -8.839434e+05
  -2.156881e+05  -2.009927e+06
   8.097756e+05  -1.524727e+06
   1.058676e+06   8.145964e+04
   6.003012e+05   1.301637e+06
  -9.551480e+04   1.158063e+06
  -5.809385e+05   1.603761e+05
  -6.203285e+05  -4.396030e+05
  -2.932059e+05  -1.903799e+05
  -1.098044e+04   1.425937e+05
  -1.548576e+05  -2.404199e+05
  -5.150970e+05  -1.027885e+06
  -3.574233e+05  -1.221811e+06
   6.325876e+05  -4.756364e+05
   1.660102e+06   5.044381e+05
   1.553294e+06   9.176956e+05
   2.285482e+05   7.447544e+05
  -1.050342e+06   4.548268e+05
  -1.130612e+06   2.516815e+05
  -3.091522e+05   1.415746e+04
   2.018207e+05  -2.373599e+05
  -8.898301e+04  -2.970090e+05
  -4.278839e+05  -1.825757e+05
  -2.433942e+03  -1.531497e+05
   8.745384e+05  -2.039361e+05
   1.135067e+06   5.274764e+04
   2.776254e+05   7.323877e+05
  -1.054307e+06   1.210209e+06
  -1.777517e+06   7.348149e+05
  -1.383016e+06  -5.479533e+05
  -2.458428e+05  -1.570775e+06
   8.098900e+05  -1.469647e+06
   1.150587e+06  -4.988574e+05
   7.375037e+05   3.328944e+05
   8.879066e+04   3.903891e+05
  -1.896935e+05  -1.002114e+04
   4.995745e+04  -1.098567e+05
   3.932495e+05   3.678490e+05
   3.232643e+05   8.917075e+05
  -2.252341e+05   7.177545e+05
  -7.714416e+05  -2.246797e+05
  -7.286680e+05  -1.133199e+06
   1.843448e+04  -1.115993e+06
   9.015165e+05  -1.441914e+05
   1.089324e+06   9.100340e+05
   2.952883e+05   1.190572e+06
  -8.050633e+05   6.481725e+05
  -1.166938e+06  -1.223824e+05
  -5.134144e+05  -5.894277e+05
   3.068359e+05  -6.318499e+05
   3.169508e+05  -3.795545e+05
  -3.815013e+05  -5.888536e+04
  -7.432603e+05   2.000614e+04
  -1.215868e+05  -3.165888e+05
   9.124583e+05  -7.573228e+05
   1.296128e+06  -6.742922e+05
   7.296733e+05   1.079267e+05
  -1.196374e+05   9.106907e+05
  -5.137164e+05   8.961308e+05
  -3.554837e+05   9.912371e+04
   4.684764e+03  -5.707225e+05
   2.848122e+05  -4.161481e+05
   3.886227e+05   2.630310e+05
   2.591911e+05   6.399079e+05
  -8.455869e+04   3.779251e+05
  -4.235572e+05  -9.543871e+04
  -4.886018e+05  -2.418334e+05
  -2.671247e+05  -4.596599e+04
  -1.051158e+04   8.579203e+04
   9.501488e+04  -1.124619e+05
   1.296294e+05  -4.472550e+05
   2.504825e+05  -4.882594e+05
   4.082471e+05  -5.447167e+04
   3.644122e+05   5.338921e+05
  -9.783026e+03   7.224847e+05
  -5.002051e+05   2.909643e+05
  -6.589442e+05  -3.769147e+05
  -2.211177e+05  -6.708194e+05
   5.310369e+05  -3.832585e+05
   9.088626e+05   1.340487e+05
   4.931752e+05   4.211950e+05
  -3.241288e+05   3.627527e+05
  -6.745912e+05   1.541794e+05
  -1.973811e+05   4.641606e+03
   4.866329e+05   1.206873e+04
   4.858058e+05   1.862405e+05
  -2.789221e+05   3.809664e+05
  -9.652128e+05   2.811131e+05
