
 $NMID
 id='ANONYMOUS ', fmtdat='(2E16.6)'
 volume=1.0
 tramp=1.0
 $END
  -5.788997e+07   1.377768e+06
  -3.554623e+07  -3.552957e+07
   7.106051e+06  -3.957051e+07
   2.827108e+07  -1.525774e+07
   1.698209e+07   7.366026e+06
  -3.437582e+06   9.671302e+06
  -1.010772e+07  -1.386271e+06
  -2.773655e+06  -1.007414e+07
   6.407429e+06  -9.437280e+06
   9.867531e+06  -1.999811e+06
   7.203841e+06   6.160423e+06
   9.959963e+05   8.637957e+06
  -3.946487e+06   2.917804e+06
  -2.691582e+06  -5.296185e+06
   3.789363e+06  -6.540827e+06
   8.057266e+06   1.335687e+06
   4.657871e+06   1.035410e+07
  -3.689879e+06   1.209791e+07
  -1.020504e+07   6.266267e+06
  -1.113394e+07  -1.770335e+06
  -7.100365e+06  -7.480471e+06
  -1.043898e+06  -8.992370e+06
   2.961240e+06  -6.478776e+06
   2.195843e+06  -2.795362e+06
  -8.975489e+05  -1.896274e+06
  -4.074992e+05  -3.954431e+06
   5.107356e+06  -4.529919e+06
   9.567236e+06  -8.455180e+05
   7.235659e+06   3.902672e+06
   5.695390e+05   5.094010e+06
  -3.473567e+06   2.789284e+06
  -2.458535e+06   3.072395e+05
   3.540388e+05  -7.262283e+05
   1.961433e+06  -5.403698e+05
   2.131635e+06   1.151250e+06
   9.230698e+05   3.745966e+06
  -1.630534e+06   3.997314e+06
  -3.394484e+06   1.555651e+05
  -2.014570e+06  -3.635738e+06
   6.924623e+05  -2.188765e+06
   4.798056e+05   2.252240e+06
  -2.395181e+06   2.280847e+06
  -2.513665e+06  -3.254360e+06
   2.495426e+06  -6.355193e+06
   7.277743e+06  -1.179795e+06
   5.461651e+06   7.052030e+06
  -1.828482e+06   8.840965e+06
  -7.550618e+06   2.643663e+06
  -7.056644e+06  -4.401760e+06
  -1.854396e+06  -6.047499e+06
   3.486783e+06  -2.701569e+06
   5.240082e+06   1.555283e+06
   2.383651e+06   3.527450e+06
  -2.488972e+06   2.247311e+06
  -4.621935e+06  -9.092670e+05
  -1.996860e+06  -2.774152e+06
   1.739137e+06  -1.425505e+06
   1.724023e+06   1.030299e+06
  -1.444612e+06   8.978269e+05
  -2.576758e+06  -1.915047e+06
   7.072796e+05  -3.682545e+06
   4.860060e+06  -2.036396e+06
   5.484193e+06   1.394399e+06
   2.408168e+06   4.076065e+06
  -1.679115e+06   5.349443e+06
  -4.836084e+06   4.971145e+06
  -6.143091e+06   1.943229e+06
  -4.730911e+06  -3.006547e+06
  -1.117405e+06  -6.155516e+06
   1.850105e+06  -4.794820e+06
   1.841778e+06  -1.141509e+06
   1.237819e+05   4.185896e+05
  -2.390015e+05  -8.857379e+05
   1.372187e+06  -1.867997e+06
   2.705766e+06  -4.423208e+05
   2.065519e+06   1.720725e+06
   1.540681e+05   2.029271e+06
  -1.418322e+06   2.348794e+05
  -1.634790e+06  -1.949466e+06
  -8.321605e+04  -2.859887e+06
   2.671984e+06  -1.741133e+06
   4.507162e+06   1.017773e+06
   3.382867e+06   3.684544e+06
   9.882466e+04   4.318241e+06
  -2.267065e+06   2.858044e+06
  -2.294938e+06   1.199482e+06
  -1.866520e+06   6.701750e+05
  -2.924760e+06   4.720413e+05
  -4.316894e+06  -7.247275e+05
  -3.474257e+06  -2.701518e+06
  -1.733716e+05  -4.064965e+06
   3.087935e+06  -3.881206e+06
   4.038662e+06  -2.181369e+06
   2.622325e+06   3.092266e+05
   3.698591e+05   2.160764e+06
  -9.955525e+05   1.940751e+06
  -5.582377e+05  -1.844205e+03
   1.031245e+06  -1.313088e+06
   1.889854e+06  -4.310465e+05
   9.608740e+05   1.180553e+06
  -4.729901e+05   1.098093e+06
  -3.860513e+05  -3.957708e+05
   1.124307e+06  -6.470639e+05
   1.879716e+06   1.401297e+06
   5.648900e+05   3.562174e+06
  -1.725840e+06   3.348922e+06
  -3.183523e+06   9.688867e+05
  -3.211297e+06  -1.510315e+06
  -2.153696e+06  -2.692481e+06
  -4.305631e+05  -2.514869e+06
   1.183948e+06  -1.444443e+06
   1.532650e+06  -2.570812e+05
   4.858492e+05   3.924935e+04
  -3.602204e+05  -7.402785e+05
   4.079171e+05  -1.351459e+06
   1.913015e+06  -6.018660e+05
   2.041581e+06   8.853075e+05
   3.821126e+05   1.425526e+06
  -1.163808e+06   5.667212e+05
  -8.538250e+05  -4.511350e+05
   8.643678e+05  -4.769725e+05
   2.124807e+06   3.639030e+05
   1.657584e+06   1.337560e+06
  -2.752910e+05   1.902275e+06
  -2.260412e+06   1.611742e+06
  -2.727397e+06   2.832846e+05
  -1.221726e+06  -1.254334e+06
   9.001077e+05  -1.525084e+06
   1.572318e+06  -2.177432e+05
   2.325731e+05   1.081028e+06
  -1.497045e+06   7.523030e+05
  -1.705380e+06  -7.736834e+05
  -3.164958e+05  -1.639485e+06
   1.104022e+06  -9.460225e+05
   1.242412e+06   3.407361e+05
   2.209558e+05   7.900323e+05
  -8.090032e+05   5.892793e+04
  -7.496692e+05  -1.038351e+06
   5.435802e+05  -1.419505e+06
   1.973452e+06  -5.708552e+05
   2.029545e+06   1.008248e+06
   4.028372e+05   2.052873e+06
  -1.420294e+06   1.641583e+06
  -1.712512e+06   2.114740e+05
  -4.910821e+05  -8.645220e+05
   6.535177e+05  -7.921073e+05
   6.047438e+05  -7.992615e+04
  -1.373731e+05   3.243517e+05
  -4.609657e+05   1.681015e+05
  -6.098198e+04  -6.378755e+04
   4.825024e+05   1.175805e+05
   5.067256e+05   7.035363e+05
  -2.217003e+05   1.186711e+06
  -1.369557e+06   8.911476e+05
  -2.061783e+06  -3.943399e+05
  -1.469464e+06  -1.906928e+06
   1.897414e+05  -2.383834e+06
   1.579397e+06  -1.381207e+06
   1.643529e+06   1.343185e+05
   8.078323e+05   8.570184e+05
   2.952851e+05   5.784004e+05
   4.994785e+05   1.666296e+05
   6.641596e+05   3.108726e+05
   1.074665e+05   7.784413e+05
  -8.701831e+05   8.919085e+05
  -1.421011e+06   3.106182e+05
  -1.010462e+06  -6.998818e+05
   2.583599e+05  -1.410845e+06
   1.688234e+06  -1.048681e+06
   2.208803e+06   4.644046e+05
   1.119257e+06   2.070718e+06
  -1.004447e+06   2.351107e+06
  -2.525790e+06   1.022961e+06
  -2.314638e+06  -6.650031e+05
  -9.076044e+05  -1.320662e+06
   2.269795e+05  -8.977361e+05
   3.558959e+05  -4.643310e+05
   1.555108e+04  -7.398652e+05
   5.669209e+04  -1.318713e+06
   6.527200e+05  -1.304215e+06
   1.288165e+06  -3.391309e+05
   1.338694e+06   1.045886e+06
   5.742378e+05   1.859231e+06
  -5.923112e+05   1.423326e+06
  -1.265301e+06   3.992836e+03
  -8.074223e+05  -1.274695e+06
   3.962565e+05  -1.387597e+06
   1.177542e+06  -3.855701e+05
   8.182911e+05   7.265526e+05
  -1.392324e+05   1.093967e+06
  -5.638559e+05   7.775865e+05
  -9.936520e+04   3.965969e+05
   4.377630e+05   3.153679e+05
   6.822315e+04   3.725131e+05
  -1.146223e+06   2.164041e+05
  -2.060615e+06  -3.106002e+05
  -1.608940e+06  -1.019379e+06
   4.506869e+04  -1.439864e+06
   1.584832e+06  -1.156460e+06
   1.817627e+06  -2.759867e+05
   8.229232e+05   5.157797e+05
  -2.629118e+05   5.831609e+05
  -5.161487e+05   2.554564e+04
  -4.982679e+04  -4.352339e+05
   4.204208e+05  -2.654686e+05
   4.837503e+05   3.295072e+05
   2.865879e+05   6.974551e+05
   1.274193e+05   4.655752e+05
   1.337154e+05  -7.497762e+04
   2.531391e+05  -2.641673e+05
   2.693058e+05   2.297148e+05
  -1.137908e+05   9.624803e+05
  -8.735284e+05   1.068568e+06
  -1.372462e+06   2.151441e+05
  -8.872122e+05  -8.843760e+05
   3.900145e+05  -1.157082e+06
   1.252022e+06  -3.819849e+05
   7.349891e+05   5.442204e+05
  -6.927387e+05   6.429132e+05
  -1.555143e+06  -9.441128e+04
  -9.609757e+05  -8.523720e+05
   4.995495e+05  -9.581455e+05
   1.468165e+06  -4.434279e+05
   1.191004e+06   2.009525e+05
   1.205829e+05   4.993605e+05
  -6.426996e+05   2.578783e+05
  -3.946731e+05  -2.941074e+05
   5.513056e+05  -5.383934e+05
   1.168321e+06   3.505775e+04
   7.114482e+05   1.136677e+06
  -5.133605e+05   1.698355e+06
  -1.426577e+06   9.211376e+05
  -1.251093e+06  -7.108228e+05
  -2.338227e+05  -1.752247e+06
   7.096113e+05  -1.266501e+06
   9.089760e+05   1.836922e+05
   4.179917e+05   1.172421e+06
  -2.355192e+05   9.417952e+05
  -5.630602e+05   7.825569e+04
  -4.399591e+05  -3.610006e+05
  -1.354167e+05  -1.265415e+05
  -5.751679e+04   8.708854e+04
  -3.207269e+05  -3.014292e+05
  -5.325968e+05  -9.496807e+05
  -1.711642e+05  -1.055038e+06
   7.357885e+05  -3.972000e+05
   1.453325e+06   4.328655e+05
   1.241287e+06   8.052690e+05
   1.902155e+05   6.916979e+05
  -8.035313e+05   4.286070e+05
  -9.555630e+05   1.843082e+05
  -3.821355e+05  -6.151825e+04
   1.273430e+05  -2.270816e+05
   6.789511e+04  -1.877085e+05
  -2.233057e+05  -7.023037e+04
  -6.739532e+04  -1.266627e+05
   6.045327e+05  -2.584134e+05
   1.035955e+06  -2.427039e+04
   5.001181e+05   6.748900e+05
  -7.633190e+05   1.201580e+06
  -1.682652e+06   8.167437e+05
  -1.449389e+06  -3.653364e+05
  -3.206058e+05  -1.371682e+06
   7.329299e+05  -1.389176e+06
   1.020752e+06  -5.841599e+05
   6.446652e+05   1.905348e+05
   1.585399e+05   3.496163e+05
  -3.081210e+04   8.898560e+04
   9.476191e+04   8.280397e+03
   2.870580e+05   3.691011e+05
   2.471721e+05   7.924742e+05
  -1.503088e+05   6.829116e+05
  -6.650196e+05  -7.347553e+04
  -7.777915e+05  -8.888308e+05
  -1.892755e+05  -1.015711e+06
   7.077354e+05  -3.043471e+05
   1.052335e+06   6.425556e+05
   4.024144e+05   1.065200e+06
  -6.751529e+05   7.193162e+05
  -1.125424e+06  -2.812419e+04
  -5.675612e+05  -6.159316e+05
   2.641342e+05  -7.154330e+05
   3.975322e+05  -3.850000e+05
  -2.053740e+05   1.035492e+04
  -6.291299e+05   6.299048e+04
  -1.672312e+05  -3.062037e+05
   7.954927e+05  -6.876571e+05
   1.261815e+06  -5.415686e+05
   7.974163e+05   1.811507e+05
  -6.553100e+04   8.755439e+05
  -5.528822e+05   8.786157e+05
  -4.520936e+05   2.028411e+05
  -8.690599e+04  -4.536181e+05
   2.141199e+05  -4.574936e+05
   3.472822e+05   9.960417e+04
   2.737466e+05   5.601122e+05
  -2.724769e+04   4.548925e+05
  -3.876435e+05  -1.626768e+04
  -4.919031e+05  -2.863523e+05
  -2.440095e+05  -1.100010e+05
   5.835680e+04   1.738488e+05
   8.736373e+04   9.815864e+04
  -7.111789e+04  -3.219847e+05
  -4.157730e+04  -5.791931e+05
   2.806177e+05  -2.901158e+05
   5.095057e+05   3.131986e+05
   2.396329e+05   6.240235e+05
  -3.728159e+05   3.405154e+05
  -6.875979e+05  -2.279943e+05
  -2.872056e+05  -5.414576e+05
   4.995320e+05  -3.834563e+05
   8.942956e+05   2.736918e+04
   4.961743e+05   3.552218e+05
  -2.748043e+05   4.325867e+05
  -6.308636e+05   2.812212e+05
  -2.754529e+05   3.434521e+04
   2.962092e+05  -1.065966e+05
   3.854049e+05   8.192447e+03
  -1.238937e+05   2.656833e+05
  -6.685506e+05   2.909352e+05
