
 $NMID
 id='ANONYMOUS ', fmtdat='(2E16.6)'
 volume=1.0
 tramp=1.0
 $END
   5.205352e+07   8.503053e+05
   3.128112e+07   3.213500e+07
  -6.777755e+06   3.506986e+07
  -2.563074e+07   1.394120e+07
  -1.565146e+07  -6.015245e+06
   2.830336e+06  -8.705761e+06
   9.321473e+06   8.091625e+05
   2.905618e+06   9.132458e+06
  -5.717894e+06   9.111516e+06
  -9.123817e+06   2.086012e+06
  -6.513520e+06  -5.957742e+06
  -5.884595e+05  -8.213976e+06
   3.822696e+06  -2.409734e+06
   2.376198e+06   5.467012e+06
  -3.660382e+06   6.419555e+06
  -7.447945e+06  -1.184032e+06
  -4.165373e+06  -9.631824e+06
   3.597697e+06  -1.108216e+07
   9.491519e+06  -5.389640e+06
   9.954876e+06   2.136045e+06
   5.853025e+06   6.997888e+06
   4.560604e+05   7.764895e+06
  -2.483742e+06   5.389236e+06
  -1.272129e+06   2.734847e+06
   1.204663e+06   2.608999e+06
  -9.885662e+04   4.290025e+06
  -5.597300e+06   3.930791e+06
  -9.346718e+06  -3.885982e+04
  -6.478407e+06  -4.203044e+06
   1.631068e+05  -4.680148e+06
   3.819606e+06  -2.046446e+06
   2.240450e+06   3.974522e+05
  -1.084755e+06   1.043692e+06
  -2.640689e+06   2.098627e+05
  -2.067651e+06  -1.815083e+06
  -2.707383e+05  -3.944109e+06
   1.878743e+06  -3.473924e+06
   2.761921e+06   3.280068e+05
   1.264922e+06   3.343997e+06
  -6.925980e+05   1.464238e+06
  -1.328536e+04  -2.603573e+06
   2.513586e+06  -2.259727e+06
   2.350501e+06   2.991326e+06
  -2.128238e+06   5.749076e+06
  -6.237307e+06   9.983683e+05
  -4.628802e+06  -6.375807e+06
   1.771127e+06  -7.871325e+06
   6.954438e+06  -2.147946e+06
   6.643752e+06   4.360193e+06
   1.814530e+06   5.894958e+06
  -3.403404e+06   2.680501e+06
  -5.209962e+06  -1.474604e+06
  -2.466567e+06  -3.387558e+06
   2.228877e+06  -2.120287e+06
   4.289414e+06   8.622755e+05
   1.878052e+06   2.548551e+06
  -1.615545e+06   1.270548e+06
  -1.728186e+06  -1.014289e+06
   1.141557e+06  -1.013439e+06
   2.406025e+06   1.419185e+06
  -2.991779e+05   3.096268e+06
  -4.113455e+06   1.852602e+06
  -4.977519e+06  -1.129576e+06
  -2.229424e+06  -3.692906e+06
   1.875685e+06  -4.974836e+06
   5.070256e+06  -4.473716e+06
   6.022676e+06  -1.415899e+06
   4.193770e+06   3.205702e+06
   6.815218e+05   5.967845e+06
  -1.819230e+06   4.652801e+06
  -1.672876e+06   1.383322e+06
  -3.402784e+05  -2.533217e+04
  -3.511868e+05   9.580361e+05
  -1.872537e+06   1.486569e+06
  -2.797347e+06  -1.393224e+05
  -1.799296e+06  -2.193649e+06
   2.501482e+05  -2.200404e+06
   1.716997e+06  -5.575984e+04
   1.630678e+06   2.281838e+06
  -1.718104e+05   2.961386e+06
  -2.815394e+06   1.443885e+06
  -4.251013e+06  -1.399022e+06
  -2.908043e+06  -3.705558e+06
   1.570674e+05  -3.955690e+06
   2.159809e+06  -2.489961e+06
   2.078373e+06  -1.091809e+06
   1.787242e+06  -7.217014e+05
   2.966464e+06  -4.645326e+05
   4.354519e+06   8.537362e+05
   3.434413e+06   2.878307e+06
  -3.287856e+03   4.180924e+06
  -3.412496e+06   3.821233e+06
  -4.330802e+06   1.914474e+06
  -2.619100e+06  -6.165597e+05
  -7.772215e+04  -2.272876e+06
   1.250143e+06  -1.842315e+06
   5.414236e+05   9.193496e+04
  -1.179914e+06   1.255234e+06
  -1.914396e+06   3.210423e+05
  -8.398135e+05  -1.222581e+06
   6.007275e+05  -1.094753e+06
   4.781431e+05   4.244414e+05
  -1.046635e+06   7.882430e+05
  -1.900635e+06  -1.160462e+06
  -7.617079e+05  -3.465843e+06
   1.509641e+06  -3.569061e+06
   3.205881e+06  -1.286620e+06
   3.465252e+06   1.469907e+06
   2.350658e+06   2.960050e+06
   3.856179e+05   2.758761e+06
  -1.348089e+06   1.444646e+06
  -1.624991e+06   1.453195e+05
  -4.991916e+05  -6.451364e+04
   3.364271e+05   7.797075e+05
  -4.466901e+05   1.331559e+06
  -1.919380e+06   5.227021e+05
  -2.023552e+06  -9.382887e+05
  -3.615315e+05  -1.430715e+06
   1.212998e+06  -5.455561e+05
   9.200457e+05   5.127609e+05
  -8.877041e+05   5.632328e+05
  -2.286667e+06  -3.609997e+05
  -1.812605e+06  -1.481701e+06
   3.082603e+05  -2.073366e+06
   2.443934e+06  -1.639030e+06
   2.852151e+06  -1.816757e+05
   1.191760e+06   1.314371e+06
  -9.699099e+05   1.465292e+06
  -1.554275e+06   1.356802e+05
  -1.458426e+05  -1.081098e+06
   1.566392e+06  -6.844631e+05
   1.729731e+06   8.497618e+05
   3.109551e+05   1.704865e+06
  -1.137467e+06   9.924314e+05
  -1.291623e+06  -3.347560e+05
  -2.481557e+05  -8.045057e+05
   8.035777e+05  -3.292083e+04
   7.049057e+05   1.102761e+06
  -6.542609e+05   1.427200e+06
  -2.074834e+06   4.633247e+05
  -2.030921e+06  -1.156771e+06
  -3.120326e+05  -2.128075e+06
   1.521264e+06  -1.623964e+06
   1.766666e+06  -1.613846e+05
   4.897970e+05   9.021231e+05
  -7.021434e+05   8.011603e+05
  -6.648616e+05   4.026506e+04
   1.380126e+05  -4.042221e+05
   5.546349e+05  -2.163512e+05
   1.738975e+05   1.050113e+05
  -4.481052e+05  -3.576398e+04
  -5.376233e+05  -6.755672e+05
   2.261833e+05  -1.212089e+06
   1.441844e+06  -8.756618e+05
   2.115771e+06   4.983900e+05
   1.422665e+06   2.041228e+06
  -3.178115e+05   2.472879e+06
  -1.718114e+06   1.402444e+06
  -1.752315e+06  -1.843604e+05
  -8.694752e+05  -9.826399e+05
  -2.906835e+05  -7.347505e+05
  -4.397850e+05  -2.641947e+05
  -6.027118e+05  -3.187306e+05
  -7.105025e+04  -7.625356e+05
   9.207578e+05  -9.023096e+05
   1.510720e+06  -2.964438e+05
   1.073513e+06   7.944932e+05
  -3.048174e+05   1.521512e+06
  -1.816143e+06   1.053221e+06
  -2.297256e+06  -5.802439e+05
  -1.096614e+06  -2.195258e+06
   1.100553e+06  -2.389759e+06
   2.629735e+06  -9.812831e+05
   2.401914e+06   7.442284e+05
   9.631674e+05   1.420556e+06
  -2.406584e+05   1.000094e+06
  -4.532718e+05   5.276596e+05
  -1.495260e+05   7.463187e+05
  -1.659425e+05   1.297546e+06
  -7.199524e+05   1.274648e+06
  -1.319382e+06   2.746881e+05
  -1.318775e+06  -1.157003e+06
  -4.913284e+05  -1.959718e+06
   6.962098e+05  -1.443729e+06
   1.319880e+06   4.956380e+04
   7.927957e+05   1.336417e+06
  -4.338629e+05   1.419162e+06
  -1.192981e+06   4.019025e+05
  -8.157163e+05  -7.087429e+05
   1.348902e+05  -1.086839e+06
   5.513211e+05  -7.970458e+05
   9.655142e+04  -4.392418e+05
  -4.232572e+05  -3.631516e+05
  -4.338428e+04  -3.958374e+05
   1.174969e+06  -1.809782e+05
   2.088052e+06   4.053628e+05
   1.619695e+06   1.113107e+06
  -7.093879e+04   1.462193e+06
  -1.646756e+06   1.109541e+06
  -1.882439e+06   2.292606e+05
  -8.509181e+05  -5.177575e+05
   2.739902e+05  -5.659524e+05
   5.232695e+05  -2.802895e+04
   1.706819e+04   4.145684e+05
  -4.660829e+05   2.410364e+05
  -4.770873e+05  -3.655385e+05
  -2.151653e+05  -7.445310e+05
  -6.521699e+04  -4.865830e+05
  -1.514350e+05   1.027232e+05
  -3.175295e+05   2.965342e+05
  -2.799195e+05  -2.488406e+05
   1.907091e+05  -1.007744e+06
   9.594431e+05  -1.057050e+06
   1.379885e+06  -1.289908e+05
   8.216764e+05   9.590469e+05
  -4.594990e+05   1.138017e+06
  -1.282244e+06   2.916666e+05
  -7.252201e+05  -6.161309e+05
   7.405971e+05  -6.423936e+05
   1.632650e+06   1.537397e+05
   1.017369e+06   9.292499e+05
  -5.267053e+05   1.013728e+06
  -1.568234e+06   4.492231e+05
  -1.273428e+06  -2.411252e+05
  -1.220129e+05  -5.390976e+05
   6.786230e+05  -2.569569e+05
   3.812614e+05   3.104359e+05
  -6.204452e+05   5.047416e+05
  -1.202652e+06  -1.331588e+05
  -6.333926e+05  -1.231044e+06
   6.717274e+05  -1.711569e+06
   1.550902e+06  -8.449001e+05
   1.256714e+06   8.238574e+05
   1.400614e+05   1.844999e+06
  -8.114171e+05   1.304300e+06
  -9.494773e+05  -2.126349e+05
  -4.030989e+05  -1.244336e+06
   2.613213e+05  -9.963409e+05
   5.823650e+05  -6.919456e+04
   4.663769e+05   4.111981e+05
   1.638629e+05   1.543547e+05
   5.384188e+04  -9.875451e+04
   2.756161e+05   3.035585e+05
   4.869821e+05   1.006434e+06
   1.574511e+05   1.120657e+06
  -7.455016e+05   3.867925e+05
  -1.496311e+06  -5.323311e+05
  -1.285303e+06  -9.116910e+05
  -1.663556e+05  -7.240514e+05
   8.911704e+05  -3.942263e+05
   1.019160e+06  -1.499357e+05
   3.709465e+05   6.214846e+04
  -1.568526e+05   2.237227e+05
  -4.618667e+04   2.155329e+05
   2.654892e+05   1.135130e+05
   4.706287e+04   1.366056e+05
  -6.844632e+05   2.127716e+05
  -1.072148e+06  -4.656124e+04
  -4.234121e+05  -7.156075e+05
   8.979274e+05  -1.174647e+06
   1.765630e+06  -7.250245e+05
   1.432589e+06   4.798806e+05
   2.358519e+05   1.449107e+06
  -8.312452e+05   1.389448e+06
  -1.091098e+06   5.202339e+05
  -6.615414e+05  -2.595797e+05
  -1.269888e+05  -3.701193e+05
   6.807104e+04  -6.238120e+04
  -8.940838e+04   1.443048e+04
  -2.966817e+05  -3.917631e+05
  -2.252241e+05  -8.407696e+05
   2.043352e+05  -6.907762e+05
   6.902181e+05   1.444042e+05
   7.268777e+05   9.927439e+05
   9.304856e+04   1.055478e+06
  -7.707564e+05   2.327438e+05
  -1.036129e+06  -7.634773e+05
  -3.287861e+05  -1.124823e+06
   7.467641e+05  -6.773313e+05
   1.147119e+06   1.057478e+05
   5.346721e+05   6.458110e+05
  -3.104328e+05   6.937043e+05
  -4.049975e+05   3.721649e+05
   2.453458e+05   1.953293e+04
   6.654679e+05  -2.047490e+04
   1.445121e+05   3.197900e+05
  -8.686123e+05   6.704194e+05
  -1.318223e+06   5.155748e+05
  -7.872853e+05  -2.047442e+05
   1.224246e+05  -8.910078e+05
   5.958786e+05  -8.692899e+05
   4.443416e+05  -1.638531e+05
   4.246820e+04   4.874872e+05
  -2.539223e+05   4.426630e+05
  -3.517794e+05  -1.550981e+05
  -2.447707e+05  -5.988434e+05
   6.026063e+04  -4.415898e+05
   3.979643e+05   5.406801e+04
   4.854781e+05   3.047888e+05
   2.491186e+05   1.100584e+05
  -3.805250e+04  -1.579496e+05
  -9.171511e+04  -5.779267e+04
   8.431087e+03   3.517401e+05
  -4.775145e+04   5.609281e+05
  -3.198893e+05   2.249563e+05
  -4.630611e+05  -3.868937e+05
  -1.548314e+05  -6.591100e+05
   4.214889e+05  -3.126362e+05
   6.758935e+05   2.969036e+05
   2.465914e+05   5.900875e+05
  -5.326387e+05   3.637093e+05
  -9.061541e+05  -9.558543e+04
  -4.833171e+05  -3.992222e+05
   3.088607e+05  -4.084383e+05
   6.595238e+05  -2.249693e+05
   2.628581e+05  -1.726799e+04
  -3.440720e+05   6.152075e+04
  -4.071318e+05  -6.947460e+04
   1.764102e+05  -2.840240e+05
   7.574368e+05  -2.512101e+05
