
 $NMID
 id='ANONYMOUS ', fmtdat='(2E16.6)'
 volume=1.0
 tramp=1.0
 $END
   4.915167e+07  -1.636866e+06
   3.108953e+07   2.885230e+07
  -4.719232e+06   3.345845e+07
  -2.359941e+07   1.441482e+07
  -1.514404e+07  -4.953999e+06
   2.252513e+06  -8.419267e+06
   8.902572e+06   2.879181e+05
   3.220649e+06   8.526439e+06
  -4.989634e+06   8.941250e+06
  -8.562716e+06   2.420698e+06
  -6.443197e+06  -5.354756e+06
  -9.159365e+05  -7.768387e+06
   3.523507e+06  -2.454505e+06
   2.500717e+06   5.085007e+06
  -3.177183e+06   6.262313e+06
  -7.106399e+06  -7.707162e+05
  -4.376283e+06  -8.917986e+06
   2.906216e+06  -1.063249e+07
   8.725134e+06  -5.503910e+06
   9.482375e+06   1.579814e+06
   5.826809e+06   6.331012e+06
   7.909583e+05   7.289969e+06
  -2.076429e+06   5.208280e+06
  -1.073346e+06   2.680836e+06
   1.228315e+06   2.446438e+06
   6.913671e+04   4.058299e+06
  -5.123289e+06   3.941852e+06
  -8.835420e+06   3.619354e+05
  -6.313966e+06  -3.690109e+06
  -5.370691e+04  -4.429912e+06
   3.523689e+06  -2.095763e+06
   2.121795e+06   2.852253e+05
  -1.013535e+06   1.022849e+06
  -2.503259e+06   2.759029e+05
  -2.004180e+06  -1.661850e+06
  -3.836752e+05  -3.720462e+06
   1.634366e+06  -3.348127e+06
   2.605134e+06   1.938065e+05
   1.337430e+06   3.088819e+06
  -5.645272e+05   1.399527e+06
  -9.926193e+04  -2.460725e+06
   2.289041e+06  -2.242907e+06
   2.370251e+06   2.727950e+06
  -1.726755e+06   5.548159e+06
  -5.833411e+06   1.259783e+06
  -4.677551e+06  -5.785895e+06
   1.286381e+06  -7.511890e+06
   6.459069e+06  -2.352174e+06
   6.480402e+06   3.821305e+06
   1.983239e+06   5.505019e+06
  -3.111478e+06   2.699968e+06
  -5.014876e+06  -1.166945e+06
  -2.498381e+06  -3.119391e+06
   2.015482e+06  -2.134645e+06
   4.112039e+06   6.119275e+05
   1.908060e+06   2.338251e+06
  -1.468806e+06   1.289198e+06
  -1.692246e+06  -8.898170e+05
   1.032760e+06  -1.038738e+06
   2.368066e+06   1.216283e+06
  -1.023402e+05   2.955998e+06
  -3.787881e+06   1.965618e+06
  -4.767045e+06  -8.298043e+05
  -2.282878e+06  -3.388965e+06
   1.560239e+06  -4.773060e+06
   4.605828e+06  -4.426750e+06
   5.624589e+06  -1.585746e+06
   4.088675e+06   2.846444e+06
   8.945487e+05   5.612566e+06
  -1.526307e+06   4.493122e+06
  -1.543223e+06   1.394226e+06
  -3.518890e+05  -1.869629e+04
  -3.064126e+05   8.930140e+05
  -1.701296e+06   1.461385e+06
  -2.636151e+06  -2.481937e+04
  -1.780754e+06  -2.004802e+06
   1.565276e+05  -2.093788e+06
   1.632186e+06  -1.172352e+05
   1.640055e+06   2.103344e+06
  -4.341242e+04   2.814718e+06
  -2.602940e+06   1.480823e+06
  -4.071650e+06  -1.145673e+06
  -2.900841e+06  -3.374473e+06
  -2.397632e+04  -3.738046e+06
   1.926378e+06  -2.443334e+06
   1.914013e+06  -1.124245e+06
   1.661771e+06  -7.628272e+05
   2.789776e+06  -5.665898e+05
   4.156782e+06   6.262024e+05
   3.369927e+06   2.584108e+06
   1.694244e+05   3.959553e+06
  -3.074592e+06   3.754476e+06
  -4.022401e+06   1.983240e+06
  -2.502764e+06  -4.794271e+05
  -1.620460e+05  -2.145988e+06
   1.113085e+06  -1.793570e+06
   5.205704e+05   6.377138e+04
  -1.064108e+06   1.239268e+06
  -1.802759e+06   3.895179e+05
  -8.500914e+05  -1.121650e+06
   5.262798e+05  -1.068756e+06
   4.801178e+05   3.802966e+05
  -9.548792e+05   8.044755e+05
  -1.860473e+06  -1.003243e+06
  -8.833575e+05  -3.255170e+06
   1.277380e+06  -3.467017e+06
   2.996264e+06  -1.368345e+06
   3.357969e+06   1.255679e+06
   2.352182e+06   2.724035e+06
   4.738518e+05   2.604894e+06
  -1.222245e+06   1.420050e+06
  -1.535693e+06   1.995863e+05
  -4.766755e+05  -4.247976e+04
   3.533137e+05   7.237453e+05
  -3.618903e+05   1.281513e+06
  -1.794047e+06   5.813182e+05
  -1.962822e+06  -7.989078e+05
  -4.122020e+05  -1.342882e+06
   1.123714e+06  -5.757954e+05
   8.983338e+05   4.429693e+05
  -8.132719e+05   5.725969e+05
  -2.183016e+06  -2.455601e+05
  -1.781598e+06  -1.332329e+06
   2.071400e+05  -1.981849e+06
   2.251242e+06  -1.655046e+06
   2.698236e+06  -2.887896e+05
   1.186918e+06   1.197295e+06
  -8.555311e+05   1.430830e+06
  -1.467613e+06   1.966213e+05
  -1.867615e+05  -1.016973e+06
   1.454049e+06  -7.162215e+05
   1.677825e+06   7.316328e+05
   3.701216e+05   1.607052e+06
  -1.037480e+06   9.960820e+05
  -1.245209e+06  -2.584407e+05
  -2.777276e+05  -7.538446e+05
   7.538408e+05  -7.121280e+04
   7.123893e+05   1.007759e+06
  -5.572179e+05   1.373078e+06
  -1.940931e+06   5.223378e+05
  -1.968456e+06  -1.011086e+06
  -3.835631e+05  -2.002546e+06
   1.374576e+06  -1.603015e+06
   1.671611e+06  -2.268431e+05
   5.072350e+05   8.378238e+05
  -6.307560e+05   7.937080e+05
  -6.322877e+05   6.811263e+04
   1.098237e+05  -3.904267e+05
   5.161624e+05  -2.297674e+05
   1.713234e+05   9.298568e+04
  -4.240311e+05  -1.359071e+04
  -5.362077e+05  -6.162044e+05
   1.643970e+05  -1.155205e+06
   1.328318e+06  -8.860900e+05
   2.021779e+06   3.860090e+05
   1.428474e+06   1.874296e+06
  -2.025846e+05   2.356011e+06
  -1.574464e+06   1.400661e+06
  -1.672497e+06  -1.051757e+05
  -8.652264e+05  -9.041781e+05
  -3.006806e+05  -6.938259e+05
  -4.196640e+05  -2.352313e+05
  -5.779989e+05  -2.736333e+05
  -9.543593e+04  -7.147257e+05
   8.365912e+05  -8.887775e+05
   1.418000e+06  -3.382529e+05
   1.045605e+06   7.129845e+05
  -2.304253e+05   1.454241e+06
  -1.677728e+06   1.068712e+06
  -2.198059e+06  -4.578648e+05
  -1.129303e+06  -2.033693e+06
   9.409440e+05  -2.308412e+06
   2.449274e+06  -1.039755e+06
   2.309560e+06   6.050821e+05
   9.756519e+05   1.309817e+06
  -1.870996e+05   9.630359e+05
  -4.135213e+05   5.199533e+05
  -1.171639e+05   7.091664e+05
  -1.062470e+05   1.231128e+06
  -6.285804e+05   1.234612e+06
  -1.236366e+06   3.135145e+05
  -1.294605e+06  -1.042502e+06
  -5.440462e+05  -1.836177e+06
   6.013285e+05  -1.395677e+06
   1.252813e+06  -7.951646e+03
   8.069466e+05   1.231676e+06
  -3.503245e+05   1.362651e+06
  -1.111395e+06   4.342775e+05
  -8.026229e+05  -6.321604e+05
   7.862576e+04  -1.032773e+06
   4.845066e+05  -7.797303e+05
   7.235698e+04  -4.236016e+05
  -4.125208e+05  -3.287058e+05
  -5.447697e+04  -3.730219e+05
   1.103463e+06  -2.182018e+05
   1.989483e+06   2.992760e+05
   1.578322e+06   9.868442e+05
  -3.103822e+03   1.385219e+06
  -1.509588e+06   1.117001e+06
  -1.773498e+06   2.963089e+05
  -8.302536e+05  -4.515450e+05
   2.344249e+05  -5.450492e+05
   4.936794e+05  -4.927496e+04
   3.040879e+04   3.887306e+05
  -4.349615e+05   2.444432e+05
  -4.656034e+05  -3.285769e+05
  -2.280207e+05  -6.971738e+05
  -7.721820e+04  -4.577614e+05
  -1.408922e+05   1.046405e+05
  -2.915039e+05   2.945975e+05
  -2.729535e+05  -2.237007e+05
   1.443743e+05  -9.601110e+05
   8.647993e+05  -1.036155e+06
   1.293915e+06  -1.752374e+05
   8.104650e+05   8.736601e+05
  -3.888531e+05   1.091407e+06
  -1.198760e+06   3.232107e+05
  -7.098294e+05  -5.565149e+05
   6.759651e+05  -6.385969e+05
   1.555168e+06   8.040219e+04
   1.005141e+06   8.411632e+05
  -4.569715e+05   9.850337e+05
  -1.470547e+06   4.919993e+05
  -1.219763e+06  -1.763259e+05
  -1.386905e+05  -5.073236e+05
   6.324060e+05  -2.729182e+05
   3.728339e+05   2.764139e+05
  -5.681070e+05   4.999339e+05
  -1.142582e+06  -8.097656e+04
  -6.443569e+05  -1.141189e+06
   5.730400e+05  -1.644888e+06
   1.437784e+06  -8.576453e+05
   1.222287e+06   7.333467e+05
   2.036226e+05   1.743621e+06
  -7.186562e+05   1.269530e+06
  -9.091295e+05  -1.619095e+05
  -4.334777e+05  -1.163012e+06
   2.048027e+05  -9.566752e+05
   5.474832e+05  -9.035574e+04
   4.602263e+05   3.719875e+05
   1.642286e+05   1.409960e+05
   4.637455e+04  -9.726747e+04
   2.694311e+05   2.733025e+05
   4.999384e+05   9.330602e+05
   1.970518e+05   1.057553e+06
  -6.872125e+05   3.977809e+05
  -1.439439e+06  -4.460915e+05
  -1.256866e+06  -8.145484e+05
  -1.861487e+05  -6.787484e+05
   8.320743e+05  -4.069134e+05
   9.610801e+05  -1.826137e+05
   3.516792e+05   4.209125e+04
  -1.411457e+05   2.179003e+05
  -3.274986e+04   2.089894e+05
   2.586296e+05   9.977504e+04
   4.832928e+04   1.266186e+05
  -6.433108e+05   2.254135e+05
  -1.016271e+06  -3.113392e+03
  -4.235236e+05  -6.591036e+05
   8.078661e+05  -1.144481e+06
   1.641080e+06  -7.532025e+05
   1.370216e+06   4.001665e+05
   2.776082e+05   1.363673e+06
  -7.320767e+05   1.346725e+06
  -1.011909e+06   5.321357e+05
  -6.360870e+05  -2.220531e+05
  -1.330840e+05  -3.445052e+05
   6.443094e+04  -5.852338e+04
  -8.351254e+04   1.988590e+04
  -2.981105e+05  -3.585753e+05
  -2.478377e+05  -7.875101e+05
   1.666525e+05  -6.613004e+05
   6.592549e+05   1.121219e+05
   7.244501e+05   9.137135e+05
   1.252603e+05   9.948657e+05
  -7.225020e+05   2.463380e+05
  -1.008973e+06  -6.862292e+05
  -3.523425e+05  -1.051936e+06
   6.810998e+05  -6.672834e+05
   1.088155e+06   5.653999e+04
   5.296379e+05   5.875833e+05
  -2.658150e+05   6.652851e+05
  -3.654113e+05   3.681605e+05
   2.363326e+05   1.159316e+04
   6.300157e+05  -4.402317e+04
   1.480049e+05   2.964029e+05
  -7.969658e+05   6.690096e+05
  -1.226463e+06   5.424941e+05
  -7.510126e+05  -1.601882e+05
   8.154987e+04  -8.474087e+05
   5.277008e+05  -8.456596e+05
   4.106002e+05  -1.705385e+05
   5.673088e+04   4.610612e+05
  -2.237286e+05   4.268821e+05
  -3.385365e+05  -1.365308e+05
  -2.542828e+05  -5.577392e+05
   4.025028e+04  -4.175929e+05
   3.786145e+05   3.712398e+04
   4.711132e+05   2.676294e+05
   2.406361e+05   9.288501e+04
  -4.125667e+04  -1.453041e+05
  -9.026068e+04  -4.631837e+04
   1.691920e+04   3.337417e+05
  -2.879806e+04   5.284179e+05
  -2.950023e+05   2.194020e+05
  -4.485900e+05  -3.513389e+05
  -1.663938e+05  -6.174822e+05
   3.883708e+05  -3.102831e+05
   6.488430e+05   2.568234e+05
   2.542005e+05   5.500958e+05
  -4.893958e+05   3.645314e+05
  -8.596113e+05  -5.664701e+04
  -4.721688e+05  -3.593517e+05
   2.762417e+05  -3.965288e+05
   6.146506e+05  -2.359174e+05
   2.460131e+05  -2.639204e+04
  -3.262689e+05   6.851991e+04
  -3.889897e+05  -5.379114e+04
   1.592571e+05  -2.773052e+05
   7.122432e+05  -2.659162e+05
