
 $NMID
 id='ANONYMOUS ', fmtdat='(2E16.6)'
 volume=1.0
 tramp=1.0
 $END
   5.200241e+07  -3.417187e+06
   3.363669e+07   3.046083e+07
  -4.616160e+06   3.597419e+07
  -2.499360e+07   1.514093e+07
  -1.591888e+07  -5.811596e+06
   2.612808e+06  -8.975312e+06
   9.362174e+06   7.187630e+05
   3.070525e+06   9.092364e+06
  -5.468175e+06   9.013218e+06
  -8.961834e+06   2.294806e+06
  -6.746044e+06  -5.363473e+06
  -1.141597e+06  -7.840553e+06
   3.478977e+06  -2.723156e+06
   2.555053e+06   4.844843e+06
  -3.284252e+06   6.191769e+06
  -7.411425e+06  -8.680258e+05
  -4.633153e+06  -9.235131e+06
   2.888511e+06  -1.112147e+07
   8.984974e+06  -6.023273e+06
   1.005103e+07   1.217160e+06
   6.593150e+06   6.421334e+06
   1.294435e+06   7.931887e+06
  -2.266450e+06   5.925535e+06
  -1.728337e+06   2.804018e+06
   8.420510e+05   1.961598e+06
   3.137397e+05   3.661771e+06
  -4.637375e+06   4.133617e+06
  -8.674218e+06   8.848050e+05
  -6.610901e+06  -3.370762e+06
  -5.661700e+05  -4.503685e+06
   3.115318e+06  -2.458199e+06
   2.108580e+06  -2.204357e+05
  -5.422750e+05   6.402832e+05
  -1.918774e+06   3.609101e+05
  -1.881526e+06  -1.163171e+06
  -7.657594e+05  -3.393870e+06
   1.375983e+06  -3.590230e+06
   2.914520e+06  -2.275171e+05
   1.844146e+06   3.126813e+06
  -4.566246e+05   1.878944e+06
  -3.368813e+05  -2.087479e+06
   2.186865e+06  -2.164232e+06
   2.437688e+06   2.865172e+06
  -1.942566e+06   5.901877e+06
  -6.450560e+06   1.444430e+06
  -5.200496e+06  -6.092776e+06
   1.260329e+06  -8.050483e+06
   6.715088e+06  -2.661022e+06
   6.599405e+06   3.807342e+06
   1.917035e+06   5.527799e+06
  -3.143786e+06   2.624447e+06
  -4.928430e+06  -1.271312e+06
  -2.361873e+06  -3.197207e+06
   2.170691e+06  -2.180381e+06
   4.257341e+06   6.450420e+05
   1.947492e+06   2.453200e+06
  -1.522902e+06   1.363046e+06
  -1.638970e+06  -9.079904e+05
   1.265640e+06  -9.612625e+05
   2.499374e+06   1.556940e+06
  -3.488132e+05   3.377056e+06
  -4.247593e+06   2.120665e+06
  -5.063202e+06  -9.873944e+05
  -2.379317e+06  -3.597440e+06
   1.391147e+06  -4.895692e+06
   4.325371e+06  -4.597676e+06
   5.536055e+06  -1.874880e+06
   4.319918e+06   2.616526e+06
   1.140311e+06   5.572982e+06
  -1.553855e+06   4.483545e+06
  -1.682903e+06   1.199869e+06
  -2.471060e+05  -3.312720e+05
   9.417716e+04   7.317011e+05
  -1.277159e+06   1.600082e+06
  -2.427282e+06   3.336240e+05
  -1.826240e+06  -1.612077e+06
  -7.298889e+04  -1.858405e+06
   1.357709e+06  -1.651237e+05
   1.520955e+06   1.848752e+06
   7.957091e+04   2.641096e+06
  -2.420857e+06   1.599717e+06
  -4.093779e+06  -8.668858e+05
  -3.131531e+06  -3.253693e+06
  -2.148158e+05  -3.880130e+06
   1.936541e+06  -2.650150e+06
   2.027319e+06  -1.190974e+06
   1.705097e+06  -7.029731e+05
   2.714640e+06  -5.153614e+05
   4.022024e+06   5.862356e+05
   3.268776e+06   2.448188e+06
   2.162418e+05   3.774007e+06
  -2.828072e+06   3.629010e+06
  -3.719403e+06   2.029952e+06
  -2.395950e+06  -2.874021e+05
  -3.159089e+05  -1.977686e+06
   9.175836e+05  -1.766774e+06
   5.020718e+05   5.753283e+03
  -9.482385e+05   1.213477e+06
  -1.735216e+06   4.251193e+05
  -8.921802e+05  -1.061683e+06
   4.411184e+05  -1.014890e+06
   3.912880e+05   3.796356e+05
  -1.031424e+06   6.850277e+05
  -1.836771e+06  -1.190814e+06
  -6.943908e+05  -3.306753e+06
   1.493274e+06  -3.257223e+06
   2.993254e+06  -1.067930e+06
   3.099179e+06   1.346453e+06
   2.082715e+06   2.542559e+06
   4.201275e+05   2.378895e+06
  -1.099881e+06   1.348827e+06
  -1.422037e+06   2.391325e+05
  -4.519502e+05  -3.163457e+04
   3.448874e+05   6.839869e+05
  -3.455786e+05   1.258706e+06
  -1.750932e+06   5.961543e+05
  -1.913581e+06  -7.744815e+05
  -3.924450e+05  -1.315082e+06
   1.075404e+06  -5.502134e+05
   8.156776e+05   4.201813e+05
  -8.082248e+05   4.871037e+05
  -2.026429e+06  -3.018510e+05
  -1.594648e+06  -1.256954e+06
   2.374496e+05  -1.814003e+06
   2.105508e+06  -1.540461e+06
   2.542597e+06  -2.958644e+05
   1.155478e+06   1.142185e+06
  -8.006767e+05   1.419109e+06
  -1.439120e+06   2.309245e+05
  -2.271399e+05  -9.852215e+05
   1.376675e+06  -7.158313e+05
   1.602926e+06   6.931643e+05
   3.298963e+05   1.532408e+06
  -1.016692e+06   9.192901e+05
  -1.180787e+06  -2.875799e+05
  -2.345200e+05  -7.383047e+05
   7.446974e+05  -7.549491e+04
   7.068932e+05   9.502212e+05
  -4.907590e+05   1.318779e+06
  -1.824160e+06   5.454337e+05
  -1.891821e+06  -9.148424e+05
  -3.993049e+05  -1.900811e+06
   1.295762e+06  -1.546804e+06
   1.592702e+06  -2.241080e+05
   4.759150e+05   8.007456e+05
  -5.989735e+05   7.514411e+05
  -5.700281e+05   7.233900e+04
   1.302195e+05  -3.262399e+05
   4.544124e+05  -1.672582e+05
   8.021011e+04   8.585461e+04
  -4.559895e+05  -6.923469e+04
  -5.030753e+05  -6.367831e+05
   1.767638e+05  -1.114218e+06
   1.261830e+06  -8.519052e+05
   1.923633e+06   3.411904e+05
   1.387189e+06   1.755201e+06
  -1.545061e+05   2.222410e+06
  -1.467400e+06   1.311910e+06
  -1.551086e+06  -1.088667e+05
  -7.692712e+05  -8.165780e+05
  -2.621402e+05  -5.683700e+05
  -4.364482e+05  -1.544238e+05
  -6.089992e+05  -2.601395e+05
  -1.157553e+05  -7.089521e+05
   7.969518e+05  -8.471462e+05
   1.330440e+06  -3.107356e+05
   9.578371e+05   6.550452e+05
  -2.297066e+05   1.337779e+06
  -1.570644e+06   1.002957e+06
  -2.068783e+06  -4.110576e+05
  -1.074689e+06  -1.919519e+06
   8.950109e+05  -2.208953e+06
   2.337419e+06  -9.973680e+05
   2.180613e+06   5.854726e+05
   8.798623e+05   1.236735e+06
  -2.058960e+05   8.653321e+05
  -3.531280e+05   4.412679e+05
  -2.800930e+04   6.664838e+05
  -3.816429e+04   1.203311e+06
  -5.805388e+05   1.212685e+06
  -1.184450e+06   3.315263e+05
  -1.251186e+06  -9.577455e+05
  -5.503232e+05  -1.722978e+06
   5.387291e+05  -1.328253e+06
   1.181222e+06  -1.828627e+04
   7.742774e+05   1.174319e+06
  -3.422946e+05   1.303506e+06
  -1.090144e+06   3.952471e+05
  -7.848312e+05  -6.458048e+05
   9.432543e+04  -1.020000e+06
   5.009204e+05  -7.471282e+05
   8.744035e+04  -3.835163e+05
  -4.035427e+05  -2.899440e+05
  -6.357511e+04  -3.454847e+05
   1.059815e+06  -2.207198e+05
   1.914448e+06   2.565944e+05
   1.512307e+06   9.255448e+05
  -8.943675e+03   1.341085e+06
  -1.446241e+06   1.099490e+06
  -1.690417e+06   2.873890e+05
  -7.877461e+05  -4.602898e+05
   2.267704e+05  -5.433391e+05
   4.811585e+05  -3.847751e+04
   5.384478e+04   3.914751e+05
  -3.908458e+05   2.441200e+05
  -4.510173e+05  -3.004852e+05
  -2.595611e+05  -6.393547e+05
  -1.120769e+05  -4.234774e+05
  -1.314811e+05   7.749293e+04
  -2.494667e+05   2.502299e+05
  -2.559264e+05  -2.115089e+05
   1.050865e+05  -8.952294e+05
   7.995295e+05  -1.000794e+06
   1.254992e+06  -2.175302e+05
   8.204214e+05   8.029464e+05
  -3.424824e+05   1.069532e+06
  -1.143879e+06   3.631822e+05
  -6.838518e+05  -5.011542e+05
   6.373071e+05  -6.094775e+05
   1.458099e+06   7.095011e+04
   9.196528e+05   7.938284e+05
  -4.528332e+05   9.150921e+05
  -1.378697e+06   4.397065e+05
  -1.127560e+06  -1.762659e+05
  -1.204035e+05  -4.712938e+05
   5.990233e+05  -2.526227e+05
   3.695163e+05   2.632425e+05
  -5.082757e+05   4.959056e+05
  -1.078570e+06  -2.932551e+04
  -6.579727e+05  -1.046142e+06
   4.705977e+05  -1.569205e+06
   1.317805e+06  -8.563869e+05
   1.165394e+06   6.543525e+05
   2.282596e+05   1.629510e+06
  -6.553430e+05   1.190232e+06
  -8.558698e+05  -1.582555e+05
  -4.070749e+05  -1.093405e+06
   2.067914e+05  -8.923643e+05
   5.242398e+05  -8.409417e+04
   4.179558e+05   3.401457e+05
   1.325199e+05   1.259524e+05
   5.204904e+04  -8.654260e+04
   2.948104e+05   2.628592e+05
   5.014392e+05   8.736347e+05
   1.756142e+05   9.907078e+05
  -6.726209e+05   3.869573e+05
  -1.357540e+06  -3.928371e+05
  -1.170634e+06  -7.473552e+05
  -1.853911e+05  -6.413530e+05
   7.511785e+05  -3.975303e+05
   8.933360e+05  -1.795250e+05
   3.537978e+05   4.379940e+04
  -1.189627e+05   2.087859e+05
  -5.679026e+04   1.878348e+05
   2.131636e+05   7.743887e+04
   5.939928e+04   1.144536e+05
  -5.670898e+05   2.318908e+05
  -9.590344e+05   2.857013e+04
  -4.573637e+05  -6.092154e+05
   7.043930e+05  -1.108495e+06
   1.544949e+06  -7.704350e+05
   1.332908e+06   3.234869e+05
   3.027280e+05   1.270595e+06
  -6.654238e+05   1.295498e+06
  -9.381234e+05   5.440339e+05
  -5.969739e+05  -1.788810e+05
  -1.459406e+05  -3.197940e+05
   3.106406e+04  -6.983649e+04
  -9.090509e+04   2.215054e+03
  -2.765023e+05  -3.420266e+05
  -2.393716e+05  -7.379982e+05
   1.347711e+05  -6.318376e+05
   6.144249e+05   7.150447e+04
   7.176479e+05   8.212978e+05
   1.736887e+05   9.318035e+05
  -6.527303e+05   2.737446e+05
  -9.714180e+05  -5.949910e+05
  -3.756744e+05  -9.805809e+05
   6.173719e+05  -6.647207e+05
   1.038561e+06   1.677669e+04
   5.319305e+05   5.571776e+05
  -2.321532e+05   6.586659e+05
  -3.573191e+05   3.652101e+05
   1.959133e+05  -4.328905e+02
   5.847919e+05  -5.959345e+04
   1.560629e+05   2.790385e+05
  -7.350687e+05   6.454088e+05
  -1.166804e+06   5.244245e+05
  -7.396046e+05  -1.487751e+05
   5.251706e+04  -8.096711e+05
   4.971270e+05  -8.230248e+05
   4.048610e+05  -1.930369e+05
   7.639298e+04   4.200562e+05
  -1.931762e+05   4.204308e+05
  -3.169513e+05  -9.783937e+04
  -2.565870e+05  -5.174476e+05
   1.805258e+04  -4.140418e+05
   3.567735e+05   1.541347e+04
   4.608131e+05   2.550509e+05
   2.314463e+05   9.580654e+04
  -5.692799e+04  -1.518507e+05
  -9.259142e+04  -7.847730e+04
   5.362053e+04   2.938637e+05
   3.536032e+04   5.160628e+05
  -2.509275e+05   2.534746e+05
  -4.572304e+05  -2.871957e+05
  -2.124132e+05  -5.668842e+05
   3.442441e+05  -3.114546e+05
   6.303234e+05   2.075001e+05
   2.636295e+05   5.002335e+05
  -4.579311e+05   3.601995e+05
  -8.228444e+05  -1.881754e+04
  -4.605295e+05  -3.246285e+05
   2.471392e+05  -3.977685e+05
   5.754704e+05  -2.601581e+05
   2.485199e+05  -3.782477e+04
  -2.769435e+05   8.738661e+04
  -3.533790e+05  -1.638280e+04
   1.245338e+05  -2.462715e+05
   6.293822e+05  -2.640080e+05
