
 $NMID
 id='ANONYMOUS ', fmtdat='(2E16.6)'
 volume=1.0
 tramp=1.0
 $END
   1.422362e+07   5.407041e+05
   9.459760e+06   6.537857e+06
   8.158078e+04   8.852268e+06
  -6.157602e+06   6.298059e+06
  -5.418188e+06   9.884748e+05
  -5.156565e+05  -2.620523e+06
   3.026596e+06  -1.587618e+06
   2.473060e+06   2.307202e+06
  -5.697925e+05   4.300387e+06
  -2.789405e+06   1.985694e+06
  -2.402580e+06  -2.003812e+06
  -2.211763e+05  -3.228815e+06
   1.511508e+06  -5.661209e+05
   1.155322e+06   2.811012e+06
  -8.941976e+05   3.231617e+06
  -2.512582e+06   3.531241e+05
  -1.862311e+06  -2.932545e+06
   6.867176e+05  -3.696895e+06
   2.845512e+06  -1.657352e+06
   2.776444e+06   1.012950e+06
   9.826643e+05   2.095124e+06
  -3.799040e+05   1.422398e+06
   5.725448e+04   6.618867e+05
   1.398842e+06   1.184330e+06
   1.515566e+06   2.464120e+06
  -5.565782e+05   2.798141e+06
  -3.351552e+06   1.366526e+06
  -4.246793e+06  -8.400226e+05
  -2.163111e+06  -2.112250e+06
   1.081310e+06  -1.641972e+06
   2.448578e+06  -2.845079e+04
   8.354137e+05   1.358909e+06
  -1.785314e+06   1.348670e+06
  -2.628727e+06  -1.869116e+05
  -1.134110e+06  -2.012076e+06
   7.670055e+05  -2.395235e+06
   1.175326e+06  -8.759555e+05
   2.343870e+05   9.578882e+05
  -5.570808e+05   1.063518e+06
  -3.011839e+05  -6.295791e+05
   5.933163e+05  -2.009792e+06
   1.231692e+06  -1.301357e+06
   1.083387e+06   7.472590e+05
   1.706069e+05   1.763752e+06
  -9.164332e+05   5.917981e+05
  -1.150670e+06  -1.422464e+06
   1.007229e+05  -2.066641e+06
   2.050454e+06  -6.651655e+05
   2.821329e+06   1.425249e+06
   1.349590e+06   2.378841e+06
  -1.232453e+06   1.589407e+06
  -2.606561e+06  -4.997682e+04
  -1.672802e+06  -1.148602e+06
   3.957304e+05  -1.005955e+06
   1.536297e+06  -5.579499e+04
   9.190148e+05   6.609546e+05
  -4.409751e+05   4.845315e+05
  -9.603000e+05  -2.970364e+05
  -1.601687e+05  -8.103064e+05
   9.168809e+05  -4.978116e+05
   8.916184e+05   3.392531e+05
  -3.730211e+05   8.368919e+05
  -1.493473e+06   3.688947e+05
  -1.024954e+06  -8.547698e+05
   8.812731e+05  -1.867786e+06
   2.560212e+06  -1.689274e+06
   2.615633e+06  -2.028047e+05
   1.311436e+06   1.620998e+06
   1.783261e+04   2.531100e+06
  -4.127361e+05   2.155771e+06
  -3.407457e+05   1.267528e+06
  -5.471474e+05   7.884914e+05
  -1.203172e+06   7.006994e+05
  -1.766685e+06   2.331023e+05
  -1.622059e+06  -8.985343e+05
  -6.481108e+05  -1.841728e+06
   6.573094e+05  -1.497044e+06
   1.441250e+06   9.241353e+04
   1.069433e+06   1.590809e+06
  -2.698932e+05   1.696522e+06
  -1.550577e+06   4.228256e+05
  -1.752947e+06  -1.050019e+06
  -8.357808e+05  -1.633009e+06
   2.593379e+05  -1.261754e+06
   6.600342e+05  -6.673473e+05
   4.973398e+05  -4.696203e+05
   6.285734e+05  -5.996788e+05
   1.459619e+06  -4.995380e+05
   2.263406e+06   2.388930e+05
   1.876133e+06   1.408657e+06
   7.789601e+04   2.266276e+06
  -1.912282e+06   2.099268e+06
  -2.515742e+06   8.656243e+05
  -1.375134e+06  -6.404762e+05
   2.868947e+05  -1.356636e+06
   9.439913e+05  -8.709154e+05
   2.685402e+05   1.633467e+05
  -7.389338e+05   6.424068e+05
  -9.681698e+05   1.462748e+05
  -3.095588e+05  -6.132686e+05
   4.320805e+05  -6.234237e+05
   4.704533e+05   1.843070e+05
  -2.391652e+05   7.537280e+05
  -1.026280e+06   1.153129e+05
  -1.072596e+06  -1.374243e+06
  -7.400763e+04  -2.269096e+06
   1.416065e+06  -1.553474e+06
   2.301214e+06   2.666748e+05
   1.843333e+06   1.701397e+06
   4.004329e+05   1.776144e+06
  -8.352122e+05   8.483671e+05
  -9.740719e+05   1.982925e+04
  -2.801251e+05  -3.399805e+04
   2.037973e+05   4.203901e+05
  -1.544400e+05   6.559177e+05
  -8.980866e+05   2.968974e+05
  -1.053965e+06  -3.521843e+05
  -2.941932e+05  -6.732306e+05
   6.210463e+05  -3.667397e+05
   6.400429e+05   2.482696e+05
  -3.866769e+05   5.228458e+05
  -1.437470e+06   8.466070e+04
  -1.339159e+06  -7.863336e+05
  -1.996710e+04  -1.364230e+06
   1.369961e+06  -1.110471e+06
   1.621605e+06  -1.864017e+05
   6.610026e+05   6.450006e+05
  -4.697202e+05   7.045066e+05
  -7.223413e+05   5.964460e+04
  -1.673505e+04  -5.238188e+05
   8.317242e+05  -3.697088e+05
   9.827162e+05   3.809762e+05
   3.243191e+05   9.253580e+05
  -5.077336e+05   6.978771e+05
  -7.599176e+05  -5.093828e+03
  -2.706791e+05  -3.872531e+05
   3.629223e+05  -5.486486e+04
   3.674857e+05   5.776363e+05
  -3.811915e+05   7.712932e+05
  -1.157206e+06   2.291858e+05
  -1.112170e+06  -6.460085e+05
  -1.931465e+05  -1.155493e+06
   7.766502e+05  -9.156761e+05
   9.591459e+05  -1.620434e+05
   3.401391e+05   4.666227e+05
  -3.483327e+05   4.918259e+05
  -4.471692e+05   2.784237e+04
   5.257601e+02  -3.592899e+05
   4.085263e+05  -2.716883e+05
   3.191519e+05   8.534760e+04
  -1.297048e+05   1.716610e+05
  -3.680552e+05  -2.126726e+05
   1.552181e+03  -6.459829e+05
   7.491143e+05  -5.333483e+05
   1.181054e+06   2.314144e+05
   8.064746e+05   1.112537e+06
  -1.534124e+05   1.416403e+06
  -9.631588e+05   9.080098e+05
  -1.086926e+06  -1.892223e+03
  -6.574124e+05  -6.349838e+05
  -2.257585e+05  -6.446128e+05
  -1.291596e+05  -2.926782e+05
  -1.903179e+05  -1.207851e+05
  -2.253275e+04  -3.285061e+05
   4.571564e+05  -5.397894e+05
   8.689132e+05  -2.629469e+05
   7.196598e+05   4.578149e+05
  -7.883008e+04   9.785514e+05
  -1.017293e+06   7.014904e+05
  -1.345668e+06  -2.721335e+05
  -7.146541e+05  -1.191557e+06
   4.739705e+05  -1.341697e+06
   1.374902e+06  -6.625803e+05
   1.412870e+06   2.627481e+05
   7.324661e+05   7.764606e+05
  -2.502832e+04   7.109950e+05
  -3.502992e+05   4.413042e+05
  -2.685081e+05   4.084160e+05
  -1.777982e+05   6.144493e+05
  -3.609904e+05   6.330317e+05
  -6.780076e+05   1.363991e+05
  -7.234053e+05  -6.507606e+05
  -2.789493e+05  -1.105256e+06
   3.954552e+05  -8.192573e+05
   7.547134e+05  -1.098899e+04
   4.921143e+05   6.847158e+05
  -1.364661e+05   7.901660e+05
  -5.555059e+05   3.462537e+05
  -4.479428e+05  -2.199746e+05
  -5.060385e+04  -5.136652e+05
   1.519188e+05  -4.703056e+05
  -1.238523e+04  -3.072435e+05
  -2.131379e+05  -2.347401e+05
  -8.898364e+03  -2.361139e+05
   6.057252e+05  -1.301872e+05
   1.102171e+06   1.794635e+05
   9.177856e+05   5.582454e+05
   6.489957e+04   7.493866e+05
  -8.064813e+05   6.049041e+05
  -1.015196e+06   2.138154e+05
  -5.149764e+05  -1.582513e+05
   1.011641e+05  -2.613613e+05
   2.593157e+05  -7.006894e+04
  -2.794187e+04   1.597393e+05
  -3.022531e+05   1.169213e+05
  -2.559138e+05  -2.063090e+05
  -3.358261e+04  -4.467569e+05
   4.673792e+04  -2.820624e+05
  -9.367009e+04   1.222152e+05
  -2.449474e+05   2.494717e+05
  -1.753511e+05  -1.266398e+05
   1.459942e+05  -6.001024e+05
   5.278540e+05  -5.829273e+05
   6.676115e+05  -1.744358e+04
   3.595839e+05   5.406568e+05
  -2.539735e+05   5.565291e+05
  -6.598824e+05   8.028088e+04
  -3.981971e+05  -3.740172e+05
   3.892270e+05  -3.858727e+05
   9.636975e+05   2.180640e+04
   7.056122e+05   4.901180e+05
  -1.970283e+05   6.528583e+05
  -9.063720e+05   3.988957e+05
  -8.062356e+05  -5.519846e+04
  -1.225508e+05  -3.257025e+05
   3.700354e+05  -1.960602e+05
   1.872467e+05   1.436769e+05
  -3.931058e+05   2.440320e+05
  -6.736476e+05  -1.405224e+05
  -2.783184e+05  -7.332430e+05
   4.780953e+05  -9.383035e+05
   9.289623e+05  -4.196447e+05
   7.127318e+05   5.031999e+05
   7.063070e+04   1.075038e+06
  -4.612276e+05   7.981129e+05
  -5.604997e+05  -5.884569e+04
  -2.976448e+05  -7.012607e+05
   6.526414e+04  -6.153868e+05
   3.083509e+05  -7.569014e+04
   3.270330e+05   2.462352e+05
   1.594343e+05   1.074117e+05
   5.500145e+03  -7.680567e+04
   6.558558e+04   1.295563e+05
   2.472689e+05   5.563805e+05
   1.727501e+05   6.557062e+05
  -3.361440e+05   2.376122e+05
  -8.728985e+05  -3.033969e+05
  -8.137953e+05  -5.182759e+05
  -1.059548e+05  -3.986267e+05
   5.751731e+05  -2.206025e+05
   6.079849e+05  -1.130068e+05
   1.573151e+05  -3.134197e+03
  -1.153796e+05   1.219002e+05
   5.049410e+04   1.611354e+05
   2.338368e+05   1.081849e+05
  -5.294702e+03   8.317477e+04
  -4.798391e+05   8.891608e+04
  -6.018158e+05  -5.630695e+04
  -1.177777e+05  -3.982987e+05
   5.974682e+05  -6.170808e+05
   9.572327e+05  -3.421638e+05
   7.134354e+05   3.309072e+05
   9.243869e+04   8.429396e+05
  -4.620026e+05   7.590519e+05
  -6.245138e+05   2.332079e+05
  -3.874100e+05  -1.979641e+05
  -3.457386e+04  -2.106367e+05
   1.099278e+05   1.214421e+04
  -2.415802e+04   6.221233e+04
  -2.038743e+05  -2.002772e+05
  -1.551936e+05  -4.798944e+05
   1.383710e+05  -3.750841e+05
   4.086243e+05   1.421785e+05
   3.583258e+05   6.263203e+05
  -4.501118e+04   5.950058e+05
  -4.903661e+05   4.967290e+04
  -5.580336e+05  -5.170844e+05
  -1.240450e+05  -6.409396e+05
   4.461943e+05  -3.203408e+05
   6.140856e+05   9.558984e+04
   2.526386e+05   3.209727e+05
  -1.795965e+05   3.210213e+05
  -1.709465e+05   1.902921e+05
   2.098947e+05   4.029508e+04
   3.978738e+05   6.887096e+03
   5.425568e+04   1.704743e+05
  -5.018508e+05   3.826578e+05
  -6.957686e+05   3.321426e+05
  -3.756924e+05  -7.074146e+04
   8.617667e+04  -4.784552e+05
   2.880153e+05  -4.590565e+05
   1.855839e+05  -3.642831e+04
  -1.850225e+04   3.077227e+05
  -1.638021e+05   2.110286e+05
  -2.032858e+05  -1.553023e+05
  -1.220337e+05  -3.467050e+05
   5.766979e+04  -1.933707e+05
   2.236683e+05   6.358622e+04
   2.500458e+05   1.359131e+05
   1.393311e+05   2.636902e+04
   1.287827e+04  -4.125703e+04
  -4.907629e+04   6.855339e+04
  -8.712037e+04   2.424411e+05
  -1.604835e+05   2.510013e+05
  -2.269577e+05   8.601482e+03
  -1.751472e+05  -3.035498e+05
   3.367084e+04  -3.891728e+05
   2.773057e+05  -1.408947e+05
   3.385470e+05   2.218339e+05
   9.941219e+04   3.657220e+05
  -2.894787e+05   1.896202e+05
  -4.770105e+05  -9.694562e+04
  -2.503478e+05  -2.362694e+05
   1.825902e+05  -1.801152e+05
   3.625734e+05  -5.923784e+04
   1.000201e+05   5.168148e+03
  -2.679197e+05  -2.061402e+04
  -2.595955e+05  -1.169664e+05
   1.616925e+05  -2.027958e+05
   5.298702e+05  -1.302375e+05
