
 $NMID
 id='ANONYMOUS ', fmtdat='(2E16.6)'
 volume=1.0
 tramp=1.0
 $END
  -5.519485e+07  -1.866330e+06
  -3.186508e+07  -3.501914e+07
   8.479166e+06  -3.683440e+07
   2.717949e+07  -1.352884e+07
   1.571478e+07   7.098770e+06
  -3.430767e+06   8.909997e+06
  -9.432763e+06  -1.341567e+06
  -2.500614e+06  -9.471096e+06
   6.119115e+06  -8.968112e+06
   9.389076e+06  -1.771308e+06
   6.728390e+06   6.261945e+06
   6.254283e+05   8.511687e+06
  -4.039836e+06   2.598299e+06
  -2.571733e+06  -5.454776e+06
   3.740965e+06  -6.383019e+06
   7.629823e+06   1.468412e+06
   4.101682e+06   1.008407e+07
  -3.994329e+06   1.144607e+07
  -1.008297e+07   5.497447e+06
  -1.056730e+07  -2.379632e+06
  -6.222368e+06  -7.620896e+06
  -2.950065e+05  -8.496945e+06
   3.078873e+06  -5.704207e+06
   1.735638e+06  -2.429856e+06
  -1.280560e+06  -2.147698e+06
  -2.488117e+05  -4.267570e+06
   5.530236e+06  -4.344016e+06
   9.685536e+06  -2.959499e+05
   6.896576e+06   4.296474e+06
   4.881120e+04   5.100330e+06
  -3.880855e+06   2.509183e+06
  -2.571345e+06  -1.310683e+05
   6.202274e+05  -1.133330e+06
   2.412651e+06  -5.909036e+05
   2.305720e+06   1.521406e+06
   6.331539e+05   4.054862e+06
  -1.941392e+06   3.781456e+06
  -3.214623e+06  -3.205777e+05
  -1.510319e+06  -3.719751e+06
   9.362896e+05  -1.797005e+06
   3.496979e+05   2.576176e+06
  -2.452172e+06   2.286603e+06
  -2.320152e+06  -3.156152e+06
   2.498971e+06  -5.866097e+06
   6.746490e+06  -7.132723e+05
   4.748983e+06   6.936360e+06
  -2.126697e+06   8.244891e+06
  -7.354910e+06   2.150630e+06
  -6.765728e+06  -4.497546e+06
  -1.756841e+06  -5.940193e+06
   3.429737e+06  -2.640251e+06
   5.158537e+06   1.519437e+06
   2.361293e+06   3.411565e+06
  -2.379969e+06   2.084039e+06
  -4.403398e+06  -9.928772e+05
  -1.848548e+06  -2.684509e+06
   1.713964e+06  -1.296685e+06
   1.711177e+06   1.015325e+06
  -1.234852e+06   8.513638e+05
  -2.301364e+06  -1.701925e+06
   6.882316e+05  -3.212179e+06
   4.500120e+06  -1.665531e+06
   5.090581e+06   1.430032e+06
   2.159728e+06   3.914290e+06
  -1.911632e+06   5.177413e+06
  -5.106066e+06   4.741732e+06
  -6.219612e+06   1.598432e+06
  -4.478322e+06  -3.281924e+06
  -8.064761e+05  -6.166941e+06
   1.881388e+06  -4.676977e+06
   1.668452e+06  -1.199360e+06
   1.080872e+05   1.429341e+05
   4.625128e+04  -1.110465e+06
   1.748907e+06  -1.820758e+06
   2.927622e+06  -1.657819e+05
   2.071479e+06   2.045000e+06
   1.551632e+03   2.242297e+06
  -1.623682e+06   2.434444e+05
  -1.733141e+06  -2.109670e+06
   1.779261e+04  -2.979921e+06
   2.831002e+06  -1.620291e+06
   4.469934e+06   1.303997e+06
   3.111613e+06   3.839010e+06
  -1.683995e+05   4.187449e+06
  -2.328682e+06   2.604108e+06
  -2.207339e+06   1.053916e+06
  -1.796052e+06   6.589418e+05
  -2.926436e+06   4.711028e+05
  -4.343886e+06  -7.842062e+05
  -3.480398e+06  -2.794826e+06
  -1.114015e+05  -4.153881e+06
   3.260843e+06  -3.922693e+06
   4.255337e+06  -2.117378e+06
   2.706676e+06   4.708447e+05
   2.514039e+05   2.302664e+06
  -1.157570e+06   1.963330e+06
  -5.788093e+05  -5.208077e+04
   1.119976e+06  -1.323435e+06
   1.927090e+06  -3.799427e+05
   9.064761e+05   1.235742e+06
  -5.361598e+05   1.135405e+06
  -4.411766e+05  -3.722501e+05
   1.024594e+06  -6.867914e+05
   1.788373e+06   1.259531e+06
   6.222007e+05   3.418447e+06
  -1.531970e+06   3.361863e+06
  -3.065142e+06   1.127266e+06
  -3.302851e+06  -1.400743e+06
  -2.325582e+06  -2.750711e+06
  -4.812416e+05  -2.638880e+06
   1.264525e+06  -1.486577e+06
   1.609380e+06  -2.253995e+05
   4.987116e+05   4.900061e+04
  -3.579822e+05  -7.625127e+05
   4.318777e+05  -1.342811e+06
   1.928345e+06  -5.569255e+05
   2.034839e+06   9.126825e+05
   3.722381e+05   1.424030e+06
  -1.184578e+06   5.688246e+05
  -9.012499e+05  -4.539076e+05
   8.383360e+05  -5.208147e+05
   2.187003e+06   3.092796e+05
   1.769986e+06   1.351174e+06
  -2.353226e+05   1.985746e+06
  -2.331572e+06   1.671451e+06
  -2.807428e+06   2.661017e+05
  -1.217025e+06  -1.288802e+06
   9.515807e+05  -1.506323e+06
   1.580482e+06  -1.664722e+05
   1.862491e+05   1.102317e+06
  -1.544613e+06   7.336009e+05
  -1.730220e+06  -8.005072e+05
  -3.327082e+05  -1.663481e+06
   1.097155e+06  -9.745480e+05
   1.256504e+06   3.173442e+05
   2.403251e+05   7.806959e+05
  -8.045651e+05   4.253828e+04
  -7.381688e+05  -1.077018e+06
   5.962554e+05  -1.445520e+06
   2.046277e+06  -5.395795e+05
   2.061829e+06   1.080899e+06
   3.743639e+05   2.107568e+06
  -1.470977e+06   1.652356e+06
  -1.746819e+06   2.003403e+05
  -5.010760e+05  -8.786333e+05
   6.697282e+05  -8.079076e+05
   6.451508e+05  -8.124402e+04
  -1.074202e+05   3.605170e+05
  -4.866861e+05   2.223648e+05
  -1.314028e+05  -4.420296e+04
   4.318087e+05   8.987602e+04
   5.051592e+05   6.752612e+05
  -2.183601e+05   1.190304e+06
  -1.403820e+06   8.956457e+05
  -2.107055e+06  -4.324363e+05
  -1.474086e+06  -1.981138e+06
   2.301194e+05  -2.455457e+06
   1.635394e+06  -1.426554e+06
   1.705318e+06   1.255870e+05
   8.763938e+05   8.980684e+05
   3.438597e+05   6.600122e+05
   4.969934e+05   2.397896e+05
   6.267650e+05   3.363432e+05
   7.749611e+04   7.767784e+05
  -8.902185e+05   9.037200e+05
  -1.461922e+06   3.250168e+05
  -1.064044e+06  -7.264546e+05
   2.477899e+05  -1.471834e+06
   1.742486e+06  -1.080282e+06
   2.274849e+06   4.968965e+05
   1.135974e+06   2.128322e+06
  -1.037774e+06   2.381683e+06
  -2.575333e+06   1.022959e+06
  -2.367482e+06  -6.751781e+05
  -9.620145e+05  -1.344410e+06
   1.979569e+05  -9.484240e+05
   3.832017e+05  -5.272347e+05
   8.588475e+04  -7.841958e+05
   1.246037e+05  -1.334953e+06
   6.961399e+05  -1.299862e+06
   1.317024e+06  -3.102361e+05
   1.353349e+06   1.105582e+06
   5.568160e+05   1.926609e+06
  -6.377236e+05   1.457211e+06
  -1.301646e+06  -7.344798e+03
  -8.113638e+05  -1.302592e+06
   4.044771e+05  -1.404290e+06
   1.169836e+06  -3.935965e+05
   8.009994e+05   7.132996e+05
  -1.409339e+05   1.078053e+06
  -5.465136e+05   7.746512e+05
  -8.220803e+04   4.147761e+05
   4.420011e+05   3.452338e+05
   6.085485e+04   3.909945e+05
  -1.164607e+06   2.019934e+05
  -2.088920e+06  -3.547769e+05
  -1.630460e+06  -1.060039e+06
   5.366562e+04  -1.446659e+06
   1.622408e+06  -1.138700e+06
   1.852887e+06  -2.679760e+05
   8.298202e+05   5.033416e+05
  -2.743050e+05   5.717122e+05
  -5.143616e+05   2.757436e+04
  -2.226657e+04  -4.327866e+05
   4.518551e+05  -2.655194e+05
   4.883049e+05   3.502152e+05
   2.604451e+05   7.437615e+05
   9.922495e+04   4.957968e+05
   1.325549e+05  -9.482218e+04
   2.738548e+05  -3.008686e+05
   2.770561e+05   2.352429e+05
  -1.416793e+05   1.004584e+06
  -9.183496e+05   1.079542e+06
  -1.394184e+06   1.647362e+05
  -8.675517e+05  -9.423582e+05
   4.339282e+05  -1.159573e+06
   1.290486e+06  -3.369152e+05
   7.476031e+05   5.836932e+05
  -7.142147e+05   6.523088e+05
  -1.604015e+06  -1.016020e+05
  -1.007918e+06  -8.681059e+05
   4.922227e+05  -9.876688e+05
   1.507365e+06  -4.747719e+05
   1.237999e+06   1.937859e+05
   1.334623e+05   5.157276e+05
  -6.564915e+05   2.666266e+05
  -3.887233e+05  -3.054198e+05
   5.965912e+05  -5.386073e+05
   1.211026e+06   7.793284e+04
   6.940615e+05   1.206956e+06
  -5.935682e+05   1.746081e+06
  -1.510784e+06   9.131487e+05
  -1.282075e+06  -7.665497e+05
  -2.102872e+05  -1.820942e+06
   7.473987e+05  -1.310294e+06
   9.320614e+05   1.851591e+05
   4.290436e+05   1.206210e+06
  -2.293062e+05   9.704208e+05
  -5.709811e+05   7.797691e+04
  -4.672087e+05  -3.757440e+05
  -1.594137e+05  -1.297873e+05
  -5.079399e+04   9.127416e+04
  -2.929929e+05  -3.169694e+05
  -5.213083e+05  -9.891515e+05
  -1.839712e+05  -1.085660e+06
   7.385229e+05  -3.894129e+05
   1.498133e+06   4.703578e+05
   1.290215e+06   8.420651e+05
   1.852607e+05   7.118036e+05
  -8.572482e+05   4.360054e+05
  -9.938149e+05   1.847719e+05
  -3.722983e+05  -6.657467e+04
   1.438947e+05  -2.339258e+05
   4.576157e+04  -1.930053e+05
  -2.594154e+05  -7.788608e+04
  -5.874466e+04  -1.381059e+05
   6.593592e+05  -2.588439e+05
   1.071316e+06   3.664610e+03
   4.667621e+05   7.199616e+05
  -8.418630e+05   1.223019e+06
  -1.747157e+06   7.851894e+05
  -1.467405e+06  -4.341542e+05
  -2.963279e+05  -1.432427e+06
   7.827392e+05  -1.409669e+06
   1.073819e+06  -5.666154e+05
   6.720756e+05   2.215146e+05
   1.463283e+05   3.690185e+05
  -6.074133e+04   8.725205e+04
   8.244139e+04  -1.803213e+03
   2.966640e+05   3.747680e+05
   2.486776e+05   8.191632e+05
  -1.766122e+05   6.998515e+05
  -6.979078e+05  -1.033406e+05
  -7.787627e+05  -9.569986e+05
  -1.474685e+05  -1.063442e+06
   7.623283e+05  -2.841599e+05
   1.076402e+06   7.106228e+05
   3.776876e+05   1.115461e+06
  -7.249235e+05   7.140462e+05
  -1.154568e+06  -6.507991e+04
  -5.531814e+05  -6.395802e+05
   2.966152e+05  -7.125897e+05
   4.030297e+05  -3.756893e+05
  -2.364834e+05   8.193246e+03
  -6.585351e+05   5.088314e+04
  -1.573318e+05  -3.195066e+05
   8.354758e+05  -6.965247e+05
   1.290870e+06  -5.396978e+05
   7.922594e+05   1.980668e+05
  -9.230480e+04   8.962560e+05
  -5.765600e+05   8.792601e+05
  -4.584597e+05   1.753802e+05
  -7.321635e+04  -4.843492e+05
   2.404765e+05  -4.590183e+05
   3.666801e+05   1.281356e+05
   2.681237e+05   5.870846e+05
  -5.113740e+04   4.553071e+05
  -4.034222e+05  -3.378823e+04
  -4.896128e+05  -2.971554e+05
  -2.441033e+05  -1.077227e+05
   4.033219e+04   1.710992e+05
   7.352854e+04   7.381686e+04
  -4.659411e+04  -3.584907e+05
   1.576907e+04  -5.969168e+05
   3.243016e+05  -2.657110e+05
   5.058286e+05   3.688464e+05
   2.024795e+05   6.691393e+05
  -4.068869e+05   3.390216e+05
  -6.993224e+05  -2.694668e+05
  -2.787918e+05  -5.783295e+05
   5.208980e+05  -3.797494e+05
   9.170186e+05   6.218903e+04
   4.996384e+05   3.816506e+05
  -3.006510e+05   4.271156e+05
  -6.618654e+05   2.569332e+05
  -2.724637e+05   1.927344e+04
   3.362552e+05  -9.826906e+04
   4.162800e+05   3.420189e+04
  -1.449146e+05   2.922879e+05
  -7.257081e+05   2.979012e+05
