
 $NMID
 id='ANONYMOUS ', fmtdat='(2E16.6)'
 volume=1.0
 tramp=1.0
 $END
  -2.604283e+07  -1.411530e+06
  -1.663536e+07  -1.357240e+07
   1.218263e+06  -1.666210e+07
   1.204622e+07  -1.000927e+07
   9.438556e+06  -1.790597e+05
   1.714265e+05   4.742583e+06
  -5.393143e+06   1.847584e+06
  -3.574515e+06  -4.454592e+06
   1.760399e+06  -6.935881e+06
   5.066716e+06  -2.787587e+06
   4.005057e+06   3.587068e+06
   2.355660e+05   5.427771e+06
  -2.553446e+06   1.034431e+06
  -1.728960e+06  -4.508329e+06
   1.845457e+06  -5.112638e+06
   4.382000e+06  -1.789339e+05
   2.903454e+06   5.312995e+06
  -1.593798e+06   6.405692e+06
  -5.172978e+06   2.813032e+06
  -5.019949e+06  -1.759578e+06
  -2.036619e+06  -3.785872e+06
   4.805744e+05  -2.959317e+06
   3.020186e+05  -1.662781e+06
  -1.577410e+06  -2.034335e+06
  -2.011767e+06  -3.676562e+06
   8.852003e+05  -4.235312e+06
   5.238832e+06  -2.181403e+06
   6.843744e+06   1.298471e+06
   3.667212e+06   3.453888e+06
  -1.493123e+06   2.763375e+06
  -3.732849e+06   2.224641e+05
  -1.339610e+06  -1.860516e+06
   2.557258e+06  -1.812451e+06
   3.802155e+06   3.559791e+05
   1.671788e+06   2.955843e+06
  -1.087812e+06   3.663659e+06
  -1.850455e+06   1.590750e+06
  -6.603655e+05  -1.301247e+06
   5.855506e+05  -1.835868e+06
   4.483813e+05   6.244789e+05
  -8.780267e+05   2.964151e+06
  -2.038755e+06   1.962558e+06
  -1.729479e+06  -1.460568e+06
   1.543677e+05  -3.151307e+06
   2.122432e+06  -8.942089e+05
   2.116380e+06   2.815135e+06
  -4.680789e+05   3.827977e+06
  -3.704022e+06   1.088958e+06
  -4.574588e+06  -2.620304e+06
  -1.911610e+06  -4.025527e+06
   2.178933e+06  -2.410232e+06
   4.161077e+06   4.023983e+05
   2.496821e+06   2.080078e+06
  -8.807026e+05   1.619167e+06
  -2.636191e+06  -1.125289e+05
  -1.455606e+06  -1.277433e+06
   8.255108e+05  -8.048216e+05
   1.495880e+06   5.800199e+05
   8.434787e+03   1.224209e+06
  -1.582806e+06   4.093037e+05
  -1.124763e+06  -9.411463e+05
   1.116042e+06  -1.357989e+06
   2.696440e+06  -2.537371e+05
   1.626491e+06   1.699994e+06
  -1.514543e+06   3.112102e+06
  -4.160246e+06   2.719679e+06
  -4.291845e+06   3.386464e+05
  -2.236213e+06  -2.640082e+06
  -1.589141e+02  -4.168150e+06
   9.088080e+05  -3.476320e+06
   7.619659e+05  -1.845860e+06
   8.187472e+05  -9.921752e+05
   1.660295e+06  -9.768360e+05
   2.578219e+06  -4.196248e+05
   2.464722e+06   1.273612e+06
   1.009956e+06   2.747634e+06
  -9.668275e+05   2.236099e+06
  -2.122626e+06  -1.837903e+05
  -1.552576e+06  -2.457873e+06
   4.591374e+05  -2.628671e+06
   2.448394e+06  -6.854212e+05
   2.848485e+06   1.656241e+06
   1.432304e+06   2.705820e+06
  -4.196315e+05   2.206099e+06
  -1.205261e+06   1.200725e+06
  -9.752195e+05   7.480399e+05
  -1.111287e+06   8.557198e+05
  -2.358927e+06   6.447099e+05
  -3.570139e+06  -5.508036e+05
  -2.873283e+06  -2.350333e+06
   1.314945e+04  -3.564927e+06
   3.094380e+06  -3.192387e+06
   3.951696e+06  -1.278102e+06
   2.140191e+06   9.915031e+05
  -4.302685e+05   2.081547e+06
  -1.454921e+06   1.357372e+06
  -4.221190e+05  -2.354869e+05
   1.163171e+06  -9.831505e+05
   1.546623e+06  -1.945028e+05
   4.987396e+05   9.896252e+05
  -6.780046e+05   9.541245e+05
  -6.747595e+05  -3.211760e+05
   4.984128e+05  -1.087399e+06
   1.620781e+06   6.524865e+04
   1.444284e+06   2.351180e+06
  -2.361174e+05   3.488492e+06
  -2.395362e+06   2.145008e+06
  -3.496220e+06  -6.813894e+05
  -2.660539e+06  -2.747531e+06
  -4.865066e+05  -2.738775e+06
   1.329784e+06  -1.272906e+06
   1.508728e+06   2.523622e+03
   4.373410e+05   6.816392e+04
  -2.941805e+05  -6.698035e+05
   2.956510e+05  -1.040028e+06
   1.461734e+06  -4.212013e+05
   1.652381e+06   6.430674e+05
   4.083602e+05   1.098237e+06
  -9.990784e+05   5.289820e+05
  -9.543771e+05  -4.256947e+05
   6.577175e+05  -7.405110e+05
   2.208323e+06   1.637896e+04
   1.968029e+06   1.308624e+06
  -8.821710e+04   2.080571e+06
  -2.197316e+06   1.616648e+06
  -2.539052e+06   1.885436e+05
  -1.005371e+06  -1.064543e+06
   7.858488e+05  -1.109561e+06
   1.170643e+06  -6.478066e+04
   1.977176e+04   8.388826e+05
  -1.327968e+06   5.411205e+05
  -1.514261e+06  -6.671778e+05
  -4.246931e+05  -1.470700e+06
   8.602315e+05  -1.031900e+06
   1.179387e+06   8.933747e+04
   3.737676e+05   6.329947e+05
  -5.873382e+05   5.887047e+04
  -5.489416e+05  -9.278632e+05
   6.305854e+05  -1.188844e+06
   1.818716e+06  -3.051112e+05
   1.710289e+06   1.066044e+06
   2.392239e+05   1.824602e+06
  -1.279032e+06   1.391801e+06
  -1.517184e+06   1.886963e+05
  -4.951440e+05  -7.558245e+05
   5.777574e+05  -7.419143e+05
   6.805875e+05  -2.278422e+04
  -3.712480e+04   5.242188e+05
  -6.244921e+05   3.634500e+05
  -4.350923e+05  -1.421179e+05
   2.432503e+05  -2.097803e+05
   5.455112e+05   3.958120e+05
  -6.986958e+04   1.017484e+06
  -1.213697e+06   7.822721e+05
  -1.833906e+06  -4.354286e+05
  -1.199976e+06  -1.788016e+06
   3.187573e+05  -2.198638e+06
   1.552177e+06  -1.340035e+06
   1.673524e+06   8.441661e+04
   9.533616e+05   1.006690e+06
   3.044102e+05   9.623169e+05
   2.160221e+05   4.289375e+05
   3.270233e+05   2.144377e+05
   1.999950e+04   5.403412e+05
  -7.599575e+05   8.100197e+05
  -1.366588e+06   3.379429e+05
  -1.069097e+06  -7.524150e+05
   1.997090e+05  -1.492928e+06
   1.626919e+06  -1.013057e+06
   2.073210e+06   5.093847e+05
   1.029550e+06   1.907697e+06
  -8.450673e+05   2.070454e+06
  -2.206800e+06   9.364621e+05
  -2.177911e+06  -5.211847e+05
  -1.057233e+06  -1.255450e+06
   1.026556e+05  -1.071927e+06
   5.459044e+05  -6.352637e+05
   3.944288e+05  -6.274656e+05
   2.883540e+05  -9.801671e+05
   6.075069e+05  -9.916072e+05
   1.082088e+06  -1.827680e+05
   1.101123e+06   1.053508e+06
   3.785653e+05   1.739663e+06
  -6.581998e+05   1.257634e+06
  -1.175626e+06  -3.061199e+04
  -7.215419e+05  -1.110692e+06
   2.803768e+05  -1.228638e+06
   9.132870e+05  -4.819032e+05
   6.897725e+05   4.111194e+05
   2.052304e+04   8.282931e+05
  -3.002963e+05   7.200493e+05
  -1.220528e+04   4.655503e+05
   3.269321e+05   3.714198e+05
   4.664880e+03   3.666203e+05
  -9.669568e+05   1.636639e+05
  -1.729538e+06  -3.512098e+05
  -1.402080e+06  -9.362339e+05
  -3.640544e+04  -1.190221e+06
   1.320256e+06  -9.066991e+05
   1.606956e+06  -2.609509e+05
   7.864187e+05   3.057431e+05
  -1.853302e+05   4.166389e+05
  -4.170978e+05   8.201585e+04
   4.411646e+04  -2.674570e+05
   4.699522e+05  -1.723385e+05
   3.928160e+05   3.363106e+05
   5.079951e+04   6.946291e+05
  -6.699515e+04   4.373292e+05
   1.506392e+05  -1.698972e+05
   3.783498e+05  -3.561745e+05
   2.610807e+05   2.110401e+05
  -2.513010e+05   9.215838e+05
  -8.582517e+05   8.842462e+05
  -1.070112e+06   3.674685e+03
  -5.580096e+05  -8.642310e+05
   4.279954e+05  -8.762762e+05
   1.051335e+06  -1.105627e+05
   6.055035e+05   5.989003e+05
  -6.351293e+05   5.766151e+05
  -1.493484e+06  -9.992104e+04
  -1.043922e+06  -8.097853e+05
   3.659903e+05  -9.888007e+05
   1.429868e+06  -5.402375e+05
   1.233796e+06   1.471901e+05
   1.615653e+05   5.091522e+05
  -5.902163e+05   2.745347e+05
  -2.912030e+05  -2.414639e+05
   6.160880e+05  -3.706407e+05
   1.046132e+06   2.384067e+05
   4.162084e+05   1.150788e+06
  -7.715419e+05   1.448531e+06
  -1.460516e+06   6.218845e+05
  -1.086966e+06  -8.138002e+05
  -5.683369e+04  -1.674953e+06
   7.605325e+05  -1.207493e+06
   8.654718e+05   1.358253e+05
   4.109979e+05   1.109864e+06
  -1.531812e+05   9.431511e+05
  -4.894686e+05   9.265973e+04
  -4.821795e+05  -3.970990e+05
  -2.272631e+05  -1.698627e+05
  -1.825587e+04   1.144717e+05
  -1.169106e+05  -2.168279e+05
  -3.639809e+05  -8.847005e+05
  -2.160334e+05  -1.026225e+06
   5.574639e+05  -3.479864e+05
   1.340791e+06   5.180339e+05
   1.222637e+06   8.498080e+05
   1.413986e+05   6.304724e+05
  -8.925278e+05   3.159657e+05
  -9.471027e+05   1.382745e+05
  -2.579922e+05  -1.340360e+04
   1.799691e+05  -1.861021e+05
  -5.228823e+04  -2.440569e+05
  -3.392666e+05  -1.693358e+05
   5.170310e+03  -1.281695e+05
   7.315875e+05  -1.223413e+05
   9.377945e+05   1.119793e+05
   1.924849e+05   6.309794e+05
  -9.436487e+05   9.450238e+05
  -1.523162e+06   5.003859e+05
  -1.120915e+06  -5.407517e+05
  -1.105382e+05  -1.315815e+06
   7.633058e+05  -1.167075e+06
   9.859644e+05  -3.460116e+05
   5.915107e+05   3.166822e+05
   5.180201e+04   3.304512e+05
  -1.542202e+05  -1.245310e+04
   4.665215e+04  -8.234665e+04
   2.986476e+05   3.278570e+05
   2.106487e+05   7.554195e+05
  -2.298006e+05   5.822121e+05
  -6.265557e+05  -2.280518e+05
  -5.405755e+05  -9.810494e+05
   7.731796e+04  -9.283334e+05
   7.560424e+05  -7.282207e+04
   8.523914e+05   8.160041e+05
   1.753580e+05   1.006877e+06
  -7.084585e+05   4.923487e+05
  -9.624930e+05  -1.731472e+05
  -3.888567e+05  -5.255170e+05
   2.971117e+05  -5.087590e+05
   2.907568e+05  -2.920507e+05
  -3.091222e+05  -6.590316e+04
  -6.158867e+05  -2.692214e+04
  -8.224504e+04  -2.719714e+05
   8.007852e+05  -5.706679e+05
   1.114984e+06  -4.719565e+05
   5.991627e+05   1.418197e+05
  -1.555844e+05   7.489874e+05
  -4.858776e+05   7.089673e+05
  -3.083818e+05   5.980867e+04
   3.422598e+04  -4.724183e+05
   2.625066e+05  -3.306879e+05
   3.092333e+05   2.367506e+05
   1.765220e+05   5.459640e+05
  -9.520230e+04   3.128611e+05
  -3.467063e+05  -1.028816e+05
  -3.887986e+05  -2.342949e+05
  -2.161081e+05  -5.715618e+04
  -1.460972e+04   7.575532e+04
   7.946644e+04  -7.997718e+04
   1.257660e+05  -3.647248e+05
   2.322296e+05  -4.014545e+05
   3.453636e+05  -3.101216e+04
   2.798829e+05   4.637755e+05
  -4.330286e+04   6.036242e+05
  -4.314259e+05   2.147249e+05
  -5.282835e+05  -3.516258e+05
  -1.461821e+05  -5.689701e+05
   4.649108e+05  -2.846051e+05
   7.487950e+05   1.663296e+05
   3.842717e+05   3.796416e+05
  -2.931488e+05   2.841719e+05
  -5.726381e+05   9.007700e+04
  -1.680407e+05  -1.030253e+04
   4.001289e+05   3.152000e+04
   3.932826e+05   1.767481e+05
  -2.472685e+05   2.988997e+05
  -8.096167e+05   1.801784e+05
