
 $NMID
 id='ANONYMOUS ', fmtdat='(2E16.6)'
 volume=1.0
 tramp=1.0
 $END
   2.858964e+07  -9.428290e+04
   1.879838e+07   1.385611e+07
  -4.666671e+05   1.816794e+07
  -1.239028e+07   1.147093e+07
  -1.001351e+07   7.245477e+05
  -4.066033e+05  -5.042158e+06
   5.616941e+06  -2.270981e+06
   4.061899e+06   4.534540e+06
  -1.422607e+06   7.505387e+06
  -5.237778e+06   3.294264e+06
  -4.579650e+06  -3.605401e+06
  -6.537946e+05  -5.847089e+06
   2.707725e+06  -1.312601e+06
   2.234458e+06   4.719532e+06
  -1.595980e+06   5.614602e+06
  -4.697931e+06   4.686457e+05
  -3.489762e+06  -5.546467e+06
   1.293737e+06  -7.033143e+06
   5.432481e+06  -3.407911e+06
   5.616039e+06   1.572596e+06
   2.507853e+06   4.039841e+06
  -3.677890e+05   3.335951e+06
  -3.286502e+05   1.814472e+06
   1.797083e+06   1.953792e+06
   2.511394e+06   3.700159e+06
  -5.428459e+05   4.642306e+06
  -5.473224e+06   2.842080e+06
  -7.538141e+06  -8.205236e+05
  -4.269324e+06  -3.472775e+06
   1.392009e+06  -3.174926e+06
   4.043572e+06  -6.043378e+05
   1.667554e+06   1.874040e+06
  -2.520122e+06   2.202034e+06
  -4.092125e+06   1.381251e+04
  -2.096259e+06  -2.989142e+06
   8.102294e+05  -4.053271e+06
   1.885536e+06  -1.902172e+06
   8.898984e+05   1.376083e+06
  -4.710158e+05   2.105608e+06
  -6.063128e+05  -5.896948e+05
   6.386438e+05  -3.272017e+06
   2.018757e+06  -2.279651e+06
   1.946004e+06   1.458132e+06
  -3.800397e+03   3.386291e+06
  -2.286130e+06   1.028676e+06
  -2.472120e+06  -2.978902e+06
   3.011085e+05  -4.196159e+06
   3.970771e+06  -1.432285e+06
   5.132552e+06   2.487987e+06
   2.355904e+06   4.171834e+06
  -2.149535e+06   2.743698e+06
  -4.479420e+06  -1.097254e+05
  -2.812305e+06  -2.023555e+06
   8.494981e+05  -1.774294e+06
   2.844002e+06  -4.460738e+04
   1.634013e+06   1.276995e+06
  -8.489345e+05   9.185328e+05
  -1.641622e+06  -5.045566e+05
  -9.420093e+04  -1.267719e+06
   1.619019e+06  -5.112055e+05
   1.186245e+06   9.134787e+05
  -1.154648e+06   1.476729e+06
  -2.868377e+06   4.192780e+05
  -1.848757e+06  -1.730269e+06
   1.393338e+06  -3.496747e+06
   4.266888e+06  -3.302609e+06
   4.627402e+06  -7.295258e+05
   2.659069e+06   2.688148e+06
   3.407218e+05   4.515289e+06
  -7.097058e+05   3.794497e+06
  -6.465955e+05   2.001298e+06
  -7.351283e+05   1.128520e+06
  -1.653865e+06   1.242002e+06
  -2.740727e+06   7.349631e+05
  -2.800152e+06  -1.122945e+06
  -1.365034e+06  -2.863273e+06
   8.187315e+05  -2.502595e+06
   2.289701e+06  -1.030001e+04
   1.890989e+06   2.491332e+06
  -2.587822e+05   2.870855e+06
  -2.589545e+06   9.601283e+05
  -3.236073e+06  -1.548809e+06
  -1.780464e+06  -2.827363e+06
   2.927937e+05  -2.441551e+06
   1.235074e+06  -1.393649e+06
   1.005004e+06  -8.653646e+05
   1.119644e+06  -9.962467e+05
   2.473796e+06  -8.865357e+05
   3.880336e+06   2.890728e+05
   3.287402e+06   2.278140e+06
   2.949664e+05   3.830917e+06
  -3.044000e+06   3.706265e+06
  -4.138544e+06   1.731954e+06
  -2.401836e+06  -8.742234e+05
   2.666582e+05  -2.287414e+06
   1.444911e+06  -1.598670e+06
   4.794084e+05   2.187446e+05
  -1.167169e+06   1.164088e+06
  -1.651579e+06   3.368147e+05
  -6.217976e+05  -1.031648e+06
   6.465446e+05  -1.085593e+06
   7.459676e+05   2.839909e+05
  -4.412455e+05   1.189348e+06
  -1.719574e+06   4.556645e+04
  -1.714443e+06  -2.389188e+06
  -3.500011e+04  -3.718917e+06
   2.359627e+06  -2.472455e+06
   3.777808e+06   4.237751e+05
   3.083740e+06   2.690696e+06
   7.687160e+05   2.883372e+06
  -1.310411e+06   1.486616e+06
  -1.619910e+06   1.339917e+05
  -4.743784e+05  -3.489141e+04
   3.738234e+05   6.955092e+05
  -2.352713e+05   1.144079e+06
  -1.541847e+06   5.720474e+05
  -1.827229e+06  -5.590269e+05
  -5.228780e+05  -1.148002e+06
   1.031959e+06  -6.514130e+05
   1.060624e+06   3.736462e+05
  -6.369338e+05   8.474113e+05
  -2.360089e+06   1.774636e+05
  -2.220212e+06  -1.220251e+06
  -9.161904e+04  -2.230038e+06
   2.210618e+06  -1.925075e+06
   2.706421e+06  -4.234623e+05
   1.167894e+06   1.059468e+06
  -7.564134e+05   1.260770e+06
  -1.257743e+06   1.639049e+05
  -9.141310e+04  -9.070655e+05
   1.383725e+06  -6.962155e+05
   1.681427e+06   5.881827e+05
   5.772783e+05   1.538550e+06
  -8.345946e+05   1.172960e+06
  -1.267166e+06  -1.367683e+02
  -4.479942e+05  -6.475426e+05
   6.320593e+05  -1.116282e+05
   6.751958e+05   9.531534e+05
  -5.721160e+05   1.338660e+06
  -1.930146e+06   4.920130e+05
  -1.933953e+06  -9.952599e+05
  -4.156681e+05  -1.940214e+06
   1.254414e+06  -1.603831e+06
   1.610407e+06  -3.303282e+05
   5.916384e+05   7.689935e+05
  -5.585644e+05   8.443240e+05
  -7.283579e+05   8.425013e+04
  -8.610834e+03  -5.631922e+05
   6.321915e+05  -4.473756e+05
   4.769162e+05   1.049938e+05
  -2.376922e+05   2.389471e+05
  -6.137266e+05  -3.768387e+05
  -1.236306e+04  -1.095203e+06
   1.233455e+06  -9.459667e+05
   2.007659e+06   3.055859e+05
   1.446892e+06   1.814662e+06
  -1.474370e+05   2.387389e+06
  -1.544162e+06   1.571584e+06
  -1.796567e+06   5.757696e+04
  -1.108566e+06  -9.866565e+05
  -4.173167e+05  -9.948357e+05
  -2.791179e+05  -4.394997e+05
  -3.740515e+05  -2.069024e+05
  -6.865509e+04  -5.808728e+05
   7.420111e+05  -9.345777e+05
   1.431693e+06  -4.851155e+05
   1.212633e+06   7.050437e+05
  -7.771433e+04   1.613276e+06
  -1.651920e+06   1.231052e+06
  -2.268761e+06  -3.611969e+05
  -1.271365e+06  -1.956206e+06
   7.290172e+05  -2.295201e+06
   2.287549e+06  -1.194452e+06
   2.377932e+06   3.705398e+05
   1.238951e+06   1.249463e+06
  -1.420162e+04   1.151685e+06
  -5.216250e+05   7.289925e+05
  -3.619498e+05   7.153198e+05
  -2.239419e+05   1.084596e+06
  -5.690175e+05   1.119858e+06
  -1.148836e+06   2.906251e+05
  -1.276750e+06  -1.034590e+06
  -5.607664e+05  -1.835037e+06
   5.955728e+05  -1.409121e+06
   1.264456e+06  -7.005995e+04
   8.701623e+05   1.130256e+06
  -1.962300e+05   1.341572e+06
  -9.388015e+05   5.909949e+05
  -7.726496e+05  -3.866848e+05
  -8.848350e+04  -8.875315e+05
   2.636311e+05  -7.950369e+05
  -2.712155e+04  -4.968885e+05
  -3.856921e+05  -3.683309e+05
  -3.922486e+04  -3.924084e+05
   1.024107e+06  -2.598733e+05
   1.889624e+06   2.257305e+05
   1.587267e+06   8.827613e+05
   1.393344e+05   1.275627e+06
  -1.342335e+06   1.088939e+06
  -1.701997e+06   4.182057e+05
  -8.668594e+05  -2.627877e+05
   1.651238e+05  -4.644216e+05
   4.400968e+05  -1.225527e+05
  -2.374037e+04   2.935419e+05
  -4.871609e+05   2.276861e+05
  -4.512761e+05  -3.259449e+05
  -1.200510e+05  -7.415162e+05
   3.003746e+04  -4.770093e+05
  -1.439520e+05   1.939009e+05
  -3.698863e+05   4.159501e+05
  -2.994462e+05  -2.018749e+05
   1.836544e+05  -1.011529e+06
   8.426566e+05  -1.027466e+06
   1.154368e+06  -1.000656e+05
   6.805019e+05   8.802970e+05
  -3.832785e+05   9.821303e+05
  -1.122733e+06   2.141360e+05
  -7.040931e+05  -5.879722e+05
   6.306070e+05  -6.736192e+05
   1.608323e+06  -2.446066e+04
   1.186994e+06   7.737833e+05
  -3.059540e+05   1.088247e+06
  -1.482124e+06   7.026445e+05
  -1.332562e+06  -4.871468e+04
  -2.173575e+05  -5.301826e+05
   6.089100e+05  -3.450840e+05
   3.347867e+05   2.356029e+05
  -6.280513e+05   4.557774e+05
  -1.146492e+06  -1.605343e+05
  -5.531142e+05  -1.198964e+06
   6.964505e+05  -1.626742e+06
   1.511556e+06  -8.004904e+05
   1.239477e+06   7.752790e+05
   2.110144e+05   1.791403e+06
  -7.071958e+05   1.361516e+06
  -9.388909e+05  -7.022966e+04
  -5.377474e+05  -1.153357e+06
   8.218763e+04  -1.022924e+06
   5.174749e+05  -1.417663e+05
   5.513837e+05   3.815126e+05
   2.573256e+05   1.602633e+05
   1.004758e+04  -1.230122e+05
   1.473560e+05   2.259413e+05
   4.701211e+05   9.185827e+05
   3.203114e+05   1.079946e+06
  -5.703063e+05   4.205741e+05
  -1.484240e+06  -4.361770e+05
  -1.384804e+06  -8.012855e+05
  -2.074723e+05  -6.640690e+05
   9.270536e+05  -4.201414e+05
   1.002464e+06  -2.324920e+05
   2.791669e+05  -6.241269e+03
  -1.759307e+05   2.162468e+05
   7.587081e+04   2.538947e+05
   3.775521e+05   1.480130e+05
   7.647400e+03   1.387226e+05
  -7.716442e+05   1.999167e+05
  -1.017700e+06  -3.558691e+04
  -2.672169e+05  -6.630015e+05
   9.265933e+05  -1.101974e+06
   1.593301e+06  -6.742990e+05
   1.255969e+06   4.803084e+05
   2.379317e+05   1.402357e+06
  -7.159099e+05   1.321729e+06
  -1.028494e+06   4.620947e+05
  -6.641423e+05  -2.849034e+05
  -8.678733e+04  -3.510702e+05
   1.650445e+05  -3.801472e+03
  -4.253892e+04   9.009982e+04
  -3.482364e+05  -3.253714e+05
  -2.926173e+05  -7.917691e+05
   1.946053e+05  -6.468254e+05
   6.938786e+05   1.865305e+05
   6.709372e+05   1.004025e+06
   2.951846e+03   1.005544e+06
  -8.048208e+05   1.494239e+05
  -9.902432e+05  -7.975078e+05
  -2.802391e+05  -1.066132e+06
   7.168690e+05  -5.943791e+05
   1.050608e+06   9.933100e+04
   4.654473e+05   5.320807e+05
  -2.747375e+05   5.756001e+05
  -2.888686e+05   3.392856e+05
   3.353077e+05   4.069968e+04
   6.629578e+05  -2.727777e+04
   1.133512e+05   2.853981e+05
  -8.082874e+05   6.838984e+05
  -1.155821e+06   6.033323e+05
  -6.573141e+05  -1.019574e+05
   1.003098e+05  -8.190113e+05
   4.608064e+05  -8.044067e+05
   3.291037e+05  -9.247613e+04
   7.552121e+03   5.096852e+05
  -2.522195e+05   3.801698e+05
  -3.541160e+05  -2.239268e+05
  -2.388859e+05  -5.702803e+05
   7.455830e+04  -3.468140e+05
   3.820223e+05   7.843724e+04
   4.383219e+05   2.187604e+05
   2.363139e+05   4.342966e+04
   8.596758e+03  -8.514009e+04
  -7.625422e+04   8.913905e+04
  -9.831260e+04   4.029438e+05
  -2.099923e+05   4.566288e+05
  -3.685801e+05   6.922126e+04
  -3.465034e+05  -4.714941e+05
  -1.205355e+04  -6.535091e+05
   4.431639e+05  -2.710131e+05
   6.010416e+05   3.291521e+05
   2.098055e+05   5.972796e+05
  -4.743553e+05   3.473319e+05
  -8.207449e+05  -1.109231e+05
  -4.473375e+05  -3.733818e+05
   2.901663e+05  -3.331263e+05
   6.083930e+05  -1.498114e+05
   1.832026e+05  -3.390478e+03
  -4.308930e+05   5.163403e+03
  -4.383281e+05  -1.514600e+05
   2.358462e+05  -3.425674e+05
   8.495700e+05  -2.678439e+05
