
 $NMID
 id='ANONYMOUS ', fmtdat='(2E16.6)'
 volume=1.0
 tramp=1.0
 $END
   4.597022e+07  -5.554630e+04
   2.785831e+07   2.824609e+07
  -5.819945e+06   3.112017e+07
  -2.249757e+07   1.225479e+07
  -1.364921e+07  -5.488616e+06
   2.574513e+06  -7.683745e+06
   8.125876e+06   8.281179e+05
   2.445965e+06   8.004341e+06
  -5.008680e+06   7.832264e+06
  -7.944756e+06   1.768484e+06
  -5.765648e+06  -5.104234e+06
  -6.567534e+05  -7.113448e+06
   3.294247e+06  -2.224802e+06
   2.164953e+06   4.573869e+06
  -3.098207e+06   5.491183e+06
  -6.493519e+06  -1.030558e+06
  -3.701277e+06  -8.372973e+06
   3.059892e+06  -9.706781e+06
   8.266350e+06  -4.848759e+06
   8.819485e+06   1.695028e+06
   5.359573e+06   6.096754e+06
   5.592661e+05   6.980581e+06
  -2.273129e+06   4.897973e+06
  -1.362809e+06   2.298315e+06
   9.632579e+05   1.955730e+06
   1.195034e+05   3.541715e+06
  -4.577648e+06   3.572931e+06
  -8.018501e+06   2.997884e+05
  -5.769081e+06  -3.456166e+06
  -1.108708e+05  -4.135811e+06
   3.145111e+06  -2.018137e+06
   2.004524e+06   1.050130e+05
  -6.637564e+05   8.236433e+05
  -2.032240e+06   3.267657e+05
  -1.804828e+06  -1.323437e+06
  -4.579580e+05  -3.306988e+06
   1.522052e+06  -3.124347e+06
   2.564522e+06   1.428534e+05
   1.316324e+06   2.951110e+06
  -6.082303e+05   1.472643e+06
  -1.903947e+05  -2.111012e+06
   2.076067e+06  -1.935643e+06
   2.049418e+06   2.609706e+06
  -1.903074e+06   5.053793e+06
  -5.604630e+06   8.975637e+05
  -4.191324e+06  -5.609432e+06
   1.504128e+06  -6.968445e+06
   6.074504e+06  -1.991240e+06
   5.773460e+06   3.673744e+06
   1.576842e+06   5.023611e+06
  -2.890920e+06   2.294758e+06
  -4.425041e+06  -1.241088e+06
  -2.076963e+06  -2.898776e+06
   1.962699e+06  -1.847442e+06
   3.743851e+06   7.291331e+05
   1.638165e+06   2.228115e+06
  -1.404708e+06   1.135831e+06
  -1.470605e+06  -8.537316e+05
   1.048608e+06  -8.214563e+05
   2.081272e+06   1.347160e+06
  -3.817032e+05   2.791696e+06
  -3.709071e+06   1.620347e+06
  -4.365878e+06  -1.032351e+06
  -1.946496e+06  -3.239510e+06
   1.514412e+06  -4.341115e+06
   4.211394e+06  -3.974261e+06
   5.145160e+06  -1.390510e+06
   3.742018e+06   2.648400e+06
   7.389150e+05   5.124144e+06
  -1.531688e+06   3.992171e+06
  -1.456427e+06   1.094233e+06
  -2.064466e+05  -1.412107e+05
  -9.886499e+04   8.093447e+05
  -1.427373e+06   1.411086e+06
  -2.361076e+06   9.057672e+04
  -1.642770e+06  -1.705618e+06
   6.056509e+04  -1.829747e+06
   1.367410e+06  -1.312947e+05
   1.413031e+06   1.814924e+06
  -4.075412e+04   2.487668e+06
  -2.341427e+06   1.340436e+06
  -3.702117e+06  -1.049415e+06
  -2.630878e+06  -3.132947e+06
   4.712964e+04  -3.472365e+06
   1.863841e+06  -2.227435e+06
   1.824983e+06  -9.564997e+05
   1.529100e+06  -5.990407e+05
   2.490494e+06  -4.142118e+05
   3.677825e+06   6.537419e+05
   2.939650e+06   2.359313e+06
   8.367762e+04   3.505436e+06
  -2.761184e+06   3.283209e+06
  -3.570310e+06   1.741573e+06
  -2.235478e+06  -4.081511e+05
  -1.782758e+05  -1.899984e+06
   9.719495e+05  -1.610781e+06
   4.717265e+05   4.534948e+04
  -9.441185e+05   1.096273e+06
  -1.616530e+06   3.226190e+05
  -7.610927e+05  -1.021849e+06
   4.610672e+05  -9.416021e+05
   3.826629e+05   3.392523e+05
  -8.946292e+05   6.270828e+05
  -1.595347e+06  -1.040259e+06
  -5.990044e+05  -2.946060e+06
   1.312816e+06  -2.949191e+06
   2.681547e+06  -1.008138e+06
   2.856640e+06   1.225808e+06
   1.954720e+06   2.397767e+06
   3.671560e+05   2.255482e+06
  -1.080461e+06   1.235751e+06
  -1.350574e+06   1.710624e+05
  -4.201005e+05  -4.392475e+04
   2.999269e+05   6.450359e+05
  -3.557925e+05   1.137360e+06
  -1.620871e+06   4.816779e+05
  -1.727991e+06  -7.628055e+05
  -3.258382e+05  -1.208027e+06
   1.005448e+06  -4.821663e+05
   7.648954e+05   4.010236e+05
  -7.314531e+05   4.540734e+05
  -1.880903e+06  -2.833967e+05
  -1.498504e+06  -1.187167e+06
   2.286886e+05  -1.701531e+06
   1.996553e+06  -1.400641e+06
   2.376722e+06  -2.087707e+05
   1.029570e+06   1.087662e+06
  -7.915561e+05   1.268984e+06
  -1.324634e+06   1.506442e+05
  -1.596790e+05  -9.177853e+05
   1.300736e+06  -6.148929e+05
   1.465016e+06   6.815940e+05
   2.802043e+05   1.420432e+06
  -9.425347e+05   8.360240e+05
  -1.080629e+06  -2.721466e+05
  -2.109337e+05  -6.728709e+05
   6.787004e+05  -4.371572e+04
   6.193149e+05   9.055019e+05
  -5.067336e+05   1.210327e+06
  -1.721308e+06   4.425088e+05
  -1.729208e+06  -9.177879e+05
  -3.091560e+05  -1.777459e+06
   1.245527e+06  -1.393234e+06
   1.480111e+06  -1.658625e+05
   4.247281e+05   7.493398e+05
  -5.717311e+05   6.838524e+05
  -5.464532e+05   5.601421e+04
   1.067655e+05  -3.164553e+05
   4.329443e+05  -1.765394e+05
   1.136933e+05   6.705998e+04
  -3.838501e+05  -5.677094e+04
  -4.447659e+05  -5.748609e+05
   1.824389e+05  -1.015879e+06
   1.190503e+06  -7.550157e+05
   1.777437e+06   3.736457e+05
   1.234392e+06   1.676211e+06
  -2.102545e+05   2.070280e+06
  -1.400270e+06   1.196220e+06
  -1.451613e+06  -1.251065e+05
  -7.279982e+05  -7.855562e+05
  -2.583833e+05  -5.734256e+05
  -3.948466e+05  -1.945547e+05
  -5.282749e+05  -2.661520e+05
  -7.268143e+04  -6.492131e+05
   7.573565e+05  -7.644980e+05
   1.245928e+06  -2.654007e+05
   8.938802e+05   6.334459e+05
  -2.302015e+05   1.253669e+06
  -1.487362e+06   9.032675e+05
  -1.921076e+06  -4.367739e+05
  -9.527854e+05  -1.809499e+06
   8.823887e+05  -2.017582e+06
   2.184855e+06  -8.634007e+05
   2.011394e+06   5.847619e+05
   8.114798e+05   1.160973e+06
  -1.873857e+05   8.163017e+05
  -3.472148e+05   4.342911e+05
  -8.139310e+04   6.359636e+05
  -1.006136e+05   1.108857e+06
  -5.814590e+05   1.093400e+06
  -1.106293e+06   2.612497e+05
  -1.132558e+06  -9.362850e+05
  -4.575123e+05  -1.625746e+06
   5.462677e+05  -1.223026e+06
   1.101160e+06   1.387648e+04
   6.856496e+05   1.105016e+06
  -3.440587e+05   1.193438e+06
  -9.986635e+05   3.432681e+05
  -6.925828e+05  -5.979825e+05
   1.083690e+05  -9.197090e+05
   4.621811e+05  -6.698044e+05
   7.696388e+04  -3.592152e+05
  -3.655034e+05  -2.912461e+05
  -4.665482e+04  -3.281637e+05
   9.836662e+05  -1.711594e+05
   1.760586e+06   3.002328e+05
   1.375465e+06   9.006008e+05
  -4.084744e+04   1.228477e+06
  -1.366203e+06   9.638802e+05
  -1.570939e+06   2.233669e+05
  -7.138148e+05  -4.287228e+05
   2.253594e+05  -4.846236e+05
   4.390042e+05  -2.641962e+04
   2.420692e+04   3.575458e+05
  -3.811576e+05   2.153962e+05
  -4.087632e+05  -2.962515e+05
  -2.085894e+05  -6.178097e+05
  -7.690028e+04  -4.078468e+05
  -1.206807e+05   8.009565e+04
  -2.449650e+05   2.459401e+05
  -2.339801e+05  -2.017058e+05
   1.308717e+05  -8.412644e+05
   7.777608e+05  -9.045485e+05
   1.164257e+06  -1.422853e+05
   7.213872e+05   7.856635e+05
  -3.614654e+05   9.716287e+05
  -1.076046e+06   2.811326e+05
  -6.223864e+05  -4.955569e+05
   6.074126e+05  -5.494490e+05
   1.359814e+06   9.842962e+04
   8.522217e+05   7.526362e+05
  -4.274061e+05   8.441146e+05
  -1.291303e+06   3.928144e+05
  -1.054420e+06  -1.790461e+05
  -1.083510e+05  -4.425647e+05
   5.603630e+05  -2.239016e+05
   3.284938e+05   2.548880e+05
  -5.018587e+05   4.431201e+05
  -1.010842e+06  -7.444087e+04
  -5.697112e+05  -1.011824e+06
   5.101438e+05  -1.453438e+06
   1.272352e+06  -7.512588e+05
   1.070393e+06   6.549594e+05
   1.615977e+05   1.534815e+06
  -6.452233e+05   1.100561e+06
  -7.922787e+05  -1.626411e+05
  -3.564329e+05  -1.027108e+06
   2.029028e+05  -8.278188e+05
   4.851640e+05  -6.592402e+04
   3.914411e+05   3.277063e+05
   1.330976e+05   1.192907e+05
   4.512126e+04  -8.041449e+04
   2.470590e+05   2.559672e+05
   4.335986e+05   8.322125e+05
   1.483037e+05   9.266303e+05
  -6.238472e+05   3.347631e+05
  -1.259342e+06  -4.087640e+05
  -1.083899e+06  -7.281260e+05
  -1.533410e+05  -6.017416e+05
   7.267229e+05  -3.528642e+05
   8.426730e+05  -1.464133e+05
   3.161908e+05   5.052350e+04
  -1.229012e+05   1.926459e+05
  -4.212143e+04   1.732410e+05
   2.151630e+05   7.919019e+04
   4.674439e+04   1.128107e+05
  -5.559949e+05   2.011575e+05
  -8.982037e+05  -1.013897e+04
  -3.853810e+05  -5.936714e+05
   7.135371e+05  -1.011921e+06
   1.466294e+06  -6.533909e+05
   1.222400e+06   3.645230e+05
   2.363792e+05   1.203784e+06
  -6.642970e+05   1.182389e+06
  -9.003766e+05   4.674968e+05
  -5.585538e+05  -1.940865e+05
  -1.194954e+05  -3.069880e+05
   4.809797e+04  -6.252159e+04
  -7.535785e+04   6.108945e+03
  -2.513531e+05  -3.212584e+05
  -2.047124e+05  -6.949595e+05
   1.518038e+05  -5.848429e+05
   5.800336e+05   9.561669e+04
   6.400073e+05   8.061982e+05
   1.146582e+05   8.841310e+05
  -6.352429e+05   2.250582e+05
  -8.904667e+05  -6.044032e+05
  -3.085157e+05  -9.341041e+05
   6.078309e+05  -5.917590e+05
   9.662423e+05   5.880356e+04
   4.657585e+05   5.343091e+05
  -2.453931e+05   5.953342e+05
  -3.372198e+05   3.204676e+05
   1.979456e+05   4.470309e+03
   5.532992e+05  -3.543282e+04
   1.309015e+05   2.662660e+05
  -7.086769e+05   5.801984e+05
  -1.093856e+06   4.541277e+05
  -6.693248e+05  -1.614599e+05
   8.062077e+04  -7.512383e+05
   4.852640e+05  -7.419706e+05
   3.779419e+05  -1.512296e+05
   5.322828e+04   4.040851e+05
  -2.011072e+05   3.812272e+05
  -2.996745e+05  -1.129785e+05
  -2.206117e+05  -4.942786e+05
   3.959039e+04  -3.782830e+05
   3.353384e+05   3.185810e+04
   4.142539e+05   2.489711e+05
   2.093660e+05   9.084195e+04
  -3.779451e+04  -1.384108e+05
  -7.408021e+04  -5.890084e+04
   2.851392e+04   2.920959e+05
  -1.308382e+04   4.836418e+05
  -2.613961e+05   2.120528e+05
  -4.101918e+05  -3.056758e+05
  -1.602902e+05  -5.500974e+05
   3.415468e+05  -2.769042e+05
   5.790374e+05   2.275728e+05
   2.258417e+05   4.847966e+05
  -4.386148e+05   3.175099e+05
  -7.653021e+05  -5.501960e+04
  -4.163243e+05  -3.219466e+05
   2.496919e+05  -3.551533e+05
   5.500867e+05  -2.113557e+05
   2.261061e+05  -2.016788e+04
  -2.792370e+05   6.965530e+04
  -3.415855e+05  -3.760925e+04
   1.311691e+05  -2.388782e+05
   6.148633e+05  -2.332745e+05
