
 $NMID
 id='ANONYMOUS ', fmtdat='(2E16.6)'
 volume=1.0
 tramp=1.0
 $END
  -4.684773e+07   2.667848e+05
  -2.897550e+07  -2.779957e+07
   4.986521e+06  -3.154214e+07
   2.258527e+07  -1.358255e+07
   1.443188e+07   4.554172e+06
  -2.083022e+06   7.959884e+06
  -8.481654e+06  -1.325053e+05
  -3.164066e+06  -8.092755e+06
   4.712523e+06  -8.687334e+06
   8.213209e+06  -2.372591e+06
   6.139416e+06   5.297418e+06
   7.398235e+05   7.600866e+06
  -3.496805e+06   2.260978e+06
  -2.394913e+06  -5.117832e+06
   3.107350e+06  -6.149827e+06
   6.814014e+06   7.690394e+05
   4.091424e+06   8.637941e+06
  -2.960345e+06   1.017831e+07
  -8.499719e+06   5.074514e+06
  -9.028137e+06  -1.820193e+06
  -5.288815e+06  -6.234986e+06
  -4.565342e+05  -6.853935e+06
   1.995612e+06  -4.738900e+06
   7.499296e+05  -2.558475e+06
  -1.383052e+06  -2.653144e+06
   8.404255e+04  -4.184541e+06
   5.303738e+06  -3.736005e+06
   8.758815e+06  -2.922951e+04
   6.026515e+06   3.826300e+06
  -2.277773e+05   4.313322e+06
  -3.672378e+06   1.857664e+06
  -2.091214e+06  -5.430420e+05
   1.230161e+06  -1.193138e+06
   2.754661e+06  -2.182918e+05
   2.031511e+06   1.899376e+06
   1.674238e+05   3.834724e+06
  -1.766263e+06   3.165665e+06
  -2.414728e+06  -4.223114e+05
  -1.038545e+06  -3.030093e+06
   6.266367e+05  -1.130253e+06
  -3.548469e+04   2.606723e+06
  -2.317348e+06   2.224566e+06
  -2.271974e+06  -2.625805e+06
   1.634463e+06  -5.246127e+06
   5.426025e+06  -1.084973e+06
   4.271987e+06   5.567708e+06
  -1.348961e+06   7.086578e+06
  -6.233828e+06   2.093046e+06
  -6.265629e+06  -3.812724e+06
  -1.933928e+06  -5.406269e+06
   3.054302e+06  -2.663698e+06
   4.953085e+06   1.128379e+06
   2.502135e+06   3.037969e+06
  -1.906684e+06   2.055990e+06
  -3.954204e+06  -6.120331e+05
  -1.839623e+06  -2.246909e+06
   1.418431e+06  -1.215758e+06
   1.681658e+06   8.722379e+05
  -8.968699e+05   1.044634e+06
  -2.240144e+06  -1.038960e+06
   4.235182e+03  -2.678135e+06
   3.502834e+06  -1.810478e+06
   4.522392e+06   7.782965e+05
   2.162228e+06   3.243060e+06
  -1.661510e+06   4.617578e+06
  -4.707529e+06   4.229411e+06
  -5.587654e+06   1.366497e+06
  -3.880139e+06  -2.948864e+06
  -7.126727e+05  -5.543315e+06
   1.517964e+06  -4.407347e+06
   1.454620e+06  -1.458152e+06
   3.993670e+05  -1.414176e+05
   5.120172e+05  -9.591628e+05
   1.896702e+06  -1.352547e+06
   2.694539e+06   2.239379e+05
   1.714622e+06   2.177009e+06
  -2.780401e+05   2.173389e+06
  -1.737426e+06   8.466679e+04
  -1.656624e+06  -2.199213e+06
   1.211511e+05  -2.849978e+06
   2.658190e+06  -1.377279e+06
   3.982066e+06   1.296881e+06
   2.708811e+06   3.402091e+06
  -1.046739e+05   3.604438e+06
  -1.912102e+06   2.281009e+06
  -1.836061e+06   1.053279e+06
  -1.616881e+06   7.637106e+05
  -2.780462e+06   5.578616e+05
  -4.143699e+06  -6.698505e+05
  -3.339773e+06  -2.632775e+06
  -1.123282e+05  -3.981412e+06
   3.172016e+06  -3.725605e+06
   4.117815e+06  -1.895644e+06
   2.509055e+06   5.831185e+05
   6.823864e+04   2.193158e+06
  -1.201806e+06   1.770144e+06
  -5.193269e+05  -9.163030e+04
   1.109450e+06  -1.220972e+06
   1.803471e+06  -3.533320e+05
   8.061490e+05   1.135321e+06
  -5.616232e+05   1.073073e+06
  -5.090383e+05  -3.724750e+05
   9.012633e+05  -8.363799e+05
   1.821872e+06   9.072794e+05
   9.322412e+05   3.172899e+06
  -1.169440e+06   3.493145e+06
  -2.948372e+06   1.468492e+06
  -3.415957e+06  -1.210647e+06
  -2.426642e+06  -2.779854e+06
  -4.745602e+05  -2.673578e+06
   1.272610e+06  -1.422688e+06
   1.567636e+06  -1.669965e+05
   4.810513e+05   4.993971e+04
  -3.449086e+05  -7.316226e+05
   3.728650e+05  -1.264122e+06
   1.784845e+06  -5.486519e+05
   1.942711e+06   8.085984e+05
   4.050206e+05   1.330401e+06
  -1.126899e+06   5.672332e+05
  -9.153595e+05  -4.502101e+05
   8.053620e+05  -5.937109e+05
   2.216403e+06   2.316716e+05
   1.830328e+06   1.357517e+06
  -2.025109e+05   2.025684e+06
  -2.293943e+06   1.664964e+06
  -2.728631e+06   2.613482e+05
  -1.172924e+06  -1.210312e+06
   8.767397e+05  -1.403881e+06
   1.455653e+06  -1.660236e+05
   1.559322e+05   1.013972e+06
  -1.469759e+06   6.918212e+05
  -1.677649e+06  -7.483969e+05
  -3.725697e+05  -1.614859e+06
   1.032538e+06  -1.007298e+06
   1.249076e+06   2.460317e+05
   2.881559e+05   7.451333e+05
  -7.421804e+05   5.827624e+04
  -6.903995e+05  -1.024171e+06
   5.934867e+05  -1.368978e+06
   1.968593e+06  -4.841243e+05
   1.962772e+06   1.056769e+06
   3.534706e+05   2.019574e+06
  -1.400148e+06   1.591726e+06
  -1.681622e+06   2.136906e+05
  -5.085725e+05  -8.415782e+05
   6.380270e+05  -7.942108e+05
   6.497167e+05  -6.231281e+04
  -1.006617e+05   4.104066e+05
  -5.370578e+05   2.506756e+05
  -2.105219e+05  -9.481298e+04
   4.009728e+05  -7.987106e+03
   5.368740e+05   6.012666e+05
  -1.665468e+05   1.153890e+06
  -1.346039e+06   8.758291e+05
  -2.031497e+06  -4.184680e+05
  -1.408557e+06  -1.912073e+06
   2.402446e+05  -2.379480e+06
   1.608540e+06  -1.408831e+06
   1.701940e+06   1.121671e+05
   8.936713e+05   9.360884e+05
   3.139296e+05   7.458864e+05
   4.049530e+05   2.768887e+05
   5.498392e+05   2.836660e+05
   7.594999e+04   7.083470e+05
  -8.505779e+05   8.876851e+05
  -1.440820e+06   3.336409e+05
  -1.066195e+06  -7.388451e+05
   2.383171e+05  -1.485063e+06
   1.710577e+06  -1.068606e+06
   2.219813e+06   4.908570e+05
   1.119247e+06   2.062153e+06
  -9.657440e+05   2.306997e+06
  -2.467979e+06   1.021681e+06
  -2.325762e+06  -6.206179e+05
  -9.957043e+05  -1.327078e+06
   1.795834e+05  -9.911314e+05
   4.380063e+05  -5.480847e+05
   1.646641e+05  -7.200941e+05
   1.488962e+05  -1.224352e+06
   6.519267e+05  -1.218780e+06
   1.243190e+06  -2.887374e+05
   1.285476e+06   1.076417e+06
   5.173742e+05   1.864023e+06
  -6.320585e+05   1.399843e+06
  -1.265093e+06  -6.797995e+03
  -7.978830e+05  -1.243930e+06
   3.589879e+05  -1.363446e+06
   1.103765e+06  -4.349662e+05
   7.891774e+05   6.214478e+05
  -7.976510e+04   1.018403e+06
  -4.740059e+05   7.751359e+05
  -6.546765e+04   4.339906e+05
   4.085389e+05   3.465713e+05
   4.630073e+04   3.818241e+05
  -1.108234e+06   2.033279e+05
  -1.989863e+06  -3.332134e+05
  -1.574458e+06  -1.012798e+06
   1.320378e+04  -1.380526e+06
   1.524205e+06  -1.091770e+06
   1.784192e+06  -2.811047e+05
   8.302998e+05   4.450328e+05
  -2.399014e+05   5.338927e+05
  -4.910395e+05   4.899478e+04
  -1.399001e+04  -3.829824e+05
   4.520031e+05  -2.390972e+05
   4.632124e+05   3.407264e+05
   2.045172e+05   7.181617e+05
   5.582770e+04   4.694730e+05
   1.431014e+05  -1.153817e+05
   3.081957e+05  -3.097407e+05
   2.743163e+05   2.293268e+05
  -1.692869e+05   9.763662e+05
  -8.919532e+05   1.028254e+06
  -1.294366e+06   1.376346e+05
  -7.849159e+05  -9.029897e+05
   4.160282e+05  -1.080728e+06
   1.210571e+06  -2.874258e+05
   7.073366e+05   5.802074e+05
  -6.881201e+05   6.366486e+05
  -1.575060e+06  -9.459763e+04
  -1.023106e+06  -8.554239e+05
   4.574338e+05  -9.974017e+05
   1.491703e+06  -4.983901e+05
   1.241186e+06   1.811400e+05
   1.417952e+05   5.162309e+05
  -6.387281e+05   2.728084e+05
  -3.648357e+05  -2.816529e+05
   5.927531e+05  -4.897002e+05
   1.155396e+06   1.140585e+05
   6.189371e+05   1.175414e+06
  -6.267459e+05   1.652564e+06
  -1.480508e+06   8.345990e+05
  -1.225404e+06  -7.689377e+05
  -1.758309e+05  -1.772404e+06
   7.460089e+05  -1.281805e+06
   9.172829e+05   1.676802e+05
   4.297394e+05   1.179370e+06
  -2.069667e+05   9.680531e+05
  -5.494892e+05   8.656816e+04
  -4.702412e+05  -3.834262e+05
  -1.759840e+05  -1.453914e+05
  -4.286841e+04   9.991400e+04
  -2.493124e+05  -2.783050e+05
  -4.833431e+05  -9.509364e+05
  -1.966805e+05  -1.071636e+06
   6.854607e+05  -3.888786e+05
   1.452137e+06   4.749405e+05
   1.271858e+06   8.413034e+05
   1.778156e+05   6.871434e+05
  -8.610359e+05   4.003365e+05
  -9.789322e+05   1.743991e+05
  -3.436761e+05  -4.479316e+04
   1.511373e+05  -2.184508e+05
   2.101027e+04  -2.137995e+05
  -2.765368e+05  -1.090881e+05
  -4.088944e+04  -1.316972e+05
   6.724263e+05  -2.157479e+05
   1.027926e+06   2.667623e+04
   3.947839e+05   6.789811e+05
  -8.548156e+05   1.139188e+06
  -1.668424e+06   7.186595e+05
  -1.364468e+06  -4.440602e+05
  -2.508462e+05  -1.389846e+06
   7.639450e+05  -1.343528e+06
   1.037071e+06  -5.095951e+05
   6.439931e+05   2.442708e+05
   1.216507e+05   3.528309e+05
  -8.131200e+04   5.331621e+04
   7.736100e+04  -2.671753e+04
   3.001386e+05   3.621833e+05
   2.415384e+05   7.995665e+05
  -1.848907e+05   6.636416e+05
  -6.705151e+05  -1.347130e+05
  -7.102582e+05  -9.502930e+05
  -9.208465e+04  -1.012498e+06
   7.484130e+05  -2.249520e+05
   1.007626e+06   7.276747e+05
   3.272525e+05   1.073749e+06
  -7.078131e+05   6.529715e+05
  -1.094924e+06  -8.447477e+04
  -5.138493e+05  -5.983249e+05
   2.851562e+05  -6.554683e+05
   3.667608e+05  -3.587914e+05
  -2.529643e+05  -1.699884e+04
  -6.426059e+05   3.131077e+04
  -1.391141e+05  -3.019866e+05
   8.189937e+05  -6.635632e+05
   1.238386e+06  -5.314425e+05
   7.418474e+05   1.707958e+05
  -1.014683e+05   8.516385e+05
  -5.413807e+05   8.374026e+05
  -4.096557e+05   1.518841e+05
  -4.360014e+04  -4.750509e+05
   2.393596e+05  -4.219008e+05
   3.443114e+05   1.555646e+05
   2.448730e+05   5.706059e+05
  -5.513694e+04   4.128539e+05
  -3.835700e+05  -4.996874e+04
  -4.653187e+05  -2.736350e+05
  -2.395179e+05  -9.186933e+04
   3.050788e+04   1.409933e+05
   8.454226e+04   3.079990e+04
   2.501150e+03  -3.501685e+05
   6.520903e+04  -5.291986e+05
   3.164232e+05  -1.983894e+05
   4.367229e+05   3.824439e+05
   1.370860e+05   6.365228e+05
  -4.068364e+05   3.026965e+05
  -6.467175e+05  -2.828311e+05
  -2.419918e+05  -5.683851e+05
   5.000059e+05  -3.564948e+05
   8.640831e+05   8.176507e+04
   4.675434e+05   3.745778e+05
  -2.902152e+05   3.874968e+05
  -6.271769e+05   2.153630e+05
  -2.414864e+05   1.732575e+04
   3.466358e+05  -5.774296e+04
   4.014757e+05   7.308165e+04
  -1.743549e+05   2.881228e+05
  -7.429630e+05   2.597282e+05
