
 $NMID
 id='ANONYMOUS ', fmtdat='(2E16.6)'
 volume=1.0
 tramp=1.0
 $END
   2.000611e+07  -1.123638e+06
   1.410091e+07   8.403104e+06
   9.661618e+05   1.266143e+07
  -8.136856e+06   9.253696e+06
  -7.448663e+06   1.555236e+06
  -8.230302e+05  -3.652529e+06
   4.076131e+06  -2.273990e+06
   3.489104e+06   3.059800e+06
  -5.343302e+05   5.858516e+06
  -3.698612e+06   2.881474e+06
  -3.497371e+06  -2.477666e+06
  -6.520942e+05  -4.336032e+06
   1.961264e+06  -9.751456e+05
   1.810315e+06   3.600138e+06
  -9.525948e+05   4.400675e+06
  -3.441210e+06   6.707787e+05
  -2.845475e+06  -3.870205e+06
   5.830096e+05  -5.179269e+06
   3.748425e+06  -2.643131e+06
   3.988814e+06   9.940104e+05
   1.743034e+06   2.742163e+06
  -2.177540e+05   2.133100e+06
   9.059799e+04   1.109285e+06
   1.784691e+06   1.519548e+06
   2.124770e+06   3.036673e+06
  -4.348144e+05   3.682219e+06
  -4.230602e+06   2.179884e+06
  -5.720309e+06  -5.983702e+05
  -3.176738e+06  -2.543964e+06
   1.149695e+06  -2.313073e+06
   3.154333e+06  -3.560760e+05
   1.227454e+06   1.597232e+06
  -2.142824e+06   1.841764e+06
  -3.367017e+06  -5.337204e+03
  -1.653818e+06  -2.452378e+06
   7.079495e+05  -3.177786e+06
   1.417551e+06  -1.350379e+06
   4.862030e+05   1.130099e+06
  -4.983077e+05   1.479618e+06
  -4.175804e+05  -6.739062e+05
   5.548272e+05  -2.633196e+06
   1.510998e+06  -1.830837e+06
   1.544672e+06   9.497469e+05
   3.239127e+05   2.467941e+06
  -1.366367e+06   9.440026e+05
  -1.837670e+06  -1.895504e+06
  -6.361110e+04  -2.951631e+06
   2.770389e+06  -1.173571e+06
   3.952665e+06   1.661534e+06
   2.002230e+06   3.086607e+06
  -1.527870e+06   2.221020e+06
  -3.482056e+06   1.277247e+05
  -2.308102e+06  -1.422590e+06
   4.899353e+05  -1.402719e+06
   2.104289e+06  -2.022790e+05
   1.307010e+06   8.414571e+05
  -5.650880e+05   7.129895e+05
  -1.300090e+06  -3.212518e+05
  -2.131524e+05  -1.054756e+06
   1.234870e+06  -6.468045e+05
   1.159464e+06   5.116640e+05
  -5.667629e+05   1.213553e+06
  -2.068855e+06   5.839078e+05
  -1.486136e+06  -1.121133e+06
   9.657394e+05  -2.622335e+06
   3.202486e+06  -2.542716e+06
   3.464520e+06  -5.898446e+05
   1.971742e+06   1.987860e+06
   3.213990e+05   3.382736e+06
  -3.736755e+05   2.930662e+06
  -3.929473e+05   1.676292e+06
  -6.395901e+05   1.009874e+06
  -1.435264e+06   9.901971e+05
  -2.220644e+06   5.027792e+05
  -2.187390e+06  -9.589124e+05
  -1.038830e+06  -2.296057e+06
   6.857146e+05  -1.992089e+06
   1.859011e+06  -1.157101e+04
   1.534776e+06   1.967531e+06
  -1.792372e+05   2.247304e+06
  -1.987984e+06   7.373267e+05
  -2.449239e+06  -1.170702e+06
  -1.335473e+06  -2.079343e+06
   1.759869e+05  -1.758573e+06
   8.275246e+05  -1.018974e+06
   6.608635e+05  -6.977744e+05
   8.066991e+05  -8.435225e+05
   1.895643e+06  -7.820988e+05
   3.020522e+06   1.127524e+05
   2.611172e+06   1.688436e+06
   3.143594e+05   2.980594e+06
  -2.312109e+06   2.945527e+06
  -3.210417e+06   1.392667e+06
  -1.867323e+06  -6.827997e+05
   2.223440e+05  -1.793280e+06
   1.132101e+06  -1.241019e+06
   3.680330e+05   1.783896e+05
  -9.014234e+05   9.176760e+05
  -1.266390e+06   2.909892e+05
  -4.813997e+05  -7.774821e+05
   5.005364e+05  -8.570066e+05
   6.205669e+05   2.080604e+05
  -2.813915e+05   9.981683e+05
  -1.365253e+06   1.862673e+05
  -1.504541e+06  -1.772270e+06
  -2.279140e+05  -2.982039e+06
   1.771463e+06  -2.119065e+06
   3.037815e+06   1.892347e+05
   2.539907e+06   2.073641e+06
   6.731119e+05   2.283010e+06
  -1.011506e+06   1.189158e+06
  -1.271336e+06   1.222711e+05
  -3.715631e+05  -1.814012e+04
   3.072524e+05   5.349672e+05
  -1.455734e+05   8.875095e+05
  -1.167193e+06   4.812904e+05
  -1.431262e+06  -3.743039e+05
  -4.474461e+05  -8.704592e+05
   7.880273e+05  -5.380718e+05
   8.556562e+05   2.723191e+05
  -4.742236e+05   7.100299e+05
  -1.877270e+06   2.192860e+05
  -1.809447e+06  -9.197154e+05
  -1.338325e+05  -1.780361e+06
   1.700845e+06  -1.574285e+06
   2.114566e+06  -3.919854e+05
   9.340060e+05   7.922362e+05
  -5.526780e+05   9.831081e+05
  -9.558390e+05   1.535099e+05
  -8.012769e+04  -6.917626e+05
   1.061388e+06  -5.680084e+05
   1.330020e+06   4.153694e+05
   5.030340e+05   1.192647e+06
  -6.160835e+05   9.580164e+05
  -1.002062e+06   4.945610e+04
  -3.837629e+05  -4.925630e+05
   4.801658e+05  -1.063705e+05
   5.416208e+05   7.267102e+05
  -4.254103e+05   1.052060e+06
  -1.498763e+06   4.143385e+05
  -1.525829e+06  -7.424438e+05
  -3.638023e+05  -1.504170e+06
   9.400733e+05  -1.279745e+06
   1.250238e+06  -2.995848e+05
   4.874594e+05   5.861815e+05
  -4.159701e+05   6.775773e+05
  -5.789678e+05   7.660341e+04
  -2.297873e+04  -4.634167e+05
   5.074855e+05  -3.802873e+05
   4.080581e+05   8.643688e+04
  -1.704111e+05   2.255712e+05
  -5.036389e+05  -2.606208e+05
  -4.999359e+04  -8.560496e+05
   9.401942e+05  -7.707728e+05
   1.576482e+06   1.954539e+05
   1.166466e+06   1.388468e+06
  -6.954623e+04   1.874772e+06
  -1.183246e+06   1.275270e+06
  -1.423362e+06   8.942784e+04
  -9.078998e+05  -7.702282e+05
  -3.457704e+05  -8.082384e+05
  -2.030887e+05  -3.566299e+05
  -2.758971e+05  -1.409565e+05
  -6.542245e+04  -4.375361e+05
   5.555857e+05  -7.521469e+05
   1.118355e+06  -4.195914e+05
   9.793380e+05   5.359096e+05
  -2.203873e+04   1.286158e+06
  -1.273922e+06   1.009762e+06
  -1.791630e+06  -2.356879e+05
  -1.045864e+06  -1.504520e+06
   5.071388e+05  -1.813125e+06
   1.755948e+06  -9.957522e+05
   1.881519e+06   2.256302e+05
   1.021349e+06   9.584257e+05
   2.101920e+04   9.277564e+05
  -4.148035e+05   5.982837e+05
  -2.981408e+05   5.575911e+05
  -1.644432e+05   8.315549e+05
  -4.151786e+05   8.747710e+05
  -8.828759e+05   2.473834e+05
  -1.014281e+06  -7.857375e+05
  -4.716309e+05  -1.425797e+06
   4.415232e+05  -1.113653e+06
   9.909616e+05  -8.273817e+04
   7.101859e+05   8.600060e+05
  -1.128155e+05   1.055460e+06
  -7.104531e+05   5.014760e+05
  -6.160757e+05  -2.610692e+05
  -1.078495e+05  -6.823401e+05
   1.687793e+05  -6.355823e+05
  -3.812775e+04  -3.996207e+05
  -3.036443e+05  -2.849116e+05
  -3.505636e+04  -3.078888e+05
   7.891976e+05  -2.281091e+05
   1.473185e+06   1.327308e+05
   1.260890e+06   6.521202e+05
   1.501518e+05   9.880035e+05
  -1.011712e+06   8.771114e+05
  -1.320094e+06   3.719910e+05
  -6.929169e+05  -1.711542e+05
   1.107487e+05  -3.595395e+05
   3.387428e+05  -1.133102e+05
  -1.611140e+04   2.176497e+05
  -3.822007e+05   1.828330e+05
  -3.570477e+05  -2.463325e+05
  -9.318748e+04  -5.789596e+05
   2.780171e+04  -3.719056e+05
  -1.127518e+05   1.638787e+05
  -2.951329e+05   3.421998e+05
  -2.413850e+05  -1.514530e+05
   1.325354e+05  -7.986283e+05
   6.388580e+05  -8.176927e+05
   8.831472e+05  -9.442622e+04
   5.326390e+05   6.730693e+05
  -2.785906e+05   7.627550e+05
  -8.621990e+05   1.772781e+05
  -5.589571e+05  -4.510253e+05
   4.778323e+05  -5.430185e+05
   1.266828e+06  -5.635412e+04
   9.638808e+05   5.837445e+05
  -2.076093e+05   8.729252e+05
  -1.155657e+06   5.976091e+05
  -1.059779e+06  -5.230577e+03
  -1.868884e+05  -4.161447e+05
   4.701781e+05  -2.889692e+05
   2.629920e+05   1.727301e+05
  -4.884619e+05   3.601504e+05
  -8.969455e+05  -1.149075e+05
  -4.409325e+05  -9.313378e+05
   5.297766e+05  -1.277717e+06
   1.174474e+06  -6.429841e+05
   9.829743e+05   5.902662e+05
   1.948144e+05   1.402793e+06
  -5.316971e+05   1.087331e+06
  -7.418894e+05  -2.984011e+04
  -4.520043e+05  -8.953293e+05
   3.567258e+04  -8.128634e+05
   4.007633e+05  -1.263428e+05
   4.473713e+05   2.931769e+05
   2.134950e+05   1.262907e+05
   2.629720e+03  -1.004475e+05
   1.072907e+05   1.647397e+05
   3.805246e+05   7.076584e+05
   2.816993e+05   8.457427e+05
  -4.267182e+05   3.451745e+05
  -1.173390e+06  -3.161824e+05
  -1.111146e+06  -6.059230e+05
  -1.764536e+05  -5.149144e+05
   7.286870e+05  -3.425791e+05
   7.862497e+05  -2.029860e+05
   2.119230e+05  -1.747623e+04
  -1.376191e+05   1.707139e+05
   7.408923e+04   2.059641e+05
   3.091784e+05   1.187706e+05
   3.417954e+03   1.083102e+05
  -6.132731e+05   1.622532e+05
  -7.954827e+05  -1.409944e+04
  -2.029594e+05  -5.089247e+05
   7.173480e+05  -8.687756e+05
   1.226458e+06  -5.475036e+05
   9.750598e+05   3.589940e+05
   2.043269e+05   1.095480e+06
  -5.346585e+05   1.043662e+06
  -7.958377e+05   3.706362e+05
  -5.251374e+05  -2.193816e+05
  -6.851049e+04  -2.721991e+05
   1.381842e+05   3.719468e+03
  -2.966459e+04   8.032434e+04
  -2.845298e+05  -2.466022e+05
  -2.470819e+05  -6.161890e+05
   1.437304e+05  -5.065426e+05
   5.470016e+05   1.434321e+05
   5.327743e+05   7.817559e+05
   5.668653e+03   7.831978e+05
  -6.324909e+05   1.170921e+05
  -7.820814e+05  -6.183060e+05
  -2.289535e+05  -8.279984e+05
   5.518560e+05  -4.678132e+05
   8.176857e+05   6.314801e+04
   3.679264e+05   3.998487e+05
  -2.029289e+05   4.446533e+05
  -2.107142e+05   2.696984e+05
   2.727887e+05   3.269193e+04
   5.210347e+05  -2.967696e+04
   9.010061e+04   2.188477e+05
  -6.221575e+05   5.498621e+05
  -8.878880e+05   5.006806e+05
  -5.074840e+05  -5.885136e+04
   6.552077e+04  -6.384056e+05
   3.378294e+05  -6.347099e+05
   2.441352e+05  -7.219066e+04
   7.536281e+03   4.020938e+05
  -1.922612e+05   2.954983e+05
  -2.794439e+05  -1.792002e+05
  -1.944299e+05  -4.427314e+05
   5.369957e+04  -2.635231e+05
   2.990214e+05   5.946792e+04
   3.445901e+05   1.570737e+05
   1.867825e+05   2.433519e+04
   8.671913e+03  -5.839167e+04
  -6.125687e+04   8.637834e+04
  -8.505450e+04   3.203941e+05
  -1.738314e+05   3.465114e+05
  -2.899279e+05   4.138721e+04
  -2.636501e+05  -3.724521e+05
  -2.391752e+03  -5.094612e+05
   3.465929e+05  -2.132999e+05
   4.678962e+05   2.534289e+05
   1.677607e+05   4.671525e+05
  -3.627784e+05   2.783530e+05
  -6.375771e+05  -7.734671e+04
  -3.529812e+05  -2.850270e+05
   2.205508e+05  -2.580074e+05
   4.695240e+05  -1.183053e+05
   1.355074e+05  -5.446803e+03
  -3.461556e+05   8.033788e+02
  -3.473843e+05  -1.233842e+05
   1.892517e+05  -2.764211e+05
   6.749343e+05  -2.194226e+05
