
 $NMID
 id='ANONYMOUS ', fmtdat='(2E16.6)'
 volume=1.0
 tramp=1.0
 $END
   2.235057e+07   1.136887e+06
   1.293869e+07   1.397042e+07
  -3.262970e+06   1.478509e+07
  -1.099150e+07   5.821186e+06
  -6.609011e+06  -2.491768e+06
   1.201304e+06  -3.667562e+06
   3.949945e+06   2.644821e+05
   1.283720e+06   3.857162e+06
  -2.385892e+06   3.968791e+06
  -3.905975e+06   9.267679e+05
  -2.800166e+06  -2.663523e+06
  -1.918239e+05  -3.642444e+06
   1.738996e+06  -1.000339e+06
   1.075092e+06   2.489726e+06
  -1.568754e+06   2.850172e+06
  -3.191267e+06  -5.215275e+05
  -1.735081e+06  -4.185608e+06
   1.644482e+06  -4.750838e+06
   4.170796e+06  -2.198978e+06
   4.269266e+06   1.108993e+06
   2.355180e+06   3.144667e+06
  -9.372281e+03   3.299191e+06
  -1.120334e+06   2.156411e+06
  -3.935643e+05   1.100516e+06
   6.914229e+05   1.241820e+06
  -6.468342e+04   2.029456e+06
  -2.622412e+06   1.740175e+06
  -4.230768e+06  -1.361999e+05
  -2.821531e+06  -1.975182e+06
   2.172600e+05  -2.111305e+06
   1.843286e+06  -8.583812e+05
   1.053611e+06   3.128757e+05
  -5.686544e+05   6.231941e+05
  -1.340314e+06   1.326817e+05
  -9.980711e+05  -9.336583e+05
  -4.058347e+04  -1.878660e+06
   9.334061e+05  -1.491286e+06
   1.180233e+06   3.019849e+05
   4.140117e+05   1.522981e+06
  -3.864796e+05   5.230219e+05
   1.887623e+04  -1.280169e+06
   1.127881e+06  -1.030244e+06
   1.007947e+06   1.289694e+06
  -9.077359e+05   2.417762e+06
  -2.595242e+06   3.297646e+05
  -1.869983e+06  -2.774939e+06
   8.347092e+05  -3.322265e+06
   3.024003e+06  -8.400664e+05
   2.902662e+06   1.931284e+06
   8.222702e+05   2.585243e+06
  -1.483852e+06   1.206642e+06
  -2.316556e+06  -6.068342e+05
  -1.122829e+06  -1.462860e+06
   9.460065e+05  -9.171694e+05
   1.855270e+06   3.811152e+05
   8.118788e+05   1.101460e+06
  -7.053578e+05   5.415812e+05
  -7.803612e+05  -4.369622e+05
   4.279493e+05  -4.510898e+05
   9.936178e+05   5.399723e+05
  -9.930683e+04   1.224156e+06
  -1.697790e+06   7.301104e+05
  -2.096604e+06  -4.826723e+05
  -9.358348e+05  -1.579394e+06
   8.875886e+05  -2.175697e+06
   2.332975e+06  -1.953213e+06
   2.711167e+06  -5.531146e+05
   1.809619e+06   1.502655e+06
   2.371052e+05   2.672158e+06
  -7.947100e+05   2.055729e+06
  -6.821321e+05   6.494995e+05
  -1.489850e+05   8.295041e+04
  -2.478100e+05   5.072292e+05
  -9.555774e+05   6.642788e+05
  -1.330878e+06  -1.353567e+05
  -8.274688e+05  -1.082391e+06
   1.468267e+05  -1.065845e+06
   8.428093e+05  -4.502130e+04
   7.860257e+05   1.065252e+06
  -8.867965e+04   1.371911e+06
  -1.306907e+06   6.266778e+05
  -1.900986e+06  -6.965096e+05
  -1.231681e+06  -1.693614e+06
   1.382931e+05  -1.725468e+06
   9.718938e+05  -1.037748e+06
   8.913223e+05  -4.488946e+05
   7.683079e+05  -3.303171e+05
   1.322041e+06  -2.295580e+05
   1.961339e+06   3.700770e+05
   1.558770e+06   1.294632e+06
   8.915969e+03   1.901138e+06
  -1.557410e+06   1.749133e+06
  -2.000156e+06   8.667672e+05
  -1.208944e+06  -3.128300e+05
  -1.171266e+04  -1.067974e+06
   6.046418e+05  -8.446541e+05
   2.538821e+05   5.387201e+04
  -5.485856e+05   5.769886e+05
  -8.697099e+05   1.431184e+05
  -3.686609e+05  -5.614120e+05
   2.829901e+05  -5.124471e+05
   2.398876e+05   1.748175e+05
  -4.233943e+05   3.764551e+05
  -8.249532e+05  -4.505008e+05
  -3.873871e+05  -1.491722e+06
   5.785771e+05  -1.612900e+06
   1.381180e+06  -6.560002e+05
   1.592895e+06   5.936992e+05
   1.134825e+06   1.328078e+06
   2.114881e+05   1.275052e+06
  -6.213968e+05   6.707012e+05
  -7.544674e+05   6.542179e+04
  -2.289220e+05  -2.933001e+04
   1.569992e+05   3.535144e+05
  -1.961690e+05   5.967813e+05
  -8.599818e+05   2.348646e+05
  -9.128274e+05  -4.122250e+05
  -1.730075e+05  -6.379820e+05
   5.441300e+05  -2.581480e+05
   4.343027e+05   2.194260e+05
  -3.794283e+05   2.733548e+05
  -1.044602e+06  -1.226765e+05
  -8.617744e+05  -6.513552e+05
   1.062916e+05  -9.586117e+05
   1.105062e+06  -7.736762e+05
   1.303794e+06  -9.734285e+04
   5.429596e+05   5.921639e+05
  -4.409369e+05   6.581323e+05
  -6.989434e+05   5.536726e+04
  -5.905509e+04  -4.909513e+05
   7.119531e+05  -3.134676e+05
   7.905310e+05   3.753211e+05
   1.598033e+05   7.697822e+05
  -4.983218e+05   4.653830e+05
  -5.872795e+05  -1.293007e+05
  -1.275051e+05  -3.547266e+05
   3.549610e+05  -1.776787e+04
   3.196910e+05   4.980278e+05
  -2.980950e+05   6.505401e+05
  -9.479880e+05   2.121535e+05
  -9.280348e+05  -5.266924e+05
  -1.462326e+05  -9.687941e+05
   6.862361e+05  -7.426810e+05
   8.030637e+05  -8.209149e+04
   2.320372e+05   4.060607e+05
  -3.126958e+05   3.718851e+05
  -3.130902e+05   2.590223e+04
   4.464779e+04  -1.940245e+05
   2.529415e+05  -1.217124e+05
   1.036114e+05   3.616677e+04
  -1.803367e+05  -4.336383e+03
  -2.425395e+05  -2.873478e+05
   9.146462e+04  -5.429169e+05
   6.492592e+05  -4.025909e+05
   9.645839e+05   2.202957e+05
   6.524884e+05   9.277769e+05
  -1.381444e+05   1.133957e+06
  -7.782158e+05   6.571358e+05
  -8.079182e+05  -6.620569e+04
  -4.214391e+05  -4.492623e+05
  -1.528232e+05  -3.578669e+05
  -1.964848e+05  -1.424283e+05
  -2.562456e+05  -1.470330e+05
  -2.466888e+04  -3.383955e+05
   4.124509e+05  -4.123324e+05
   6.861315e+05  -1.471095e+05
   5.028810e+05   3.569524e+05
  -1.216881e+05   7.029386e+05
  -8.222305e+05   4.943461e+05
  -1.053782e+06  -2.536774e+05
  -5.131473e+05  -9.924887e+05
   4.842862e+05  -1.086878e+06
   1.184867e+06  -4.592362e+05
   1.098911e+06   3.170764e+05
   4.624450e+05   6.361056e+05
  -8.855481e+04   4.679446e+05
  -2.088560e+05   2.628104e+05
  -8.780795e+04   3.509575e+05
  -8.983730e+04   5.868735e+05
  -3.279964e+05   5.733164e+05
  -5.978303e+05   1.221647e+05
  -6.034760e+05  -5.287419e+05
  -2.284036e+05  -8.965963e+05
   3.164624e+05  -6.632035e+05
   6.035001e+05   1.539301e+04
   3.662565e+05   6.004812e+05
  -1.852719e+05   6.433742e+05
  -5.260970e+05   1.923886e+05
  -3.629526e+05  -3.042855e+05
   5.191469e+04  -4.797388e+05
   2.324118e+05  -3.590829e+05
   3.286141e+04  -2.043584e+05
  -1.925538e+05  -1.707404e+05
  -1.877483e+04  -1.832359e+05
   5.296374e+05  -8.370808e+04
   9.447089e+05   1.818886e+05
   7.394799e+05   4.992256e+05
  -2.252635e+04   6.550483e+05
  -7.397344e+05   5.012389e+05
  -8.520201e+05   1.146445e+05
  -3.870280e+05  -2.189174e+05
   1.221146e+05  -2.499424e+05
   2.324200e+05  -1.731450e+04
  -7.887129e+02   1.836669e+05
  -2.193195e+05   1.105659e+05
  -2.173410e+05  -1.681396e+05
  -9.060950e+04  -3.488688e+05
  -2.143248e+04  -2.284727e+05
  -6.655046e+04   5.440401e+04
  -1.470748e+05   1.487386e+05
  -1.284738e+05  -1.105825e+05
   8.901140e+04  -4.662345e+05
   4.364387e+05  -4.821177e+05
   6.212782e+05  -4.830564e+04
   3.653416e+05   4.435406e+05
  -2.130914e+05   5.114038e+05
  -5.842504e+05   1.217719e+05
  -3.329377e+05  -2.850588e+05
   3.340862e+05  -2.959705e+05
   7.490161e+05   5.912333e+04
   4.795455e+05   4.132201e+05
  -2.244965e+05   4.680601e+05
  -7.117850e+05   2.249272e+05
  -5.885514e+05  -9.478331e+04
  -6.383530e+04  -2.460802e+05
   3.059973e+05  -1.238434e+05
   1.702613e+05   1.393355e+05
  -2.902505e+05   2.297616e+05
  -5.538815e+05  -6.683951e+04
  -2.848969e+05  -5.716546e+05
   3.183541e+05  -7.871812e+05
   7.187823e+05  -3.852937e+05
   5.791261e+05   3.802020e+05
   6.709657e+04   8.492308e+05
  -3.670020e+05   6.054324e+05
  -4.342740e+05  -8.789105e+04
  -1.940181e+05  -5.650262e+05
   1.057357e+05  -4.577739e+05
   2.618246e+05  -3.553534e+04
   2.221057e+05   1.854416e+05
   8.417580e+04   6.878236e+04
   2.056973e+04  -4.643781e+04
   1.139809e+05   1.388688e+05
   2.206200e+05   4.605221e+05
   8.459532e+04   5.110741e+05
  -3.301552e+05   1.755851e+05
  -6.894175e+05  -2.407389e+05
  -6.000046e+05  -4.114363e+05
  -7.769172e+04  -3.294543e+05
   4.161056e+05  -1.853357e+05
   4.686335e+05  -7.494035e+04
   1.617359e+05   2.665518e+04
  -7.499826e+04   1.038439e+05
  -1.009745e+04   9.902673e+04
   1.336433e+05   5.172207e+04
   1.844604e+04   6.465675e+04
  -3.254571e+05   9.992009e+04
  -4.922298e+05  -2.347811e+04
  -1.805800e+05  -3.333439e+05
   4.227568e+05  -5.389793e+05
   8.070053e+05  -3.242554e+05
   6.490578e+05   2.304136e+05
   1.063927e+05   6.684589e+05
  -3.795135e+05   6.337491e+05
  -5.031476e+05   2.330095e+05
  -3.075760e+05  -1.229497e+05
  -5.452005e+04  -1.713667e+05
   4.185200e+04  -2.724309e+04
  -3.480146e+04   1.138190e+04
  -1.392957e+05  -1.744378e+05
  -1.078960e+05  -3.835810e+05
   9.592487e+04  -3.162881e+05
   3.218651e+05   7.087332e+04
   3.320862e+05   4.641355e+05
   3.277931e+04   4.888141e+05
  -3.637638e+05   1.013720e+05
  -4.773037e+05  -3.598533e+05
  -1.451424e+05  -5.189245e+05
   3.475222e+05  -3.052743e+05
   5.235031e+05   5.306048e+04
   2.374326e+05   2.926773e+05
  -1.456507e+05   3.100102e+05
  -1.792418e+05   1.654443e+05
   1.223329e+05   8.168849e+03
   3.082216e+05  -9.216742e+03
   6.275647e+04   1.466652e+05
  -3.980714e+05   3.092343e+05
  -5.951727e+05   2.397320e+05
  -3.503646e+05  -9.159205e+04
   5.835238e+04  -4.064153e+05
   2.681000e+05  -3.924108e+05
   1.989395e+05  -6.532458e+04
   1.691952e+04   2.293697e+05
  -1.203461e+05   1.996257e+05
  -1.656412e+05  -7.820739e+04
  -1.114115e+05  -2.758513e+05
   3.298155e+04  -1.971879e+05
   1.841170e+05   2.812669e+04
   2.179247e+05   1.361971e+05
   1.120393e+05   4.610538e+04
  -1.097263e+04  -6.868113e+04
  -3.601771e+04  -1.484702e+04
  -3.785531e+03   1.713669e+05
  -4.032919e+04   2.570007e+05
  -1.583583e+05   9.239562e+04
  -2.074425e+05  -1.913859e+05
  -5.867648e+04  -3.105183e+05
   1.992081e+05  -1.417655e+05
   3.079385e+05   1.438641e+05
   1.108581e+05   2.758880e+05
  -2.430451e+05   1.646983e+05
  -4.135083e+05  -4.957906e+04
  -2.198645e+05  -1.847595e+05
   1.447602e+05  -1.821326e+05
   3.045747e+05  -9.550962e+04
   1.157205e+05  -3.678279e+03
  -1.691711e+05   2.653990e+04
  -1.945059e+05  -3.856094e+04
   8.513388e+04  -1.388002e+05
   3.590593e+05  -1.205154e+05
