
 $NMID
 id='ANONYMOUS ', fmtdat='(2E16.6)'
 volume=1.0
 tramp=1.0
 $END
   3.495853e+07  -8.985177e+05
   2.213523e+07   2.028343e+07
  -3.181337e+06   2.365310e+07
  -1.670704e+07   1.055891e+07
  -1.093827e+07  -3.155041e+06
   1.425943e+06  -6.016806e+06
   6.409743e+06  -5.305716e+04
   2.529156e+06   6.047813e+06
  -3.425961e+06   6.634993e+06
  -6.149493e+06   1.916636e+06
  -4.659864e+06  -3.897736e+06
  -6.263434e+05  -5.689129e+06
   2.591954e+06  -1.713631e+06
   1.836664e+06   3.844343e+06
  -2.271403e+06   4.682623e+06
  -5.129603e+06  -4.680037e+05
  -3.192573e+06  -6.411060e+06
   2.064067e+06  -7.659300e+06
   6.269683e+06  -3.907073e+06
   6.744948e+06   1.234540e+06
   4.014461e+06   4.556178e+06
   4.489348e+05   5.071115e+06
  -1.376150e+06   3.561772e+06
  -4.867088e+05   1.976319e+06
   1.056534e+06   2.035952e+06
  -5.829307e+04   3.153900e+06
  -3.961588e+06   2.826193e+06
  -6.562146e+06   7.934133e+04
  -4.536377e+06  -2.810756e+06
   1.530686e+05  -3.207698e+06
   2.745441e+06  -1.384385e+06
   1.542055e+06   4.189183e+05
  -9.724411e+05   8.961060e+05
  -2.095536e+06   1.424670e+05
  -1.510133e+06  -1.440759e+06
  -1.169210e+05  -2.863000e+06
   1.285105e+06  -2.360921e+06
   1.764252e+06   2.910520e+05
   7.883583e+05   2.225291e+06
  -4.245913e+05   8.226420e+05
   4.042475e+04  -1.963644e+06
   1.728304e+06  -1.697260e+06
   1.746256e+06   1.938876e+06
  -1.128553e+06   3.970358e+06
  -4.024158e+06   9.238796e+05
  -3.282289e+06  -4.082165e+06
   8.846253e+05  -5.322980e+06
   4.628486e+06  -1.657067e+06
   4.757244e+06   2.785858e+06
   1.526084e+06   4.051203e+06
  -2.275252e+06   2.047063e+06
  -3.756336e+06  -7.951003e+05
  -1.927346e+06  -2.266562e+06
   1.407599e+06  -1.578925e+06
   2.981258e+06   4.056799e+05
   1.413176e+06   1.665101e+06
  -1.050118e+06   9.323993e+05
  -1.279604e+06  -6.439099e+05
   6.618310e+05  -8.222177e+05
   1.722207e+06   7.296359e+05
   7.510002e+04   2.018952e+06
  -2.578869e+06   1.436595e+06
  -3.409124e+06  -4.991051e+05
  -1.677515e+06  -2.394880e+06
   1.191495e+06  -3.471107e+06
   3.488749e+06  -3.203851e+06
   4.166422e+06  -1.071841e+06
   2.921591e+06   2.164885e+06
   5.829585e+05   4.143115e+06
  -1.091760e+06   3.334277e+06
  -1.084923e+06   1.131839e+06
  -3.258837e+05   1.163530e+05
  -4.052828e+05   7.050354e+05
  -1.423415e+06   1.001472e+06
  -2.014917e+06  -1.725430e+05
  -1.281447e+06  -1.638576e+06
   2.189712e+05  -1.634879e+06
   1.321178e+06  -5.686736e+04
   1.258351e+06   1.663243e+06
  -8.121448e+04   2.147192e+06
  -1.986197e+06   1.045140e+06
  -2.986963e+06  -9.432633e+05
  -2.054231e+06  -2.514440e+06
   3.489884e+04  -2.687785e+06
   1.391825e+06  -1.727099e+06
   1.354513e+06  -8.198052e+05
   1.208774e+06  -6.016089e+05
   2.094080e+06  -4.513957e+05
   3.130576e+06   4.657571e+05
   2.539174e+06   1.956167e+06
   1.146849e+05   3.002019e+06
  -2.365924e+06   2.829338e+06
  -3.089250e+06   1.447537e+06
  -1.885602e+06  -4.305982e+05
  -5.393938e+04  -1.647568e+06
   8.990239e+05  -1.330158e+06
   3.892803e+05   7.066383e+04
  -8.313222e+05   9.252132e+05
  -1.356933e+06   2.779205e+05
  -6.121946e+05  -8.473783e+05
   4.235077e+05  -8.104039e+05
   3.954165e+05   2.845277e+05
  -6.758431e+05   6.565920e+05
  -1.402970e+06  -6.512592e+05
  -7.559912e+05  -2.390448e+06
   8.450188e+05  -2.673910e+06
   2.227426e+06  -1.157532e+06
   2.606094e+06   8.869617e+05
   1.857768e+06   2.096058e+06
   3.729437e+05   2.023487e+06
  -9.528879e+05   1.078788e+06
  -1.180210e+06   1.313321e+05
  -3.624234e+05  -3.509874e+04
   2.661457e+05   5.506155e+05
  -2.688547e+05   9.577931e+05
  -1.340164e+06   4.302614e+05
  -1.474571e+06  -5.933136e+05
  -3.187625e+05  -1.003451e+06
   8.498212e+05  -4.396949e+05
   7.006650e+05   3.376379e+05
  -6.054750e+05   4.643848e+05
  -1.685890e+06  -1.551643e+05
  -1.399836e+06  -1.019473e+06
   1.399533e+05  -1.540220e+06
   1.724903e+06  -1.275435e+06
   2.059060e+06  -2.150114e+05
   8.936238e+05   9.040942e+05
  -6.487984e+05   1.063482e+06
  -1.093471e+06   1.366555e+05
  -1.240729e+05  -7.615721e+05
   1.104002e+06  -5.323969e+05
   1.273749e+06   5.529163e+05
   2.948856e+05   1.220438e+06
  -7.752060e+05   7.736830e+05
  -9.514253e+05  -1.757165e+05
  -2.271225e+05  -5.651601e+05
   5.603402e+05  -5.446912e+04
   5.306776e+05   7.658968e+05
  -4.363549e+05   1.036829e+06
  -1.480251e+06   3.791113e+05
  -1.486957e+06  -7.828459e+05
  -2.810186e+05  -1.520572e+06
   1.044635e+06  -1.211241e+06
   1.268276e+06  -1.728170e+05
   3.905565e+05   6.344681e+05
  -4.782707e+05   6.062434e+05
  -4.935898e+05   4.789091e+04
   7.430885e+04  -3.183138e+05
   4.109647e+05  -1.957308e+05
   1.661503e+05   7.680313e+04
  -3.031379e+05   1.854360e+04
  -4.152975e+05  -4.455282e+05
   1.123573e+05  -8.729920e+05
   1.007543e+06  -6.725260e+05
   1.535541e+06   2.998227e+05
   1.075929e+06   1.431223e+06
  -1.662424e+05   1.796630e+06
  -1.207821e+06   1.075038e+06
  -1.289193e+06  -7.486679e+04
  -6.800481e+05  -7.075847e+05
  -2.343633e+05  -5.678754e+05
  -2.987387e+05  -2.053385e+05
  -4.142572e+05  -2.027061e+05
  -6.531791e+04  -5.286496e+05
   6.330586e+05  -6.767159e+05
   1.085502e+06  -2.639665e+05
   8.106767e+05   5.518158e+05
  -1.701400e+05   1.126131e+06
  -1.284351e+06   8.203975e+05
  -1.679531e+06  -3.548530e+05
  -8.618869e+05  -1.549427e+06
   7.088329e+05  -1.750961e+06
   1.855200e+06  -7.928882e+05
   1.764450e+06   4.512571e+05
   7.648551e+05   1.000397e+06
  -1.312135e+05   7.561999e+05
  -3.340267e+05   4.165686e+05
  -1.240714e+05   5.372113e+05
  -1.029843e+05   9.177794e+05
  -4.798327e+05   9.220498e+05
  -9.330784e+05   2.273041e+05
  -9.755703e+05  -8.026608e+05
  -4.020099e+05  -1.402315e+06
   4.681210e+05  -1.059668e+06
   9.559892e+05  -3.650760e+03
   6.134833e+05   9.325759e+05
  -2.586375e+05   1.033896e+06
  -8.305676e+05   3.426075e+05
  -6.052017e+05  -4.578574e+05
   4.635094e+04  -7.701123e+05
   3.486747e+05  -5.940739e+05
   4.723554e+04  -3.317824e+05
  -3.079236e+05  -2.579445e+05
  -3.655570e+04  -2.866112e+05
   8.328179e+05  -1.633997e+05
   1.501297e+06   2.334579e+05
   1.196240e+06   7.512631e+05
   5.085126e+03   1.043051e+06
  -1.137749e+06   8.371666e+05
  -1.345353e+06   2.271985e+05
  -6.350091e+05  -3.280325e+05
   1.735804e+05  -4.042605e+05
   3.706280e+05  -4.302049e+04
   1.465721e+04   2.842668e+05
  -3.391525e+05   1.802061e+05
  -3.502848e+05  -2.533243e+05
  -1.548281e+05  -5.367809e+05
  -4.220917e+04  -3.503211e+05
  -1.093942e+05   8.923382e+04
  -2.348943e+05   2.357415e+05
  -2.094884e+05  -1.701258e+05
   1.226262e+05  -7.356627e+05
   6.637677e+05  -7.814068e+05
   9.690634e+05  -1.158410e+05
   5.946866e+05   6.709323e+05
  -3.027316e+05   8.149634e+05
  -9.050090e+05   2.245376e+05
  -5.351383e+05  -4.329424e+05
   5.145719e+05  -4.856580e+05
   1.190950e+06   6.128098e+04
   7.812678e+05   6.421002e+05
  -3.385853e+05   7.604022e+05
  -1.127087e+06   3.882966e+05
  -9.421985e+05  -1.296231e+05
  -1.108408e+05  -3.909111e+05
   4.815704e+05  -2.117770e+05
   2.776007e+05   2.080690e+05
  -4.431476e+05   3.703283e+05
  -8.689683e+05  -8.008087e+04
  -4.702397e+05  -8.798601e+05
   4.636473e+05  -1.244517e+06
   1.109614e+06  -6.342572e+05
   9.265895e+05   5.730462e+05
   1.419072e+05   1.334976e+06
  -5.566212e+05   9.721817e+05
  -6.954787e+05  -1.196684e+05
  -3.336096e+05  -8.888164e+05
   1.493770e+05  -7.360323e+05
   4.145011e+05  -7.101234e+04
   3.583392e+05   2.888947e+05
   1.348876e+05   1.119050e+05
   3.198297e+04  -7.716116e+04
   1.889094e+05   2.032392e+05
   3.700015e+05   7.122644e+05
   1.563547e+05   8.107155e+05
  -5.125750e+05   3.014911e+05
  -1.097999e+06  -3.500962e+05
  -9.661160e+05  -6.296941e+05
  -1.391756e+05  -5.167130e+05
   6.482058e+05  -3.039663e+05
   7.386597e+05  -1.371270e+05
   2.592710e+05   2.823492e+04
  -1.133012e+05   1.642555e+05
  -1.402400e+04   1.653822e+05
   2.098736e+05   8.499248e+04
   3.081626e+04   9.780686e+04
  -5.066606e+05   1.622481e+05
  -7.735974e+05  -1.415442e+04
  -2.986131e+05  -5.039620e+05
   6.377499e+05  -8.588197e+05
   1.248821e+06  -5.518217e+05
   1.025676e+06   3.237117e+05
   1.956452e+05   1.044674e+06
  -5.656560e+05   1.016901e+06
  -7.758530e+05   3.887639e+05
  -4.852956e+05  -1.818224e+05
  -9.304596e+04  -2.636413e+05
   6.098234e+04  -3.645922e+04
  -5.957104e+04   2.332387e+04
  -2.305453e+05  -2.718824e+05
  -1.879092e+05  -6.025089e+05
   1.352112e+05  -5.001953e+05
   5.044519e+05   9.974943e+04
   5.371640e+05   7.115683e+05
   7.291176e+04   7.584641e+05
  -5.608636e+05   1.695035e+05
  -7.595115e+05  -5.434412e+05
  -2.513411e+05  -8.046266e+05
   5.272866e+05  -4.936924e+05
   8.231463e+05   5.621856e+04
   3.916063e+05   4.441840e+05
  -2.076859e+05   4.936607e+05
  -2.716182e+05   2.748243e+05
   1.913983e+05   1.517418e+04
   4.838066e+05  -2.628514e+04
   1.063609e+05   2.251524e+05
  -6.135097e+05   5.048699e+05
  -9.302194e+05   4.115646e+05
  -5.599759e+05  -1.198441e+05
   7.061083e+04  -6.409929e+05
   3.999143e+05  -6.355576e+05
   3.033882e+05  -1.181729e+05
   3.322753e+04   3.568002e+05
  -1.765811e+05   3.174076e+05
  -2.576576e+05  -1.172020e+05
  -1.873134e+05  -4.279768e+05
   3.725219e+04  -3.088163e+05
   2.879668e+05   3.618137e+04
   3.532174e+05   2.012357e+05
   1.825003e+05   6.662500e+04
  -2.494716e+04  -1.032342e+05
  -6.810268e+04  -1.960978e+04
  -4.217723e+03   2.613222e+05
  -4.695904e+04   3.916340e+05
  -2.335552e+05   1.460263e+05
  -3.253633e+05  -2.843029e+05
  -1.030585e+05  -4.741448e+05
   3.042611e+05  -2.279679e+05
   4.855648e+05   2.087354e+05
   1.834775e+05   4.260001e+05
  -3.734756e+05   2.718587e+05
  -6.488537e+05  -5.588739e+04
  -3.536060e+05  -2.786925e+05
   2.144101e+05  -2.920430e+05
   4.681780e+05  -1.646238e+05
   1.797638e+05  -1.609152e+04
  -2.608112e+05   4.096769e+04
  -3.006455e+05  -5.617462e+04
   1.332546e+05  -2.169162e+05
   5.608196e+05  -1.957449e+05
