
 $NMID
 id='ANONYMOUS ', fmtdat='(2E16.6)'
 volume=1.0
 tramp=1.0
 $END
  -3.615715e+07   7.906183e+05
  -2.336762e+07  -1.909238e+07
   1.827259e+06  -2.366454e+07
   1.628917e+07  -1.273894e+07
   1.185808e+07   1.085201e+06
  -4.544370e+05   6.211865e+06
  -6.759389e+06   1.462637e+06
  -3.849971e+06  -5.902021e+06
   2.577782e+06  -8.090238e+06
   6.397419e+06  -3.086198e+06
   5.316485e+06   4.206834e+06
   8.208174e+05   6.577316e+06
  -3.006969e+06   1.742567e+06
  -2.407208e+06  -4.898531e+06
   2.099057e+06  -5.938439e+06
   5.586279e+06  -9.727666e+04
   3.909298e+06   6.756958e+06
  -1.787293e+06   8.403754e+06
  -6.619229e+06   4.251419e+06
  -7.065592e+06  -1.545466e+06
  -3.729041e+06  -4.886651e+06
  -3.353951e+04  -4.759275e+06
   9.289491e+05  -2.987222e+06
  -8.913673e+05  -2.184278e+06
  -2.200151e+06  -3.304466e+06
   2.764784e+05  -4.554337e+06
   5.438665e+06  -3.347537e+06
   8.142758e+06   3.506112e+05
   5.075209e+06   3.570932e+06
  -9.072315e+05   3.676016e+06
  -3.946364e+06   1.162892e+06
  -1.885978e+06  -1.358661e+06
   2.016885e+06  -1.891977e+06
   3.633873e+06  -1.807276e+05
   2.170397e+06   2.551926e+06
  -3.416688e+05   4.032281e+06
  -1.808967e+06   2.463325e+06
  -1.513829e+06  -9.942897e+05
  -1.508434e+05  -2.497957e+06
   6.345062e+05  -8.250057e+04
  -3.453937e+05   3.077682e+06
  -2.116354e+06   2.342176e+06
  -2.129957e+06  -1.888616e+06
   5.722609e+05  -4.163556e+06
   3.526796e+06  -1.115656e+06
   3.275399e+06   3.988351e+06
  -6.290051e+05   5.404838e+06
  -4.891078e+06   1.799831e+06
  -5.713319e+06  -2.939036e+06
  -2.319723e+06  -4.670481e+06
   2.476195e+06  -2.795997e+06
   4.732697e+06   4.149533e+05
   2.773350e+06   2.378154e+06
  -1.236170e+06   1.910930e+06
  -3.309698e+06  -1.565008e+05
  -1.754812e+06  -1.629402e+06
   1.066598e+06  -1.054628e+06
   1.685796e+06   6.197725e+05
  -2.687636e+05   1.188830e+06
  -1.869910e+06  -5.555417e+04
  -7.501645e+05  -1.588302e+06
   2.061097e+06  -1.654458e+06
   3.549206e+06  -2.559003e+04
   2.041308e+06   2.304852e+06
  -1.434378e+06   4.025285e+06
  -4.426051e+06   3.819810e+06
  -5.057587e+06   1.098776e+06
  -3.238724e+06  -2.768428e+06
  -5.940891e+05  -4.973418e+06
   9.453168e+05  -4.103391e+06
   9.166972e+05  -1.837124e+06
   5.836891e+05  -7.871645e+05
   1.210996e+06  -1.196080e+06
   2.448089e+06  -1.046789e+06
   2.830662e+06   7.356694e+05
   1.578586e+06   2.613754e+06
  -5.732186e+05   2.425232e+06
  -2.108161e+06   8.006712e+04
  -1.875472e+06  -2.378455e+06
   1.513624e+05  -2.908891e+06
   2.634191e+06  -1.189644e+06
   3.608858e+06   1.402477e+06
   2.234374e+06   3.051098e+06
  -1.642680e+05   2.937613e+06
  -1.481859e+06   1.793449e+06
  -1.323068e+06   9.817255e+05
  -1.310565e+06   9.506102e+05
  -2.617993e+06   8.285386e+05
  -4.057309e+06  -3.558515e+05
  -3.413782e+06  -2.380547e+06
  -3.112676e+05  -3.946749e+06
   3.064306e+06  -3.842535e+06
   4.158144e+06  -1.913569e+06
   2.496241e+06   7.243717e+05
  -9.429296e+04   2.291082e+06
  -1.336102e+06   1.715802e+06
  -5.008009e+05  -1.661515e+05
   1.141903e+06  -1.225647e+06
   1.727001e+06  -3.772624e+05
   7.198337e+05   1.074325e+06
  -6.026430e+05   1.102491e+06
  -6.671094e+05  -3.149267e+05
   6.102442e+05  -1.078859e+06
   1.792340e+06   2.952850e+05
   1.489883e+06   2.700734e+06
  -3.561496e+05   3.690260e+06
  -2.576520e+06   2.172319e+06
  -3.707619e+06  -6.527996e+05
  -2.934818e+06  -2.699475e+06
  -7.288680e+05  -2.831283e+06
   1.282379e+06  -1.515096e+06
   1.619345e+06  -1.848933e+05
   4.838016e+05   2.973853e+04
  -3.814124e+05  -7.146744e+05
   2.722687e+05  -1.214274e+06
   1.650794e+06  -6.012546e+05
   1.909567e+06   6.309703e+05
   5.019610e+05   1.226327e+06
  -1.077315e+06   6.444847e+05
  -1.027493e+06  -3.954229e+05
   7.022581e+05  -7.800676e+05
   2.345499e+06  -6.962562e+04
   2.132062e+06   1.250072e+06
   2.389418e+04   2.186758e+06
  -2.239203e+06   1.901790e+06
  -2.747960e+06   4.244677e+05
  -1.208257e+06  -1.108886e+06
   7.893085e+05  -1.349825e+06
   1.348892e+06  -1.918071e+05
   1.334656e+05   9.608932e+05
  -1.426447e+06   7.322640e+05
  -1.717698e+06  -6.267750e+05
  -5.356517e+05  -1.579894e+06
   9.025266e+05  -1.140460e+06
   1.278185e+06   7.436523e+04
   3.999931e+05   6.884403e+05
  -6.897653e+05   1.026509e+05
  -7.149030e+05  -9.886439e+05
   5.639003e+05  -1.390089e+06
   1.970437e+06  -5.400539e+05
   2.000134e+06   9.948175e+05
   4.394240e+05   1.994135e+06
  -1.296899e+06   1.650653e+06
  -1.653674e+06   3.233077e+05
  -5.798106e+05  -7.959865e+05
   5.838119e+05  -8.461752e+05
   7.056888e+05  -8.726913e+04
  -2.799137e+04   5.157240e+05
  -6.015398e+05   3.901216e+05
  -3.841383e+05  -9.741592e+04
   3.040278e+05  -1.622601e+05
   6.072892e+05   4.572284e+05
  -3.075512e+04   1.139647e+06
  -1.278091e+06   9.647522e+05
  -2.059410e+06  -3.099317e+05
  -1.497441e+06  -1.851378e+06
   1.330629e+05  -2.425822e+06
   1.559458e+06  -1.565464e+06
   1.785771e+06  -3.115967e+04
   1.061457e+06   9.556747e+05
   4.037741e+05   8.996271e+05
   3.440295e+05   3.728016e+05
   4.583019e+05   2.304792e+05
   9.076190e+04   6.402896e+05
  -7.739105e+05   9.522044e+05
  -1.450283e+06   4.701843e+05
  -1.194773e+06  -7.012219e+05
   1.043660e+05  -1.593676e+06
   1.676346e+06  -1.227816e+06
   2.297349e+06   3.670876e+05
   1.276102e+06   2.004578e+06
  -7.856836e+05   2.356419e+06
  -2.372242e+06   1.196542e+06
  -2.404606e+06  -4.247691e+05
  -1.188438e+06  -1.274775e+06
   5.684671e+04  -1.107055e+06
   4.812836e+05  -6.790919e+05
   2.719364e+05  -7.350348e+05
   1.714027e+05  -1.161858e+06
   5.851716e+05  -1.190456e+06
   1.198594e+06  -3.209646e+05
   1.324170e+06   1.039392e+06
   5.932201e+05   1.864031e+06
  -5.889144e+05   1.441120e+06
  -1.284394e+06   6.735371e+04
  -8.812435e+05  -1.176331e+06
   2.351570e+05  -1.377968e+06
   1.009469e+06  -5.597818e+05
   8.035560e+05   4.707440e+05
   4.314479e+04   9.551569e+05
  -3.363388e+05   8.083000e+05
  -1.332731e+01   4.789356e+05
   4.103597e+05   3.549009e+05
   5.322996e+04   3.932259e+05
  -1.069364e+06   2.670971e+05
  -1.968569e+06  -2.271283e+05
  -1.629880e+06  -9.140659e+05
  -1.087869e+05  -1.338772e+06
   1.414022e+06  -1.140610e+06
   1.754434e+06  -4.077966e+05
   8.734175e+05   3.229191e+05
  -1.864702e+05   5.052554e+05
  -4.660871e+05   1.057232e+05
  -1.073420e+03  -3.341962e+05
   4.728356e+05  -2.471261e+05
   4.707042e+05   3.250627e+05
   1.745378e+05   7.384290e+05
   1.592996e+04   4.803448e+05
   1.418965e+05  -1.689445e+05
   3.431976e+05  -3.879045e+05
   3.019017e+05   2.096087e+05
  -1.554865e+05   1.019024e+06
  -8.531101e+05   1.066848e+06
  -1.229584e+06   1.471833e+05
  -7.563458e+05  -8.864996e+05
   3.783305e+05  -1.048498e+06
   1.170454e+06  -2.760637e+05
   7.301897e+05   5.767751e+05
  -6.482275e+05   6.844545e+05
  -1.620247e+06   1.369904e+04
  -1.157697e+06  -7.933700e+05
   3.480511e+05  -1.077255e+06
   1.495481e+06  -6.647431e+05
   1.319123e+06   7.415532e+04
   2.016953e+05   5.288110e+05
  -6.242501e+05   3.347428e+05
  -3.585302e+05  -2.510190e+05
   6.129588e+05  -4.913805e+05
   1.171692e+06   1.173914e+05
   6.165913e+05   1.194287e+06
  -6.398261e+05   1.677690e+06
  -1.502210e+06   8.619048e+05
  -1.270544e+06  -7.552079e+05
  -2.418025e+05  -1.806290e+06
   7.031763e+05  -1.366846e+06
   9.479596e+05   8.985988e+04
   5.290452e+05   1.171620e+06
  -1.126690e+05   1.020730e+06
  -5.373000e+05   1.338588e+05
  -5.356179e+05  -3.771764e+05
  -2.309259e+05  -1.524962e+05
  -2.133315e+04   1.157033e+05
  -1.982405e+05  -2.463823e+05
  -5.046162e+05  -9.351964e+05
  -2.984779e+05  -1.087598e+06
   6.178012e+05  -4.289432e+05
   1.504445e+06   4.247026e+05
   1.378745e+06   7.994691e+05
   2.148250e+05   6.795741e+05
  -9.040071e+05   4.393310e+05
  -1.003727e+06   2.352906e+05
  -3.111589e+05  -7.013072e+03
   1.631354e+05  -2.237346e+05
  -4.240094e+04  -2.405891e+05
  -3.448230e+05  -1.272239e+05
  -2.501319e+04  -1.379765e+05
   7.376950e+05  -2.264572e+05
   1.038844e+06   8.546825e+03
   3.403647e+05   6.716600e+05
  -8.846008e+05   1.154934e+06
  -1.632556e+06   7.419251e+05
  -1.331302e+06  -4.409406e+05
  -2.800981e+05  -1.412993e+06
   7.154125e+05  -1.369536e+06
   1.036835e+06  -5.139217e+05
   6.727205e+05   2.573763e+05
   1.110531e+05   3.552622e+05
  -1.320480e+05   2.713542e+04
   5.670227e+04  -6.682739e+04
   3.421095e+05   3.386449e+05
   2.943744e+05   8.018677e+05
  -1.787796e+05   6.683355e+05
  -6.987204e+05  -1.525204e+05
  -7.200420e+05  -9.811970e+05
  -6.353040e+04  -1.022248e+06
   7.888420e+05  -2.008911e+05
   1.030152e+06   7.570634e+05
   3.295061e+05   1.078261e+06
  -7.090548e+05   6.449028e+05
  -1.087710e+06  -6.901965e+04
  -5.068690e+05  -5.564835e+05
   2.685850e+05  -6.250146e+05
   3.181196e+05  -3.609341e+05
  -3.063277e+05  -2.461018e+04
  -6.641328e+05   4.498088e+04
  -1.330720e+05  -2.935192e+05
   8.094748e+05  -7.051543e+05
   1.195167e+06  -6.112435e+05
   7.062251e+05   1.152254e+05
  -8.252818e+04   8.474768e+05
  -4.819080e+05   8.428621e+05
  -3.645300e+05   1.280703e+05
  -3.426023e+04  -5.021890e+05
   2.408969e+05  -4.093272e+05
   3.595775e+05   1.905028e+05
   2.586141e+05   5.734673e+05
  -5.821191e+04   3.811585e+05
  -3.898520e+05  -5.881016e+04
  -4.623712e+05  -2.342662e+05
  -2.431225e+05  -5.858018e+04
   1.054350e+04   1.093944e+05
   8.089707e+04  -4.239193e+04
   5.134355e+04  -3.877461e+05
   1.407552e+05  -4.962479e+05
   3.484480e+05  -1.319103e+05
   3.989629e+05   4.317467e+05
   7.961304e+04   6.539432e+05
  -4.278351e+05   2.983356e+05
  -6.364655e+05  -2.998077e+05
  -2.402215e+05  -5.890186e+05
   4.840589e+05  -3.683289e+05
   8.537221e+05   8.033370e+04
   4.714812e+05   3.687931e+05
  -2.859224e+05   3.676822e+05
  -6.207973e+05   1.939704e+05
  -2.097576e+05   1.469134e+04
   4.013825e+05  -3.551686e+04
   4.316614e+05   1.115946e+05
  -2.069200e+05   3.294589e+05
  -8.120007e+05   2.865250e+05
