
 $NMID
 id='ANONYMOUS ', fmtdat='(2E16.6)'
 volume=1.0
 tramp=1.0
 $END
  -3.898994e+07   1.468509e+06
  -2.523768e+07  -2.165662e+07
   2.641678e+06  -2.620505e+07
   1.818462e+07  -1.270605e+07
   1.251439e+07   2.589133e+06
  -1.131314e+06   6.730999e+06
  -7.222734e+06   6.232676e+05
  -3.336628e+06  -6.618320e+06
   3.431675e+06  -7.891552e+06
   6.870388e+06  -2.607274e+06
   5.412339e+06   4.336791e+06
   8.285731e+05   6.558770e+06
  -2.951172e+06   1.921042e+06
  -2.225926e+06  -4.590211e+06
   2.424478e+06  -5.639547e+06
   5.850794e+06   2.518939e+05
   3.875575e+06   7.172425e+06
  -2.068868e+06   8.774427e+06
  -6.985979e+06   4.548963e+06
  -7.574803e+06  -1.351873e+06
  -4.407714e+06  -5.059108e+06
  -4.575118e+05  -5.463472e+06
   1.268803e+06  -3.772406e+06
   1.633164e+04  -2.324031e+06
  -1.556283e+06  -2.730536e+06
   1.501255e+05  -3.968280e+06
   4.868828e+06  -3.300779e+06
   7.767680e+06   2.531493e+04
   5.193740e+06   3.305345e+06
  -4.035790e+05   3.651004e+06
  -3.405769e+06   1.426163e+06
  -1.777307e+06  -7.832321e+05
   1.467002e+06  -1.306154e+06
   2.850623e+06  -1.453597e+05
   1.888115e+06   1.969612e+06
  -1.119258e+04   3.542377e+06
  -1.551362e+06   2.649410e+06
  -1.830823e+06  -5.131223e+05
  -6.724143e+05  -2.503006e+06
   4.988106e+05  -6.458602e+05
  -1.645370e+05   2.546146e+06
  -2.042050e+06   2.117007e+06
  -2.092546e+06  -2.101402e+06
   9.992729e+05  -4.484376e+06
   4.261271e+06  -1.167235e+06
   3.683171e+06   4.425272e+06
  -8.147718e+05   5.932444e+06
  -5.186027e+06   1.940396e+06
  -5.625105e+06  -3.096806e+06
  -2.003412e+06  -4.696980e+06
   2.573786e+06  -2.545491e+06
   4.509972e+06   7.219533e+05
   2.456286e+06   2.528391e+06
  -1.470847e+06   1.870850e+06
  -3.408100e+06  -3.265476e+05
  -1.701147e+06  -1.800159e+06
   1.150346e+06  -1.075770e+06
   1.559005e+06   6.926641e+05
  -5.931451e+05   1.050001e+06
  -1.981612e+06  -5.488818e+05
  -3.597174e+05  -2.094285e+06
   2.653622e+06  -1.719243e+06
   3.841265e+06   3.138711e+05
   2.024881e+06   2.598258e+06
  -1.360633e+06   4.045620e+06
  -4.150207e+06   3.786576e+06
  -4.898740e+06   1.233716e+06
  -3.353561e+06  -2.563255e+06
  -6.894707e+05  -4.852301e+06
   1.119497e+06  -3.972348e+06
   1.137366e+06  -1.527858e+06
   4.714227e+05  -3.719262e+05
   7.446375e+05  -9.332911e+05
   1.924892e+06  -1.101072e+06
   2.491880e+06   3.938806e+05
   1.501397e+06   2.140970e+06
  -3.725948e+05   2.063552e+06
  -1.728342e+06   5.548703e+04
  -1.596853e+06  -2.088601e+06
   1.103498e+05  -2.629771e+06
   2.404606e+06  -1.208637e+06
   3.511696e+06   1.174969e+06
   2.355587e+06   2.933590e+06
  -4.367822e+04   3.051365e+06
  -1.539722e+06   1.955734e+06
  -1.478033e+06   9.925086e+05
  -1.376706e+06   8.058574e+05
  -2.507686e+06   6.441198e+05
  -3.799233e+06  -4.619899e+05
  -3.129192e+06  -2.302411e+06
  -2.061368e+05  -3.653345e+06
   2.854148e+06  -3.492405e+06
   3.779888e+06  -1.770967e+06
   2.286795e+06   5.710692e+05
   7.022731e+03   2.035053e+06
  -1.134199e+06   1.596973e+06
  -4.587612e+05  -1.098444e+05
   1.024713e+06  -1.122480e+06
   1.621242e+06  -3.442394e+05
   7.133652e+05   1.005909e+06
  -5.261345e+05   9.875552e+05
  -5.273841e+05  -3.336274e+05
   7.351444e+05  -8.809686e+05
   1.711179e+06   5.958532e+05
   1.117115e+06   2.768336e+06
  -7.596925e+05   3.339759e+06
  -2.604437e+06   1.655405e+06
  -3.289127e+06  -8.953672e+05
  -2.440383e+06  -2.534956e+06
  -5.382279e+05  -2.525337e+06
   1.165889e+06  -1.348886e+06
   1.454660e+06  -1.681138e+05
   4.427702e+05   3.383308e+04
  -3.338727e+05  -6.663643e+05
   2.964016e+05  -1.149382e+06
   1.587837e+06  -5.397870e+05
   1.782406e+06   6.640171e+05
   4.163545e+05   1.184037e+06
  -1.020718e+06   5.532045e+05
  -8.857516e+05  -4.013850e+05
   7.158707e+05  -6.293872e+05
   2.109239e+06   9.618602e+04
   1.809293e+06   1.217121e+06
  -1.007528e+05   1.936816e+06
  -2.090170e+06   1.634200e+06
  -2.517869e+06   3.170199e+05
  -1.101202e+06  -1.065249e+06
   7.590549e+05  -1.276010e+06
   1.293098e+06  -1.766192e+05
   1.412115e+05   9.067419e+05
  -1.331381e+06   6.591999e+05
  -1.564804e+06  -6.347958e+05
  -4.122237e+05  -1.475359e+06
   9.022454e+05  -9.848071e+05
   1.166899e+06   1.596958e+05
   3.086050e+05   6.686999e+05
  -6.694435e+05   7.434999e+04
  -6.527872e+05  -9.297750e+05
   5.292014e+05  -1.274263e+06
   1.811550e+06  -4.787102e+05
   1.827520e+06   9.371108e+05
   3.709489e+05   1.846987e+06
  -1.238931e+06   1.497133e+06
  -1.534823e+06   2.491251e+05
  -4.970296e+05  -7.546992e+05
   5.656625e+05  -7.516206e+05
   6.158199e+05  -6.249498e+04
  -7.532874e+04   4.234888e+05
  -5.294785e+05   2.795296e+05
  -2.590672e+05  -1.026181e+05
   3.457315e+05  -7.763005e+04
   5.372933e+05   4.994136e+05
  -9.132887e+04   1.067333e+06
  -1.211081e+06   8.538128e+05
  -1.887287e+06  -3.309175e+05
  -1.344722e+06  -1.728867e+06
   1.662356e+05  -2.208942e+06
   1.457361e+06  -1.363977e+06
   1.601527e+06   4.313917e+04
   8.858877e+05   8.680528e+05
   3.158785e+05   7.410161e+05
   3.463441e+05   2.796711e+05
   4.802816e+05   2.298363e+05
   8.915342e+04   6.271150e+05
  -7.485812e+05   8.537997e+05
  -1.334980e+06   3.706752e+05
  -1.037951e+06  -6.637644e+05
   1.639528e+05  -1.416231e+06
   1.561758e+06  -1.057485e+06
   2.080007e+06   3.933897e+05
   1.103829e+06   1.875902e+06
  -8.088055e+05   2.156327e+06
  -2.235885e+06   1.025804e+06
  -2.180517e+06  -4.876066e+05
  -9.954293e+05  -1.205052e+06
   1.221556e+05  -9.608477e+05
   4.224026e+05  -5.499276e+05
   1.842428e+05  -6.593244e+05
   1.297830e+05  -1.100075e+06
   5.622520e+05  -1.117808e+06
   1.124786e+06  -2.894534e+05
   1.204385e+06   9.672123e+05
   5.160138e+05   1.711853e+06
  -5.570499e+05   1.306723e+06
  -1.173300e+06   2.753814e+04
  -7.763529e+05  -1.118159e+06
   2.761841e+05  -1.268385e+06
   9.860365e+05  -4.587096e+05
   7.462766e+05   5.123907e+05
  -1.698078e+04   9.228420e+05
  -3.837627e+05   7.375097e+05
  -3.743400e+04   4.187000e+05
   3.789496e+05   3.164151e+05
   4.881714e+04   3.545078e+05
  -1.006704e+06   2.227831e+05
  -1.831098e+06  -2.489222e+05
  -1.480902e+06  -8.862560e+05
  -4.417286e+04  -1.262963e+06
   1.355780e+06  -1.040462e+06
   1.633786e+06  -3.185303e+05
   7.894387e+05   3.630950e+05
  -1.945632e+05   4.865927e+05
  -4.460595e+05   7.123894e+04
  -1.735369e+04  -3.331043e+05
   4.183669e+05  -2.251459e+05
   4.317272e+05   3.022686e+05
   1.834214e+05   6.605926e+05
   4.127607e+04   4.302697e+05
   1.336498e+05  -1.264413e+05
   2.991392e+05  -3.119703e+05
   2.675057e+05   2.036039e+05
  -1.433308e+05   9.150302e+05
  -7.998332e+05   9.700778e+05
  -1.167302e+06   1.473982e+05
  -7.212495e+05  -8.138741e+05
   3.563374e+05  -9.883049e+05
   1.093566e+06  -2.750907e+05
   6.625425e+05   5.257334e+05
  -6.149547e+05   6.099063e+05
  -1.469254e+06  -3.816242e+04
  -9.975979e+05  -7.642130e+05
   3.787200e+05  -9.552288e+05
   1.378126e+06  -5.277132e+05
   1.175581e+06   1.245100e+05
   1.540876e+05   4.813466e+05
  -5.838780e+05   2.777348e+05
  -3.374579e+05  -2.450450e+05
   5.469808e+05  -4.539633e+05
   1.066741e+06   9.675175e+04
   5.764867e+05   1.078947e+06
  -5.656085e+05   1.529098e+06
  -1.359083e+06   7.870896e+05
  -1.147361e+06  -6.921326e+05
  -1.979632e+05  -1.640361e+06
   6.642898e+05  -1.214986e+06
   8.598834e+05   1.213774e+05
   4.395097e+05   1.083703e+06
  -1.539768e+05   9.159050e+05
  -5.039056e+05   1.014659e+05
  -4.576586e+05  -3.510330e+05
  -1.803815e+05  -1.390953e+05
  -3.243248e+04   9.871244e+04
  -2.169936e+05  -2.384270e+05
  -4.605106e+05  -8.643197e+05
  -2.227353e+05  -9.945619e+05
   6.059173e+05  -3.819022e+05
   1.357874e+06   4.092087e+05
   1.213784e+06   7.541204e+05
   1.831110e+05   6.291986e+05
  -8.031249e+05   3.852700e+05
  -9.095888e+05   1.878168e+05
  -3.081285e+05  -2.236153e+04
   1.408165e+05  -2.021766e+05
  -2.051132e+03  -2.100824e+05
  -2.764797e+05  -1.093498e+05
  -3.316053e+04  -1.219502e+05
   6.376849e+05  -2.029498e+05
   9.487168e+05   9.664581e+03
   3.512903e+05   6.123356e+05
  -7.843701e+05   1.055922e+06
  -1.513501e+06   6.860490e+05
  -1.245318e+06  -3.900910e+05
  -2.516936e+05  -1.282607e+06
   6.737863e+05  -1.253067e+06
   9.472469e+05  -4.794328e+05
   6.021813e+05   2.248634e+05
   1.113338e+05   3.230539e+05
  -8.900287e+04   3.701596e+04
   6.720422e+04  -4.036753e+04
   2.948661e+05   3.252644e+05
   2.463365e+05   7.367693e+05
  -1.622061e+05   6.126323e+05
  -6.245221e+05  -1.258969e+05
  -6.610854e+05  -8.762960e+05
  -8.370865e+04  -9.286107e+05
   6.956366e+05  -2.020881e+05
   9.362526e+05   6.692166e+05
   3.111371e+05   9.833834e+05
  -6.426083e+05   6.033024e+05
  -1.004422e+06  -6.102206e+04
  -4.786384e+05  -5.298271e+05
   2.474613e+05  -5.958630e+05
   3.176496e+05  -3.374531e+05
  -2.489250e+05  -1.965016e+04
  -5.975782e+05   3.803410e+04
  -1.294701e+05  -2.723117e+05
   7.450792e+05  -6.311724e+05
   1.123122e+06  -5.294295e+05
   6.749079e+05   1.280749e+05
  -7.819250e+04   7.822374e+05
  -4.691638e+05   7.801795e+05
  -3.574263e+05   1.393968e+05
  -3.946689e+04  -4.434557e+05
   2.147843e+05  -3.852483e+05
   3.195496e+05   1.519573e+05
   2.345986e+05   5.231079e+05
  -4.488499e+04   3.685691e+05
  -3.536231e+05  -4.558185e+04
  -4.317017e+05  -2.332459e+05
  -2.245163e+05  -7.113739e+04
   2.534111e+04   1.170682e+05
   8.269190e+04   2.988969e+03
   1.814454e+04  -3.295752e+05
   7.681270e+04  -4.688667e+05
   2.932493e+05  -1.604725e+05
   3.877605e+05   3.595876e+05
   1.116736e+05   5.834911e+05
  -3.767589e+05   2.785888e+05
  -5.913776e+05  -2.577736e+05
  -2.254118e+05  -5.257887e+05
   4.509376e+05  -3.372993e+05
   7.902576e+05   6.521135e+04
   4.343101e+05   3.374927e+05
  -2.594233e+05   3.520003e+05
  -5.691914e+05   1.970119e+05
  -2.104233e+05   2.012221e+04
   3.336429e+05  -4.418203e+04
   3.755265e+05   7.845750e+04
  -1.714571e+05   2.767895e+05
  -7.039379e+05   2.484665e+05
