
 $NMID
 id='ANONYMOUS ', fmtdat='(2E16.6)'
 volume=1.0
 tramp=1.0
 $END
   2.861633e+07   6.179645e+05
   1.662905e+07   1.840741e+07
  -4.509588e+06   1.933871e+07
  -1.425459e+07   6.758175e+06
  -8.081045e+06  -4.094439e+06
   1.962681e+06  -4.643869e+06
   4.878705e+06   9.736196e+05
   1.064141e+06   4.988609e+06
  -3.359059e+06   4.404640e+06
  -4.857269e+06   7.136824e+05
  -3.402461e+06  -3.168078e+06
  -3.254580e+05  -4.243162e+06
   1.997875e+06  -1.370010e+06
   1.230798e+06   2.603390e+06
  -1.974530e+06   3.077214e+06
  -3.904519e+06  -8.546474e+05
  -2.043872e+06  -5.179846e+06
   2.086002e+06  -5.849818e+06
   5.162438e+06  -2.862037e+06
   5.467172e+06   1.106316e+06
   3.367119e+06   3.865818e+06
   3.097117e+05   4.508349e+06
  -1.666260e+06   3.140778e+06
  -1.206591e+06   1.254055e+06
   4.076323e+05   8.433375e+05
   1.874508e+05   1.910021e+06
  -2.537206e+06   2.168026e+06
  -4.697714e+06   2.912932e+05
  -3.498478e+06  -2.036992e+06
  -2.212767e+05  -2.546496e+06
   1.736310e+06  -1.366891e+06
   1.252424e+06  -1.559589e+05
  -9.348405e+04   3.546737e+05
  -9.080517e+05   2.952761e+05
  -1.051754e+06  -5.340111e+05
  -4.492405e+05  -1.842022e+06
   8.700534e+05  -1.960824e+06
   1.729517e+06  -1.915425e+04
   9.549675e+05   1.863763e+06
  -4.205290e+05   1.111809e+06
  -2.536827e+05  -1.087493e+06
   1.188452e+06  -1.060619e+06
   1.146146e+06   1.651889e+06
  -1.401037e+06   3.047721e+06
  -3.641819e+06   3.782473e+05
  -2.530636e+06  -3.621842e+06
   1.121541e+06  -4.313535e+06
   3.777960e+06  -1.135649e+06
   3.348859e+06   2.289544e+06
   7.676540e+05   2.966633e+06
  -1.741464e+06   1.228409e+06
  -2.489938e+06  -8.624147e+05
  -1.061826e+06  -1.753126e+06
   1.274698e+06  -1.028096e+06
   2.236097e+06   5.538860e+05
   9.045510e+05   1.402978e+06
  -8.863821e+05   6.585865e+05
  -8.077994e+05  -5.308397e+05
   7.358649e+05  -3.726102e+05
   1.188626e+06   1.032485e+06
  -4.901474e+05   1.791261e+06
  -2.465866e+06   8.565709e+05
  -2.647540e+06  -8.367163e+05
  -1.073726e+06  -2.059348e+06
   9.177267e+05  -2.593020e+06
   2.434775e+06  -2.363004e+06
   3.041348e+06  -8.596174e+05
   2.284537e+06   1.554356e+06
   4.487249e+05   3.031289e+06
  -9.964528e+05   2.284751e+06
  -9.107291e+05   4.802565e+05
  -6.281384e+03  -2.282211e+05
   1.591624e+05   4.604530e+05
  -6.723140e+05   9.396329e+05
  -1.337763e+06   2.216162e+05
  -1.014898e+06  -8.386718e+05
  -8.434263e+04  -9.868680e+05
   6.680906e+05  -1.203485e+05
   7.683764e+05   9.380852e+05
   1.484591e+04   1.383556e+06
  -1.324546e+06   8.234192e+05
  -2.198729e+06  -5.569186e+05
  -1.604929e+06  -1.867844e+06
   3.402731e+04  -2.133185e+06
   1.181246e+06  -1.362143e+06
   1.157250e+06  -5.304611e+05
   9.173045e+05  -2.761394e+05
   1.414698e+06  -1.724189e+05
   2.069281e+06   4.199210e+05
   1.634604e+06   1.355079e+06
   2.716348e+04   1.960430e+06
  -1.536071e+06   1.833569e+06
  -1.975479e+06   1.014611e+06
  -1.275162e+06  -1.704870e+05
  -1.708079e+05  -1.054113e+06
   4.979834e+05  -9.397512e+05
   2.750693e+05   3.806644e+03
  -5.113852e+05   6.259451e+05
  -9.220300e+05   1.821546e+05
  -4.534037e+05  -5.901667e+05
   2.364798e+05  -5.265582e+05
   1.696489e+05   1.900377e+05
  -5.538526e+05   2.698097e+05
  -8.605617e+05  -7.356970e+05
  -1.758014e+05  -1.724636e+06
   9.056982e+05  -1.543454e+06
   1.531053e+06  -3.732537e+05
   1.489331e+06   7.794218e+05
   9.807700e+05   1.300720e+06
   1.767333e+05   1.198301e+06
  -5.825256e+05   6.823556e+05
  -7.406699e+05   1.104011e+05
  -2.334050e+05  -2.499249e+04
   1.631839e+05   3.611549e+05
  -2.209548e+05   6.466562e+05
  -9.371275e+05   2.596064e+05
  -9.698133e+05  -4.627275e+05
  -1.574413e+05  -6.940791e+05
   5.679676e+05  -2.538529e+05
   3.985267e+05   2.246299e+05
  -4.191417e+05   2.051005e+05
  -1.000254e+06  -2.086575e+05
  -7.649008e+05  -6.538865e+05
   1.570882e+05  -8.956941e+05
   1.100859e+06  -7.395483e+05
   1.312695e+06  -9.997487e+04
   5.699168e+05   6.237905e+05
  -4.602413e+05   7.263571e+05
  -7.678045e+05   8.069628e+04
  -9.883253e+04  -5.300539e+05
   7.329860e+05  -3.430602e+05
   8.077045e+05   3.974765e+05
   1.241361e+05   7.892470e+05
  -5.440862e+05   4.305165e+05
  -5.856386e+05  -1.865713e+05
  -8.820737e+04  -3.813092e+05
   3.930977e+05  -1.366129e+04
   3.483031e+05   5.120271e+05
  -2.792954e+05   6.789333e+05
  -9.587171e+05   2.522108e+05
  -9.663112e+05  -5.113722e+05
  -1.666867e+05  -9.946883e+05
   7.075266e+05  -7.701129e+05
   8.261816e+05  -7.626361e+04
   2.213967e+05   4.218695e+05
  -3.249736e+05   3.699057e+05
  -2.886507e+05   3.379718e+04
   6.845083e+04  -1.453256e+05
   2.134872e+05  -7.210305e+04
   1.911432e+04   2.149440e+04
  -2.291490e+05  -7.636611e+04
  -2.257437e+05  -3.502270e+05
   1.284741e+05  -5.654265e+05
   6.715011e+05  -4.081152e+05
   9.864438e+05   2.174742e+05
   6.827593e+05   9.373849e+05
  -1.205016e+05   1.143321e+06
  -7.728373e+05   6.401076e+05
  -7.809942e+05  -8.559690e+04
  -3.736677e+05  -4.121305e+05
  -1.410226e+05  -2.687250e+05
  -2.495720e+05  -8.398047e+04
  -3.207584e+05  -1.661757e+05
  -3.921091e+04  -3.814260e+05
   4.313811e+05  -4.148709e+05
   6.831565e+05  -1.284468e+05
   4.727922e+05   3.441508e+05
  -1.411558e+05   6.666225e+05
  -8.214362e+05   4.790663e+05
  -1.053178e+06  -2.508383e+05
  -5.075558e+05  -1.008836e+06
   5.190374e+05  -1.114427e+06
   1.229237e+06  -4.527172e+05
   1.097535e+06   3.532703e+05
   4.111098e+05   6.406631e+05
  -1.196872e+05   4.182348e+05
  -1.669061e+05   2.160659e+05
  -8.156670e+03   3.636802e+05
  -4.374137e+04   6.429919e+05
  -3.354255e+05   6.223544e+05
  -6.280989e+05   1.460715e+05
  -6.327778e+05  -5.205214e+05
  -2.539681e+05  -9.019427e+05
   3.019862e+05  -6.779846e+05
   6.072377e+05   1.474474e+04
   3.685920e+05   6.249253e+05
  -2.130019e+05   6.595761e+05
  -5.724951e+05   1.612790e+05
  -3.788432e+05  -3.685869e+05
   9.001126e+04  -5.247953e+05
   2.875186e+05  -3.604713e+05
   5.350189e+04  -1.843784e+05
  -2.092402e+05  -1.566652e+05
  -2.954527e+04  -1.801003e+05
   5.559788e+05  -8.680827e+04
   9.898645e+05   1.795807e+05
   7.593975e+05   5.132331e+05
  -4.684299e+04   6.921568e+05
  -7.834522e+05   5.339423e+05
  -8.773467e+05   1.051832e+05
  -3.831959e+05  -2.631931e+05
   1.383355e+05  -2.782357e+05
   2.483784e+05  -2.130437e+03
   1.761264e+04   2.150209e+05
  -2.045017e+05   1.250621e+05
  -2.294949e+05  -1.650003e+05
  -1.346572e+05  -3.413116e+05
  -5.992766e+04  -2.285160e+05
  -6.240758e+04   3.173653e+04
  -1.187399e+05   1.227741e+05
  -1.254649e+05  -1.137258e+05
   6.335119e+04  -4.618500e+05
   4.344574e+05  -5.039650e+05
   6.705550e+05  -8.541948e+04
   4.213003e+05   4.403936e+05
  -2.052060e+05   5.561137e+05
  -6.135184e+05   1.702995e+05
  -3.487606e+05  -2.700395e+05
   3.417016e+05  -2.989203e+05
   7.430015e+05   6.566996e+04
   4.447960e+05   4.184921e+05
  -2.536697e+05   4.475494e+05
  -7.055250e+05   1.897181e+05
  -5.636875e+05  -1.115401e+05
  -5.032630e+04  -2.387765e+05
   3.111601e+05  -1.135213e+05
   1.865833e+05   1.488728e+05
  -2.714010e+05   2.561124e+05
  -5.647392e+05  -2.805664e+04
  -3.339818e+05  -5.569768e+05
   2.640207e+05  -8.164675e+05
   6.975266e+05  -4.309451e+05
   5.949790e+05   3.553636e+05
   9.309107e+04   8.450684e+05
  -3.543519e+05   5.983242e+05
  -4.318500e+05  -1.013129e+05
  -1.837564e+05  -5.667787e+05
   1.265290e+05  -4.448967e+05
   2.715252e+05  -2.841100e+04
   2.049946e+05   1.759599e+05
   6.131777e+04   5.902862e+04
   2.911179e+04  -3.929780e+04
   1.533918e+05   1.543611e+05
   2.457967e+05   4.651941e+05
   6.663558e+04   5.056729e+05
  -3.622245e+05   1.782059e+05
  -6.931802e+05  -2.246859e+05
  -5.838221e+05  -3.990662e+05
  -8.226943e+04  -3.352627e+05
   3.886648e+05  -1.994687e+05
   4.595903e+05  -7.712021e+04
   1.841844e+05   3.800266e+04
  -6.296336e+04   1.090164e+05
  -3.704686e+04   8.476176e+04
   1.043937e+05   3.119861e+04
   3.265924e+04   6.269606e+04
  -2.909175e+05   1.221457e+05
  -5.002878e+05   4.915017e+02
  -2.380853e+05  -3.358001e+05
   3.794448e+05  -5.748420e+05
   8.242585e+05  -3.745212e+05
   7.000541e+05   1.941670e+05
   1.406529e+05   6.645446e+05
  -3.708524e+05   6.607840e+05
  -5.002932e+05   2.720681e+05
  -3.093384e+05  -9.652068e+04
  -7.392620e+04  -1.715317e+05
   1.435194e+04  -4.741958e+04
  -4.468005e+04  -8.668895e+03
  -1.312361e+05  -1.807142e+05
  -1.083420e+05  -3.831387e+05
   8.005963e+04  -3.285249e+05
   3.206814e+05   3.979509e+04
   3.686772e+05   4.361402e+05
   8.341402e+04   4.950039e+05
  -3.449005e+05   1.439192e+05
  -5.033794e+05  -3.189976e+05
  -1.839825e+05  -5.196881e+05
   3.348867e+05  -3.419675e+05
   5.443479e+05   2.669383e+04
   2.664326e+05   3.072420e+05
  -1.382435e+05   3.446804e+05
  -1.994478e+05   1.792816e+05
   9.675707e+04  -6.588960e+03
   3.032618e+05  -2.444907e+04
   7.770066e+04   1.509259e+05
  -3.905259e+05   3.216802e+05
  -6.146410e+05   2.417211e+05
  -3.831855e+05  -1.015436e+05
   4.224018e+04  -4.224858e+05
   2.802139e+05  -4.159182e+05
   2.252659e+05  -9.232381e+04
   3.959291e+04   2.195064e+05
  -1.091115e+05   2.202414e+05
  -1.683354e+05  -4.878410e+04
  -1.261090e+05  -2.731356e+05
   1.962734e+04  -2.221678e+05
   1.877201e+05   1.099303e+04
   2.330887e+05   1.463858e+05
   1.148288e+05   5.762161e+04
  -2.578046e+04  -8.794533e+04
  -3.713567e+04  -5.314620e+04
   3.633276e+04   1.573100e+05
   1.677641e+04   2.874882e+05
  -1.409337e+05   1.435857e+05
  -2.487802e+05  -1.562195e+05
  -1.141521e+05  -3.071023e+05
   1.830839e+05  -1.625899e+05
   3.323265e+05   1.171405e+05
   1.348367e+05   2.640943e+05
  -2.462054e+05   1.788721e+05
  -4.334220e+05  -2.325643e+04
  -2.360384e+05  -1.773252e+05
   1.390427e+05  -2.076080e+05
   3.101265e+05  -1.305713e+05
   1.358489e+05  -1.205508e+04
  -1.425455e+05   5.315652e+04
  -1.870124e+05  -3.815152e+03
   5.831305e+04  -1.267933e+05
   3.209923e+05  -1.364430e+05
