
 $NMID
 id='ANONYMOUS ', fmtdat='(2E16.6)'
 volume=1.0
 tramp=1.0
 $END
   3.297871e+07  -1.680030e+06
   2.106901e+07   1.935318e+07
  -3.073794e+06   2.262767e+07
  -1.581908e+07   9.586585e+06
  -1.007275e+07  -3.540292e+06
   1.604398e+06  -5.650529e+06
   5.921601e+06   3.539535e+05
   2.019029e+06   5.724366e+06
  -3.401518e+06   5.806376e+06
  -5.687636e+06   1.516903e+06
  -4.294700e+06  -3.475015e+06
  -6.863059e+05  -5.067192e+06
   2.273026e+06  -1.697697e+06
   1.657245e+06   3.202447e+06
  -2.086497e+06   4.030276e+06
  -4.714927e+06  -5.381285e+05
  -2.930927e+06  -5.900312e+06
   1.880999e+06  -7.076077e+06
   5.763182e+06  -3.762019e+06
   6.373083e+06   8.973122e+05
   4.067149e+06   4.158232e+06
   6.851750e+05   4.982462e+06
  -1.438117e+06   3.637930e+06
  -9.418344e+05   1.757815e+06
   6.742054e+05   1.385910e+06
   1.581991e+05   2.490334e+06
  -3.139125e+06   2.652302e+06
  -5.683898e+06   4.493826e+05
  -4.219611e+06  -2.273779e+06
  -2.302139e+05  -2.917884e+06
   2.141173e+06  -1.514967e+06
   1.390413e+06  -8.284566e+03
  -4.629762e+05   5.398797e+05
  -1.405801e+06   2.379612e+05
  -1.275292e+06  -8.819565e+05
  -4.104931e+05  -2.303011e+06
   9.670609e+05  -2.272707e+06
   1.821080e+06  -2.351927e+04
   1.059102e+06   2.033870e+06
  -3.428531e+05   1.091374e+06
  -1.719872e+05  -1.463816e+06
   1.438274e+06  -1.430934e+06
   1.559023e+06   1.817880e+06
  -1.206031e+06   3.720119e+06
  -4.015778e+06   8.682332e+05
  -3.221500e+06  -3.877793e+06
   8.351076e+05  -5.070755e+06
   4.289418e+06  -1.637976e+06
   4.248477e+06   2.466031e+06
   1.266757e+06   3.569229e+06
  -2.020746e+06   1.723828e+06
  -3.213612e+06  -7.843825e+05
  -1.568718e+06  -2.040675e+06
   1.362334e+06  -1.396412e+06
   2.717580e+06   4.088068e+05
   1.249533e+06   1.556477e+06
  -9.727778e+05   8.625957e+05
  -1.076789e+06  -5.785517e+05
   7.514829e+05  -6.357269e+05
   1.570929e+06   9.174374e+05
  -1.716188e+05   2.062514e+06
  -2.629521e+06   1.317905e+06
  -3.193820e+06  -6.019147e+05
  -1.511290e+06  -2.274220e+06
   9.457434e+05  -3.147196e+06
   2.879525e+06  -2.949777e+06
   3.620176e+06  -1.147121e+06
   2.748756e+06   1.761544e+06
   6.811652e+05   3.629848e+06
  -9.922357e+05   2.908214e+06
  -1.042107e+06   8.270553e+05
  -1.761013e+05  -1.242493e+05
  -4.077911e+04   5.348567e+05
  -9.469084e+05   1.018211e+06
  -1.644081e+06   1.303278e+05
  -1.189417e+06  -1.150916e+06
   2.821591e+03  -1.277695e+06
   9.562055e+05  -1.073857e+05
   1.031129e+06   1.259938e+06
   2.904168e+04   1.763374e+06
  -1.620706e+06   1.014927e+06
  -2.658943e+06  -6.328892e+05
  -1.975355e+06  -2.146114e+06
  -8.652154e+04  -2.482580e+06
   1.256772e+06  -1.662662e+06
   1.283577e+06  -7.514220e+05
   1.089285e+06  -4.723257e+05
   1.776256e+06  -3.547949e+05
   2.644887e+06   3.794202e+05
   2.154391e+06   1.614285e+06
   1.403972e+05   2.497215e+06
  -1.889075e+06   2.399556e+06
  -2.491387e+06   1.320288e+06
  -1.589777e+06  -2.307224e+05
  -1.724975e+05  -1.333152e+06
   6.441314e+05  -1.161410e+06
   3.326821e+05   1.801475e+04
  -6.430950e+05   7.993038e+05
  -1.143336e+06   2.709769e+05
  -5.704729e+05  -7.045853e+05
   3.052029e+05  -6.763259e+05
   2.781902e+05   2.417697e+05
  -6.412392e+05   4.745090e+05
  -1.190022e+06  -7.166762e+05
  -5.038905e+05  -2.119113e+06
   8.949180e+05  -2.160342e+06
   1.925704e+06  -7.782201e+05
   2.076507e+06   8.321521e+05
   1.434119e+06   1.682369e+06
   2.997308e+05   1.599977e+06
  -7.410614e+05   8.999923e+05
  -9.536036e+05   1.509501e+05
  -3.000504e+05  -2.175145e+04
   2.283277e+05   4.530916e+05
  -2.256056e+05   8.227425e+05
  -1.145781e+06   3.863803e+05
  -1.255120e+06  -5.035764e+05
  -2.626245e+05  -8.580121e+05
   7.079226e+05  -3.668693e+05
   5.524127e+05   2.737929e+05
  -5.207431e+05   3.401674e+05
  -1.353571e+06  -1.708082e+05
  -1.089008e+06  -8.247710e+05
   1.359460e+05  -1.220021e+06
   1.396788e+06  -1.038317e+06
   1.689511e+06  -1.998918e+05
   7.610575e+05   7.519737e+05
  -5.311403e+05   9.259258e+05
  -9.411327e+05   1.434750e+05
  -1.388252e+05  -6.482335e+05
   9.119009e+05  -4.689889e+05
   1.061405e+06   4.541151e+05
   2.300050e+05   1.010878e+06
  -6.597055e+05   6.187639e+05
  -7.816132e+05  -1.739363e+05
  -1.653752e+05  -4.802792e+05
   4.849624e+05  -4.905610e+04
   4.631017e+05   6.301147e+05
  -3.320275e+05   8.726209e+05
  -1.213862e+06   3.544502e+05
  -1.251815e+06  -6.130889e+05
  -2.613234e+05  -1.259259e+06
   8.563766e+05  -1.022534e+06
   1.052864e+06  -1.515381e+05
   3.195473e+05   5.267874e+05
  -3.938142e+05   5.004598e+05
  -3.862755e+05   4.914592e+04
   7.568066e+04  -2.281255e+05
   3.083735e+05  -1.285914e+05
   7.721741e+04   5.364009e+04
  -2.844820e+05  -3.039331e+04
  -3.349939e+05  -4.048607e+05
   1.078836e+05  -7.327794e+05
   8.330182e+05  -5.657873e+05
   1.275366e+06   2.264752e+05
   9.174055e+05   1.165934e+06
  -1.044616e+05   1.478472e+06
  -9.742415e+05   8.807086e+05
  -1.037980e+06  -6.218739e+04
  -5.294491e+05  -5.477497e+05
  -1.865139e+05  -4.004515e+05
  -2.818421e+05  -1.222314e+05
  -3.870146e+05  -1.727304e+05
  -7.066460e+04  -4.616227e+05
   5.242188e+05  -5.630052e+05
   8.842859e+05  -2.143652e+05
   6.478930e+05   4.351850e+05
  -1.422372e+05   8.988489e+05
  -1.042626e+06   6.744138e+05
  -1.378089e+06  -2.707575e+05
  -7.185951e+05  -1.270894e+06
   5.851074e+05  -1.461334e+06
   1.541597e+06  -6.656482e+05
   1.449480e+06   3.761408e+05
   6.009522e+05   8.158267e+05
  -1.228987e+05   5.867248e+05
  -2.412885e+05   3.104063e+05
  -3.974210e+04   4.472658e+05
  -4.046187e+04   7.900932e+05
  -3.865978e+05   7.944429e+05
  -7.818024e+05   2.136922e+05
  -8.273284e+05  -6.400213e+05
  -3.619854e+05  -1.146597e+06
   3.613892e+05  -8.822786e+05
   7.851659e+05  -1.368777e+04
   5.145512e+05   7.739593e+05
  -2.196393e+05   8.613919e+05
  -7.098168e+05   2.690828e+05
  -5.135814e+05  -4.128343e+05
   5.490204e+04  -6.637309e+05
   3.176339e+05  -4.928721e+05
   5.028529e+04  -2.588522e+05
  -2.659565e+05  -1.974906e+05
  -4.035986e+04  -2.316573e+05
   6.983280e+05  -1.456141e+05
   1.262923e+06   1.720859e+05
   1.001613e+06   6.114602e+05
  -5.199781e+02   8.805934e+05
  -9.519788e+05   7.217231e+05
  -1.116989e+06   1.944630e+05
  -5.221550e+05  -2.929145e+05
   1.481968e+05  -3.531021e+05
   3.146202e+05  -2.905897e+04
   2.891504e+04   2.538245e+05
  -2.648936e+05   1.606958e+05
  -2.977988e+05  -2.010844e+05
  -1.629229e+05  -4.309887e+05
  -6.515667e+04  -2.850474e+05
  -8.648391e+04   5.819868e+04
  -1.708535e+05   1.763423e+05
  -1.712625e+05  -1.393156e+05
   7.481908e+04  -5.995303e+05
   5.329420e+05  -6.618794e+05
   8.252071e+05  -1.327228e+05
   5.329124e+05   5.388155e+05
  -2.321561e+05   7.013170e+05
  -7.572693e+05   2.282882e+05
  -4.531820e+05  -3.377279e+05
   4.213413e+05  -4.053180e+05
   9.716007e+05   4.238981e+04
   6.222190e+05   5.222683e+05
  -2.902496e+05   6.127075e+05
  -9.153873e+05   3.049340e+05
  -7.558646e+05  -1.087265e+05
  -8.517281e+04  -3.141976e+05
   3.959549e+05  -1.714265e+05
   2.411993e+05   1.734956e+05
  -3.447662e+05   3.256190e+05
  -7.184612e+05  -2.888485e+04
  -4.280498e+05  -7.033594e+05
   3.274329e+05  -1.042289e+06
   8.852410e+05  -5.621027e+05
   7.748004e+05   4.414320e+05
   1.482775e+05   1.087543e+06
  -4.368046e+05   7.963205e+05
  -5.693625e+05  -1.000811e+05
  -2.753798e+05  -7.256538e+05
   1.294700e+05  -5.958286e+05
   3.455846e+05  -5.787681e+04
   2.841161e+05   2.266639e+05
   9.530424e+04   8.414999e+04
   3.158819e+04  -5.881207e+04
   1.848717e+05   1.738473e+05
   3.281765e+05   5.815720e+05
   1.238249e+05   6.588756e+05
  -4.387463e+05   2.551621e+05
  -9.046274e+05  -2.636589e+05
  -7.858000e+05  -4.971962e+05
  -1.227841e+05  -4.254192e+05
   5.077654e+05  -2.646034e+05
   5.968400e+05  -1.212668e+05
   2.286177e+05   2.753273e+04
  -8.243615e+04   1.388639e+05
  -2.906697e+04   1.264927e+05
   1.515567e+05   5.401444e+04
   3.613293e+04   7.787072e+04
  -3.881408e+05   1.525142e+05
  -6.382401e+05   1.361885e+04
  -2.900462e+05  -4.091353e+05
   4.815080e+05  -7.333586e+05
   1.026815e+06  -5.006435e+05
   8.774455e+05   2.270832e+05
   1.949951e+05   8.492109e+05
  -4.453296e+05   8.570208e+05
  -6.276741e+05   3.536436e+05
  -3.995137e+05  -1.251780e+05
  -9.252891e+04  -2.142795e+05
   2.961944e+04  -4.364371e+04
  -5.611168e+04   6.051076e+03
  -1.861878e+05  -2.247928e+05
  -1.604981e+05  -4.909182e+05
   9.388866e+04  -4.189143e+05
   4.121182e+05   5.464306e+04
   4.718660e+05   5.560121e+05
   1.032950e+05   6.227156e+05
  -4.427050e+05   1.737655e+05
  -6.443092e+05  -4.074101e+05
  -2.414159e+05  -6.552284e+05
   4.163411e+05  -4.349192e+05
   6.880944e+05   1.818322e+04
   3.460379e+05   3.686538e+05
  -1.584227e+05   4.302852e+05
  -2.330857e+05   2.382203e+05
   1.384622e+05   9.789001e+02
   3.917823e+05  -3.709853e+04
   1.000335e+05   1.856522e+05
  -4.912025e+05   4.282160e+05
  -7.706915e+05   3.488037e+05
  -4.829534e+05  -9.801790e+04
   3.922395e+04  -5.361556e+05
   3.283233e+05  -5.413496e+05
   2.645755e+05  -1.197141e+05
   4.646904e+04   2.840605e+05
  -1.326402e+05   2.757170e+05
  -2.130286e+05  -7.257295e+04
  -1.680345e+05  -3.459693e+05
   1.704216e+04  -2.701916e+05
   2.380478e+05   1.448177e+04
   3.022267e+05   1.676040e+05
   1.524483e+05   6.056605e+04
  -3.252566e+04  -9.719626e+04
  -5.805960e+04  -4.205635e+04
   2.685495e+04   2.027656e+05
   6.645391e+03   3.404326e+05
  -1.757143e+05   1.571736e+05
  -2.970246e+05  -2.033066e+05
  -1.280171e+05  -3.827590e+05
   2.346830e+05  -2.038267e+05
   4.158169e+05   1.462338e+05
   1.710463e+05   3.377263e+05
  -3.045826e+05   2.365063e+05
  -5.447643e+05  -1.981764e+04
  -3.034602e+05  -2.186581e+05
   1.675651e+05  -2.589441e+05
   3.841985e+05  -1.643999e+05
   1.607665e+05  -2.161391e+04
  -1.935566e+05   5.397571e+04
  -2.402807e+05  -1.879266e+04
   8.846821e+04  -1.696706e+05
   4.298896e+05  -1.759832e+05
