
 $NMID
 id='ANONYMOUS ', fmtdat='(2E16.6)'
 volume=1.0
 tramp=1.0
 $END
   4.454542e+07   2.293919e+04
   2.736734e+07   2.598229e+07
  -4.555907e+06   2.959149e+07
  -2.109420e+07   1.322678e+07
  -1.365247e+07  -3.734532e+06
   1.743781e+06  -7.471677e+06
   7.990946e+06  -2.499335e+05
   3.296539e+06   7.508865e+06
  -4.143501e+06   8.515724e+06
  -7.740728e+06   2.534664e+06
  -5.965579e+06  -5.087112e+06
  -7.620296e+05  -7.422678e+06
   3.446960e+06  -2.144243e+06
   2.485101e+06   5.114006e+06
  -2.815969e+06   6.133032e+06
  -6.502218e+06  -5.718959e+05
  -4.028642e+06  -8.210334e+06
   2.722612e+06  -9.756294e+06
   8.118095e+06  -4.839795e+06
   8.610325e+06   1.852171e+06
   4.878078e+06   6.040662e+06
   2.238719e+05   6.410327e+06
  -1.844431e+06   4.240847e+06
  -3.096988e+05   2.334597e+06
   1.733660e+06   2.771447e+06
  -4.375074e+04   4.373623e+06
  -5.414127e+06   3.773573e+06
  -8.766765e+06  -2.185344e+04
  -5.883826e+06  -3.837596e+06
   4.324147e+05  -4.283124e+06
   3.860684e+06  -1.772282e+06
   2.160720e+06   7.744860e+05
  -1.383960e+06   1.504297e+06
  -3.043662e+06   3.350427e+05
  -2.186323e+06  -2.071112e+06
  -9.077830e+04  -3.995627e+06
   1.836896e+06  -3.040749e+06
   2.261713e+06   6.525186e+05
   7.917328e+05   3.007146e+06
  -7.287184e+05   8.651445e+05
   4.052901e+04  -2.810599e+06
   2.254839e+06  -2.301656e+06
   2.228285e+06   2.448418e+06
  -1.401839e+06   4.945457e+06
  -4.964722e+06   9.951076e+05
  -3.981385e+06  -5.257057e+06
   1.238266e+06  -6.676396e+06
   5.957301e+06  -1.995873e+06
   6.175362e+06   3.598096e+06
   2.071029e+06   5.221100e+06
  -2.894978e+06   2.725918e+06
  -4.915003e+06  -9.047001e+05
  -2.587880e+06  -2.845658e+06
   1.744354e+06  -2.009176e+06
   3.803854e+06   5.093107e+05
   1.811227e+06   2.100465e+06
  -1.346922e+06   1.176489e+06
  -1.696552e+06  -7.959984e+05
   7.108194e+05  -1.054090e+06
   2.091149e+06   7.899457e+05
   1.337451e+05   2.346087e+06
  -3.147399e+06   1.700581e+06
  -4.251049e+06  -6.040728e+05
  -2.110771e+06  -3.014870e+06
   1.620728e+06  -4.519733e+06
   4.683962e+06  -4.211193e+06
   5.532423e+06  -1.333133e+06
   3.780668e+06   2.956314e+06
   7.047315e+05   5.472463e+06
  -1.357139e+06   4.352365e+06
  -1.271643e+06   1.547475e+06
  -3.883283e+05   3.424879e+05
  -6.742807e+05   1.116043e+06
  -2.090556e+06   1.371956e+06
  -2.829973e+06  -3.182653e+05
  -1.777663e+06  -2.325056e+06
   3.118900e+05  -2.313662e+06
   1.870585e+06  -1.451737e+05
   1.792511e+06   2.242106e+06
  -8.879768e+04   2.917672e+06
  -2.695167e+06   1.379355e+06
  -3.967493e+06  -1.331884e+06
  -2.626673e+06  -3.368486e+06
   1.429860e+05  -3.480161e+06
   1.839347e+06  -2.160469e+06
   1.712661e+06  -1.020980e+06
   1.526115e+06  -8.182833e+05
   2.742593e+06  -6.640942e+05
   4.160090e+06   5.441877e+05
   3.421404e+06   2.550153e+06
   2.201057e+05   4.012097e+06
  -3.128265e+06   3.847980e+06
  -4.165848e+06   1.988768e+06
  -2.567669e+06  -6.006761e+05
  -6.298563e+04  -2.271309e+06
   1.242374e+06  -1.812021e+06
   5.333000e+05   1.105548e+05
  -1.120038e+06   1.261409e+06
  -1.806237e+06   3.819811e+05
  -8.044275e+05  -1.136206e+06
   5.677032e+05  -1.111838e+06
   5.638546e+05   3.402449e+05
  -7.983520e+05   9.032653e+05
  -1.795063e+06  -7.262975e+05
  -1.098954e+06  -3.021809e+06
   8.944911e+05  -3.537930e+06
   2.800456e+06  -1.690589e+06
   3.509671e+06   9.995557e+05
   2.634083e+06   2.718157e+06
   6.041839e+05   2.727272e+06
  -1.266714e+06   1.487543e+06
  -1.602535e+06   1.993766e+05
  -4.876903e+05  -3.914993e+04
   3.696190e+05   7.305449e+05
  -3.380784e+05   1.266530e+06
  -1.764027e+06   5.837141e+05
  -1.959418e+06  -7.497906e+05
  -4.470093e+05  -1.310119e+06
   1.117043e+06  -6.109258e+05
   9.649100e+05   4.178285e+05
  -7.599942e+05   6.575818e+05
  -2.259622e+06  -1.058428e+05
  -1.951695e+06  -1.292800e+06
   9.814776e+04  -2.082802e+06
   2.268384e+06  -1.782940e+06
   2.757320e+06  -3.489196e+05
   1.207180e+06   1.183070e+06
  -8.536941e+05   1.414643e+06
  -1.445230e+06   1.840890e+05
  -1.608846e+05  -1.016750e+06
   1.468213e+06  -7.304745e+05
   1.714236e+06   7.000163e+05
   4.422986e+05   1.610743e+06
  -9.870717e+05   1.062629e+06
  -1.265303e+06  -1.824726e+05
  -3.299083e+05  -7.282188e+05
   7.342631e+05  -7.943268e+04
   7.204565e+05   1.016593e+06
  -5.714009e+05   1.401495e+06
  -1.986365e+06   5.354185e+05
  -2.011861e+06  -1.024834e+06
  -4.078177e+05  -2.030718e+06
   1.366466e+06  -1.641639e+06
   1.687327e+06  -2.663117e+05
   5.435441e+05   8.302884e+05
  -6.181102e+05   8.261309e+05
  -6.744106e+05   8.461985e+04
   6.388843e+04  -4.420729e+05
   5.457484e+05  -3.094044e+05
   2.653060e+05   7.573918e+04
  -3.625591e+05   4.759710e+04
  -5.577563e+05  -5.542761e+05
   1.161407e+05  -1.154933e+06
   1.325676e+06  -9.253499e+05
   2.064686e+06   3.635930e+05
   1.474658e+06   1.895927e+06
  -1.778499e+05   2.421431e+06
  -1.585997e+06   1.490938e+06
  -1.739183e+06  -4.345434e+04
  -9.679131e+05  -9.287974e+05
  -3.673967e+05  -7.883817e+05
  -4.056693e+05  -3.084359e+05
  -5.300774e+05  -2.732962e+05
  -8.384871e+04  -6.955701e+05
   8.226597e+05  -9.216865e+05
   1.445405e+06  -3.972085e+05
   1.123232e+06   7.114027e+05
  -1.733520e+05   1.526935e+06
  -1.695512e+06   1.148958e+06
  -2.269119e+06  -4.255135e+05
  -1.203170e+06  -2.046624e+06
   8.929963e+05  -2.351909e+06
   2.447816e+06  -1.110930e+06
   2.373384e+06   5.361406e+05
   1.078420e+06   1.301343e+06
  -1.233128e+05   1.030159e+06
  -4.373991e+05   6.034299e+05
  -1.869648e+05   7.472525e+05
  -1.475806e+05   1.228887e+06
  -6.294814e+05   1.231287e+06
  -1.242332e+06   3.144936e+05
  -1.326612e+06  -1.061414e+06
  -5.715370e+05  -1.878211e+06
   6.069625e+05  -1.437260e+06
   1.283159e+06  -3.311809e+04
   8.442044e+05   1.224801e+06
  -3.094294e+05   1.381365e+06
  -1.075916e+06   4.833997e+05
  -7.993712e+05  -5.753584e+05
   3.781489e+04  -1.004992e+06
   4.279033e+05  -7.900542e+05
   3.797235e+04  -4.485528e+05
  -4.196922e+05  -3.483900e+05
  -5.469547e+04  -3.888985e+05
   1.104238e+06  -2.353890e+05
   2.006879e+06   2.830768e+05
   1.617938e+06   9.732152e+05
   3.679306e+04   1.378046e+06
  -1.495834e+06   1.132238e+06
  -1.787147e+06   3.425288e+05
  -8.501858e+05  -4.015840e+05
   2.235067e+05  -5.315721e+05
   4.850440e+05  -7.021988e+04
   1.049292e+04   3.748379e+05
  -4.610400e+05   2.517466e+05
  -4.746437e+05  -3.348457e+05
  -2.092432e+05  -7.343461e+05
  -5.182350e+04  -4.823227e+05
  -1.383051e+05   1.340119e+05
  -3.112194e+05   3.442568e+05
  -2.870068e+05  -2.197949e+05
   1.509135e+05  -1.002794e+06
   8.757719e+05  -1.062392e+06
   1.290839e+06  -1.540621e+05
   7.981034e+05   9.031293e+05
  -3.996697e+05   1.088837e+06
  -1.213391e+06   3.001714e+05
  -7.311143e+05  -5.765637e+05
   6.741869e+05  -6.648453e+05
   1.602484e+06   4.055953e+04
   1.082286e+06   8.246553e+05
  -4.124382e+05   1.030935e+06
  -1.493158e+06   5.733936e+05
  -1.274668e+06  -1.296338e+05
  -1.690972e+05  -5.202887e+05
   6.349300e+05  -3.020496e+05
   3.695963e+05   2.725287e+05
  -6.005304e+05   5.069371e+05
  -1.178722e+06  -1.001161e+05
  -6.440594e+05  -1.190156e+06
   6.163858e+05  -1.692952e+06
   1.495309e+06  -8.752261e+05
   1.264756e+06   7.566732e+05
   2.229829e+05   1.799852e+06
  -7.204835e+05   1.330834e+06
  -9.347503e+05  -1.328381e+05
  -4.795638e+05  -1.179787e+06
   1.649769e+05  -9.919816e+05
   5.484101e+05  -1.079840e+05
   5.007012e+05   3.751943e+05
   1.973751e+05   1.425040e+05
   3.467485e+04  -1.047335e+05
   2.388119e+05   2.741017e+05
   5.074551e+05   9.521101e+05
   2.444982e+05   1.080695e+06
  -6.671123e+05   4.092316e+05
  -1.490150e+06  -4.441018e+05
  -1.328581e+06  -8.157036e+05
  -1.992757e+05  -6.891475e+05
   8.775393e+05  -4.320450e+05
   9.927286e+05  -2.093954e+05
   3.362601e+05   3.275243e+04
  -1.537998e+05   2.261548e+05
   2.143862e+03   2.194625e+05
   3.035431e+05   1.062749e+05
   3.928506e+04   1.360519e+05
  -6.973879e+05   2.362735e+05
  -1.044692e+06  -7.476950e+03
  -3.925444e+05  -6.861922e+05
   8.600238e+05  -1.173705e+06
   1.670700e+06  -7.539708e+05
   1.379570e+06   4.350288e+05
   2.826831e+05   1.410773e+06
  -7.410639e+05   1.375876e+06
  -1.044725e+06   5.314931e+05
  -6.659201e+05  -2.406460e+05
  -1.252229e+05  -3.578211e+05
   9.885713e+04  -5.185175e+04
  -6.854290e+04   3.809878e+04
  -3.194500e+05  -3.528868e+05
  -2.712106e+05  -8.040966e+05
   1.767386e+05  -6.766421e+05
   6.918689e+05   1.306855e+05
   7.383413e+05   9.631966e+05
   9.874408e+04   1.031356e+06
  -7.703827e+05   2.341125e+05
  -1.040514e+06  -7.320944e+05
  -3.466029e+05  -1.086099e+06
   7.106589e+05  -6.690038e+05
   1.108145e+06   6.772638e+04
   5.232646e+05   5.884448e+05
  -2.783872e+05   6.580917e+05
  -3.527988e+05   3.652874e+05
   2.730923e+05   1.189045e+04
   6.564346e+05  -4.580309e+04
   1.423754e+05   3.025029e+05
  -8.159460e+05   6.949328e+05
  -1.229840e+06   5.746305e+05
  -7.393915e+05  -1.505465e+05
   8.692962e+04  -8.623364e+05
   5.205197e+05  -8.527622e+05
   4.022664e+05  -1.483351e+05
   4.977401e+04   4.900602e+05
  -2.389211e+05   4.273295e+05
  -3.586422e+05  -1.624293e+05
  -2.599073e+05  -5.753007e+05
   5.430269e+04  -4.103693e+05
   3.923481e+05   4.788749e+04
   4.712546e+05   2.603268e+05
   2.422951e+05   8.006081e+04
  -2.419913e+04  -1.350187e+05
  -7.880781e+04  -8.909646e+03
  -9.258531e+03   3.705035e+05
  -8.454795e+04   5.343826e+05
  -3.336113e+05   1.883576e+05
  -4.409096e+05  -4.001854e+05
  -1.316515e+05  -6.539341e+05
   4.153466e+05  -3.126755e+05
   6.579402e+05   2.845086e+05
   2.539353e+05   5.796015e+05
  -4.968516e+05   3.700599e+05
  -8.742972e+05  -7.237545e+04
  -4.796899e+05  -3.719575e+05
   2.899139e+05  -3.905759e+05
   6.334707e+05  -2.195459e+05
   2.356121e+05  -1.703019e+04
  -3.690293e+05   6.119102e+04
  -4.204639e+05  -7.785234e+04
   1.792705e+05  -3.095443e+05
   7.684423e+05  -2.867295e+05
