
 $NMID
 id='ANONYMOUS ', fmtdat='(2E16.6)'
 volume=1.0
 tramp=1.0
 $END
   5.161080e+02   5.189809e+01
   1.308726e+02   1.052625e+02
  -5.142777e+01   2.947842e+02
  -1.229613e+02   1.600194e+02
  -1.283687e+02  -2.585292e+01
  -1.600706e+01   1.005100e+02
   3.669697e+01   1.704924e+01
   1.539361e+01   2.931437e+01
  -9.734656e+01   8.141399e+01
  -2.261017e+01   2.436104e+01
  -9.007601e+01  -4.192821e-01
   1.294034e+01  -7.916429e+01
  -2.339343e+01  -8.581574e+00
   4.900392e+01   1.942509e+01
  -1.056222e+01   7.340283e+01
  -7.595493e+01  -1.042071e+01
   2.169374e+00  -3.856007e+01
   2.174641e+01  -9.621128e+01
   6.754344e+01   5.796425e+00
   3.949801e+01   3.079756e+01
   2.009918e+01   1.821210e+01
  -1.446552e+01   2.979396e+01
   7.031107e+00   1.321953e+01
  -3.253641e+01  -9.519330e-01
  -1.453613e+01  -1.298939e+00
   1.034511e+01   1.358399e+01
   7.686477e+00   1.696827e+01
  -3.864561e+01  -4.910143e-01
  -3.512962e+01  -1.226211e+01
   9.012171e+00  -2.995513e+01
   3.688158e+01  -1.430563e+01
   3.598791e+01   1.407080e+01
  -1.111449e+01   4.271920e+01
  -4.595970e+01   3.072923e+01
  -2.860694e+01  -8.431936e+00
   1.292664e+01  -4.037385e+01
   2.829426e+01  -2.882452e+01
   1.495848e+01   2.154538e+01
  -2.506305e+01   4.405126e+01
  -4.388681e+01   5.369088e+00
  -1.744420e+01  -4.772668e+01
   4.735827e+01  -5.569112e+01
   4.925830e+01  -2.600781e+00
   1.823585e+01   5.463988e+01
  -2.396156e+01   3.525136e+01
  -2.829488e+01  -2.480530e+01
   1.956069e+00  -4.064885e+01
   3.863814e+01  -1.957657e+01
   4.074989e+01   2.891788e+01
   1.404939e+01   4.133486e+01
  -2.394965e+01   2.331555e+01
  -4.844963e+01  -8.156482e+00
  -2.391480e+01  -2.985520e+01
   1.671314e+01  -2.588833e+01
   3.782953e+01  -2.201106e+00
   1.701347e+01   1.780634e+01
  -1.313235e+01   9.312716e+00
  -1.541740e+01  -1.374177e+01
   9.942079e+00  -1.875012e+01
   2.548363e+01   2.087520e+00
   1.003380e+01   2.074897e+01
  -1.503729e+01   1.567646e+01
  -1.954009e+01  -2.987751e+00
  -4.254643e+00  -1.315622e+01
   9.422029e+00  -1.446076e+01
   1.177846e+01  -1.353091e+01
   1.050787e+01  -7.814156e+00
   9.500572e+00   7.313060e+00
   4.481370e+00   1.981013e+01
  -7.650744e-01   1.533141e+01
  -8.392629e-01   2.524555e+00
   4.561554e-01   2.101511e+00
  -5.412431e+00   1.297039e+01
  -1.585940e+01   1.274137e+01
  -2.010683e+01  -4.230435e+00
  -1.053421e+01  -1.912362e+01
   1.632898e+00  -1.430176e+01
   1.192533e+01   5.651226e-01
   1.133290e+01   1.254491e+01
   7.319011e-01   1.346040e+01
  -1.314785e+01   5.814820e+00
  -2.546905e+01  -1.197124e+01
  -1.373824e+01  -2.441510e+01
   8.912851e+00  -2.401433e+01
   2.261507e+01  -1.022211e+01
   1.673411e+01   2.070797e+00
   9.300390e+00  -3.871475e+00
   1.327474e+01  -6.106286e+00
   2.618768e+01   3.769411e+00
   2.550861e+01   2.169334e+01
   4.095724e+00   3.060263e+01
  -2.065797e+01   2.661404e+01
  -2.834762e+01   1.305630e+01
  -2.027848e+01  -2.619858e+00
  -4.593381e+00  -1.423862e+01
   5.947687e+00  -1.619193e+01
   6.044367e+00  -3.187133e+00
  -4.322026e+00   7.877727e+00
  -1.059663e+01   2.086798e+00
  -3.194091e+00  -1.135816e+01
   9.110783e+00  -1.004638e+01
   1.120874e+01   4.422323e+00
  -1.069840e+00   1.183164e+01
  -1.221811e+01   3.212824e-01
  -8.212489e+00  -1.598928e+01
   3.310359e+00  -2.088012e+01
   1.407159e+01  -1.015918e+01
   1.939245e+01   1.597645e+00
   1.741777e+01   9.983828e+00
   9.366716e+00   1.327127e+01
  -2.345612e+00   1.110915e+01
  -9.083616e+00   4.221783e+00
  -3.735242e+00   3.436462e-01
   4.127043e+00   3.569021e+00
   2.086642e+00   8.191866e+00
  -7.005035e+00   6.175846e+00
  -9.566848e+00  -1.443979e+00
  -2.431209e+00  -2.358916e+00
   3.251819e+00   3.391929e+00
  -1.937065e+00   6.474911e+00
  -1.180538e+01   9.250918e-01
  -1.601550e+01  -7.053352e+00
  -1.067061e+01  -1.048108e+01
   7.089386e-01  -1.215970e+01
   1.023378e+01  -1.331880e+01
   1.295588e+01  -8.991922e+00
   8.011020e+00   4.909729e-01
   1.947019e-01   6.397019e+00
  -1.302127e+00   1.168958e+00
   4.620552e+00  -6.319950e+00
   1.155563e+01  -3.594851e+00
   1.106448e+01   7.536701e+00
   2.762281e+00   1.411953e+01
  -4.682669e+00   9.755482e+00
  -6.475786e+00   1.311974e+00
  -3.856508e+00  -1.294398e+00
  -5.944055e-01   2.790608e+00
  -9.635668e-01   7.413531e+00
  -6.131961e+00   6.162324e+00
  -1.259462e+01  -1.769705e+00
  -1.212793e+01  -1.159595e+01
  -9.465406e-01  -1.513697e+01
   1.178829e+01  -8.747779e+00
   1.372678e+01   2.013168e+00
   4.509727e+00   8.327890e+00
  -4.909932e+00   5.071465e+00
  -4.958664e+00  -3.522530e-01
   5.737837e-02  -1.573366e+00
   1.763548e+00   6.513679e-01
  -2.033541e+00   1.836101e+00
  -5.724319e+00  -1.682850e+00
  -5.191201e+00  -6.329654e+00
   1.284546e+00  -9.995529e+00
   9.845369e+00  -9.057805e+00
   1.439129e+01  -1.093851e+00
   1.053073e+01   1.030262e+01
   1.304269e+00   1.663801e+01
  -6.758269e+00   1.140898e+01
  -8.627492e+00   1.301729e+00
  -5.656706e+00  -4.257296e+00
  -4.441601e+00  -1.892142e+00
  -6.329687e+00   1.038740e+00
  -6.214863e+00  -1.525779e+00
  -1.555390e+00  -6.431283e+00
   3.935312e+00  -7.269481e+00
   6.241746e+00  -3.070780e+00
   3.146387e+00   3.051764e+00
  -2.946501e+00   5.908621e+00
  -8.076776e+00   3.059796e+00
  -1.011362e+01  -6.635657e+00
  -4.753580e+00  -1.327699e+01
   7.820526e+00  -1.345164e+01
   1.678623e+01  -5.457442e+00
   1.551100e+01   5.038854e+00
   7.720052e+00   1.071386e+01
  -1.441021e+00   1.000105e+01
  -4.621277e+00   7.378879e+00
  -5.507091e+00   6.703923e+00
  -6.876356e+00   6.545361e+00
  -8.760231e+00   4.442634e+00
  -9.398333e+00  -2.471344e+00
  -6.699877e+00  -1.033088e+01
  -1.179793e+00  -1.428714e+01
   5.755632e+00  -1.066760e+01
   9.617817e+00  -1.391147e+00
   7.209018e+00   7.265317e+00
   8.463269e-01   8.952164e+00
  -3.393751e+00   4.463407e+00
  -2.272266e+00  -2.555184e-01
   5.941847e-02  -1.422215e+00
  -6.370659e-01  -1.042660e+00
  -3.867302e+00  -1.702006e+00
  -4.734068e+00  -3.345080e+00
  -5.438347e-01  -3.675356e+00
   6.115228e+00  -1.351361e+00
   9.896642e+00   2.416800e+00
   7.368443e+00   5.105007e+00
  -5.081083e-01   5.618948e+00
  -7.456366e+00   3.590373e+00
  -7.771201e+00   3.001067e-01
  -1.946378e+00  -1.730736e+00
   3.715513e+00  -5.798497e-01
   3.234446e+00   2.926745e+00
  -1.654930e+00   5.072809e+00
  -4.820585e+00   3.249859e+00
  -4.591491e+00  -1.206633e+00
  -3.047321e+00  -4.043363e+00
  -3.462098e+00  -3.325283e+00
  -4.609823e+00  -1.136916e+00
  -4.041170e+00  -9.878164e-01
  -1.134496e+00  -5.265055e+00
   3.133172e+00  -9.233966e+00
   7.891381e+00  -7.901355e+00
   1.027443e+01  -6.236022e-01
   7.164647e+00   6.451706e+00
  -1.204510e-01   7.189799e+00
  -5.559379e+00   2.382379e+00
  -3.025843e+00  -1.379653e+00
   5.009610e+00   2.380982e-01
   9.309704e+00   5.189661e+00
   3.704837e+00   8.285647e+00
  -6.877549e+00   7.092724e+00
  -1.320355e+01   2.507434e+00
  -1.042589e+01  -2.976141e+00
  -2.452547e+00  -5.963361e+00
   3.430931e+00  -4.848281e+00
   2.581884e+00  -3.965857e-01
  -2.510729e+00   1.782599e+00
  -5.228483e+00  -1.900960e+00
  -1.269072e+00  -8.615274e+00
   6.882193e+00  -1.088008e+01
   1.159823e+01  -3.788761e+00
   8.325790e+00   8.005152e+00
  -1.922341e-01   1.444236e+01
  -6.541664e+00   9.655525e+00
  -7.380858e+00  -1.610104e+00
  -3.955131e+00  -9.109472e+00
   5.043087e-01  -7.957653e+00
   3.564335e+00  -1.925638e+00
   4.320917e+00   1.665235e+00
   3.055363e+00   4.644384e-01
   1.503901e+00  -6.589564e-01
   1.786709e+00   2.263602e+00
   3.208692e+00   7.093168e+00
   1.883988e+00   7.700529e+00
  -3.621011e+00   2.872565e+00
  -9.268684e+00  -3.115591e+00
  -8.276380e+00  -4.652694e+00
  -1.265043e+00  -3.143267e+00
   5.128418e+00  -1.524520e+00
   4.928230e+00  -5.478016e-01
   1.082244e-01   5.158228e-01
  -2.325968e+00   1.219171e+00
  -3.602290e-01   1.281505e-01
   1.736416e+00  -1.101233e+00
  -4.146000e-01  -6.731607e-01
  -5.242290e+00   6.788788e-01
  -6.102469e+00  -1.060241e+00
  -1.716679e-01  -5.885587e+00
   8.880712e+00  -8.487244e+00
   1.304051e+01  -3.377167e+00
   9.296445e+00   6.303612e+00
   7.200873e-01   1.191617e+01
  -6.296563e+00   9.673140e+00
  -8.159183e+00   2.747748e+00
  -5.407089e+00  -2.279718e+00
  -1.679206e+00  -2.460188e+00
   3.867636e-01  -5.811859e-01
  -2.641936e-01  -5.824729e-01
  -1.523887e+00  -3.448452e+00
  -1.045614e+00  -5.970237e+00
   1.921198e+00  -4.403360e+00
   5.142069e+00   1.628124e+00
   4.853430e+00   7.363961e+00
   8.927203e-02   7.254283e+00
  -5.594319e+00   1.186699e+00
  -6.646007e+00  -5.375651e+00
  -1.613829e+00  -7.071964e+00
   4.825272e+00  -3.682475e+00
   6.383237e+00   1.005761e+00
   2.113777e+00   3.616540e+00
  -2.123410e+00   3.535416e+00
  -1.591295e+00   1.958898e+00
   2.470694e+00   2.482814e-01
   4.114341e+00  -3.851010e-02
  -5.198541e-02   1.796682e+00
  -5.753302e+00   3.870733e+00
  -7.136165e+00   3.104691e+00
  -3.628448e+00  -1.251216e+00
   1.066590e+00  -5.033101e+00
   3.137975e+00  -4.433967e+00
   2.179300e+00  -2.848900e-01
   2.228076e-01   2.771160e+00
  -1.192278e+00   1.945172e+00
  -1.919083e+00  -1.184025e+00
  -1.634358e+00  -2.712797e+00
   7.389591e-02  -1.534828e+00
   1.839762e+00   3.459036e-01
   2.479082e+00   7.738506e-01
   1.803379e+00  -4.841545e-01
   1.000760e+00  -7.140409e-01
   4.429255e-02   1.100730e+00
  -9.233082e-01   3.510244e+00
  -2.536542e+00   3.208279e+00
  -3.039872e+00  -1.838251e-01
  -1.509496e+00  -4.099060e+00
   1.509795e+00  -4.615810e+00
   3.984198e+00  -5.294515e-01
   3.746946e+00   3.817006e+00
   3.316978e-01   4.917913e+00
  -4.030040e+00   2.057338e+00
  -5.624208e+00  -1.454863e+00
  -2.947497e+00  -2.864899e+00
   2.123580e+00  -2.135857e+00
   4.147689e+00  -6.953249e-01
   1.067734e+00   7.767731e-02
  -2.710561e+00  -3.242267e-01
  -2.583935e+00  -1.351257e+00
   2.152780e+00  -2.326784e+00
   5.968028e+00  -1.275243e+00
