
 $NMID
 id='ANONYMOUS ', fmtdat='(2E16.6)'
 volume=1.0
 tramp=1.0
 $END
  -3.633342e+03   1.624887e+02
  -2.122168e+03  -1.969947e+03
   2.509657e+02  -2.280372e+03
   1.580403e+03  -1.204570e+03
   1.008170e+03   3.159670e+02
  -2.955537e+02   3.382603e+02
  -6.276774e+02  -2.777775e+02
  -3.567474e+01  -7.819635e+02
   6.122466e+02  -6.386353e+02
   7.350597e+02  -2.379462e+01
   4.636516e+02   6.043580e+02
  -1.232063e+02   7.343024e+02
  -4.270055e+02   1.093198e+02
  -2.665124e+02  -5.867071e+02
   1.919992e+02  -6.041679e+02
   5.563781e+02  -5.674403e+01
   2.635453e+02   5.145925e+02
  -1.727248e+02   5.487493e+02
  -5.089270e+02   1.740720e+02
  -4.227365e+02  -2.641081e+02
  -4.860630e+01  -3.903615e+02
   1.764813e+02  -2.174918e+02
   1.664274e+02  -4.492860e+01
  -1.492095e+02  -1.552980e+01
  -3.255867e+02  -1.966787e+02
  -1.010813e+02  -3.957549e+02
   4.589242e+02  -3.012213e+02
   7.087953e+02   1.353883e+02
   3.296739e+02   4.412600e+02
  -3.393529e+02   3.502906e+02
  -6.085283e+02  -9.384718e+01
  -2.642910e+02  -4.279188e+02
   2.396452e+02  -4.112026e+02
   4.933095e+02  -1.333166e+02
   3.660236e+02   1.737947e+02
   9.570114e+01   3.685147e+02
  -1.038077e+02   2.104377e+02
  -6.215833e+01  -1.440501e+02
   1.583264e+02  -2.639123e+02
   3.210968e+02   8.073034e+01
   1.372538e+02   5.593116e+02
  -2.617649e+02   5.483888e+02
  -4.540326e+02   1.418216e+01
  -1.818655e+02  -4.132893e+02
   2.145161e+02  -2.342566e+02
   2.748417e+02   2.696574e+02
  -7.152857e+01   4.414779e+02
  -4.702762e+02   1.005964e+02
  -5.031651e+02  -3.685549e+02
  -1.527776e+02  -5.210595e+02
   3.238766e+02  -3.018942e+02
   5.493466e+02   5.875446e+01
   3.475700e+02   3.055979e+02
  -8.913485e+01   2.909265e+02
  -3.504020e+02   6.967952e+01
  -2.222453e+02  -1.151892e+02
   5.631006e+01  -7.469682e+01
   1.009768e+02   8.973889e+01
  -1.218022e+02   1.204018e+02
  -2.761637e+02  -5.276068e+01
  -1.256131e+02  -2.349761e+02
   1.784592e+02  -2.455058e+02
   3.304763e+02  -1.037014e+02
   2.235335e+02   8.798580e+01
  -2.150593e+01   2.648874e+02
  -2.441620e+02   3.379847e+02
  -3.375693e+02   1.872775e+02
  -2.572034e+02  -1.426389e+02
  -6.784050e+01  -3.843296e+02
   7.293162e+01  -3.393105e+02
   7.266318e+01  -1.365005e+02
   2.795067e+01  -4.521196e+01
   8.108871e+01  -9.789002e+01
   2.087814e+02  -8.960083e+01
   2.506678e+02   8.237483e+01
   1.241498e+02   2.505664e+02
  -7.446728e+01   2.117743e+02
  -1.969172e+02  -1.462548e+01
  -1.600310e+02  -2.283218e+02
   2.711629e+01  -2.607602e+02
   2.454126e+02  -8.868949e+01
   3.281249e+02   1.634336e+02
   1.756259e+02   3.215387e+02
  -7.801230e+01   2.833156e+02
  -1.995510e+02   1.303420e+02
  -1.485387e+02   3.585972e+01
  -1.152999e+02   4.494151e+01
  -2.432876e+02   5.011692e+01
  -3.906972e+02  -7.309364e+01
  -3.168951e+02  -2.800826e+02
   1.187263e+01  -4.245539e+02
   3.584509e+02  -3.882573e+02
   4.647925e+02  -1.820112e+02
   3.011207e+02   9.064027e+01
   3.593608e+01   2.629582e+02
  -1.076726e+02   2.190607e+02
  -4.501199e+01   3.412164e+01
   1.121549e+02  -7.550480e+01
   1.615522e+02   1.817362e+01
   3.623673e+01   1.662472e+02
  -1.310431e+02   1.417644e+02
  -1.424172e+02  -4.800120e+01
   1.743035e+01  -1.536142e+02
   1.683526e+02  -1.580455e+01
   1.506669e+02   2.329026e+02
  -2.585686e+01   3.332913e+02
  -2.300262e+02   1.928559e+02
  -3.332796e+02  -6.371091e+01
  -2.708709e+02  -2.457624e+02
  -7.305010e+01  -2.622123e+02
   1.225624e+02  -1.450818e+02
   1.628869e+02  -9.588358e+00
   4.360105e+01   2.558526e+01
  -6.377739e+01  -4.643058e+01
  -1.665745e+01  -1.169632e+02
   1.186274e+02  -8.337767e+01
   1.574841e+02   1.739534e+01
   4.410140e+01   6.154237e+01
  -7.723198e+01   1.434921e+00
  -4.230364e+01  -8.239721e+01
   1.346875e+02  -8.537691e+01
   2.833309e+02   1.382555e+01
   2.501385e+02   1.574475e+02
   3.856302e+01   2.568577e+02
  -1.946743e+02   2.403007e+02
  -2.724677e+02   1.038911e+02
  -1.521071e+02  -5.191261e+01
   2.663878e+01  -9.414754e+01
   7.708770e+01  -3.860697e+00
  -4.009418e+01   8.610212e+01
  -1.834968e+02   4.418458e+01
  -1.937075e+02  -9.903079e+01
  -5.989680e+01  -1.897886e+02
   8.965913e+01  -1.405274e+02
   1.313599e+02  -2.179500e+01
   5.625591e+01   3.734847e+01
  -3.620219e+01  -9.406446e+00
  -3.413966e+01  -9.379650e+01
   8.035912e+01  -1.123590e+02
   1.989156e+02  -2.086699e+01
   1.832005e+02   1.236928e+02
   1.774148e+01   2.056911e+02
  -1.542311e+02   1.528059e+02
  -1.785611e+02   9.324434e+00
  -5.905929e+01  -1.008672e+02
   6.139241e+01  -1.005341e+02
   7.356647e+01  -2.697028e+01
   9.245136e+00   2.504107e+01
  -2.791816e+01   1.298924e+01
   9.680357e+00  -1.700862e+01
   7.751903e+01   2.215607e+00
   9.303637e+01   8.407691e+01
   1.190738e+01   1.622530e+02
  -1.303335e+02   1.474579e+02
  -2.278683e+02   1.525451e+01
  -1.897659e+02  -1.509547e+02
  -3.793838e+01  -2.256096e+02
   1.017420e+02  -1.578420e+02
   1.276391e+02  -2.703019e+01
   6.885445e+01   4.793083e+01
   2.929884e+01   3.035360e+01
   5.301027e+01  -1.414466e+01
   8.096830e+01  -7.997766e+00
   4.816709e+01   5.109175e+01
  -4.102468e+01   9.342152e+01
  -1.106201e+02   5.804053e+01
  -9.272691e+01  -4.059700e+01
   1.801073e+01  -1.181852e+02
   1.524192e+02  -8.533010e+01
   1.986154e+02   5.798984e+01
   8.987036e+01   2.033700e+02
  -1.153606e+02   2.191321e+02
  -2.634320e+02   8.603893e+01
  -2.454418e+02  -8.596518e+01
  -1.006612e+02  -1.685627e+02
   3.967957e+01  -1.385669e+02
   8.815483e+01  -8.061535e+01
   6.993216e+01  -6.913183e+01
   5.888311e+01  -9.224461e+01
   8.868952e+01  -7.635075e+01
   1.273122e+02   1.931020e+01
   1.157909e+02   1.501169e+02
   2.749875e+01   2.196392e+02
  -9.699418e+01   1.635205e+02
  -1.682321e+02   1.355261e+01
  -1.276702e+02  -1.225737e+02
  -1.287759e+01  -1.538276e+02
   7.141181e+01  -8.346790e+01
   6.144063e+01   7.744537e+00
   1.023261e+00   4.744517e+01
  -1.820899e+01   3.466744e+01
   3.147108e+01   1.537194e+01
   8.048981e+01   2.114567e+01
   4.599586e+01   3.919250e+01
  -6.789139e+01   3.768078e+01
  -1.620258e+02   4.595120e-01
  -1.389910e+02  -5.509730e+01
  -5.984266e+00  -8.887831e+01
   1.236628e+02  -7.012484e+01
   1.397981e+02  -8.520098e+00
   4.386508e+01   4.410079e+01
  -5.871768e+01   3.923912e+01
  -7.537407e+01  -1.742415e+01
  -1.388532e+01  -6.781022e+01
   4.868682e+01  -5.914621e+01
   6.379162e+01  -5.306225e-01
   4.858906e+01   4.739923e+01
   4.235610e+01   3.976694e+01
   5.523918e+01   1.293638e+00
   6.416377e+01   5.328071e-01
   4.066649e+01   6.726503e+01
  -2.744895e+01   1.434896e+02
  -1.172410e+02   1.381506e+02
  -1.670482e+02   3.256487e+01
  -1.219832e+02  -8.872474e+01
  -2.714925e+00  -1.241672e+02
   8.691101e+01  -6.254223e+01
   5.780727e+01   1.286486e+01
  -5.860632e+01   2.006277e+01
  -1.320703e+02  -4.108614e+01
  -7.013281e+01  -1.035590e+02
   8.037367e+01  -1.074023e+02
   1.833502e+02  -4.648964e+01
   1.526897e+02   3.607229e+01
   3.123390e+01   8.266342e+01
  -6.076960e+01   6.268422e+01
  -4.625172e+01   2.613033e+00
   3.883823e+01  -2.834294e+01
   8.849870e+01   1.957078e+01
   3.498506e+01   1.118777e+02
  -8.162574e+01   1.486987e+02
  -1.555401e+02   6.463792e+01
  -1.210624e+02  -9.091325e+01
  -1.260050e+01  -1.865306e+02
   8.041667e+01  -1.367222e+02
   9.975145e+01   8.714359e+00
   5.476354e+01   1.147752e+02
  -7.706099e+00   1.008254e+02
  -4.682923e+01   1.653296e+01
  -4.644480e+01  -3.120145e+01
  -2.034697e+01  -8.122566e+00
  -4.813510e+00   1.846950e+01
  -2.421239e+01  -1.688488e+01
  -5.390548e+01  -8.533638e+01
  -3.496423e+01  -1.026755e+02
   4.935040e+01  -4.163873e+01
   1.303842e+02   3.736077e+01
   1.195866e+02   6.741905e+01
   1.603155e+01   4.852349e+01
  -8.056207e+01   2.167435e+01
  -8.215832e+01   5.294431e+00
  -1.158308e+01  -9.226155e+00
   3.553701e+01  -2.040140e+01
   1.512394e+01  -1.420599e+01
  -1.854955e+01   2.743371e+00
   4.051017e+00   6.740682e+00
   6.861905e+01   6.435378e-01
   8.971112e+01   2.105555e+01
   1.558531e+01   7.724763e+01
  -1.074791e+02   1.126489e+02
  -1.789715e+02   6.206541e+01
  -1.423084e+02  -5.841256e+01
  -2.992399e+01  -1.535217e+02
   7.476681e+01  -1.473358e+02
   1.103660e+02  -6.080691e+01
   7.776277e+01   1.878574e+01
   2.491466e+01   3.501104e+01
  -7.292066e-01   1.000771e+01
   1.136524e+01   5.178006e+00
   3.100375e+01   4.499431e+01
   2.043126e+01   8.706711e+01
  -2.772648e+01   6.939778e+01
  -7.697040e+01  -1.559552e+01
  -7.579674e+01  -1.006394e+02
  -8.782343e+00  -1.069129e+02
   7.579272e+01  -2.693448e+01
   1.002354e+02   6.694015e+01
   3.475491e+01   9.893182e+01
  -6.197892e+01   5.791787e+01
  -9.600048e+01  -8.295463e+00
  -4.044447e+01  -5.098848e+01
   3.144307e+01  -5.395491e+01
   3.309319e+01  -2.775832e+01
  -2.973412e+01   3.089215e+00
  -6.637002e+01   7.797154e+00
  -1.642911e+01  -2.528588e+01
   7.518737e+01  -6.415957e+01
   1.136529e+02  -5.517981e+01
   6.592142e+01   1.311590e+01
  -1.298486e+01   8.126841e+01
  -5.329744e+01   7.912741e+01
  -4.004311e+01   9.304421e+00
  -4.719897e+00  -5.239318e+01
   2.386107e+01  -4.466281e+01
   3.572663e+01   1.344520e+01
   2.666075e+01   5.192037e+01
  -1.793539e+00   3.476183e+01
  -3.180568e+01  -6.902304e+00
  -3.827472e+01  -2.270863e+01
  -1.867531e+01  -2.645239e+00
   2.958783e+00   1.742134e+01
   6.096607e+00   3.956464e+00
  -4.655230e-02  -3.199114e+01
   7.327873e+00  -4.644133e+01
   2.766851e+01  -1.483332e+01
   3.405642e+01   3.700872e+01
   5.688662e+00   5.689885e+01
  -3.999884e+01   2.250217e+01
  -5.671140e+01  -3.344818e+01
  -1.639357e+01  -5.821479e+01
   5.300361e+01  -3.364990e+01
   8.666727e+01   1.238121e+01
   4.768128e+01   4.200276e+01
  -2.794249e+01   4.213486e+01
  -6.326479e+01   2.386756e+01
  -2.650451e+01   4.489865e+00
   3.140927e+01  -2.231952e+00
   3.536578e+01   9.582318e+00
  -2.420046e+01   2.705998e+01
  -8.028286e+01   2.009609e+01
