
 $NMID
 id='ANONYMOUS ', fmtdat='(2E16.6)'
 volume=1.0
 tramp=1.0
 $END
  -3.571512e+03   2.144341e+02
  -2.128911e+03  -2.232288e+03
   5.675993e+02  -2.266730e+03
   1.697328e+03  -8.872787e+02
   8.306018e+02   4.998683e+02
  -4.063126e+02   6.446088e+02
  -7.162095e+02  -3.185759e+02
  -3.691897e+01  -8.596344e+02
   6.371793e+02  -6.877060e+02
   8.216237e+02   1.942626e+01
   4.086070e+02   6.239666e+02
  -1.771719e+02   6.936097e+02
  -5.445985e+02   1.291876e+02
  -3.383012e+02  -5.697659e+02
   2.404480e+02  -6.271448e+02
   4.961804e+02  -6.873668e+01
   2.023427e+02   6.044200e+02
  -2.136340e+02   4.932778e+02
  -4.833567e+02   9.196064e+01
  -2.917176e+02  -2.899868e+02
  -5.150097e+01  -3.801873e+02
   2.373827e+02  -2.407333e+02
   1.910233e+02   2.427976e+01
  -9.187539e+01   1.026170e+02
  -3.651762e+02  -9.025112e+01
  -1.980895e+02  -3.809218e+02
   4.040088e+02  -3.513389e+02
   7.592073e+02   8.028519e+01
   3.775768e+02   4.822198e+02
  -3.238103e+02   4.301483e+02
  -6.429052e+02  -2.254695e+01
  -2.870259e+02  -4.139273e+02
   2.345164e+02  -4.374901e+02
   4.843450e+02  -1.628728e+02
   3.566301e+02   2.042768e+02
   6.891233e+01   4.120309e+02
  -1.544458e+02   2.327786e+02
  -1.384289e+02  -2.090632e+02
   1.575536e+02  -3.780824e+02
   3.978442e+02   2.784929e+01
   2.173416e+02   6.137244e+02
  -2.912660e+02   6.134235e+02
  -5.309781e+02   1.890115e+00
  -2.341154e+02  -4.906180e+02
   2.672844e+02  -2.860200e+02
   3.299729e+02   2.886085e+02
  -5.911394e+01   4.772868e+02
  -4.890952e+02   1.002731e+02
  -5.011855e+02  -3.641251e+02
  -1.319189e+02  -5.154035e+02
   3.328666e+02  -2.994425e+02
   5.441168e+02   7.196206e+01
   3.250463e+02   3.410635e+02
  -1.344743e+02   3.158294e+02
  -3.883129e+02   3.918770e+01
  -2.077716e+02  -1.787222e+02
   1.123704e+02  -9.211144e+01
   1.266222e+02   1.388293e+02
  -1.564725e+02   1.594047e+02
  -3.133429e+02  -7.671954e+01
  -1.164157e+02  -2.693356e+02
   1.946046e+02  -2.243600e+02
   2.953679e+02  -5.921892e+01
   1.666075e+02   7.572377e+01
  -2.527562e+01   1.953068e+02
  -1.915978e+02   2.849884e+02
  -2.973573e+02   1.880746e+02
  -2.579404e+02  -1.267339e+02
  -6.218807e+01  -3.837635e+02
   1.125295e+02  -3.258690e+02
   1.041130e+02  -8.379799e+01
   5.096656e+00   1.411440e+01
   2.789240e+01  -8.435613e+01
   1.809049e+02  -1.203171e+02
   2.587471e+02   5.071069e+01
   1.372145e+02   2.468278e+02
  -8.039457e+01   2.286340e+02
  -2.131618e+02   5.825944e+00
  -1.724587e+02  -2.126691e+02
   1.543286e+01  -2.570085e+02
   2.374876e+02  -9.977260e+01
   3.180743e+02   1.369730e+02
   1.614866e+02   2.990251e+02
  -8.711711e+01   2.651042e+02
  -1.978946e+02   1.097962e+02
  -1.213766e+02   5.761365e+00
  -7.311089e+01   3.474824e+01
  -1.957268e+02   6.250821e+01
  -3.492819e+02  -4.047364e+01
  -2.931868e+02  -2.382329e+02
  -1.966762e-01  -3.802623e+02
   3.097232e+02  -3.582349e+02
   4.179957e+02  -1.735051e+02
   2.881821e+02   8.116926e+01
   4.541353e+01   2.567248e+02
  -1.135764e+02   2.161814e+02
  -6.931592e+01   2.011671e+01
   9.970681e+01  -9.842513e+01
   1.730285e+02   6.987355e+00
   4.019638e+01   1.759878e+02
  -1.473405e+02   1.501422e+02
  -1.588766e+02  -5.992511e+01
   2.036028e+01  -1.777539e+02
   1.757827e+02  -3.321844e+01
   1.467098e+02   2.156844e+02
  -2.511856e+01   3.054739e+02
  -1.967985e+02   1.682566e+02
  -2.803028e+02  -5.022189e+01
  -2.416932e+02  -2.017993e+02
  -8.324991e+01  -2.244738e+02
   9.752039e+01  -1.390245e+02
   1.509809e+02  -1.860633e+01
   4.536961e+01   2.671331e+01
  -6.552850e+01  -3.591981e+01
  -2.518509e+01  -1.122242e+02
   1.118283e+02  -8.952242e+01
   1.573502e+02   1.086357e+01
   4.869198e+01   6.453554e+01
  -7.126047e+01   1.564713e+01
  -4.624525e+01  -6.286119e+01
   1.088582e+02  -7.498029e+01
   2.416970e+02   1.479613e-02
   2.216044e+02   1.204746e+02
   4.712032e+01   2.197745e+02
  -1.601059e+02   2.236335e+02
  -2.424508e+02   1.047066e+02
  -1.428622e+02  -4.947364e+01
   2.558470e+01  -9.535305e+01
   8.158933e+01  -2.346426e+00
  -2.840582e+01   9.339486e+01
  -1.724242e+02   5.297008e+01
  -1.882054e+02  -9.056619e+01
  -6.138750e+01  -1.815075e+02
   8.250131e+01  -1.366526e+02
   1.258070e+02  -2.463114e+01
   6.063889e+01   3.584290e+01
  -2.561500e+01   1.795837e+00
  -3.360816e+01  -7.293887e+01
   6.093346e+01  -9.928075e+01
   1.710365e+02  -2.700771e+01
   1.668798e+02   1.060592e+02
   1.977461e+01   1.895176e+02
  -1.424959e+02   1.421128e+02
  -1.692121e+02   3.360265e+00
  -5.677109e+01  -1.014951e+02
   5.975178e+01  -9.793192e+01
   7.430987e+01  -2.596470e+01
   1.717915e+01   2.394591e+01
  -1.930351e+01   1.732820e+01
   7.407700e+00  -6.700795e+00
   5.960432e+01   7.258422e+00
   7.560850e+01   6.954150e+01
   1.443987e+01   1.353776e+02
  -1.069218e+02   1.314574e+02
  -2.004910e+02   2.381660e+01
  -1.753157e+02  -1.275906e+02
  -3.787976e+01  -2.038162e+02
   9.372493e+01  -1.469846e+02
   1.167956e+02  -2.409025e+01
   6.010657e+01   4.641827e+01
   2.461998e+01   2.912007e+01
   4.729362e+01  -1.262707e+01
   6.986312e+01  -7.020274e+00
   3.732413e+01   4.252526e+01
  -3.396171e+01   7.604423e+01
  -8.440857e+01   4.902433e+01
  -7.082984e+01  -2.892554e+01
   1.027317e+01  -9.327000e+01
   1.190494e+02  -7.248156e+01
   1.676244e+02   4.486864e+01
   8.749862e+01   1.734028e+02
  -9.051852e+01   1.976204e+02
  -2.312779e+02   8.348023e+01
  -2.243767e+02  -7.244322e+01
  -9.654239e+01  -1.522047e+02
   3.174013e+01  -1.276160e+02
   8.099290e+01  -7.579318e+01
   6.856289e+01  -6.257114e+01
   5.794059e+01  -7.852820e+01
   7.982637e+01  -6.250288e+01
   1.103527e+02   1.981020e+01
   1.013248e+02   1.312920e+02
   2.583557e+01   1.924834e+02
  -8.434386e+01   1.472335e+02
  -1.505732e+02   1.827384e+01
  -1.172140e+02  -1.033342e+02
  -1.658849e+01  -1.367735e+02
   5.758969e+01  -8.020246e+01
   5.137798e+01  -1.844697e+00
   4.362322e+00   3.607263e+01
  -8.048369e+00   3.036851e+01
   3.270211e+01   1.643577e+01
   6.973578e+01   1.970639e+01
   3.912433e+01   3.302721e+01
  -5.503625e+01   3.346735e+01
  -1.366273e+02   5.310369e+00
  -1.245261e+02  -4.241544e+01
  -1.462916e+01  -7.641717e+01
   1.023068e+02  -6.504662e+01
   1.237608e+02  -1.272135e+01
   4.153432e+01   3.411356e+01
  -5.076595e+01   3.092091e+01
  -6.401194e+01  -1.684533e+01
  -6.746225e+00  -5.820427e+01
   4.659846e+01  -4.898571e+01
   5.357939e+01   1.346412e+00
   3.850641e+01   4.133915e+01
   3.849860e+01   3.442330e+01
   5.341140e+01   1.278945e+00
   5.663976e+01  -1.765245e-02
   3.143813e+01   5.726474e+01
  -2.544423e+01   1.250369e+02
  -9.712159e+01   1.232681e+02
  -1.400942e+02   3.211886e+01
  -1.069257e+02  -7.544174e+01
  -7.590163e+00  -1.074567e+02
   7.208662e+01  -5.323193e+01
   5.023387e+01   1.253330e+01
  -5.190863e+01   1.732890e+01
  -1.190569e+02  -3.714349e+01
  -6.608174e+01  -9.220133e+01
   6.866795e+01  -9.711968e+01
   1.635569e+02  -4.586139e+01
   1.397567e+02   2.769899e+01
   3.293731e+01   7.359793e+01
  -5.120439e+01   6.079508e+01
  -4.190250e+01   8.095267e+00
   3.125049e+01  -2.132494e+01
   7.452855e+01   1.957200e+01
   2.667438e+01   9.998265e+01
  -7.694894e+01   1.297038e+02
  -1.407010e+02   5.192834e+01
  -1.076226e+02  -8.555250e+01
  -1.057904e+01  -1.670818e+02
   7.071991e+01  -1.218686e+02
   8.887323e+01   5.228952e+00
   5.272063e+01   9.882508e+01
  -8.721373e-01   8.916228e+01
  -3.936563e+01   1.672602e+01
  -4.436677e+01  -2.578968e+01
  -2.147417e+01  -6.418035e+00
  -2.976182e+00   1.778903e+01
  -1.812754e+01  -1.310525e+01
  -4.842532e+01  -7.579819e+01
  -3.629589e+01  -9.321632e+01
   4.015193e+01  -3.814012e+01
   1.180242e+02   3.370756e+01
   1.105671e+02   5.993119e+01
   1.460422e+01   4.144674e+01
  -7.501326e+01   1.844081e+01
  -7.489284e+01   6.997272e+00
  -8.754547e+00  -5.597758e+00
   3.300503e+01  -1.916251e+01
   1.179865e+01  -1.602416e+01
  -1.847917e+01   1.263611e+00
   5.015588e+00   8.487929e+00
   6.352619e+01   3.992449e+00
   7.791279e+01   2.013874e+01
   6.634835e+00   6.775898e+01
  -1.013171e+02   9.724707e+01
  -1.576336e+02   5.064879e+01
  -1.202881e+02  -5.648282e+01
  -2.231806e+01  -1.375454e+02
   6.563231e+01  -1.274107e+02
   9.554442e+01  -4.985348e+01
   6.780487e+01   1.756463e+01
   2.127066e+01   2.858207e+01
  -1.839601e+00   6.060401e+00
   9.497311e+00   2.958599e+00
   2.879276e+01   3.926288e+01
   1.954112e+01   7.729055e+01
  -2.509452e+01   6.113332e+01
  -6.883657e+01  -1.588985e+01
  -6.478120e+01  -9.217139e+01
  -3.325265e+00  -9.499089e+01
   6.918354e+01  -1.969867e+01
   8.616931e+01   6.418196e+01
   2.684724e+01   8.711199e+01
  -5.521567e+01   4.626249e+01
  -8.171761e+01  -1.010058e+01
  -3.326596e+01  -4.177779e+01
   2.675560e+01  -4.287640e+01
   2.553307e+01  -2.453500e+01
  -2.934345e+01  -1.408930e+00
  -5.866984e+01   4.131132e+00
  -1.175222e+01  -2.152989e+01
   6.867833e+01  -5.534252e+01
   9.919311e+01  -4.922252e+01
   5.391718e+01   9.957589e+00
  -1.411304e+01   6.999269e+01
  -4.451052e+01   6.731550e+01
  -2.967070e+01   5.143496e+00
  -2.449562e-01  -4.653674e+01
   2.109491e+01  -3.528255e+01
   2.930878e+01   1.591126e+01
   2.196988e+01   4.528420e+01
  -1.546935e+00   2.698113e+01
  -2.702681e+01  -7.251362e+00
  -3.347222e+01  -1.692076e+01
  -1.807643e+01   2.100296e-02
  -2.321207e-02   1.176983e+01
   5.778304e+00  -3.542029e+00
   6.133057e+00  -3.170465e+01
   1.459292e+01  -3.725274e+01
   2.739531e+01  -5.427893e+00
   2.494509e+01   3.876627e+01
  -2.354441e+00   5.121474e+01
  -3.787848e+01   1.649972e+01
  -4.733740e+01  -3.387442e+01
  -1.192735e+01  -5.323314e+01
   4.630266e+01  -2.786962e+01
   7.486741e+01   1.378340e+01
   4.124098e+01   3.705126e+01
  -2.446960e+01   3.339164e+01
  -5.456097e+01   1.724857e+01
  -1.970790e+01   4.417765e+00
   3.243389e+01   3.145171e+00
   3.214554e+01   1.446587e+01
  -2.711853e+01   2.661376e+01
  -7.818697e+01   1.625786e+01
