
 $NMID
 id='ANONYMOUS ', fmtdat='(2E16.6)'
 volume=1.0
 tramp=1.0
 $END
   3.173988e+03  -9.298397e+01
   2.068955e+03   1.565214e+03
  -1.856030e+02   1.889297e+03
  -1.405438e+03   1.171023e+03
  -9.142199e+02   1.537846e+02
  -1.335718e+02  -2.177728e+02
   3.231188e+02   7.700724e+01
   8.277658e+01   4.870194e+02
  -4.420656e+02   7.276550e+02
  -7.147308e+02   5.173867e+01
  -4.227642e+02  -4.841332e+02
   1.508586e+00  -6.260108e+02
   2.963118e+02  -1.632450e+02
   2.526179e+02   4.142691e+02
  -1.081297e+02   5.685145e+02
  -4.310582e+02   1.266613e+02
  -3.339561e+02  -4.621408e+02
   1.196404e+02  -6.859162e+02
   4.878318e+02  -2.830063e+02
   4.716356e+02   1.770138e+02
   1.704079e+02   3.334283e+02
  -1.311758e+02   2.441367e+02
  -8.192011e+01   7.524118e+01
   1.627652e+02   8.473614e+01
   2.622041e+02   2.619650e+02
   6.518235e+00   3.652509e+02
  -4.298799e+02   1.724033e+02
  -5.864677e+02  -1.827107e+02
  -2.352748e+02  -3.588304e+02
   3.107609e+02  -2.227088e+02
   4.976743e+02   1.104897e+02
   1.929129e+02   3.642038e+02
  -2.566181e+02   3.469197e+02
  -4.590943e+02   1.414558e+02
  -3.100060e+02  -1.529542e+02
  -5.385708e+01  -3.044444e+02
   4.049623e+01  -1.810333e+02
  -3.351037e+01   9.714843e+01
  -1.820404e+02   1.619786e+02
  -2.147016e+02  -1.367167e+02
  -1.787075e+01  -4.895271e+02
   2.658621e+02  -4.343348e+02
   3.493071e+02   1.510227e+01
   1.273019e+02   3.445355e+02
  -1.759947e+02   1.464774e+02
  -2.032807e+02  -2.910374e+02
   1.044712e+02  -3.995707e+02
   4.406024e+02  -6.733052e+01
   4.817506e+02   3.619063e+02
   1.546999e+02   4.824520e+02
  -2.929087e+02   2.581534e+02
  -5.104996e+02  -6.849661e+01
  -3.328034e+02  -2.556130e+02
   5.723674e+01  -2.304999e+02
   2.980393e+02  -7.624656e+01
   2.163886e+02   4.146479e+01
   6.825930e-01   2.943801e+01
  -5.267735e+01  -5.711459e+01
   1.050181e+02  -7.029458e+01
   2.326365e+02   4.997295e+01
   1.218608e+02   2.038874e+02
  -1.527174e+02   2.487866e+02
  -3.330250e+02   1.315552e+02
  -2.542283e+02  -9.401989e+01
   1.909964e+01  -3.054111e+02
   2.797420e+02  -3.511732e+02
   3.535628e+02  -1.562427e+02
   2.248208e+02   1.604809e+02
   3.652185e+01   3.529196e+02
  -5.164459e+01   3.023850e+02
  -2.756563e+01   1.498471e+02
  -2.183638e+01   9.114081e+01
  -1.222633e+02   1.166747e+02
  -2.459115e+02   5.999716e+01
  -2.438147e+02  -1.199517e+02
  -8.971703e+01  -2.583841e+02
   9.741579e+01  -1.891795e+02
   1.867236e+02   4.178736e+01
   1.266585e+02   2.346685e+02
  -4.985617e+01   2.367811e+02
  -2.375276e+02   5.870207e+01
  -2.962799e+02  -1.678891e+02
  -1.615240e+02  -2.899101e+02
   5.123090e+01  -2.614967e+02
   1.611287e+02  -1.536826e+02
   1.381146e+02  -7.763148e+01
   1.402802e+02  -7.183795e+01
   2.724974e+02  -4.622958e+01
   4.070969e+02   8.690865e+01
   3.199792e+02   2.911564e+02
  -1.970579e+01   4.284538e+02
  -3.706252e+02   3.854227e+02
  -4.665870e+02   1.676308e+02
  -2.799666e+02  -9.914106e+01
  -1.736425e+01  -2.438481e+02
   9.690104e+01  -1.912121e+02
   1.520931e+01  -3.605102e+01
  -1.138607e+02   3.996281e+01
  -1.283600e+02  -3.782255e+01
  -4.367242e+00  -1.393466e+02
   1.210300e+02  -9.661972e+01
   1.084757e+02   5.959677e+01
  -3.552859e+01   1.326271e+02
  -1.669373e+02  -2.170248e+00
  -1.508961e+02  -2.350380e+02
   2.131587e+01  -3.374304e+02
   2.365392e+02  -2.040255e+02
   3.477060e+02   5.750260e+01
   2.715916e+02   2.531143e+02
   6.109134e+01   2.653017e+02
  -1.225039e+02   1.351856e+02
  -1.456459e+02   4.747972e+00
  -3.402078e+01  -1.406108e+01
   5.004227e+01   6.039362e+01
  -3.238934e+00   1.112048e+02
  -1.206280e+02   6.183791e+01
  -1.416247e+02  -3.127901e+01
  -2.734497e+01  -5.553122e+01
   8.435136e+01   1.560436e+01
   4.046720e+01   9.527048e+01
  -1.444754e+02   8.637879e+01
  -2.950892e+02  -2.292963e+01
  -2.519935e+02  -1.659112e+02
  -2.733464e+01  -2.535515e+02
   2.025631e+02  -2.253147e+02
   2.611130e+02  -9.359325e+01
   1.313567e+02   4.351545e+01
  -3.276017e+01   7.331893e+01
  -6.346350e+01  -9.041803e+00
   5.540619e+01  -8.171144e+01
   1.848499e+02  -3.214797e+01
   1.845031e+02   1.042148e+02
   5.237636e+01   1.845832e+02
  -8.897728e+01   1.301225e+02
  -1.210808e+02   1.195891e+01
  -4.014045e+01  -3.812122e+01
   4.692977e+01   2.229747e+01
   2.910892e+01   1.116849e+02
  -9.649222e+01   1.186573e+02
  -2.092008e+02   1.157469e+01
  -1.781148e+02  -1.339077e+02
  -7.257104e+00  -2.036994e+02
   1.557097e+02  -1.434395e+02
   1.706046e+02  -6.749692e+00
   5.105070e+01   9.396898e+01
  -6.373184e+01   9.098616e+01
  -6.995611e+01   2.134820e+01
  -3.296268e-01  -2.594493e+01
   3.859091e+01  -8.499205e+00
  -7.810602e+00   2.753722e+01
  -8.818361e+01   3.871662e+00
  -1.058489e+02  -9.057560e+01
  -1.237585e+01  -1.751058e+02
   1.404059e+02  -1.531367e+02
   2.344918e+02  -1.144389e+01
   1.877714e+02   1.550816e+02
   3.594851e+01   2.235670e+02
  -9.750521e+01   1.553080e+02
  -1.233659e+02   2.959613e+01
  -6.937568e+01  -4.291110e+01
  -3.274275e+01  -2.681236e+01
  -5.607094e+01   1.820901e+01
  -8.884292e+01   1.015221e+01
  -5.812938e+01  -5.643708e+01
   3.711408e+01  -1.069025e+02
   1.208361e+02  -6.929240e+01
   1.060114e+02   4.350927e+01
  -1.762682e+01   1.293674e+02
  -1.639182e+02   8.888228e+01
  -2.052697e+02  -6.783767e+01
  -8.389964e+01  -2.137047e+02
   1.256057e+02  -2.200875e+02
   2.648877e+02  -7.908995e+01
   2.391574e+02   9.012011e+01
   9.526307e+01   1.653889e+02
  -4.056030e+01   1.340589e+02
  -8.644736e+01   7.737011e+01
  -6.723833e+01   6.813540e+01
  -5.645019e+01   9.277791e+01
  -8.873058e+01   7.884213e+01
  -1.296619e+02  -1.725550e+01
  -1.170817e+02  -1.509613e+02
  -2.536904e+01  -2.214414e+02
   9.834287e+01  -1.631349e+02
   1.657953e+02  -1.097012e+01
   1.229732e+02   1.246236e+02
   9.057952e+00   1.530324e+02
  -7.351451e+01   7.932672e+01
  -6.115229e+01  -1.399377e+01
   3.880341e+00  -5.299972e+01
   2.653311e+01  -3.532366e+01
  -2.699102e+01  -1.075424e+01
  -8.451783e+01  -1.592911e+01
  -5.109368e+01  -3.917782e+01
   7.142514e+01  -4.070531e+01
   1.720227e+02   2.258268e-01
   1.428984e+02   6.218164e+01
  -1.290043e+00   9.734589e+01
  -1.334140e+02   7.319657e+01
  -1.433759e+02   4.983597e+00
  -4.311850e+01  -5.019780e+01
   5.897580e+01  -4.351004e+01
   7.672026e+01   1.776503e+01
   1.928710e+01   7.268595e+01
  -4.467173e+01   6.520658e+01
  -6.803929e+01   3.566564e+00
  -5.843091e+01  -4.873027e+01
  -4.874368e+01  -4.241564e+01
  -5.508363e+01  -2.649969e+00
  -6.434368e+01  -2.213183e+00
  -4.448120e+01  -7.221981e+01
   2.559016e+01  -1.510777e+02
   1.233295e+02  -1.447316e+02
   1.782674e+02  -3.486464e+01
   1.293470e+02   9.213885e+01
   2.677717e+00   1.312159e+02
  -9.076529e+01   6.903138e+01
  -6.113404e+01  -1.079328e+01
   5.754670e+01  -2.173288e+01
   1.322532e+02   3.960963e+01
   7.012599e+01   1.046486e+02
  -8.164025e+01   1.087460e+02
  -1.853187e+02   4.429476e+01
  -1.537280e+02  -4.028790e+01
  -3.046171e+01  -8.428229e+01
   6.238503e+01  -6.061891e+01
   4.787746e+01   1.269966e+00
  -3.788171e+01   3.142288e+01
  -8.923666e+01  -1.753360e+01
  -3.988904e+01  -1.121865e+02
   7.433261e+01  -1.527530e+02
   1.514469e+02  -7.032577e+01
   1.235883e+02   8.816367e+01
   1.759998e+01   1.873145e+02
  -7.923777e+01   1.366509e+02
  -1.022737e+02  -1.213537e+01
  -5.384227e+01  -1.182160e+02
   1.432446e+01  -1.006586e+02
   5.220595e+01  -1.434673e+01
   4.483416e+01   3.192386e+01
   1.591010e+01   8.218742e+00
   5.731338e+00  -1.586920e+01
   3.041652e+01   2.164671e+01
   5.705787e+01   8.779729e+01
   3.039006e+01   1.023111e+02
  -5.589900e+01   4.207528e+01
  -1.332607e+02  -3.508512e+01
  -1.198335e+02  -6.734286e+01
  -1.829516e+01  -5.281554e+01
   7.786860e+01  -2.613473e+01
   8.410623e+01  -5.124837e+00
   1.727339e+01   1.243543e+01
  -3.363062e+01   2.128453e+01
  -2.026025e+01   1.132396e+01
   1.281397e+01  -5.280138e+00
  -3.225251e+00  -5.661499e+00
  -6.401106e+01   2.310032e+00
  -9.037028e+01  -1.995275e+01
  -2.301570e+01  -7.975624e+01
   1.022649e+02  -1.181020e+02
   1.830084e+02  -6.831259e+01
   1.512818e+02   5.506462e+01
   3.455694e+01   1.555600e+02
  -7.662802e+01   1.529481e+02
  -1.133971e+02   6.562545e+01
  -7.879297e+01  -1.781562e+01
  -2.597547e+01  -3.683258e+01
  -2.487764e+00  -1.294920e+01
  -1.380743e+01  -8.471785e+00
  -3.005088e+01  -4.780627e+01
  -1.823239e+01  -8.833015e+01
   2.768085e+01  -6.986046e+01
   7.652762e+01   1.360981e+01
   7.983623e+01   9.737126e+01
   1.633963e+01   1.071352e+02
  -7.212908e+01   3.333988e+01
  -1.047843e+02  -6.024043e+01
  -4.196414e+01  -9.950116e+01
   6.065291e+01  -6.476798e+01
   1.014392e+02   4.932611e+00
   4.574707e+01   5.607706e+01
  -3.244145e+01   6.149340e+01
  -3.880645e+01   2.917379e+01
   2.518112e+01  -6.972460e+00
   6.612880e+01  -1.030287e+01
   1.798534e+01   2.629592e+01
  -7.581551e+01   6.549987e+01
  -1.171153e+02   5.414190e+01
  -6.956588e+01  -1.518232e+01
   1.168461e+01  -8.307692e+01
   5.464132e+01  -8.248832e+01
   4.312710e+01  -1.452514e+01
   7.950667e+00   4.983798e+01
  -2.153968e+01   4.727699e+01
  -3.534303e+01  -8.623389e+00
  -2.842169e+01  -5.114554e+01
  -5.692429e-03  -3.843162e+01
   3.268177e+01   4.555194e+00
   4.136134e+01   2.429467e+01
   1.980313e+01   4.280823e+00
  -5.290455e+00  -1.959848e+01
  -7.499246e+00  -8.756413e+00
   4.921588e+00   3.048550e+01
   1.236225e+00   5.135232e+01
  -2.499927e+01   2.230236e+01
  -4.088167e+01  -3.284637e+01
  -1.423742e+01  -5.780302e+01
   3.902810e+01  -2.575224e+01
   6.223092e+01   3.124390e+01
   2.001795e+01   5.910274e+01
  -5.604174e+01   3.705708e+01
  -9.235501e+01  -8.922848e+00
  -5.084443e+01  -4.150386e+01
   2.698993e+01  -4.594160e+01
   6.318290e+01  -3.001031e+01
   2.826389e+01  -8.015769e+00
  -2.662157e+01   3.777355e+00
  -3.142492e+01  -4.817808e+00
   2.262803e+01  -2.411518e+01
   7.521332e+01  -2.109748e+01
