
 $NMID
 id='ANONYMOUS ', fmtdat='(2E16.6)'
 volume=1.0
 tramp=1.0
 $END
  -2.634192e+03   1.504394e+02
  -1.873542e+03  -1.315420e+03
  -1.456112e+02  -1.675154e+03
   1.048007e+03  -1.104911e+03
   7.564493e+02  -3.977251e+02
   1.829166e+01   1.966304e+02
  -2.546420e+02  -9.494510e+01
  -1.121119e+02  -4.782858e+02
   3.772097e+02  -5.505478e+02
   5.136588e+02  -1.498543e+02
   4.123422e+02   4.881089e+02
   3.900367e+01   6.899996e+02
  -2.558029e+02   1.625612e+02
  -1.912958e+02  -3.329940e+02
   7.739680e+01  -5.099581e+02
   3.376331e+02  -1.005460e+02
   2.767963e+02   4.453617e+02
  -8.806294e+01   5.559945e+02
  -4.334272e+02   2.694786e+02
  -3.930486e+02  -1.493425e+02
  -1.249274e+02  -3.483240e+02
   1.108844e+02  -2.097220e+02
   5.354103e+01  -6.191795e+01
  -1.633184e+02  -1.042965e+02
  -2.057819e+02  -2.984199e+02
   7.609674e+01  -3.550819e+02
   4.434295e+02  -1.022049e+02
   5.109109e+02   2.221958e+02
   1.715234e+02   3.226651e+02
  -2.958356e+02   1.491062e+02
  -4.472300e+02  -1.650901e+02
  -1.574635e+02  -3.288946e+02
   2.529486e+02  -2.960149e+02
   4.020765e+02  -9.342337e+01
   2.983862e+02   1.440262e+02
   8.916443e+01   2.569688e+02
   5.974154e+00   1.303152e+02
   8.539622e+01  -5.590387e+01
   1.943326e+02  -6.833575e+01
   1.815957e+02   1.816424e+02
  -2.827209e+01   4.303859e+02
  -2.361888e+02   3.477151e+02
  -2.607067e+02  -1.958231e+01
  -8.203129e+01  -2.476457e+02
   1.174399e+02  -9.623747e+01
   1.020552e+02   2.326137e+02
  -1.236166e+02   3.079012e+02
  -3.737395e+02   1.310486e+01
  -3.924291e+02  -3.419406e+02
  -1.133319e+02  -4.270664e+02
   2.644268e+02  -2.182394e+02
   4.397965e+02   7.057193e+01
   2.814475e+02   2.094757e+02
  -3.935953e+01   1.759369e+02
  -2.343662e+02   6.607942e+01
  -1.793143e+02  -9.032671e+00
  -1.740134e+01  -6.400662e+00
   3.054829e+01   3.035112e+01
  -8.219228e+01   3.154229e+01
  -1.870279e+02  -4.069990e+01
  -1.097989e+02  -1.540499e+02
   1.252946e+02  -2.165727e+02
   3.065817e+02  -1.361163e+02
   2.478943e+02   8.188525e+01
  -2.010195e+01   2.959083e+02
  -2.781908e+02   3.251040e+02
  -3.294837e+02   1.231934e+02
  -1.858315e+02  -1.528896e+02
  -2.701528e+01  -2.972774e+02
   1.577621e+01  -2.595680e+02
  -8.520715e+00  -1.624042e+02
   2.779397e+01  -1.229089e+02
   1.485349e+02  -1.112300e+02
   2.390416e+02  -2.771312e+01
   1.997265e+02   1.304425e+02
   5.278898e+01   2.297325e+02
  -9.716608e+01   1.511213e+02
  -1.586592e+02  -5.533524e+01
  -9.835331e+01  -2.217866e+02
   6.073101e+01  -2.076283e+02
   2.210525e+02  -2.936149e+01
   2.563996e+02   1.694647e+02
   1.289087e+02   2.615978e+02
  -4.991716e+01   2.221534e+02
  -1.401849e+02   1.348168e+02
  -1.285680e+02   8.673759e+01
  -1.479733e+02   7.346352e+01
  -2.673252e+02   2.510521e+01
  -3.707403e+02  -1.097377e+02
  -2.717917e+02  -2.872591e+02
   4.396851e+01  -3.933814e+02
   3.529798e+02  -3.388224e+02
   4.214451e+02  -1.331263e+02
   2.375203e+02   1.042781e+02
   1.935223e+00   2.181881e+02
  -7.735591e+01   1.573225e+02
   6.258909e+00   2.665383e+01
   1.075708e+02  -2.073814e+01
   9.700776e+01   4.534053e+01
  -9.676234e+00   1.155449e+02
  -9.775387e+01   7.173689e+01
  -7.266417e+01  -5.195324e+01
   4.260829e+01  -1.023815e+02
   1.418833e+02   1.412299e+01
   1.239928e+02   2.149155e+02
  -2.867679e+01   3.071215e+02
  -2.281403e+02   1.878782e+02
  -3.290878e+02  -6.075147e+01
  -2.474148e+02  -2.487926e+02
  -4.064553e+01  -2.523881e+02
   1.249288e+02  -1.184142e+02
   1.309656e+02   3.426452e+00
   2.468778e+01   9.881207e+00
  -4.213813e+01  -6.170110e+01
   1.204921e+01  -9.731187e+01
   1.105436e+02  -4.517846e+01
   1.185082e+02   3.313570e+01
   1.464153e+01   4.370538e+01
  -7.736403e+01  -2.601269e+01
  -2.794680e+01  -9.620301e+01
   1.451677e+02  -8.220912e+01
   2.798507e+02   2.775549e+01
   2.297771e+02   1.670054e+02
   1.408013e+01   2.434566e+02
  -1.961851e+02   2.032135e+02
  -2.389925e+02   7.461851e+01
  -1.136378e+02  -4.347382e+01
   2.917151e+01  -6.177940e+01
   4.710762e+01   9.889918e+00
  -5.908882e+01   6.497097e+01
  -1.640293e+02   1.627737e+01
  -1.544535e+02  -1.002020e+02
  -3.666324e+01  -1.644361e+02
   8.292176e+01  -1.114262e+02
   1.055867e+02  -6.050902e+00
   3.186336e+01   3.442155e+01
  -4.282754e+01  -2.623863e+01
  -1.992573e+01  -1.079089e+02
   9.778288e+01  -1.070823e+02
   1.949243e+02  -1.752934e+00
   1.580921e+02   1.297185e+02
   4.166803e-01   1.850567e+02
  -1.419718e+02   1.251759e+02
  -1.493677e+02   4.760416e+00
  -4.093851e+01  -8.022832e+01
   5.825387e+01  -7.618619e+01
   5.911503e+01  -1.524596e+01
  -5.517841e+00   2.374842e+01
  -3.874079e+01   3.884980e+00
   8.421371e+00  -2.867952e+01
   8.511319e+01  -2.686611e+00
   9.773983e+01   8.934273e+01
   4.217088e+00   1.659201e+02
  -1.388282e+02   1.357817e+02
  -2.184371e+02  -2.485933e+00
  -1.662736e+02  -1.522945e+02
  -2.361122e+01  -2.047017e+02
   9.511337e+01  -1.364230e+02
   1.134478e+02  -2.388999e+01
   6.379575e+01   3.857234e+01
   3.070759e+01   2.392440e+01
   5.304705e+01  -1.195525e+01
   8.443372e+01  -3.374226e+00
   5.424941e+01   5.673362e+01
  -4.053850e+01   1.007352e+02
  -1.212553e+02   6.188704e+01
  -1.031174e+02  -4.658299e+01
   2.028382e+01  -1.253594e+02
   1.576772e+02  -8.028782e+01
   1.881342e+02   6.883862e+01
   6.634786e+01   1.984984e+02
  -1.249560e+02   1.946043e+02
  -2.449817e+02   6.048829e+01
  -2.139904e+02  -9.034280e+01
  -8.038520e+01  -1.536725e+02
   4.074699e+01  -1.204856e+02
   8.020935e+01  -6.780733e+01
   6.210694e+01  -6.011619e+01
   5.249224e+01  -8.407490e+01
   8.260917e+01  -7.160305e+01
   1.182087e+02   1.808729e+01
   1.028387e+02   1.417524e+02
   1.658948e+01   2.044951e+02
  -9.590983e+01   1.457604e+02
  -1.522737e+02   2.146840e+00
  -1.074359e+02  -1.205558e+02
  -6.458355e-01  -1.404816e+02
   7.308469e+01  -6.744562e+01
   5.690124e+01   1.841720e+01
  -7.729563e+00   5.145038e+01
  -2.968302e+01   3.300444e+01
   2.230188e+01   1.150007e+01
   7.741940e+01   1.870484e+01
   4.434099e+01   3.939850e+01
  -7.238897e+01   3.533617e+01
  -1.635650e+02  -8.575571e+00
  -1.298833e+02  -6.652661e+01
   7.475599e+00  -9.241288e+01
   1.267978e+02  -6.247290e+01
   1.308257e+02   2.224764e+00
   3.700150e+01   4.931435e+01
  -5.504137e+01   3.869664e+01
  -7.021759e+01  -1.953769e+01
  -1.794513e+01  -6.901178e+01
   4.058266e+01  -5.976090e+01
   6.282913e+01  -5.092445e-01
   5.314637e+01   4.804124e+01
   4.131054e+01   4.013523e+01
   4.676814e+01   6.854818e-01
   5.855332e+01   1.469744e-01
   4.244813e+01   6.554299e+01
  -2.487065e+01   1.381162e+02
  -1.187624e+02   1.297768e+02
  -1.678675e+02   2.598013e+01
  -1.166302e+02  -8.946224e+01
   3.757593e+00  -1.212597e+02
   8.739945e+01  -6.104362e+01
   5.549990e+01   1.107738e+01
  -5.437051e+01   1.686726e+01
  -1.196911e+02  -4.177065e+01
  -5.933573e+01  -9.866978e+01
   7.984657e+01  -9.525535e+01
   1.716732e+02  -3.167445e+01
   1.382386e+02   4.345435e+01
   2.244519e+01   7.729018e+01
  -6.177452e+01   5.086629e+01
  -4.509592e+01  -4.948194e+00
   3.662156e+01  -2.983976e+01
   8.378823e+01   1.643906e+01
   3.595516e+01   1.023577e+02
  -7.034512e+01   1.389131e+02
  -1.400464e+02   6.317275e+01
  -1.113195e+02  -8.234494e+01
  -1.179446e+01  -1.722940e+02
   7.638789e+01  -1.234441e+02
   9.319528e+01   1.470393e+01
   4.476818e+01   1.104510e+02
  -1.796755e+01   9.059017e+01
  -4.859912e+01   9.603135e+00
  -3.795814e+01  -3.064854e+01
  -1.160226e+01  -6.633071e+00
  -5.420752e+00   1.452710e+01
  -2.937472e+01  -2.170723e+01
  -5.084539e+01  -8.244425e+01
  -2.364775e+01  -9.312000e+01
   5.422927e+01  -3.560005e+01
   1.205062e+02   3.537100e+01
   1.061471e+02   6.419868e+01
   1.444126e+01   4.946840e+01
  -7.147546e+01   2.290438e+01
  -7.689206e+01   2.069418e+00
  -1.626145e+01  -1.328500e+01
   3.082518e+01  -1.863156e+01
   1.923123e+01  -8.451700e+00
  -1.238107e+01   5.365099e+00
   3.266582e-01   4.259078e+00
   5.668764e+01  -2.457666e+00
   8.339218e+01   1.882685e+01
   2.238876e+01   7.261856e+01
  -9.442149e+01   1.055424e+02
  -1.700281e+02   5.925353e+01
  -1.390708e+02  -5.237646e+01
  -2.884247e+01  -1.423884e+02
   7.441282e+01  -1.392492e+02
   1.064291e+02  -5.903593e+01
   7.236911e+01   1.760560e+01
   2.392378e+01   3.502204e+01
   2.985732e+00   1.288554e+01
   1.255650e+01   9.118401e+00
   2.539448e+01   4.524467e+01
   1.385727e+01   8.191616e+01
  -2.664454e+01   6.401017e+01
  -6.953580e+01  -1.291227e+01
  -7.192609e+01  -8.953733e+01
  -1.455246e+01  -9.874398e+01
   6.528345e+01  -3.107097e+01
   9.466026e+01   5.557519e+01
   3.724132e+01   9.263816e+01
  -5.661273e+01   5.989227e+01
  -9.396037e+01  -6.512631e+00
  -4.170919e+01  -5.452789e+01
   3.170267e+01  -5.748790e+01
   3.878319e+01  -2.549029e+01
  -2.095298e+01   7.240438e+00
  -6.073918e+01   8.544880e+00
  -1.784599e+01  -2.479527e+01
   6.929337e+01  -5.723683e+01
   1.096823e+02  -4.477802e+01
   6.579611e+01   1.659553e+01
  -1.158826e+01   7.590947e+01
  -5.354415e+01   7.484193e+01
  -4.275854e+01   1.395358e+01
  -8.644100e+00  -4.476985e+01
   1.975830e+01  -4.426298e+01
   3.215683e+01   6.659059e+00
   2.546364e+01   4.721229e+01
  -2.367376e-01   3.650691e+01
  -2.981438e+01  -4.592849e+00
  -3.794704e+01  -2.498237e+01
  -1.804939e+01  -5.953127e+00
   5.105091e+00   1.939603e+01
   6.501720e+00   1.129318e+01
  -6.189162e+00  -2.662346e+01
  -3.570118e+00  -4.888821e+01
   2.178500e+01  -2.355061e+01
   3.873910e+01   2.781461e+01
   1.513301e+01   5.190006e+01
  -3.426958e+01   2.306943e+01
  -5.668660e+01  -2.875491e+01
  -1.764687e+01  -5.313197e+01
   5.236798e+01  -3.182918e+01
   8.511443e+01   1.034165e+01
   4.602110e+01   3.945341e+01
  -2.600570e+01   4.235947e+01
  -5.963220e+01   2.704801e+01
  -2.826754e+01   6.656674e+00
   2.236372e+01  -4.600516e+00
   2.869722e+01   2.604390e+00
  -1.856206e+01   2.004430e+01
  -6.621878e+01   1.819981e+01
