
 $NMID
 id='ANONYMOUS ', fmtdat='(2E16.6)'
 volume=1.0
 tramp=1.0
 $END
   3.212970e+03  -8.094943e+00
   1.965063e+03   1.889477e+03
  -3.449297e+02   2.035622e+03
  -1.271613e+03   8.752255e+02
  -7.709972e+02  -8.080452e+01
   1.960240e+02  -2.059022e+02
   3.806131e+02   2.529268e+02
  -4.029302e+00   6.301120e+02
  -6.250624e+02   5.726924e+02
  -6.522329e+02  -6.803570e+01
  -3.534275e+02  -5.286758e+02
  -3.476595e+01  -6.284937e+02
   3.313197e+02  -1.103237e+02
   1.647331e+02   4.260654e+02
  -1.209358e+02   4.844550e+02
  -3.781932e+02  -4.765966e+01
  -2.152846e+02  -4.008549e+02
   1.740221e+02  -4.735976e+02
   3.765814e+02  -1.014572e+02
   3.397454e+02   2.050296e+02
   6.175471e+01   3.167664e+02
  -1.345854e+02   2.404454e+02
  -1.477058e+02   4.812717e+01
   1.169624e+02  -5.730283e+00
   2.511527e+02   1.371113e+02
   4.858507e+01   3.096663e+02
  -3.751146e+02   2.396095e+02
  -5.612866e+02  -8.773259e+01
  -2.752824e+02  -3.446112e+02
   2.766531e+02  -2.714176e+02
   4.549700e+02   5.294361e+01
   2.141427e+02   3.026046e+02
  -1.992306e+02   3.401328e+02
  -3.919618e+02   1.232336e+02
  -2.749245e+02  -1.485775e+02
  -6.452561e+01  -3.060308e+02
   8.594937e+01  -1.986973e+02
   5.110756e+01   1.085808e+02
  -1.242484e+02   2.468471e+02
  -2.496240e+02  -4.000340e+01
  -1.071830e+02  -4.438543e+02
   2.031855e+02  -4.520983e+02
   3.666060e+02  -3.061464e+01
   1.708189e+02   3.367322e+02
  -1.580599e+02   2.009327e+02
  -2.473148e+02  -2.174729e+02
   3.768261e+01  -3.741052e+02
   3.831197e+02  -1.006910e+02
   4.405216e+02   2.972400e+02
   1.423025e+02   4.188604e+02
  -2.599072e+02   2.415215e+02
  -4.441994e+02  -5.425773e+01
  -2.796477e+02  -2.430529e+02
   7.647805e+01  -2.312821e+02
   2.875582e+02  -5.431960e+01
   1.840437e+02   9.418292e+01
  -4.287502e+01   6.082075e+01
  -8.811765e+01  -7.982016e+01
   8.847939e+01  -1.165581e+02
   2.258311e+02   2.385056e+01
   1.221746e+02   1.882664e+02
  -1.208436e+02   2.109508e+02
  -2.585690e+02   9.153061e+01
  -1.844697e+02  -7.475262e+01
   1.534188e+01  -2.173739e+02
   2.007335e+02  -2.663624e+02
   2.740661e+02  -1.420417e+02
   2.037054e+02   1.169014e+02
   5.140210e+01   3.058904e+02
  -5.639880e+01   2.702457e+02
  -5.300014e+01   1.086576e+02
  -1.711362e+01   3.531073e+01
  -6.150595e+01   8.060614e+01
  -1.659176e+02   7.782263e+01
  -2.013130e+02  -6.090641e+01
  -1.014767e+02  -2.043772e+02
   6.244496e+01  -1.770820e+02
   1.632314e+02   8.566530e+00
   1.371834e+02   1.866560e+02
  -9.895925e+00   2.122933e+02
  -1.857071e+02   8.151018e+01
  -2.571378e+02  -1.186064e+02
  -1.492976e+02  -2.446658e+02
   4.704609e+01  -2.272562e+02
   1.500601e+02  -1.086139e+02
   1.199858e+02  -2.223170e+01
   9.072865e+01  -2.938083e+01
   1.884623e+02  -4.819594e+01
   3.083512e+02   3.821402e+01
   2.576552e+02   2.120092e+02
   1.759129e-01   3.432478e+02
  -2.800680e+02   3.219280e+02
  -3.738768e+02   1.523631e+02
  -2.431347e+02  -7.534700e+01
  -3.017442e+01  -2.112764e+02
   8.766877e+01  -1.785325e+02
   4.188759e+01  -2.851738e+01
  -8.735708e+01   6.103486e+01
  -1.326379e+02  -1.170525e+01
  -3.067939e+01  -1.305719e+02
   1.063844e+02  -1.147096e+02
   1.192309e+02   3.805504e+01
  -9.482796e+00   1.282389e+02
  -1.375330e+02   1.959573e+01
  -1.262723e+02  -1.855281e+02
   1.755346e+01  -2.711031e+02
   1.820759e+02  -1.581213e+02
   2.647640e+02   4.945319e+01
   2.159628e+02   1.973022e+02
   6.140925e+01   2.118381e+02
  -9.421619e+01   1.173601e+02
  -1.307744e+02   7.995393e+00
  -3.909413e+01  -2.279141e+01
   4.786252e+01   3.517818e+01
   1.360325e+01   9.309470e+01
  -9.492871e+01   6.749294e+01
  -1.278629e+02  -1.367111e+01
  -3.553083e+01  -5.146291e+01
   6.658610e+01  -4.194314e+00
   4.231558e+01   6.466755e+01
  -1.010731e+02   7.120347e+01
  -2.258216e+02  -3.386879e+00
  -2.050076e+02  -1.152385e+02
  -3.921979e+01  -1.976138e+02
   1.480174e+02  -1.918339e+02
   2.141413e+02  -8.863277e+01
   1.217012e+02   3.638831e+01
  -2.098658e+01   7.394081e+01
  -6.377191e+01   3.142431e+00
   2.961951e+01  -7.111849e+01
   1.475479e+02  -3.914584e+01
   1.584646e+02   7.706830e+01
   5.074476e+01   1.529373e+02
  -7.112423e+01   1.156424e+02
  -1.055211e+02   1.917820e+01
  -4.532284e+01  -3.136060e+01
   2.906971e+01   3.561471e+00
   2.865864e+01   7.215241e+01
  -6.111621e+01   9.107372e+01
  -1.560541e+02   2.164107e+01
  -1.454691e+02  -9.453174e+01
  -1.530718e+01  -1.638526e+02
   1.227066e+02  -1.232518e+02
   1.429085e+02  -7.487380e+00
   4.721258e+01   8.341866e+01
  -5.064384e+01   8.224827e+01
  -6.110727e+01   2.142650e+01
  -8.173187e+00  -2.103981e+01
   2.299242e+01  -1.091016e+01
  -6.795774e+00   1.463320e+01
  -6.266711e+01  -6.015820e-01
  -7.655865e+01  -6.533537e+01
  -1.317156e+01  -1.275847e+02
   1.000078e+02  -1.182263e+02
   1.794868e+02  -1.681707e+01
   1.515460e+02   1.152040e+02
   3.117732e+01   1.774615e+02
  -7.995818e+01   1.261207e+02
  -1.021845e+02   2.215309e+01
  -5.458603e+01  -4.075683e+01
  -2.082637e+01  -2.649453e+01
  -3.921178e+01   1.121598e+01
  -6.326120e+01   7.599319e+00
  -3.884036e+01  -3.839444e+01
   2.975761e+01  -7.363445e+01
   8.595232e+01  -4.751957e+01
   7.519996e+01   3.024673e+01
  -1.086803e+01   9.353375e+01
  -1.175611e+02   7.057204e+01
  -1.571749e+02  -4.117039e+01
  -7.601709e+01  -1.584186e+02
   8.428982e+01  -1.758080e+02
   2.037139e+02  -7.247597e+01
   1.934955e+02   6.591431e+01
   8.107160e+01   1.320890e+02
  -3.080861e+01   1.083550e+02
  -7.078162e+01   6.062938e+01
  -5.643514e+01   5.237691e+01
  -4.579365e+01   7.122710e+01
  -6.843318e+01   5.964352e+01
  -9.928128e+01  -1.521291e+01
  -9.244765e+01  -1.184959e+02
  -2.289563e+01  -1.741436e+02
   7.639312e+01  -1.309836e+02
   1.341493e+02  -1.322971e+01
   1.025641e+02   9.556307e+01
   1.144026e+01   1.221396e+02
  -5.517603e+01   6.714141e+01
  -4.742017e+01  -5.385526e+00
   1.722945e-01  -3.771666e+01
   1.501206e+01  -2.679873e+01
  -2.437105e+01  -9.729618e+00
  -6.385987e+01  -1.342473e+01
  -3.791998e+01  -2.957508e+01
   5.119674e+01  -3.057970e+01
   1.263714e+02  -2.168294e+00
   1.100874e+02   4.272301e+01
   5.772344e+00   7.096878e+01
  -9.764022e+01   5.644841e+01
  -1.116645e+02   6.792656e+00
  -3.602640e+01  -3.538486e+01
   4.579849e+01  -3.193118e+01
   5.939156e+01   1.326318e+01
   1.073811e+01   5.359985e+01
  -3.897637e+01   4.664403e+01
  -5.050358e+01   1.323605e-01
  -3.881281e+01  -3.842027e+01
  -3.446519e+01  -3.246816e+01
  -4.413646e+01  -1.924276e+00
  -5.032169e+01  -2.694269e-01
  -3.111285e+01  -5.304879e+01
   2.158153e+01  -1.142046e+02
   9.143264e+01  -1.112588e+02
   1.315184e+02  -2.758372e+01
   9.819131e+01   7.020405e+01
   4.611489e+00   9.971895e+01
  -6.749919e+01   5.080948e+01
  -4.669121e+01  -1.009802e+01
   4.449769e+01  -1.668959e+01
   1.034021e+02   3.154854e+01
   5.685585e+01   8.116819e+01
  -6.088602e+01   8.516613e+01
  -1.431966e+02   3.822158e+01
  -1.217017e+02  -2.621646e+01
  -2.786964e+01  -6.426413e+01
   4.541043e+01  -5.032055e+01
   3.617863e+01  -3.337906e+00
  -2.990975e+01   2.158024e+01
  -7.018106e+01  -1.574789e+01
  -2.931734e+01  -8.971381e+01
   6.346094e+01  -1.200316e+02
   1.242918e+02  -5.350496e+01
   9.918656e+01   7.095001e+01
   1.331973e+01   1.483282e+02
  -6.222239e+01   1.101119e+02
  -7.958080e+01  -4.597564e+00
  -4.502185e+01  -8.919792e+01
   4.943631e+00  -7.976772e+01
   3.690770e+01  -1.419706e+01
   3.741118e+01   2.342315e+01
   1.659448e+01   6.116518e+00
   3.679448e+00  -1.407620e+01
   1.954490e+01   1.376998e+01
   4.416893e+01   6.757879e+01
   2.928741e+01   8.188400e+01
  -3.892338e+01   3.462513e+01
  -1.053829e+02  -2.780629e+01
  -9.763309e+01  -5.284978e+01
  -1.413938e+01  -4.012693e+01
   6.450627e+01  -1.959546e+01
   6.727384e+01  -5.518285e+00
   1.125276e+01   8.051197e+00
  -2.755384e+01   1.802594e+01
  -1.280231e+01   1.267607e+01
   1.329152e+01  -1.588402e+00
  -4.264985e+00  -4.754754e+00
  -5.518334e+01   3.119595e-01
  -7.240341e+01  -1.649211e+01
  -1.417054e+01  -6.241209e+01
   8.374622e+01  -9.155499e+01
   1.419678e+02  -5.116092e+01
   1.138889e+02   4.556885e+01
   2.478364e+01   1.219459e+02
  -5.889132e+01   1.171898e+02
  -8.778432e+01   4.845005e+01
  -6.204783e+01  -1.505873e+01
  -2.005206e+01  -2.827400e+01
   4.903942e-01  -8.817467e+00
  -8.949939e+00  -4.744507e+00
  -2.469520e+01  -3.576885e+01
  -1.671842e+01  -6.895755e+01
   2.153730e+01  -5.558104e+01
   6.173779e+01   1.108896e+01
   6.224921e+01   7.883238e+01
   8.867736e+00   8.533719e+01
  -6.012879e+01   2.329463e+01
  -8.098308e+01  -5.154434e+01
  -2.886767e+01  -7.827487e+01
   4.890432e+01  -4.674954e+01
   7.643643e+01   5.887911e+00
   3.225839e+01   4.060005e+01
  -2.469950e+01   4.298181e+01
  -2.620645e+01   2.139110e+01
   2.338068e+01  -3.556587e+00
   5.229670e+01  -6.673255e+00
   1.300567e+01   2.048609e+01
  -5.874680e+01   5.166250e+01
  -8.893013e+01   4.366514e+01
  -5.167117e+01  -1.126104e+01
   9.868036e+00  -6.495748e+01
   4.181906e+01  -6.241661e+01
   3.232591e+01  -6.743701e+00
   4.656237e+00   4.182545e+01
  -1.846704e+01   3.537271e+01
  -2.838570e+01  -1.034088e+01
  -2.119131e+01  -4.064675e+01
   1.911634e+00  -2.746174e+01
   2.581603e+01   5.209055e+00
   3.036731e+01   1.782638e+01
   1.442853e+01   2.615623e+00
  -2.408665e+00  -1.289423e+01
  -4.665220e+00  -2.351819e+00
   2.169192e-02   2.567081e+01
  -6.179531e+00   3.742501e+01
  -2.301986e+01   1.205841e+01
  -2.841969e+01  -2.989088e+01
  -5.359402e+00  -4.648824e+01
   3.226186e+01  -1.905459e+01
   4.678482e+01   2.627681e+01
   1.471490e+01   4.726922e+01
  -4.172770e+01   2.826804e+01
  -6.966305e+01  -8.421859e+00
  -3.911272e+01  -3.283913e+01
   2.134119e+01  -3.378147e+01
   4.979766e+01  -1.957782e+01
   2.077442e+01  -3.612032e+00
  -2.528167e+01   2.289878e+00
  -2.831230e+01  -7.426478e+00
   1.890735e+01  -2.230740e+01
   6.377263e+01  -1.711811e+01
