
 $NMID
 id='ANONYMOUS ', fmtdat='(2E16.6)'
 volume=1.0
 tramp=1.0
 $END
  -3.317281e+03   2.821423e+01
  -2.002438e+03  -1.921900e+03
   1.031453e+02  -2.220160e+03
   1.324179e+03  -1.171293e+03
   1.165140e+03   1.282003e+02
  -1.135809e+02   3.468159e+02
  -4.632107e+02  -1.977222e+02
   5.730071e+01  -7.033477e+02
   5.424362e+02  -5.804851e+02
   6.571335e+02  -1.968916e+01
   4.005608e+02   5.048538e+02
  -1.914644e+01   6.927531e+02
  -4.397837e+02   1.590104e+02
  -2.576596e+02  -5.624749e+02
   1.840553e+02  -5.841698e+02
   4.354010e+02  -1.054911e+02
   2.830347e+02   5.607112e+02
  -1.808508e+02   5.569667e+02
  -4.458169e+02   2.440191e+02
  -4.257822e+02  -1.834354e+02
  -9.623031e+01  -3.933355e+02
   1.441696e+02  -2.557941e+02
   9.458071e+01  -8.868392e+01
  -1.730880e+02  -5.048794e+01
  -3.126739e+02  -2.464179e+02
  -3.107954e+01  -4.043268e+02
   4.683328e+02  -2.316830e+02
   6.445315e+02   1.860392e+02
   2.745796e+02   4.169042e+02
  -3.132921e+02   2.728329e+02
  -5.364477e+02  -1.202262e+02
  -2.048735e+02  -3.962681e+02
   2.627647e+02  -3.546145e+02
   4.665356e+02  -1.139391e+02
   3.388720e+02   1.710735e+02
   9.081387e+01   3.258964e+02
  -7.373570e+01   1.894709e+02
  -1.699301e+01  -1.156782e+02
   1.605249e+02  -1.860293e+02
   2.277288e+02   1.338942e+02
   4.156154e+01   5.104412e+02
  -2.597914e+02   4.529129e+02
  -3.613629e+02  -3.062096e+01
  -1.324963e+02  -3.519423e+02
   1.783404e+02  -1.672153e+02
   2.066916e+02   2.590503e+02
  -1.056607e+02   3.943683e+02
  -4.468724e+02   6.187350e+01
  -4.730492e+02  -3.455961e+02
  -1.385129e+02  -4.895696e+02
   3.096164e+02  -2.834641e+02
   5.103211e+02   5.068759e+01
   3.251081e+02   2.655165e+02
  -6.378525e+01   2.483468e+02
  -2.978301e+02   7.026831e+01
  -2.036045e+02  -6.830393e+01
   2.226356e+01  -4.145279e+01
   6.733593e+01   6.948250e+01
  -1.042900e+02   8.054789e+01
  -2.333522e+02  -5.633201e+01
  -1.158556e+02  -2.055307e+02
   1.528245e+02  -2.285144e+02
   3.165939e+02  -1.086346e+02
   2.362728e+02   9.021013e+01
  -1.855631e+01   2.804698e+02
  -2.662478e+02   3.362523e+02
  -3.508376e+02   1.649351e+02
  -2.407274e+02  -1.488463e+02
  -5.281621e+01  -3.601678e+02
   5.201378e+01  -3.229389e+02
   4.187920e+01  -1.591773e+02
   3.373026e+01  -7.972441e+01
   1.210632e+02  -1.007280e+02
   2.347539e+02  -5.927647e+01
   2.344259e+02   1.079817e+02
   8.959820e+01   2.522137e+02
  -9.367504e+01   1.958158e+02
  -1.829000e+02  -3.443813e+01
  -1.301148e+02  -2.346403e+02
   3.976770e+01  -2.446865e+02
   2.318308e+02  -5.889001e+01
   2.934550e+02   1.706988e+02
   1.606752e+02   2.963484e+02
  -6.095386e+01   2.556704e+02
  -1.729553e+02   1.285943e+02
  -1.415506e+02   5.270704e+01
  -1.305072e+02   5.324124e+01
  -2.503263e+02   3.861191e+01
  -3.808777e+02  -8.515680e+01
  -2.966761e+02  -2.790226e+02
   2.877773e+01  -4.068650e+02
   3.630185e+02  -3.633070e+02
   4.527523e+02  -1.587837e+02
   2.732667e+02   9.757517e+01
   1.413476e+01   2.459812e+02
  -1.047709e+02   1.945463e+02
  -2.660203e+01   3.120057e+01
   1.114507e+02  -5.417820e+01
   1.378839e+02   2.647748e+01
   1.736795e+01   1.424253e+02
  -1.188908e+02   1.135258e+02
  -1.170676e+02  -4.737228e+01
   2.533294e+01  -1.306562e+02
   1.573108e+02  -1.003460e+00
   1.398453e+02   2.271551e+02
  -2.971099e+01   3.228703e+02
  -2.350873e+02   1.875994e+02
  -3.338717e+02  -6.725624e+01
  -2.582058e+02  -2.518799e+02
  -5.592954e+01  -2.612962e+02
   1.256151e+02  -1.346765e+02
   1.500112e+02  -3.938391e+00
   3.822502e+01   1.977506e+01
  -5.193021e+01  -5.183739e+01
  -3.195810e+00  -1.081298e+02
   1.164852e+02  -6.733265e+01
   1.441239e+02   2.388166e+01
   3.552404e+01   5.599962e+01
  -7.669419e+01  -4.940197e+00
  -4.067586e+01  -8.229498e+01
   1.326879e+02  -8.047894e+01
   2.765995e+02   1.832023e+01
   2.397702e+02   1.554214e+02
   2.975046e+01   2.447600e+02
  -1.920046e+02   2.212864e+02
  -2.559344e+02   9.186028e+01
  -1.363766e+02  -4.688295e+01
   2.646086e+01  -7.952468e+01
   6.544157e+01   2.478927e+00
  -4.564579e+01   7.750930e+01
  -1.742949e+02   3.153992e+01
  -1.781280e+02  -1.020986e+02
  -5.036341e+01  -1.818419e+02
   8.851995e+01  -1.293862e+02
   1.232187e+02  -1.415021e+01
   4.842397e+01   3.835073e+01
  -3.638515e+01  -1.407351e+01
  -2.572864e+01  -9.716318e+01
   8.816101e+01  -1.073858e+02
   1.949742e+02  -1.062531e+01
   1.692895e+02   1.278116e+02
   7.780722e+00   1.979140e+02
  -1.518834e+02   1.409493e+02
  -1.691409e+02   5.283914e+00
  -5.209494e+01  -9.472810e+01
   6.222458e+01  -9.255557e+01
   7.115054e+01  -2.223757e+01
   3.582276e+00   2.582302e+01
  -3.447280e+01   9.684419e+00
   7.214610e+00  -2.307866e+01
   7.993934e+01  -1.576961e+00
   9.469104e+01   8.552672e+01
   7.730277e+00   1.633241e+02
  -1.341382e+02   1.413177e+02
  -2.222156e+02   5.628570e+00
  -1.769656e+02  -1.536255e+02
  -2.902897e+01  -2.181215e+02
   1.013156e+02  -1.487557e+02
   1.237385e+02  -2.354363e+01
   6.742400e+01   4.726449e+01
   2.935536e+01   3.105718e+01
   5.061445e+01  -1.172032e+01
   7.936397e+01  -6.411960e+00
   4.853900e+01   5.142414e+01
  -4.091589e+01   9.514077e+01
  -1.142407e+02   5.951547e+01
  -9.698130e+01  -4.233057e+01
   1.714676e+01  -1.194146e+02
   1.506822e+02  -8.253077e+01
   1.898719e+02   6.135985e+01
   7.762798e+01   1.980982e+02
  -1.181028e+02   2.048062e+02
  -2.527685e+02   7.029320e+01
  -2.298711e+02  -9.274985e+01
  -8.907847e+01  -1.642425e+02
   4.302126e+01  -1.301699e+02
   8.917477e+01  -7.312529e+01
   7.008845e+01  -6.326848e+01
   5.817505e+01  -8.632291e+01
   8.692117e+01  -7.099262e+01
   1.230684e+02   2.112554e+01
   1.089623e+02   1.471162e+02
   2.045071e+01   2.133225e+02
  -9.855916e+01   1.563097e+02
  -1.625647e+02   8.534226e+00
  -1.192687e+02  -1.226427e+02
  -7.040752e+00  -1.491011e+02
   7.333822e+01  -7.656287e+01
   6.102037e+01   1.317680e+01
  -2.093534e+00   4.965018e+01
  -2.464427e+01   3.388650e+01
   2.469077e+01   1.376391e+01
   7.668365e+01   2.024689e+01
   4.518826e+01   3.825963e+01
  -6.761555e+01   3.401961e+01
  -1.599708e+02  -6.270243e+00
  -1.335333e+02  -6.096746e+01
   8.489745e-01  -8.966385e+01
   1.263615e+02  -6.562291e+01
   1.372866e+02  -3.305951e+00
   4.167646e+01   4.695622e+01
  -5.686097e+01   4.039902e+01
  -7.248493e+01  -1.664281e+01
  -1.469166e+01  -6.698826e+01
   4.534953e+01  -5.889569e+01
   6.184459e+01  -2.092498e-01
   4.870917e+01   4.791319e+01
   4.115022e+01   4.049034e+01
   5.187884e+01   1.597391e+00
   6.125155e+01   1.214308e+00
   3.952583e+01   6.628327e+01
  -2.847564e+01   1.394808e+02
  -1.188169e+02   1.315002e+02
  -1.665101e+02   2.629137e+01
  -1.176911e+02  -9.137179e+01
   2.251011e+00  -1.234365e+02
   8.916337e+01  -6.094266e+01
   5.887195e+01   1.287945e+01
  -5.413111e+01   1.868401e+01
  -1.241402e+02  -4.169777e+01
  -6.438463e+01  -1.002550e+02
   7.966063e+01  -9.913910e+01
   1.774066e+02  -3.693367e+01
   1.457891e+02   4.094565e+01
   2.689694e+01   7.988473e+01
  -6.186549e+01   5.658953e+01
  -4.608979e+01  -1.030116e+00
   3.829407e+01  -2.822478e+01
   8.738820e+01   1.915668e+01
   3.537122e+01   1.082651e+02
  -7.860192e+01   1.439076e+02
  -1.505268e+02   6.248296e+01
  -1.160569e+02  -8.838484e+01
  -8.961269e+00  -1.804979e+02
   8.157772e+01  -1.300222e+02
   9.730064e+01   1.264733e+01
   4.871885e+01   1.139003e+02
  -1.361646e+01   9.665019e+01
  -4.749020e+01   1.323230e+01
  -4.208491e+01  -3.132060e+01
  -1.656949e+01  -7.490712e+00
  -5.332587e+00   1.718904e+01
  -2.565365e+01  -1.913549e+01
  -5.085028e+01  -8.483374e+01
  -2.886169e+01  -9.924969e+01
   5.127132e+01  -3.848801e+01
   1.259884e+02   3.849012e+01
   1.145193e+02   6.834770e+01
   1.620585e+01   5.044320e+01
  -7.747344e+01   2.275153e+01
  -8.223785e+01   3.885824e+00
  -1.562674e+01  -1.122699e+01
   3.328599e+01  -2.017276e+01
   1.758943e+01  -1.282958e+01
  -1.554667e+01   2.619645e+00
   2.527275e+00   5.008115e+00
   6.403362e+01   7.112720e-02
   8.781192e+01   2.191747e+01
   1.833050e+01   7.634308e+01
  -1.032330e+02   1.085561e+02
  -1.765296e+02   5.829309e+01
  -1.405152e+02  -5.810281e+01
  -2.726343e+01  -1.491495e+02
   7.685646e+01  -1.427107e+02
   1.097208e+02  -5.889252e+01
   7.565797e+01   1.886914e+01
   2.447456e+01   3.563095e+01
   1.440017e+00   1.206204e+01
   1.218821e+01   7.529468e+00
   2.800327e+01   4.545621e+01
   1.613308e+01   8.522694e+01
  -2.842052e+01   6.729298e+01
  -7.350316e+01  -1.467493e+01
  -7.284755e+01  -9.675607e+01
  -1.006855e+01  -1.039239e+02
   7.136202e+01  -2.804413e+01
   9.733159e+01   6.367095e+01
   3.496496e+01   9.705956e+01
  -6.095821e+01   5.795859e+01
  -9.583711e+01  -9.188669e+00
  -4.070966e+01  -5.343483e+01
   3.305043e+01  -5.524677e+01
   3.684929e+01  -2.648268e+01
  -2.571970e+01   4.416455e+00
  -6.446222e+01   7.147561e+00
  -1.658313e+01  -2.519184e+01
   7.418100e+01  -6.016674e+01
   1.130961e+02  -4.902577e+01
   6.566114e+01   1.560014e+01
  -1.351900e+01   7.914584e+01
  -5.404145e+01   7.715474e+01
  -4.108182e+01   1.112634e+01
  -5.744994e+00  -4.900183e+01
   2.233128e+01  -4.389784e+01
   3.395672e+01   1.123800e+01
   2.563758e+01   5.100232e+01
  -1.859415e+00   3.643270e+01
  -3.171870e+01  -5.826734e+00
  -3.887541e+01  -2.462499e+01
  -1.877629e+01  -5.325073e+00
   3.936406e+00   1.769996e+01
   6.745485e+00   7.111634e+00
  -1.549011e+00  -2.937894e+01
   3.762790e+00  -4.698743e+01
   2.582216e+01  -1.789899e+01
   3.547305e+01   3.399879e+01
   8.670647e+00   5.538792e+01
  -3.810980e+01   2.259904e+01
  -5.636611e+01  -3.236072e+01
  -1.649018e+01  -5.667347e+01
   5.302061e+01  -3.251079e+01
   8.637179e+01   1.232536e+01
   4.739334e+01   4.136169e+01
  -2.674646e+01   4.228604e+01
  -6.160721e+01   2.545151e+01
  -2.739627e+01   6.415331e+00
   2.736328e+01  -1.902765e+00
   3.215126e+01   7.631105e+00
  -2.293709e+01   2.441706e+01
  -7.595880e+01   1.851348e+01
