
 $NMID
 id='ANONYMOUS ', fmtdat='(2E16.6)'
 volume=1.0
 tramp=1.0
 $END
   2.101914e+03   7.138795e+01
   1.509594e+03   1.186702e+03
   2.302383e+02   1.620923e+03
  -8.236376e+02   1.115517e+03
  -6.752177e+02   2.402253e+02
  -1.451668e+02  -7.242532e+01
   1.567738e+02  -7.191376e+00
   1.007933e+02   3.007546e+02
  -2.315192e+02   4.954756e+02
  -4.442980e+02   4.666570e+01
  -3.842319e+02  -2.648968e+02
  -1.345773e+02  -5.184664e+02
   1.390660e+02  -1.951243e+02
   1.998527e+02   1.944422e+02
  -5.792167e+01   3.612532e+02
  -2.907065e+02   1.031642e+02
  -2.963690e+02  -2.747276e+02
   4.455115e+01  -4.736478e+02
   3.139928e+02  -2.661388e+02
   3.882790e+02   5.933665e+01
   1.801713e+02   2.628958e+02
  -9.230350e-01   2.128616e+02
  -7.969764e+00   9.407548e+01
   1.400044e+02   8.530770e+01
   1.533636e+02   2.343816e+02
  -6.524574e+01   2.474099e+02
  -3.218159e+02   9.052953e+01
  -3.796079e+02  -1.387330e+02
  -1.252961e+02  -2.197442e+02
   2.357393e+02  -1.025109e+02
   3.192007e+02   1.095772e+02
   1.104443e+02   2.405109e+02
  -1.779374e+02   2.280651e+02
  -3.081683e+02   1.006140e+02
  -2.312276e+02  -8.495672e+01
  -9.139615e+01  -1.997138e+02
  -2.173317e+01  -1.463121e+02
  -5.336979e+01   1.572497e+01
  -1.017838e+02   4.885687e+01
  -7.391081e+01  -1.229615e+02
   3.499952e+01  -3.001141e+02
   1.452290e+02  -2.722696e+02
   1.802707e+02  -2.514004e+01
   6.900609e+01   1.582210e+02
  -6.908834e+01   6.242100e+01
  -8.529602e+01  -1.861744e+02
   9.271263e+01  -2.623781e+02
   3.010991e+02  -5.522876e+01
   3.492096e+02   2.417850e+02
   1.365069e+02   3.495660e+02
  -1.809697e+02   2.098604e+02
  -3.553515e+02  -1.385891e+01
  -2.584574e+02  -1.435547e+02
  -7.639901e+00  -1.493908e+02
   1.744219e+02  -8.352911e+01
   1.635193e+02  -2.068523e+01
   4.420486e+01   9.220815e+00
  -1.858305e+01  -1.951363e+00
   4.503701e+01  -1.790075e+01
   1.310781e+02   1.812596e+01
   8.778872e+01   1.104479e+02
  -9.574659e+01   1.785031e+02
  -2.531031e+02   1.165802e+02
  -2.107826e+02  -7.785735e+01
   1.387836e+01  -2.701340e+02
   2.322053e+02  -2.940792e+02
   2.820187e+02  -1.187950e+02
   1.791968e+02   1.192002e+02
   6.094058e+01   2.532945e+02
   1.290637e+01   2.388543e+02
   3.786251e+00   1.647030e+02
  -4.171101e+01   1.171542e+02
  -1.314304e+02   8.982311e+01
  -1.935032e+02   1.856436e+01
  -1.648383e+02  -9.881516e+01
  -5.346898e+01  -1.770362e+02
   6.840101e+01  -1.240848e+02
   1.307385e+02   3.646887e+01
   9.022406e+01   1.787846e+02
  -3.663302e+01   1.823929e+02
  -1.792185e+02   4.954483e+01
  -2.260479e+02  -1.203584e+02
  -1.376039e+02  -2.114036e+02
   1.703841e+01  -2.008020e+02
   1.138767e+02  -1.344566e+02
   1.223711e+02  -8.077263e+01
   1.312764e+02  -5.573138e+01
   2.165869e+02  -1.989196e+01
   3.064143e+02   7.684015e+01
   2.375501e+02   2.180462e+02
  -1.360548e+01   3.222190e+02
  -2.790871e+02   3.006241e+02
  -3.505346e+02   1.401437e+02
  -2.067761e+02  -6.696343e+01
  -1.544128e+01  -1.766801e+02
   5.362353e+01  -1.425919e+02
  -8.202204e+00  -3.765296e+01
  -8.460001e+01   1.495045e+01
  -7.929087e+01  -2.573318e+01
  -2.897446e+00  -8.498059e+01
   6.642102e+01  -6.575839e+01
   6.272835e+01   2.548163e+01
  -1.858758e+01   7.571172e+01
  -1.096445e+02  -7.959489e+00
  -1.152524e+02  -1.705395e+02
   5.135647e+00  -2.572815e+02
   1.848061e+02  -1.683172e+02
   2.855978e+02   3.959751e+01
   2.185392e+02   2.043328e+02
   3.915568e+01   2.152064e+02
  -1.025834e+02   1.033505e+02
  -1.081182e+02   2.400177e-01
  -1.991826e+01  -7.414205e+00
   3.538860e+01   5.223415e+01
  -8.572036e+00   8.529602e+01
  -9.181174e+01   4.637772e+01
  -1.043604e+02  -1.901660e+01
  -2.251162e+01  -3.536994e+01
   5.788017e+01   1.430886e+01
   2.411830e+01   7.191745e+01
  -1.175622e+02   6.545422e+01
  -2.340408e+02  -2.007785e+01
  -1.966291e+02  -1.344594e+02
  -1.698456e+01  -2.021708e+02
   1.602749e+02  -1.748291e+02
   1.990043e+02  -7.156564e+01
   9.833804e+01   2.931257e+01
  -2.037843e+01   5.027503e+01
  -3.997932e+01  -5.342850e+00
   4.462053e+01  -5.402778e+01
   1.356514e+02  -2.035139e+01
   1.364285e+02   7.487876e+01
   4.208931e+01   1.344774e+02
  -6.287162e+01   9.791057e+01
  -8.786691e+01   1.149281e+01
  -2.683199e+01  -2.549356e+01
   3.851676e+01   2.226712e+01
   1.962874e+01   9.174475e+01
  -8.094558e+01   9.429776e+01
  -1.651942e+02   8.592454e+00
  -1.372984e+02  -1.035223e+02
  -7.054198e+00  -1.562905e+02
   1.137493e+02  -1.129461e+02
   1.260579e+02  -1.268669e+01
   4.129347e+01   6.501870e+01
  -4.180653e+01   6.844185e+01
  -4.704116e+01   1.908982e+01
   4.860226e+00  -1.698598e+01
   3.301573e+01  -2.404156e+00
  -7.324160e+00   2.746561e+01
  -7.530217e+01   7.292213e+00
  -8.897727e+01  -7.291730e+01
  -1.060809e+01  -1.415178e+02
   1.120577e+02  -1.200516e+02
   1.840776e+02  -5.477588e+00
   1.459352e+02   1.217304e+02
   2.994194e+01   1.703529e+02
  -7.233205e+01   1.187918e+02
  -9.677298e+01   2.648228e+01
  -5.985079e+01  -2.899104e+01
  -2.886035e+01  -2.067887e+01
  -4.157380e+01   1.130101e+01
  -6.748107e+01   6.140195e+00
  -4.789414e+01  -4.582489e+01
   2.811355e+01  -8.846194e+01
   1.003634e+02  -5.791775e+01
   8.967832e+01   3.668539e+01
  -1.463121e+01   1.077707e+02
  -1.336444e+02   7.268313e+01
  -1.630115e+02  -5.446846e+01
  -6.264974e+01  -1.689198e+02
   9.913443e+01  -1.708246e+02
   2.043054e+02  -6.216265e+01
   1.843106e+02   6.654252e+01
   7.506040e+01   1.247662e+02
  -2.831963e+01   1.042529e+02
  -6.393194e+01   6.252934e+01
  -4.820457e+01   5.598385e+01
  -3.943425e+01   7.512403e+01
  -6.757739e+01   6.521235e+01
  -1.043416e+02  -9.563229e+00
  -9.659735e+01  -1.154708e+02
  -2.412023e+01  -1.728753e+02
   7.448624e+01  -1.278285e+02
   1.283046e+02  -8.462943e+00
   9.530891e+01   9.746275e+01
   5.872540e+00   1.176507e+02
  -5.949839e+01   5.733857e+01
  -4.928578e+01  -1.649528e+01
   5.479938e+00  -4.471690e+01
   2.604450e+01  -2.691617e+01
  -1.791758e+01  -5.773081e+00
  -6.726635e+01  -1.128471e+01
  -4.090199e+01  -3.153824e+01
   5.950310e+01  -3.252956e+01
   1.389270e+02   1.094863e+00
   1.108130e+02   5.011544e+01
  -6.077930e+00   7.691550e+01
  -1.069018e+02   5.749335e+01
  -1.097780e+02   3.773038e+00
  -3.178571e+01  -4.106940e+01
   4.551629e+01  -3.789604e+01
   6.109218e+01   1.134192e+01
   2.003001e+01   5.898132e+01
  -3.129639e+01   5.575804e+01
  -5.581337e+01   5.102241e+00
  -5.115238e+01  -3.931310e+01
  -3.888557e+01  -3.449661e+01
  -3.890576e+01  -8.093711e-01
  -4.858578e+01  -1.087276e-01
  -3.841413e+01  -5.761796e+01
   1.589854e+01  -1.211002e+02
   9.780911e+01  -1.155389e+02
   1.447820e+02  -2.758398e+01
   1.049691e+02   7.293247e+01
   2.100505e+00   1.051249e+02
  -7.247719e+01   5.734350e+01
  -4.907691e+01  -5.737680e+00
   4.279372e+01  -1.743234e+01
   1.007375e+02   2.781484e+01
   5.407863e+01   7.852785e+01
  -6.107685e+01   8.298730e+01
  -1.403623e+02   3.424289e+01
  -1.168187e+02  -2.991350e+01
  -2.273727e+01  -6.246606e+01
   4.831860e+01  -4.363412e+01
   3.654720e+01   3.464758e+00
  -3.105652e+01   2.648386e+01
  -7.311537e+01  -1.130769e+01
  -3.664778e+01  -8.671491e+01
   5.256821e+01  -1.225538e+02
   1.161479e+02  -6.167059e+01
   9.930695e+01   6.299347e+01
   1.897283e+01   1.448342e+02
  -5.846743e+01   1.081999e+02
  -7.900062e+01  -7.899030e+00
  -4.210333e+01  -9.102790e+01
   1.188581e+01  -7.698827e+01
   4.040308e+01  -1.031366e+01
   3.238320e+01   2.353582e+01
   9.611179e+00   4.519426e+00
   4.910241e+00  -1.227321e+01
   2.702251e+01   1.793504e+01
   4.698589e+01   6.719820e+01
   2.366648e+01   7.673652e+01
  -4.431706e+01   3.245056e+01
  -1.032627e+02  -2.337825e+01
  -9.267966e+01  -4.850368e+01
  -1.577532e+01  -4.164925e+01
   5.784643e+01  -2.356899e+01
   6.503615e+01  -5.681491e+00
   1.620807e+01   1.046128e+01
  -2.361509e+01   1.674638e+01
  -1.601615e+01   7.627953e+00
   8.813737e+00  -4.055356e+00
  -1.650917e+00  -1.371748e+00
  -4.844854e+01   5.855435e+00
  -7.261433e+01  -1.320756e+01
  -2.422994e+01  -6.284749e+01
   7.405324e+01  -9.595059e+01
   1.427611e+02  -5.919145e+01
   1.227653e+02   3.763298e+01
   3.140006e+01   1.201802e+02
  -5.826303e+01   1.228204e+02
  -8.887198e+01   5.562271e+01
  -6.203752e+01  -1.259193e+01
  -2.127674e+01  -3.075791e+01
  -3.716638e+00  -1.257604e+01
  -1.172609e+01  -7.840921e+00
  -2.299068e+01  -3.751796e+01
  -1.390607e+01  -6.940254e+01
   2.094733e+01  -5.600866e+01
   6.031085e+01   7.756015e+00
   6.661642e+01   7.348121e+01
   1.843797e+01   8.452259e+01
  -5.444574e+01   3.100871e+01
  -8.541907e+01  -4.200840e+01
  -3.767398e+01  -7.776824e+01
   4.623454e+01  -5.518880e+01
   8.225814e+01   6.642702e-01
   3.888961e+01   4.588508e+01
  -2.520602e+01   5.191033e+01
  -3.285960e+01   2.307736e+01
   1.719845e+01  -8.782042e+00
   5.174611e+01  -1.058335e+01
   1.638592e+01   2.183358e+01
  -5.696537e+01   5.339528e+01
  -9.214452e+01   4.225659e+01
  -5.756724e+01  -1.415091e+01
   7.100304e+00  -6.762028e+01
   4.512380e+01  -6.683087e+01
   3.908856e+01  -1.241112e+01
   1.027777e+01   4.050939e+01
  -1.665851e+01   4.142322e+01
  -3.034526e+01  -3.247756e+00
  -2.506269e+01  -4.080598e+01
  -7.468175e-01  -3.396543e+01
   2.644896e+01   1.240038e+00
   3.347205e+01   2.016249e+01
   1.561533e+01   4.955759e+00
  -4.404703e+00  -1.721247e+01
  -4.178321e+00  -1.040009e+01
   8.677590e+00   2.332836e+01
   6.030098e+00   4.489073e+01
  -1.940131e+01   2.426340e+01
  -3.810549e+01  -2.173566e+01
  -1.843069e+01  -4.623497e+01
   2.839042e+01  -2.445474e+01
   5.230348e+01   2.010481e+01
   1.994974e+01   4.466492e+01
  -4.248171e+01   3.077919e+01
  -7.343559e+01  -3.815117e+00
  -4.094588e+01  -3.122837e+01
   2.062948e+01  -3.782339e+01
   4.989462e+01  -2.586816e+01
   2.411737e+01  -5.780276e+00
  -1.893348e+01   6.934202e+00
  -2.557200e+01   1.863902e-01
   1.312537e+01  -1.874824e+01
   5.449152e+01  -2.056944e+01
