
 $NMID
 id='ANONYMOUS ', fmtdat='(2E16.6)'
 volume=1.0
 tramp=1.0
 $END
  -2.597185e+03  -1.305536e+02
  -1.751203e+03  -1.277763e+03
  -1.269524e+02  -1.539236e+03
   1.006157e+03  -1.137042e+03
   7.799554e+02  -1.936770e+02
   1.867006e+02   1.519193e+02
  -4.255526e+02  -5.481922e+00
  -5.429048e+01  -4.882629e+02
   3.330360e+02  -4.875630e+02
   5.254094e+02  -1.459704e+02
   3.409900e+02   3.583567e+02
   5.923523e+01   4.243363e+02
  -2.418182e+02   1.592773e+02
  -2.149746e+02  -3.221824e+02
   2.946304e+01  -4.469288e+02
   2.482535e+02  -8.602372e+01
   2.661330e+02   3.789487e+02
  -4.992804e+01   5.341545e+02
  -3.419028e+02   2.537687e+02
  -3.845487e+02  -1.069665e+02
  -1.873659e+02  -2.489233e+02
   6.757199e+01  -2.235497e+02
   2.518162e+01  -9.906706e+01
  -1.858555e+02  -1.358003e+02
  -2.502835e+02  -2.517743e+02
   5.081641e+01  -3.102093e+02
   4.332650e+02  -1.078193e+02
   5.084302e+02   1.560720e+02
   1.476565e+02   2.773519e+02
  -2.933029e+02   1.292645e+02
  -4.207437e+02  -1.426382e+02
  -1.152120e+02  -2.880193e+02
   2.474648e+02  -3.055142e+02
   3.625166e+02  -1.166893e+02
   2.588333e+02   1.276574e+02
   7.717782e+01   2.497740e+02
   9.037114e+00   1.457546e+02
   6.795856e+01  -6.099921e+01
   1.561603e+02  -7.925919e+01
   1.293523e+02   1.440340e+02
  -2.857870e+01   4.091571e+02
  -2.186702e+02   3.407557e+02
  -2.396412e+02   2.621016e+00
  -7.945801e+01  -2.350659e+02
   1.108998e+02  -8.114510e+01
   1.051877e+02   2.372815e+02
  -1.273070e+02   3.213051e+02
  -3.786460e+02   3.952891e+01
  -4.088512e+02  -3.187896e+02
  -1.439565e+02  -4.189614e+02
   2.305440e+02  -2.218489e+02
   4.243126e+02   5.161358e+01
   3.018724e+02   1.915916e+02
  -1.444778e+01   1.669362e+02
  -2.266432e+02   7.261448e+01
  -1.900595e+02   6.676444e+00
  -2.720474e+01   1.166846e+00
   3.172341e+01   2.946393e+01
  -7.324274e+01   3.020346e+01
  -1.811839e+02  -3.904679e+01
  -1.106191e+02  -1.555628e+02
   1.227342e+02  -2.219012e+02
   3.094258e+02  -1.400206e+02
   2.597398e+02   8.597988e+01
  -5.636298e+00   3.098224e+02
  -2.718617e+02   3.426850e+02
  -3.360821e+02   1.350647e+02
  -1.957526e+02  -1.556912e+02
  -2.543190e+01  -3.082525e+02
   2.893289e+01  -2.609835e+02
   1.987719e-01  -1.471486e+02
   1.950293e+01  -1.053631e+02
   1.305303e+02  -1.104580e+02
   2.344442e+02  -4.040090e+01
   2.131019e+02   1.208626e+02
   6.852836e+01   2.322691e+02
  -9.857166e+01   1.622621e+02
  -1.729920e+02  -5.215836e+01
  -1.092987e+02  -2.286050e+02
   5.927605e+01  -2.201492e+02
   2.282977e+02  -4.258699e+01
   2.671256e+02   1.631577e+02
   1.412422e+02   2.600804e+02
  -4.253335e+01   2.281230e+02
  -1.360795e+02   1.454833e+02
  -1.249004e+02   8.708367e+01
  -1.387603e+02   7.240565e+01
  -2.609564e+02   3.162125e+01
  -3.750348e+02  -9.010616e+01
  -2.878716e+02  -2.713389e+02
   2.862116e+01  -3.940200e+02
   3.504476e+02  -3.550199e+02
   4.310946e+02  -1.467975e+02
   2.446847e+02   1.003120e+02
   1.686782e+00   2.236179e+02
  -7.963601e+01   1.620495e+02
   5.211267e+00   2.805035e+01
   1.121216e+02  -2.032317e+01
   1.028282e+02   4.796640e+01
  -1.104626e+01   1.206746e+02
  -1.064579e+02   7.598938e+01
  -8.509582e+01  -5.305868e+01
   3.669493e+01  -1.103333e+02
   1.457821e+02   5.676837e+00
   1.367012e+02   2.089638e+02
  -1.754415e+01   3.080351e+02
  -2.220992e+02   1.918453e+02
  -3.278640e+02  -5.556967e+01
  -2.450735e+02  -2.445743e+02
  -3.896482e+01  -2.492813e+02
   1.236216e+02  -1.146001e+02
   1.267236e+02   6.741035e+00
   2.009521e+01   1.158837e+01
  -4.415214e+01  -6.443333e+01
   1.465325e+01  -1.045257e+02
   1.179330e+02  -5.168802e+01
   1.281647e+02   3.319407e+01
   2.012646e+01   5.248328e+01
  -7.959235e+01  -1.522604e+01
  -3.380234e+01  -9.159692e+01
   1.426167e+02  -8.439243e+01
   2.835530e+02   2.489173e+01
   2.348846e+02   1.683779e+02
   1.361914e+01   2.479979e+02
  -2.018633e+02   2.063156e+02
  -2.439173e+02   7.422550e+01
  -1.133721e+02  -4.543123e+01
   3.533503e+01  -6.103445e+01
   5.423844e+01   1.459762e+01
  -5.767599e+01   7.163558e+01
  -1.720563e+02   2.136711e+01
  -1.678611e+02  -9.935776e+01
  -4.612803e+01  -1.679186e+02
   8.309389e+01  -1.165745e+02
   1.114474e+02  -9.740076e+00
   3.457561e+01   3.394435e+01
  -4.632899e+01  -2.570731e+01
  -2.505985e+01  -1.104010e+02
   9.722942e+01  -1.133456e+02
   2.007263e+02  -8.273925e+00
   1.657333e+02   1.289186e+02
   4.977588e+00   1.912066e+02
  -1.430130e+02   1.340939e+02
  -1.548060e+02   9.547653e+00
  -4.597729e+01  -8.279625e+01
   5.777515e+01  -8.244431e+01
   6.237924e+01  -1.995561e+01
  -3.935977e+00   2.396301e+01
  -4.071799e+01   7.405614e+00
   6.445824e+00  -2.782229e+01
   8.683671e+01  -4.547941e+00
   1.026003e+02   8.806691e+01
   8.154402e+00   1.691629e+02
  -1.394605e+02   1.421559e+02
  -2.239051e+02   2.373485e+00
  -1.746228e+02  -1.528479e+02
  -3.103565e+01  -2.096039e+02
   9.260110e+01  -1.427658e+02
   1.171466e+02  -2.772000e+01
   6.965855e+01   3.791309e+01
   3.104011e+01   2.349660e+01
   4.916353e+01  -1.520162e+01
   8.271314e+01  -9.100443e+00
   5.898568e+01   5.292814e+01
  -3.229115e+01   1.030804e+02
  -1.171109e+02   6.822670e+01
  -1.036765e+02  -4.146236e+01
   1.810696e+01  -1.243760e+02
   1.601263e+02  -8.271649e+01
   1.931348e+02   6.952016e+01
   7.125165e+01   2.043532e+02
  -1.257766e+02   2.035258e+02
  -2.494969e+02   6.816848e+01
  -2.208040e+02  -8.744391e+01
  -8.579627e+01  -1.539655e+02
   3.776424e+01  -1.236578e+02
   7.893682e+01  -7.201190e+01
   6.130900e+01  -6.459083e+01
   5.242857e+01  -8.841756e+01
   8.437534e+01  -7.498106e+01
   1.227659e+02   1.530583e+01
   1.092507e+02   1.417684e+02
   2.194286e+01   2.070934e+02
  -9.343037e+01   1.499878e+02
  -1.543869e+02   5.627543e+00
  -1.114046e+02  -1.200141e+02
  -2.968165e+00  -1.435950e+02
   7.442358e+01  -7.137992e+01
   6.048776e+01   1.788191e+01
  -5.380553e+00   5.467663e+01
  -3.000176e+01   3.587093e+01
   2.171064e+01   9.798459e+00
   7.927392e+01   1.379357e+01
   4.838594e+01   3.718873e+01
  -6.997172e+01   3.893731e+01
  -1.651930e+02  -2.183205e+00
  -1.339593e+02  -6.309734e+01
   4.871580e+00  -9.539068e+01
   1.281847e+02  -6.839862e+01
   1.346429e+02  -1.219253e+00
   4.028854e+01   5.085048e+01
  -5.434643e+01   4.252237e+01
  -7.269572e+01  -1.722794e+01
  -2.207701e+01  -7.007030e+01
   3.904180e+01  -6.302757e+01
   6.577521e+01  -3.817581e+00
   5.850764e+01   4.659948e+01
   4.565609e+01   4.042099e+01
   4.845744e+01   1.674366e+00
   5.977303e+01   1.138999e+00
   4.537668e+01   6.827576e+01
  -2.143421e+01   1.434394e+02
  -1.185278e+02   1.371503e+02
  -1.730104e+02   3.280415e+01
  -1.246279e+02  -8.793082e+01
  -1.956583e+00  -1.259035e+02
   8.695154e+01  -6.821639e+01
   5.864934e+01   7.422913e+00
  -5.216814e+01   1.940421e+01
  -1.212704e+02  -3.694095e+01
  -6.332606e+01  -9.779737e+01
   7.717340e+01  -1.000761e+02
   1.724741e+02  -3.815731e+01
   1.413639e+02   4.008241e+01
   2.619174e+01   7.773743e+01
  -5.901941e+01   5.208874e+01
  -4.338450e+01  -4.717745e+00
   3.749116e+01  -2.944681e+01
   8.538509e+01   1.811188e+01
   3.913023e+01   1.055468e+02
  -6.760522e+01   1.426291e+02
  -1.407406e+02   6.685226e+01
  -1.168742e+02  -8.008830e+01
  -1.831050e+01  -1.735195e+02
   7.455164e+01  -1.277510e+02
   9.692632e+01   1.100951e+01
   4.952500e+01   1.104986e+02
  -1.640661e+01   9.390990e+01
  -4.990897e+01   1.293004e+01
  -3.901963e+01  -2.978933e+01
  -1.170264e+01  -7.120519e+00
  -6.559248e+00   1.486713e+01
  -3.228443e+01  -2.076149e+01
  -5.405177e+01  -8.227431e+01
  -2.488739e+01  -9.518811e+01
   5.533942e+01  -3.926732e+01
   1.230631e+02   3.217190e+01
   1.092940e+02   6.285812e+01
   1.771524e+01   5.048941e+01
  -6.925803e+01   2.551313e+01
  -7.692529e+01   4.966842e+00
  -1.821278e+01  -1.131440e+01
   2.927460e+01  -1.855609e+01
   1.973246e+01  -9.388334e+00
  -1.019075e+01   4.786260e+00
   2.319148e+00   4.411441e+00
   5.755352e+01  -2.069586e+00
   8.471124e+01   1.927571e+01
   2.479465e+01   7.490688e+01
  -9.278494e+01   1.110211e+02
  -1.727231e+02   6.673494e+01
  -1.460888e+02  -4.763802e+01
  -3.571386e+01  -1.444722e+02
   7.132515e+01  -1.460780e+02
   1.070056e+02  -6.539550e+01
   7.410946e+01   1.538434e+01
   2.539099e+01   3.567035e+01
   4.685277e+00   1.351213e+01
   1.472889e+01   9.064778e+00
   2.738512e+01   4.634615e+01
   1.484294e+01   8.432004e+01
  -2.695325e+01   6.646262e+01
  -7.146601e+01  -1.185602e+01
  -7.568623e+01  -8.983518e+01
  -1.860471e+01  -1.000015e+02
   6.457380e+01  -3.342494e+01
   9.849817e+01   5.324973e+01
   4.214814e+01   9.278838e+01
  -5.554955e+01   6.333429e+01
  -9.775897e+01  -2.947960e+00
  -4.673151e+01  -5.457578e+01
   2.955994e+01  -6.086426e+01
   3.927385e+01  -2.848520e+01
  -2.035850e+01   7.057249e+00
  -6.160380e+01   9.300449e+00
  -1.872097e+01  -2.617970e+01
   7.037721e+01  -6.130262e+01
   1.122439e+02  -4.811463e+01
   6.835805e+01   1.656780e+01
  -1.060194e+01   7.837288e+01
  -5.383958e+01   7.712795e+01
  -4.315914e+01   1.414108e+01
  -8.058162e+00  -4.610845e+01
   2.099592e+01  -4.521844e+01
   3.379380e+01   6.703376e+00
   2.705890e+01   4.852280e+01
   8.362702e-01   3.843169e+01
  -3.000959e+01  -2.612213e+00
  -3.939595e+01  -2.335707e+01
  -1.980115e+01  -4.694311e+00
   4.176730e+00   2.033489e+01
   5.645937e+00   1.154668e+01
  -8.186409e+00  -2.768562e+01
  -5.777126e+00  -5.157812e+01
   2.227381e+01  -2.643123e+01
   4.241152e+01   2.671083e+01
   1.896114e+01   5.359879e+01
  -3.464249e+01   2.654660e+01
  -6.049092e+01  -2.640285e+01
  -2.082132e+01  -5.381101e+01
   5.291732e+01  -3.516775e+01
   8.745188e+01   7.112853e+00
   4.735132e+01   3.864670e+01
  -2.588923e+01   4.390771e+01
  -5.906800e+01   2.881978e+01
  -2.690823e+01   7.194560e+00
   2.330190e+01  -5.219623e+00
   2.864005e+01   2.988339e+00
  -1.865559e+01   2.213339e+01
  -6.680263e+01   2.084438e+01
