
 $NMID
 id='ANONYMOUS ', fmtdat='(2E16.6)'
 volume=1.0
 tramp=1.0
 $END
  -2.625400e+03   1.581502e+02
  -1.917869e+03  -1.217560e+03
  -1.104437e+02  -1.571205e+03
   8.505636e+02  -1.038619e+03
   8.090468e+02  -3.876298e+02
   1.260954e+02   1.024687e+02
  -2.120197e+02   1.255910e+01
  -1.537914e+02  -3.791236e+02
   3.111341e+02  -4.311452e+02
   4.590256e+02  -1.025428e+02
   4.143029e+02   3.482952e+02
   4.908931e+01   4.969538e+02
  -1.651727e+02   2.247471e+02
  -1.971507e+02  -2.437714e+02
   4.375365e+01  -4.439752e+02
   3.295331e+02  -1.119137e+02
   2.093996e+02   3.714028e+02
  -6.748277e+01   5.288642e+02
  -3.255533e+02   2.596429e+02
  -3.513522e+02  -9.785992e+01
  -1.302869e+02  -2.758002e+02
   5.706775e+01  -1.572097e+02
  -1.774030e+01  -7.810273e+01
  -1.651448e+02  -1.312421e+02
  -1.965112e+02  -2.662456e+02
   4.428027e+01  -2.723088e+02
   3.770457e+02  -8.001874e+01
   4.831578e+02   1.697816e+02
   1.795966e+02   2.488952e+02
  -2.215512e+02   9.915351e+01
  -3.860535e+02  -9.626764e+01
  -1.370799e+02  -2.552918e+02
   2.031956e+02  -2.439267e+02
   3.402711e+02  -1.069907e+02
   2.494704e+02   1.043933e+02
   6.930727e+01   2.102691e+02
   2.069798e+01   1.237279e+02
   7.824117e+01  -6.233041e+01
   1.504684e+02  -1.104836e+02
   1.444493e+02   1.236575e+02
  -1.500090e+00   3.758593e+02
  -1.756165e+02   3.326246e+02
  -2.148105e+02   9.907575e+00
  -9.335304e+01  -2.074981e+02
   9.714182e+01  -9.355050e+01
   1.209677e+02   2.118501e+02
  -8.536234e+01   3.009420e+02
  -3.522017e+02   5.286199e+01
  -3.983124e+02  -2.837207e+02
  -1.529051e+02  -3.830793e+02
   2.125574e+02  -2.150213e+02
   4.054099e+02   2.579854e+01
   2.879584e+02   1.608187e+02
  -3.590468e+00   1.591734e+02
  -2.043787e+02   9.012600e+01
  -1.777732e+02   2.204769e+01
  -3.573422e+01   2.676305e-02
   1.853145e+01   1.774706e+01
  -7.275807e+01   2.606698e+01
  -1.645777e+02  -2.984713e+01
  -9.751933e+01  -1.362767e+02
   1.106375e+02  -2.022422e+02
   2.711470e+02  -1.324141e+02
   2.206965e+02   7.021681e+01
  -1.219848e+01   2.750783e+02
  -2.389988e+02   3.127902e+02
  -2.951368e+02   1.324331e+02
  -1.845675e+02  -1.312581e+02
  -4.783842e+01  -2.808927e+02
   1.178610e+00  -2.512521e+02
  -9.796383e+00  -1.549572e+02
   2.443537e+01  -1.157038e+02
   1.329902e+02  -1.121087e+02
   2.237505e+02  -4.154547e+01
   2.006685e+02   1.083063e+02
   6.869018e+01   2.110343e+02
  -7.931541e+01   1.503315e+02
  -1.524771e+02  -4.000824e+01
  -1.059494e+02  -1.996904e+02
   4.145559e+01  -1.974332e+02
   1.956457e+02  -4.546136e+01
   2.471501e+02   1.335253e+02
   1.453929e+02   2.246902e+02
  -2.294771e+01   2.058575e+02
  -1.184788e+02   1.358047e+02
  -1.149234e+02   9.035373e+01
  -1.308225e+02   7.513242e+01
  -2.366017e+02   3.474843e+01
  -3.417541e+02  -7.587249e+01
  -2.693130e+02  -2.384406e+02
   7.507414e+00  -3.568052e+02
   2.998239e+02  -3.332628e+02
   3.812610e+02  -1.541635e+02
   2.262342e+02   6.857266e+01
   1.774413e+01   1.915007e+02
  -6.284479e+01   1.471641e+02
   8.009647e+00   2.967666e+01
   9.828216e+01  -2.107040e+01
   9.434548e+01   3.413363e+01
   3.904441e-01   1.019919e+02
  -8.374965e+01   6.849998e+01
  -7.322697e+01  -4.195742e+01
   2.545157e+01  -9.521383e+01
   1.285244e+02   2.055667e+00
   1.315755e+02   1.846981e+02
   1.090388e+00   2.800787e+02
  -1.899366e+02   1.861902e+02
  -3.012846e+02  -3.036085e+01
  -2.414954e+02  -2.060579e+02
  -5.465179e+01  -2.247835e+02
   1.022266e+02  -1.151568e+02
   1.150250e+02  -6.587005e+00
   2.152173e+01   4.373843e+00
  -3.936370e+01  -5.654973e+01
   9.489261e+00  -9.172743e+01
   1.020996e+02  -4.833176e+01
   1.144707e+02   2.457966e+01
   1.975158e+01   4.236434e+01
  -7.055543e+01  -1.508014e+01
  -3.363541e+01  -8.220240e+01
   1.226272e+02  -7.879274e+01
   2.526088e+02   1.260628e+01
   2.173793e+02   1.379281e+02
   2.560448e+01   2.153019e+02
  -1.675415e+02   1.907291e+02
  -2.125296e+02   8.041983e+01
  -1.054730e+02  -3.118498e+01
   2.324082e+01  -5.662951e+01
   4.464366e+01   5.767343e+00
  -4.751038e+01   6.177168e+01
  -1.469799e+02   2.519811e+01
  -1.488038e+02  -8.063765e+01
  -4.812250e+01  -1.476972e+02
   6.569017e+01  -1.088644e+02
   9.708654e+01  -1.456959e+01
   3.487449e+01   2.770910e+01
  -3.777546e+01  -2.193267e+01
  -2.342202e+01  -9.666184e+01
   8.215132e+01  -1.009892e+02
   1.757889e+02  -1.061817e+01
   1.500746e+02   1.100405e+02
   1.045763e+01   1.679969e+02
  -1.226198e+02   1.214734e+02
  -1.372989e+02   1.295659e+01
  -4.495842e+01  -7.052245e+01
   4.673159e+01  -7.402616e+01
   5.341091e+01  -2.027006e+01
  -2.868265e+00   2.002703e+01
  -3.550695e+01   6.084323e+00
   4.217772e+00  -2.546308e+01
   7.590439e+01  -7.566985e+00
   9.490231e+01   7.325805e+01
   1.499730e+01   1.479056e+02
  -1.170618e+02   1.302173e+02
  -1.983519e+02   1.041242e+01
  -1.594438e+02  -1.285868e+02
  -3.376692e+01  -1.845767e+02
   7.846752e+01  -1.306162e+02
   1.048749e+02  -2.846928e+01
   6.447999e+01   3.157958e+01
   3.189429e+01   2.209337e+01
   4.676153e+01  -1.254307e+01
   7.431754e+01  -6.901501e+00
   5.128069e+01   4.990619e+01
  -2.996637e+01   9.591981e+01
  -1.054783e+02   6.612309e+01
  -9.808441e+01  -3.326753e+01
   8.829785e+00  -1.128678e+02
   1.350911e+02  -8.272602e+01
   1.708030e+02   4.890226e+01
   6.902634e+01   1.726864e+02
  -1.011232e+02   1.819442e+02
  -2.149902e+02   6.899258e+01
  -1.955853e+02  -6.935531e+01
  -7.978673e+01  -1.336969e+02
   3.121654e+01  -1.108655e+02
   6.932919e+01  -6.619533e+01
   5.270839e+01  -5.786580e+01
   4.242922e+01  -7.775667e+01
   7.033481e+01  -6.738765e+01
   1.089232e+02   1.057568e+01
   1.027403e+02   1.220088e+02
   2.809781e+01   1.835088e+02
  -7.749860e+01   1.381495e+02
  -1.379072e+02   1.234382e+01
  -1.054740e+02  -1.016520e+02
  -1.024284e+01  -1.270290e+02
   6.152340e+01  -6.538150e+01
   5.311981e+01   1.387135e+01
  -3.595523e+00   4.706701e+01
  -2.574013e+01   3.081987e+01
   1.941567e+01   7.311715e+00
   7.073821e+01   1.042732e+01
   4.364314e+01   3.120467e+01
  -6.201394e+01   3.496536e+01
  -1.478302e+02   1.706560e+00
  -1.207821e+02  -5.167010e+01
   2.888623e+00  -8.385654e+01
   1.130333e+02  -6.525529e+01
   1.197236e+02  -7.170050e+00
   3.683947e+01   4.293985e+01
  -4.718727e+01   4.053504e+01
  -6.476756e+01  -1.215782e+01
  -2.141184e+01  -6.249359e+01
   3.262585e+01  -5.882767e+01
   5.866300e+01  -5.196640e+00
   5.497803e+01   4.154069e+01
   4.361095e+01   3.627163e+01
   4.307438e+01   1.003914e+00
   5.050989e+01  -3.412382e-01
   3.927150e+01   5.974587e+01
  -1.689319e+01   1.285964e+02
  -1.020557e+02   1.251999e+02
  -1.532050e+02   3.212290e+01
  -1.136299e+02  -7.642495e+01
  -5.307977e+00  -1.131062e+02
   7.653495e+01  -6.385207e+01
   5.362123e+01   3.976854e+00
  -4.527583e+01   1.787458e+01
  -1.089126e+02  -2.937502e+01
  -5.888708e+01  -8.353190e+01
   6.615932e+01  -8.937035e+01
   1.531117e+02  -3.889299e+01
   1.279870e+02   3.069043e+01
   2.617098e+01   6.830055e+01
  -5.206091e+01   5.008143e+01
  -4.054792e+01  -1.238970e+00
   3.182942e+01  -2.804043e+01
   7.752285e+01   1.141956e+01
   3.954603e+01   9.280201e+01
  -5.504431e+01   1.326441e+02
  -1.236613e+02   6.779167e+01
  -1.079237e+02  -6.678411e+01
  -2.392011e+01  -1.557214e+02
   5.959876e+01  -1.177590e+02
   8.485012e+01   6.370447e+00
   4.810982e+01   9.676070e+01
  -9.733750e+00   8.342648e+01
  -4.320398e+01   1.273983e+01
  -3.690006e+01  -2.451931e+01
  -1.244640e+01  -5.083309e+00
  -5.614181e+00   1.283270e+01
  -2.882682e+01  -1.959274e+01
  -5.078531e+01  -7.304693e+01
  -2.636322e+01  -8.330704e+01
   4.720106e+01  -3.521486e+01
   1.115461e+02   2.477327e+01
   1.009575e+02   5.119085e+01
   1.782691e+01   4.346114e+01
  -6.225356e+01   2.558322e+01
  -7.021201e+01   7.962929e+00
  -1.719001e+01  -9.765292e+00
   2.609220e+01  -1.920355e+01
   1.793748e+01  -1.041401e+01
  -9.179187e+00   4.465149e+00
   1.762165e+00   4.699053e+00
   5.152547e+01  -3.282200e+00
   7.674738e+01   1.392018e+01
   2.410641e+01   6.492167e+01
  -8.076336e+01   1.007710e+02
  -1.527859e+02   6.350616e+01
  -1.303723e+02  -3.892398e+01
  -3.408562e+01  -1.278497e+02
   6.023956e+01  -1.320764e+02
   9.314570e+01  -6.154826e+01
   6.667403e+01   1.070362e+01
   2.458301e+01   3.047053e+01
   5.494046e+00   1.257307e+01
   1.313558e+01   8.726560e+00
   2.480513e+01   4.091218e+01
   1.556533e+01   7.421952e+01
  -2.127309e+01   5.949852e+01
  -6.330994e+01  -8.236829e+00
  -7.011873e+01  -7.751303e+01
  -1.965451e+01  -8.873052e+01
   5.674595e+01  -3.192884e+01
   8.938380e+01   4.496305e+01
   3.957195e+01   8.222693e+01
  -4.888178e+01   5.798158e+01
  -8.763521e+01  -9.865730e-01
  -4.220679e+01  -4.866723e+01
   2.612796e+01  -5.574729e+01
   3.510091e+01  -2.660381e+01
  -1.791253e+01   7.108152e+00
  -5.488830e+01   1.086538e+01
  -1.690672e+01  -2.198253e+01
   6.165021e+01  -5.619084e+01
   9.888356e+01  -4.672969e+01
   6.166392e+01   1.205086e+01
  -6.555799e+00   7.064260e+01
  -4.498575e+01   7.227064e+01
  -3.832525e+01   1.597359e+01
  -1.006175e+01  -4.061051e+01
   1.603898e+01  -4.262670e+01
   3.048735e+01   3.770074e+00
   2.677869e+01   4.307796e+01
   2.070364e+00   3.639884e+01
  -2.845441e+01   1.499570e-01
  -3.812644e+01  -1.975536e+01
  -1.893531e+01  -5.175211e+00
   4.351233e+00   1.616325e+01
   5.945902e+00   8.700328e+00
  -7.323983e+00  -2.509458e+01
  -5.639769e+00  -4.547205e+01
   1.952742e+01  -2.290635e+01
   3.850277e+01   2.384614e+01
   1.776774e+01   4.763922e+01
  -3.053184e+01   2.386595e+01
  -5.475313e+01  -2.261261e+01
  -2.023429e+01  -4.751330e+01
   4.580193e+01  -3.266663e+01
   7.847354e+01   3.476400e+00
   4.457791e+01   3.215004e+01
  -2.053376e+01   4.002482e+01
  -5.133240e+01   2.929298e+01
  -2.437128e+01   9.343851e+00
   1.958898e+01  -4.651774e+00
   2.482269e+01   6.039099e-01
  -1.672053e+01   1.927010e+01
  -5.960375e+01   2.082853e+01
