
 $NMID
 id='ANONYMOUS ', fmtdat='(2E16.6)'
 volume=1.0
 tramp=1.0
 $END
  -1.144079e+03  -1.643364e+02
  -7.227059e+02  -4.984299e+02
  -1.015051e+02  -4.816550e+02
   3.652980e+02  -4.962403e+02
   1.567172e+02  -1.380762e+02
  -2.090061e+01  -3.524060e+01
  -4.521824e+01  -1.466320e+02
  -7.576424e+00  -2.553694e+02
   5.869715e+01  -1.516189e+02
   1.981769e+02  -7.224641e+01
   1.791343e+02   1.740471e+02
   4.783471e+01   1.103917e+02
  -5.368556e+01   6.870125e+01
  -1.251404e+02  -1.287162e+02
   4.579891e+01  -1.722227e+02
   8.887295e+01   5.517246e+01
   4.834188e+01   6.776279e+01
   2.709604e-01   1.560847e+02
  -1.070418e+02   9.852397e+01
  -1.021577e+02  -5.360245e+01
  -2.878754e+01  -1.213624e+02
   2.980355e+01  -8.680310e+01
   2.708335e+01   4.649137e+00
  -1.070663e+02  -2.980229e+01
  -1.564251e+02  -4.124456e+01
  -4.387936e+01  -1.029030e+02
   1.622715e+02  -8.371981e+01
   2.488755e+02   1.712529e+01
   9.217982e+01   9.320947e+01
  -1.386347e+02   7.043094e+01
  -2.034127e+02  -1.978974e+01
  -8.347731e+01  -1.260496e+02
   9.666671e+01  -1.338949e+02
   1.666871e+02  -6.829572e+01
   1.336172e+02   5.501924e+01
   4.080974e+01   1.438686e+02
  -7.167399e+00   9.191096e+01
  -1.622334e+01  -4.856678e+01
   4.125372e+01  -1.272712e+02
   8.880433e+01   2.873151e+00
   5.784560e+01   2.073017e+02
  -4.662228e+01   2.159393e+02
  -1.340570e+02   3.900876e+01
  -7.452077e+01  -1.119704e+02
   4.854854e+01  -6.967282e+01
   8.683275e+01   9.269112e+01
  -1.999271e+01   1.632314e+02
  -1.731404e+02   5.576266e+01
  -2.189119e+02  -1.255203e+02
  -9.374638e+01  -1.861337e+02
   9.180312e+01  -1.222716e+02
   2.043363e+02  -9.126688e+00
   1.542402e+02   8.157086e+01
  -3.376111e+00   9.358946e+01
  -1.124094e+02   4.332307e+01
  -9.204883e+01  -1.155974e+01
  -1.310266e+00  -1.545843e+01
   2.809347e+01   2.004190e+01
  -3.351746e+01   3.188318e+01
  -9.016758e+01  -1.203165e+01
  -5.081811e+01  -7.485041e+01
   5.800243e+01  -9.915099e+01
   1.330069e+02  -5.938210e+01
   1.078499e+02   3.259717e+01
   5.168263e+00   1.304390e+02
  -9.976399e+01   1.629650e+02
  -1.420504e+02   8.554756e+01
  -1.064196e+02  -5.477100e+01
  -3.492464e+01  -1.453205e+02
   9.445065e+00  -1.266900e+02
   8.053310e+00  -5.879071e+01
   2.141721e+00  -3.321915e+01
   3.384301e+01  -5.229451e+01
   8.692672e+01  -4.314008e+01
   1.038654e+02   2.627512e+01
   5.686719e+01   9.327643e+01
  -2.349731e+01   8.380341e+01
  -8.100305e+01  -3.907618e+00
  -7.069940e+01  -9.372095e+01
   3.652575e+00  -1.096337e+02
   9.626579e+01  -5.098170e+01
   1.391588e+02   4.732812e+01
   9.044637e+01   1.133770e+02
  -3.423958e+00   1.087099e+02
  -5.900543e+01   6.308613e+01
  -5.303870e+01   2.959192e+01
  -4.389441e+01   3.174479e+01
  -9.601152e+01   3.561196e+01
  -1.564861e+02  -2.301426e+00
  -1.432338e+02  -9.054918e+01
  -2.387907e+01  -1.727461e+02
   1.225850e+02  -1.817246e+02
   1.833440e+02  -9.715361e+01
   1.280987e+02   2.746254e+01
   2.533840e+01   1.035944e+02
  -3.339109e+01   8.633926e+01
  -1.012692e+01   1.349444e+01
   4.374402e+01  -2.618862e+01
   5.995133e+01   5.412269e+00
   1.798093e+01   5.827207e+01
  -3.916182e+01   5.101509e+01
  -5.037891e+01  -1.323512e+01
  -4.104220e+00  -5.648451e+01
   5.900597e+01  -1.548036e+01
   7.838750e+01   7.730650e+01
   2.356660e+01   1.329983e+02
  -7.144724e+01   1.000561e+02
  -1.402347e+02   3.357705e+00
  -1.285491e+02  -8.195467e+01
  -4.333588e+01  -1.037187e+02
   4.299642e+01  -6.295125e+01
   6.044759e+01  -8.816903e+00
   1.160524e+01   7.821129e+00
  -2.744873e+01  -1.977787e+01
  -5.774725e+00  -4.819123e+01
   4.833678e+01  -3.814992e+01
   6.454435e+01   1.776659e+00
   1.805519e+01   2.605457e+01
  -3.540258e+01   7.647533e+00
  -2.701592e+01  -3.132352e+01
   4.663880e+01  -4.685416e+01
   1.174928e+02  -1.473421e+01
   1.140146e+02   4.972858e+01
   3.080963e+01   1.037295e+02
  -6.701402e+01   1.063575e+02
  -1.036860e+02   5.258309e+01
  -6.094177e+01  -1.337615e+01
   7.110008e+00  -3.484805e+01
   2.967442e+01  -1.006761e+00
  -1.231075e+01   3.739261e+01
  -7.119371e+01   2.576508e+01
  -8.443370e+01  -2.974146e+01
  -3.718563e+01  -7.204080e+01
   2.679074e+01  -6.063257e+01
   5.147449e+01  -1.502639e+01
   2.282690e+01   1.232633e+01
  -1.960949e+01  -3.856715e+00
  -2.146540e+01  -4.145048e+01
   2.872019e+01  -5.506146e+01
   8.395639e+01  -2.165870e+01
   8.367830e+01   4.043774e+01
   1.931080e+01   8.371759e+01
  -5.298642e+01   7.270516e+01
  -7.109123e+01   1.692447e+01
  -3.039292e+01  -3.658024e+01
   1.813169e+01  -4.591738e+01
   2.843975e+01  -1.653059e+01
   4.840802e+00   1.136321e+01
  -1.387875e+01   9.708854e+00
  -1.109733e+00  -8.765638e+00
   3.199253e+01  -8.443064e+00
   4.705666e+01   2.509804e+01
   1.862417e+01   6.683774e+01
  -4.394207e+01   7.105828e+01
  -9.380803e+01   2.141912e+01
  -8.832799e+01  -4.961614e+01
  -3.101128e+01  -8.831534e+01
   2.980319e+01  -7.032516e+01
   5.120668e+01  -2.121059e+01
   3.380529e+01   1.289665e+01
   1.568539e+01   1.063329e+01
   1.899996e+01  -7.073325e+00
   3.129994e+01  -7.945932e+00
   2.471501e+01   1.756187e+01
  -7.792202e+00   4.200592e+01
  -4.213372e+01   3.474198e+01
  -4.544605e+01  -8.880340e+00
  -3.427174e+00  -5.132732e+01
   5.913996e+01  -4.777065e+01
   8.722079e+01   1.012957e+01
   4.930582e+01   7.972659e+01
  -3.404884e+01   9.915973e+01
  -1.022776e+02   5.288870e+01
  -1.053576e+02  -1.906862e+01
  -5.235915e+01  -6.139703e+01
   5.958117e+00  -5.841720e+01
   2.873626e+01  -3.846575e+01
   2.234410e+01  -3.349925e+01
   1.613412e+01  -4.248061e+01
   2.991514e+01  -3.879063e+01
   5.407512e+01  -2.832184e+00
   5.902157e+01   5.216567e+01
   2.732308e+01   8.730385e+01
  -2.740849e+01   7.338543e+01
  -6.638342e+01   1.649318e+01
  -5.915093e+01  -4.214739e+01
  -1.445125e+01  -6.221634e+01
   2.493642e+01  -3.794649e+01
   2.754322e+01   1.773190e+00
   4.397714e+00   2.299900e+01
  -7.192427e+00   1.797484e+01
   1.054053e+01   4.205290e+00
   3.260773e+01   1.335554e+00
   2.141083e+01   1.183178e+01
  -2.604796e+01   2.059741e+01
  -6.836080e+01   1.173127e+01
  -6.169752e+01  -1.440740e+01
  -7.658587e+00  -3.883320e+01
   4.696227e+01  -3.893056e+01
   5.707750e+01  -1.297116e+01
   2.178310e+01   1.623304e+01
  -2.023117e+01   2.082350e+01
  -3.224531e+01  -1.767424e+00
  -1.282206e+01  -2.702039e+01
   1.438117e+01  -2.809961e+01
   2.805213e+01  -4.525076e+00
   2.646512e+01   1.683457e+01
   2.045651e+01   1.424838e+01
   1.954233e+01  -2.796963e+00
   2.394996e+01  -4.354846e+00
   2.241031e+01   2.475224e+01
   8.871480e-01   6.164201e+01
  -3.866388e+01   6.639547e+01
  -6.919244e+01   2.612377e+01
  -5.952090e+01  -2.817637e+01
  -1.133641e+01  -5.243439e+01
   3.151830e+01  -3.426811e+01
   2.606687e+01  -3.801597e-01
  -2.130127e+01   1.228174e+01
  -5.691069e+01  -6.823620e+00
  -3.665625e+01  -3.710592e+01
   2.484755e+01  -4.984038e+01
   7.147849e+01  -3.205266e+01
   6.463835e+01   4.077339e+00
   1.821820e+01   3.053260e+01
  -2.013325e+01   2.795228e+01
  -1.769984e+01   2.735031e+00
   1.429360e+01  -1.461974e+01
   3.735350e+01   2.253630e+00
   2.306110e+01   4.332135e+01
  -2.026415e+01   6.662034e+01
  -5.684937e+01   3.772757e+01
  -5.620763e+01  -2.779302e+01
  -2.016706e+01  -7.426375e+01
   2.282379e+01  -6.075714e+01
   4.271530e+01  -2.880881e+00
   3.049807e+01   4.360314e+01
   1.638448e+00   4.202721e+01
  -1.948832e+01   1.034914e+01
  -1.981540e+01  -9.304272e+00
  -7.015308e+00  -1.887667e+00
  -2.124119e+00   7.715715e+00
  -1.523098e+01  -5.320197e+00
  -3.025510e+01  -3.138590e+01
  -2.040688e+01  -4.070086e+01
   1.927084e+01  -2.284597e+01
   5.664194e+01   3.571452e+00
   5.432564e+01   1.843164e+01
   1.220694e+01   1.971653e+01
  -2.913991e+01   1.586029e+01
  -3.353770e+01   8.521838e+00
  -7.770817e+00  -2.599825e+00
   1.222795e+01  -1.035708e+01
   7.088401e+00  -6.584894e+00
  -5.468493e+00   1.880221e+00
   1.385138e+00   1.717391e+00
   2.615799e+01  -5.150760e+00
   3.856958e+01   1.723370e+00
   1.520202e+01   2.999372e+01
  -3.285405e+01   5.443474e+01
  -6.863855e+01   4.088550e+01
  -6.453030e+01  -1.082807e+01
  -2.513437e+01  -6.006576e+01
   1.935600e+01  -6.747127e+01
   4.033399e+01  -3.524353e+01
   3.311532e+01   1.169153e+00
   1.379864e+01   1.254071e+01
   3.124439e+00   4.054283e+00
   7.655118e+00   1.962174e+00
   1.643798e+01   1.766041e+01
   1.376669e+01   3.560929e+01
  -6.511554e+00   3.106731e+01
  -3.164783e+01  -5.991352e-02
  -3.782612e+01  -3.381230e+01
  -1.303089e+01  -4.137087e+01
   2.643530e+01  -1.683831e+01
   4.511461e+01   1.830956e+01
   2.283138e+01   3.723379e+01
  -2.017634e+01   2.947019e+01
  -4.143301e+01   4.444357e+00
  -2.256273e+01  -1.912783e+01
   8.856664e+00  -2.644670e+01
   1.429045e+01  -1.432625e+01
  -9.117146e+00   3.964755e+00
  -2.624674e+01   8.315981e+00
  -9.867438e+00  -9.242792e+00
   2.573879e+01  -3.089599e+01
   4.383906e+01  -2.888284e+01
   2.916038e+01   1.414272e+00
   1.229596e-01   3.356845e+01
  -1.709414e+01   3.555896e+01
  -1.584403e+01   7.416778e+00
  -4.939335e+00  -2.017730e+01
   7.046262e+00  -2.022150e+01
   1.533573e+01   2.148581e+00
   1.499801e+01   1.998945e+01
   2.942871e+00   1.653225e+01
  -1.288429e+01   1.184398e+00
  -1.832148e+01  -6.096983e+00
  -9.183694e+00   1.734986e-01
   2.099659e+00   7.817987e+00
   2.509063e+00   2.470530e+00
  -4.418044e+00  -1.254052e+01
  -3.777703e+00  -2.123810e+01
   8.918033e+00  -1.078462e+01
   1.928980e+01   1.019590e+01
   1.014164e+01   2.205194e+01
  -1.376361e+01   1.304230e+01
  -2.707703e+01  -8.108843e+00
  -1.207729e+01  -2.199176e+01
   1.997537e+01  -1.840814e+01
   3.744230e+01  -2.164580e+00
   2.296937e+01   1.367381e+01
  -7.868368e+00   2.008157e+01
  -2.318052e+01   1.548823e+01
  -1.047728e+01   4.567440e+00
   1.098442e+01  -3.062626e+00
   1.339712e+01   8.541442e-01
  -7.755802e+00   1.207594e+01
  -2.980169e+01   1.355884e+01
