
 $NMID
 id='ANONYMOUS ', fmtdat='(2E16.6)'
 volume=1.0
 tramp=1.0
 $END
  -3.579831e+03   1.609066e+02
  -2.173786e+03  -1.874555e+03
   2.430042e+02  -2.259598e+03
   1.519085e+03  -1.062451e+03
   1.074918e+03   1.172188e+02
  -2.945761e+02   3.790812e+02
  -5.490164e+02  -2.157572e+02
  -4.339514e+01  -7.799876e+02
   6.798822e+02  -6.197190e+02
   7.104735e+02  -5.148959e+00
   3.598602e+02   6.510350e+02
  -4.165690e+01   7.545799e+02
  -4.011288e+02   1.556042e+02
  -2.540769e+02  -5.168010e+02
   1.466239e+02  -6.366350e+02
   4.822889e+02  -1.818472e+01
   2.985716e+02   5.732626e+02
  -2.358527e+02   6.223511e+02
  -4.930077e+02   1.978035e+02
  -3.920022e+02  -2.619927e+02
  -6.775756e+01  -4.214953e+02
   1.612099e+02  -2.659621e+02
   1.711890e+02  -4.825244e+01
  -1.525061e+02  -4.543788e+00
  -3.204976e+02  -1.771158e+02
  -1.030166e+02  -3.932877e+02
   4.366125e+02  -2.760588e+02
   6.878721e+02   1.123322e+02
   3.320635e+02   4.109920e+02
  -3.305705e+02   3.076743e+02
  -6.110059e+02  -7.269821e+01
  -2.712472e+02  -3.893445e+02
   2.665614e+02  -4.114709e+02
   5.041642e+02  -1.709177e+02
   3.815972e+02   1.719948e+02
   1.006338e+02   3.907897e+02
  -1.065857e+02   2.430109e+02
  -7.610762e+01  -1.463490e+02
   1.501488e+02  -2.985653e+02
   3.105678e+02   6.073740e+01
   1.386900e+02   5.529341e+02
  -2.329021e+02   5.645305e+02
  -4.316904e+02   2.354819e+01
  -1.796382e+02  -3.960620e+02
   2.116000e+02  -2.194795e+02
   2.766504e+02   2.806993e+02
  -8.092532e+01   4.627473e+02
  -4.837749e+02   1.143629e+02
  -5.449534e+02  -3.602790e+02
  -1.806946e+02  -5.215732e+02
   3.301579e+02  -3.197742e+02
   5.699283e+02   3.721181e+01
   3.575417e+02   2.874645e+02
  -9.171190e+01   2.895615e+02
  -3.451236e+02   8.395281e+01
  -2.151075e+02  -9.504522e+01
   4.809097e+01  -5.988869e+01
   8.234393e+01   9.045787e+01
  -1.284934e+02   1.151965e+02
  -2.671754e+02  -5.116598e+01
  -1.240158e+02  -2.247971e+02
   1.597010e+02  -2.416563e+02
   3.066111e+02  -1.127192e+02
   2.181654e+02   7.738360e+01
  -9.134009e+00   2.683069e+02
  -2.329753e+02   3.545843e+02
  -3.415556e+02   2.040807e+02
  -2.738599e+02  -1.340894e+02
  -8.629640e+01  -3.873810e+02
   5.603450e+01  -3.484375e+02
   6.114847e+01  -1.451964e+02
   2.363250e+01  -5.042894e+01
   8.421952e+01  -1.027583e+02
   2.164610e+02  -9.763363e+01
   2.587205e+02   7.543591e+01
   1.310718e+02   2.531135e+02
  -7.786346e+01   2.223392e+02
  -2.103219e+02  -6.763007e+00
  -1.762988e+02  -2.327308e+02
   1.742274e+01  -2.700797e+02
   2.475044e+02  -1.002955e+02
   3.301530e+02   1.517487e+02
   1.847505e+02   3.071063e+02
  -6.194593e+01   2.748872e+02
  -1.849764e+02   1.319742e+02
  -1.415371e+02   4.234733e+01
  -1.129896e+02   5.297475e+01
  -2.442817e+02   6.224786e+01
  -3.941699e+02  -5.749037e+01
  -3.293633e+02  -2.724931e+02
  -3.055744e+00  -4.303843e+02
   3.487520e+02  -4.064934e+02
   4.689374e+02  -1.963796e+02
   3.079041e+02   8.887716e+01
   4.094717e+01   2.675495e+02
  -1.066623e+02   2.214743e+02
  -4.545649e+01   3.176547e+01
   1.086429e+02  -7.321371e+01
   1.569955e+02   1.921224e+01
   3.060677e+01   1.605492e+02
  -1.311411e+02   1.313496e+02
  -1.393385e+02  -5.627534e+01
   1.840966e+01  -1.584013e+02
   1.706278e+02  -2.086284e+01
   1.589308e+02   2.268881e+02
  -1.026963e+01   3.324163e+02
  -2.180106e+02   2.030172e+02
  -3.314772e+02  -4.843855e+01
  -2.775210e+02  -2.387204e+02
  -8.051915e+01  -2.667424e+02
   1.198776e+02  -1.522339e+02
   1.651799e+02  -1.309363e+01
   4.896631e+01   2.845311e+01
  -5.924442e+01  -4.327350e+01
  -1.587990e+01  -1.160909e+02
   1.179329e+02  -8.356203e+01
   1.586529e+02   1.807333e+01
   4.597809e+01   6.474735e+01
  -8.007493e+01   6.508330e+00
  -5.368591e+01  -8.009818e+01
   1.217072e+02  -9.247991e+01
   2.801900e+02  -3.682268e+00
   2.616413e+02   1.378316e+02
   5.878284e+01   2.490289e+02
  -1.780513e+02   2.482137e+02
  -2.658878e+02   1.190947e+02
  -1.544369e+02  -4.218633e+01
   2.125764e+01  -9.338499e+01
   7.532704e+01  -5.729670e+00
  -3.749786e+01   8.869549e+01
  -1.810215e+02   5.128256e+01
  -1.958399e+02  -9.314638e+01
  -6.644593e+01  -1.900281e+02
   8.425711e+01  -1.460104e+02
   1.306341e+02  -2.625331e+01
   5.882009e+01   3.918089e+01
  -3.548980e+01  -2.357278e+00
  -3.831235e+01  -8.899738e+01
   7.376303e+01  -1.157098e+02
   1.948555e+02  -3.143773e+01
   1.849506e+02   1.147797e+02
   2.389655e+01   2.054175e+02
  -1.489900e+02   1.594007e+02
  -1.783763e+02   1.607152e+01
  -6.374416e+01  -1.002343e+02
   5.676640e+01  -1.042578e+02
   7.421611e+01  -3.071198e+01
   1.231463e+01   2.487684e+01
  -2.781253e+01   1.493127e+01
   6.049391e+00  -1.782525e+01
   7.637133e+01  -2.404728e+00
   9.883838e+01   7.890600e+01
   2.221409e+01   1.617726e+02
  -1.233309e+02   1.545224e+02
  -2.283258e+02   2.690981e+01
  -1.966457e+02  -1.417277e+02
  -4.565983e+01  -2.235275e+02
   9.664767e+01  -1.620684e+02
   1.277789e+02  -3.093469e+01
   7.127104e+01   4.751493e+01
   3.003948e+01   3.186977e+01
   5.027834e+01  -1.388903e+01
   7.921166e+01  -1.100803e+01
   5.006985e+01   4.781408e+01
  -3.587396e+01   9.570843e+01
  -1.082586e+02   6.692628e+01
  -9.779713e+01  -3.273185e+01
   7.738378e+00  -1.193988e+02
   1.430766e+02  -9.772754e+01
   1.984076e+02   4.148332e+01
   9.985152e+01   1.946742e+02
  -9.894777e+01   2.230235e+02
  -2.505178e+02   9.751657e+01
  -2.423659e+02  -7.477422e+01
  -1.047155e+02  -1.622278e+02
   3.314936e+01  -1.380093e+02
   8.459954e+01  -8.002608e+01
   6.789454e+01  -6.657124e+01
   5.433039e+01  -8.893841e+01
   8.253022e+01  -7.699899e+01
   1.241141e+02   1.288445e+01
   1.198247e+02   1.418060e+02
   3.624859e+01   2.160399e+02
  -8.920164e+01   1.679101e+02
  -1.668273e+02   2.266244e+01
  -1.330519e+02  -1.161344e+02
  -2.072810e+01  -1.533946e+02
   6.648786e+01  -8.644088e+01
   6.189937e+01   5.709209e+00
   3.849284e+00   4.786729e+01
  -1.729897e+01   3.490011e+01
   2.977593e+01   1.247818e+01
   7.919656e+01   1.587543e+01
   4.786112e+01   3.640341e+01
  -6.400550e+01   4.087116e+01
  -1.598109e+02   7.920204e+00
  -1.408837e+02  -4.941935e+01
  -1.058731e+01  -9.013851e+01
   1.201182e+02  -7.695077e+01
   1.395797e+02  -1.522841e+01
   4.689189e+01   4.298813e+01
  -5.588756e+01   4.360290e+01
  -7.560655e+01  -1.345622e+01
  -1.756388e+01  -6.829099e+01
   4.555003e+01  -6.316201e+01
   6.477202e+01  -3.756503e+00
   5.312111e+01   4.713235e+01
   4.540456e+01   4.095697e+01
   5.293476e+01   9.436111e-01
   5.976071e+01  -2.133457e+00
   4.005397e+01   6.366910e+01
  -2.164082e+01   1.423381e+02
  -1.090672e+02   1.414795e+02
  -1.637477e+02   3.848051e+01
  -1.257905e+02  -8.447656e+01
  -8.649186e+00  -1.249859e+02
   8.438792e+01  -6.727322e+01
   6.060741e+01   1.006963e+01
  -5.400787e+01   2.311713e+01
  -1.307615e+02  -3.375396e+01
  -7.420261e+01  -9.853501e+01
   7.393201e+01  -1.089486e+02
   1.800694e+02  -5.301920e+01
   1.545105e+02   3.052412e+01
   3.563618e+01   8.230604e+01
  -5.858660e+01   6.633492e+01
  -4.831424e+01   4.954018e+00
   3.554502e+01  -3.021789e+01
   8.893111e+01   1.550640e+01
   4.068760e+01   1.105578e+02
  -7.503062e+01   1.524493e+02
  -1.537791e+02   7.071740e+01
  -1.261565e+02  -8.674046e+01
  -2.083002e+01  -1.866628e+02
   7.557968e+01  -1.403298e+02
   1.010724e+02   4.666472e+00
   5.988800e+01   1.129567e+02
  -3.856180e+00   1.017215e+02
  -4.620202e+01   1.874292e+01
  -4.723893e+01  -2.970918e+01
  -2.037093e+01  -7.926431e+00
  -4.124619e+00   1.923214e+01
  -2.554561e+01  -1.381769e+01
  -5.792003e+01  -8.128420e+01
  -4.025002e+01  -1.017334e+02
   4.626810e+01  -4.571758e+01
   1.313470e+02   3.031492e+01
   1.238723e+02   6.324298e+01
   2.023310e+01   4.991520e+01
  -7.972692e+01   2.631876e+01
  -8.493515e+01   8.583578e+00
  -1.550070e+01  -9.537617e+00
   3.424446e+01  -2.238454e+01
   1.704072e+01  -1.527636e+01
  -1.634714e+01   3.088206e+00
   3.656320e+00   6.623840e+00
   6.594488e+01  -1.555629e+00
   8.841647e+01   1.774154e+01
   1.793239e+01   7.531069e+01
  -1.021699e+02   1.142621e+02
  -1.748745e+02   6.722505e+01
  -1.426837e+02  -5.333675e+01
  -3.421141e+01  -1.521537e+02
   6.979087e+01  -1.498676e+02
   1.081791e+02  -6.509168e+01
   7.888102e+01   1.633813e+01
   2.693882e+01   3.526142e+01
   5.894352e-01   1.126201e+01
   1.169786e+01   5.479778e+00
   3.196142e+01   4.371253e+01
   2.296187e+01   8.576679e+01
  -2.476087e+01   6.991418e+01
  -7.634281e+01  -1.230014e+01
  -7.882096e+01  -9.696668e+01
  -1.355004e+01  -1.059449e+02
   7.355281e+01  -3.002661e+01
   1.026195e+02   6.280500e+01
   3.949557e+01   9.770697e+01
  -5.916450e+01   6.035421e+01
  -9.723222e+01  -5.289674e+00
  -4.362247e+01  -5.089138e+01
   2.984865e+01  -5.596479e+01
   3.451892e+01  -2.865278e+01
  -2.690752e+01   5.064561e+00
  -6.506872e+01   1.122877e+01
  -1.812352e+01  -2.349152e+01
   7.183652e+01  -6.559584e+01
   1.112894e+02  -5.825343e+01
   6.629316e+01   1.097301e+01
  -1.043499e+01   8.170319e+01
  -5.090069e+01   8.131056e+01
  -4.027260e+01   1.091082e+01
  -6.649021e+00  -5.247840e+01
   2.257117e+01  -4.572171e+01
   3.648389e+01   1.225800e+01
   2.855326e+01   5.211915e+01
  -1.331816e+00   3.634812e+01
  -3.349033e+01  -5.445218e+00
  -4.088359e+01  -2.236619e+01
  -1.918775e+01  -3.780033e+00
   4.805229e+00   1.596624e+01
   8.010109e+00   4.099614e+00
  -8.176093e-01  -3.046345e+01
   3.862258e+00  -4.604183e+01
   2.533133e+01  -1.642778e+01
   3.532119e+01   3.436203e+01
   8.778098e+00   5.578759e+01
  -3.879539e+01   2.401376e+01
  -5.875010e+01  -3.120789e+01
  -1.955991e+01  -5.823665e+01
   5.171614e+01  -3.716780e+01
   8.840635e+01   7.646824e+00
   5.119430e+01   3.958891e+01
  -2.417514e+01   4.382675e+01
  -6.100660e+01   2.814296e+01
  -2.663484e+01   7.560053e+00
   2.971144e+01  -2.204368e+00
   3.390756e+01   8.237626e+00
  -2.357171e+01   2.761347e+01
  -7.924890e+01   2.314350e+01
