
 $NMID
 id='ANONYMOUS ', fmtdat='(2E16.6)'
 volume=1.0
 tramp=1.0
 $END
   1.532820e+02  -2.226671e+01
  -1.317501e+01   4.249690e+01
   3.794542e+01   7.497344e+01
  -3.288796e+01  -1.860010e+01
  -1.153233e+01   8.037336e+01
   1.899556e+01  -2.398027e+01
  -2.244738e+01   4.315694e+01
   5.211144e+01  -6.872335e+00
  -4.376043e+01   3.373017e+01
   2.019897e+01   6.590917e+00
  -4.683277e+00   1.786737e+01
  -2.110978e+01   2.314036e+01
   2.088100e+01   9.521997e+00
  -2.274779e+00   4.252439e+01
  -4.315350e+01   2.995713e+01
  -4.513244e+01  -4.105619e+00
  -8.594463e-01  -1.871506e+01
   3.034266e+01   2.852664e+01
  -6.066858e+00   8.704125e+00
   1.547352e+01   1.069456e+01
  -2.311269e+01   1.234718e+01
   2.098491e+00   2.395268e+00
   1.819235e+01   1.704164e+01
   8.972322e+00   9.055753e+00
   8.168964e+00   5.973476e+00
  -1.017951e+01   1.164280e+00
  -9.070909e+00  -8.862785e+00
   5.801337e+00  -1.218523e+01
   2.303391e+01  -1.925556e+01
   3.987996e+01   4.451810e+00
   1.142611e+00   1.765217e+01
  -7.845819e+00   9.927579e+00
  -1.292272e+01   4.965177e+00
  -1.543975e+00   4.906086e+00
   1.132268e+01   4.013720e+00
  -6.127742e+00   6.346543e+00
  -8.384507e+00  -2.112345e+01
  -1.854078e+00  -1.702632e+01
   1.430859e+01  -1.399854e+01
   2.166668e+01  -5.060528e+00
   1.687604e+01  -1.027144e+00
   1.230724e+01  -8.372977e-01
   5.321369e+00   5.816393e+00
  -7.007276e-01   5.769595e-01
   6.938755e+00  -3.496251e+00
   3.558957e+00  -2.964054e+00
   1.124341e+01  -3.669507e+00
   9.668736e+00   1.133665e+01
   4.593385e-01   1.393185e+01
  -7.416269e+00   9.821715e+00
  -9.895910e+00   3.623454e+00
  -7.521728e+00   6.739339e-01
  -5.161972e+00  -8.450716e-01
  -1.805520e+00  -2.697808e+00
   4.908046e-01  -3.544409e+00
   6.718962e-01  -2.537049e+00
   3.251926e+00  -1.108254e+00
   3.242495e+00   3.306967e+00
  -5.239592e-01   6.093395e+00
  -6.582444e+00   4.191065e+00
  -6.818514e+00  -2.645741e+00
  -1.684085e+00  -6.415971e+00
   3.249250e+00  -4.318807e+00
   4.961268e+00  -8.027364e-01
   4.691814e+00  -3.412841e-02
   5.523588e+00  -8.051814e-01
   6.287809e+00   3.316946e+00
   1.799819e+00   9.011673e+00
  -4.503372e+00   9.455354e+00
  -7.019834e+00   4.726704e+00
  -6.184806e+00   9.301093e-01
  -4.096908e+00  -1.148915e+00
  -4.199464e+00  -2.399955e+00
  -2.906510e+00  -4.749181e+00
  -6.003960e-01  -6.017762e+00
   2.338297e+00  -4.566420e+00
   4.646483e+00  -6.696876e-02
   2.201055e+00   4.230152e+00
  -3.669341e+00   4.752196e+00
  -8.692723e+00  -8.126582e-01
  -4.739680e+00  -8.162419e+00
   5.193932e+00  -8.778877e+00
   9.783329e+00  -4.329093e+00
   1.008009e+01   1.288794e+00
   3.975367e+00   5.024908e+00
   2.816993e+00   3.833956e+00
   4.791792e+00   6.702684e+00
   1.726974e+00   1.168735e+01
  -4.529588e+00   1.077015e+01
  -1.102638e+01   5.312246e+00
  -1.324828e+01  -3.530526e+00
  -1.020969e+01  -8.815767e+00
  -5.796951e+00  -1.047460e+01
   1.822884e+00  -9.528980e+00
   4.984330e+00  -3.583392e+00
   2.556976e+00  -1.801587e+00
  -1.287001e+00  -2.851980e+00
  -1.009825e+00  -6.202677e+00
   4.041747e+00  -7.547888e+00
   8.584722e+00  -1.964812e+00
   5.035433e+00   1.611112e+00
   9.693089e-01   2.180936e-01
  -5.685478e-01  -3.499182e+00
   4.170015e+00  -3.937263e+00
   8.741838e+00   9.816760e-01
   7.937240e+00   5.182830e+00
   3.300646e+00   7.390478e+00
  -2.350352e+00   7.478866e+00
  -4.815554e+00   6.590389e+00
  -5.674160e+00   5.508775e+00
  -6.346885e+00   1.334425e+00
  -5.043664e+00  -2.714824e+00
  -3.207764e+00  -3.496409e+00
  -1.940772e+00  -2.724955e+00
  -1.122235e+00  -1.730323e+00
  -9.494223e-01  -2.305386e+00
  -1.988992e-01  -2.768656e+00
  -4.752052e-01  -2.466170e+00
  -5.407733e-01  -1.724502e+00
  -5.634745e-01  -2.210154e+00
   5.851909e-01  -4.844345e+00
   3.013714e+00  -7.054544e+00
   7.114819e+00  -5.876354e+00
   1.007375e+01   3.574573e-01
   8.449571e+00   7.966010e+00
   2.411914e+00   1.079096e+01
  -3.658091e+00   6.972344e+00
  -5.337292e+00   7.914957e-01
  -2.277470e+00  -1.560570e+00
   7.027637e-01   1.097460e+00
  -6.166140e-01   4.394014e+00
  -4.081304e+00   4.073461e+00
  -6.104205e+00   7.129414e-01
  -4.419596e+00  -3.077582e+00
  -1.384587e+00  -3.570990e+00
  -3.267613e-02  -1.845349e+00
  -1.542266e+00   1.287970e-01
  -4.211630e+00  -1.454690e+00
  -4.091156e+00  -5.512552e+00
   1.647714e-01  -8.097622e+00
   5.710285e+00  -5.771397e+00
   7.606973e+00  -3.366154e-01
   4.539471e+00   3.440625e+00
   7.784527e-01   2.985512e+00
  -1.057920e-01   1.378310e+00
   1.967496e-01   9.636039e-01
  -5.096426e-01   1.238675e+00
  -2.074962e+00   1.249979e+00
  -2.579377e+00   1.856933e-02
  -9.839302e-01  -1.807321e+00
   1.519123e+00  -3.214878e+00
   3.694583e+00  -2.678759e+00
   4.886290e+00   2.391422e-01
   3.349930e+00   4.965407e+00
  -1.194561e+00   7.514893e+00
  -5.828172e+00   5.052099e+00
  -6.844934e+00  -1.141655e+00
  -3.566740e+00  -5.095793e+00
  -3.308951e-01  -4.244870e+00
   1.373479e+00  -2.227106e+00
   1.065996e+00  -1.450321e+00
   9.914646e-01  -2.542334e+00
   1.942671e+00  -3.290572e+00
   3.188571e+00  -6.204863e-01
   2.342828e+00   2.804134e+00
   6.726750e-01   4.130090e+00
  -2.023866e+00   1.720286e+00
  -3.779047e+00  -3.126446e+00
  -1.158663e+00  -6.399401e+00
   4.094515e+00  -4.989548e+00
   7.848308e+00   3.607180e-01
   6.308610e+00   5.749620e+00
   1.442711e+00   7.305197e+00
  -3.237268e+00   6.009736e+00
  -5.614398e+00   2.881999e+00
  -4.109211e+00   5.428507e-01
  -2.885854e+00  -8.693561e-01
  -2.406712e+00  -1.465479e+00
  -3.042065e+00  -2.486700e+00
  -2.308954e+00  -3.788964e+00
   1.225486e+00  -4.123069e+00
   5.395313e+00  -3.131210e+00
   7.137899e+00   4.423068e-01
   4.117716e+00   4.403811e+00
  -1.575071e+00   5.897526e+00
  -5.266080e+00   3.432757e+00
  -4.115015e+00  -1.079943e+00
  -7.528052e-01  -3.669916e+00
   1.540609e+00  -2.265624e+00
   1.573631e+00   3.865764e-01
   7.886053e-01   1.339921e+00
   4.935109e-01  -2.530960e-01
   9.545343e-01  -1.704602e+00
   1.403668e+00  -4.775035e-01
   6.761755e-01   2.919390e+00
  -1.010798e+00   4.811638e+00
  -2.693445e+00   3.138128e+00
  -3.251589e+00  -1.518654e+00
  -1.944936e+00  -4.660225e+00
   6.718633e-01  -3.619209e+00
   2.350132e+00  -1.151214e-01
   1.568762e+00   2.077408e+00
  -9.464584e-01   1.641847e+00
  -2.676212e+00  -1.669769e-01
  -1.481678e+00  -1.236581e+00
   5.487588e-01  -1.018484e+00
   1.495679e+00  -4.195237e-01
  -1.171161e-02  -8.917897e-01
  -1.791832e+00  -2.509393e+00
  -7.817325e-01  -3.482345e+00
   3.137081e+00  -2.281221e+00
   6.005737e+00   8.241410e-01
   4.712127e+00   4.604878e+00
  -6.941464e-01   5.777726e+00
  -4.731127e+00   3.020827e+00
  -4.527472e+00  -1.337896e+00
  -9.766622e-01  -3.698598e+00
   1.540357e+00  -1.868424e+00
   6.501920e-01   1.896422e+00
  -2.064533e+00   3.999564e+00
  -3.727912e+00   1.835635e+00
  -3.007145e+00  -3.114235e+00
  -6.532883e-01  -6.560563e+00
   1.833224e+00  -4.902202e+00
   3.113723e+00  -3.052532e-01
   1.898475e+00   2.873526e+00
  -2.858094e-01   1.535872e+00
  -1.133568e+00  -1.937573e+00
   8.571673e-01  -3.011899e+00
   3.810605e+00  -1.555348e-01
   4.725325e+00   3.613663e+00
   1.498903e+00   4.592451e+00
  -3.257354e+00   2.401474e+00
  -5.449496e+00  -4.707043e-01
  -3.137190e+00  -1.706263e+00
   1.292347e+00  -1.308717e+00
   3.622191e+00  -2.896423e-01
   2.320318e+00   6.672917e-01
  -7.316781e-01   1.470260e+00
  -1.988827e+00   1.446961e+00
  -7.358008e-01   5.525810e-01
   2.217933e-01   5.158166e-02
  -8.571965e-01   6.231721e-01
  -3.071638e+00   1.470864e+00
  -3.416837e+00   2.880367e-01
  -6.765537e-01  -2.685711e+00
   2.468882e+00  -4.693666e+00
   3.397410e+00  -3.183793e+00
   1.637619e+00   9.041177e-01
  -1.732859e-01   3.699019e+00
  -4.602506e-01   2.904301e+00
  -7.945058e-02  -4.564926e-02
   2.253073e-01  -1.487780e+00
   1.683885e-01  -2.904415e-01
   7.747464e-02   1.304165e+00
  -7.869634e-02   6.141393e-01
  -7.666745e-02  -1.742444e+00
   8.804307e-01  -2.370544e+00
   2.337175e+00   3.759830e-01
   2.987994e+00   4.464403e+00
   1.055842e+00   6.216390e+00
  -2.826132e+00   3.961392e+00
  -5.827823e+00  -2.594494e-01
  -5.318170e+00  -3.376669e+00
  -1.798178e+00  -3.997075e+00
   1.913164e+00  -2.635292e+00
   2.785977e+00  -8.449591e-01
   1.024081e+00   3.972862e-01
  -9.155990e-02   4.130955e-01
   9.334736e-01  -2.642773e-01
   2.717910e+00  -1.170649e-01
   2.265019e+00   1.152645e+00
  -1.048288e+00   2.552121e+00
  -4.177313e+00   2.068986e+00
  -3.704524e+00  -5.578199e-01
  -1.886030e-01  -3.372366e+00
   3.198342e+00  -3.622525e+00
   3.813407e+00  -1.034686e+00
   2.017076e+00   2.480066e+00
  -3.775415e-01   3.645804e+00
  -1.607601e+00   1.580892e+00
  -1.760870e+00  -1.270834e+00
  -8.820174e-01  -1.835183e+00
   3.170171e-01   3.572134e-01
   6.216056e-01   2.181277e+00
  -2.683992e-01   8.524538e-01
  -1.690588e+00  -2.239251e+00
  -1.568089e+00  -4.033258e+00
   1.033831e+00  -2.605948e+00
   3.233988e+00   8.154146e-01
   3.135842e+00   2.700829e+00
   1.713081e-01   1.997451e+00
  -2.710749e+00   3.328483e-01
  -2.242653e+00  -1.090049e+00
   4.614023e-01  -1.591233e+00
   2.493844e+00  -1.267468e+00
   1.809598e+00  -1.380509e-01
  -4.198882e-01   1.087909e+00
  -1.168447e+00   1.610570e+00
  -2.826706e-01   9.647845e-01
   7.770356e-01  -1.466901e-01
   2.498564e-01  -3.511990e-01
  -1.457073e+00  -2.446776e-01
  -2.169246e+00  -4.150305e-01
  -7.678228e-01  -9.653077e-01
   1.189843e+00  -1.337457e+00
   1.666990e+00  -7.816896e-01
   5.159527e-01   5.046717e-01
  -7.325434e-01   1.313079e+00
  -1.025010e+00   3.857814e-01
  -1.413170e-01  -1.629665e+00
   1.086344e+00  -2.579645e+00
   1.577046e+00  -1.096679e+00
   1.330800e+00   1.777557e+00
   6.070797e-01   3.012472e+00
  -3.571885e-01   1.594649e+00
  -8.507974e-01  -8.943981e-01
  -5.120491e-01  -1.459915e+00
   4.702960e-01   3.027520e-01
   4.824624e-01   1.955169e+00
