
 $NMID
 id='ANONYMOUS ', fmtdat='(2E16.6)'
 volume=1.0
 tramp=1.0
 $END
  -2.358982e+03   4.946738e+01
  -1.648775e+03  -1.264947e+03
   2.962278e+01  -1.475875e+03
   9.861554e+02  -8.464021e+02
   6.977373e+02  -3.900624e+01
  -2.685324e+01   3.246944e+02
  -3.917379e+02   2.961192e+01
  -1.473190e+02  -3.901509e+02
   3.996414e+02  -4.899162e+02
   4.859539e+02  -3.305431e+01
   3.700306e+02   4.168683e+02
  -2.242433e+01   5.901024e+02
  -2.614327e+02   1.576434e+02
  -2.379738e+02  -3.236539e+02
   5.367049e+01  -4.675134e+02
   3.612747e+02  -9.890343e+01
   2.200640e+02   3.560152e+02
  -6.442728e+01   4.318163e+02
  -3.643367e+02   1.717938e+02
  -2.946345e+02  -1.539584e+02
  -1.216896e+02  -2.697804e+02
   1.058482e+02  -1.966979e+02
   8.833157e+01  -5.027853e+01
  -1.260365e+02  -5.998150e+01
  -2.091009e+02  -1.653744e+02
  -3.913939e+01  -2.514536e+02
   3.204464e+02  -1.506476e+02
   4.926252e+02   8.373383e+01
   2.054132e+02   2.545210e+02
  -2.154028e+02   1.964156e+02
  -4.206900e+02  -3.332630e+01
  -1.889843e+02  -2.607192e+02
   1.777004e+02  -2.963296e+02
   3.436697e+02  -1.233506e+02
   2.798731e+02   1.252535e+02
   9.073047e+01   2.667515e+02
  -1.874880e+01   1.712780e+02
  -7.001455e+00  -9.333905e+01
   1.139317e+02  -1.760525e+02
   2.009414e+02   6.357504e+01
   7.952685e+01   3.964175e+02
  -1.634874e+02   4.011543e+02
  -2.918699e+02   5.384366e+01
  -1.414123e+02  -2.465350e+02
   1.245043e+02  -1.391191e+02
   1.631006e+02   1.967135e+02
  -5.702544e+01   3.205609e+02
  -3.462634e+02   8.804134e+01
  -4.002095e+02  -2.477053e+02
  -1.537893e+02  -3.738288e+02
   2.174222e+02  -2.363172e+02
   4.194603e+02   1.370145e+01
   2.868047e+02   1.939959e+02
  -3.593124e+01   2.060571e+02
  -2.461317e+02   8.530377e+01
  -1.794238e+02  -3.268483e+01
   3.767103e+00  -3.063987e+01
   4.525940e+01   5.032346e+01
  -9.157786e+01   7.383492e+01
  -1.997453e+02  -2.509664e+01
  -1.106019e+02  -1.628785e+02
   1.070891e+02  -2.154559e+02
   2.504085e+02  -1.335654e+02
   2.039486e+02   4.888558e+01
   1.425015e+01   2.383738e+02
  -1.837951e+02   3.021542e+02
  -2.654864e+02   1.574982e+02
  -1.964787e+02  -1.095970e+02
  -5.747744e+01  -2.839914e+02
   2.668406e+01  -2.493814e+02
   2.186329e+01  -1.157756e+02
   1.417127e+01  -5.992005e+01
   8.224328e+01  -9.192195e+01
   1.806099e+02  -7.073854e+01
   1.998665e+02   6.615566e+01
   9.752998e+01   1.977235e+02
  -5.520817e+01   1.711044e+02
  -1.550917e+02  -7.351620e+00
  -1.312937e+02  -1.830097e+02
   1.718646e+01  -2.116108e+02
   1.929228e+02  -7.599635e+01
   2.613912e+02   1.156779e+02
   1.502840e+02   2.343412e+02
  -3.166295e+01   2.158642e+02
  -1.289174e+02   1.228280e+02
  -1.053203e+02   5.629806e+01
  -9.862852e+01   5.827571e+01
  -2.083143e+02   5.362349e+01
  -3.255140e+02  -4.293759e+01
  -2.703460e+02  -2.112641e+02
  -1.014118e+01  -3.432795e+02
   2.710154e+02  -3.340927e+02
   3.634362e+02  -1.651261e+02
   2.376131e+02   6.071531e+01
   3.865680e+01   2.028433e+02
  -6.320799e+01   1.688217e+02
  -1.660492e+01   3.000724e+01
   8.475230e+01  -4.547587e+01
   1.092098e+02   1.677824e+01
   2.043013e+01   1.157411e+02
  -8.671020e+01   9.516702e+01
  -9.535683e+01  -3.531504e+01
   1.406609e+01  -1.105466e+02
   1.305845e+02  -1.420495e+01
   1.345400e+02   1.742599e+02
   4.115405e+00   2.678401e+02
  -1.727123e+02   1.767827e+02
  -2.742563e+02  -2.199624e+01
  -2.272872e+02  -1.800302e+02
  -6.656568e+01  -2.030618e+02
   8.413274e+01  -1.151319e+02
   1.117273e+02  -1.487507e+01
   2.728234e+01   7.210115e+00
  -4.273357e+01  -4.635024e+01
  -3.534488e+00  -9.158133e+01
   9.404836e+01  -6.187827e+01
   1.184456e+02   1.154488e+01
   2.964022e+01   4.261519e+01
  -6.465379e+01  -2.179886e+00
  -3.597353e+01  -6.813199e+01
   1.113337e+02  -7.713598e+01
   2.376429e+02  -3.895813e+00
   2.114483e+02   1.142382e+02
   3.792095e+01   2.035493e+02
  -1.472208e+02   1.981204e+02
  -2.030879e+02   9.391710e+01
  -1.093512e+02  -2.816151e+01
   2.065656e+01  -6.412823e+01
   5.270435e+01   1.121803e+00
  -3.626455e+01   6.935052e+01
  -1.446936e+02   4.014509e+01
  -1.572765e+02  -6.871524e+01
  -5.942705e+01  -1.438356e+02
   5.871021e+01  -1.129999e+02
   9.726142e+01  -2.340568e+01
   4.124724e+01   2.302668e+01
  -3.188993e+01  -1.515774e+01
  -2.770422e+01  -8.341962e+01
   6.717830e+01  -9.703005e+01
   1.626911e+02  -2.141627e+01
   1.498067e+02   9.508047e+01
   2.066698e+01   1.626568e+02
  -1.134288e+02   1.262570e+02
  -1.362704e+02   1.777624e+01
  -4.995077e+01  -7.199207e+01
   4.150992e+01  -7.959526e+01
   5.306083e+01  -2.558245e+01
   4.657622e+00   1.785364e+01
  -2.545688e+01   1.025861e+01
   7.629874e+00  -1.697311e+01
   6.907212e+01  -2.716147e+00
   8.531890e+01   6.702797e+01
   1.653450e+01   1.362418e+02
  -1.048385e+02   1.283535e+02
  -1.879020e+02   2.312408e+01
  -1.612003e+02  -1.125310e+02
  -4.447056e+01  -1.779131e+02
   6.879231e+01  -1.338024e+02
   9.948461e+01  -3.368400e+01
   6.226447e+01   2.906954e+01
   3.093073e+01   2.064683e+01
   4.381599e+01  -1.338897e+01
   6.740483e+01  -9.884887e+00
   4.614989e+01   4.189717e+01
  -2.416473e+01   8.437419e+01
  -9.002786e+01   5.927529e+01
  -8.458837e+01  -2.828793e+01
   6.264248e+00  -1.019665e+02
   1.222415e+02  -7.924218e+01
   1.650755e+02   4.025643e+01
   7.953880e+01   1.635662e+02
  -8.492481e+01   1.824639e+02
  -2.045588e+02   7.962370e+01
  -1.964552e+02  -5.566532e+01
  -8.768867e+01  -1.260123e+02
   2.153208e+01  -1.098306e+02
   6.229466e+01  -6.896905e+01
   4.976786e+01  -6.076099e+01
   4.078603e+01  -7.893945e+01
   6.707361e+01  -6.848654e+01
   1.047495e+02   6.327175e+00
   1.029567e+02   1.127002e+02
   3.528286e+01   1.743700e+02
  -6.746760e+01   1.362693e+02
  -1.315584e+02   2.066452e+01
  -1.060153e+02  -8.948906e+01
  -1.724326e+01  -1.201177e+02
   5.232114e+01  -6.843781e+01
   4.803517e+01   5.399342e+00
  -1.201847e-03   4.076788e+01
  -1.717425e+01   3.006790e+01
   2.370211e+01   8.531625e+00
   6.729097e+01   8.756266e+00
   4.089958e+01   2.743604e+01
  -5.460592e+01   3.505413e+01
  -1.345892e+02   9.934225e+00
  -1.161084e+02  -3.899809e+01
  -6.818556e+00  -7.498636e+01
   9.845179e+01  -6.565827e+01
   1.121833e+02  -1.463226e+01
   3.753556e+01   3.456274e+01
  -4.353576e+01   3.676036e+01
  -6.116939e+01  -9.763239e+00
  -1.805890e+01  -5.662280e+01
   3.312391e+01  -5.437602e+01
   5.390299e+01  -5.488530e+00
   4.825776e+01   3.760906e+01
   4.025190e+01   3.253666e+01
   4.352592e+01  -1.172914e+00
   4.972697e+01  -3.083396e+00
   3.714654e+01   5.423090e+01
  -1.341779e+01   1.215859e+02
  -8.942401e+01   1.219439e+02
  -1.389643e+02   3.685373e+01
  -1.084144e+02  -6.668642e+01
  -1.093954e+01  -1.042465e+02
   6.725564e+01  -6.042020e+01
   4.923489e+01   3.544276e+00
  -4.395631e+01   1.883829e+01
  -1.068656e+02  -2.402408e+01
  -6.127092e+01  -7.807391e+01
   5.881100e+01  -9.008235e+01
   1.446714e+02  -4.679724e+01
   1.241776e+02   2.152312e+01
   2.892398e+01   6.458736e+01
  -4.591622e+01   5.228439e+01
  -3.718944e+01   2.487751e+00
   2.953130e+01  -2.677071e+01
   7.260097e+01   9.440383e+00
   3.747138e+01   8.805943e+01
  -5.189212e+01   1.268701e+02
  -1.179098e+02   6.487347e+01
  -1.047968e+02  -6.329228e+01
  -2.654623e+01  -1.487280e+02
   5.345650e+01  -1.151736e+02
   8.140171e+01   8.507855e-01
   5.159577e+01   8.841855e+01
  -2.011208e+00   7.998879e+01
  -3.830439e+01   1.546853e+01
  -3.773903e+01  -2.092563e+01
  -1.414488e+01  -4.355063e+00
  -3.299493e+00   1.313216e+01
  -2.445044e+01  -1.538463e+01
  -5.058822e+01  -6.647880e+01
  -3.203421e+01  -7.941684e+01
   4.082464e+01  -3.646981e+01
   1.085423e+02   1.993001e+01
   1.007041e+02   4.552607e+01
   1.802071e+01   3.970334e+01
  -6.059112e+01   2.525692e+01
  -6.586172e+01   1.048073e+01
  -1.320353e+01  -7.072110e+00
   2.561740e+01  -1.814796e+01
   1.365525e+01  -1.078448e+01
  -1.170474e+01   4.267112e+00
   3.251299e+00   4.764975e+00
   5.242574e+01  -4.441461e+00
   7.302217e+01   1.136396e+01
   2.024644e+01   6.185131e+01
  -7.745768e+01   9.884086e+01
  -1.422232e+02   6.340129e+01
  -1.219780e+02  -3.647336e+01
  -3.488807e+01  -1.223529e+02
   5.240571e+01  -1.260700e+02
   8.625517e+01  -5.894120e+01
   6.393473e+01   9.085259e+00
   2.345407e+01   2.748016e+01
   3.237106e+00   1.045268e+01
   1.173377e+01   6.569005e+00
   2.698795e+01   3.688480e+01
   1.973902e+01   6.972686e+01
  -1.844632e+01   5.715526e+01
  -6.235448e+01  -6.914140e+00
  -6.902101e+01  -7.381366e+01
  -1.810765e+01  -8.453696e+01
   5.650803e+01  -2.961755e+01
   8.697629e+01   4.350687e+01
   3.835932e+01   7.722504e+01
  -4.506894e+01   5.421883e+01
  -8.104409e+01   1.434703e+00
  -3.915937e+01  -4.122390e+01
   2.207341e+01  -4.920092e+01
   2.800833e+01  -2.450359e+01
  -2.125365e+01   7.138832e+00
  -5.340355e+01   1.173106e+01
  -1.647986e+01  -2.096604e+01
   5.603779e+01  -5.802513e+01
   8.953684e+01  -5.109595e+01
   5.591103e+01   7.511509e+00
  -4.036000e+00   6.678077e+01
  -3.804058e+01   6.806862e+01
  -3.269884e+01   1.242175e+01
  -8.490931e+00  -4.021719e+01
   1.503761e+01  -3.854369e+01
   2.926788e+01   5.850188e+00
   2.600093e+01   3.950478e+01
   2.678995e+00   3.049517e+01
  -2.583563e+01  -1.124175e+00
  -3.420497e+01  -1.528670e+01
  -1.697889e+01  -1.062389e+00
   3.409691e+00   1.469735e+01
   4.937500e+00   4.781164e+00
  -5.447509e+00  -2.580130e+01
  -2.286469e+00  -4.126223e+01
   2.005694e+01  -1.829665e+01
   3.450283e+01   2.481229e+01
   1.381759e+01   4.541788e+01
  -3.012192e+01   2.229831e+01
  -5.132814e+01  -2.203244e+01
  -1.896550e+01  -4.590147e+01
   4.264574e+01  -3.194026e+01
   7.367649e+01   2.519242e+00
   4.218309e+01   3.010194e+01
  -1.946060e+01   3.728835e+01
  -4.847581e+01   2.627422e+01
  -2.109702e+01   7.410123e+00
   2.241906e+01  -4.447551e+00
   2.624184e+01   2.881705e+00
  -1.684483e+01   2.148294e+01
  -5.942053e+01   2.177778e+01
