
 $NMID
 id='ANONYMOUS ', fmtdat='(2E16.6)'
 volume=1.0
 tramp=1.0
 $END
  -1.470108e+03  -2.874987e+01
  -8.917914e+02  -8.480988e+02
   2.239290e+02  -8.509281e+02
   9.040645e+02  -1.456303e+02
   2.848876e+02   1.512293e+02
  -2.487448e+02   1.490501e+02
  -3.354827e+02  -1.275471e+02
  -3.995680e+01  -4.194448e+02
   3.093364e+02  -2.931474e+02
   2.986752e+02  -3.371448e+01
   1.342763e+02   3.461607e+02
  -8.670289e+01   3.042451e+02
  -1.679762e+02   6.864597e+01
  -9.005340e+01  -2.722471e+02
   5.161461e+01  -2.920125e+02
   1.639990e+02  -3.601597e+01
   1.068946e+02   2.646612e+02
  -1.015084e+02   2.180598e+02
  -1.652388e+02   2.640522e+01
  -1.243495e+02  -1.352912e+02
   3.163404e+01  -1.480097e+02
   1.035969e+02  -8.765178e+01
   7.276833e+01   1.023160e+01
  -3.876725e+01   3.422371e+01
  -1.351027e+02  -4.174357e+01
  -8.631381e+01  -1.197078e+02
   1.383381e+02  -1.441783e+02
   2.927301e+02   3.458503e+01
   1.610661e+02   2.013368e+02
  -1.163026e+02   1.627833e+02
  -2.279554e+02  -2.627669e+01
  -1.234057e+02  -1.521053e+02
   7.927430e+01  -1.620290e+02
   1.868713e+02  -5.169929e+01
   1.332784e+02   7.354852e+01
   1.836248e+01   1.407779e+02
  -7.858979e+01   9.661775e+01
  -6.425851e+01  -5.994090e+01
   6.062375e+01  -1.445411e+02
   1.604639e+02   1.303573e+01
   6.805638e+01   2.168175e+02
  -1.191858e+02   2.100643e+02
  -2.001305e+02  -1.116707e+01
  -7.481956e+01  -1.969903e+02
   1.058663e+02  -1.171742e+02
   1.433617e+02   1.021062e+02
  -8.413747e+00   1.871456e+02
  -1.682274e+02   5.327168e+01
  -1.840713e+02  -1.178016e+02
  -4.901554e+01  -1.811379e+02
   1.242311e+02  -1.079791e+02
   1.898348e+02   3.110045e+01
   1.002311e+02   1.351834e+02
  -6.473063e+01   1.221177e+02
  -1.405200e+02   1.106175e+01
  -6.638335e+01  -7.651186e+01
   4.704040e+01  -4.002671e+01
   4.404988e+01   5.359423e+01
  -6.262302e+01   6.375837e+01
  -1.187269e+02  -2.972778e+01
  -4.282985e+01  -1.043149e+02
   7.613845e+01  -8.066029e+01
   1.138067e+02  -1.465627e+01
   6.305211e+01   2.679722e+01
  -9.196182e+00   5.646248e+01
  -6.518743e+01   8.873688e+01
  -9.620999e+01   6.822412e+01
  -8.081517e+01  -3.336656e+01
  -1.500475e+01  -1.285718e+02
   4.709106e+01  -1.158630e+02
   4.809758e+01  -2.587715e+01
   9.769476e+00   2.078745e+01
   4.407810e+00  -1.257238e+01
   4.831395e+01  -3.890237e+01
   7.956511e+01   9.591448e+00
   4.862060e+01   8.075978e+01
  -2.087453e+01   8.527755e+01
  -6.984754e+01   9.467239e+00
  -6.225527e+01  -7.357834e+01
   3.019399e+00  -9.425418e+01
   8.413577e+01  -3.539039e+01
   1.091385e+02   5.594693e+01
   5.194831e+01   1.126959e+02
  -3.734054e+01   9.526356e+01
  -7.053969e+01   3.399323e+01
  -4.609973e+01  -2.290318e+00
  -3.198456e+01   7.306129e+00
  -7.287130e+01   1.455481e+01
  -1.185334e+02  -2.133603e+01
  -9.268336e+01  -8.275326e+01
   3.834315e+00  -1.281890e+02
   1.066540e+02  -1.213988e+02
   1.434679e+02  -6.200168e+01
   1.003059e+02   2.514406e+01
   1.782887e+01   8.714104e+01
  -3.894835e+01   7.812090e+01
  -2.729142e+01   7.874915e+00
   3.489672e+01  -3.593478e+01
   6.355035e+01   3.510351e+00
   1.491196e+01   6.487675e+01
  -5.343377e+01   5.405944e+01
  -5.732857e+01  -2.419229e+01
   7.670928e+00  -6.576028e+01
   6.439426e+01  -1.056011e+01
   5.011780e+01   8.190405e+01
  -1.279934e+01   1.090239e+02
  -6.947470e+01   5.393701e+01
  -9.392853e+01  -2.487800e+01
  -8.047887e+01  -7.109921e+01
  -2.998361e+01  -7.375477e+01
   3.086085e+01  -4.387142e+01
   5.225442e+01  -6.716084e+00
   1.820476e+01   7.596371e+00
  -2.096799e+01  -1.283444e+01
  -9.129238e+00  -3.771580e+01
   3.789901e+01  -2.942177e+01
   5.407779e+01   4.165671e+00
   1.604870e+01   2.176957e+01
  -2.644383e+01   4.623858e+00
  -1.814317e+01  -2.192226e+01
   3.657383e+01  -2.630191e+01
   8.425705e+01  -1.382171e+00
   7.914878e+01   3.852361e+01
   1.900745e+01   7.313195e+01
  -5.378122e+01   7.712366e+01
  -8.441945e+01   3.910719e+01
  -5.041521e+01  -1.377393e+01
   8.389024e+00  -3.167385e+01
   2.801711e+01  -1.845439e+00
  -1.132238e+01   3.067038e+01
  -6.187539e+01   1.692427e+01
  -6.618981e+01  -3.347198e+01
  -2.019716e+01  -6.577534e+01
   3.049022e+01  -4.992298e+01
   4.585694e+01  -1.004822e+01
   2.439857e+01   1.262391e+01
  -5.066452e+00   2.562564e+00
  -9.230945e+00  -2.249454e+01
   2.140356e+01  -3.136897e+01
   5.847191e+01  -6.854429e+00
   5.621472e+01   3.875561e+01
   3.897299e+00   6.683757e+01
  -5.295226e+01   4.870996e+01
  -6.007879e+01  -1.056632e+00
  -1.830665e+01  -3.736060e+01
   2.193036e+01  -3.459381e+01
   2.633547e+01  -9.221287e+00
   7.030758e+00   8.145270e+00
  -3.941185e+00   6.662813e+00
   3.559309e+00   8.812279e-02
   1.815446e+01   5.468101e+00
   2.185436e+01   2.500954e+01
   2.086934e+00   4.503603e+01
  -3.731207e+01   4.323327e+01
  -6.933638e+01   5.515514e+00
  -5.954537e+01  -4.731104e+01
  -9.851929e+00  -7.323053e+01
   3.675903e+01  -5.126039e+01
   4.253671e+01  -6.248461e+00
   1.928922e+01   1.981706e+01
   5.797236e+00   1.188132e+01
   1.657885e+01  -4.513347e+00
   2.589434e+01  -2.427919e+00
   1.314584e+01   1.440372e+01
  -1.309533e+01   2.625740e+01
  -3.058771e+01   1.653970e+01
  -2.534097e+01  -9.560222e+00
   4.572243e+00  -3.051412e+01
   4.085356e+01  -2.202155e+01
   5.588556e+01   1.621780e+01
   2.735402e+01   5.837239e+01
  -3.441562e+01   6.539904e+01
  -8.235393e+01   2.617487e+01
  -7.734316e+01  -2.916678e+01
  -3.043025e+01  -5.600094e+01
   1.462210e+01  -4.562114e+01
   3.104173e+01  -2.432568e+01
   2.644927e+01  -1.913196e+01
   2.275230e+01  -2.577955e+01
   2.939567e+01  -2.043105e+01
   3.807547e+01   9.468679e+00
   3.267794e+01   4.952795e+01
   5.079247e+00   6.939025e+01
  -3.293284e+01   5.082403e+01
  -5.379432e+01   4.027279e+00
  -4.021880e+01  -3.817845e+01
  -4.556853e+00  -4.872976e+01
   2.087040e+01  -2.841021e+01
   1.817892e+01  -1.027295e+00
   1.786434e+00   1.227433e+01
  -2.880733e+00   1.083559e+01
   1.004235e+01   6.843860e+00
   2.208664e+01   7.562977e+00
   1.294551e+01   1.054099e+01
  -1.750265e+01   9.113150e+00
  -4.518166e+01  -8.642701e-01
  -4.237937e+01  -1.600642e+01
  -5.164937e+00  -2.563739e+01
   3.592868e+01  -2.040681e+01
   4.340965e+01  -2.496223e+00
   1.394147e+01   1.214737e+01
  -1.881516e+01   9.253822e+00
  -2.187894e+01  -7.836490e+00
   1.971665e-01  -2.078071e+01
   1.866257e+01  -1.573212e+01
   1.844541e+01   2.739771e+00
   1.151748e+01   1.627211e+01
   1.215817e+01   1.309069e+01
   1.931919e+01   1.119387e+00
   2.035460e+01   1.052918e+00
   9.137240e+00   2.081564e+01
  -1.260188e+01   4.350777e+01
  -3.727917e+01   4.114565e+01
  -4.941964e+01   7.837458e+00
  -3.550051e+01  -2.955154e+01
  -2.247435e-01  -3.865880e+01
   2.661126e+01  -1.752520e+01
   1.824821e+01   5.815753e+00
  -1.759973e+01   6.181691e+00
  -4.071951e+01  -1.466498e+01
  -2.211534e+01  -3.372353e+01
   2.511158e+01  -3.309749e+01
   5.814167e+01  -1.318857e+01
   4.933059e+01   1.227989e+01
   1.077510e+01   2.687403e+01
  -1.934958e+01   2.078751e+01
  -1.510829e+01   2.038462e+00
   1.242141e+01  -7.431412e+00
   2.744394e+01   8.139268e+00
   7.862012e+00   3.691846e+01
  -3.104355e+01   4.608564e+01
  -5.226479e+01   1.690215e+01
  -3.656308e+01  -3.255608e+01
  -2.258973e-01  -6.048195e+01
   2.684832e+01  -4.277887e+01
   3.088547e+01   3.492568e+00
   1.760567e+01   3.667791e+01
  -4.375278e-01   3.221203e+01
  -1.396452e+01   5.694608e+00
  -1.678959e+01  -9.785127e+00
  -8.994492e+00  -2.571391e+00
  -1.273620e+00   6.308622e+00
  -5.275103e+00  -5.127212e+00
  -1.557191e+01  -2.793302e+01
  -1.172594e+01  -3.351013e+01
   1.448618e+01  -1.235626e+01
   4.148435e+01   1.422673e+01
   3.790577e+01   2.306620e+01
   3.605256e+00   1.480045e+01
  -2.728069e+01   5.620744e+00
  -2.633636e+01   1.574988e+00
  -2.783637e+00  -2.368100e+00
   1.151375e+01  -6.920212e+00
   3.842938e+00  -5.901031e+00
  -6.135791e+00   2.817364e-01
   2.836652e+00   3.789165e+00
   2.311981e+01   3.586399e+00
   2.623040e+01   9.804744e+00
  -1.103876e+00   2.509326e+01
  -3.996770e+01   3.234811e+01
  -5.775812e+01   1.332925e+01
  -4.100282e+01  -2.428313e+01
  -4.203473e+00  -5.015933e+01
   2.681372e+01  -4.353090e+01
   3.526897e+01  -1.490017e+01
   2.353119e+01   8.290388e+00
   6.366826e+00   1.080571e+01
  -1.563903e+00   2.327994e+00
   2.584667e+00   1.528107e+00
   9.190808e+00   1.439962e+01
   5.324476e+00   2.719643e+01
  -1.039534e+01   2.028543e+01
  -2.462345e+01  -7.817356e+00
  -2.161473e+01  -3.446940e+01
   1.490598e+00  -3.378430e+01
   2.646749e+01  -5.045126e+00
   3.038941e+01   2.539524e+01
   7.274632e+00   3.231666e+01
  -2.184862e+01   1.572622e+01
  -2.948495e+01  -5.434830e+00
  -1.070735e+01  -1.580633e+01
   1.054613e+01  -1.458913e+01
   8.923087e+00  -7.279646e+00
  -1.106950e+01  -5.600236e-02
  -2.093430e+01   9.310407e-01
  -3.940028e+00  -7.943589e+00
   2.429363e+01  -1.914092e+01
   3.413984e+01  -1.638103e+01
   1.756341e+01   4.143270e+00
  -6.147315e+00   2.412032e+01
  -1.601870e+01   2.226502e+01
  -9.941240e+00   2.685243e-01
   1.167966e+00  -1.702217e+01
   8.726615e+00  -1.182087e+01
   1.071308e+01   6.942695e+00
   6.906683e+00   1.695177e+01
  -1.636178e+00   9.880385e+00
  -1.010535e+01  -2.431658e+00
  -1.169849e+01  -5.662312e+00
  -7.064973e+00  -8.055403e-02
  -1.523759e+00   3.258831e+00
   1.322778e+00  -3.063857e+00
   3.617036e+00  -1.255632e+01
   7.589902e+00  -1.301713e+01
   1.114396e+01  -1.451179e-01
   7.876827e+00   1.580268e+01
  -3.071583e+00   1.901133e+01
  -1.445938e+01   4.885532e+00
  -1.603348e+01  -1.381797e+01
  -2.634228e+00  -1.983216e+01
   1.719522e+01  -8.971170e+00
   2.601964e+01   7.172047e+00
   1.346793e+01   1.460039e+01
  -9.727829e+00   1.125502e+01
  -1.955918e+01   4.413599e+00
  -6.324194e+00   7.051473e-01
   1.228374e+01   1.945313e+00
   1.094952e+01   6.326325e+00
  -1.129568e+01   9.631151e+00
  -2.931313e+01   4.442727e+00
