
 $NMID
 id='ANONYMOUS ', fmtdat='(2E16.6)'
 volume=1.0
 tramp=1.0
 $END
   5.602370e+02   1.892295e+02
   4.372323e+02   2.098902e+02
   1.092096e+02   2.732387e+02
  -8.420270e+01   2.946855e+02
  -6.284022e+01   2.058257e+02
   6.237387e+00   3.797086e+01
  -1.687730e+01   8.649542e+01
  -2.227899e+01   1.183936e+02
  -2.861566e+01   1.428936e+02
  -1.186678e+02   4.673283e+01
  -1.131048e+02  -4.342796e+01
  -1.874465e+01  -8.988502e+01
   2.590172e+01   4.021478e+00
   8.236413e+01   1.043519e+02
  -3.715087e+01   8.825689e+01
  -4.335816e+01  -2.348149e+01
  -3.078473e+01  -8.354960e+01
   4.266486e+01  -9.746921e+01
   1.365983e+02  -9.215069e+01
   9.327307e+01   4.496795e+01
   3.242743e+01   1.218785e+02
  -2.170932e+01   1.048788e+02
  -1.842815e+01   1.763470e+01
   6.068654e+01   2.643582e+01
   1.056094e+02   4.036512e+01
   8.972410e+00   5.929096e+01
  -1.182215e+02   4.412592e+01
  -1.522642e+02   2.718353e-01
  -4.677433e+01  -1.027701e+01
   7.469964e+01   1.804961e+00
   1.094603e+02   3.574099e+01
   4.895744e+01   6.794704e+01
  -5.288252e+01   8.115120e+01
  -1.024337e+02   4.105627e+01
  -8.763965e+01  -3.278221e+01
  -5.340803e+01  -8.421332e+01
  -3.069382e+01  -5.690643e+01
  -2.232044e+01   1.584399e+01
  -1.840298e+01   4.746945e+01
  -1.303106e+01  -2.161161e+01
  -9.822511e+00  -1.256265e+02
   2.249830e+01  -1.210191e+02
   5.561527e+01  -2.185738e+01
   3.838735e+01   6.841197e+01
  -1.549208e+01   4.210437e+01
  -3.158397e+01  -5.388247e+01
   1.229974e+01  -1.034566e+02
   9.944413e+01  -2.665098e+01
   1.369628e+02   8.419012e+01
   6.667441e+01   1.177419e+02
  -5.368420e+01   6.634514e+01
  -1.369764e+02   2.383126e+00
  -1.125973e+02  -3.522123e+01
  -1.928961e+01  -4.757971e+01
   5.978967e+01  -4.357314e+01
   6.530215e+01  -2.679845e+01
   2.200495e+01  -4.459544e+00
  -5.054377e+00   4.646240e-01
   1.653828e+01  -9.292950e+00
   5.118553e+01  -3.520233e+00
   4.080744e+01   3.648640e+01
  -2.430872e+01   7.610554e+01
  -8.827993e+01   6.178006e+01
  -8.367614e+01  -1.664359e+01
  -1.013031e+01  -1.009631e+02
   7.003519e+01  -1.198547e+02
   9.482517e+01  -5.839384e+01
   6.684216e+01   3.323734e+01
   2.967031e+01   8.794202e+01
   1.369948e+01   8.580623e+01
   8.350824e+00   5.724988e+01
  -9.946630e+00   4.038234e+01
  -4.152179e+01   3.435932e+01
  -6.571468e+01   1.308911e+01
  -6.216040e+01  -2.844500e+01
  -2.945406e+01  -5.894662e+01
   1.736469e+01  -4.471216e+01
   5.262407e+01   9.404614e+00
   4.552494e+01   5.936190e+01
  -3.138243e+00   6.515606e+01
  -6.363826e+01   2.810736e+01
  -8.837233e+01  -2.567606e+01
  -5.981718e+01  -6.586691e+01
  -6.136571e+00  -7.003961e+01
   3.124763e+01  -5.471517e+01
   3.909964e+01  -3.891311e+01
   4.573297e+01  -3.124840e+01
   8.210700e+01  -1.828345e+01
   1.159234e+02   1.329749e+01
   9.476452e+01   7.100800e+01
   1.046374e+01   1.221462e+02
  -8.359261e+01   1.252271e+02
  -1.164078e+02   6.757119e+01
  -7.818944e+01  -1.375424e+01
  -1.748352e+01  -6.252567e+01
   1.090785e+01  -5.423180e+01
  -2.908787e+00  -1.313548e+01
  -2.872335e+01   1.032551e+01
  -3.303711e+01  -4.639959e+00
  -1.036008e+01  -3.009780e+01
   1.971017e+01  -2.737019e+01
   2.868958e+01   5.556228e+00
   3.914309e+00   2.729574e+01
  -3.766288e+01   3.868956e+00
  -5.482221e+01  -5.062150e+01
  -1.707674e+01  -8.685401e+01
   5.414622e+01  -6.610003e+01
   1.031499e+02  -1.536107e+00
   8.724606e+01   5.655608e+01
   2.343938e+01   6.721250e+01
  -3.123100e+01   3.780567e+01
  -3.482214e+01   5.520627e+00
  -3.538210e+00   2.360968e-01
   1.654462e+01   1.832648e+01
   1.608560e+00   3.148220e+01
  -2.866140e+01   2.269111e+01
  -3.646069e+01   3.364779e-01
  -1.030237e+01  -1.034596e+01
   1.845929e+01   2.596411e+00
   9.740828e+00   2.495692e+01
  -3.891904e+01   3.026667e+01
  -8.338177e+01   5.359287e+00
  -7.628667e+01  -3.837832e+01
  -1.631759e+01  -7.232669e+01
   4.778668e+01  -7.075875e+01
   6.652305e+01  -3.523061e+01
   3.560622e+01   5.214304e+00
  -5.159295e+00   1.790200e+01
  -1.412903e+01  -7.465098e-01
   1.374176e+01  -2.181471e+01
   4.874472e+01  -1.405538e+01
   5.481520e+01   1.951756e+01
   2.403356e+01   4.510483e+01
  -1.678779e+01   3.826869e+01
  -3.157640e+01   1.084637e+01
  -1.140995e+01  -4.189458e+00
   1.545279e+01   8.956600e+00
   1.169133e+01   3.329557e+01
  -2.626215e+01   3.854949e+01
  -6.224949e+01   1.201551e+01
  -5.739651e+01  -3.004498e+01
  -1.206424e+01  -5.710344e+01
   3.392942e+01  -4.962772e+01
   4.416982e+01  -1.416718e+01
   1.944650e+01   2.048024e+01
  -9.070281e+00   2.857478e+01
  -1.383325e+01   1.114676e+01
   6.651955e-01  -5.506741e+00
   9.967829e+00  -3.145812e+00
  -3.348010e+00   9.540826e+00
  -2.878613e+01   6.036332e+00
  -3.716800e+01  -2.145842e+01
  -1.138640e+01  -5.186345e+01
   3.501300e+01  -5.140394e+01
   6.828698e+01  -1.374107e+01
   6.215778e+01   3.540347e+01
   2.283133e+01   6.090564e+01
  -1.832836e+01   4.929771e+01
  -3.392458e+01   1.787303e+01
  -2.437644e+01  -5.044060e+00
  -1.329604e+01  -5.050211e+00
  -1.574358e+01   5.823448e+00
  -2.513534e+01   4.948023e+00
  -2.030676e+01  -1.441494e+01
   5.338181e+00  -3.366186e+01
   3.303173e+01  -2.662247e+01
   3.444030e+01   8.328077e+00
   5.398421e-01   3.995666e+01
  -4.643065e+01   3.521531e+01
  -6.349489e+01  -9.767255e+00
  -3.302923e+01  -5.897811e+01
   2.651167e+01  -7.082719e+01
   7.132862e+01  -3.713134e+01
   7.140178e+01   1.110312e+01
   3.561489e+01   4.063645e+01
  -1.729323e+00   3.947863e+01
  -1.679831e+01   2.675351e+01
  -1.251326e+01   2.437001e+01
  -9.716359e+00   3.218809e+01
  -2.122357e+01   3.019192e+01
  -3.938125e+01   3.867925e+00
  -4.355551e+01  -3.632856e+01
  -2.107026e+01  -6.170182e+01
   1.817836e+01  -5.093156e+01
   4.628563e+01  -1.063188e+01
   4.051848e+01   2.913945e+01
   8.652431e+00   4.098663e+01
  -1.888699e+01   2.328388e+01
  -1.883373e+01  -3.604482e+00
  -4.171531e-01  -1.705482e+01
   7.904116e+00  -1.190099e+01
  -7.397010e+00  -1.224935e+00
  -2.550378e+01  -3.323480e-01
  -1.632351e+01  -9.470305e+00
   2.067210e+01  -1.639603e+01
   5.151520e+01  -8.995842e+00
   4.395568e+01   1.096433e+01
   2.702592e+00   2.866023e+01
  -3.529573e+01   2.777959e+01
  -3.938661e+01   7.930377e+00
  -1.316226e+01  -1.347843e+01
   1.569036e+01  -1.625366e+01
   2.424864e+01   1.519209e+00
   1.149335e+01   2.167174e+01
  -8.848860e+00   2.310739e+01
  -2.162588e+01   5.508401e+00
  -2.221916e+01  -1.080715e+01
  -1.639349e+01  -9.850538e+00
  -1.400896e+01   1.365451e+00
  -1.794113e+01   1.269456e+00
  -1.862611e+01  -1.981772e+01
  -1.912922e+00  -4.552877e+01
   2.937741e+01  -4.802519e+01
   5.236612e+01  -1.948758e+01
   4.336449e+01   1.906635e+01
   7.054670e+00   3.723790e+01
  -2.308914e+01   2.578710e+01
  -1.735490e+01   1.247073e+00
   1.643426e+01  -9.417441e+00
   4.019635e+01   3.277387e+00
   2.500868e+01   2.583296e+01
  -1.759603e+01   3.569204e+01
  -4.905749e+01   2.270032e+01
  -4.409557e+01  -3.376223e+00
  -1.190956e+01  -2.169813e+01
   1.424647e+01  -1.780216e+01
   1.198347e+01   8.311174e-01
  -1.117146e+01   1.221834e+01
  -2.790767e+01  -1.210863e+00
  -1.877841e+01  -3.178216e+01
   1.182189e+01  -4.982790e+01
   3.900846e+01  -3.022243e+01
   4.131169e+01   1.689331e+01
   1.725642e+01   5.192949e+01
  -1.340171e+01   4.340730e+01
  -2.856526e+01   2.645023e+00
  -2.054558e+01  -2.988184e+01
  -4.345197e-01  -2.810917e+01
   1.372769e+01  -5.833710e+00
   1.247283e+01   6.730122e+00
   3.258594e+00   8.825365e-01
   1.521098e+00  -4.719672e+00
   1.186753e+01   5.205863e+00
   2.177200e+01   2.220737e+01
   1.289998e+01   2.706043e+01
  -1.505732e+01   1.451469e+01
  -3.950642e+01  -2.453595e+00
  -3.651922e+01  -1.199699e+01
  -8.070327e+00  -1.356605e+01
   1.934230e+01  -1.151913e+01
   2.229210e+01  -5.654286e+00
   5.470703e+00   2.522214e+00
  -8.044029e+00   6.585428e+00
  -5.060562e+00   2.549250e+00
   3.490197e+00  -2.744745e+00
  -3.820291e-01  -3.417614e-01
  -1.733774e+01   5.670235e+00
  -2.761567e+01   6.023857e-02
  -1.270121e+01  -2.163485e+01
   2.166867e+01  -4.036297e+01
   4.956287e+01  -3.104852e+01
   4.801659e+01   6.151227e+00
   1.956152e+01   4.263996e+01
  -1.339209e+01   4.942246e+01
  -2.893453e+01   2.691258e+01
  -2.331989e+01   3.238374e-02
  -9.600349e+00  -8.943173e+00
  -2.727612e+00  -3.318733e+00
  -5.814141e+00  -1.289981e+00
  -1.212126e+01  -1.221159e+01
  -1.049054e+01  -2.514604e+01
   3.604751e+00  -2.265827e+01
   2.263694e+01  -1.496619e+00
   2.895150e+01   2.280123e+01
   1.181524e+01   3.016998e+01
  -1.839306e+01   1.492469e+01
  -3.443199e+01  -1.044094e+01
  -1.913407e+01  -2.700316e+01
   1.340024e+01  -2.413997e+01
   3.067578e+01  -5.453909e+00
   1.746114e+01   1.420783e+01
  -6.090476e+00   2.075361e+01
  -1.075496e+01   1.061495e+01
   6.044857e+00  -4.355640e+00
   1.905785e+01  -7.211028e+00
   8.098335e+00   6.924373e+00
  -1.761628e+01   2.295032e+01
  -3.130836e+01   2.095420e+01
  -2.179703e+01  -1.486886e+00
  -9.177652e-01  -2.461215e+01
   1.266527e+01  -2.608509e+01
   1.290567e+01  -5.787268e+00
   5.014658e+00   1.479879e+01
  -4.523768e+00   1.572471e+01
  -1.169002e+01  -3.712396e-01
  -1.178444e+01  -1.424684e+01
  -2.996029e+00  -1.240137e+01
   8.788533e+00  -9.970467e-01
   1.292967e+01   5.102054e+00
   6.347481e+00  -4.134071e-01
  -1.560441e+00  -7.862835e+00
  -6.950438e-01  -4.788689e+00
   5.655717e+00   8.305223e+00
   5.605370e+00   1.749861e+01
  -5.819284e+00   1.158908e+01
  -1.618239e+01  -4.744611e+00
  -1.042434e+01  -1.566117e+01
   9.019431e+00  -1.108541e+01
   2.101462e+01   3.855841e+00
   1.009128e+01   1.501426e+01
  -1.436792e+01   1.385904e+01
  -2.775770e+01   3.014481e+00
  -1.672407e+01  -9.168830e+00
   6.121358e+00  -1.496913e+01
   1.732945e+01  -1.186549e+01
   8.299969e+00  -2.846724e+00
  -7.115105e+00   3.926019e+00
  -1.003714e+01   1.246879e+00
   3.185852e+00  -8.180474e+00
   1.843533e+01  -1.092768e+01
