
 $NMID
 id='ANONYMOUS ', fmtdat='(2E16.6)'
 volume=1.0
 tramp=1.0
 $END
   2.596197e+03  -1.464966e+02
   1.806702e+03   1.273272e+03
   2.879731e+02   1.506289e+03
  -9.171964e+02   1.163756e+03
  -8.510096e+02   3.591879e+02
  -2.190645e+02  -1.173303e+02
   2.308013e+02   4.254075e+00
   1.956499e+02   3.513369e+02
  -2.278916e+02   5.413784e+02
  -5.113108e+02   1.538736e+02
  -4.623714e+02  -3.028087e+02
  -7.005191e+01  -4.858643e+02
   1.329868e+02  -2.223403e+02
   2.614469e+02   2.210846e+02
  -2.725893e+01   4.271908e+02
  -3.405678e+02   1.073438e+02
  -2.731141e+02  -3.269701e+02
   3.753097e+01  -5.156192e+02
   3.467368e+02  -3.048075e+02
   3.601685e+02   1.027949e+02
   1.501253e+02   3.050287e+02
  -8.689534e+01   1.996742e+02
   1.397650e+01   9.286445e+01
   1.754684e+02   1.489026e+02
   1.920163e+02   2.566347e+02
  -7.173770e+01   2.621900e+02
  -3.939150e+02   9.186556e+01
  -4.519879e+02  -1.583392e+02
  -1.408168e+02  -2.337540e+02
   2.306609e+02  -9.460878e+01
   3.549281e+02   1.005302e+02
   1.195768e+02   2.585502e+02
  -2.066081e+02   2.569643e+02
  -3.394485e+02   1.196156e+02
  -2.502567e+02  -9.909623e+01
  -9.182147e+01  -2.275536e+02
  -2.980666e+01  -1.456721e+02
  -8.300201e+01   2.149245e+01
  -1.435961e+02   7.292142e+01
  -1.110269e+02  -1.396721e+02
   1.653689e+01  -3.759478e+02
   1.764965e+02  -3.261734e+02
   1.986400e+02  -1.188247e+01
   8.658603e+01   1.995871e+02
  -8.130628e+01   7.354042e+01
  -9.676661e+01  -2.159706e+02
   9.659868e+01  -3.049726e+02
   3.580369e+02  -5.353701e+01
   4.129220e+02   2.939910e+02
   1.632337e+02   3.987444e+02
  -2.158490e+02   2.266055e+02
  -4.252996e+02  -2.185834e+01
  -3.032248e+02  -1.614220e+02
  -2.088375e+00  -1.593016e+02
   2.074175e+02  -9.787208e+01
   1.856840e+02  -3.849823e+01
   4.168045e+01  -7.165725e+00
  -2.430072e+01  -1.211723e+01
   5.986578e+01  -2.577280e+01
   1.646584e+02   1.411617e+01
   1.140158e+02   1.253870e+02
  -1.037244e+02   2.152397e+02
  -2.939398e+02   1.510340e+02
  -2.530763e+02  -8.015259e+01
   9.376742e+00  -3.147617e+02
   2.688681e+02  -3.479740e+02
   3.232735e+02  -1.402002e+02
   1.903639e+02   1.424984e+02
   4.529164e+01   2.924628e+02
   3.131606e+00   2.604661e+02
   1.176899e+01   1.657095e+02
  -3.287718e+01   1.221042e+02
  -1.429435e+02   1.115149e+02
  -2.270311e+02   3.691793e+01
  -2.032548e+02  -1.095821e+02
  -7.824566e+01  -2.131432e+02
   6.878267e+01  -1.593583e+02
   1.520625e+02   2.953676e+01
   1.117374e+02   1.978916e+02
  -3.849020e+01   2.029086e+02
  -2.002503e+02   4.843779e+01
  -2.520722e+02  -1.416544e+02
  -1.467935e+02  -2.384984e+02
   2.348940e+01  -2.146999e+02
   1.222070e+02  -1.417414e+02
   1.190386e+02  -9.301998e+01
   1.391245e+02  -7.876199e+01
   2.517003e+02  -3.560528e+01
   3.610644e+02   7.923674e+01
   2.841059e+02   2.498246e+02
  -9.068261e+00   3.760265e+02
  -3.185368e+02   3.510195e+02
  -4.016025e+02   1.619062e+02
  -2.341838e+02  -7.285761e+01
  -1.768684e+01  -1.983651e+02
   5.822713e+01  -1.529672e+02
  -1.652389e+01  -3.338772e+01
  -1.016419e+02   1.458978e+01
  -9.001283e+01  -4.191628e+01
   1.869138e+00  -1.050400e+02
   8.103404e+01  -6.861681e+01
   6.993752e+01   4.333536e+01
  -2.354413e+01   9.486360e+01
  -1.274340e+02  -6.044900e+00
  -1.360768e+02  -1.923601e+02
  -3.037936e+00  -2.938586e+02
   2.007858e+02  -1.963005e+02
   3.205994e+02   3.421633e+01
   2.548491e+02   2.216305e+02
   5.776240e+01   2.385153e+02
  -1.057080e+02   1.200735e+02
  -1.176597e+02   7.142487e+00
  -2.114581e+01  -1.573181e+00
   3.975988e+01   6.280934e+01
  -1.235599e+01   9.695133e+01
  -1.068009e+02   5.182948e+01
  -1.184218e+02  -2.131457e+01
  -2.038357e+01  -3.908663e+01
   7.166661e+01   1.773590e+01
   3.037260e+01   8.371950e+01
  -1.337872e+02   7.852468e+01
  -2.672885e+02  -1.769691e+01
  -2.244357e+02  -1.483542e+02
  -2.068025e+01  -2.254836e+02
   1.798077e+02  -1.949605e+02
   2.224426e+02  -7.952213e+01
   1.073990e+02   3.038811e+01
  -2.608065e+01   5.239216e+01
  -4.527059e+01  -9.511172e+00
   5.247775e+01  -6.208986e+01
   1.556432e+02  -2.280733e+01
   1.569381e+02   8.496285e+01
   5.168098e+01   1.528636e+02
  -6.679058e+01   1.128686e+02
  -9.870987e+01   1.640582e+01
  -3.304910e+01  -2.540353e+01
   4.016437e+01   2.824612e+01
   2.093372e+01   1.065073e+02
  -9.194901e+01   1.089544e+02
  -1.889287e+02   1.089082e+01
  -1.595014e+02  -1.165941e+02
  -1.239549e+01  -1.772337e+02
   1.258536e+02  -1.297870e+02
   1.418169e+02  -1.828344e+01
   4.731911e+01   7.034541e+01
  -4.731354e+01   7.719547e+01
  -5.451804e+01   2.291637e+01
   3.781578e+00  -1.921602e+01
   3.719142e+01  -6.192028e+00
  -7.040322e+00   2.661430e+01
  -8.365054e+01   6.319250e+00
  -1.008785e+02  -8.005580e+01
  -1.305142e+01  -1.596963e+02
   1.276727e+02  -1.394433e+02
   2.112962e+02  -1.054399e+01
   1.697909e+02   1.363460e+02
   3.889480e+01   1.955746e+02
  -7.832498e+01   1.403359e+02
  -1.083631e+02   3.508967e+01
  -6.946309e+01  -2.827536e+01
  -3.669939e+01  -1.972740e+01
  -5.163759e+01   1.474628e+01
  -8.055522e+01   7.603128e+00
  -5.787021e+01  -5.342901e+01
   2.967118e+01  -1.042649e+02
   1.116591e+02  -7.161127e+01
   1.036170e+02   3.721522e+01
  -1.267639e+01   1.214890e+02
  -1.481556e+02   8.569177e+01
  -1.823507e+02  -5.952704e+01
  -7.024940e+01  -1.900147e+02
   1.113889e+02  -1.941555e+02
   2.294579e+02  -7.081904e+01
   2.088956e+02   7.429409e+01
   8.773033e+01   1.401022e+02
  -2.873131e+01   1.159916e+02
  -7.055071e+01   7.187169e+01
  -5.519836e+01   6.660681e+01
  -4.578173e+01   8.798604e+01
  -7.632640e+01   7.433229e+01
  -1.181605e+02  -1.171296e+01
  -1.113945e+02  -1.306918e+02
  -3.116377e+01  -1.945713e+02
   8.147409e+01  -1.454045e+02
   1.450694e+02  -1.372759e+01
   1.099228e+02   1.052779e+02
   9.204936e+00   1.319325e+02
  -6.562968e+01   6.823481e+01
  -5.501698e+01  -1.504146e+01
   5.743775e+00  -5.052025e+01
   2.886257e+01  -3.331647e+01
  -2.071055e+01  -7.662180e+00
  -7.669168e+01  -1.091443e+01
  -4.741578e+01  -3.376727e+01
   6.644615e+01  -3.804949e+01
   1.585711e+02  -1.681917e+00
   1.287416e+02   5.555697e+01
  -3.896492e+00   8.914025e+01
  -1.204117e+02   6.867042e+01
  -1.261531e+02   6.790323e+00
  -3.838845e+01  -4.609090e+01
   4.982868e+01  -4.342207e+01
   6.876778e+01   1.211873e+01
   2.403714e+01   6.604000e+01
  -3.290530e+01   6.360402e+01
  -6.199595e+01   7.227567e+00
  -5.929120e+01  -4.270292e+01
  -4.679077e+01  -3.768669e+01
  -4.666622e+01  -4.081943e-01
  -5.635607e+01   2.760852e-01
  -4.543240e+01  -6.504104e+01
   1.593601e+01  -1.393250e+02
   1.098441e+02  -1.358275e+02
   1.661615e+02  -3.681976e+01
   1.231212e+02   7.997655e+01
   6.123595e+00   1.208001e+02
  -8.114725e+01   6.986529e+01
  -5.632405e+01  -3.259736e+00
   4.904282e+01  -2.008314e+01
   1.159411e+02   2.979702e+01
   6.206809e+01   8.882201e+01
  -7.081892e+01   9.639763e+01
  -1.621813e+02   4.194651e+01
  -1.345010e+02  -3.297198e+01
  -2.625555e+01  -7.255431e+01
   5.521500e+01  -5.187712e+01
   4.197551e+01   2.935555e+00
  -3.492659e+01   3.075808e+01
  -8.370186e+01  -1.176704e+01
  -4.360892e+01  -9.831116e+01
   5.646928e+01  -1.414061e+02
   1.302582e+02  -7.387574e+01
   1.153369e+02   6.828726e+01
   2.713921e+01   1.636294e+02
  -6.200445e+01   1.243392e+02
  -8.968956e+01  -6.985170e+00
  -5.050044e+01  -1.025598e+02
   1.160801e+01  -8.750925e+01
   4.688118e+01  -1.186143e+01
   3.872334e+01   2.668811e+01
   1.171655e+01   4.678729e+00
   5.233539e+00  -1.440227e+01
   3.078030e+01   2.075637e+01
   5.440528e+01   7.772243e+01
   2.837633e+01   8.821059e+01
  -5.004229e+01   3.711004e+01
  -1.184632e+02  -2.570516e+01
  -1.073460e+02  -5.302847e+01
  -1.959677e+01  -4.557624e+01
   6.488708e+01  -2.789606e+01
   7.337367e+01  -9.821682e+00
   1.790410e+01   9.289622e+00
  -2.683609e+01   1.938748e+01
  -1.733593e+01   1.034500e+01
   1.117738e+01  -4.740316e+00
  -1.537201e+00  -3.523381e+00
  -5.555930e+01   5.826558e+00
  -8.331677e+01  -1.319865e+01
  -2.791550e+01  -6.960823e+01
   8.407218e+01  -1.102145e+02
   1.623752e+02  -7.091059e+01
   1.409230e+02   3.998340e+01
   3.894543e+01   1.367887e+02
  -6.296883e+01   1.421629e+02
  -9.984323e+01   6.675676e+01
  -7.198544e+01  -1.104646e+01
  -2.653500e+01  -3.243579e+01
  -5.612307e+00  -1.348895e+01
  -1.411907e+01  -9.378739e+00
  -2.742656e+01  -4.375862e+01
  -1.801144e+01  -7.936240e+01
   2.154112e+01  -6.403611e+01
   6.779585e+01   7.743068e+00
   7.655473e+01   8.158189e+01
   2.292233e+01   9.452516e+01
  -6.038896e+01   3.538244e+01
  -9.765917e+01  -4.671612e+01
  -4.480936e+01  -8.796844e+01
   5.146093e+01  -6.403499e+01
   9.502017e+01  -1.281993e+00
   4.684078e+01   5.133875e+01
  -2.711638e+01   6.049413e+01
  -3.736069e+01   2.921135e+01
   1.909570e+01  -7.869617e+00
   5.872599e+01  -1.209798e+01
   1.830027e+01   2.341769e+01
  -6.558690e+01   6.077289e+01
  -1.056437e+02   5.095104e+01
  -6.635788e+01  -1.262393e+01
   6.114042e+00  -7.616626e+01
   4.798468e+01  -7.848612e+01
   4.190287e+01  -1.805660e+01
   1.241601e+01   4.331501e+01
  -1.631386e+01   4.649665e+01
  -3.300425e+01  -2.353403e+00
  -3.021158e+01  -4.487985e+01
  -4.024935e+00  -3.854791e+01
   2.945438e+01  -7.637266e-01
   4.075953e+01   2.009193e+01
   2.098349e+01   4.174958e+00
  -4.049570e+00  -1.843270e+01
  -5.801729e+00  -9.780715e+00
   8.379536e+00   2.765816e+01
   6.539901e+00   5.032257e+01
  -2.139906e+01   2.617162e+01
  -4.280335e+01  -2.515939e+01
  -2.079741e+01  -5.185113e+01
   3.225683e+01  -2.728049e+01
   5.929016e+01   2.243018e+01
   2.261691e+01   4.997265e+01
  -4.850682e+01   3.526390e+01
  -8.369810e+01  -2.906648e+00
  -4.721249e+01  -3.399069e+01
   2.218112e+01  -4.311946e+01
   5.500201e+01  -3.129458e+01
   2.621373e+01  -9.107406e+00
  -2.096712e+01   6.368749e+00
  -2.733954e+01   9.009087e-02
   1.616304e+01  -2.114114e+01
   6.185815e+01  -2.358674e+01
