
 $NMID
 id='ANONYMOUS ', fmtdat='(2E16.6)'
 volume=1.0
 tramp=1.0
 $END
   2.249373e+03  -3.282962e+01
   1.411288e+03   1.153680e+03
   8.023243e+01   1.551486e+03
  -9.131722e+02   1.087412e+03
  -8.713127e+02   1.782822e+02
  -2.201069e+02  -1.513792e+02
   3.327550e+02   8.820856e+01
   9.871517e+01   3.700088e+02
  -3.920134e+02   4.917600e+02
  -5.340369e+02   7.812518e+01
  -3.222336e+02  -4.003663e+02
  -4.952983e+01  -5.681995e+02
   2.094917e+02  -1.814699e+02
   2.393707e+02   2.596978e+02
  -9.958464e+01   3.537181e+02
  -3.581655e+02   5.161548e+01
  -2.826911e+02  -3.562960e+02
   6.439748e+01  -5.684434e+02
   4.236190e+02  -3.211173e+02
   4.006905e+02   1.059015e+02
   1.600647e+02   2.749081e+02
  -1.014510e+02   2.012591e+02
  -2.349760e+01   7.364875e+01
   1.773026e+02   1.042814e+02
   1.958791e+02   2.284267e+02
  -5.155465e+01   2.976666e+02
  -3.963324e+02   1.053996e+02
  -4.450051e+02  -1.534953e+02
  -1.314184e+02  -2.485353e+02
   2.665641e+02  -1.242498e+02
   3.964905e+02   1.223136e+02
   1.200728e+02   2.890113e+02
  -2.205220e+02   2.837409e+02
  -3.562467e+02   1.129022e+02
  -2.641536e+02  -1.189111e+02
  -8.384662e+01  -2.470949e+02
  -1.529746e+01  -1.384766e+02
  -6.198036e+01   4.894353e+01
  -1.388052e+02   7.325125e+01
  -1.030012e+02  -1.306612e+02
   3.391130e+01  -3.567945e+02
   1.773517e+02  -3.228161e+02
   1.905903e+02  -1.288037e+01
   7.074118e+01   2.009175e+02
  -8.767179e+01   7.743193e+01
  -8.139550e+01  -2.079091e+02
   1.155475e+02  -2.882127e+02
   3.493055e+02  -3.364047e+01
   3.798086e+02   3.091486e+02
   1.306250e+02   3.999665e+02
  -2.269510e+02   2.075686e+02
  -4.141667e+02  -4.341866e+01
  -2.852966e+02  -1.695701e+02
   1.017993e+01  -1.607661e+02
   2.074171e+02  -8.841279e+01
   1.818545e+02  -2.350985e+01
   4.655090e+01   2.687520e+00
  -1.043229e+01  -6.041154e+00
   6.843418e+01  -1.267749e+01
   1.558596e+02   3.180986e+01
   9.580669e+01   1.312673e+02
  -1.081528e+02   2.019030e+02
  -2.773631e+02   1.360817e+02
  -2.353996e+02  -7.720333e+01
   7.451912e+00  -2.945422e+02
   2.550866e+02  -3.294789e+02
   3.189176e+02  -1.374236e+02
   2.009440e+02   1.331896e+02
   5.675751e+01   2.865681e+02
   3.691059e+00   2.664880e+02
   5.549903e+00   1.737700e+02
  -3.948286e+01   1.215476e+02
  -1.448167e+02   1.029495e+02
  -2.202768e+02   3.220524e+01
  -1.902839e+02  -1.082105e+02
  -6.730402e+01  -2.110748e+02
   7.539765e+01  -1.536885e+02
   1.550105e+02   4.033469e+01
   1.122576e+02   2.094914e+02
  -4.101985e+01   2.110719e+02
  -2.081481e+02   4.911505e+01
  -2.602546e+02  -1.450703e+02
  -1.499873e+02  -2.396452e+02
   2.184997e+01  -2.142022e+02
   1.218795e+02  -1.464939e+02
   1.264621e+02  -9.738856e+01
   1.485897e+02  -7.645106e+01
   2.547149e+02  -2.592762e+01
   3.503811e+02   9.522264e+01
   2.707766e+02   2.597315e+02
  -2.067037e+01   3.733920e+02
  -3.234278e+02   3.399798e+02
  -4.052364e+02   1.532376e+02
  -2.394585e+02  -7.901300e+01
  -1.598593e+01  -2.051572e+02
   6.419991e+01  -1.591461e+02
  -1.107369e+01  -3.686389e+01
  -1.021972e+02   1.821981e+01
  -9.292506e+01  -3.683255e+01
   1.445752e+00  -1.081735e+02
   8.367364e+01  -7.711049e+01
   7.181389e+01   3.737920e+01
  -2.592434e+01   9.420229e+01
  -1.238629e+02  -7.494864e+00
  -1.241253e+02  -1.948497e+02
   8.452096e+00  -2.892544e+02
   2.029894e+02  -1.841909e+02
   3.128353e+02   4.488591e+01
   2.447704e+02   2.234897e+02
   5.155084e+01   2.342034e+02
  -1.080276e+02   1.179866e+02
  -1.204257e+02   8.999954e+00
  -2.582847e+01  -2.898079e-01
   3.530502e+01   5.978735e+01
  -1.361298e+01   9.091878e+01
  -1.049880e+02   4.619703e+01
  -1.157237e+02  -2.447094e+01
  -2.051649e+01  -3.827738e+01
   6.879850e+01   2.055178e+01
   2.647059e+01   8.513953e+01
  -1.360980e+02   7.612195e+01
  -2.661182e+02  -2.277977e+01
  -2.209448e+02  -1.534905e+02
  -1.638481e+01  -2.292078e+02
   1.827253e+02  -1.968779e+02
   2.247335e+02  -7.859795e+01
   1.105524e+02   3.556272e+01
  -2.247308e+01   5.987637e+01
  -4.375184e+01  -3.120333e+00
   5.040690e+01  -5.907856e+01
   1.504721e+02  -2.229077e+01
   1.508778e+02   8.430387e+01
   4.693975e+01   1.512099e+02
  -6.815671e+01   1.103082e+02
  -9.745241e+01   1.407383e+01
  -3.219357e+01  -2.670753e+01
   3.917556e+01   2.656456e+01
   2.052737e+01   1.031540e+02
  -8.919064e+01   1.044259e+02
  -1.832344e+02   7.375807e+00
  -1.535179e+02  -1.159790e+02
  -9.466476e+00  -1.724129e+02
   1.251741e+02  -1.243954e+02
   1.394486e+02  -1.597383e+01
   4.573286e+01   6.811740e+01
  -4.533610e+01   7.333877e+01
  -5.067477e+01   2.195455e+01
   5.366606e+00  -1.689430e+01
   3.578092e+01  -3.685420e+00
  -8.540040e+00   2.624142e+01
  -8.173241e+01   4.514052e+00
  -9.632717e+01  -8.038151e+01
  -9.839113e+00  -1.555691e+02
   1.266912e+02  -1.331443e+02
   2.062966e+02  -6.884934e+00
   1.635538e+02   1.353968e+02
   3.410346e+01   1.916889e+02
  -7.997871e+01   1.350339e+02
  -1.061028e+02   3.137072e+01
  -6.591216e+01  -3.000398e+01
  -3.349948e+01  -2.086669e+01
  -4.983865e+01   1.250697e+01
  -7.810564e+01   5.550282e+00
  -5.307823e+01  -5.276310e+01
   3.452854e+01  -9.820033e+01
   1.138808e+02  -6.360510e+01
   9.959912e+01   4.194606e+01
  -1.634885e+01   1.209538e+02
  -1.487964e+02   8.288821e+01
  -1.815044e+02  -5.880545e+01
  -6.951583e+01  -1.860142e+02
   1.100187e+02  -1.898526e+02
   2.254521e+02  -6.760917e+01
   2.033477e+02   7.486199e+01
   8.256117e+01   1.389569e+02
  -3.116379e+01   1.139748e+02
  -7.041970e+01   6.814802e+01
  -5.495979e+01   6.100350e+01
  -4.635986e+01   8.288871e+01
  -7.503650e+01   7.114063e+01
  -1.127755e+02  -1.230082e+01
  -1.040014e+02  -1.288348e+02
  -2.502543e+01  -1.906564e+02
   8.291964e+01  -1.404789e+02
   1.418486e+02  -8.816201e+00
   1.051318e+02   1.082052e+02
   6.860278e+00   1.316274e+02
  -6.494386e+01   6.595130e+01
  -5.476646e+01  -1.621232e+01
   3.796820e+00  -4.977001e+01
   2.572980e+01  -3.162893e+01
  -2.187079e+01  -7.453567e+00
  -7.456531e+01  -1.261176e+01
  -4.487210e+01  -3.572794e+01
   6.604369e+01  -3.816717e+01
   1.550306e+02  -6.851111e-02
   1.251302e+02   5.675958e+01
  -4.799549e+00   8.776150e+01
  -1.188608e+02   6.524771e+01
  -1.240706e+02   4.519661e+00
  -3.674283e+01  -4.525475e+01
   5.071500e+01  -4.093859e+01
   6.837307e+01   1.359904e+01
   2.197757e+01   6.592024e+01
  -3.547164e+01   6.236595e+01
  -6.279553e+01   6.475207e+00
  -5.791031e+01  -4.270191e+01
  -4.518879e+01  -3.832650e+01
  -4.555012e+01  -1.736332e+00
  -5.479920e+01  -6.761422e-01
  -4.269959e+01  -6.413423e+01
   1.834541e+01  -1.351588e+02
   1.083988e+02  -1.295692e+02
   1.603645e+02  -3.193296e+01
   1.162862e+02   8.020819e+01
   2.925997e+00   1.163491e+02
  -7.970713e+01   6.386483e+01
  -5.380704e+01  -6.100038e+00
   4.867532e+01  -1.853514e+01
   1.127740e+02   3.223149e+01
   5.941763e+01   8.831598e+01
  -7.037519e+01   9.255410e+01
  -1.593991e+02   3.760187e+01
  -1.315995e+02  -3.482860e+01
  -2.490582e+01  -7.141611e+01
   5.522104e+01  -4.960183e+01
   4.160613e+01   3.649685e+00
  -3.454401e+01   2.927059e+01
  -8.156864e+01  -1.373905e+01
  -4.040021e+01  -9.738021e+01
   5.901380e+01  -1.364346e+02
   1.293847e+02  -6.815227e+01
   1.104619e+02   7.013560e+01
   2.133877e+01   1.607023e+02
  -6.418633e+01   1.199708e+02
  -8.689350e+01  -8.978076e+00
  -4.608547e+01  -1.016259e+02
   1.329672e+01  -8.587153e+01
   4.500324e+01  -1.061394e+01
   3.632666e+01   2.793315e+01
   1.100728e+01   6.053705e+00
   5.077062e+00  -1.393591e+01
   2.903435e+01   1.937504e+01
   5.126371e+01   7.546807e+01
   2.620548e+01   8.631004e+01
  -4.893395e+01   3.548964e+01
  -1.149232e+02  -2.786402e+01
  -1.039306e+02  -5.488686e+01
  -1.775204e+01  -4.552340e+01
   6.533612e+01  -2.523456e+01
   7.315324e+01  -6.403326e+00
   1.743385e+01   1.082655e+01
  -2.806060e+01   1.861435e+01
  -1.861864e+01   8.834151e+00
   1.037419e+01  -5.436537e+00
  -9.071021e-01  -3.877287e+00
  -5.299479e+01   4.885928e+00
  -7.980716e+01  -1.413057e+01
  -2.531757e+01  -6.790916e+01
   8.366898e+01  -1.047059e+02
   1.584989e+02  -6.500007e+01
   1.351762e+02   4.180257e+01
   3.431666e+01   1.334899e+02
  -6.445664e+01   1.367117e+02
  -9.876913e+01   6.221362e+01
  -6.989645e+01  -1.354149e+01
  -2.474191e+01  -3.345320e+01
  -3.933315e+00  -1.341482e+01
  -1.224830e+01  -8.350702e+00
  -2.498819e+01  -4.175530e+01
  -1.597786e+01  -7.708896e+01
   2.179176e+01  -6.171652e+01
   6.534853e+01   9.515380e+00
   7.220571e+01   8.221223e+01
   1.941218e+01   9.304168e+01
  -6.023682e+01   3.240217e+01
  -9.421176e+01  -4.870053e+01
  -4.130906e+01  -8.719259e+01
   5.186328e+01  -6.092655e+01
   9.224742e+01   1.056944e+00
   4.407538e+01   5.074507e+01
  -2.783672e+01   5.789648e+01
  -3.691588e+01   2.755735e+01
   1.929798e+01  -7.242160e+00
   5.791798e+01  -1.069475e+01
   1.786079e+01   2.312003e+01
  -6.514188e+01   5.796697e+01
  -1.044415e+02   4.731205e+01
  -6.485714e+01  -1.398467e+01
   7.886019e+00  -7.456996e+01
   4.947889e+01  -7.528225e+01
   4.225862e+01  -1.527587e+01
   1.105585e+01   4.398326e+01
  -1.800575e+01   4.508106e+01
  -3.318705e+01  -4.205613e+00
  -2.806575e+01  -4.542998e+01
  -1.425586e+00  -3.713214e+01
   2.955524e+01   2.012030e+00
   3.818940e+01   2.266295e+01
   1.780002e+01   5.669560e+00
  -6.012641e+00  -1.877294e+01
  -6.754639e+00  -1.201389e+01
   8.155254e+00   2.409307e+01
   6.855997e+00   4.700648e+01
  -1.943537e+01   2.506623e+01
  -3.930906e+01  -2.367541e+01
  -1.851256e+01  -4.911716e+01
   3.133987e+01  -2.501813e+01
   5.664632e+01   2.300138e+01
   2.093550e+01   4.898903e+01
  -4.750553e+01   3.331848e+01
  -8.128801e+01  -4.586733e+00
  -4.571072e+01  -3.439541e+01
   2.262551e+01  -4.158912e+01
   5.551310e+01  -2.918279e+01
   2.730736e+01  -7.872984e+00
  -2.007355e+01   6.425872e+00
  -2.752403e+01   3.698909e-01
   1.487531e+01  -1.933406e+01
   6.013193e+01  -2.119192e+01
