
 $NMID
 id='ANONYMOUS ', fmtdat='(2E16.6)'
 volume=1.0
 tramp=1.0
 $END
  -3.848953e+03  -1.460673e+02
  -2.462574e+03  -2.146459e+03
   2.891191e+02  -2.431017e+03
   1.660757e+03  -9.670667e+02
   1.040222e+03   2.676258e+02
  -1.707368e+02   4.996378e+02
  -6.398992e+02  -3.338505e+02
  -4.754502e+01  -8.657444e+02
   6.159601e+02  -6.408001e+02
   7.974685e+02   3.065916e+01
   4.511439e+02   6.585355e+02
  -7.876946e+01   7.995462e+02
  -4.100341e+02   1.832647e+02
  -3.913502e+02  -6.068512e+02
   2.008971e+02  -6.620441e+02
   4.958616e+02  -7.188203e+01
   2.647681e+02   5.814432e+02
  -2.209003e+02   5.635832e+02
  -5.369391e+02   1.867119e+02
  -3.640430e+02  -2.670070e+02
  -6.646590e+01  -3.882643e+02
   2.103879e+02  -2.878630e+02
   1.428571e+02  -2.493156e+01
  -1.762788e+02   4.131696e+00
  -4.152722e+02  -1.332867e+02
  -1.296285e+02  -3.729994e+02
   4.471219e+02  -3.435040e+02
   7.590978e+02   3.208582e+01
   3.700341e+02   4.384240e+02
  -3.339545e+02   3.955322e+02
  -6.468467e+02  -3.290232e+01
  -3.180471e+02  -4.363307e+02
   2.507497e+02  -4.791158e+02
   5.093149e+02  -2.139057e+02
   4.107897e+02   1.907884e+02
   1.036471e+02   4.343104e+02
  -1.424890e+02   2.948865e+02
  -1.317310e+02  -1.661764e+02
   1.476162e+02  -3.705400e+02
   3.599124e+02   9.551309e+00
   2.065888e+02   5.988525e+02
  -2.471720e+02   6.241401e+02
  -5.146172e+02   5.595445e+01
  -2.585211e+02  -4.598312e+02
   2.220770e+02  -2.757642e+02
   3.252277e+02   2.815358e+02
  -5.062437e+01   5.099373e+02
  -5.081407e+02   1.435343e+02
  -5.766785e+02  -3.644311e+02
  -1.997401e+02  -5.554683e+02
   3.257641e+02  -3.437513e+02
   5.948720e+02   3.032808e+01
   3.864721e+02   3.160799e+02
  -9.358329e+01   3.257207e+02
  -3.855542e+02   8.909488e+01
  -2.424363e+02  -1.243450e+02
   7.133021e+01  -8.121890e+01
   1.190196e+02   1.153035e+02
  -1.384422e+02   1.560775e+02
  -3.233114e+02  -4.538723e+01
  -1.684257e+02  -2.611536e+02
   1.607561e+02  -2.784586e+02
   3.326576e+02  -1.274190e+02
   2.363320e+02   6.959922e+01
  -1.782105e+00   2.561551e+02
  -2.266076e+02   3.519247e+02
  -3.377400e+02   2.180447e+02
  -2.791083e+02  -1.261239e+02
  -9.435249e+01  -3.995669e+02
   5.890285e+01  -3.668337e+02
   7.295776e+01  -1.482546e+02
   3.069444e+01  -4.133388e+01
   7.933518e+01  -1.020015e+02
   2.077772e+02  -1.098045e+02
   2.585466e+02   6.201499e+01
   1.420388e+02   2.505669e+02
  -5.981287e+01   2.315579e+02
  -2.022001e+02   3.372468e+00
  -1.821858e+02  -2.282665e+02
   4.645118e-01  -2.805096e+02
   2.434966e+02  -1.163530e+02
   3.502332e+02   1.423959e+02
   2.052702e+02   3.217373e+02
  -6.012265e+01   2.967298e+02
  -1.996817e+02   1.459494e+02
  -1.491578e+02   3.663929e+01
  -1.090301e+02   5.201619e+01
  -2.434837e+02   6.684257e+01
  -4.077628e+02  -4.521409e+01
  -3.430347e+02  -2.684603e+02
  -1.315465e+01  -4.357859e+02
   3.439243e+02  -4.225632e+02
   4.715417e+02  -2.143061e+02
   3.198821e+02   7.806539e+01
   5.456905e+01   2.766632e+02
  -1.077513e+02   2.428863e+02
  -5.974970e+01   3.773688e+01
   1.020239e+02  -9.133593e+01
   1.727206e+02   1.092203e+00
   4.833389e+01   1.721435e+02
  -1.343195e+02   1.608803e+02
  -1.620963e+02  -4.304858e+01
   5.982800e+00  -1.719176e+02
   1.802373e+02  -3.462482e+01
   1.752388e+02   2.298716e+02
  -9.416253e+00   3.462063e+02
  -2.256007e+02   2.125929e+02
  -3.428335e+02  -4.106001e+01
  -2.913158e+02  -2.309107e+02
  -9.723439e+01  -2.627613e+02
   1.108649e+02  -1.607723e+02
   1.670380e+02  -2.578379e+01
   5.208737e+01   2.222960e+01
  -6.657843e+01  -4.357475e+01
  -2.577683e+01  -1.208291e+02
   1.182076e+02  -9.629342e+01
   1.691033e+02   8.085733e+00
   5.405163e+01   6.470582e+01
  -7.934483e+01   1.220822e+01
  -5.314427e+01  -7.590602e+01
   1.265626e+02  -9.350965e+01
   2.857490e+02  -9.372807e+00
   2.655371e+02   1.319235e+02
   6.300728e+01   2.501653e+02
  -1.735123e+02   2.602372e+02
  -2.660129e+02   1.336759e+02
  -1.592410e+02  -3.664109e+01
   1.939008e+01  -9.724708e+01
   7.945739e+01  -6.984946e+00
  -3.465131e+01   9.626048e+01
  -1.881073e+02   5.963193e+01
  -2.103078e+02  -9.255664e+01
  -7.748456e+01  -1.960270e+02
   8.231554e+01  -1.523833e+02
   1.352995e+02  -3.110574e+01
   6.486917e+01   3.451258e+01
  -3.162472e+01  -5.982841e+00
  -3.797956e+01  -8.977687e+01
   7.265897e+01  -1.163286e+02
   1.979180e+02  -3.330452e+01
   1.929315e+02   1.146677e+02
   2.929180e+01   2.113285e+02
  -1.516920e+02   1.677319e+02
  -1.862336e+02   1.856468e+01
  -6.764404e+01  -1.046448e+02
   5.977906e+01  -1.103089e+02
   7.751126e+01  -3.302467e+01
   1.342697e+01   2.399708e+01
  -2.690295e+01   1.538831e+01
   9.637394e+00  -1.572992e+01
   7.968298e+01   1.324173e+00
   1.005991e+02   7.992144e+01
   2.428376e+01   1.629325e+02
  -1.202350e+02   1.600424e+02
  -2.307685e+02   3.707095e+01
  -2.069994e+02  -1.363389e+02
  -5.704549e+01  -2.284088e+02
   9.281302e+01  -1.727876e+02
   1.306212e+02  -3.814889e+01
   7.495268e+01   4.688724e+01
   3.296936e+01   3.211600e+01
   5.225151e+01  -1.591651e+01
   8.155638e+01  -1.220927e+01
   5.056452e+01   4.927886e+01
  -3.401370e+01   9.724747e+01
  -1.052194e+02   6.616106e+01
  -9.455778e+01  -3.339802e+01
   6.717934e+00  -1.164604e+02
   1.421629e+02  -9.464737e+01
   2.005179e+02   4.388034e+01
   1.076713e+02   1.983789e+02
  -9.769737e+01   2.313971e+02
  -2.602432e+02   1.057249e+02
  -2.583121e+02  -7.197000e+01
  -1.157608e+02  -1.672083e+02
   3.162429e+01  -1.458676e+02
   8.883656e+01  -8.892649e+01
   7.176695e+01  -7.434417e+01
   5.726086e+01  -9.534547e+01
   8.566252e+01  -8.085025e+01
   1.301759e+02   1.217943e+01
   1.279632e+02   1.449230e+02
   4.373479e+01   2.221402e+02
  -8.685968e+01   1.761410e+02
  -1.711058e+02   2.926842e+01
  -1.401896e+02  -1.140804e+02
  -2.603709e+01  -1.562975e+02
   6.418372e+01  -9.166908e+01
   6.124987e+01   1.459793e+00
   4.477228e+00   4.646165e+01
  -1.429413e+01   3.594746e+01
   3.390628e+01   1.451918e+01
   8.216134e+01   1.679648e+01
   4.833069e+01   3.563853e+01
  -6.511701e+01   4.053191e+01
  -1.626649e+02   1.055212e+01
  -1.451364e+02  -4.502383e+01
  -1.451535e+01  -8.818376e+01
   1.196142e+02  -7.987243e+01
   1.425381e+02  -2.023216e+01
   4.894747e+01   4.038398e+01
  -5.762591e+01   4.363235e+01
  -7.863239e+01  -1.304439e+01
  -1.807721e+01  -6.954397e+01
   4.725800e+01  -6.502649e+01
   6.601592e+01  -4.919042e+00
   5.388441e+01   4.624277e+01
   4.863075e+01   3.970649e+01
   5.895190e+01  -1.971949e-01
   6.466583e+01  -1.396901e+00
   4.190164e+01   6.768435e+01
  -2.247223e+01   1.490288e+02
  -1.112750e+02   1.489295e+02
  -1.681882e+02   4.384088e+01
  -1.313974e+02  -8.384966e+01
  -1.305913e+01  -1.279292e+02
   8.401757e+01  -7.103095e+01
   6.127412e+01   7.834165e+00
  -5.656769e+01   2.318932e+01
  -1.371009e+02  -3.278450e+01
  -7.990188e+01  -9.974451e+01
   7.347637e+01  -1.141378e+02
   1.841027e+02  -6.115578e+01
   1.602055e+02   2.386771e+01
   4.003054e+01   8.151880e+01
  -5.625072e+01   7.022679e+01
  -4.757044e+01   8.078875e+00
   3.683787e+01  -3.099723e+01
   9.145751e+01   1.374090e+01
   4.347890e+01   1.133488e+02
  -7.435623e+01   1.596863e+02
  -1.565251e+02   7.642156e+01
  -1.314491e+02  -8.733601e+01
  -2.587834e+01  -1.920618e+02
   7.287976e+01  -1.459173e+02
   1.028201e+02   2.012519e+00
   6.525598e+01   1.126639e+02
   1.248474e+00   1.026379e+02
  -4.588353e+01   2.053874e+01
  -5.103186e+01  -2.710776e+01
  -2.288013e+01  -6.178757e+00
  -3.061845e+00   1.845090e+01
  -2.444936e+01  -1.673750e+01
  -6.148406e+01  -8.377890e+01
  -4.525855e+01  -1.025501e+02
   4.664313e+01  -4.655655e+01
   1.386209e+02   2.815693e+01
   1.306778e+02   6.017913e+01
   2.102936e+01   4.957171e+01
  -8.262571e+01   2.990341e+01
  -8.566257e+01   1.316094e+01
  -1.331758e+01  -7.769904e+00
   3.499562e+01  -2.400199e+01
   1.397343e+01  -1.686412e+01
  -1.915163e+01   3.494332e+00
   5.508968e+00   6.552438e+00
   7.169678e+01  -3.167676e+00
   9.351287e+01   1.750067e+01
   1.891849e+01   8.054711e+01
  -1.059966e+02   1.233843e+02
  -1.817138e+02   7.329528e+01
  -1.495877e+02  -5.446366e+01
  -3.911581e+01  -1.580770e+02
   6.847400e+01  -1.557829e+02
   1.097289e+02  -6.852530e+01
   8.101239e+01   1.451195e+01
   2.797815e+01   3.400621e+01
   5.000727e-01   1.041652e+01
   1.246210e+01   4.989993e+00
   3.529722e+01   4.433368e+01
   2.688995e+01   8.805153e+01
  -2.447689e+01   7.326735e+01
  -8.116132e+01  -1.070521e+01
  -8.484833e+01  -9.875482e+01
  -1.515358e+01  -1.098738e+02
   7.742382e+01  -3.287586e+01
   1.079500e+02   6.277254e+01
   4.184544e+01   9.952180e+01
  -6.022568e+01   6.327274e+01
  -9.860094e+01  -2.374683e+00
  -4.427469e+01  -4.905554e+01
   2.856969e+01  -5.645357e+01
   3.128449e+01  -3.004438e+01
  -3.060474e+01   4.732893e+00
  -6.665802e+01   1.169017e+01
  -1.703857e+01  -2.504784e+01
   7.301972e+01  -7.002637e+01
   1.111081e+02  -6.231738e+01
   6.596712e+01   1.038320e+01
  -8.987892e+00   8.351646e+01
  -4.836365e+01   8.224272e+01
  -3.881311e+01   1.020494e+01
  -7.254846e+00  -5.346637e+01
   2.156556e+01  -4.557196e+01
   3.719345e+01   1.241562e+01
   3.074108e+01   5.117620e+01
   7.925807e-01   3.541616e+01
  -3.247989e+01  -4.164438e+00
  -4.071962e+01  -1.883667e+01
  -2.084906e+01  -1.722387e-01
   1.461587e+00   1.654165e+01
   4.956885e+00   8.225749e-01
  -4.298980e-01  -3.556956e+01
   7.923033e+00  -4.898707e+01
   3.008699e+01  -1.552368e+01
   3.733136e+01   3.867649e+01
   7.755753e+00   6.006376e+01
  -4.124245e+01   2.561780e+01
  -6.094456e+01  -3.243135e+01
  -2.070933e+01  -6.034365e+01
   5.257499e+01  -3.830702e+01
   9.038161e+01   7.500428e+00
   5.210941e+01   4.010959e+01
  -2.561058e+01   4.429276e+01
  -6.278306e+01   2.781111e+01
  -2.535770e+01   6.555235e+00
   3.375928e+01  -2.853642e+00
   3.698606e+01   9.815151e+00
  -2.522607e+01   3.134673e+01
  -8.396287e+01   2.639523e+01
