
 $NMID
 id='ANONYMOUS ', fmtdat='(2E16.6)'
 volume=1.0
 tramp=1.0
 $END
   1.169500e+03   5.110174e+00
   7.472763e+02   6.904009e+02
   3.419107e+01   7.599193e+02
  -3.744467e+02   6.074454e+02
  -2.843806e+02   7.345496e+01
  -1.019834e+02  -3.854802e+01
   1.202895e+01   1.574572e+01
   7.242977e+01   2.005209e+02
  -2.166160e+02   1.590171e+02
  -3.120481e+02   1.499679e+01
  -1.877614e+02  -2.004136e+02
   9.015617e+01  -2.185825e+02
   1.665416e+02  -9.462425e-01
   2.745510e+01   1.886623e+02
  -4.890941e+01   2.068138e+02
  -1.854316e+02   1.706163e+01
  -1.549078e+02  -2.034217e+02
   9.378744e+01  -2.814139e+02
   1.855017e+02  -1.016583e+02
   1.910362e+02   1.392500e+02
   3.759166e+01   1.737549e+02
   9.589808e+00   8.090862e+01
  -4.388818e+01   2.038909e+01
   5.619610e+01   2.086227e+01
   6.154818e+01   1.268170e+02
  -5.249592e+01   1.863180e+02
  -1.818520e+02   3.631802e+01
  -2.043565e+02  -1.272656e+02
  -6.718888e+01  -1.839601e+02
   1.335556e+02  -7.655355e+01
   2.030515e+02   8.287371e+01
   6.615252e+01   1.484965e+02
  -1.241191e+02   1.404822e+02
  -1.978225e+02   2.351928e+01
  -1.244666e+02  -7.169295e+01
  -1.260525e+01  -1.064644e+02
   3.037446e+01  -5.326299e+01
  -2.688972e+01   4.899947e+01
  -9.640989e+01   3.159833e+01
  -6.493612e+01  -7.810711e+01
   3.574518e+01  -1.812449e+02
   1.213186e+02  -1.270772e+02
   1.256439e+02   4.771130e+01
  -6.010705e-01   1.249526e+02
  -8.161979e+01   1.785745e+01
  -5.487180e+01  -1.245153e+02
   7.514918e+01  -1.338477e+02
   1.705558e+02   7.588064e+00
   1.673041e+02   1.638897e+02
   3.431107e+01   1.928642e+02
  -1.360771e+02   9.582547e+01
  -1.989254e+02  -4.415136e+01
  -1.138980e+02  -1.158081e+02
   3.309655e+01  -8.812037e+01
   1.111756e+02  -1.487625e+01
   7.047938e+01   2.626684e+01
  -6.119889e+00   6.798106e+00
  -1.252065e+01  -2.246523e+01
   5.031009e+01  -1.087644e+01
   8.487664e+01   3.911318e+01
   2.826851e+01   8.027427e+01
  -7.779068e+01   7.951366e+01
  -1.389413e+02   3.296002e+01
  -9.876021e+01  -4.739607e+01
   1.838545e+01  -1.251032e+02
   1.308735e+02  -1.369281e+02
   1.598348e+02  -4.955847e+01
   9.530214e+01   8.021055e+01
   6.928373e+00   1.497815e+02
  -2.964784e+01   1.247088e+02
  -1.693562e+01   6.785511e+01
  -1.898010e+01   4.674227e+01
  -6.658902e+01   4.461373e+01
  -1.121099e+02   8.306927e+00
  -9.433222e+01  -6.509175e+01
  -1.784582e+01  -1.106980e+02
   5.672013e+01  -7.467498e+01
   7.923476e+01   2.232855e+01
   4.297873e+01   1.050390e+02
  -3.639179e+01   1.032252e+02
  -1.094564e+02   1.470015e+01
  -1.148117e+02  -9.340404e+01
  -4.522396e+01  -1.348045e+02
   4.554722e+01  -9.793858e+01
   7.607864e+01  -4.334391e+01
   6.012755e+01  -2.779576e+01
   5.983222e+01  -2.901281e+01
   1.171753e+02  -8.772680e+00
   1.652656e+02   6.603251e+01
   1.166885e+02   1.512294e+02
  -3.524700e+01   1.812661e+02
  -1.790148e+02   1.366092e+02
  -2.077293e+02   3.820789e+01
  -1.122334e+02  -6.159182e+01
   9.591558e+00  -1.046013e+02
   5.174265e+01  -7.098010e+01
   6.080412e+00  -8.657382e+00
  -5.674772e+01   9.908741e+00
  -5.133069e+01  -2.736960e+01
   1.300008e+01  -5.929438e+01
   6.012746e+01  -3.133821e+01
   3.925438e+01   3.208846e+01
  -2.776001e+01   5.036318e+01
  -6.798383e+01  -1.411548e+01
  -4.452081e+01  -1.036289e+02
   2.968121e+01  -1.331158e+02
   1.085157e+02  -7.207146e+01
   1.415725e+02   4.020166e+01
   1.016774e+02   1.188861e+02
   1.224810e+01   1.176858e+02
  -6.030929e+01   5.374445e+01
  -6.221256e+01  -5.137925e+00
  -1.126051e+01  -9.030679e+00
   2.046435e+01   2.832556e+01
  -7.302129e+00   4.881150e+01
  -5.624210e+01   2.104161e+01
  -5.929573e+01  -2.080746e+01
  -8.729715e+00  -2.558707e+01
   3.459515e+01   1.045351e+01
   1.313602e+01   4.217897e+01
  -6.311092e+01   2.935347e+01
  -1.208480e+02  -2.525758e+01
  -9.632520e+01  -8.483049e+01
   2.794344e+00  -1.096750e+02
   9.946405e+01  -8.242610e+01
   1.170744e+02  -2.087673e+01
   5.354487e+01   2.986735e+01
  -1.912404e+01   3.123612e+01
  -2.833241e+01  -6.318611e+00
   2.569298e+01  -3.101887e+01
   7.702576e+01  -4.582320e+00
   7.005282e+01   5.061846e+01
   1.171661e+01   7.766394e+01
  -4.279774e+01   4.963544e+01
  -4.955274e+01  -3.206096e-01
  -1.359984e+01  -1.895324e+01
   1.984660e+01   9.470435e+00
   8.299922e+00   4.830675e+01
  -4.547201e+01   4.836934e+01
  -8.834373e+01  -1.470314e+00
  -6.916409e+01  -6.336594e+01
   5.290488e+00  -8.629145e+01
   6.996762e+01  -5.327115e+01
   6.926531e+01   4.831093e+00
   1.543747e+01   3.994858e+01
  -2.958911e+01   3.264275e+01
  -2.747655e+01   4.542386e+00
   3.516765e+00  -1.005256e+01
   1.709323e+01  -8.705511e-01
  -3.478856e+00   1.096548e+01
  -3.604691e+01  -2.082339e+00
  -3.978543e+01  -4.142292e+01
   1.923616e+00  -7.127541e+01
   6.460392e+01  -5.433445e+01
   9.780562e+01   7.482037e+00
   7.103206e+01   7.261390e+01
   3.432358e+00   9.200966e+01
  -4.946336e+01   5.791397e+01
  -5.317214e+01   6.251879e+00
  -2.690030e+01  -1.983227e+01
  -1.110214e+01  -1.137411e+01
  -2.318244e+01   3.977237e+00
  -3.622569e+01  -4.107746e-01
  -2.128785e+01  -2.486967e+01
   1.941871e+01  -4.210850e+01
   5.309956e+01  -2.436598e+01
   4.292358e+01   2.112689e+01
  -1.090159e+01   5.304176e+01
  -7.085689e+01   3.298263e+01
  -8.336609e+01  -3.267424e+01
  -2.614662e+01  -9.136161e+01
   6.063292e+01  -8.649601e+01
   1.112595e+02  -2.308470e+01
   9.301539e+01   4.711460e+01
   3.070830e+01   7.217852e+01
  -2.238348e+01   5.329232e+01
  -3.744146e+01   2.586879e+01
  -2.899097e+01   2.230060e+01
  -2.536677e+01   3.423542e+01
  -3.823304e+01   2.847208e+01
  -5.150963e+01  -1.170056e+01
  -4.109879e+01  -6.580741e+01
  -2.777192e-01  -9.162154e+01
   4.918873e+01  -6.217418e+01
   7.027212e+01   4.132678e+00
   4.521879e+01   5.801403e+01
  -4.299774e+00   6.381793e+01
  -3.529099e+01   2.926741e+01
  -2.520403e+01  -8.723432e+00
   3.728697e+00  -2.213153e+01
   1.234011e+01  -1.467133e+01
  -1.039853e+01  -6.791385e+00
  -3.239979e+01  -1.021844e+01
  -1.745380e+01  -1.767672e+01
   3.218724e+01  -1.384426e+01
   7.034086e+01   6.460899e+00
   5.551633e+01   3.162198e+01
  -4.265927e+00   4.156469e+01
  -5.687667e+01   2.581801e+01
  -5.874766e+01  -4.131856e+00
  -1.631178e+01  -2.357113e+01
   2.502792e+01  -1.624690e+01
   3.094159e+01   9.671568e+00
   6.378841e+00   2.927579e+01
  -1.878570e+01   2.408849e+01
  -2.598733e+01  -3.265904e-01
  -2.087437e+01  -2.025175e+01
  -1.763089e+01  -1.700166e+01
  -2.237509e+01  -1.431742e+00
  -2.732604e+01  -1.555728e+00
  -1.725747e+01  -2.967863e+01
   1.419742e+01  -6.056533e+01
   5.445491e+01  -5.531788e+01
   7.255152e+01  -8.333114e+00
   4.852935e+01   4.219188e+01
  -4.153663e+00   5.337071e+01
  -3.910352e+01   2.381326e+01
  -2.391799e+01  -7.856646e+00
   2.416537e+01  -6.895862e+00
   5.162430e+01   2.148296e+01
   2.401349e+01   4.564662e+01
  -3.779094e+01   4.075057e+01
  -7.768083e+01   1.005583e+01
  -6.095016e+01  -2.343563e+01
  -8.293408e+00  -3.623220e+01
   2.920784e+01  -2.195650e+01
   1.981590e+01   2.987835e+00
  -1.776459e+01   1.116766e+01
  -3.730857e+01  -1.189055e+01
  -1.193921e+01  -4.847560e+01
   3.788816e+01  -5.885101e+01
   6.592323e+01  -2.107723e+01
   4.683248e+01   4.183201e+01
  -1.800410e+00   7.634089e+01
  -3.980321e+01   5.066618e+01
  -4.191008e+01  -1.064877e+01
  -1.603975e+01  -5.130191e+01
   1.191711e+01  -4.097564e+01
   2.308693e+01  -3.423458e+00
   1.648318e+01   1.593314e+01
   5.220960e+00   4.674738e+00
   3.078789e+00  -7.365682e+00
   1.243432e+01   7.870575e+00
   1.989618e+01   3.727299e+01
   7.902139e+00   4.411944e+01
  -2.418764e+01   1.607498e+01
  -5.148409e+01  -2.032117e+01
  -4.485074e+01  -3.415793e+01
  -5.234144e+00  -2.268443e+01
   3.268239e+01  -5.838087e+00
   3.515260e+01   3.289523e+00
   7.085710e+00   6.107060e+00
  -1.541001e+01   6.205025e+00
  -1.008960e+01   3.227349e+00
   5.027301e+00  -1.059400e+00
  -9.144312e-02  -2.008408e+00
  -2.550045e+01  -2.244574e+00
  -3.619884e+01  -1.263610e+01
  -6.603658e+00  -3.353965e+01
   4.630135e+01  -4.332867e+01
   7.723185e+01  -2.021895e+01
   5.935734e+01   2.802549e+01
   8.039130e+00   6.414164e+01
  -3.696995e+01   5.925933e+01
  -4.876225e+01   2.236587e+01
  -3.201531e+01  -1.061589e+01
  -9.651052e+00  -1.662693e+01
  -1.527135e-01  -5.677225e+00
  -4.675973e+00  -3.839563e+00
  -1.024478e+01  -2.050266e+01
  -4.122821e+00  -3.701025e+01
   1.437483e+01  -2.794508e+01
   3.100195e+01   8.194322e+00
   2.855513e+01   4.258786e+01
   2.179924e+00   4.447796e+01
  -3.017542e+01   1.125528e+01
  -3.939975e+01  -2.820971e+01
  -1.306873e+01  -4.219091e+01
   2.637311e+01  -2.431798e+01
   4.076325e+01   5.515448e+00
   1.722081e+01   2.464804e+01
  -1.514464e+01   2.389474e+01
  -1.787565e+01   1.063879e+01
   9.228789e+00  -1.826348e+00
   2.766590e+01  -2.195285e+00
   7.946131e+00   1.065066e+01
  -3.243149e+01   2.287922e+01
  -5.050017e+01   1.750181e+01
  -2.846321e+01  -8.373452e+00
   8.490623e+00  -3.315045e+01
   2.704775e+01  -3.171228e+01
   1.929359e+01  -4.331797e+00
   1.163942e+00   2.127396e+01
  -1.123940e+01   1.952033e+01
  -1.429819e+01  -4.689057e+00
  -9.385599e+00  -2.266651e+01
   1.687653e+00  -1.601197e+01
   1.311566e+01   4.052914e+00
   1.548334e+01   1.291472e+01
   6.764823e+00   3.312818e+00
  -2.731404e+00  -9.241018e+00
  -3.341282e+00  -5.877729e+00
   1.507441e+00   1.045580e+01
   2.002199e-01   2.011522e+01
  -9.436057e+00   8.785790e+00
  -1.463789e+01  -1.325356e+01
  -4.084547e+00  -2.270635e+01
   1.560891e+01  -9.005887e+00
   2.329779e+01   1.412673e+01
   5.802884e+00   2.404777e+01
  -2.387206e+01   1.266574e+01
  -3.704833e+01  -7.479641e+00
  -1.922125e+01  -1.959786e+01
   1.252669e+01  -1.835462e+01
   2.723897e+01  -1.010132e+01
   1.288718e+01  -2.456017e+00
  -9.720000e+00  -5.621795e-02
  -1.186965e+01  -3.528230e+00
   1.026965e+01  -8.348020e+00
   3.142638e+01  -4.664478e+00
