
 $NMID
 id='ANONYMOUS ', fmtdat='(2E16.6)'
 volume=1.0
 tramp=1.0
 $END
  -2.675568e+03   1.338048e+02
  -2.037307e+03  -1.405326e+03
  -9.805628e+01  -1.924447e+03
   9.944654e+02  -1.320991e+03
   9.776679e+02  -3.372312e+02
   2.687627e+02   3.426544e+02
  -3.537421e+02   2.057608e+01
  -1.239947e+02  -4.401322e+02
   4.000847e+02  -5.061252e+02
   6.126026e+02  -1.098233e+02
   3.719293e+02   4.508326e+02
   8.025624e+01   6.237150e+02
  -2.065702e+02   3.102586e+02
  -2.432306e+02  -2.803628e+02
   6.815359e+01  -5.268943e+02
   3.774050e+02  -1.456405e+02
   3.221643e+02   4.405471e+02
  -5.884149e+01   6.415551e+02
  -4.355915e+02   3.198955e+02
  -4.721978e+02  -1.516224e+02
  -1.801432e+02  -3.380077e+02
   7.971549e+01  -2.471309e+02
   5.978629e+01  -1.158218e+02
  -1.468869e+02  -1.480237e+02
  -2.005476e+02  -2.957708e+02
   7.126680e+01  -3.226909e+02
   4.218129e+02  -1.200914e+02
   5.129995e+02   1.662595e+02
   1.714800e+02   2.719097e+02
  -2.631992e+02   1.500172e+02
  -4.044677e+02  -9.446072e+01
  -1.551475e+02  -2.931267e+02
   2.155248e+02  -3.208956e+02
   3.807462e+02  -1.504093e+02
   2.981599e+02   1.070421e+02
   1.175874e+02   2.792229e+02
   2.861336e+01   1.875993e+02
   6.649951e+01  -3.401672e+01
   1.568317e+02  -8.094027e+01
   1.280316e+02   1.296740e+02
  -2.172103e+01   3.968455e+02
  -1.842916e+02   3.724212e+02
  -2.286778e+02   3.728304e+01
  -8.897781e+01  -2.172894e+02
   8.508730e+01  -9.283724e+01
   1.002869e+02   2.236942e+02
  -1.123437e+02   3.134163e+02
  -3.716950e+02   3.693311e+01
  -4.132417e+02  -3.241207e+02
  -1.519478e+02  -4.293040e+02
   2.359635e+02  -2.370093e+02
   4.513373e+02   3.431649e+01
   3.320029e+02   1.827837e+02
   7.428718e+00   1.834939e+02
  -2.276584e+02   1.084870e+02
  -2.125189e+02   3.311186e+01
  -5.225044e+01  -1.554728e+00
   2.353211e+01   1.139877e+01
  -7.122670e+01   2.550614e+01
  -1.868603e+02  -2.904138e+01
  -1.243660e+02  -1.530306e+02
   1.178974e+02  -2.348609e+02
   3.199221e+02  -1.492838e+02
   2.684770e+02   9.437433e+01
  -1.349587e+01   3.257117e+02
  -2.884006e+02   3.533755e+02
  -3.482116e+02   1.447817e+02
  -2.127054e+02  -1.427293e+02
  -6.031896e+01  -3.069685e+02
  -8.246821e+00  -2.888449e+02
  -7.933086e+00  -1.942540e+02
   4.674518e+01  -1.386008e+02
   1.628876e+02  -1.118512e+02
   2.417975e+02  -2.736441e+01
   2.013616e+02   1.238616e+02
   6.414144e+01   2.251354e+02
  -8.212486e+01   1.595929e+02
  -1.560902e+02  -4.249091e+01
  -1.120239e+02  -2.164877e+02
   3.967810e+01  -2.204485e+02
   2.121427e+02  -5.817488e+01
   2.745711e+02   1.425218e+02
   1.655447e+02   2.537773e+02
  -2.230286e+01   2.415870e+02
  -1.334692e+02   1.662621e+02
  -1.379791e+02   1.044726e+02
  -1.557322e+02   7.372345e+01
  -2.755248e+02   2.182144e+01
  -3.900329e+02  -1.052501e+02
  -2.981539e+02  -2.813179e+02
   2.540994e+01  -3.988016e+02
   3.560896e+02  -3.609041e+02
   4.355428e+02  -1.621166e+02
   2.514946e+02   7.916370e+01
   1.734705e+01   2.121393e+02
  -6.576154e+01   1.741910e+02
   9.750773e+00   4.892368e+01
   1.027219e+02  -1.549756e+01
   9.690905e+01   3.620789e+01
   2.650200e+00   1.117365e+02
  -8.768588e+01   8.423126e+01
  -8.395074e+01  -3.646101e+01
   2.032809e+01  -1.020153e+02
   1.335030e+02   5.774525e+00
   1.387966e+02   2.099436e+02
  -1.050038e+01   3.122265e+02
  -2.257354e+02   1.968731e+02
  -3.421460e+02  -5.445335e+01
  -2.606463e+02  -2.447068e+02
  -4.946377e+01  -2.524095e+02
   1.189257e+02  -1.249672e+02
   1.286857e+02  -7.457072e+00
   2.794719e+01   2.932763e+00
  -3.791704e+01  -6.231488e+01
   1.160509e+01  -9.830710e+01
   1.080238e+02  -5.119667e+01
   1.213989e+02   2.538283e+01
   2.248441e+01   3.981870e+01
  -7.142661e+01  -2.597676e+01
  -2.523984e+01  -9.552077e+01
   1.495886e+02  -8.133172e+01
   2.890872e+02   2.883903e+01
   2.398419e+02   1.676581e+02
   1.966375e+01   2.454523e+02
  -1.954831e+02   2.117530e+02
  -2.412747e+02   8.931919e+01
  -1.187702e+02  -3.270188e+01
   2.480350e+01  -6.226845e+01
   4.748539e+01   3.883496e+00
  -5.540579e+01   6.578416e+01
  -1.650990e+02   2.664986e+01
  -1.651755e+02  -9.018647e+01
  -5.120258e+01  -1.635471e+02
   7.394844e+01  -1.191004e+02
   1.043628e+02  -1.589409e+01
   3.294291e+01   2.613588e+01
  -4.254413e+01  -3.200530e+01
  -1.920706e+01  -1.115829e+02
   1.007581e+02  -1.096911e+02
   2.009226e+02  -5.776646e+00
   1.665891e+02   1.262400e+02
   8.811727e+00   1.871784e+02
  -1.379084e+02   1.350724e+02
  -1.526629e+02   1.609093e+01
  -4.839377e+01  -7.548933e+01
   5.247235e+01  -7.878995e+01
   5.698898e+01  -2.078560e+01
  -7.123182e+00   1.962758e+01
  -3.945607e+01   1.445232e+00
   1.139173e+01  -3.144299e+01
   9.216796e+01  -4.750014e+00
   1.054804e+02   9.063175e+01
   8.591836e+00   1.716267e+02
  -1.384405e+02   1.455042e+02
  -2.228149e+02   7.857090e+00
  -1.760302e+02  -1.463409e+02
  -3.692557e+01  -2.074230e+02
   8.611714e+01  -1.459153e+02
   1.145350e+02  -3.297261e+01
   6.950679e+01   3.387930e+01
   3.420361e+01   2.237345e+01
   5.453230e+01  -1.442671e+01
   8.675879e+01  -4.776231e+00
   5.842172e+01   5.911075e+01
  -3.943643e+01   1.070104e+02
  -1.257390e+02   6.618302e+01
  -1.069984e+02  -4.847178e+01
   1.988999e+01  -1.304166e+02
   1.616697e+02  -8.605608e+01
   1.947024e+02   6.571831e+01
   7.403490e+01   2.008097e+02
  -1.184759e+02   2.022050e+02
  -2.423393e+02   7.219670e+01
  -2.192692e+02  -8.050433e+01
  -9.037175e+01  -1.489242e+02
   3.254180e+01  -1.221873e+02
   7.666966e+01  -7.376873e+01
   5.985164e+01  -6.696093e+01
   5.030024e+01  -8.987031e+01
   8.158533e+01  -7.616677e+01
   1.222620e+02   1.416489e+01
   1.118625e+02   1.398504e+02
   2.600563e+01   2.064467e+02
  -9.054558e+01   1.520257e+02
  -1.538237e+02   9.319480e+00
  -1.135202e+02  -1.167427e+02
  -6.455521e+00  -1.413538e+02
   7.059649e+01  -6.954773e+01
   5.725051e+01   1.868529e+01
  -8.083408e+00   5.229696e+01
  -3.091936e+01   3.129300e+01
   2.292272e+01   6.653162e+00
   8.185121e+01   1.401235e+01
   4.976418e+01   3.824470e+01
  -7.092547e+01   3.808274e+01
  -1.669837e+02  -3.790685e+00
  -1.338364e+02  -6.232869e+01
   7.058822e+00  -9.250135e+01
   1.298914e+02  -6.758638e+01
   1.341588e+02  -3.709113e+00
   3.865969e+01   4.905219e+01
  -5.590175e+01   4.401656e+01
  -7.372251e+01  -1.536074e+01
  -2.283519e+01  -7.186174e+01
   3.887969e+01  -6.726205e+01
   6.709821e+01  -5.913581e+00
   6.134749e+01   4.749437e+01
   4.833193e+01   4.156802e+01
   4.974962e+01   1.259137e+00
   6.004453e+01   9.440107e-01
   4.579968e+01   7.042425e+01
  -2.123020e+01   1.467138e+02
  -1.194445e+02   1.391282e+02
  -1.748648e+02   3.250981e+01
  -1.256619e+02  -8.857785e+01
  -8.260278e-01  -1.259129e+02
   8.875136e+01  -6.763293e+01
   5.909914e+01   7.558292e+00
  -5.334144e+01   2.001319e+01
  -1.224199e+02  -3.523212e+01
  -6.349438e+01  -9.504034e+01
   7.701425e+01  -9.888117e+01
   1.719682e+02  -3.960478e+01
   1.414950e+02   3.780389e+01
   2.685716e+01   7.760552e+01
  -5.885361e+01   5.453678e+01
  -4.439569e+01  -3.032550e+00
   3.732776e+01  -3.074765e+01
   8.787346e+01   1.538167e+01
   4.291791e+01   1.060808e+02
  -6.603605e+01   1.485073e+02
  -1.430874e+02   7.391669e+01
  -1.211715e+02  -7.719328e+01
  -2.227520e+01  -1.755592e+02
   7.141917e+01  -1.311126e+02
   9.509105e+01   9.433264e+00
   4.986916e+01   1.099129e+02
  -1.446549e+01   9.248470e+01
  -4.880295e+01   1.157957e+01
  -3.967156e+01  -2.918025e+01
  -1.264632e+01  -5.495879e+00
  -5.382403e+00   1.502975e+01
  -3.050522e+01  -2.241327e+01
  -5.463589e+01  -8.333636e+01
  -2.806449e+01  -9.394937e+01
   5.332889e+01  -3.782764e+01
   1.249870e+02   3.117569e+01
   1.127516e+02   6.048110e+01
   1.878513e+01   5.023578e+01
  -7.113097e+01   2.816492e+01
  -7.892446e+01   7.073309e+00
  -1.828987e+01  -1.245976e+01
   3.003453e+01  -2.092433e+01
   1.931183e+01  -9.517527e+00
  -1.164960e+01   6.457722e+00
   1.538742e+00   4.705278e+00
   5.867377e+01  -4.228227e+00
   8.718144e+01   1.741262e+01
   2.667013e+01   7.600632e+01
  -9.356405e+01   1.141302e+02
  -1.755563e+02   6.836951e+01
  -1.488057e+02  -4.847327e+01
  -3.682245e+01  -1.464329e+02
   7.212330e+01  -1.479468e+02
   1.089246e+02  -6.687868e+01
   7.600307e+01   1.446644e+01
   2.637151e+01   3.621388e+01
   4.023862e+00   1.512910e+01
   1.280048e+01   9.906728e+00
   2.641389e+01   4.555574e+01
   1.628129e+01   8.343255e+01
  -2.485524e+01   6.685682e+01
  -7.185330e+01  -1.052266e+01
  -7.880726e+01  -9.017018e+01
  -2.055104e+01  -1.026895e+02
   6.650599e+01  -3.581273e+01
   1.024846e+02   5.368433e+01
   4.340220e+01   9.523758e+01
  -5.805895e+01   6.490690e+01
  -1.000483e+02  -3.595244e+00
  -4.578022e+01  -5.654922e+01
   3.246865e+01  -6.244201e+01
   4.062995e+01  -2.822772e+01
  -2.148214e+01   8.865271e+00
  -6.317929e+01   1.156725e+01
  -1.895705e+01  -2.555163e+01
   7.086031e+01  -6.289591e+01
   1.129271e+02  -5.059355e+01
   6.957549e+01   1.633853e+01
  -9.263334e+00   8.138133e+01
  -5.468864e+01   8.118485e+01
  -4.691336e+01   1.575104e+01
  -1.251116e+01  -4.848757e+01
   1.993519e+01  -4.950753e+01
   3.656918e+01   3.810811e+00
   3.035157e+01   4.886835e+01
   8.331357e-01   4.021167e+01
  -3.213270e+01  -2.332549e+00
  -4.039620e+01  -2.516739e+01
  -1.851365e+01  -6.461003e+00
   6.104626e+00   2.080931e+01
   6.167443e+00   1.291679e+01
  -8.786186e+00  -2.786310e+01
  -5.628233e+00  -5.321573e+01
   2.366886e+01  -2.722731e+01
   4.391279e+01   2.832716e+01
   1.937347e+01   5.626121e+01
  -3.554950e+01   2.776727e+01
  -6.220566e+01  -2.670792e+01
  -2.235113e+01  -5.469758e+01
   5.260076e+01  -3.605745e+01
   8.918908e+01   5.984513e+00
   4.964226e+01   3.798843e+01
  -2.523922e+01   4.570296e+01
  -6.094084e+01   3.200731e+01
  -2.940565e+01   8.193020e+00
   2.265290e+01  -7.907458e+00
   3.083678e+01  -6.352140e-01
  -1.604388e+01   2.230840e+01
  -6.592790e+01   2.459595e+01
