
 $NMID
 id='ANONYMOUS ', fmtdat='(2E16.6)'
 volume=1.0
 tramp=1.0
 $END
  -1.893620e+03   8.717201e+01
  -1.262648e+03  -9.261844e+02
   2.050453e+02  -1.123399e+03
   7.401892e+02  -6.498877e+02
   3.923916e+02  -6.287708e+01
  -1.564544e+02   7.831059e+01
  -3.188705e+02  -2.021390e+02
   1.923700e+01  -4.044134e+02
   2.539736e+02  -3.992491e+02
   3.983759e+02  -2.998145e+01
   1.811457e+02   2.588678e+02
  -1.828016e+01   3.128052e+02
  -2.207690e+02   9.717706e+01
  -1.931324e+02  -2.860430e+02
   1.235189e+02  -3.240976e+02
   2.834487e+02  -5.514368e+00
   1.194248e+02   3.030949e+02
  -1.377847e+02   3.212517e+02
  -2.521562e+02   9.072691e+01
  -1.904891e+02  -1.569272e+02
  -2.719935e+01  -2.181964e+02
   4.043324e+01  -1.222571e+02
   7.400490e+01  -4.242527e+00
  -7.410409e+01  -2.197185e+01
  -1.453117e+02  -8.093634e+01
  -2.895629e+01  -1.987573e+02
   2.221389e+02  -1.267870e+02
   3.256912e+02   6.534996e+01
   1.494655e+02   2.041110e+02
  -1.739709e+02   1.251201e+02
  -2.981943e+02  -3.562510e+01
  -1.179464e+02  -1.814542e+02
   1.339569e+02  -1.869823e+02
   2.531308e+02  -1.016348e+02
   1.767116e+02   6.677605e+01
   3.663173e+01   1.871627e+02
  -5.231153e+01   1.412972e+02
  -1.411353e+01  -4.302073e+01
   8.409242e+01  -1.282502e+02
   1.316340e+02   3.276748e+01
   4.044865e+01   2.745077e+02
  -1.122870e+02   2.662138e+02
  -2.047618e+02   1.132944e+01
  -8.902229e+01  -1.914513e+02
   7.619652e+01  -1.092852e+02
   1.200645e+02   1.280195e+02
  -2.756271e+01   2.200075e+02
  -2.161332e+02   5.996683e+01
  -2.607110e+02  -1.620116e+02
  -1.062802e+02  -2.452903e+02
   1.303851e+02  -1.509032e+02
   2.600168e+02   1.116460e+01
   1.786238e+02   1.306594e+02
  -3.140593e+01   1.350012e+02
  -1.656974e+02   4.407056e+01
  -1.183947e+02  -3.909528e+01
   7.936312e+00  -3.419062e+01
   4.023160e+01   3.006673e+01
  -5.349506e+01   4.853169e+01
  -1.279006e+02  -2.079201e+01
  -6.414411e+01  -1.072352e+02
   8.380504e+01  -1.234975e+02
   1.647816e+02  -5.861501e+01
   1.081403e+02   4.558732e+01
  -2.532630e+01   1.376905e+02
  -1.340217e+02   1.660527e+02
  -1.611480e+02   8.596277e+01
  -1.119812e+02  -6.860573e+01
  -3.282525e+01  -1.814561e+02
   1.768615e+01  -1.671920e+02
   2.233913e+01  -7.997156e+01
   1.713812e+01  -3.351023e+01
   4.988880e+01  -4.768902e+01
   1.034093e+02  -3.687919e+01
   1.156294e+02   4.253349e+01
   5.629817e+01   1.178368e+02
  -3.534623e+01   9.575538e+01
  -9.503723e+01  -1.688979e+01
  -7.520639e+01  -1.175331e+02
   1.432302e+01  -1.264777e+02
   1.186305e+02  -4.134944e+01
   1.582467e+02   7.584777e+01
   9.356367e+01   1.472910e+02
  -2.036521e+01   1.346678e+02
  -8.343613e+01   7.160170e+01
  -7.465118e+01   3.114288e+01
  -6.597484e+01   3.048645e+01
  -1.275301e+02   2.738201e+01
  -1.928573e+02  -3.269339e+01
  -1.589202e+02  -1.390687e+02
   4.655060e-01  -2.151503e+02
   1.748140e+02  -1.990477e+02
   2.348025e+02  -9.362053e+01
   1.513490e+02   4.523283e+01
   2.057868e+01   1.312291e+02
  -4.893343e+01   1.106023e+02
  -1.890767e+01   2.429957e+01
   4.833317e+01  -2.766614e+01
   6.773007e+01   1.005510e+01
   1.015270e+01   7.255313e+01
  -6.150894e+01   6.168073e+01
  -6.620092e+01  -2.408779e+01
   4.265662e+00  -7.283578e+01
   7.768206e+01  -1.107308e+01
   7.972665e+01   1.058973e+02
  -5.970190e-01   1.576960e+02
  -1.061445e+02   9.906431e+01
  -1.676702e+02  -2.117237e+01
  -1.400806e+02  -1.120199e+02
  -3.961345e+01  -1.270923e+02
   5.908092e+01  -7.462934e+01
   7.864166e+01  -1.185105e+01
   2.263837e+01   8.101914e+00
  -2.825335e+01  -2.163578e+01
  -6.179418e+00  -5.219867e+01
   5.550356e+01  -3.762705e+01
   7.404435e+01   8.947748e+00
   2.159931e+01   3.060336e+01
  -3.693349e+01   3.289314e+00
  -2.481327e+01  -3.760421e+01
   5.739278e+01  -4.305495e+01
   1.310836e+02  -1.638704e-02
   1.213338e+02   6.612220e+01
   2.471673e+01   1.157232e+02
  -8.589600e+01   1.147970e+02
  -1.247315e+02   5.703223e+01
  -7.050753e+01  -1.667064e+01
   1.230664e+01  -4.281162e+01
   3.501112e+01  -5.206256e+00
  -2.053092e+01   4.002382e+01
  -8.889084e+01   2.578736e+01
  -9.423788e+01  -4.094564e+01
  -3.108965e+01  -8.913709e+01
   4.075307e+01  -7.132772e+01
   6.084021e+01  -1.545795e+01
   2.573725e+01   1.616567e+01
  -1.673901e+01  -4.052469e+00
  -1.410990e+01  -4.502490e+01
   4.038362e+01  -5.534571e+01
   9.654323e+01  -1.269642e+01
   8.922481e+01   5.775161e+01
   1.174023e+01   1.008169e+02
  -7.076667e+01   7.885121e+01
  -8.593256e+01   1.011005e+01
  -3.210776e+01  -4.685779e+01
   2.632011e+01  -5.033826e+01
   3.527546e+01  -1.462065e+01
   4.619428e+00   1.279717e+01
  -1.548023e+01   7.818728e+00
   1.959718e+00  -9.078831e+00
   3.802213e+01  -1.663984e+00
   4.783414e+01   3.806965e+01
   9.297536e+00   7.818899e+01
  -6.136233e+01   7.255048e+01
  -1.096009e+02   1.105586e+01
  -9.257768e+01  -6.827615e+01
  -2.096079e+01  -1.061943e+02
   4.491429e+01  -7.784435e+01
   6.008240e+01  -1.608804e+01
   3.419924e+01   2.136109e+01
   1.594099e+01   1.538193e+01
   2.537682e+01  -7.076456e+00
   3.970619e+01  -4.844984e+00
   2.472074e+01   2.465462e+01
  -1.783090e+01   4.825003e+01
  -5.413067e+01   3.269840e+01
  -4.848528e+01  -1.757517e+01
   4.370396e+00  -5.854093e+01
   7.121941e+01  -4.574078e+01
   9.605138e+01   2.170138e+01
   4.715643e+01   9.466343e+01
  -4.898054e+01   1.065256e+02
  -1.217544e+02   4.723695e+01
  -1.179275e+02  -3.479677e+01
  -5.181688e+01  -7.741447e+01
   1.534144e+01  -6.675236e+01
   4.108677e+01  -3.971811e+01
   3.303957e+01  -3.372625e+01
   2.600515e+01  -4.406873e+01
   3.951115e+01  -3.726159e+01
   6.007832e+01   6.470022e+00
   5.816829e+01   6.839999e+01
   1.799049e+01   1.031203e+02
  -4.185698e+01   7.977226e+01
  -7.889519e+01   1.096472e+01
  -6.291089e+01  -5.480834e+01
  -9.572970e+00  -7.307021e+01
   3.200666e+01  -4.146942e+01
   2.932792e+01   3.508912e+00
   7.444834e-01   2.437482e+01
  -9.306246e+00   1.728063e+01
   1.443421e+01   5.141637e+00
   3.930691e+01   6.943647e+00
   2.339653e+01   1.758692e+01
  -3.237960e+01   1.975100e+01
  -7.859534e+01   2.516215e+00
  -6.740242e+01  -2.529982e+01
  -2.880996e+00  -4.366537e+01
   5.958963e+01  -3.594897e+01
   6.748049e+01  -6.397664e+00
   2.214752e+01   2.072971e+01
  -2.703644e+01   2.051160e+01
  -3.649456e+01  -6.765980e+00
  -8.842408e+00  -3.327024e+01
   2.165196e+01  -3.071097e+01
   3.184465e+01  -1.588238e+00
   2.653903e+01   2.260229e+01
   2.303459e+01   1.844055e+01
   2.708353e+01  -1.105106e+00
   3.086680e+01  -1.118654e+00
   2.128834e+01   3.298808e+01
  -9.769380e+00   7.177183e+01
  -5.342956e+01   7.006742e+01
  -8.016914e+01   1.925380e+01
  -6.131196e+01  -4.033322e+01
  -4.231168e+00  -5.968950e+01
   4.023638e+01  -3.241401e+01
   2.827874e+01   4.644098e+00
  -2.707159e+01   1.089015e+01
  -6.377574e+01  -1.630147e+01
  -3.594427e+01  -4.762716e+01
   3.598740e+01  -5.255301e+01
   8.674119e+01  -2.560753e+01
   7.412741e+01   1.432128e+01
   1.716839e+01   3.870334e+01
  -2.769784e+01   3.122962e+01
  -2.273008e+01   2.397848e+00
   1.711552e+01  -1.414290e+01
   4.250618e+01   7.380681e+00
   2.012096e+01   5.290485e+01
  -3.464245e+01   7.421614e+01
  -7.302151e+01   3.576821e+01
  -6.157788e+01  -4.067749e+01
  -1.193845e+01  -8.995026e+01
   3.498264e+01  -6.799681e+01
   4.845359e+01   2.114921e+00
   2.904902e+01   5.402274e+01
  -2.041480e+00   4.808656e+01
  -2.251594e+01   8.606594e+00
  -2.258620e+01  -1.344479e+01
  -9.449782e+00  -2.833467e+00
  -2.427088e+00   8.336580e+00
  -1.321792e+01  -9.264070e+00
  -2.810428e+01  -4.059504e+01
  -1.798634e+01  -4.823104e+01
   2.421427e+01  -2.072108e+01
   6.447131e+01   1.504609e+01
   5.936322e+01   3.044111e+01
   9.001489e+00   2.478528e+01
  -3.864690e+01   1.377885e+01
  -4.070857e+01   4.224459e+00
  -7.400866e+00  -5.492577e+00
   1.604021e+01  -1.105450e+01
   7.664478e+00  -6.104747e+00
  -8.130851e+00   2.737995e+00
   1.588452e+00   2.531447e+00
   3.209924e+01  -2.731700e+00
   4.379749e+01   7.264965e+00
   1.061528e+01   3.761107e+01
  -4.831791e+01   5.804888e+01
  -8.552673e+01   3.486517e+01
  -7.172787e+01  -2.509321e+01
  -1.871161e+01  -7.421048e+01
   3.314948e+01  -7.357722e+01
   5.301564e+01  -3.228284e+01
   3.865370e+01   7.353770e+00
   1.298645e+01   1.683578e+01
  -7.219349e-02   5.621086e+00
   5.389403e+00   2.879604e+00
   1.545373e+01   2.082652e+01
   1.152577e+01   4.083254e+01
  -1.142689e+01   3.382540e+01
  -3.678916e+01  -5.030714e+00
  -3.868692e+01  -4.598633e+01
  -7.367173e+00  -5.181909e+01
   3.513654e+01  -1.624087e+01
   4.985181e+01   2.922737e+01
   1.976580e+01   4.759349e+01
  -2.801950e+01   3.019292e+01
  -4.661033e+01  -2.513565e+00
  -2.076178e+01  -2.522612e+01
   1.485779e+01  -2.756259e+01
   1.693697e+01  -1.346222e+01
  -1.296134e+01   2.909619e+00
  -3.137333e+01   5.259189e+00
  -8.431347e+00  -1.156167e+01
   3.514573e+01  -3.127278e+01
   5.424132e+01  -2.704478e+01
   3.230525e+01   6.041894e+00
  -5.199651e+00   3.911480e+01
  -2.523350e+01   3.866156e+01
  -2.005504e+01   5.281037e+00
  -3.388615e+00  -2.493579e+01
   1.122773e+01  -2.182793e+01
   1.807446e+01   5.907539e+00
   1.364669e+01   2.496558e+01
  -1.012085e+00   1.721169e+01
  -1.629325e+01  -3.332753e+00
  -1.892098e+01  -1.136775e+01
  -8.389044e+00  -1.444560e+00
   2.269798e+00   9.072626e+00
   2.776951e+00   3.116446e+00
  -1.402323e+00  -1.532654e+01
   1.918490e+00  -2.419198e+01
   1.333128e+01  -9.597923e+00
   1.857252e+01   1.649399e+01
   5.232805e+00   2.808443e+01
  -1.861276e+01   1.279765e+01
  -2.887072e+01  -1.425249e+01
  -1.013831e+01  -2.790442e+01
   2.482522e+01  -1.821015e+01
   4.316369e+01   3.065652e+00
   2.522796e+01   1.883039e+01
  -1.183450e+01   2.147801e+01
  -3.016976e+01   1.401877e+01
  -1.323793e+01   3.428663e+00
   1.473984e+01  -1.946775e+00
   1.745478e+01   3.385844e+00
  -1.041788e+01   1.401795e+01
  -3.802284e+01   1.248779e+01
