
 $NMID
 id='ANONYMOUS ', fmtdat='(2E16.6)'
 volume=1.0
 tramp=1.0
 $END
   1.819937e+03  -1.238864e+02
   1.234700e+03   8.615828e+02
   6.235944e+01   1.151195e+03
  -6.166598e+02   9.259384e+02
  -6.413365e+02   4.093243e+02
  -1.905195e+02  -2.084516e+02
   1.360387e+02  -9.301941e+01
   7.058662e+01   2.251641e+02
  -1.679002e+02   3.547467e+02
  -3.747052e+02   6.617921e+01
  -2.394823e+02  -2.588140e+02
  -4.907820e+01  -3.515560e+02
   1.040382e+02  -1.780039e+02
   9.781266e+01   1.095150e+02
  -6.856139e+01   2.734262e+02
  -1.718779e+02   5.844596e+01
  -2.065128e+02  -2.761545e+02
  -2.574248e+00  -4.086973e+02
   2.692047e+02  -1.922216e+02
   2.869814e+02   5.529849e+01
   1.180399e+02   1.558002e+02
  -4.892373e+01   8.413033e+01
  -6.376412e+00   7.568681e+01
   1.224696e+02   1.139320e+02
   1.444064e+02   2.360492e+02
  -5.695859e+01   2.127390e+02
  -2.842173e+02   4.999155e+01
  -2.881916e+02  -1.213842e+02
  -7.704139e+01  -1.827307e+02
   1.613874e+02  -6.567803e+01
   2.189143e+02   8.688921e+01
   5.310833e+01   1.756170e+02
  -1.515948e+02   1.759767e+02
  -2.246175e+02   6.589747e+01
  -1.538283e+02  -6.802614e+01
  -4.099110e+01  -1.233999e+02
  -2.663626e+01  -8.562259e+01
  -8.001181e+01   9.640790e+00
  -1.166078e+02   1.462254e+01
  -5.696121e+01  -1.028685e+02
   4.655341e+01  -2.215333e+02
   1.306126e+02  -1.912745e+02
   1.219242e+02   5.147220e+00
   3.293647e+01   1.305355e+02
  -6.587877e+01   4.327484e+01
  -5.291368e+01  -1.477505e+02
   8.172886e+01  -1.810618e+02
   2.370495e+02   2.980753e-01
   2.514014e+02   2.130269e+02
   7.491000e+01   2.562795e+02
  -1.535752e+02   1.191516e+02
  -2.648450e+02  -4.252253e+01
  -1.838828e+02  -1.021566e+02
  -6.924474e-01  -8.175150e+01
   1.287444e+02  -5.063605e+01
   1.252900e+02  -3.454401e+01
   4.347356e+01  -1.630437e+01
  -2.802581e+00  -6.492064e-01
   3.869578e+01   7.076429e+00
   9.964690e+01   2.734977e+01
   6.828794e+01   8.313195e+01
  -7.243769e+01   1.347796e+02
  -1.972756e+02   9.728835e+01
  -1.672559e+02  -4.985628e+01
   1.344428e+01  -2.020605e+02
   1.884194e+02  -2.182751e+02
   2.167852e+02  -7.690331e+01
   1.134793e+02   1.015293e+02
   1.271725e+01   1.852201e+02
  -3.518822e+00   1.599458e+02
   1.644316e+01   1.096932e+02
  -1.698022e+01   9.361280e+01
  -1.043313e+02   7.957205e+01
  -1.620288e+02   1.014567e+01
  -1.286243e+02  -9.748702e+01
  -2.976276e+01  -1.534548e+02
   6.468956e+01  -9.352973e+01
   1.002171e+02   4.160899e+01
   6.050758e+01   1.407723e+02
  -3.342757e+01   1.246670e+02
  -1.314489e+02   1.589343e+01
  -1.595097e+02  -9.928656e+01
  -8.881558e+01  -1.521532e+02
   1.828553e+01  -1.395888e+02
   7.979188e+01  -9.942739e+01
   7.917451e+01  -6.747285e+01
   9.485250e+01  -4.825999e+01
   1.709537e+02  -1.644573e+01
   2.477548e+02   6.149214e+01
   1.914441e+02   1.734242e+02
  -1.442877e+01   2.518747e+02
  -2.240604e+02   2.238500e+02
  -2.755581e+02   9.233239e+01
  -1.507078e+02  -5.543891e+01
   4.992731e-01  -1.247486e+02
   4.362358e+01  -9.160042e+01
  -1.396114e+01  -2.445116e+01
  -7.015834e+01  -1.596355e+00
  -5.373462e+01  -3.457747e+01
   1.240872e+01  -6.613528e+01
   5.532275e+01  -3.710916e+01
   3.903287e+01   3.165557e+01
  -2.374002e+01   5.858928e+01
  -8.080182e+01  -1.205753e+01
  -7.560590e+01  -1.332935e+02
   1.422696e+01  -1.931005e+02
   1.423157e+02  -1.198394e+02
   2.104632e+02   3.832326e+01
   1.574731e+02   1.589993e+02
   2.553291e+01   1.599053e+02
  -7.590760e+01   7.381109e+01
  -7.747222e+01  -6.022377e-01
  -1.414002e+01  -6.415825e-01
   2.292200e+01   4.461596e+01
  -1.229329e+01   6.284991e+01
  -7.157680e+01   2.570285e+01
  -7.496358e+01  -2.328607e+01
  -9.320824e+00  -2.666860e+01
   4.807988e+01   2.064375e+01
   1.521947e+01   6.417909e+01
  -9.623252e+01   4.979855e+01
  -1.807923e+02  -2.521214e+01
  -1.440037e+02  -1.115542e+02
  -2.598463e+00  -1.526337e+02
   1.284134e+02  -1.224969e+02
   1.492199e+02  -4.496293e+01
   6.847656e+01   2.371781e+01
  -1.807442e+01   3.464507e+01
  -2.681538e+01  -5.274959e+00
   3.792192e+01  -3.621933e+01
   1.016759e+02  -7.532498e+00
   9.668369e+01   6.193920e+01
   2.473143e+01   1.012649e+02
  -5.036042e+01   6.879684e+01
  -6.478753e+01   3.475792e+00
  -1.740210e+01  -1.999871e+01
   2.914385e+01   2.162345e+01
   1.088605e+01   7.466712e+01
  -6.607304e+01   7.061700e+01
  -1.267085e+02  -3.334160e-01
  -1.009845e+02  -8.386721e+01
  -1.165502e+00  -1.164720e+02
   8.776963e+01  -7.879925e+01
   9.271871e+01  -5.526174e+00
   2.551167e+01   4.661874e+01
  -3.615665e+01   4.574599e+01
  -3.547665e+01   1.005536e+01
   7.598150e+00  -1.337752e+01
   2.857214e+01  -3.880646e-01
  -5.640380e+00   2.131211e+01
  -5.897056e+01   4.114996e+00
  -6.707505e+01  -5.753155e+01
  -2.248833e+00  -1.079187e+02
   9.116278e+01  -8.756591e+01
   1.394941e+02   2.597286e+00
   1.048611e+02   9.764466e+01
   1.552977e+01   1.291569e+02
  -5.762089e+01   8.716133e+01
  -7.173726e+01   1.759504e+01
  -4.288702e+01  -2.129367e+01
  -2.117638e+01  -1.309059e+01
  -3.504521e+01   9.232467e+00
  -5.674109e+01   2.403763e+00
  -3.823474e+01  -3.894784e+01
   2.460690e+01  -6.964729e+01
   8.158172e+01  -4.243221e+01
   6.968332e+01   3.200067e+01
  -1.397918e+01   8.315471e+01
  -1.043191e+02   5.208805e+01
  -1.213477e+02  -4.669775e+01
  -3.955011e+01  -1.278892e+02
   8.230562e+01  -1.222716e+02
   1.546028e+02  -3.536457e+01
   1.325253e+02   5.823454e+01
   4.872699e+01   9.565803e+01
  -2.665869e+01   7.384719e+01
  -5.086846e+01   4.189426e+01
  -3.795790e+01   3.888061e+01
  -3.213014e+01   5.447365e+01
  -5.290366e+01   4.613348e+01
  -7.667913e+01  -1.150874e+01
  -6.654454e+01  -9.082864e+01
  -1.062057e+01  -1.305529e+02
   6.022190e+01  -9.276918e+01
   9.571215e+01  -1.015770e+00
   6.788755e+01   7.681014e+01
   4.375975e-01   8.875120e+01
  -4.701548e+01   4.101092e+01
  -3.658839e+01  -1.470399e+01
   6.851118e+00  -3.439129e+01
   2.278872e+01  -1.961756e+01
  -1.239171e+01  -3.566498e+00
  -5.194018e+01  -8.849286e+00
  -3.191364e+01  -2.483374e+01
   4.601873e+01  -2.391711e+01
   1.066908e+02   5.059471e+00
   8.316512e+01   4.350869e+01
  -8.030985e+00   6.039450e+01
  -8.431294e+01   4.048477e+01
  -8.452785e+01  -1.628909e+00
  -2.371263e+01  -3.303864e+01
   3.440882e+01  -2.748196e+01
   4.508183e+01   9.993723e+00
   1.467846e+01   4.424271e+01
  -2.275850e+01   4.085340e+01
  -4.137635e+01   3.229402e+00
  -3.867947e+01  -2.954324e+01
  -3.038008e+01  -2.613099e+01
  -3.070887e+01  -1.820778e+00
  -3.740833e+01  -2.099435e+00
  -2.838959e+01  -4.551145e+01
   1.527336e+01  -9.194931e+01
   7.842045e+01  -8.538259e+01
   1.122417e+02  -1.702385e+01
   7.793443e+01   5.854557e+01
  -2.244454e+00   8.050397e+01
  -5.795218e+01   4.236664e+01
  -3.786164e+01  -5.194921e+00
   3.271302e+01  -1.207238e+01
   7.466630e+01   2.382472e+01
   3.727217e+01   6.065517e+01
  -4.993523e+01   5.987265e+01
  -1.075689e+02   1.971198e+01
  -8.662796e+01  -2.822088e+01
  -1.456983e+01  -4.860877e+01
   3.792028e+01  -3.047323e+01
   2.730546e+01   4.842155e+00
  -2.400181e+01   1.872532e+01
  -5.437492e+01  -1.179905e+01
  -2.579628e+01  -6.709035e+01
   4.129975e+01  -9.088690e+01
   8.794647e+01  -4.323633e+01
   7.362779e+01   4.986289e+01
   1.163207e+01   1.088977e+02
  -4.700977e+01   7.903370e+01
  -6.032968e+01  -9.336535e+00
  -2.914614e+01  -7.072768e+01
   1.280974e+01  -5.785815e+01
   3.209120e+01  -5.917955e+00
   2.321424e+01   1.916755e+01
   6.250816e+00   3.674806e+00
   4.527476e+00  -9.409598e+00
   2.108023e+01   1.447437e+01
   3.281599e+01   5.297229e+01
   1.349863e+01   5.917056e+01
  -3.558122e+01   2.268038e+01
  -7.628673e+01  -2.180534e+01
  -6.775375e+01  -4.015807e+01
  -1.126918e+01  -3.206811e+01
   4.360082e+01  -1.608294e+01
   5.012622e+01  -2.583454e+00
   1.335088e+01   8.167828e+00
  -1.867361e+01   1.243105e+01
  -1.422443e+01   6.028870e+00
   5.790926e+00  -3.082333e+00
   2.090944e-02  -2.568341e+00
  -3.496557e+01   1.692476e+00
  -5.418538e+01  -1.205736e+01
  -1.751330e+01  -4.673649e+01
   5.804832e+01  -6.906229e+01
   1.099836e+02  -4.067712e+01
   9.216675e+01   3.093075e+01
   2.048063e+01   9.101441e+01
  -4.762176e+01   9.124613e+01
  -6.901543e+01   4.029594e+01
  -4.699670e+01  -1.051638e+01
  -1.606400e+01  -2.346038e+01
  -3.097666e+00  -9.997653e+00
  -8.492966e+00  -7.146753e+00
  -1.546878e+01  -2.966132e+01
  -8.130524e+00  -5.250897e+01
   1.629810e+01  -4.113727e+01
   4.359013e+01   6.912910e+00
   4.726492e+01   5.547712e+01
   1.263346e+01   6.269758e+01
  -3.951945e+01   2.165276e+01
  -6.156565e+01  -3.357120e+01
  -2.601668e+01  -5.943080e+01
   3.625545e+01  -4.047793e+01
   6.279043e+01   3.295789e+00
   2.922803e+01   3.718763e+01
  -2.043894e+01   4.009173e+01
  -2.706375e+01   1.753970e+01
   1.174246e+01  -5.610010e+00
   3.869653e+01  -6.554153e+00
   1.181616e+01   1.587133e+01
  -4.508514e+01   3.707267e+01
  -7.196702e+01   2.844765e+01
  -4.371611e+01  -1.134978e+01
   7.357750e+00  -4.980953e+01
   3.589495e+01  -4.987010e+01
   2.958298e+01  -1.101526e+01
   6.771192e+00   2.859081e+01
  -1.269692e+01   3.030754e+01
  -2.155169e+01  -2.212020e+00
  -1.750470e+01  -3.108973e+01
   4.167279e-02  -2.600548e+01
   2.041539e+01   1.499241e+00
   2.606542e+01   1.722836e+01
   1.202795e+01   5.412134e+00
  -4.467636e+00  -1.309396e+01
  -4.953690e+00  -9.562468e+00
   5.740255e+00   1.611359e+01
   5.543883e+00   3.320048e+01
  -1.309417e+01   1.804503e+01
  -2.747299e+01  -1.603471e+01
  -1.320270e+01  -3.382013e+01
   2.131202e+01  -1.672587e+01
   3.842310e+01   1.630986e+01
   1.334906e+01   3.339528e+01
  -3.348955e+01   2.161706e+01
  -5.555379e+01  -4.480681e+00
  -3.042380e+01  -2.410581e+01
   1.586109e+01  -2.841658e+01
   3.785372e+01  -1.952107e+01
   1.886597e+01  -5.246311e+00
  -1.265569e+01   4.392443e+00
  -1.789423e+01   3.015630e-01
   9.736115e+00  -1.275535e+01
   3.977792e+01  -1.372918e+01
