
 $NMID
 id='ANONYMOUS ', fmtdat='(2E16.6)'
 volume=1.0
 tramp=1.0
 $END
  -1.284632e+03   1.141642e+02
  -8.042207e+02  -7.479989e+02
  -8.576342e+01  -7.468378e+02
   3.749660e+02  -3.871762e+02
   2.944880e+02   3.443160e+01
  -5.215455e+01   3.737799e+01
  -1.830407e+01  -8.329313e+01
  -2.826901e+01  -1.583145e+02
   3.040620e+02  -2.141502e+02
   1.805863e+02   2.234804e+01
   1.470530e+02   2.106693e+02
   6.069200e+00   2.243587e+02
  -7.007148e+01   7.410287e+01
  -5.348416e+01  -1.321605e+02
   7.289467e+01  -1.789615e+02
   5.930596e+01   4.470123e+01
   8.298031e+01   2.056294e+02
  -9.088264e+01   2.280714e+02
  -1.089222e+02   6.570141e+01
  -1.254905e+02  -6.737811e+01
  -4.428600e+01  -1.675289e+02
   5.423772e+01  -8.515004e+01
   1.151739e+01   1.684547e+01
  -9.861694e+01  -2.235709e+01
  -1.144688e+02  -9.162616e+01
   1.644681e+01  -1.269253e+02
   1.638432e+02  -3.367930e+01
   1.964637e+02   1.012635e+02
   6.553314e+01   1.496611e+02
  -1.548602e+02   5.933296e+01
  -2.097436e+02  -8.220826e+01
  -6.411190e+01  -1.540170e+02
   1.094539e+02  -1.202328e+02
   1.633794e+02  -2.922325e+01
   1.049230e+02   7.496774e+01
   1.922065e+01   1.119815e+02
  -1.589793e+01   4.268783e+01
   2.415543e+01  -5.783490e+01
   8.317771e+01  -6.016846e+01
   7.176999e+01   5.592393e+01
  -2.060325e+01   2.031210e+02
  -1.169410e+02   1.492972e+02
  -1.236129e+02  -3.075099e+01
  -3.020423e+01  -1.409208e+02
   7.765553e+01  -6.011230e+01
   8.239014e+01   1.097785e+02
  -5.059979e+01   1.427392e+02
  -1.682380e+02   7.888717e+00
  -1.766674e+02  -1.490459e+02
  -3.309206e+01  -1.789218e+02
   1.278186e+02  -8.669039e+01
   1.834080e+02   3.439972e+01
   1.000218e+02   9.637085e+01
  -3.322291e+01   7.541058e+01
  -9.901008e+01   1.676963e+01
  -5.948417e+01  -2.155874e+01
   5.005654e+00  -9.156202e+00
   1.419660e+01   1.748498e+01
  -3.537458e+01   1.766216e+01
  -7.119951e+01  -1.910582e+01
  -3.475647e+01  -6.363051e+01
   5.391804e+01  -7.870538e+01
   1.185398e+02  -4.206275e+01
   9.487226e+01   3.954690e+01
  -1.044868e+01   1.190342e+02
  -1.183742e+02   1.289155e+02
  -1.431288e+02   4.557956e+01
  -7.735175e+01  -6.889466e+01
   1.879885e+00  -1.231427e+02
   2.017682e+01  -9.515602e+01
  -7.628289e+00  -4.975626e+01
  -9.775489e+00  -4.493630e+01
   4.490517e+01  -5.479403e+01
   9.978558e+01  -2.114363e+01
   9.118917e+01   5.473526e+01
   2.101301e+01   9.904972e+01
  -5.083030e+01   5.897271e+01
  -7.094905e+01  -3.533602e+01
  -3.310793e+01  -9.998475e+01
   3.461287e+01  -8.095841e+01
   9.575434e+01  -3.194004e+00
   9.862524e+01   7.673074e+01
   4.437984e+01   1.045802e+02
  -2.953338e+01   8.480791e+01
  -6.178823e+01   4.255518e+01
  -4.689479e+01   2.005176e+01
  -4.752936e+01   2.099068e+01
  -9.825217e+01   1.022207e+01
  -1.421617e+02  -3.651860e+01
  -1.048279e+02  -1.093746e+02
   2.210320e+01  -1.546151e+02
   1.491202e+02  -1.322130e+02
   1.771664e+02  -4.593761e+01
   9.433566e+01   5.470393e+01
  -1.101315e+01   9.642626e+01
  -4.629813e+01   6.148172e+01
  -2.960193e+00   3.822732e+00
   4.886763e+01  -1.209893e+01
   4.568437e+01   2.094585e+01
  -8.013079e+00   4.840584e+01
  -5.086379e+01   2.484371e+01
  -3.495982e+01  -2.834911e+01
   2.197583e+01  -4.472659e+01
   6.130829e+01   7.316856e+00
   4.899710e+01   8.485053e+01
  -1.564374e+01   1.165907e+02
  -8.990184e+01   6.895248e+01
  -1.253874e+02  -2.606555e+01
  -9.307647e+01  -1.012021e+02
  -1.075411e+01  -1.062423e+02
   5.598982e+01  -4.845464e+01
   5.712081e+01   7.871495e+00
   9.483940e+00   1.315180e+01
  -2.000191e+01  -2.270358e+01
   4.748815e+00  -4.384148e+01
   4.930693e+01  -2.038671e+01
   5.292798e+01   1.830242e+01
   6.679081e+00   2.509676e+01
  -3.442220e+01  -6.679884e+00
  -1.554036e+01  -3.908263e+01
   5.455995e+01  -3.346505e+01
   1.099774e+02   1.266366e+01
   9.138936e+01   6.889994e+01
   4.927374e+00   9.764053e+01
  -8.166287e+01   7.856140e+01
  -1.002195e+02   2.389140e+01
  -4.665283e+01  -2.360796e+01
   1.605323e+01  -2.688360e+01
   2.395770e+01   7.017765e+00
  -2.368095e+01   2.955609e+01
  -6.972447e+01   4.987553e+00
  -6.319971e+01  -4.675516e+01
  -9.732427e+00  -7.189047e+01
   4.166830e+01  -4.527341e+01
   4.841528e+01   1.979757e+00
   1.375490e+01   2.081227e+01
  -2.021913e+01  -4.160872e+00
  -1.187264e+01  -4.027059e+01
   3.688366e+01  -4.371268e+01
   7.780290e+01  -2.211466e+00
   6.229760e+01   5.312282e+01
  -4.069958e+00   7.632519e+01
  -6.249853e+01   4.867767e+01
  -6.264499e+01  -4.746395e+00
  -1.389631e+01  -3.951394e+01
   2.918816e+01  -3.296501e+01
   3.010718e+01  -3.378931e+00
   8.803540e-01   1.493470e+01
  -1.718632e+01   6.134487e+00
  -1.994070e+00  -9.380444e+00
   2.871947e+01  -1.682912e+00
   3.638893e+01   3.270259e+01
   1.239395e+00   6.305809e+01
  -5.568679e+01   5.161170e+01
  -8.788778e+01  -3.743191e+00
  -6.464788e+01  -6.417466e+01
  -3.398735e+00  -8.427227e+01
   4.421008e+01  -5.284840e+01
   4.789853e+01  -4.299252e+00
   2.302314e+01   2.067325e+01
   7.455460e+00   1.232034e+01
   1.652339e+01  -5.553250e+00
   3.028174e+01  -4.535497e+00
   2.203115e+01   1.821366e+01
  -1.202645e+01   3.773265e+01
  -4.319102e+01   2.585323e+01
  -3.957465e+01  -1.491913e+01
   4.139359e+00  -4.663895e+01
   5.886581e+01  -3.124332e+01
   7.225328e+01   2.665873e+01
   2.585428e+01   7.853203e+01
  -5.016936e+01   7.710004e+01
  -9.829052e+01   2.209145e+01
  -8.411216e+01  -4.050242e+01
  -2.996424e+01  -6.424704e+01
   1.837699e+01  -4.902951e+01
   3.367913e+01  -2.522592e+01
   2.614170e+01  -2.130698e+01
   2.216108e+01  -2.999625e+01
   3.320224e+01  -2.561983e+01
   4.635596e+01   8.524842e+00
   3.916789e+01   5.617631e+01
   4.325251e+00   8.069730e+01
  -4.034817e+01   5.700938e+01
  -6.189357e+01  -4.770233e-01
  -4.264970e+01  -4.932625e+01
   1.065640e+00  -5.644950e+01
   3.128065e+01  -2.647786e+01
   2.537647e+01   8.147928e+00
  -1.022570e+00   2.115507e+01
  -1.218676e+01   1.399846e+01
   5.680096e+00   5.398106e+00
   2.732245e+01   7.514657e+00
   1.721918e+01   1.529993e+01
  -2.618403e+01   1.404173e+01
  -6.245922e+01  -3.084358e+00
  -5.160124e+01  -2.690761e+01
   1.713019e+00  -3.816036e+01
   5.034754e+01  -2.573676e+01
   5.308091e+01   1.247549e+00
   1.554841e+01   2.052412e+01
  -2.172268e+01   1.584760e+01
  -2.707888e+01  -7.378716e+00
  -5.505900e+00  -2.572280e+01
   1.707912e+01  -2.189521e+01
   2.362433e+01  -8.972304e-02
   1.857778e+01   1.783206e+01
   1.527884e+01   1.582719e+01
   1.857019e+01   2.089756e+00
   2.273771e+01   1.305748e+00
   1.499968e+01   2.426455e+01
  -1.078440e+01   5.112625e+01
  -4.540506e+01   4.909475e+01
  -6.329790e+01   1.013912e+01
  -4.381113e+01  -3.477079e+01
   1.650238e+00  -4.723275e+01
   3.353550e+01  -2.314390e+01
   2.137543e+01   5.781914e+00
  -2.072627e+01   7.184673e+00
  -4.583113e+01  -1.732949e+01
  -2.222156e+01  -3.984700e+01
   3.258814e+01  -3.719371e+01
   6.808081e+01  -1.038550e+01
   5.376747e+01   1.975114e+01
   7.517714e+00   3.205095e+01
  -2.531194e+01   2.064152e+01
  -1.835548e+01  -1.619987e+00
   1.323704e+01  -1.046523e+01
   3.048460e+01   7.229944e+00
   1.071612e+01   3.882666e+01
  -2.996374e+01   5.029095e+01
  -5.425351e+01   1.975584e+01
  -4.044399e+01  -3.493564e+01
  -2.997075e-01  -6.682755e+01
   3.330412e+01  -4.625288e+01
   3.766464e+01   7.783998e+00
   1.665045e+01   4.520456e+01
  -8.427231e+00   3.743733e+01
  -2.002225e+01   4.416634e+00
  -1.576539e+01  -1.333348e+01
  -6.058346e+00  -4.085883e+00
  -3.430700e+00   6.085180e+00
  -1.112582e+01  -7.447584e+00
  -1.797350e+01  -3.307891e+01
  -7.492567e+00  -3.901637e+01
   2.174273e+01  -1.483870e+01
   4.665122e+01   1.661655e+01
   4.052513e+01   2.891913e+01
   4.462689e+00   2.026355e+01
  -2.940483e+01   6.943610e+00
  -3.095737e+01  -9.812845e-01
  -6.314888e+00  -5.120444e+00
   1.255954e+01  -6.868518e+00
   7.366065e+00  -4.499948e+00
  -5.479167e+00   4.103838e-01
   2.902851e-01   1.757736e+00
   2.290599e+01   1.139759e+00
   3.258469e+01   9.179699e+00
   7.002487e+00   2.803763e+01
  -3.926237e+01   3.886360e+01
  -6.726772e+01   2.029130e+01
  -5.278239e+01  -2.239142e+01
  -8.714319e+00  -5.601572e+01
   3.071060e+01  -5.340114e+01
   4.150933e+01  -2.135066e+01
   2.734513e+01   7.987037e+00
   8.665038e+00   1.346248e+01
   1.509893e+00   3.801537e+00
   5.511621e+00   2.888777e+00
   9.763494e+00   1.826917e+01
   4.086993e+00   3.294848e+01
  -1.186644e+01   2.485061e+01
  -2.693375e+01  -6.839843e+00
  -2.571465e+01  -3.680973e+01
  -2.989341e+00  -3.850420e+01
   2.587963e+01  -9.863115e+00
   3.483940e+01   2.399365e+01
   1.202596e+01   3.633263e+01
  -2.287332e+01   2.148490e+01
  -3.559089e+01  -4.186584e+00
  -1.504026e+01  -2.105474e+01
   1.245117e+01  -2.108026e+01
   1.403858e+01  -9.734992e+00
  -9.276202e+00   1.275835e+00
  -2.406647e+01   1.391580e+00
  -6.198999e+00  -1.010121e+01
   2.867290e+01  -2.158122e+01
   4.388868e+01  -1.668400e+01
   2.538597e+01   6.518955e+00
  -5.656542e+00   2.916044e+01
  -2.122468e+01   2.837047e+01
  -1.508432e+01   4.698288e+00
  -1.105271e+00  -1.725337e+01
   8.540873e+00  -1.565625e+01
   1.136396e+01   4.754571e+00
   8.124133e+00   1.923817e+01
  -6.992596e-01   1.316897e+01
  -1.122282e+01  -3.039476e+00
  -1.424435e+01  -9.760341e+00
  -7.206151e+00  -1.826439e+00
   1.385881e+00   7.227107e+00
   2.742987e+00   3.238820e+00
  -9.905949e-01  -1.062677e+01
   5.700251e-01  -1.783613e+01
   9.449995e+00  -7.145546e+00
   1.405963e+01   1.221879e+01
   4.039230e+00   2.093212e+01
  -1.463437e+01   9.279909e+00
  -2.200103e+01  -1.165252e+01
  -6.349124e+00  -2.155110e+01
   2.032453e+01  -1.237191e+01
   3.254243e+01   5.089354e+00
   1.737088e+01   1.603136e+01
  -1.034033e+01   1.553730e+01
  -2.313672e+01   8.694375e+00
  -1.034568e+01   2.143234e+00
   9.691423e+00  -1.157817e-01
   1.166819e+01   2.906932e+00
  -8.188352e+00   7.873348e+00
  -2.723245e+01   5.577512e+00
