
 $NMID
 id='ANONYMOUS ', fmtdat='(2E16.6)'
 volume=1.0
 tramp=1.0
 $END
   2.385601e+03   1.283000e+01
   1.792276e+03   1.177013e+03
   1.487966e+02   1.454436e+03
  -9.049412e+02   9.583884e+02
  -9.338416e+02   2.303066e+02
  -8.159551e+01  -9.508175e+01
   2.832887e+02  -1.850305e+01
   1.130599e+02   4.155176e+02
  -3.745489e+02   4.576121e+02
  -4.809583e+02   8.671496e+01
  -2.971571e+02  -4.453890e+02
  -5.070480e+01  -5.279995e+02
   2.977844e+02  -1.457638e+02
   2.375843e+02   3.676706e+02
  -5.087217e+01   4.736594e+02
  -2.357117e+02   9.495968e+01
  -2.783124e+02  -4.082031e+02
   1.130037e+02  -5.407527e+02
   3.545211e+02  -2.678936e+02
   3.616476e+02   1.083937e+02
   1.237837e+02   3.210626e+02
  -7.804661e+01   2.390435e+02
  -6.039921e+01   9.148761e+01
   1.394527e+02   1.112516e+02
   2.265266e+02   2.328328e+02
  -2.865522e+01   2.737816e+02
  -3.774544e+02   1.015980e+02
  -5.127496e+02  -1.659884e+02
  -1.964530e+02  -2.881081e+02
   2.660590e+02  -1.451784e+02
   4.325349e+02   1.221619e+02
   1.810463e+02   3.071641e+02
  -2.167576e+02   2.783338e+02
  -4.072019e+02   9.905681e+01
  -2.894187e+02  -1.321481e+02
  -7.460655e+01  -2.569704e+02
   3.867194e+01  -1.483568e+02
  -2.406684e+01   8.398484e+01
  -1.607668e+02   1.475120e+02
  -1.708365e+02  -1.158549e+02
  -2.812857e+01  -4.235284e+02
   1.890206e+02  -3.724028e+02
   2.731352e+02  -4.379996e+00
   1.123069e+02   2.840013e+02
  -1.283358e+02   1.392285e+02
  -1.724110e+02  -2.351565e+02
   7.474637e+01  -3.512380e+02
   3.686223e+02  -5.626040e+01
   4.345793e+02   3.183484e+02
   1.426343e+02   4.258056e+02
  -2.642269e+02   2.192388e+02
  -4.510274e+02  -6.793391e+01
  -2.924648e+02  -2.147256e+02
   4.504903e+01  -1.906868e+02
   2.466987e+02  -7.888735e+01
   1.859473e+02   1.422817e+01
   1.170028e+01   2.320704e+01
  -3.819307e+01  -2.816597e+01
   8.229816e+01  -5.139290e+01
   1.934030e+02   2.313495e+01
   1.120827e+02   1.548884e+02
  -1.226560e+02   2.199722e+02
  -2.926360e+02   1.292119e+02
  -2.275533e+02  -8.167495e+01
   2.451041e+01  -2.738439e+02
   2.589684e+02  -3.009247e+02
   3.066869e+02  -1.241591e+02
   1.792519e+02   1.350682e+02
   2.649433e+01   2.881014e+02
  -2.793761e+01   2.580986e+02
  -5.947414e+00   1.495210e+02
  -2.027757e+01   1.001265e+02
  -1.203442e+02   1.015555e+02
  -2.188824e+02   3.795055e+01
  -2.027455e+02  -1.128504e+02
  -6.833380e+01  -2.172483e+02
   8.618217e+01  -1.473388e+02
   1.512201e+02   5.085998e+01
   9.513412e+01   2.070626e+02
  -4.829041e+01   1.943457e+02
  -2.024514e+02   3.677586e+01
  -2.485142e+02  -1.496837e+02
  -1.437953e+02  -2.482154e+02
   3.632590e+01  -2.259622e+02
   1.429917e+02  -1.335664e+02
   1.340472e+02  -6.616697e+01
   1.304922e+02  -5.128584e+01
   2.331544e+02  -2.680273e+01
   3.446212e+02   7.972938e+01
   2.688519e+02   2.524921e+02
  -2.371227e+01   3.707617e+02
  -3.296749e+02   3.344763e+02
  -4.069804e+02   1.412736e+02
  -2.359224e+02  -8.868598e+01
  -7.484406e+00  -2.083600e+02
   8.090165e+01  -1.608430e+02
   5.648003e+00  -3.129675e+01
  -1.005113e+02   3.171904e+01
  -1.067676e+02  -3.055791e+01
  -6.755569e+00  -1.119974e+02
   9.473332e+01  -8.102553e+01
   8.680265e+01   4.685866e+01
  -2.732036e+01   1.100592e+02
  -1.409268e+02  -2.673717e+00
  -1.331337e+02  -2.024830e+02
   1.533487e+01  -2.954001e+02
   2.090260e+02  -1.813361e+02
   3.092216e+02   5.450147e+01
   2.390330e+02   2.306006e+02
   4.833172e+01   2.395968e+02
  -1.132184e+02   1.178987e+02
  -1.308510e+02   1.498598e+00
  -3.340821e+01  -1.375439e+01
   3.904283e+01   5.367565e+01
  -6.083844e+00   9.559525e+01
  -1.054318e+02   4.982825e+01
  -1.207393e+02  -3.177999e+01
  -2.047790e+01  -5.074230e+01
   7.595408e+01   1.465606e+01
   3.663837e+01   8.788738e+01
  -1.267408e+02   8.168827e+01
  -2.592746e+02  -1.657331e+01
  -2.207944e+02  -1.462302e+02
  -2.464753e+01  -2.232364e+02
   1.743833e+02  -1.961180e+02
   2.244896e+02  -8.029910e+01
   1.138893e+02   3.719060e+01
  -2.488115e+01   6.324729e+01
  -5.058088e+01  -4.914135e+00
   4.974332e+01  -6.519516e+01
   1.576686e+02  -2.338869e+01
   1.547120e+02   9.167354e+01
   3.997481e+01   1.597269e+02
  -8.046839e+01   1.125581e+02
  -1.054303e+02   1.122722e+01
  -3.442147e+01  -3.257705e+01
   3.905788e+01   1.839437e+01
   2.157560e+01   9.441452e+01
  -8.649046e+01   1.004172e+02
  -1.803562e+02   8.622158e+00
  -1.508818e+02  -1.161650e+02
  -4.209442e+00  -1.764061e+02
   1.339563e+02  -1.243007e+02
   1.460580e+02  -5.331746e+00
   4.245683e+01   8.273381e+01
  -5.576256e+01   7.907542e+01
  -6.032406e+01   1.643077e+01
   1.690234e+00  -2.452852e+01
   3.617202e+01  -6.631875e+00
  -6.123443e+00   2.616464e+01
  -7.905408e+01   4.794456e+00
  -9.420196e+01  -7.928251e+01
  -8.589639e+00  -1.528573e+02
   1.254885e+02  -1.304388e+02
   2.045963e+02  -5.158552e+00
   1.590164e+02   1.377994e+02
   2.538678e+01   1.930023e+02
  -8.876108e+01   1.316779e+02
  -1.080760e+02   2.248560e+01
  -5.955556e+01  -4.005570e+01
  -2.594142e+01  -2.607396e+01
  -4.581454e+01   1.400250e+01
  -7.512016e+01   9.115338e+00
  -5.078776e+01  -4.774055e+01
   3.324831e+01  -9.357834e+01
   1.080783e+02  -6.173055e+01
   9.700522e+01   3.885934e+01
  -1.338517e+01   1.147647e+02
  -1.436265e+02   8.045313e+01
  -1.791536e+02  -5.598036e+01
  -7.190356e+01  -1.836330e+02
   1.100860e+02  -1.888509e+02
   2.302349e+02  -6.769301e+01
   2.063344e+02   7.858206e+01
   8.032731e+01   1.432254e+02
  -3.620703e+01   1.161589e+02
  -7.567615e+01   6.574516e+01
  -5.796507e+01   5.731961e+01
  -4.718868e+01   7.927466e+01
  -7.534076e+01   6.811494e+01
  -1.116015e+02  -1.474553e+01
  -1.012141e+02  -1.314357e+02
  -2.192129e+01  -1.926699e+02
   8.605157e+01  -1.412055e+02
   1.451151e+02  -7.812147e+00
   1.074074e+02   1.102420e+02
   6.954814e+00   1.334347e+02
  -6.636364e+01   6.774963e+01
  -5.567085e+01  -1.422180e+01
   3.406943e+00  -4.778921e+01
   2.557134e+01  -3.151896e+01
  -2.101802e+01  -9.875780e+00
  -7.266449e+01  -1.498243e+01
  -4.409682e+01  -3.529583e+01
   6.383737e+01  -3.498732e+01
   1.514198e+02   2.816406e+00
   1.238517e+02   5.704287e+01
  -3.937351e+00   8.548732e+01
  -1.184454e+02   6.192656e+01
  -1.247613e+02   1.506568e+00
  -3.617685e+01  -4.609320e+01
   5.238047e+01  -3.933362e+01
   6.749600e+01   1.515583e+01
   1.818784e+01   6.391098e+01
  -3.736461e+01   5.740392e+01
  -5.826172e+01   2.476662e+00
  -5.026260e+01  -4.374597e+01
  -4.049883e+01  -3.741542e+01
  -4.470516e+01  -9.979659e-01
  -5.362206e+01   1.671720e-01
  -3.830179e+01  -6.036385e+01
   2.177851e+01  -1.289987e+02
   1.074162e+02  -1.236691e+02
   1.549017e+02  -2.822363e+01
   1.111668e+02   8.129081e+01
   8.229741e-02   1.141719e+02
  -8.058179e+01   5.933836e+01
  -5.301672e+01  -1.019046e+01
   5.038646e+01  -1.902417e+01
   1.143287e+02   3.513450e+01
   5.961806e+01   9.155474e+01
  -7.174755e+01   9.316020e+01
  -1.603996e+02   3.562509e+01
  -1.314950e+02  -3.708705e+01
  -2.404934e+01  -7.309890e+01
   5.643681e+01  -5.067113e+01
   4.285578e+01   3.114182e+00
  -3.276183e+01   2.890987e+01
  -7.862555e+01  -1.338416e+01
  -3.581610e+01  -9.533096e+01
   6.357175e+01  -1.317438e+02
   1.304210e+02  -6.142863e+01
   1.062732e+02   7.570960e+01
   1.379527e+01   1.619769e+02
  -6.992888e+01   1.178854e+02
  -8.827092e+01  -1.152555e+01
  -4.507366e+01  -1.030950e+02
   1.355788e+01  -8.654907e+01
   4.455883e+01  -1.127007e+01
   3.710380e+01   2.760228e+01
   1.268426e+01   6.223583e+00
   5.272813e+00  -1.416025e+01
   2.700740e+01   1.879117e+01
   4.869225e+01   7.577140e+01
   2.480454e+01   8.759271e+01
  -4.928393e+01   3.518367e+01
  -1.143794e+02  -3.122551e+01
  -1.021598e+02  -5.899696e+01
  -1.482855e+01  -4.676693e+01
   6.747567e+01  -2.355205e+01
   7.334602e+01  -4.501364e+00
   1.652895e+01   1.133131e+01
  -2.762896e+01   1.887537e+01
  -1.701584e+01   1.055071e+01
   1.098116e+01  -3.236248e+00
  -2.593124e+00  -3.554757e+00
  -5.523837e+01   2.170534e+00
  -7.918004e+01  -1.775623e+01
  -2.162937e+01  -6.896659e+01
   8.741030e+01  -1.015227e+02
   1.589898e+02  -5.873597e+01
   1.315962e+02   4.689234e+01
   2.946235e+01   1.335938e+02
  -6.759543e+01   1.321077e+02
  -9.879546e+01   5.696454e+01
  -6.778326e+01  -1.564919e+01
  -2.237657e+01  -3.264073e+01
  -3.004597e+00  -1.208775e+01
  -1.265422e+01  -8.030764e+00
  -2.535770e+01  -4.193988e+01
  -1.434116e+01  -7.690802e+01
   2.465080e+01  -6.129954e+01
   6.655425e+01   1.078763e+01
   6.962695e+01   8.387392e+01
   1.496664e+01   9.331629e+01
  -6.194392e+01   3.031252e+01
  -9.090347e+01  -5.135441e+01
  -3.650422e+01  -8.644434e+01
   5.284271e+01  -5.649215e+01
   8.821880e+01   4.737202e+00
   3.949567e+01   4.945159e+01
  -2.906447e+01   5.303661e+01
  -3.469409e+01   2.417629e+01
   2.106933e+01  -6.325346e+00
   5.750836e+01  -8.059195e+00
   1.656641e+01   2.369890e+01
  -6.477842e+01   5.589024e+01
  -1.016984e+02   4.463319e+01
  -6.153414e+01  -1.464479e+01
   9.498067e+00  -7.172632e+01
   4.834290e+01  -7.047730e+01
   3.883055e+01  -1.207111e+01
   7.278699e+00   4.254737e+01
  -1.920552e+01   4.026529e+01
  -3.066231e+01  -8.030977e+00
  -2.378978e+01  -4.494634e+01
   9.038974e-01  -3.368020e+01
   2.844687e+01   4.275542e+00
   3.523549e+01   2.227598e+01
   1.709298e+01   4.699048e+00
  -3.970141e+00  -1.740081e+01
  -5.519416e+00  -8.735504e+00
   4.684734e+00   2.592600e+01
   1.147083e+00   4.532421e+01
  -2.248268e+01   2.008007e+01
  -3.640512e+01  -2.861733e+01
  -1.283945e+01  -5.102351e+01
   3.408796e+01  -2.319633e+01
   5.505032e+01   2.686138e+01
   1.827967e+01   5.120868e+01
  -4.831119e+01   3.197738e+01
  -8.033329e+01  -7.932080e+00
  -4.440621e+01  -3.631407e+01
   2.344589e+01  -4.027239e+01
   5.541367e+01  -2.621906e+01
   2.567033e+01  -6.846420e+00
  -2.217452e+01   3.984448e+00
  -2.735729e+01  -3.491338e+00
   1.869314e+01  -2.052175e+01
   6.456001e+01  -1.834002e+01
