
 $NMID
 id='ANONYMOUS ', fmtdat='(2E16.6)'
 volume=1.0
 tramp=1.0
 $END
   2.890976e+03  -4.095873e+01
   2.044152e+03   1.432029e+03
  -5.692882e+01   1.924185e+03
  -1.420058e+03   9.713940e+02
  -9.127891e+02   1.871744e+02
   1.289943e+02  -2.227310e+02
   3.512829e+02   1.164584e+02
   7.907747e+01   5.926368e+02
  -3.785585e+02   5.071356e+02
  -5.457513e+02   8.307500e+01
  -3.465824e+02  -4.985066e+02
  -1.210310e+01  -6.688977e+02
   3.452581e+02  -1.307915e+02
   2.461977e+02   3.943312e+02
  -4.373824e+01   5.336672e+02
  -3.795311e+02   5.563086e+01
  -2.896990e+02  -4.152284e+02
   1.177664e+02  -6.005407e+02
   4.393273e+02  -2.679308e+02
   4.264167e+02   1.422833e+02
   1.408783e+02   3.816725e+02
  -1.039718e+02   2.706128e+02
  -8.132013e+01   8.270653e+01
   1.520211e+02   8.772796e+01
   2.630012e+02   2.851234e+02
  -5.421574e+00   3.637793e+02
  -4.418870e+02   1.214299e+02
  -5.715478e+02  -1.975360e+02
  -2.210637e+02  -3.274907e+02
   2.859414e+02  -1.465453e+02
   4.699755e+02   1.300114e+02
   1.911193e+02   3.393766e+02
  -2.323861e+02   2.927038e+02
  -4.436852e+02   1.242769e+02
  -3.200461e+02  -1.445232e+02
  -7.875584e+01  -2.894076e+02
   3.197699e+01  -1.628440e+02
  -4.195613e+01   1.059048e+02
  -1.746182e+02   1.494109e+02
  -1.986745e+02  -1.366536e+02
  -3.078631e+01  -4.743819e+02
   2.185061e+02  -4.356220e+02
   3.137967e+02  -2.998091e+01
   1.307017e+02   2.719653e+02
  -1.340723e+02   1.376083e+02
  -1.721973e+02  -2.328305e+02
   9.138654e+01  -3.413616e+02
   4.078704e+02  -4.531805e+01
   4.603068e+02   3.495891e+02
   1.467265e+02   4.518762e+02
  -2.959747e+02   2.338772e+02
  -5.066576e+02  -7.710916e+01
  -3.286917e+02  -2.405540e+02
   4.966289e+01  -2.157682e+02
   2.835490e+02  -8.354446e+01
   2.175684e+02   2.149899e+01
   1.721806e+01   2.407854e+01
  -4.306870e+01  -3.992837e+01
   9.107575e+01  -5.934337e+01
   2.146481e+02   3.523957e+01
   1.251694e+02   1.857716e+02
  -1.372467e+02   2.524345e+02
  -3.279859e+02   1.417886e+02
  -2.566183e+02  -1.029740e+02
   2.607204e+01  -3.208054e+02
   2.920798e+02  -3.448904e+02
   3.516483e+02  -1.363161e+02
   2.136306e+02   1.604290e+02
   4.016868e+01   3.321288e+02
  -2.883434e+01   2.963605e+02
  -1.416210e+01   1.700747e+02
  -3.391018e+01   1.066120e+02
  -1.381879e+02   1.037503e+02
  -2.418791e+02   4.354634e+01
  -2.273900e+02  -1.127108e+02
  -8.482596e+01  -2.387346e+02
   8.907655e+01  -1.830576e+02
   1.773344e+02   3.077060e+01
   1.253600e+02   2.261395e+02
  -4.926197e+01   2.348400e+02
  -2.331191e+02   5.625803e+01
  -2.850273e+02  -1.716791e+02
  -1.518217e+02  -2.860737e+02
   5.073925e+01  -2.494561e+02
   1.567329e+02  -1.419695e+02
   1.399794e+02  -7.824497e+01
   1.452789e+02  -6.940852e+01
   2.693741e+02  -3.343280e+01
   3.924975e+02   9.764575e+01
   3.025428e+02   2.864023e+02
  -2.703061e+01   4.103533e+02
  -3.592784e+02   3.695358e+02
  -4.469559e+02   1.637213e+02
  -2.656513e+02  -8.865576e+01
  -1.973491e+01  -2.303568e+02
   8.454185e+01  -1.832919e+02
   5.407130e+00  -3.777254e+01
  -1.085237e+02   3.524421e+01
  -1.183204e+02  -3.671957e+01
  -6.589718e+00  -1.320811e+02
   1.062171e+02  -9.596323e+01
   9.884255e+01   5.085461e+01
  -2.837219e+01   1.210989e+02
  -1.505031e+02  -4.154607e+00
  -1.411743e+02  -2.254290e+02
   2.055111e+01  -3.253785e+02
   2.321154e+02  -1.962614e+02
   3.415943e+02   6.312658e+01
   2.619424e+02   2.546912e+02
   5.127728e+01   2.602222e+02
  -1.249808e+02   1.265861e+02
  -1.395065e+02   8.198916e-01
  -2.937327e+01  -1.278503e+01
   4.662755e+01   6.033172e+01
  -6.931020e+00   1.056822e+02
  -1.164373e+02   5.794983e+01
  -1.326955e+02  -2.904633e+01
  -2.444552e+01  -5.095349e+01
   7.946814e+01   1.720854e+01
   3.514564e+01   9.517098e+01
  -1.453028e+02   8.784700e+01
  -2.923937e+02  -2.322992e+01
  -2.480724e+02  -1.713868e+02
  -2.421723e+01  -2.582785e+02
   2.032318e+02  -2.227235e+02
   2.583256e+02  -8.608508e+01
   1.301904e+02   4.649404e+01
  -2.845089e+01   7.083457e+01
  -5.667856e+01  -8.375989e+00
   5.572554e+01  -7.402508e+01
   1.752637e+02  -2.443475e+01
   1.728268e+02   1.037532e+02
   4.789677e+01   1.769743e+02
  -8.529268e+01   1.236387e+02
  -1.158050e+02   1.207640e+01
  -4.029413e+01  -3.372185e+01
   4.160956e+01   2.495959e+01
   2.330360e+01   1.085378e+02
  -9.722791e+01   1.109473e+02
  -2.035405e+02   5.848819e+00
  -1.710979e+02  -1.320734e+02
  -5.884354e+00  -1.963720e+02
   1.498161e+02  -1.382284e+02
   1.627829e+02  -9.541890e+00
   4.926285e+01   8.636534e+01
  -5.814777e+01   8.603671e+01
  -6.299589e+01   2.227898e+01
   1.896115e+00  -2.168508e+01
   3.562643e+01  -4.423088e+00
  -1.154104e+01   2.731691e+01
  -8.880098e+01   8.787785e-01
  -1.018258e+02  -9.284693e+01
  -6.664897e+00  -1.724949e+02
   1.423653e+02  -1.449374e+02
   2.296501e+02  -3.586475e+00
   1.799481e+02   1.561633e+02
   3.082025e+01   2.169216e+02
  -9.810697e+01   1.488844e+02
  -1.222222e+02   2.776675e+01
  -6.860839e+01  -4.094166e+01
  -3.248583e+01  -2.622440e+01
  -5.408230e+01   1.512968e+01
  -8.649654e+01   5.791570e+00
  -5.616757e+01  -5.832399e+01
   4.071085e+01  -1.047888e+02
   1.245710e+02  -6.426896e+01
   1.071773e+02   4.792330e+01
  -2.012549e+01   1.301671e+02
  -1.656035e+02   8.686559e+01
  -2.024659e+02  -6.806833e+01
  -7.843704e+01  -2.089296e+02
   1.251855e+02  -2.107352e+02
   2.578201e+02  -7.219351e+01
   2.302333e+02   8.999208e+01
   9.036785e+01   1.600128e+02
  -3.956712e+01   1.280067e+02
  -8.303062e+01   7.357649e+01
  -6.484789e+01   6.709862e+01
  -5.545200e+01   9.236643e+01
  -8.758088e+01   7.728917e+01
  -1.259812e+02  -1.864390e+01
  -1.113512e+02  -1.495574e+02
  -2.058864e+01  -2.162921e+02
   9.900732e+01  -1.560237e+02
   1.613320e+02  -5.648446e+00
   1.160965e+02   1.250859e+02
   4.332735e+00   1.487807e+02
  -7.364556e+01   7.363426e+01
  -5.804620e+01  -1.714346e+01
   7.397800e+00  -5.154553e+01
   2.825408e+01  -3.157363e+01
  -2.717676e+01  -8.852951e+00
  -8.474501e+01  -1.735298e+01
  -5.050059e+01  -4.041399e+01
   7.114706e+01  -3.844494e+01
   1.680792e+02   4.531032e+00
   1.366933e+02   6.304258e+01
  -4.529954e+00   9.268226e+01
  -1.310469e+02   6.640271e+01
  -1.381383e+02   1.591507e+00
  -4.010254e+01  -4.956886e+01
   5.865222e+01  -4.152170e+01
   7.537340e+01   1.839971e+01
   1.873605e+01   7.192001e+01
  -4.428866e+01   6.379138e+01
  -6.730973e+01   1.461266e+00
  -5.641502e+01  -5.065744e+01
  -4.488385e+01  -4.296896e+01
  -5.094115e+01  -2.213604e+00
  -6.158878e+01  -1.844373e+00
  -4.257576e+01  -7.129695e+01
   2.817300e+01  -1.474279e+02
   1.252831e+02  -1.379234e+02
   1.766424e+02  -2.747377e+01
   1.240771e+02   9.535754e+01
  -2.609647e+00   1.294355e+02
  -9.276524e+01   6.527660e+01
  -6.035449e+01  -1.254533e+01
   5.701697e+01  -2.096174e+01
   1.284100e+02   4.033296e+01
   6.625420e+01   1.024917e+02
  -8.122735e+01   1.034554e+02
  -1.801045e+02   3.929281e+01
  -1.473426e+02  -4.161028e+01
  -2.676326e+01  -8.065049e+01
   6.248867e+01  -5.543238e+01
   4.569078e+01   3.610377e+00
  -4.005194e+01   3.009015e+01
  -9.001822e+01  -1.969114e+01
  -3.852586e+01  -1.113700e+02
   7.648648e+01  -1.491506e+02
   1.515685e+02  -6.709093e+01
   1.207218e+02   8.774763e+01
   1.372071e+01   1.835280e+02
  -8.036783e+01   1.327424e+02
  -9.888639e+01  -1.304665e+01
  -4.919337e+01  -1.156431e+02
   1.579014e+01  -9.685491e+01
   4.962572e+01  -1.231047e+01
   4.100501e+01   3.106805e+01
   1.426258e+01   6.659378e+00
   6.133055e+00  -1.626297e+01
   3.050577e+01   2.158302e+01
   5.521326e+01   8.643978e+01
   2.892412e+01   9.946325e+01
  -5.501357e+01   3.963279e+01
  -1.293059e+02  -3.551712e+01
  -1.157322e+02  -6.633136e+01
  -1.660936e+01  -5.159909e+01
   7.674814e+01  -2.483916e+01
   8.230473e+01  -3.825228e+00
   1.699498e+01   1.311034e+01
  -3.287480e+01   2.067728e+01
  -1.959739e+01   1.063008e+01
   1.293011e+01  -5.115492e+00
  -2.539606e+00  -4.874473e+00
  -6.219800e+01   2.257949e+00
  -8.835455e+01  -1.997854e+01
  -2.206432e+01  -7.778921e+01
   1.011675e+02  -1.135251e+02
   1.802501e+02  -6.388786e+01
   1.472760e+02   5.623813e+01
   3.076778e+01   1.527496e+02
  -7.871649e+01   1.489472e+02
  -1.133435e+02   6.271760e+01
  -7.728102e+01  -1.940145e+01
  -2.503251e+01  -3.812251e+01
  -2.142074e+00  -1.411942e+01
  -1.271726e+01  -8.862834e+00
  -2.758532e+01  -4.691892e+01
  -1.617269e+01  -8.679054e+01
   2.768292e+01  -6.847840e+01
   7.473079e+01   1.372489e+01
   7.771384e+01   9.635839e+01
   1.547189e+01   1.057224e+02
  -7.101368e+01   3.208979e+01
  -1.023585e+02  -6.068905e+01
  -3.957036e+01  -9.877563e+01
   6.167215e+01  -6.285894e+01
   1.007343e+02   7.240934e+00
   4.439740e+01   5.728773e+01
  -3.358343e+01   6.065597e+01
  -3.971147e+01   2.749090e+01
   2.401837e+01  -7.491896e+00
   6.508080e+01  -9.342294e+00
   1.829730e+01   2.667034e+01
  -7.418239e+01   6.327295e+01
  -1.157346e+02   5.023518e+01
  -6.903790e+01  -1.748200e+01
   1.265697e+01  -8.214285e+01
   5.653978e+01  -7.946279e+01
   4.469126e+01  -1.223472e+01
   7.808215e+00   5.032609e+01
  -2.287949e+01   4.727804e+01
  -3.610344e+01  -8.776387e+00
  -2.779093e+01  -5.158739e+01
   9.997983e-01  -3.894506e+01
   3.250784e+01   4.726394e+00
   4.012954e+01   2.529513e+01
   1.886905e+01   5.499122e+00
  -4.773293e+00  -1.967839e+01
  -6.133723e+00  -1.002723e+01
   5.934532e+00   2.933084e+01
   1.394138e+00   5.125032e+01
  -2.531296e+01   2.295481e+01
  -4.106149e+01  -3.190198e+01
  -1.410898e+01  -5.691158e+01
   3.887741e+01  -2.506764e+01
   6.159469e+01   3.117630e+01
   1.912213e+01   5.761858e+01
  -5.566010e+01   3.498726e+01
  -9.038550e+01  -1.032464e+01
  -4.896408e+01  -4.150455e+01
   2.791959e+01  -4.498903e+01
   6.321568e+01  -2.852921e+01
   2.888474e+01  -6.787866e+00
  -2.543400e+01   4.830887e+00
  -3.120576e+01  -3.979460e+00
   2.112332e+01  -2.316435e+01
   7.253789e+01  -2.014588e+01
