
 $NMID
 id='ANONYMOUS ', fmtdat='(2E16.6)'
 volume=1.0
 tramp=1.0
 $END
   7.677820e+02   9.667656e+01
   5.101708e+02   4.604611e+02
   1.580290e+02   5.128193e+02
  -1.852349e+02   4.238465e+02
  -2.631014e+02   9.154874e+01
  -1.002743e+02  -5.538859e+01
  -5.922213e+01   5.018083e+01
  -3.292248e+01   8.726001e+01
  -6.641765e+01   5.224605e+01
  -1.628568e+02   6.197740e+00
  -9.246991e+01  -1.490817e+01
  -4.677962e+01  -1.280299e+02
   9.434446e+01  -1.101582e+01
   1.385241e+01   1.005843e+02
  -3.168079e+00   1.508055e+02
  -1.005632e+02   5.963169e+01
  -1.007252e+02  -1.414601e+02
   1.051951e+01  -1.728142e+02
   6.788330e+01  -7.967882e+01
   1.243062e+02   1.541742e+01
   2.431051e+01   6.532285e+01
   2.011954e+01   4.755036e+01
  -9.234107e+00   4.993759e+01
   5.619599e+01   3.315691e+01
   4.159767e+01   9.663339e+01
  -2.695482e+01   9.709474e+01
  -1.102445e+02   1.076297e+01
  -1.580080e+02  -5.935219e+01
  -6.822117e+01  -8.587631e+01
   5.008208e+01  -4.303972e+01
   9.381312e+01   2.974138e+01
   3.460745e+01   7.384863e+01
  -7.116624e+01   7.765248e+01
  -1.142496e+02   1.320137e+01
  -7.570933e+01  -4.445402e+01
  -2.109548e+01  -7.102623e+01
   1.307588e+00  -3.282777e+01
  -2.538191e+01   3.881016e+01
  -5.172546e+01   2.673100e+01
  -4.147807e+01  -5.307205e+01
   1.116722e+01  -1.192349e+02
   5.292206e+01  -1.122465e+02
   7.471472e+01   3.088079e+00
   1.898005e+01   7.061976e+01
  -2.417512e+01   2.406879e+01
  -4.002200e+01  -7.535816e+01
   2.656002e+01  -9.567253e+01
   1.029540e+02  -8.746846e+00
   1.159100e+02   9.053043e+01
   3.785945e+01   1.137517e+02
  -7.854203e+01   4.957395e+01
  -1.275448e+02  -3.977114e+01
  -7.608685e+01  -7.575624e+01
   2.630616e+01  -5.861267e+01
   8.587518e+01  -1.485002e+01
   6.052686e+01   1.114641e+01
   3.189483e+00   8.415128e+00
  -1.106328e+01  -8.185921e+00
   2.545244e+01  -1.207382e+01
   5.393041e+01   9.760294e+00
   2.818628e+01   4.128054e+01
  -3.475610e+01   5.330890e+01
  -7.638788e+01   2.817865e+01
  -5.505062e+01  -2.511529e+01
   1.608592e+01  -7.340995e+01
   8.223318e+01  -7.795532e+01
   9.283367e+01  -2.486343e+01
   4.773644e+01   5.157062e+01
  -4.642638e+00   9.128530e+01
  -2.133417e+01   7.077761e+01
  -6.911594e+00   3.164989e+01
  -4.234541e+00   2.153226e+01
  -3.573023e+01   3.138314e+01
  -7.194642e+01   1.372890e+01
  -6.572557e+01  -3.984519e+01
  -1.471196e+01  -7.897059e+01
   4.031674e+01  -5.179336e+01
   5.275544e+01   2.151445e+01
   2.306760e+01   7.491356e+01
  -2.803675e+01   6.263509e+01
  -6.668776e+01  -8.368994e-01
  -6.868988e+01  -5.804332e+01
  -3.452128e+01  -7.473801e+01
   1.522912e+01  -6.055089e+01
   3.910466e+01  -3.452739e+01
   3.958076e+01  -2.233741e+01
   4.012325e+01  -1.546145e+01
   6.749155e+01  -7.729735e+00
   9.798992e+01   2.919952e+01
   7.528800e+01   7.929112e+01
  -1.287730e+01   1.097307e+02
  -1.048477e+02   9.562632e+01
  -1.286654e+02   3.169260e+01
  -7.355979e+01  -3.715255e+01
   2.028071e+00  -6.657540e+01
   3.108727e+01  -4.628630e+01
   5.282562e+00  -7.567161e+00
  -3.103812e+01   4.503399e+00
  -2.886781e+01  -1.645351e+01
   6.339809e+00  -3.531689e+01
   3.514921e+01  -1.966167e+01
   2.720826e+01   1.985502e+01
  -1.203964e+01   3.551757e+01
  -4.290751e+01  -1.003816e+00
  -3.544689e+01  -6.227091e+01
   8.752374e+00  -8.856216e+01
   6.482050e+01  -5.452980e+01
   9.135004e+01   1.878895e+01
   6.800608e+01   7.251815e+01
   1.092504e+01   7.454488e+01
  -3.499495e+01   3.522981e+01
  -3.702341e+01  -7.872716e-01
  -8.161470e+00  -3.885977e+00
   1.002364e+01   1.738698e+01
  -6.320269e+00   2.934997e+01
  -3.634252e+01   1.319364e+01
  -3.933595e+01  -1.333834e+01
  -7.318889e+00  -2.020836e+01
   2.366661e+01   1.804559e-01
   1.369059e+01   2.312865e+01
  -3.299510e+01   2.040928e+01
  -7.115956e+01  -9.603853e+00
  -5.890962e+01  -4.513813e+01
  -8.190818e-01  -6.177571e+01
   5.555430e+01  -4.900962e+01
   6.571978e+01  -1.572923e+01
   2.969390e+01   1.378912e+01
  -1.081888e+01   1.756037e+01
  -1.564582e+01  -2.298830e+00
   1.523570e+01  -1.807276e+01
   4.605524e+01  -4.926488e+00
   4.371137e+01   2.872032e+01
   9.733109e+00   4.817476e+01
  -2.566169e+01   3.402655e+01
  -3.321760e+01   2.748547e+00
  -1.316152e+01  -1.096274e+01
   8.238728e+00   4.225047e+00
   3.548793e+00   2.599612e+01
  -2.630859e+01   2.537661e+01
  -5.145244e+01  -3.469852e+00
  -4.109976e+01  -3.906619e+01
   2.376856e+00  -5.301321e+01
   4.314534e+01  -3.408582e+01
   4.640559e+01   1.825023e+00
   1.406968e+01   2.708207e+01
  -1.838354e+01   2.548741e+01
  -2.256008e+01   5.749867e+00
  -3.352312e+00  -8.586636e+00
   9.635617e+00  -4.960999e+00
   1.512815e-01   4.189829e+00
  -2.063350e+01  -8.711507e-01
  -2.420468e+01  -2.423649e+01
   9.720040e-01  -4.312443e+01
   3.930337e+01  -3.452742e+01
   5.902127e+01   2.287491e+00
   4.266458e+01   4.309577e+01
   3.135522e+00   5.709350e+01
  -2.869686e+01   3.741838e+01
  -3.329154e+01   4.685019e+00
  -1.900123e+01  -1.409000e+01
  -8.226209e+00  -1.007084e+01
  -1.237374e+01   1.022019e+00
  -1.911431e+01   4.172884e-01
  -1.191169e+01  -1.448175e+01
   1.123508e+01  -2.591403e+01
   3.202083e+01  -1.498410e+01
   2.628311e+01   1.292040e+01
  -6.525367e+00   3.201818e+01
  -4.148918e+01   1.868605e+01
  -4.911728e+01  -2.024455e+01
  -1.457176e+01  -5.467276e+01
   3.645078e+01  -5.067980e+01
   6.699331e+01  -1.323425e+01
   5.630545e+01   2.892333e+01
   1.974131e+01   4.374905e+01
  -1.274808e+01   3.257383e+01
  -2.389061e+01   1.766345e+01
  -2.028971e+01   1.590128e+01
  -1.785309e+01   2.147781e+01
  -2.488160e+01   1.600783e+01
  -3.130247e+01  -9.280946e+00
  -2.475446e+01  -4.122685e+01
  -6.491689e-01  -5.577267e+01
   2.872328e+01  -3.830740e+01
   4.227055e+01   8.851113e-01
   2.830703e+01   3.388921e+01
  -1.054810e+00   3.909774e+01
  -2.031784e+01   1.903809e+01
  -1.528336e+01  -4.268674e+00
   2.185076e+00  -1.293432e+01
   7.414138e+00  -7.989513e+00
  -7.151011e+00  -3.237879e+00
  -2.174773e+01  -6.649170e+00
  -1.256227e+01  -1.205906e+01
   1.920277e+01  -8.449862e+00
   4.416490e+01   5.350941e+00
   3.468431e+01   2.042191e+01
  -3.454714e+00   2.495643e+01
  -3.663907e+01   1.480430e+01
  -3.722794e+01  -2.794044e+00
  -1.046911e+01  -1.421033e+01
   1.521906e+01  -9.892858e+00
   1.868594e+01   6.400735e+00
   2.975032e+00   1.906077e+01
  -1.338672e+01   1.512548e+01
  -1.824622e+01  -2.080428e+00
  -1.419193e+01  -1.585872e+01
  -1.036488e+01  -1.407615e+01
  -1.178526e+01  -3.317244e+00
  -1.379357e+01  -2.247451e+00
  -7.433223e+00  -1.768250e+01
   1.124594e+01  -3.525936e+01
   3.503593e+01  -3.162139e+01
   4.519994e+01  -3.220608e+00
   2.943407e+01   2.682717e+01
  -3.411867e+00   3.357266e+01
  -2.495899e+01   1.514088e+01
  -1.510901e+01  -4.216111e+00
   1.430189e+01  -2.968691e+00
   3.062412e+01   1.487956e+01
   1.291409e+01   2.894395e+01
  -2.465593e+01   2.356541e+01
  -4.772795e+01   3.114118e+00
  -3.709094e+01  -1.621373e+01
  -5.385818e+00  -2.244405e+01
   1.701586e+01  -1.316793e+01
   1.238634e+01   1.036790e+00
  -8.733602e+00   5.896873e+00
  -2.018965e+01  -6.894963e+00
  -6.553021e+00  -2.820700e+01
   2.219361e+01  -3.562299e+01
   3.942911e+01  -1.380419e+01
   2.884679e+01   2.491701e+01
  -1.863537e-01   4.744840e+01
  -2.358628e+01   3.267018e+01
  -2.534658e+01  -5.411983e+00
  -1.006440e+01  -3.103313e+01
   6.754249e+00  -2.475636e+01
   1.339320e+01  -2.063365e+00
   9.888503e+00   8.838842e+00
   3.886991e+00   1.837257e+00
   2.414700e+00  -4.072214e+00
   7.629786e+00   7.073865e+00
   1.177474e+01   2.495362e+01
   4.400835e+00   2.731115e+01
  -1.537077e+01   8.924645e+00
  -3.276259e+01  -1.334077e+01
  -2.881445e+01  -2.102638e+01
  -3.976970e+00  -1.445170e+01
   2.012387e+01  -4.649624e+00
   2.225811e+01   1.389036e+00
   5.529663e+00   4.090773e+00
  -8.273988e+00   4.710642e+00
  -6.012164e+00   2.236634e+00
   2.437932e+00  -1.195193e+00
  -4.669364e-01  -1.678315e+00
  -1.506383e+01  -1.107402e+00
  -2.155758e+01  -6.788314e+00
  -4.118807e+00  -1.929569e+01
   2.806325e+01  -2.547867e+01
   4.742109e+01  -1.157681e+01
   3.633366e+01   1.742131e+01
   3.428897e+00   3.927496e+01
  -2.495185e+01   3.606969e+01
  -3.126805e+01   1.324560e+01
  -1.913140e+01  -6.943453e+00
  -5.141299e+00  -1.076938e+01
  -3.138535e-01  -4.377991e+00
  -3.380278e+00  -3.192460e+00
  -5.692095e+00  -1.305417e+01
  -1.371599e+00  -2.264787e+01
   9.122742e+00  -1.697287e+01
   1.838605e+01   4.786349e+00
   1.720429e+01   2.554138e+01
   2.004430e+00   2.703609e+01
  -1.767621e+01   7.054701e+00
  -2.356858e+01  -1.710003e+01
  -7.358719e+00  -2.602429e+01
   1.705958e+01  -1.472366e+01
   2.521464e+01   4.423721e+00
   9.659119e+00   1.661993e+01
  -1.038066e+01   1.513716e+01
  -1.111837e+01   5.790861e+00
   6.152039e+00  -1.614548e+00
   1.701601e+01  -6.610561e-01
   4.192370e+00   7.286563e+00
  -2.063313e+01   1.350824e+01
  -3.087970e+01   9.177284e+00
  -1.686025e+01  -5.627510e+00
   5.624320e+00  -1.922687e+01
   1.639300e+01  -1.786384e+01
   1.107835e+01  -2.283156e+00
  -4.767490e-02   1.213500e+01
  -7.375955e+00   1.094811e+01
  -8.851555e+00  -3.416420e+00
  -5.530289e+00  -1.435361e+01
   1.835763e+00  -1.086577e+01
   8.838231e+00   1.752296e+00
   1.020216e+01   8.329199e+00
   4.804666e+00   3.055676e+00
  -1.143906e+00  -4.725899e+00
  -1.712647e+00  -3.278676e+00
   8.814255e-01   6.789469e+00
  -4.080704e-01   1.264370e+01
  -6.678654e+00   5.544422e+00
  -9.624540e+00  -8.658754e+00
  -2.372854e+00  -1.442047e+01
   1.050215e+01  -5.597234e+00
   1.545375e+01   9.344198e+00
   4.188447e+00   1.538199e+01
  -1.451229e+01   8.196907e+00
  -2.298041e+01  -3.972881e+00
  -1.255477e+01  -1.114174e+01
   6.870774e+00  -1.054022e+01
   1.604060e+01  -6.218501e+00
   7.922092e+00  -1.934981e+00
  -5.639765e+00   1.684688e-01
  -7.286288e+00  -1.296447e+00
   5.510028e+00  -4.465117e+00
   1.823994e+01  -2.988495e+00
