
 $NMID
 id='ANONYMOUS ', fmtdat='(2E16.6)'
 volume=1.0
 tramp=1.0
 $END
  -1.221957e+03   3.604109e+01
  -9.002043e+02  -7.001455e+02
  -1.470226e+01  -9.496421e+02
   5.231122e+02  -5.205478e+02
   2.351539e+02  -1.668253e+02
  -2.567494e+00  -4.240408e+01
  -8.195217e+01  -7.221939e+01
   1.782702e+01  -2.522587e+02
   2.041424e+02  -2.615679e+02
   2.904400e+02  -7.868999e+01
   1.753281e+02   1.288874e+02
  -9.948675e+00   2.790025e+02
  -9.140187e+01   7.889024e+01
  -7.436632e+01  -1.925748e+02
   8.086701e+01  -2.059210e+02
   1.899685e+02  -6.879349e+01
   1.214602e+02   2.094956e+02
   8.864332e+00   2.488503e+02
  -1.767726e+02   1.340439e+02
  -2.087951e+02  -6.552112e+01
  -6.360526e+01  -1.359608e+02
   6.346365e+01  -7.656844e+01
   3.581422e+01  -4.973310e+01
  -8.118786e+01  -4.355690e+01
  -9.164288e+01  -1.132850e+02
   7.232924e+00  -1.631494e+02
   2.130057e+02  -7.102373e+01
   2.218715e+02   7.148141e+01
   7.236113e+01   1.478369e+02
  -1.274629e+02   8.705371e+01
  -1.834915e+02  -5.469743e+01
  -5.947445e+01  -1.457064e+02
   1.136100e+02  -1.522778e+02
   1.733705e+02  -4.486588e+01
   1.112530e+02   7.150958e+01
   3.345634e+01   1.222040e+02
   2.027704e+00   5.928938e+01
   5.003807e+01  -2.903398e+01
   6.991889e+01  -2.382911e+01
   6.947351e+01   8.654355e+01
  -2.495883e+01   1.926571e+02
  -1.057424e+02   1.605366e+02
  -1.165721e+02  -1.598071e+01
  -4.648031e+01  -1.181075e+02
   3.944350e+01  -4.395765e+01
   4.993181e+01   1.023835e+02
  -4.506716e+01   1.401652e+02
  -1.719937e+02   1.338668e+01
  -1.848053e+02  -1.458100e+02
  -6.372655e+01  -1.989633e+02
   1.143909e+02  -1.121265e+02
   2.055698e+02   1.919181e+01
   1.367082e+02   9.921132e+01
  -1.212519e+01   9.133225e+01
  -1.069074e+02   3.377859e+01
  -8.320791e+01  -5.245531e+00
  -9.850825e+00  -4.962175e-01
   8.973217e+00   2.185270e+01
  -4.245803e+01   1.953313e+01
  -8.437850e+01  -2.008293e+01
  -4.543905e+01  -7.237741e+01
   5.607516e+01  -9.650318e+01
   1.322912e+02  -5.918135e+01
   1.097582e+02   4.019293e+01
  -2.520524e+00   1.439738e+02
  -1.220349e+02   1.671571e+02
  -1.630319e+02   7.273939e+01
  -1.103571e+02  -7.136909e+01
  -3.026562e+01  -1.520871e+02
   6.512418e+00  -1.301176e+02
   1.464904e+00  -7.110565e+01
   9.320603e+00  -4.978780e+01
   5.789673e+01  -5.803091e+01
   1.081122e+02  -3.031133e+01
   1.030465e+02   4.836992e+01
   3.622144e+01   1.120553e+02
  -4.437663e+01   8.565736e+01
  -8.505318e+01  -1.950058e+01
  -5.616702e+01  -1.113217e+02
   2.723305e+01  -1.136544e+02
   1.099054e+02  -2.490044e+01
   1.299471e+02   7.527777e+01
   6.563466e+01   1.242785e+02
  -2.306610e+01   1.056739e+02
  -6.260934e+01   6.315048e+01
  -5.476439e+01   3.947985e+01
  -6.512447e+01   3.350067e+01
  -1.220274e+02   1.609216e+01
  -1.736650e+02  -4.754940e+01
  -1.353065e+02  -1.336005e+02
   1.098785e+01  -1.925714e+02
   1.619718e+02  -1.686113e+02
   2.096182e+02  -6.848506e+01
   1.307052e+02   5.137723e+01
   1.179792e+01   1.118929e+02
  -4.249327e+01   8.344301e+01
  -1.152610e+01   1.360136e+01
   4.548916e+01  -1.626384e+01
   5.167039e+01   1.852665e+01
   1.490182e-02   5.978703e+01
  -5.142799e+01   4.266295e+01
  -4.545783e+01  -2.502142e+01
   1.476445e+01  -5.839457e+01
   7.090379e+01  -8.557743e+00
   6.894726e+01   9.174815e+01
  -1.601925e+00   1.442682e+02
  -9.831311e+01   9.603058e+01
  -1.519115e+02  -1.518002e+01
  -1.204299e+02  -1.048065e+02
  -2.721880e+01  -1.149537e+02
   5.262718e+01  -6.125071e+01
   6.002615e+01  -6.101838e+00
   1.185740e+01   1.590261e+00
  -2.146311e+01  -2.818803e+01
   4.417103e+00  -4.730543e+01
   5.464502e+01  -2.622315e+01
   6.357967e+01   1.221443e+01
   1.418309e+01   2.397191e+01
  -3.650829e+01  -3.245655e+00
  -2.129573e+01  -3.803926e+01
   5.898776e+01  -3.911930e+01
   1.276074e+02   4.971886e+00
   1.107051e+02   6.864796e+01
   1.137915e+01   1.095047e+02
  -8.994454e+01   9.718285e+01
  -1.122675e+02   3.828488e+01
  -5.209689e+01  -2.071287e+01
   1.844825e+01  -3.265573e+01
   2.920750e+01   3.183175e+00
  -2.417033e+01   3.569413e+01
  -8.023389e+01   1.661288e+01
  -8.066380e+01  -4.162390e+01
  -2.422535e+01  -7.940197e+01
   3.763561e+01  -5.947630e+01
   5.407181e+01  -8.325415e+00
   1.925865e+01   1.665209e+01
  -2.027030e+01  -8.228772e+00
  -1.323379e+01  -4.867489e+01
   4.266019e+01  -5.360977e+01
   9.304860e+01  -6.729286e+00
   8.001854e+01   5.909971e+01
   5.333183e+00   9.158931e+01
  -6.647173e+01   6.576146e+01
  -7.541660e+01   5.354270e+00
  -2.536403e+01  -4.064707e+01
   2.643813e+01  -4.145293e+01
   3.221763e+01  -1.024287e+01
   1.932938e+00   1.287153e+01
  -1.781171e+01   5.866500e+00
   2.728863e-01  -1.152791e+01
   3.695267e+01  -3.986283e+00
   4.755709e+01   3.788020e+01
   7.384344e+00   7.675684e+01
  -6.157379e+01   6.819341e+01
  -1.034122e+02   4.921622e+00
  -8.403867e+01  -6.845243e+01
  -1.720986e+01  -9.880077e+01
   4.208012e+01  -6.978724e+01
   5.567927e+01  -1.552149e+01
   3.401559e+01   1.790455e+01
   1.649225e+01   1.314853e+01
   2.397346e+01  -5.398473e+00
   3.699358e+01  -3.944474e+00
   2.501496e+01   2.317097e+01
  -1.530247e+01   4.641975e+01
  -5.198265e+01   3.143051e+01
  -4.673450e+01  -1.704086e+01
   6.664546e+00  -5.772528e+01
   7.036959e+01  -4.074776e+01
   8.905809e+01   2.720897e+01
   3.635899e+01   9.183331e+01
  -5.313070e+01   9.642843e+01
  -1.131749e+02   3.627396e+01
  -1.039747e+02  -3.793991e+01
  -4.294196e+01  -7.278802e+01
   1.591011e+01  -5.938314e+01
   3.756899e+01  -3.400888e+01
   2.970034e+01  -2.854503e+01
   2.416860e+01  -3.926190e+01
   3.703342e+01  -3.477311e+01
   5.576055e+01   5.664483e+00
   5.216181e+01   6.386956e+01
   1.291839e+01   9.628301e+01
  -4.225409e+01   7.181945e+01
  -7.298299e+01   5.413838e+00
  -5.481436e+01  -5.398877e+01
  -4.061223e+00  -6.747222e+01
   3.343249e+01  -3.575659e+01
   2.877284e+01   5.675951e+00
  -4.714777e-01   2.434776e+01
  -1.171892e+01   1.731360e+01
   1.117773e+01   5.170729e+00
   3.694960e+01   5.880931e+00
   2.277131e+01   1.661451e+01
  -3.104620e+01   1.990922e+01
  -7.559627e+01   2.979958e+00
  -6.355417e+01  -2.637323e+01
  -7.719978e-01  -4.481127e+01
   5.730361e+01  -3.500966e+01
   6.265152e+01  -3.195887e+00
   2.036562e+01   2.303141e+01
  -2.411476e+01   2.066866e+01
  -3.362263e+01  -7.093354e+00
  -1.049725e+01  -3.242469e+01
   1.762087e+01  -2.989214e+01
   2.981367e+01  -2.869607e+00
   2.721096e+01   2.028548e+01
   2.237614e+01   1.792504e+01
   2.430407e+01   6.472308e-01
   2.855538e+01   4.708454e-01
   2.118017e+01   3.118706e+01
  -9.091446e+00   6.620895e+01
  -5.275979e+01   6.465254e+01
  -7.810450e+01   1.726724e+01
  -5.746717e+01  -3.826723e+01
  -2.318201e+00  -5.740665e+01
   3.876112e+01  -3.215398e+01
   2.702975e+01   2.933665e+00
  -2.368963e+01   9.782819e+00
  -5.599174e+01  -1.552549e+01
  -3.023380e+01  -4.427329e+01
   3.459084e+01  -4.704140e+01
   7.998706e+01  -1.985511e+01
   6.736292e+01   1.678732e+01
   1.428615e+01   3.656381e+01
  -2.626781e+01   2.683235e+01
  -2.065872e+01   5.335825e-01
   1.597248e+01  -1.268802e+01
   3.840697e+01   7.664094e+00
   1.753389e+01   4.805962e+01
  -3.120574e+01   6.594832e+01
  -6.483908e+01   3.136270e+01
  -5.400910e+01  -3.702884e+01
  -8.866819e+00  -8.074023e+01
   3.396380e+01  -5.961261e+01
   4.534099e+01   4.760086e+00
   2.461397e+01   5.145213e+01
  -6.112220e+00   4.429578e+01
  -2.333434e+01   6.864434e+00
  -1.938779e+01  -1.344361e+01
  -6.525974e+00  -3.133375e+00
  -2.516523e+00   7.090099e+00
  -1.415889e+01  -9.105050e+00
  -2.544741e+01  -3.811833e+01
  -1.298036e+01  -4.470995e+01
   2.475274e+01  -1.898377e+01
   5.797049e+01   1.428718e+01
   5.269498e+01   2.898173e+01
   9.517787e+00   2.369422e+01
  -3.240603e+01   1.285377e+01
  -3.681382e+01   3.571909e+00
  -9.182020e+00  -4.485165e+00
   1.328961e+01  -8.949759e+00
   8.860089e+00  -5.263621e+00
  -5.587448e+00   1.691572e+00
   3.126090e-01   1.922072e+00
   2.641571e+01  -1.487431e+00
   3.930547e+01   7.523550e+00
   1.187983e+01   3.270225e+01
  -4.182841e+01   5.012353e+01
  -7.791235e+01   3.078761e+01
  -6.583524e+01  -2.102531e+01
  -1.616558e+01  -6.537022e+01
   3.185992e+01  -6.678876e+01
   4.838980e+01  -3.059822e+01
   3.452189e+01   6.017418e+00
   1.252061e+01   1.579009e+01
   2.330426e+00   6.163821e+00
   6.677042e+00   4.147800e+00
   1.317265e+01   2.113539e+01
   7.787095e+00   3.881516e+01
  -1.195049e+01   3.106516e+01
  -3.336307e+01  -5.087171e+00
  -3.519940e+01  -4.155761e+01
  -8.471975e+00  -4.659382e+01
   2.984113e+01  -1.565557e+01
   4.535421e+01   2.459561e+01
   1.954623e+01   4.247267e+01
  -2.484409e+01   2.853933e+01
  -4.394342e+01  -1.403264e+00
  -2.077550e+01  -2.442285e+01
   1.375576e+01  -2.718865e+01
   1.774075e+01  -1.313661e+01
  -9.951253e+00   3.284714e+00
  -2.908490e+01   5.009452e+00
  -9.351445e+00  -1.129461e+01
   3.195339e+01  -2.878843e+01
   5.156406e+01  -2.423059e+01
   3.157476e+01   5.610636e+00
  -4.366961e+00   3.557706e+01
  -2.409983e+01   3.616553e+01
  -1.916410e+01   6.921328e+00
  -3.437663e+00  -2.162251e+01
   9.888701e+00  -2.126687e+01
   1.611172e+01   3.423368e+00
   1.287685e+01   2.279593e+01
   2.657546e-01   1.774287e+01
  -1.456608e+01  -1.711416e+00
  -1.885981e+01  -1.112477e+01
  -8.918233e+00  -2.265040e+00
   3.007502e+00   9.354467e+00
   3.557895e+00   4.989122e+00
  -3.305125e+00  -1.292517e+01
  -2.743769e+00  -2.330041e+01
   9.488593e+00  -1.181685e+01
   1.891845e+01   1.230182e+01
   8.897601e+00   2.411735e+01
  -1.481300e+01   1.180898e+01
  -2.667771e+01  -1.161418e+01
  -9.640452e+00  -2.408577e+01
   2.324761e+01  -1.592869e+01
   3.965213e+01   2.788734e+00
   2.223813e+01   1.716393e+01
  -1.097898e+01   2.013122e+01
  -2.673780e+01   1.365070e+01
  -1.242902e+01   3.668140e+00
   1.082327e+01  -2.264937e+00
   1.328722e+01   1.410084e+00
  -8.856492e+00   1.032047e+01
  -3.112839e+01   9.736383e+00
