
 $NMID
 id='ANONYMOUS ', fmtdat='(2E16.6)'
 volume=1.0
 tramp=1.0
 $END
  -7.959608e+02   1.291212e+02
  -3.530932e+02  -5.094196e+02
   9.269450e+01  -6.146871e+02
   3.751843e+02  -1.683598e+02
   1.323808e+02   1.369123e+02
  -7.515065e+01   1.490138e+02
  -2.011486e+02  -5.895990e+01
  -8.060478e+01  -1.719540e+02
   6.880282e+01  -2.429957e+02
   1.941323e+02  -2.148937e+01
   1.984880e+02   7.617142e+01
  -3.494063e+01   1.823160e+02
  -8.093790e+01   7.884735e+01
  -1.280672e+02  -6.804627e+01
  -2.820324e+01  -1.299945e+02
   1.496498e+02  -2.946883e+01
   3.050965e+01   2.973486e+01
  -2.710487e+01   1.144364e+02
  -1.180541e+02  -7.985416e+00
  -5.320127e+01  -8.696865e+01
  -1.833096e+01  -7.411303e+01
   7.202786e+01  -5.482985e+01
   2.181519e+01  -5.476853e+00
  -2.171374e+00   3.184890e+01
  -3.135447e+01  -8.086140e+00
  -5.179433e+01  -7.317771e+01
   5.158872e+01  -1.142304e+02
   1.296484e+02  -3.125580e+01
   8.964309e+01   7.383314e+01
  -2.286524e+01   1.074590e+02
  -9.798157e+01   2.305970e+01
  -6.582136e+01  -5.480267e+01
   1.444378e+01  -9.078896e+01
   6.740089e+01  -3.029630e+01
   5.970357e+01   3.192344e+01
   7.512012e+00   7.449147e+01
  -3.783643e+01   4.704759e+01
  -5.218524e+01  -2.923454e+01
   6.156403e+00  -8.691520e+01
   1.012299e+02  -2.221885e+01
   7.035772e+01   9.222151e+01
  -5.241533e+01   1.238559e+02
  -1.027258e+02   1.066716e+01
  -5.690493e+01  -9.415755e+01
   6.714623e+01  -6.581660e+01
   8.290945e+01   5.015980e+01
   2.566893e-01   9.021572e+01
  -8.937689e+01   4.725944e+01
  -9.145434e+01  -4.868930e+01
  -3.686385e+01  -8.031054e+01
   4.219509e+01  -6.026218e+01
   8.953477e+01  -4.115658e+00
   6.070998e+01   5.858397e+01
  -2.345676e+01   6.699583e+01
  -8.494343e+01   1.219745e+01
  -5.065435e+01  -4.508664e+01
   2.583217e+01  -3.322004e+01
   3.928466e+01   2.469628e+01
  -2.550118e+01   4.115351e+01
  -6.905145e+01  -8.701635e+00
  -3.133636e+01  -5.802568e+01
   3.389039e+01  -5.214642e+01
   5.062705e+01  -1.648001e+01
   2.396701e+01   9.621963e+00
   9.680839e-01   2.902934e+01
  -1.521580e+01   4.886551e+01
  -4.099652e+01   3.729668e+01
  -5.588702e+01  -2.174153e+01
  -2.665782e+01  -7.468950e+01
   2.067596e+01  -6.294207e+01
   3.029584e+01  -8.325419e+00
  -6.854966e-02   1.327001e+01
  -1.388734e+01  -1.744157e+01
   1.538890e+01  -4.121372e+01
   4.922360e+01  -1.522922e+01
   4.248074e+01   3.234684e+01
   3.408737e+00   4.631701e+01
  -3.627060e+01   1.601565e+01
  -4.511778e+01  -2.864615e+01
  -1.248478e+01  -5.185869e+01
   3.600143e+01  -3.772798e+01
   6.681901e+01   1.060014e+01
   3.763429e+01   5.066030e+01
  -1.615602e+01   4.871523e+01
  -3.978859e+01   1.540066e+01
  -1.463797e+01  -1.301567e+01
   3.097407e+00   7.285297e-01
  -1.687614e+01   2.130541e+01
  -5.473904e+01   1.207778e+01
  -5.797545e+01  -2.111643e+01
  -1.795339e+01  -5.880949e+01
   3.158133e+01  -7.013802e+01
   5.822268e+01  -4.835071e+01
   5.405960e+01   2.703444e-01
   2.269005e+01   4.632612e+01
  -1.190644e+01   4.709840e+01
  -1.900256e+01   3.708856e+00
   1.309350e+01  -2.883682e+01
   3.795820e+01  -4.925784e+00
   1.950693e+01   4.153746e+01
  -2.553504e+01   4.231899e+01
  -3.882223e+01  -3.889370e+00
  -8.285725e+00  -3.601208e+01
   2.700735e+01  -1.476447e+01
   2.905518e+01   3.110101e+01
   4.882755e+00   4.877475e+01
  -2.207556e+01   2.831670e+01
  -4.153982e+01   1.582175e+00
  -4.659357e+01  -2.016823e+01
  -2.718574e+01  -3.188119e+01
   8.672706e+00  -2.814438e+01
   2.976485e+01  -7.522876e+00
   1.126610e+01   8.540659e+00
  -1.694566e+01   5.459353e-01
  -1.620096e+01  -2.162338e+01
   1.279649e+01  -2.724690e+01
   3.040695e+01  -8.627833e+00
   1.605943e+01   1.017830e+01
  -7.273405e+00   9.575263e+00
  -8.532332e+00  -4.383659e+00
   1.344623e+01  -1.391677e+01
   3.619485e+01  -9.647648e+00
   3.952078e+01   8.897134e+00
   1.817684e+01   3.372994e+01
  -1.572841e+01   4.604938e+01
  -3.826259e+01   2.909996e+01
  -2.995711e+01  -4.453964e+00
   2.596382e-01  -2.097285e+01
   1.777969e+01  -4.636162e+00
   2.886884e+00   1.911693e+01
  -2.682460e+01   1.751980e+01
  -3.732849e+01  -8.086378e+00
  -1.898200e+01  -2.861251e+01
   8.632089e+00  -2.528916e+01
   2.202496e+01  -8.132507e+00
   1.400438e+01   4.080831e+00
  -2.969060e+00   2.747254e+00
  -1.076894e+01  -8.908928e+00
   2.272120e+00  -1.827869e+01
   2.521491e+01  -1.237344e+01
   3.317230e+01   1.052373e+01
   1.221472e+01   3.143523e+01
  -1.899460e+01   2.968481e+01
  -2.912861e+01   6.194982e+00
  -1.376747e+01  -1.628061e+01
   6.370437e+00  -1.862867e+01
   1.055812e+01  -7.244801e+00
   3.639570e+00   2.297907e+00
  -4.512831e-01   3.317030e+00
   3.167621e+00   1.594844e-01
   9.045148e+00   8.497603e-01
   1.255704e+01   7.648997e+00
   7.571565e+00   1.865212e+01
  -9.810728e+00   2.451947e+01
  -3.003090e+01   1.277515e+01
  -3.389863e+01  -1.239459e+01
  -1.524079e+01  -3.123701e+01
   9.979176e+00  -2.756042e+01
   1.863033e+01  -8.206548e+00
   1.136612e+01   5.785462e+00
   4.299542e+00   4.020876e+00
   7.452174e+00  -2.767618e+00
   1.038280e+01  -2.511157e+00
   5.428506e+00   5.427287e+00
  -3.352679e+00   1.092106e+01
  -9.456794e+00   8.626631e+00
  -9.168752e+00  -1.718787e+00
  -9.583169e-01  -1.442099e+01
   1.415800e+01  -1.466078e+01
   2.774222e+01   1.998585e+00
   2.197895e+01   2.390998e+01
  -5.636139e+00   3.504479e+01
  -3.439026e+01   2.116727e+01
  -4.007269e+01  -3.949053e+00
  -2.285039e+01  -2.083678e+01
   1.007501e+00  -2.118097e+01
   1.101877e+01  -1.561541e+01
   9.887517e+00  -1.365685e+01
   7.636232e+00  -1.565089e+01
   1.112893e+01  -1.303953e+01
   1.879162e+01  -3.323612e-01
   2.145633e+01   1.789892e+01
   1.160996e+01   3.050362e+01
  -8.015416e+00   2.726074e+01
  -2.431999e+01   9.162336e+00
  -2.369348e+01  -1.179161e+01
  -8.413035e+00  -2.115319e+01
   5.926944e+00  -1.559993e+01
   7.531494e+00  -4.232642e+00
   1.932126e+00   2.922651e+00
   1.152120e+00   3.599773e+00
   7.566289e+00   1.888396e+00
   1.269327e+01   1.684752e+00
   7.806877e+00   4.404093e+00
  -6.112823e+00   7.588092e+00
  -1.944881e+01   6.544842e+00
  -2.129444e+01  -9.724498e-01
  -7.600045e+00  -1.007955e+01
   1.110245e+01  -1.279698e+01
   1.793496e+01  -6.577368e+00
   8.011865e+00   2.324723e+00
  -6.751567e+00   4.566811e+00
  -1.047162e+01  -1.294283e+00
  -2.103450e+00  -7.943054e+00
   6.144541e+00  -8.292556e+00
   7.581964e+00  -2.411904e+00
   6.215831e+00   3.581110e+00
   8.046123e+00   3.522957e+00
   1.099292e+01  -9.106957e-01
   1.025456e+01  -1.489427e+00
   6.196330e+00   8.055616e+00
  -6.999662e-01   2.066877e+01
  -1.008459e+01   2.296724e+01
  -1.916177e+01   9.885902e+00
  -1.834658e+01  -8.314509e+00
  -5.203633e+00  -1.587046e+01
   8.882753e+00  -9.013831e+00
   8.451278e+00   1.541420e+00
  -7.523381e+00   4.742161e+00
  -2.049697e+01  -1.725432e+00
  -1.466511e+01  -1.186848e+01
   6.590787e+00  -1.776461e+01
   2.404393e+01  -1.418779e+01
   2.363239e+01  -1.598149e+00
   8.762822e+00   1.116027e+01
  -5.539398e+00   1.276898e+01
  -6.191927e+00   3.270032e+00
   4.548716e+00  -4.314017e+00
   1.268381e+01   1.666334e+00
   6.832790e+00   1.695154e+01
  -9.609111e+00   2.399232e+01
  -2.267336e+01   1.188779e+01
  -2.072925e+01  -1.132584e+01
  -7.189185e+00  -2.682792e+01
   7.479366e+00  -2.235451e+01
   1.461015e+01  -2.995535e+00
   1.285911e+01   1.360130e+01
   4.509739e+00   1.517495e+01
  -5.017018e+00   5.217283e+00
  -8.893453e+00  -2.387996e+00
  -5.018773e+00  -2.574703e-01
  -2.479987e-01   3.968358e+00
  -2.935634e+00  -6.711759e-02
  -1.037184e+01  -1.041074e+01
  -1.018880e+01  -1.469357e+01
   3.774217e+00  -7.967380e+00
   1.969014e+01   1.829739e+00
   1.982173e+01   5.599758e+00
   3.520918e+00   4.533451e+00
  -1.171943e+01   4.320151e+00
  -1.150855e+01   4.277319e+00
  -5.729353e-01   7.088290e-01
   5.568760e+00  -4.441868e+00
   1.062891e+00  -4.387537e+00
  -3.695198e+00   3.605362e-01
   1.145011e+00   2.293996e+00
   1.112470e+01  -6.422336e-01
   1.334538e+01   5.875385e-01
   2.171912e+00   1.037167e+01
  -1.396915e+01   1.912148e+01
  -2.294826e+01   1.318275e+01
  -1.957316e+01  -5.743725e+00
  -7.443218e+00  -2.158710e+01
   5.538329e+00  -2.209907e+01
   1.265145e+01  -1.052348e+01
   1.148305e+01   7.195709e-01
   4.852231e+00   3.347548e+00
   7.592250e-02   6.674385e-01
   1.517315e+00  -9.572416e-02
   6.298501e+00   5.156345e+00
   5.958013e+00   1.169869e+01
  -2.035279e+00   1.057929e+01
  -1.165883e+01  -7.344140e-01
  -1.248667e+01  -1.316725e+01
  -2.311252e+00  -1.474910e+01
   1.115025e+01  -3.939989e+00
   1.554221e+01   8.933242e+00
   6.922055e+00   1.310453e+01
  -6.722157e+00   8.322244e+00
  -1.269608e+01   1.281191e+00
  -6.996950e+00  -3.742564e+00
   1.510234e+00  -5.937196e+00
   1.714940e+00  -5.103269e+00
  -5.586824e+00  -7.787341e-01
  -9.133474e+00   1.656793e+00
  -1.666613e+00  -3.042920e+00
   1.002263e+01  -1.093030e+01
   1.397156e+01  -1.122542e+01
   7.681670e+00  -1.439590e-01
  -7.211975e-01   1.184925e+01
  -4.339890e+00   1.231320e+01
  -3.542027e+00   1.576124e+00
  -1.561914e+00  -7.432219e+00
   1.295226e+00  -5.835996e+00
   4.553448e+00   1.657461e+00
   5.301590e+00   5.627610e+00
   1.054031e+00   3.481719e+00
  -4.576082e+00  -1.738056e-01
  -6.401615e+00  -8.812577e-01
  -3.149148e+00   1.061671e+00
   3.904904e-01   1.031450e+00
   1.370682e+00  -2.057731e+00
   1.267778e+00  -5.659196e+00
   2.914720e+00  -5.581436e+00
   4.082987e+00  -3.224422e-01
   3.192375e+00   6.261489e+00
  -8.587017e-01   8.208685e+00
  -5.495232e+00   3.108216e+00
  -6.887289e+00  -4.555894e+00
  -2.476318e+00  -8.311306e+00
   5.847368e+00  -5.502201e+00
   1.115983e+01   2.345000e-01
   7.088458e+00   4.574863e+00
  -2.923076e+00   5.351206e+00
  -7.891602e+00   3.369536e+00
  -2.122211e+00   8.646115e-01
   6.571663e+00   1.225920e-02
   6.230072e+00   2.372455e+00
  -4.128579e+00   5.818783e+00
  -1.295544e+01   4.972642e+00
