
 $NMID
 id='ANONYMOUS ', fmtdat='(2E16.6)'
 volume=1.0
 tramp=1.0
 $END
   2.126077e+03  -1.532707e+02
   1.527880e+03   1.115726e+03
  -2.465685e+01   1.425770e+03
  -7.764706e+02   7.521547e+02
  -5.454231e+02   8.862867e+01
  -1.620004e+02  -5.984159e+01
   1.951371e+02   3.054307e+01
  -3.144039e+00   2.947177e+02
  -1.973581e+02   4.463439e+02
  -4.255282e+02   9.839561e+01
  -3.630972e+02  -2.793337e+02
  -4.195827e+01  -3.616293e+02
   1.787660e+02  -2.160529e+02
   1.770497e+02   2.860675e+02
  -8.342072e+01   4.024181e+02
  -3.193262e+02   8.289455e+01
  -1.975412e+02  -3.590535e+02
   5.184209e+01  -4.248535e+02
   2.965618e+02  -1.953274e+02
   2.920881e+02   1.161527e+02
   7.764593e+01   2.527401e+02
  -9.449865e+01   2.027317e+02
  -3.782582e+01   2.706551e+01
   1.408728e+02   3.659414e+01
   1.953295e+02   1.868869e+02
  -2.516624e+00   2.694289e+02
  -3.270033e+02   1.243314e+02
  -4.244751e+02  -1.508897e+02
  -1.463614e+02  -2.781714e+02
   2.350436e+02  -1.395089e+02
   3.499597e+02   1.140810e+02
   1.452477e+02   2.880634e+02
  -1.891666e+02   2.406089e+02
  -3.444772e+02   8.073946e+01
  -2.277733e+02  -1.178607e+02
  -4.965979e+01  -2.107695e+02
   3.155573e+01  -1.163451e+02
  -3.917404e+01   4.931080e+01
  -1.462529e+02   9.439658e+01
  -1.365941e+02  -1.014401e+02
   2.216885e+01  -3.258442e+02
   2.057769e+02  -2.935756e+02
   2.240944e+02  -3.906846e+00
   5.390561e+01   2.114396e+02
  -1.252047e+02   8.838188e+01
  -1.301213e+02  -1.929489e+02
   7.990927e+01  -2.772663e+02
   3.303547e+02  -5.032876e+01
   3.562417e+02   2.590683e+02
   1.171795e+02   3.625294e+02
  -2.169380e+02   2.049237e+02
  -3.738464e+02  -3.651531e+01
  -2.467016e+02  -1.836224e+02
   2.928908e+01  -1.608365e+02
   1.975157e+02  -5.690783e+01
   1.483112e+02   1.554559e+01
   8.094136e+00   1.086848e+01
  -3.103772e+01  -3.086644e+01
   6.561848e+01  -3.144427e+01
   1.541106e+02   3.753110e+01
   8.795264e+01   1.322624e+02
  -1.067633e+02   1.712937e+02
  -2.533710e+02   9.998599e+01
  -2.056588e+02  -7.076144e+01
   1.214136e+01  -2.402264e+02
   2.258916e+02  -2.689432e+02
   2.776996e+02  -1.079567e+02
   1.638078e+02   1.274244e+02
   2.047024e+01   2.548562e+02
  -3.116292e+01   2.159341e+02
  -7.675868e+00   1.172875e+02
  -1.592878e+01   7.870587e+01
  -9.936645e+01   8.631030e+01
  -1.820218e+02   3.729058e+01
  -1.690710e+02  -8.974413e+01
  -5.521058e+01  -1.838724e+02
   7.566515e+01  -1.357780e+02
   1.366864e+02   3.440202e+01
   9.093703e+01   1.799410e+02
  -4.159524e+01   1.814061e+02
  -1.766051e+02   4.244690e+01
  -2.155160e+02  -1.226241e+02
  -1.155890e+02  -2.096900e+02
   3.622369e+01  -1.863634e+02
   1.129853e+02  -1.109067e+02
   1.003190e+02  -5.814432e+01
   1.047541e+02  -4.961544e+01
   2.012317e+02  -2.414580e+01
   2.970256e+02   7.004359e+01
   2.315285e+02   2.121603e+02
  -1.918569e+01   3.133979e+02
  -2.788226e+02   2.848733e+02
  -3.464926e+02   1.216050e+02
  -2.006476e+02  -7.607860e+01
  -5.869213e+00  -1.766862e+02
   6.963713e+01  -1.333839e+02
   5.021533e-01  -2.134425e+01
  -8.964488e+01   2.624504e+01
  -8.998221e+01  -3.304846e+01
  -1.215329e-01  -9.889711e+01
   8.264464e+01  -6.809208e+01
   7.115716e+01   3.909903e+01
  -2.219454e+01   8.921107e+01
  -1.114584e+02  -2.683898e+00
  -1.059632e+02  -1.653346e+02
   1.182242e+01  -2.425580e+02
   1.715461e+02  -1.496044e+02
   2.596042e+02   4.521183e+01
   2.004952e+02   1.936097e+02
   3.687934e+01   2.021157e+02
  -1.003476e+02   1.002481e+02
  -1.111292e+02  -4.554234e-01
  -2.488772e+01  -1.278671e+01
   3.489879e+01   4.258048e+01
  -5.975474e+00   7.829937e+01
  -8.917241e+01   4.224322e+01
  -1.030074e+02  -2.385486e+01
  -1.982799e+01  -4.234516e+01
   6.149374e+01   7.179575e+00
   3.095530e+01   6.575721e+01
  -1.020030e+02   6.356769e+01
  -2.126027e+02  -1.448643e+01
  -1.820456e+02  -1.215993e+02
  -1.803254e+01  -1.865918e+02
   1.486502e+02  -1.627396e+02
   1.898587e+02  -6.432456e+01
   9.547736e+01   3.333270e+01
  -2.170692e+01   5.266641e+01
  -4.323813e+01  -5.239767e+00
   4.015821e+01  -5.426765e+01
   1.304290e+02  -1.866455e+01
   1.296143e+02   7.675568e+01
   3.439901e+01   1.322692e+02
  -6.778210e+01   9.203280e+01
  -8.999520e+01   6.495345e+00
  -2.911014e+01  -2.994376e+01
   3.562374e+01   1.454007e+01
   2.051117e+01   8.065840e+01
  -7.295890e+01   8.525441e+01
  -1.529624e+02   5.721596e+00
  -1.273027e+02  -1.007849e+02
  -2.256303e+00  -1.496135e+02
   1.140010e+02  -1.040980e+02
   1.230037e+02  -4.496576e+00
   3.730271e+01   6.780606e+01
  -4.508367e+01   6.582152e+01
  -4.939944e+01   1.489675e+01
   2.159927e+00  -1.925512e+01
   3.088325e+01  -4.406460e+00
  -4.474469e+00   2.321057e+01
  -6.668814e+01   4.545745e+00
  -8.070566e+01  -6.682429e+01
  -9.340862e+00  -1.297651e+02
   1.056724e+02  -1.109582e+02
   1.732261e+02  -4.002526e+00
   1.354833e+02   1.164159e+02
   2.281333e+01   1.618628e+02
  -7.347156e+01   1.103827e+02
  -9.105868e+01   2.029841e+01
  -5.046805e+01  -3.120833e+01
  -2.333923e+01  -1.965060e+01
  -4.002476e+01   1.288024e+01
  -6.405656e+01   7.331354e+00
  -4.315380e+01  -4.124572e+01
   2.764645e+01  -8.025949e+01
   9.041193e+01  -5.339724e+01
   8.162348e+01   3.194092e+01
  -1.010587e+01   9.722962e+01
  -1.191354e+02   6.719514e+01
  -1.492537e+02  -4.802585e+01
  -5.927405e+01  -1.532687e+02
   9.295253e+01  -1.557964e+02
   1.918119e+02  -5.386262e+01
   1.713310e+02   6.744786e+01
   6.594880e+01   1.211601e+02
  -3.222396e+01   9.654747e+01
  -6.429319e+01   5.557218e+01
  -4.940376e+01   4.884724e+01
  -4.079927e+01   6.679777e+01
  -6.354759e+01   5.656337e+01
  -9.426454e+01  -1.333817e+01
  -8.506035e+01  -1.114732e+02
  -1.779881e+01  -1.628124e+02
   7.312831e+01  -1.188450e+02
   1.220912e+02  -5.653352e+00
   8.951999e+01   9.401796e+01
   5.396298e+00   1.129722e+02
  -5.517661e+01   5.602626e+01
  -4.535607e+01  -1.415414e+01
   3.723083e+00  -4.179185e+01
   2.157246e+01  -2.634410e+01
  -1.752922e+01  -6.314429e+00
  -6.013631e+01  -9.885715e+00
  -3.636217e+01  -2.762723e+01
   5.313528e+01  -2.938888e+01
   1.257966e+02   6.576573e-01
   1.031096e+02   4.612974e+01
  -2.843774e+00   7.138445e+01
  -9.846520e+01   5.259535e+01
  -1.040764e+02   2.517133e+00
  -3.052300e+01  -3.751138e+01
   4.359538e+01  -3.257571e+01
   5.633925e+01   1.232401e+01
   1.478932e+01   5.279561e+01
  -3.169286e+01   4.777279e+01
  -4.857921e+01   2.410035e+00
  -4.175252e+01  -3.584697e+01
  -3.433107e+01  -3.079318e+01
  -3.904460e+01  -8.035387e-01
  -4.586954e+01  -6.134443e-02
  -3.251865e+01  -5.112640e+01
   1.855130e+01  -1.095034e+02
   9.045667e+01  -1.051703e+02
   1.305083e+02  -2.433815e+01
   9.394136e+01   6.965327e+01
   2.339747e-01   9.830622e+01
  -6.844953e+01   5.135641e+01
  -4.652179e+01  -8.361578e+00
   3.987420e+01  -1.726448e+01
   9.417057e+01   2.772076e+01
   4.946543e+01   7.513216e+01
  -5.945176e+01   7.663757e+01
  -1.330634e+02   2.912021e+01
  -1.095991e+02  -3.106193e+01
  -2.029746e+01  -6.080839e+01
   4.665697e+01  -4.237265e+01
   3.487063e+01   2.207579e+00
  -2.862104e+01   2.317748e+01
  -6.695059e+01  -1.329249e+01
  -3.047394e+01  -8.272637e+01
   5.447232e+01  -1.132354e+02
   1.124545e+02  -5.349267e+01
   9.227179e+01   6.318840e+01
   1.392508e+01   1.373844e+02
  -5.803277e+01   1.014007e+02
  -7.444998e+01  -8.156867e+00
  -3.840268e+01  -8.687642e+01
   1.121478e+01  -7.434842e+01
   3.767906e+01  -1.043726e+01
   3.146440e+01   2.393526e+01
   1.125392e+01   6.319813e+00
   5.150235e+00  -1.216193e+01
   2.348613e+01   1.453046e+01
   4.132198e+01   6.315515e+01
   2.106732e+01   7.420059e+01
  -4.075524e+01   3.035587e+01
  -9.528117e+01  -2.595409e+01
  -8.524267e+01  -4.946975e+01
  -1.267581e+01  -3.853636e+01
   5.645077e+01  -1.875547e+01
   6.171979e+01  -3.698179e+00
   1.387524e+01   8.922293e+00
  -2.367943e+01   1.585466e+01
  -1.484965e+01   9.513283e+00
   9.371230e+00  -2.456338e+00
  -1.812691e+00  -3.630674e+00
  -4.638974e+01   9.466164e-01
  -6.661232e+01  -1.517230e+01
  -1.748225e+01  -5.762439e+01
   7.501700e+01  -8.492658e+01
   1.346012e+02  -4.904742e+01
   1.105431e+02   4.010241e+01
   2.402622e+01   1.134196e+02
  -5.693159e+01   1.119770e+02
  -8.293041e+01   4.841392e+01
  -5.748180e+01  -1.285099e+01
  -1.999725e+01  -2.742680e+01
  -3.460917e+00  -1.033593e+01
  -1.087348e+01  -7.021361e+00
  -2.097071e+01  -3.564613e+01
  -1.143452e+01  -6.496400e+01
   2.130965e+01  -5.118927e+01
   5.559312e+01   9.708724e+00
   5.765758e+01   7.108169e+01
   1.196710e+01   7.854011e+01
  -5.158521e+01   2.458389e+01
  -7.545163e+01  -4.399147e+01
  -3.046228e+01  -7.251066e+01
   4.427287e+01  -4.639068e+01
   7.458071e+01   5.032854e+00
   3.404872e+01   4.224868e+01
  -2.428183e+01   4.517033e+01
  -3.048150e+01   2.136596e+01
   1.614887e+01  -4.229886e+00
   4.728394e+01  -6.368360e+00
   1.284839e+01   1.924135e+01
  -5.624372e+01   4.597433e+01
  -8.730004e+01   3.652556e+01
  -5.192871e+01  -1.326249e+01
   9.371152e+00  -6.176066e+01
   4.197691e+01  -6.099917e+01
   3.348271e+01  -1.102279e+01
   6.922238e+00   3.659972e+01
  -1.545331e+01   3.567217e+01
  -2.598889e+01  -5.576317e+00
  -2.122876e+01  -3.810559e+01
  -1.705137e-01  -2.988379e+01
   2.441153e+01   2.371397e+00
   3.153060e+01   1.871689e+01
   1.583196e+01   5.188125e+00
  -3.550375e+00  -1.322013e+01
  -5.928714e+00  -6.141667e+00
   2.848450e+00   2.215477e+01
   3.162758e-01   3.731608e+01
  -1.853236e+01   1.639390e+01
  -2.989062e+01  -2.388659e+01
  -1.048669e+01  -4.203025e+01
   2.811962e+01  -1.890015e+01
   4.532235e+01   2.263590e+01
   1.478501e+01   4.261749e+01
  -4.051438e+01   2.679903e+01
  -6.716489e+01  -6.466618e+00
  -3.750494e+01  -3.024472e+01
   1.903834e+01  -3.375635e+01
   4.586856e+01  -2.216087e+01
   2.155211e+01  -6.231886e+00
  -1.832880e+01   2.744509e+00
  -2.274401e+01  -3.450242e+00
   1.578904e+01  -1.710924e+01
   5.404587e+01  -1.501653e+01
