
 $NMID
 id='ANONYMOUS ', fmtdat='(2E16.6)'
 volume=1.0
 tramp=1.0
 $END
  -3.243720e+03  -1.499523e+02
  -2.245738e+03  -1.682820e+03
  -6.177487e+01  -1.848698e+03
   9.794288e+02  -1.360738e+03
   1.003275e+03  -3.369467e+02
   3.309647e+01   1.224675e+02
  -4.000928e+02  -1.179413e+02
  -4.787115e+01  -5.029235e+02
   5.099775e+02  -4.768680e+02
   6.097445e+02  -1.090937e+02
   4.635195e+02   5.496965e+02
   6.074129e+01   6.494448e+02
  -3.474503e+02   2.053824e+02
  -2.932337e+02  -3.891127e+02
   7.951615e+01  -5.421513e+02
   3.451740e+02  -6.245879e+01
   2.592466e+02   4.557921e+02
  -1.608030e+02   5.850471e+02
  -4.503272e+02   2.620792e+02
  -4.187271e+02  -1.551405e+02
  -1.356579e+02  -3.350028e+02
   1.103151e+02  -2.552602e+02
   8.600713e+01  -1.142800e+02
  -1.441199e+02  -1.128064e+02
  -2.585506e+02  -2.495546e+02
  -7.030714e+00  -3.266208e+02
   4.646663e+02  -1.503518e+02
   6.219619e+02   1.805852e+02
   2.500743e+02   3.463632e+02
  -3.102984e+02   1.979071e+02
  -5.198459e+02  -1.140361e+02
  -2.013944e+02  -3.241484e+02
   2.583955e+02  -3.621721e+02
   4.660731e+02  -1.324687e+02
   3.403859e+02   1.674024e+02
   7.796018e+01   3.307040e+02
  -4.935710e+01   1.804883e+02
   1.540361e+01  -1.162739e+02
   1.788171e+02  -1.935850e+02
   2.347187e+02   1.284659e+02
   4.305838e+01   5.122361e+02
  -2.460644e+02   4.564863e+02
  -3.378082e+02   4.051312e+00
  -1.343603e+02  -3.380976e+02
   1.491228e+02  -1.674286e+02
   1.832076e+02   2.773622e+02
  -1.093570e+02   4.143074e+02
  -4.392615e+02   6.883640e+01
  -4.870643e+02  -3.799342e+02
  -1.554772e+02  -5.073619e+02
   3.001393e+02  -2.760230e+02
   5.197913e+02   6.167936e+01
   3.430339e+02   2.556171e+02
  -5.239981e+01   2.377864e+02
  -2.980327e+02   9.019387e+01
  -2.214064e+02  -3.737938e+01
  -2.132118e+00  -3.671151e+01
   5.867408e+01   4.324351e+01
  -9.627400e+01   6.276684e+01
  -2.309019e+02  -4.212571e+01
  -1.262576e+02  -1.877828e+02
   1.507681e+02  -2.381888e+02
   3.354706e+02  -1.290202e+02
   2.517705e+02   9.612605e+01
  -3.181311e+01   3.103673e+02
  -2.954740e+02   3.543297e+02
  -3.626125e+02   1.549459e+02
  -2.301283e+02  -1.640397e+02
  -4.607813e+01  -3.604870e+02
   3.890261e+01  -3.203862e+02
   2.398193e+01  -1.734075e+02
   3.441512e+01  -1.043360e+02
   1.410529e+02  -1.134651e+02
   2.555088e+02  -5.262838e+01
   2.420550e+02   1.236957e+02
   8.515238e+01   2.562944e+02
  -1.007828e+02   1.846624e+02
  -1.868777e+02  -4.966353e+01
  -1.253105e+02  -2.437336e+02
   5.152637e+01  -2.381220e+02
   2.410334e+02  -5.276349e+01
   2.983038e+02   1.715776e+02
   1.651446e+02   2.874756e+02
  -4.886112e+01   2.535066e+02
  -1.618462e+02   1.459539e+02
  -1.407938e+02   7.528993e+01
  -1.387221e+02   6.768879e+01
  -2.640703e+02   4.057756e+01
  -3.945855e+02  -8.882720e+01
  -3.072926e+02  -2.885427e+02
   3.076412e+01  -4.253113e+02
   3.783525e+02  -3.793403e+02
   4.675021e+02  -1.578324e+02
   2.741097e+02   1.080867e+02
   1.130730e+01   2.494018e+02
  -9.584843e+01   1.903442e+02
  -1.705279e+01   3.427857e+01
   1.139616e+02  -3.804934e+01
   1.286427e+02   3.947745e+01
   8.361124e+00   1.392534e+02
  -1.185255e+02   9.877569e+01
  -1.117589e+02  -5.493278e+01
   2.545574e+01  -1.286666e+02
   1.579063e+02   5.779060e-01
   1.486085e+02   2.294537e+02
  -2.071582e+01   3.333458e+02
  -2.377039e+02   2.031390e+02
  -3.521182e+02  -6.016651e+01
  -2.760184e+02  -2.599477e+02
  -5.931431e+01  -2.757710e+02
   1.298811e+02  -1.424453e+02
   1.531733e+02  -6.278390e+00
   3.866011e+01   1.643426e+01
  -4.733754e+01  -5.873708e+01
   6.275347e+00  -1.105901e+02
   1.244355e+02  -6.183932e+01
   1.454969e+02   3.152465e+01
   2.994822e+01   5.760341e+01
  -8.293294e+01  -1.184177e+01
  -4.085434e+01  -9.125006e+01
   1.432140e+02  -8.387710e+01
   2.939817e+02   2.388844e+01
   2.509669e+02   1.664394e+02
   2.665015e+01   2.543681e+02
  -2.036524e+02   2.263247e+02
  -2.628411e+02   9.392190e+01
  -1.339233e+02  -4.423796e+01
   2.992712e+01  -7.600730e+01
   6.214854e+01   5.137020e+00
  -5.465693e+01   7.895571e+01
  -1.828917e+02   3.166058e+01
  -1.829695e+02  -1.048251e+02
  -5.140331e+01  -1.876916e+02
   8.993495e+01  -1.349234e+02
   1.235610e+02  -1.525816e+01
   4.509629e+01   3.933149e+01
  -4.103231e+01  -1.728242e+01
  -2.539316e+01  -1.064620e+02
   9.599974e+01  -1.154912e+02
   2.055266e+02  -1.092140e+01
   1.748339e+02   1.342312e+02
   6.652727e+00   2.043650e+02
  -1.550731e+02   1.441845e+02
  -1.715441e+02   7.392547e+00
  -5.297896e+01  -9.406953e+01
   6.250818e+01  -9.240202e+01
   7.152785e+01  -2.316745e+01
   2.218443e+00   2.517760e+01
  -3.852630e+01   9.959683e+00
   5.102228e+00  -2.452581e+01
   8.506170e+01  -2.465592e+00
   1.035997e+02   8.888381e+01
   1.073152e+01   1.714530e+02
  -1.413920e+02   1.481586e+02
  -2.336544e+02   5.045133e+00
  -1.843837e+02  -1.599939e+02
  -3.007502e+01  -2.242810e+02
   1.041683e+02  -1.525907e+02
   1.290535e+02  -2.484679e+01
   7.284041e+01   4.814490e+01
   3.025313e+01   3.161822e+01
   5.107779e+01  -1.239201e+01
   8.363141e+01  -7.557399e+00
   5.468352e+01   5.491494e+01
  -3.934271e+01   1.035643e+02
  -1.213869e+02   6.803759e+01
  -1.066603e+02  -4.246751e+01
   1.650498e+01  -1.287886e+02
   1.608464e+02  -9.042877e+01
   2.015679e+02   6.401081e+01
   8.234137e+01   2.099653e+02
  -1.238200e+02   2.177901e+02
  -2.637281e+02   7.866318e+01
  -2.385620e+02  -9.132707e+01
  -9.376229e+01  -1.673679e+02
   4.217961e+01  -1.353988e+02
   8.852412e+01  -7.661664e+01
   6.843845e+01  -6.628526e+01
   5.584057e+01  -9.053105e+01
   8.736860e+01  -7.674904e+01
   1.282379e+02   1.838821e+01
   1.163113e+02   1.509625e+02
   2.537716e+01   2.205440e+02
  -9.897706e+01   1.623063e+02
  -1.666927e+02   9.855827e+00
  -1.230276e+02  -1.257230e+02
  -7.524080e+00  -1.529449e+02
   7.605706e+01  -7.737322e+01
   6.347793e+01   1.596200e+01
  -3.920917e+00   5.394035e+01
  -2.856508e+01   3.591014e+01
   2.464368e+01   1.244427e+01
   8.281972e+01   1.810458e+01
   4.990531e+01   3.933505e+01
  -7.239907e+01   3.800842e+01
  -1.716598e+02  -3.742786e+00
  -1.411949e+02  -6.404818e+01
   3.055406e+00  -9.691864e+01
   1.342055e+02  -7.160562e+01
   1.429809e+02  -3.539540e+00
   4.284414e+01   5.126993e+01
  -5.859345e+01   4.382762e+01
  -7.599088e+01  -1.855759e+01
  -1.890990e+01  -7.361383e+01
   4.470841e+01  -6.488902e+01
   6.797623e+01  -1.418921e+00
   5.830683e+01   5.109946e+01
   4.801830e+01   4.355846e+01
   5.318085e+01   2.896553e+00
   6.174722e+01   2.731261e+00
   4.208706e+01   7.215960e+01
  -2.732056e+01   1.489218e+02
  -1.242153e+02   1.404863e+02
  -1.779432e+02   3.022742e+01
  -1.284618e+02  -9.398962e+01
  -1.648369e+00  -1.304867e+02
   9.197094e+01  -6.776227e+01
   6.237521e+01   9.526358e+00
  -5.568718e+01   1.804987e+01
  -1.295695e+02  -4.274699e+01
  -6.759532e+01  -1.042066e+02
   8.330444e+01  -1.041543e+02
   1.859542e+02  -3.962758e+01
   1.531574e+02   4.184230e+01
   2.923596e+01   8.327363e+01
  -6.384545e+01   5.947757e+01
  -4.850533e+01  -7.553198e-01
   3.839444e+01  -3.006594e+01
   9.017106e+01   1.804953e+01
   3.889438e+01   1.112674e+02
  -7.662721e+01   1.516440e+02
  -1.527382e+02   6.963306e+01
  -1.225900e+02  -8.829551e+01
  -1.510636e+01  -1.871374e+02
   8.055479e+01  -1.365061e+02
   1.012968e+02   1.228798e+01
   5.244645e+01   1.177869e+02
  -1.422631e+01   9.992819e+01
  -5.103039e+01   1.373454e+01
  -4.391172e+01  -3.147868e+01
  -1.579074e+01  -7.088176e+00
  -5.230065e+00   1.655995e+01
  -2.886183e+01  -2.182300e+01
  -5.536100e+01  -8.842767e+01
  -3.038868e+01  -1.019489e+02
   5.466827e+01  -4.019094e+01
   1.320619e+02   3.780707e+01
   1.197001e+02   6.919734e+01
   1.819737e+01   5.313615e+01
  -7.886645e+01   2.590410e+01
  -8.600958e+01   5.234989e+00
  -1.910555e+01  -1.207910e+01
   3.259140e+01  -2.143166e+01
   1.951767e+01  -1.302123e+01
  -1.350266e+01   3.122908e+00
   3.175192e+00   4.681689e+00
   6.479991e+01  -1.361111e+00
   9.113009e+01   2.130977e+01
   2.264481e+01   7.955931e+01
  -1.031592e+02   1.159549e+02
  -1.834008e+02   6.563423e+01
  -1.499951e+02  -5.594973e+01
  -3.274964e+01  -1.542005e+02
   7.765893e+01  -1.508322e+02
   1.133636e+02  -6.430219e+01
   7.822188e+01   1.798903e+01
   2.585737e+01   3.641853e+01
   3.065473e+00   1.254593e+01
   1.393891e+01   8.705553e+00
   2.873550e+01   4.856113e+01
   1.634607e+01   8.889960e+01
  -2.883721e+01   6.964389e+01
  -7.585361e+01  -1.492466e+01
  -7.763281e+01  -9.860722e+01
  -1.422592e+01  -1.073155e+02
   7.248715e+01  -3.165674e+01
   1.029462e+02   6.262150e+01
   3.937571e+01   1.002624e+02
  -6.248168e+01   6.308983e+01
  -1.020771e+02  -7.401951e+00
  -4.504572e+01  -5.724725e+01
   3.383305e+01  -6.074786e+01
   4.032995e+01  -2.891374e+01
  -2.441053e+01   5.471806e+00
  -6.611653e+01   8.170196e+00
  -1.790068e+01  -2.687102e+01
   7.672706e+01  -6.315813e+01
   1.188507e+02  -5.033977e+01
   7.043583e+01   1.766122e+01
  -1.263136e+01   8.307049e+01
  -5.689086e+01   8.103765e+01
  -4.437384e+01   1.325074e+01
  -7.154092e+00  -4.973269e+01
   2.297810e+01  -4.615909e+01
   3.536885e+01   1.022779e+01
   2.689212e+01   5.271208e+01
  -1.544693e+00   3.930021e+01
  -3.302096e+01  -4.402135e+00
  -4.111429e+01  -2.512007e+01
  -2.062692e+01  -5.574860e+00
   3.318651e+00   1.885392e+01
   6.226359e+00   8.205982e+00
  -3.728963e+00  -3.097913e+01
   1.177644e+00  -5.161055e+01
   2.655287e+01  -2.174229e+01
   4.050071e+01   3.410580e+01
   1.312704e+01   5.885335e+01
  -3.945868e+01   2.590982e+01
  -6.230922e+01  -3.177779e+01
  -2.069992e+01  -5.917101e+01
   5.489832e+01  -3.614737e+01
   9.140416e+01   1.025730e+01
   5.051773e+01   4.175478e+01
  -2.721257e+01   4.439331e+01
  -6.358336e+01   2.784785e+01
  -2.839816e+01   7.420739e+00
   2.745150e+01  -2.929556e+00
   3.273774e+01   5.927508e+00
  -2.230373e+01   2.418226e+01
  -7.607684e+01   2.050670e+01
