
 $NMID
 id='ANONYMOUS ', fmtdat='(2E16.6)'
 volume=1.0
 tramp=1.0
 $END
   2.292839e+03  -9.156303e+01
   1.567184e+03   1.118378e+03
   2.350351e+02   1.500314e+03
  -7.702924e+02   1.007318e+03
  -7.941724e+02   3.708367e+02
  -1.353548e+02  -9.617432e+01
   1.650169e+02   1.124701e+00
   1.620778e+02   2.680164e+02
  -2.891789e+02   3.802223e+02
  -3.744072e+02   7.614820e+01
  -4.206005e+02  -3.464858e+02
  -6.297887e+00  -4.786227e+02
   1.444337e+02  -2.102561e+02
   2.204115e+02   2.704813e+02
  -4.850779e+01   3.894857e+02
  -3.168038e+02   2.701158e+01
  -1.704848e+02  -3.165482e+02
   4.507653e+01  -4.136943e+02
   3.638796e+02  -2.500117e+02
   3.144697e+02   1.153083e+02
   1.361714e+02   2.209497e+02
  -7.516304e+01   1.502449e+02
   7.203197e+00   8.429784e+01
   1.517676e+02   1.346422e+02
   1.910185e+02   2.376740e+02
  -3.682021e+01   2.866251e+02
  -3.689588e+02   1.086668e+02
  -4.326270e+02  -1.532390e+02
  -1.360662e+02  -2.565637e+02
   2.300641e+02  -1.197925e+02
   3.468685e+02   1.179858e+02
   1.165721e+02   2.689626e+02
  -1.927958e+02   2.268084e+02
  -3.234587e+02   6.547264e+01
  -2.201036e+02  -1.131168e+02
  -4.953450e+01  -1.859640e+02
  -1.850011e+01  -9.122421e+01
  -8.892542e+01   5.312664e+01
  -1.528193e+02   4.368265e+01
  -1.031444e+02  -1.403112e+02
   4.142676e+01  -3.436731e+02
   1.919169e+02  -2.744272e+02
   1.893950e+02   8.105888e+00
   6.945925e+01   1.846637e+02
  -9.174925e+01   6.226354e+01
  -8.272221e+01  -1.904790e+02
   9.070566e+01  -2.551352e+02
   3.200648e+02  -2.206580e+01
   3.441265e+02   2.845314e+02
   1.125123e+02   3.551146e+02
  -2.142740e+02   1.794693e+02
  -3.717553e+02  -5.107167e+01
  -2.454761e+02  -1.699581e+02
   1.675552e+01  -1.423354e+02
   1.880946e+02  -6.786412e+01
   1.600038e+02  -1.291263e+01
   3.840387e+01  -2.015248e+00
  -1.080261e+01  -1.272442e+01
   6.003911e+01  -1.176231e+01
   1.366893e+02   3.244424e+01
   8.173076e+01   1.163797e+02
  -1.021488e+02   1.759966e+02
  -2.553723e+02   1.202610e+02
  -2.149783e+02  -6.655406e+01
   1.136454e+01  -2.633380e+02
   2.404279e+02  -2.973368e+02
   2.936751e+02  -1.161410e+02
   1.713965e+02   1.393622e+02
   2.657820e+01   2.752577e+02
  -2.141629e+01   2.389625e+02
  -5.522681e+00   1.430776e+02
  -3.084742e+01   1.006336e+02
  -1.242693e+02   9.229740e+01
  -2.018641e+02   2.618897e+01
  -1.813452e+02  -1.087202e+02
  -6.100441e+01  -1.990599e+02
   7.657063e+01  -1.373614e+02
   1.471229e+02   4.788551e+01
   9.546972e+01   1.984509e+02
  -5.370254e+01   1.858062e+02
  -1.944789e+02   2.983841e+01
  -2.262215e+02  -1.426874e+02
  -1.163219e+02  -2.244258e+02
   3.334250e+01  -1.900559e+02
   1.105784e+02  -1.209030e+02
   1.060867e+02  -7.305550e+01
   1.275386e+02  -5.786188e+01
   2.246640e+02  -2.045786e+01
   3.102920e+02   7.807292e+01
   2.362728e+02   2.249863e+02
  -2.509434e+01   3.315077e+02
  -2.958750e+02   3.008787e+02
  -3.661298e+02   1.265453e+02
  -2.108464e+02  -8.200088e+01
  -5.260306e+00  -1.864024e+02
   6.597762e+01  -1.383996e+02
  -1.101976e+01  -3.064008e+01
  -9.800975e+01   1.140071e+01
  -8.380339e+01  -4.251009e+01
   1.139965e+01  -9.896658e+01
   8.522393e+01  -6.042650e+01
   6.592947e+01   4.196877e+01
  -3.018449e+01   8.600200e+01
  -1.159873e+02  -9.780643e+00
  -1.119266e+02  -1.774104e+02
   1.088841e+01  -2.618620e+02
   1.844503e+02  -1.661164e+02
   2.808936e+02   4.214892e+01
   2.186146e+02   2.059660e+02
   4.373886e+01   2.137487e+02
  -9.938627e+01   1.030744e+02
  -1.081504e+02  -3.231438e-01
  -2.020679e+01  -4.855027e+00
   3.445768e+01   5.619064e+01
  -1.265864e+01   8.747342e+01
  -9.640231e+01   4.384578e+01
  -1.059218e+02  -2.474822e+01
  -1.811871e+01  -3.858407e+01
   6.350019e+01   1.539868e+01
   2.479530e+01   7.482797e+01
  -1.229489e+02   6.657850e+01
  -2.388069e+02  -2.344082e+01
  -1.938523e+02  -1.417166e+02
  -6.176870e+00  -2.072919e+02
   1.719062e+02  -1.724456e+02
   2.036219e+02  -6.129950e+01
   9.455682e+01   3.943449e+01
  -2.598903e+01   5.374262e+01
  -4.178732e+01  -8.625149e+00
   4.676612e+01  -5.626179e+01
   1.376601e+02  -1.586231e+01
   1.355449e+02   8.313901e+01
   3.870948e+01   1.394132e+02
  -6.686929e+01   9.650155e+01
  -9.201678e+01   7.339994e+00
  -2.970790e+01  -2.837922e+01
   3.749797e+01   2.285465e+01
   1.985455e+01   9.380460e+01
  -8.155291e+01   9.434194e+01
  -1.659106e+02   4.434749e+00
  -1.361616e+02  -1.084257e+02
  -3.565210e+00  -1.569487e+02
   1.169087e+02  -1.092101e+02
   1.265277e+02  -8.958856e+00
   3.985433e+01   6.593105e+01
  -4.456056e+01   6.890277e+01
  -4.954273e+01   1.981846e+01
   2.100896e+00  -1.672893e+01
   3.229550e+01  -5.646874e+00
  -5.499897e+00   2.220293e+01
  -7.201342e+01   3.692097e+00
  -8.697573e+01  -7.215963e+01
  -8.761325e+00  -1.398785e+02
   1.152938e+02  -1.173246e+02
   1.867101e+02  -1.486211e+00
   1.459011e+02   1.255129e+02
   2.670011e+01   1.718886e+02
  -7.604656e+01   1.189207e+02
  -9.800621e+01   2.653709e+01
  -5.948749e+01  -2.813728e+01
  -3.020277e+01  -2.042531e+01
  -4.541540e+01   9.687432e+00
  -7.073535e+01   3.451942e+00
  -4.770074e+01  -4.859050e+01
   3.115312e+01  -8.935828e+01
   1.031975e+02  -5.758182e+01
   9.066852e+01   3.710065e+01
  -1.428452e+01   1.067231e+02
  -1.351564e+02   7.003154e+01
  -1.619111e+02  -5.880381e+01
  -5.741190e+01  -1.693520e+02
   1.057746e+02  -1.677760e+02
   2.084165e+02  -5.495530e+01
   1.840297e+02   7.209240e+01
   7.216972e+01   1.278322e+02
  -3.133267e+01   1.021376e+02
  -6.603488e+01   6.038756e+01
  -5.164918e+01   5.497585e+01
  -4.359893e+01   7.562336e+01
  -6.963793e+01   6.386323e+01
  -1.029213e+02  -1.403957e+01
  -9.159299e+01  -1.207340e+02
  -1.821150e+01  -1.748875e+02
   7.859461e+01  -1.256547e+02
   1.286185e+02  -4.381309e+00
   9.305721e+01   1.001404e+02
   3.824009e+00   1.197031e+02
  -5.995514e+01   6.040932e+01
  -4.894904e+01  -1.364856e+01
   4.422837e+00  -4.456467e+01
   2.377714e+01  -2.975911e+01
  -2.018083e+01  -8.987305e+00
  -6.823341e+01  -1.314805e+01
  -4.063032e+01  -3.248463e+01
   6.085964e+01  -3.295264e+01
   1.415302e+02   2.972958e+00
   1.140863e+02   5.408510e+01
  -4.443180e+00   7.937437e+01
  -1.084235e+02   5.600547e+01
  -1.134242e+02   9.600113e-01
  -3.404966e+01  -4.113791e+01
   4.550680e+01  -3.442067e+01
   6.157496e+01   1.458626e+01
   1.939264e+01   5.865868e+01
  -3.248084e+01   5.322799e+01
  -5.598929e+01   2.920347e+00
  -4.994367e+01  -4.020108e+01
  -3.806035e+01  -3.463973e+01
  -4.018813e+01  -1.360595e+00
  -5.012388e+01  -2.541321e-01
  -3.871068e+01  -5.683411e+01
   1.893844e+01  -1.207823e+02
   1.020922e+02  -1.154015e+02
   1.469555e+02  -2.684343e+01
   1.036211e+02   7.476441e+01
  -9.696782e-01   1.067992e+02
  -7.491783e+01   5.800372e+01
  -4.959014e+01  -6.108885e+00
   4.488678e+01  -1.661301e+01
   1.026646e+02   3.085704e+01
   5.286342e+01   8.206988e+01
  -6.600764e+01   8.376160e+01
  -1.459362e+02   3.128299e+01
  -1.187775e+02  -3.430595e+01
  -2.096700e+01  -6.507724e+01
   5.060484e+01  -4.310213e+01
   3.658494e+01   4.469130e+00
  -3.181952e+01   2.502149e+01
  -7.159661e+01  -1.522660e+01
  -3.225140e+01  -8.926081e+01
   5.694832e+01  -1.209463e+02
   1.177321e+02  -5.652870e+01
   9.796270e+01   6.837157e+01
   1.568721e+01   1.470632e+02
  -6.194065e+01   1.071910e+02
  -8.107506e+01  -1.054325e+01
  -4.139788e+01  -9.368451e+01
   1.396680e+01  -7.824322e+01
   4.188252e+01  -9.931593e+00
   3.192906e+01   2.469764e+01
   9.246381e+00   4.875487e+00
   5.984603e+00  -1.270636e+01
   2.842837e+01   1.782226e+01
   4.671656e+01   6.942696e+01
   2.183358e+01   7.973901e+01
  -4.596629e+01   3.284136e+01
  -1.033559e+02  -2.627140e+01
  -9.231561e+01  -5.164566e+01
  -1.554314e+01  -4.163782e+01
   5.822929e+01  -2.128237e+01
   6.539894e+01  -4.284394e+00
   1.564450e+01   9.483181e+00
  -2.518756e+01   1.566377e+01
  -1.694532e+01   7.903543e+00
   9.668335e+00  -4.137211e+00
  -4.642430e-01  -3.953013e+00
  -4.808027e+01   2.015488e+00
  -7.175478e+01  -1.506405e+01
  -2.094113e+01  -6.100161e+01
   7.881870e+01  -9.195515e+01
   1.453216e+02  -5.532999e+01
   1.209120e+02   4.069210e+01
   2.716147e+01   1.218740e+02
  -6.186731e+01   1.226652e+02
  -9.035037e+01   5.386512e+01
  -6.225605e+01  -1.425569e+01
  -2.147789e+01  -3.066653e+01
  -3.875283e+00  -1.124766e+01
  -1.181553e+01  -7.556612e+00
  -2.250300e+01  -3.903571e+01
  -1.270567e+01  -7.090742e+01
   2.153773e+01  -5.566530e+01
   5.907362e+01   9.855722e+00
   6.312086e+01   7.505247e+01
   1.528956e+01   8.360051e+01
  -5.450476e+01   2.756634e+01
  -8.276467e+01  -4.596121e+01
  -3.492770e+01  -7.958659e+01
   4.769872e+01  -5.389629e+01
   8.307245e+01   3.232894e+00
   3.952006e+01   4.701832e+01
  -2.543906e+01   5.166502e+01
  -3.389084e+01   2.375273e+01
   1.650137e+01  -6.260984e+00
   5.172056e+01  -8.287272e+00
   1.564934e+01   2.115962e+01
  -5.932358e+01   5.009657e+01
  -9.439167e+01   3.975690e+01
  -5.705092e+01  -1.403709e+01
   9.676301e+00  -6.624595e+01
   4.630871e+01  -6.560773e+01
   3.759906e+01  -1.198019e+01
   7.909124e+00   4.030179e+01
  -1.737456e+01   4.019547e+01
  -2.935134e+01  -4.962291e+00
  -2.434019e+01  -4.213656e+01
  -1.409637e+00  -3.402083e+01
   2.616555e+01   1.776622e+00
   3.469904e+01   2.058839e+01
   1.732644e+01   4.921176e+00
  -4.473765e+00  -1.677630e+01
  -6.222723e+00  -9.936489e+00
   6.251866e+00   2.284931e+01
   5.192612e+00   4.264598e+01
  -1.764626e+01   2.153998e+01
  -3.508633e+01  -2.233101e+01
  -1.615057e+01  -4.427701e+01
   2.850441e+01  -2.151115e+01
   5.033364e+01   2.212633e+01
   1.747495e+01   4.457292e+01
  -4.408820e+01   2.886644e+01
  -7.327993e+01  -6.192401e+00
  -3.999942e+01  -3.216282e+01
   2.144618e+01  -3.693897e+01
   5.004357e+01  -2.469029e+01
   2.376579e+01  -6.607305e+00
  -1.835463e+01   4.600786e+00
  -2.362934e+01  -1.214170e+00
   1.544930e+01  -1.723703e+01
   5.554966e+01  -1.677091e+01
