
 $NMID
 id='ANONYMOUS ', fmtdat='(2E16.6)'
 volume=1.0
 tramp=1.0
 $END
  -2.116329e+03   1.893905e+01
  -1.372475e+03  -9.967823e+02
  -1.630883e+02  -1.316415e+03
   6.479516e+02  -1.022510e+03
   8.575913e+02  -3.970318e+02
   1.833009e+02   2.549792e+02
  -2.416326e+02   4.689260e+01
  -3.148814e+00  -3.180741e+02
   2.161227e+02  -3.272366e+02
   3.892118e+02  -1.626534e+02
   3.333545e+02   2.479968e+02
   1.000740e+02   4.316472e+02
  -1.703459e+02   1.603896e+02
  -1.921442e+02  -1.968835e+02
   2.379717e+01  -3.520457e+02
   2.770615e+02  -1.249281e+02
   2.332965e+02   2.970713e+02
  -4.381847e+01   4.492571e+02
  -2.943846e+02   2.514660e+02
  -3.485029e+02  -5.088830e+01
  -1.641492e+02  -2.543125e+02
   7.079752e+00  -2.183384e+02
   7.769515e+00  -9.769967e+01
  -1.437301e+02  -1.167502e+02
  -1.737543e+02  -2.603827e+02
   4.756014e+01  -2.670227e+02
   3.577932e+02  -6.066858e+01
   4.018907e+02   1.377340e+02
   1.035722e+02   1.928367e+02
  -2.139833e+02   8.132953e+01
  -2.966251e+02  -1.058756e+02
  -9.478963e+01  -2.082023e+02
   1.788364e+02  -2.159197e+02
   2.898414e+02  -9.281933e+01
   2.242574e+02   9.224594e+01
   8.733434e+01   1.951170e+02
   3.259590e+01   1.392045e+02
   7.128280e+01  -2.476375e+01
   9.694757e+01  -5.320281e+01
   8.210146e+01   1.362972e+02
  -2.190601e+01   3.260948e+02
  -1.386529e+02   2.854414e+02
  -1.781884e+02   3.573714e+01
  -7.972423e+01  -1.509896e+02
   5.743197e+01  -5.962038e+01
   7.801213e+01   1.794224e+02
  -9.071970e+01   2.458054e+02
  -3.041329e+02   3.358068e+01
  -3.457181e+02  -2.392444e+02
  -1.363300e+02  -3.263122e+02
   1.883480e+02  -1.808824e+02
   3.627006e+02   2.832708e+01
   2.571445e+02   1.402657e+02
  -4.625537e+00   1.359588e+02
  -1.877078e+02   7.717804e+01
  -1.707536e+02   2.093578e+01
  -4.011380e+01  -1.818773e+00
   2.463542e+01   8.572374e+00
  -4.640351e+01   1.792823e+01
  -1.421909e+02  -2.224810e+01
  -1.047871e+02  -1.169956e+02
   8.531060e+01  -1.860889e+02
   2.565392e+02  -1.263986e+02
   2.242101e+02   6.905787e+01
  -5.980920e+00   2.627771e+02
  -2.354519e+02   2.906323e+02
  -2.833482e+02   1.196948e+02
  -1.654202e+02  -1.137175e+02
  -3.666585e+01  -2.438373e+02
  -2.221213e-01  -2.263038e+02
  -9.980973e+00  -1.513302e+02
   2.774830e+01  -1.079558e+02
   1.222004e+02  -8.601790e+01
   1.927019e+02  -1.932149e+01
   1.688326e+02   9.886628e+01
   6.008512e+01   1.785719e+02
  -6.372050e+01   1.285140e+02
  -1.292692e+02  -3.016911e+01
  -9.311091e+01  -1.705829e+02
   3.508073e+01  -1.757071e+02
   1.736221e+02  -4.070295e+01
   2.174923e+02   1.238570e+02
   1.268431e+02   2.083994e+02
  -2.117753e+01   1.932307e+02
  -1.077076e+02   1.286932e+02
  -1.120203e+02   8.228459e+01
  -1.255954e+02   6.182007e+01
  -2.215424e+02   2.341492e+01
  -3.147092e+02  -7.693565e+01
  -2.440256e+02  -2.203552e+02
   1.738785e+01  -3.243786e+02
   2.828142e+02  -2.990202e+02
   3.508044e+02  -1.318642e+02
   2.039295e+02   6.980455e+01
   1.100962e+01   1.756823e+02
  -5.425338e+01   1.361351e+02
   9.185161e+00   3.137086e+01
   8.599786e+01  -1.403035e+01
   7.825375e+01   3.413029e+01
  -1.177711e+00   9.355005e+01
  -6.974313e+01   6.645953e+01
  -6.523995e+01  -3.247360e+01
   1.461692e+01  -8.057035e+01
   1.046378e+02   4.137928e+00
   1.119418e+02   1.670384e+02
  -3.432036e+00   2.527229e+02
  -1.789389e+02   1.627791e+02
  -2.808930e+02  -4.320738e+01
  -2.167371e+02  -2.037409e+02
  -3.863602e+01  -2.106634e+02
   1.042168e+02  -1.002924e+02
   1.092593e+02  -8.696955e-01
   2.091386e+01   5.609589e+00
  -3.454503e+01  -5.031199e+01
   9.270104e+00  -7.980179e+01
   8.986534e+01  -4.205144e+01
   9.937804e+01   1.927926e+01
   1.809995e+01   3.297993e+01
  -5.844046e+01  -1.585669e+01
  -2.223656e+01  -7.139576e+01
   1.176578e+02  -6.502793e+01
   2.310676e+02   2.022398e+01
   1.922838e+02   1.345456e+02
   1.343632e+01   2.003821e+02
  -1.618723e+02   1.702779e+02
  -1.977920e+02   6.700139e+01
  -9.479913e+01  -3.019068e+01
   2.342280e+01  -4.809463e+01
   4.048488e+01   7.011383e+00
  -4.559948e+01   5.272321e+01
  -1.358111e+02   1.755078e+01
  -1.356357e+02  -7.521684e+01
  -4.162421e+01  -1.310116e+02
   6.180358e+01  -9.419830e+01
   8.737588e+01  -1.136386e+01
   2.770785e+01   2.200704e+01
  -3.641257e+01  -2.547673e+01
  -1.819289e+01  -9.164920e+01
   8.047213e+01  -9.107907e+01
   1.638361e+02  -5.209715e+00
   1.358451e+02   1.038328e+02
   7.525020e+00   1.542487e+02
  -1.119366e+02   1.116190e+02
  -1.244620e+02   1.423606e+01
  -4.136904e+01  -6.231130e+01
   4.019953e+01  -6.761399e+01
   4.552175e+01  -2.002525e+01
  -4.704838e+00   1.646697e+01
  -3.182401e+01   3.466255e+00
   7.886772e+00  -2.527399e+01
   7.482430e+01  -5.977569e+00
   8.737451e+01   7.204389e+01
   8.516381e+00   1.402179e+02
  -1.133436e+02   1.203675e+02
  -1.828211e+02   6.312136e+00
  -1.452930e+02  -1.211088e+02
  -3.202941e+01  -1.694170e+02
   6.966220e+01  -1.191232e+02
   9.493707e+01  -2.824165e+01
   5.977542e+01   2.622160e+01
   2.918923e+01   1.806678e+01
   4.243103e+01  -1.172499e+01
   6.918981e+01  -5.871956e+00
   4.977438e+01   4.595316e+01
  -2.710016e+01   8.863014e+01
  -1.006313e+02   5.877693e+01
  -9.145144e+01  -3.401710e+01
   1.406680e+01  -1.066810e+02
   1.342590e+02  -7.387642e+01
   1.629568e+02   5.340160e+01
   6.210415e+01   1.688770e+02
  -1.004905e+02   1.710846e+02
  -2.046473e+02   6.130328e+01
  -1.837358e+02  -6.702624e+01
  -7.457835e+01  -1.238908e+02
   2.737557e+01  -1.018806e+02
   6.292043e+01  -6.176369e+01
   4.715061e+01  -5.647844e+01
   3.914290e+01  -7.657198e+01
   6.802281e+01  -6.600112e+01
   1.044007e+02   9.488105e+00
   9.642394e+01   1.155697e+02
   2.353508e+01   1.726218e+02
  -7.452455e+01   1.280629e+02
  -1.270910e+02   9.026491e+00
  -9.407578e+01  -9.664909e+01
  -6.542459e+00  -1.168273e+02
   5.774515e+01  -5.638059e+01
   4.817758e+01   1.737400e+01
  -5.552673e+00   4.560900e+01
  -2.678073e+01   2.752810e+01
   1.610279e+01   5.678271e+00
   6.525795e+01   1.066995e+01
   4.038160e+01   3.074231e+01
  -5.869477e+01   3.171717e+01
  -1.385602e+02  -2.200698e+00
  -1.118270e+02  -5.119263e+01
   4.826539e+00  -7.749366e+01
   1.067152e+02  -5.746288e+01
   1.107316e+02  -4.267362e+00
   3.245654e+01   3.989250e+01
  -4.544598e+01   3.625190e+01
  -6.093362e+01  -1.226016e+01
  -1.998243e+01  -5.904374e+01
   3.104546e+01  -5.560394e+01
   5.608322e+01  -5.218603e+00
   5.213083e+01   3.901973e+01
   4.010033e+01   3.441979e+01
   3.951154e+01   1.211163e+00
   4.766440e+01   8.133407e-01
   3.743515e+01   5.775494e+01
  -1.614088e+01   1.208523e+02
  -9.720455e+01   1.153726e+02
  -1.444094e+02   2.804406e+01
  -1.055835e+02  -7.215135e+01
  -3.413083e+00  -1.044630e+02
   7.214201e+01  -5.771321e+01
   4.946661e+01   5.049252e+00
  -4.310664e+01   1.688647e+01
  -1.016615e+02  -2.797876e+01
  -5.436430e+01  -7.901097e+01
   6.181546e+01  -8.338633e+01
   1.413659e+02  -3.379795e+01
   1.165665e+02   3.132436e+01
   2.157093e+01   6.300760e+01
  -4.906276e+01   4.245347e+01
  -3.644332e+01  -5.343696e+00
   3.170877e+01  -2.695943e+01
   7.343935e+01   1.230694e+01
   3.726435e+01   8.785438e+01
  -5.176231e+01   1.235365e+02
  -1.163820e+02   6.247628e+01
  -1.012480e+02  -6.208841e+01
  -2.137227e+01  -1.448275e+02
   5.725088e+01  -1.098882e+02
   7.959663e+01   6.100768e+00
   4.293872e+01   9.059899e+01
  -1.152483e+01   7.731324e+01
  -4.048805e+01   1.038244e+01
  -3.218592e+01  -2.412190e+01
  -8.955093e+00  -4.549351e+00
  -4.436489e+00   1.290005e+01
  -2.724297e+01  -1.759479e+01
  -4.724797e+01  -6.767230e+01
  -2.373118e+01  -7.726212e+01
   4.446476e+01  -3.223437e+01
   1.030226e+02   2.415579e+01
   9.237917e+01   4.870541e+01
   1.549743e+01   4.111549e+01
  -5.776282e+01   2.340432e+01
  -6.471025e+01   5.947350e+00
  -1.579444e+01  -1.014687e+01
   2.367453e+01  -1.703849e+01
   1.601582e+01  -7.891424e+00
  -8.742291e+00   4.750969e+00
   1.609821e+00   2.541569e+00
   4.806911e+01  -5.534356e+00
   7.225264e+01   1.237963e+01
   2.436426e+01   6.227362e+01
  -7.359914e+01   9.650038e+01
  -1.426675e+02   6.066178e+01
  -1.239721e+02  -3.635848e+01
  -3.356883e+01  -1.197409e+02
   5.665877e+01  -1.233905e+02
   8.838715e+01  -5.692185e+01
   6.236063e+01   1.092945e+01
   2.164515e+01   2.924817e+01
   3.875784e+00   1.181505e+01
   1.210326e+01   7.562241e+00
   2.324880e+01   3.735751e+01
   1.443211e+01   6.884030e+01
  -1.975450e+01   5.545430e+01
  -5.850975e+01  -7.392827e+00
  -6.530272e+01  -7.188295e+01
  -1.889732e+01  -8.275658e+01
   5.270769e+01  -3.049149e+01
   8.439078e+01   4.151831e+01
   3.808006e+01   7.726230e+01
  -4.538182e+01   5.567573e+01
  -8.263600e+01   1.122720e-01
  -4.026191e+01  -4.585771e+01
   2.445054e+01  -5.274431e+01
   3.342877e+01  -2.414213e+01
  -1.618985e+01   8.291262e+00
  -5.117990e+01   1.086556e+01
  -1.634383e+01  -2.122583e+01
   5.680401e+01  -5.291450e+01
   9.196786e+01  -4.222619e+01
   5.736307e+01   1.341543e+01
  -6.578507e+00   6.670280e+01
  -4.362435e+01   6.652372e+01
  -3.749394e+01   1.341445e+01
  -1.003879e+01  -3.877109e+01
   1.532265e+01  -4.015256e+01
   2.918368e+01   3.202200e+00
   2.518745e+01   4.004675e+01
   2.073202e+00   3.353963e+01
  -2.567612e+01  -7.124511e-01
  -3.408269e+01  -1.911781e+01
  -1.670524e+01  -4.157070e+00
   4.266031e+00   1.754159e+01
   4.715837e+00   1.072569e+01
  -8.637250e+00  -2.289058e+01
  -6.997636e+00  -4.415286e+01
   1.808245e+01  -2.401139e+01
   3.749560e+01   2.127791e+01
   1.833580e+01   4.536110e+01
  -2.851986e+01   2.391691e+01
  -5.254058e+01  -2.008433e+01
  -1.996242e+01  -4.444146e+01
   4.275464e+01  -3.100941e+01
   7.343712e+01   3.093527e+00
   4.113654e+01   3.062335e+01
  -1.993769e+01   3.768887e+01
  -4.897430e+01   2.639153e+01
  -2.374047e+01   6.711166e+00
   1.820629e+01  -6.283680e+00
   2.487380e+01   1.742760e-01
  -1.270842e+01   1.883109e+01
  -5.330550e+01   2.055804e+01
