
 $NMID
 id='ANONYMOUS ', fmtdat='(2E16.6)'
 volume=1.0
 tramp=1.0
 $END
   8.271049e+02   3.995096e+01
   6.449494e+02   3.448464e+02
   4.037267e+01   6.429262e+02
  -3.836886e+02   4.441232e+02
  -2.903533e+02   9.621511e+01
   9.729360e+01  -6.722359e+01
   1.144548e+02  -3.598046e+01
  -1.918574e+01   1.793655e+02
  -1.609405e+02   2.045138e+02
  -1.798756e+02  -3.028577e+01
  -1.345162e+02  -1.796396e+02
   4.358990e+01  -2.408707e+02
   4.520520e+01  -7.814227e+01
   4.542444e+01   9.816861e+01
  -4.668751e+01   1.510724e+02
  -1.596757e+02   6.320825e+01
  -1.669227e+02  -1.827007e+02
  -6.835606e+01  -2.277320e+02
   1.782570e+02  -1.189586e+02
   1.959271e+02   5.050703e+01
   8.020698e+01   1.104240e+02
  -4.555347e+01   4.666368e+01
  -2.692964e+01   2.872066e+01
   8.720069e+01   6.184819e+01
   9.211876e+01   1.264480e+02
  -2.808745e+01   1.247974e+02
  -1.588439e+02   2.911517e+01
  -1.857448e+02  -8.182068e+01
  -3.267052e+01  -1.097751e+02
   1.173712e+02  -6.272991e+01
   1.580511e+02   5.466803e+01
   5.298182e+01   1.416739e+02
  -9.288369e+01   1.162890e+02
  -1.446102e+02   2.721770e+01
  -9.957356e+01  -6.130999e+01
  -2.041333e+01  -9.500445e+01
  -1.552624e+01  -2.815757e+01
  -4.514923e+01   3.072813e+01
  -7.327395e+01   1.309930e+01
  -5.164373e+01  -8.772365e+01
   2.507423e+01  -1.639332e+02
   8.563876e+01  -1.241165e+02
   8.915336e+01  -4.720366e-01
   3.372781e+01   6.548420e+01
  -2.824087e+01   7.837890e+00
  -1.760598e+01  -9.133155e+01
   5.061446e+01  -1.003167e+02
   1.500813e+02   1.060845e+01
   1.557002e+02   1.384645e+02
   4.686793e+01   1.767837e+02
  -1.075119e+02   9.298458e+01
  -1.826784e+02  -2.715578e+01
  -1.182882e+02  -8.992017e+01
   9.331682e+00  -7.326489e+01
   9.253712e+01  -2.859860e+01
   7.476302e+01  -3.546890e+00
   1.439170e+01  -4.455380e+00
  -4.574678e+00  -1.146964e+01
   3.583800e+01  -2.969441e+00
   7.118303e+01   2.888677e+01
   3.209657e+01   6.910532e+01
  -6.777173e+01   8.432739e+01
  -1.391740e+02   4.093055e+01
  -1.068850e+02  -5.393145e+01
   1.281904e+01  -1.400984e+02
   1.246191e+02  -1.430628e+02
   1.466505e+02  -4.968903e+01
   8.487091e+01   6.984719e+01
   1.574725e+01   1.274418e+02
  -6.318459e+00   1.058051e+02
   3.555470e-01   6.088196e+01
  -1.339396e+01   4.650682e+01
  -5.984613e+01   5.063356e+01
  -9.744368e+01   2.148037e+01
  -8.546465e+01  -4.844062e+01
  -2.302219e+01  -1.015990e+02
   4.329488e+01  -7.335555e+01
   7.000016e+01   2.289590e+01
   3.736617e+01   1.030855e+02
  -3.422612e+01   9.661794e+01
  -9.892316e+01   9.589279e+00
  -1.087646e+02  -7.816668e+01
  -4.879119e+01  -1.126159e+02
   2.409856e+01  -8.828838e+01
   5.900218e+01  -5.158080e+01
   5.113812e+01  -3.473510e+01
   5.870167e+01  -2.901940e+01
   1.084428e+02  -8.620468e+00
   1.540933e+02   4.818627e+01
   1.168073e+02   1.214103e+02
  -1.525332e+01   1.659513e+02
  -1.545458e+02   1.449588e+02
  -1.891479e+02   5.426890e+01
  -1.095504e+02  -4.767178e+01
  -7.460741e-01  -9.721819e+01
   3.932236e+01  -7.243609e+01
   1.435175e-01  -1.621741e+01
  -4.491171e+01   5.970106e+00
  -3.913409e+01  -2.060803e+01
   7.858524e+00  -5.050501e+01
   4.515266e+01  -3.111471e+01
   3.311804e+01   2.192013e+01
  -1.514138e+01   4.551681e+01
  -5.635850e+01  -3.237863e+00
  -4.976526e+01  -9.009772e+01
   1.251853e+01  -1.320236e+02
   9.557834e+01  -8.084396e+01
   1.388139e+02   2.741563e+01
   1.054358e+02   1.099303e+02
   1.924675e+01   1.101400e+02
  -4.856160e+01   5.203534e+01
  -5.184949e+01  -7.904985e-01
  -9.592631e+00  -2.465105e+00
   1.487440e+01   2.944261e+01
  -1.003041e+01   4.565742e+01
  -5.235034e+01   2.300510e+01
  -5.543933e+01  -1.351409e+01
  -9.922991e+00  -2.207700e+01
   3.143930e+01   4.417520e+00
   1.306589e+01   3.437477e+01
  -5.991391e+01   2.912741e+01
  -1.167346e+02  -1.686490e+01
  -9.317393e+01  -7.438524e+01
   2.253010e+00  -1.017394e+02
   9.135972e+01  -7.967806e+01
   1.044219e+02  -2.401985e+01
   4.515823e+01   2.266413e+01
  -1.802481e+01   2.661269e+01
  -2.459660e+01  -5.257358e+00
   2.360714e+01  -2.890326e+01
   7.039289e+01  -8.781316e+00
   6.743408e+01   4.112438e+01
   1.700602e+01   7.059246e+01
  -3.511227e+01   4.913271e+01
  -4.564824e+01   3.497094e+00
  -1.431382e+01  -1.590934e+01
   1.781786e+01   1.000615e+01
   7.776447e+00   4.654191e+01
  -4.246958e+01   4.681771e+01
  -8.335022e+01   4.437469e-01
  -6.735701e+01  -5.709534e+01
  -6.799161e-01  -8.063715e+01
   6.026177e+01  -5.501503e+01
   6.514127e+01  -2.611965e+00
   2.024433e+01   3.480864e+01
  -2.366469e+01   3.532504e+01
  -2.675873e+01   9.250781e+00
  -1.211378e-01  -9.599152e+00
   1.544253e+01  -3.349984e+00
  -3.397888e+00   1.081157e+01
  -3.597342e+01   1.508917e+00
  -4.185678e+01  -3.768146e+01
  -2.278877e+00  -7.083780e+01
   5.894408e+01  -5.856068e+01
   9.341902e+01   5.980045e-01
   7.156687e+01   6.493389e+01
   1.165883e+01   8.772945e+01
  -3.995001e+01   5.987950e+01
  -5.011877e+01   1.232292e+01
  -2.957612e+01  -1.554464e+01
  -1.478181e+01  -1.190379e+01
  -2.212623e+01   3.096276e+00
  -3.398021e+01   1.517691e+00
  -2.241760e+01  -2.236836e+01
   1.644453e+01  -4.060189e+01
   4.958601e+01  -2.582966e+01
   4.147051e+01   1.881942e+01
  -1.082642e+01   5.120967e+01
  -6.753914e+01   3.138284e+01
  -7.748821e+01  -3.067283e+01
  -2.511076e+01  -8.408727e+01
   5.379061e+01  -8.129474e+01
   1.012309e+02  -2.391665e+01
   8.784203e+01   3.902022e+01
   3.327879e+01   6.550389e+01
  -1.649972e+01   5.007431e+01
  -3.370432e+01   2.789335e+01
  -2.691960e+01   2.503832e+01
  -2.344062e+01   3.558198e+01
  -3.560309e+01   2.980503e+01
  -5.050889e+01  -8.708114e+00
  -4.300270e+01  -6.074003e+01
  -5.623625e+00  -8.611750e+01
   4.176719e+01  -6.014907e+01
   6.453538e+01  -1.385507e-01
   4.471689e+01   5.070893e+01
  -7.449247e-01   5.976180e+01
  -3.161000e+01   3.040339e+01
  -2.477181e+01  -6.131978e+00
   2.067125e+00  -2.179473e+01
   1.136979e+01  -1.511186e+01
  -1.020907e+01  -4.900981e+00
  -3.291651e+01  -6.790531e+00
  -1.936036e+01  -1.614949e+01
   2.928983e+01  -1.617395e+01
   6.767383e+01   2.103843e+00
   5.440737e+01   2.776619e+01
  -2.828196e+00   4.008652e+01
  -5.321263e+01   2.716788e+01
  -5.555149e+01  -1.404861e+00
  -1.679853e+01  -2.212470e+01
   2.245052e+01  -1.705830e+01
   2.970268e+01   8.454006e+00
   8.070376e+00   2.995369e+01
  -1.723634e+01   2.596936e+01
  -2.740911e+01   3.420179e-01
  -2.341890e+01  -2.077161e+01
  -1.779998e+01  -1.792966e+01
  -1.976687e+01  -1.016898e+00
  -2.469411e+01  -3.755729e-01
  -1.811519e+01  -2.784540e+01
   1.055860e+01  -5.829522e+01
   5.044374e+01  -5.489160e+01
   7.106665e+01  -1.163596e+01
   4.952048e+01   3.722138e+01
  -1.276670e+00   5.158829e+01
  -3.658347e+01   2.715789e+01
  -2.395396e+01  -3.334280e+00
   2.130703e+01  -6.913079e+00
   4.891225e+01   1.674260e+01
   2.426394e+01   4.069935e+01
  -3.385226e+01   3.934483e+01
  -7.246079e+01   1.274786e+01
  -5.859762e+01  -1.862608e+01
  -9.752913e+00  -3.222573e+01
   2.557426e+01  -2.101314e+01
   1.804810e+01   1.344454e+00
  -1.627922e+01   1.031636e+01
  -3.491238e+01  -9.119072e+00
  -1.352620e+01  -4.388967e+01
   3.107203e+01  -5.743554e+01
   5.908218e+01  -2.493167e+01
   4.585466e+01   3.588086e+01
   3.859419e+00   7.274690e+01
  -3.282301e+01   5.142154e+01
  -3.977195e+01  -7.204373e+00
  -1.914877e+01  -4.748390e+01
   7.502098e+00  -3.887649e+01
   2.074629e+01  -4.530580e+00
   1.602684e+01   1.271110e+01
   5.322280e+00   2.922177e+00
   3.151363e+00  -6.034248e+00
   1.312949e+01   9.013013e+00
   2.121456e+01   3.470777e+01
   8.963724e+00   3.972976e+01
  -2.336453e+01   1.572069e+01
  -5.058128e+01  -1.456606e+01
  -4.459136e+01  -2.747120e+01
  -6.955801e+00  -2.127256e+01
   2.878103e+01  -9.675958e+00
   3.193849e+01  -1.141958e+00
   7.778752e+00   4.516088e+00
  -1.198021e+01   6.856586e+00
  -7.939957e+00   3.822771e+00
   4.616606e+00  -8.492073e-01
  -7.791572e-01  -1.065126e+00
  -2.387247e+01   2.178464e-01
  -3.493420e+01  -8.907298e+00
  -9.281107e+00  -3.027338e+01
   3.979521e+01  -4.345281e+01
   7.138793e+01  -2.457866e+01
   5.810261e+01   2.168243e+01
   1.117756e+01   5.998291e+01
  -3.219059e+01   5.929257e+01
  -4.506433e+01   2.510445e+01
  -3.049718e+01  -7.923463e+00
  -1.041435e+01  -1.535705e+01
  -2.333568e+00  -5.637218e+00
  -6.404636e+00  -3.758738e+00
  -1.111725e+01  -1.986762e+01
  -5.448436e+00  -3.588649e+01
   1.189200e+01  -2.770277e+01
   2.950764e+01   5.524713e+00
   3.020817e+01   3.787145e+01
   6.201575e+00   4.114686e+01
  -2.697583e+01   1.239468e+01
  -3.927098e+01  -2.367159e+01
  -1.517292e+01  -3.877481e+01
   2.429876e+01  -2.469969e+01
   3.991045e+01   3.055062e+00
   1.777061e+01   2.326229e+01
  -1.383012e+01   2.437497e+01
  -1.696600e+01   1.099857e+01
   8.672529e+00  -2.808797e+00
   2.624277e+01  -3.552127e+00
   8.202414e+00   1.049774e+01
  -2.939372e+01   2.422317e+01
  -4.706607e+01   1.919557e+01
  -2.833532e+01  -6.519685e+00
   5.402594e+00  -3.126743e+01
   2.339117e+01  -3.074467e+01
   1.773080e+01  -5.004694e+00
   1.838335e+00   1.950391e+01
  -1.061699e+01   1.845533e+01
  -1.466971e+01  -3.875740e+00
  -1.059830e+01  -2.139426e+01
   4.943388e-01  -1.654046e+01
   1.258631e+01   1.528737e+00
   1.586339e+01   1.047322e+01
   7.844838e+00   2.286683e+00
  -1.871158e+00  -8.878311e+00
  -2.690288e+00  -5.510355e+00
   2.804407e+00   1.097391e+01
   2.188757e+00   2.065032e+01
  -8.555877e+00   1.038166e+01
  -1.636942e+01  -1.138238e+01
  -6.986345e+00  -2.171308e+01
   1.401883e+01  -9.970984e+00
   2.376336e+01   1.167998e+01
   7.647023e+00   2.200541e+01
  -2.212434e+01   1.314545e+01
  -3.582375e+01  -4.453969e+00
  -1.900159e+01  -1.665224e+01
   1.140661e+01  -1.783031e+01
   2.514725e+01  -1.113040e+01
   1.167420e+01  -2.486562e+00
  -9.536687e+00   2.583043e+00
  -1.198212e+01  -6.734796e-01
   7.406194e+00  -8.076790e+00
   2.684038e+01  -7.453639e+00
