
 $NMID
 id='ANONYMOUS ', fmtdat='(2E16.6)'
 volume=1.0
 tramp=1.0
 $END
   1.331863e+03  -2.043877e+02
   9.456369e+02   8.599369e+02
  -1.187040e+02   1.084639e+03
  -7.801504e+02   5.048967e+02
  -4.059456e+02  -7.101577e+01
   3.127853e+01  -1.614130e+02
   1.426557e+02   8.274072e+01
   7.540266e+01   2.464222e+02
  -2.353333e+02   3.535171e+02
  -3.768242e+02   8.203314e+01
  -3.273854e+02  -2.509969e+02
   3.064546e+01  -2.831406e+02
   2.464624e+02  -1.084724e+02
   1.473954e+02   1.823285e+02
  -1.092601e+02   2.691725e+02
  -3.070956e+02   4.540746e+01
  -1.469644e+02  -2.571961e+02
   5.225873e+01  -2.384651e+02
   2.361124e+02  -1.051891e+02
   2.175210e+02   1.230587e+02
   7.850857e+01   1.479293e+02
  -7.076899e+01   8.917979e+01
  -3.037218e+01   8.883435e+00
   5.280420e+01   3.299656e+01
   1.306685e+02   1.259086e+02
   8.575932e-01   1.906700e+02
  -2.042149e+02   1.065294e+02
  -2.725433e+02  -7.093359e+01
  -1.041684e+02  -1.972463e+02
   1.520885e+02  -1.343088e+02
   2.474459e+02   5.905442e+01
   9.475763e+01   2.079822e+02
  -1.219972e+02   1.699503e+02
  -2.214187e+02   4.455586e+01
  -1.432068e+02  -8.473784e+01
  -1.846327e+01  -1.411802e+02
   3.475239e+01  -7.396461e+01
  -1.742574e+01   5.800638e+01
  -1.038907e+02   8.957502e+01
  -1.123033e+02  -6.845358e+01
  -1.812815e+01  -2.471007e+02
   1.388788e+02  -2.135774e+02
   1.698686e+02   1.036687e+01
   6.403576e+01   1.644455e+02
  -9.037881e+01   6.322318e+01
  -1.007164e+02  -1.318986e+02
   4.152657e+01  -1.880497e+02
   2.221273e+02  -2.337270e+01
   2.337396e+02   1.816194e+02
   7.161749e+01   2.410054e+02
  -1.533706e+02   1.321516e+02
  -2.594699e+02  -3.846054e+01
  -1.675905e+02  -1.400320e+02
   3.290638e+01  -1.163580e+02
   1.540707e+02  -2.974961e+01
   1.092211e+02   3.111799e+01
  -4.652716e+00   1.663589e+01
  -3.486974e+01  -3.070005e+01
   4.611624e+01  -3.489720e+01
   1.123532e+02   2.465867e+01
   6.165353e+01   9.405680e+01
  -6.859179e+01   1.141419e+02
  -1.555827e+02   6.487418e+01
  -1.208927e+02  -3.690141e+01
   7.795938e+00  -1.406953e+02
   1.339408e+02  -1.692939e+02
   1.732775e+02  -7.578073e+01
   1.117766e+02   8.313796e+01
   1.569908e+01   1.782057e+02
  -3.304309e+01   1.484034e+02
  -2.142745e+01   6.902491e+01
  -1.273867e+01   4.068020e+01
  -5.469153e+01   5.542597e+01
  -1.132250e+02   2.999743e+01
  -1.179972e+02  -5.863796e+01
  -4.815641e+01  -1.265375e+02
   4.420157e+01  -9.290848e+01
   9.116169e+01   1.957920e+01
   6.439814e+01   1.149161e+02
  -2.442287e+01   1.182303e+02
  -1.172690e+02   2.944443e+01
  -1.461867e+02  -7.948852e+01
  -7.788571e+01  -1.463717e+02
   2.807643e+01  -1.328778e+02
   7.937434e+01  -7.792368e+01
   6.602321e+01  -3.253863e+01
   6.997117e+01  -2.704113e+01
   1.349925e+02  -1.571548e+01
   1.983201e+02   3.880593e+01
   1.513863e+02   1.338026e+02
  -1.148373e+01   2.034873e+02
  -1.758540e+02   1.901010e+02
  -2.233076e+02   8.896710e+01
  -1.387163e+02  -4.111135e+01
  -1.325796e+01  -1.180235e+02
   4.594041e+01  -9.654227e+01
   7.781623e+00  -2.048806e+01
  -5.774252e+01   1.988080e+01
  -6.740049e+01  -1.896826e+01
  -6.754989e+00  -7.206886e+01
   5.952105e+01  -5.393687e+01
   5.860665e+01   2.515907e+01
  -9.531735e+00   6.545065e+01
  -7.523831e+01   4.598869e-01
  -6.876751e+01  -1.130006e+02
   1.334154e+01  -1.636465e+02
   1.157389e+02  -9.490500e+01
   1.682452e+02   3.560487e+01
   1.307702e+02   1.315264e+02
   2.852315e+01   1.345431e+02
  -6.339808e+01   6.776297e+01
  -7.623366e+01  -2.453886e-01
  -2.000541e+01  -1.105079e+01
   2.508433e+01   2.569619e+01
   2.214128e+00   5.402984e+01
  -5.553603e+01   3.480625e+01
  -6.937025e+01  -8.816339e+00
  -1.777463e+01  -2.422103e+01
   3.428769e+01   4.987303e+00
   1.428458e+01   4.167897e+01
  -7.116574e+01   3.869728e+01
  -1.415989e+02  -1.371574e+01
  -1.212139e+02  -8.514085e+01
  -1.365011e+01  -1.290527e+02
   1.003863e+02  -1.131792e+02
   1.330597e+02  -4.392437e+01
   7.079418e+01   2.599170e+01
  -1.449026e+01   3.977825e+01
  -3.506787e+01  -3.327668e+00
   2.216288e+01  -3.987616e+01
   8.882216e+01  -1.531773e+01
   9.165362e+01   5.130190e+01
   2.678493e+01   8.942989e+01
  -4.409387e+01   6.245492e+01
  -6.111760e+01   6.565700e+00
  -2.223363e+01  -1.694270e+01
   2.115513e+01   1.060480e+01
   1.399567e+01   5.186244e+01
  -4.585278e+01   5.512632e+01
  -1.007703e+02   5.860376e+00
  -8.718731e+01  -6.350273e+01
  -5.390846e+00  -9.834952e+01
   7.424665e+01  -7.077405e+01
   8.244795e+01  -4.497250e+00
   2.565525e+01   4.493068e+01
  -2.960527e+01   4.451213e+01
  -3.292855e+01   1.085913e+01
  -2.732175e-01  -1.107308e+01
   1.699335e+01  -2.888314e+00
  -5.735117e+00   1.360116e+01
  -4.335519e+01   6.912983e-01
  -5.180396e+01  -4.475175e+01
  -6.967151e+00  -8.595436e+01
   6.681237e+01  -7.496701e+01
   1.145670e+02  -6.366246e+00
   9.384964e+01   7.429138e+01
   1.892522e+01   1.074211e+02
  -4.821781e+01   7.530926e+01
  -6.082749e+01   1.560951e+01
  -3.286779e+01  -1.864251e+01
  -1.527045e+01  -1.248719e+01
  -2.783416e+01   6.698104e+00
  -4.336927e+01   1.425254e+00
  -2.676781e+01  -2.909780e+01
   2.038766e+01  -5.050443e+01
   5.910872e+01  -3.078957e+01
   5.115190e+01   2.289500e+01
  -8.435551e+00   6.189512e+01
  -7.795634e+01   4.223517e+01
  -9.796246e+01  -3.326306e+01
  -4.043784e+01  -1.018592e+02
   5.951735e+01  -1.047883e+02
   1.269701e+02  -3.653819e+01
   1.158959e+02   4.447201e+01
   4.631576e+01   8.042788e+01
  -1.925943e+01   6.313831e+01
  -4.126661e+01   3.624864e+01
  -3.205375e+01   3.355184e+01
  -2.763672e+01   4.652727e+01
  -4.395977e+01   3.873255e+01
  -6.368589e+01  -9.476452e+00
  -5.577987e+01  -7.516903e+01
  -1.024325e+01  -1.087114e+02
   5.020818e+01  -7.869900e+01
   8.193078e+01  -3.423706e+00
   5.959087e+01   6.233921e+01
   3.618570e+00   7.477280e+01
  -3.609160e+01   3.793589e+01
  -2.950536e+01  -6.511542e+00
   1.659126e+00  -2.383994e+01
   1.165740e+01  -1.545760e+01
  -1.389749e+01  -6.043416e+00
  -4.026072e+01  -1.075958e+01
  -2.331809e+01  -2.082090e+01
   3.479234e+01  -1.869256e+01
   8.207156e+01   2.308346e+00
   6.883536e+01   3.092327e+01
   4.275920e-01   4.585692e+01
  -6.324063e+01   3.331166e+01
  -6.877664e+01   1.449576e+00
  -2.039770e+01  -2.390239e+01
   2.952410e+01  -1.948802e+01
   3.755982e+01   1.027653e+01
   8.055662e+00   3.571598e+01
  -2.298517e+01   3.072945e+01
  -3.211666e+01   6.827855e-01
  -2.568831e+01  -2.350524e+01
  -2.219094e+01  -1.931829e+01
  -2.791971e+01  -2.749742e-01
  -3.262421e+01  -1.251526e+00
  -2.122791e+01  -3.526294e+01
   1.408679e+01  -7.280674e+01
   6.066399e+01  -6.856138e+01
   8.583202e+01  -1.491718e+01
   6.138375e+01   4.605516e+01
   3.049282e-01   6.355561e+01
  -4.474624e+01   3.254405e+01
  -3.019817e+01  -6.170886e+00
   2.721092e+01  -1.034827e+01
   6.346955e+01   2.027959e+01
   3.372859e+01   5.141138e+01
  -3.950343e+01   5.148847e+01
  -8.965715e+01   1.933180e+01
  -7.402483e+01  -2.092750e+01
  -1.366141e+01  -4.040820e+01
   3.160032e+01  -2.737899e+01
   2.341860e+01   2.590499e+00
  -2.004448e+01   1.574254e+01
  -4.564375e+01  -9.853390e+00
  -1.974737e+01  -5.660254e+01
   3.849365e+01  -7.505761e+01
   7.615704e+01  -3.307402e+01
   6.022620e+01   4.454203e+01
   6.665415e+00   9.177309e+01
  -3.987496e+01   6.609487e+01
  -4.902699e+01  -6.324233e+00
  -2.511178e+01  -5.747282e+01
   6.492570e+00  -4.876351e+01
   2.397180e+01  -6.412939e+00
   2.089243e+01   1.580657e+01
   7.777853e+00   3.421891e+00
   2.800750e+00  -9.418671e+00
   1.451813e+01   8.433443e+00
   2.804491e+01   4.202451e+01
   1.631164e+01   5.029621e+01
  -2.553120e+01   2.084760e+01
  -6.397655e+01  -1.750171e+01
  -5.807647e+01  -3.295927e+01
  -8.281659e+00  -2.471501e+01
   3.889590e+01  -1.120788e+01
   4.107261e+01  -1.868661e+00
   7.269696e+00   5.509409e+00
  -1.757979e+01   1.007859e+01
  -9.432996e+00   6.197321e+00
   7.748119e+00  -1.943964e+00
  -1.052041e+00  -3.144616e+00
  -3.233377e+01  -1.194905e-01
  -4.483274e+01  -1.067850e+01
  -9.668536e+00  -3.869632e+01
   5.273989e+01  -5.649404e+01
   9.058338e+01  -3.140444e+01
   7.221510e+01   2.885753e+01
   1.426805e+01   7.689428e+01
  -3.886017e+01   7.436178e+01
  -5.537230e+01   3.094984e+01
  -3.804212e+01  -9.807185e+00
  -1.273436e+01  -1.836734e+01
  -1.338922e+00  -5.591554e+00
  -6.676073e+00  -3.193443e+00
  -1.458338e+01  -2.290320e+01
  -8.791651e+00  -4.373881e+01
   1.343536e+01  -3.476855e+01
   3.702617e+01   7.002649e+00
   3.785786e+01   4.862064e+01
   6.460497e+00   5.225816e+01
  -3.576117e+01   1.415855e+01
  -4.998217e+01  -3.196826e+01
  -1.875945e+01  -4.893733e+01
   3.035828e+01  -2.966006e+01
   4.913983e+01   3.931683e+00
   2.171079e+01   2.679430e+01
  -1.566442e+01   2.844434e+01
  -1.841207e+01   1.433406e+01
   1.248615e+01  -1.747107e+00
   3.186002e+01  -3.534777e+00
   7.650332e+00   1.291381e+01
  -3.819804e+01   3.050712e+01
  -5.797278e+01   2.451650e+01
  -3.362516e+01  -8.964753e+00
   7.266167e+00  -4.137222e+01
   2.853289e+01  -3.975785e+01
   2.188735e+01  -5.788757e+00
   3.629998e+00   2.527847e+01
  -1.098782e+01   2.296821e+01
  -1.713179e+01  -4.887092e+00
  -1.351941e+01  -2.534877e+01
   3.433689e-01  -1.823041e+01
   1.585948e+01   2.787346e+00
   2.013650e+01   1.219036e+01
   9.879816e+00   2.232808e+00
  -2.289279e+00  -9.165572e+00
  -3.792107e+00  -3.765906e+00
   1.290788e+00   1.505453e+01
  -8.330640e-01   2.423407e+01
  -1.225200e+01   9.646741e+00
  -1.842792e+01  -1.669310e+01
  -5.071342e+00  -2.783978e+01
   1.929036e+01  -1.141644e+01
   2.932283e+01   1.629535e+01
   8.839332e+00   2.913515e+01
  -2.742270e+01   1.757243e+01
  -4.478610e+01  -5.149056e+00
  -2.479375e+01  -2.074970e+01
   1.358168e+01  -2.231619e+01
   3.164292e+01  -1.366677e+01
   1.410153e+01  -2.798947e+00
  -1.400779e+01   2.146976e+00
  -1.685309e+01  -3.203404e+00
   1.066750e+01  -1.261747e+01
   3.736328e+01  -1.019832e+01
