
 $NMID
 id='ANONYMOUS ', fmtdat='(2E16.6)'
 volume=1.0
 tramp=1.0
 $END
  -2.343084e+03   8.392251e+01
  -1.558787e+03  -1.099585e+03
  -3.065719e+02  -1.491936e+03
   8.390566e+02  -1.143168e+03
   7.942701e+02  -4.111074e+02
   2.056448e+02  -5.236163e+01
  -1.761878e+02  -2.231071e+01
  -8.904462e+01  -3.797850e+02
   2.977602e+02  -5.228579e+02
   4.065868e+02  -1.044223e+02
   3.796125e+02   3.200519e+02
   6.433747e+01   4.448657e+02
  -1.400328e+02   1.794052e+02
  -1.883256e+02  -2.594890e+02
   3.759971e+01  -3.768800e+02
   2.937573e+02  -8.337436e+01
   2.765993e+02   3.489378e+02
  -2.871073e+01   4.624484e+02
  -3.612581e+02   2.903483e+02
  -3.671213e+02  -1.063096e+02
  -1.270506e+02  -3.056663e+02
   8.854276e+01  -1.644428e+02
   1.152330e+01  -6.974932e+01
  -1.741043e+02  -1.826813e+02
  -1.922804e+02  -2.716582e+02
   5.824982e+01  -2.499092e+02
   3.762649e+02  -6.374192e+01
   4.178263e+02   1.771105e+02
   1.120936e+02   2.491644e+02
  -2.661566e+02   6.759253e+01
  -3.560820e+02  -1.497920e+02
  -1.071247e+02  -2.920194e+02
   2.190010e+02  -2.397646e+02
   3.546307e+02  -8.057311e+01
   2.436891e+02   1.110147e+02
   7.681925e+01   1.854720e+02
   4.611224e+01   1.203909e+02
   1.134907e+02  -3.540642e+01
   1.576498e+02  -4.210309e+01
   1.013446e+02   1.733315e+02
  -4.742496e+01   3.812596e+02
  -1.782901e+02   2.861553e+02
  -1.847371e+02  -1.761841e+01
  -6.018803e+01  -1.836923e+02
   8.694343e+01  -4.716677e+01
   7.156920e+01   2.224408e+02
  -1.221251e+02   2.804867e+02
  -3.607379e+02   6.444040e+00
  -3.854204e+02  -3.164944e+02
  -1.237352e+02  -3.949815e+02
   2.358157e+02  -2.065766e+02
   4.070513e+02   3.786263e+01
   2.792957e+02   1.624117e+02
   5.000779e-03   1.493141e+02
  -1.856584e+02   8.604268e+01
  -1.680964e+02   3.355731e+01
  -4.789653e+01   1.145053e+01
   4.943299e+00   1.381201e+01
  -6.778870e+01   1.388550e+01
  -1.514032e+02  -3.503474e+01
  -8.820451e+01  -1.377745e+02
   1.261428e+02  -2.096788e+02
   3.038840e+02  -1.326198e+02
   2.502726e+02   1.006441e+02
  -1.963706e+01   3.272300e+02
  -2.822601e+02   3.477589e+02
  -3.349029e+02   1.303900e+02
  -1.961280e+02  -1.516088e+02
  -4.542616e+01  -2.949248e+02
  -2.617698e+00  -2.598170e+02
  -1.571412e+01  -1.692025e+02
   2.984792e+01  -1.308779e+02
   1.464887e+02  -1.173857e+02
   2.339639e+02  -3.496419e+01
   2.058303e+02   1.189773e+02
   6.921734e+01   2.197858e+02
  -8.384340e+01   1.525084e+02
  -1.590964e+02  -4.874360e+01
  -1.040391e+02  -2.153161e+02
   5.698329e+01  -2.070790e+02
   2.171698e+02  -3.618787e+01
   2.530817e+02   1.544474e+02
   1.367090e+02   2.460372e+02
  -3.289989e+01   2.134411e+02
  -1.251497e+02   1.363063e+02
  -1.232595e+02   9.005799e+01
  -1.472419e+02   7.008810e+01
  -2.609879e+02   2.046719e+01
  -3.559347e+02  -9.649109e+01
  -2.668249e+02  -2.629016e+02
   2.935498e+01  -3.817397e+02
   3.367372e+02  -3.438937e+02
   4.172095e+02  -1.439430e+02
   2.388114e+02   9.396302e+01
   7.527317e+00   2.100227e+02
  -7.363387e+01   1.539022e+02
   1.289817e+01   3.210082e+01
   1.094400e+02  -1.502184e+01
   9.476565e+01   4.471773e+01
  -9.700857e+00   1.079307e+02
  -8.773180e+01   6.823948e+01
  -6.849835e+01  -4.411047e+01
   3.309155e+01  -9.349084e+01
   1.299297e+02   9.585217e+00
   1.280937e+02   1.984768e+02
  -9.540064e+00   2.975973e+02
  -2.082950e+02   1.931486e+02
  -3.191971e+02  -4.560446e+01
  -2.485671e+02  -2.332636e+02
  -4.845005e+01  -2.418169e+02
   1.135318e+02  -1.148395e+02
   1.186865e+02   1.590606e-01
   1.896481e+01   3.571083e+00
  -3.848043e+01  -6.449866e+01
   1.827898e+01  -9.690947e+01
   1.127971e+02  -4.666747e+01
   1.180326e+02   2.894658e+01
   1.528286e+01   4.261859e+01
  -7.469860e+01  -2.032148e+01
  -2.654031e+01  -8.869969e+01
   1.435165e+02  -7.780410e+01
   2.751121e+02   2.917943e+01
   2.219264e+02   1.667948e+02
   5.841926e+00   2.385199e+02
  -1.975216e+02   1.934196e+02
  -2.319473e+02   6.607641e+01
  -1.052832e+02  -4.428902e+01
   3.187911e+01  -5.676619e+01
   4.662431e+01   1.276993e+01
  -5.616792e+01   6.401015e+01
  -1.584827e+02   1.845592e+01
  -1.536384e+02  -9.311616e+01
  -4.284849e+01  -1.579131e+02
   7.524160e+01  -1.106882e+02
   1.020193e+02  -1.032987e+01
   3.190505e+01   3.052544e+01
  -4.248728e+01  -2.730395e+01
  -2.017899e+01  -1.075353e+02
   9.629938e+01  -1.063339e+02
   1.921004e+02  -2.845882e+00
   1.569590e+02   1.253719e+02
   4.406363e+00   1.801367e+02
  -1.348096e+02   1.255395e+02
  -1.459582e+02   1.114973e+01
  -4.531140e+01  -7.393913e+01
   5.108308e+01  -7.659339e+01
   5.617300e+01  -1.965524e+01
  -5.007893e+00   2.179611e+01
  -3.903598e+01   5.812917e+00
   6.159940e+00  -2.846060e+01
   8.293643e+01  -7.715315e+00
   9.774353e+01   8.130838e+01
   7.909701e+00   1.611424e+02
  -1.327270e+02   1.360908e+02
  -2.122616e+02   1.487695e+00
  -1.646068e+02  -1.454694e+02
  -2.916704e+01  -1.985979e+02
   8.676959e+01  -1.369350e+02
   1.120761e+02  -3.003421e+01
   6.824475e+01   3.250604e+01
   3.440972e+01   2.338770e+01
   5.059137e+01  -1.152599e+01
   7.955352e+01  -5.096788e+00
   5.538635e+01   5.336508e+01
  -3.151322e+01   9.997908e+01
  -1.133248e+02   6.499644e+01
  -1.013667e+02  -4.112465e+01
   1.739173e+01  -1.205059e+02
   1.529563e+02  -7.925900e+01
   1.815729e+02   6.537668e+01
   6.397557e+01   1.923763e+02
  -1.184122e+02   1.907210e+02
  -2.328828e+02   6.346160e+01
  -2.061674e+02  -8.202565e+01
  -8.186602e+01  -1.450284e+02
   3.298531e+01  -1.163406e+02
   7.305083e+01  -6.798454e+01
   5.728346e+01  -6.157193e+01
   4.845988e+01  -8.494059e+01
   7.833205e+01  -7.278448e+01
   1.171270e+02   1.390488e+01
   1.057701e+02   1.335765e+02
   2.252170e+01   1.956107e+02
  -8.846277e+01   1.415730e+02
  -1.460511e+02   5.420067e+00
  -1.046978e+02  -1.130069e+02
  -2.094100e+00  -1.351053e+02
   7.117349e+01  -6.665995e+01
   5.784901e+01   1.810705e+01
  -4.899467e+00   5.304390e+01
  -2.936409e+01   3.518710e+01
   1.922886e+01   1.007241e+01
   7.409429e+01   1.368487e+01
   4.464318e+01   3.533358e+01
  -6.865696e+01   3.641282e+01
  -1.590655e+02  -3.623982e+00
  -1.274174e+02  -6.203406e+01
   7.121779e+00  -9.234370e+01
   1.244559e+02  -6.596363e+01
   1.287227e+02  -1.076490e+00
   3.813231e+01   4.944015e+01
  -5.176670e+01   4.224790e+01
  -6.949174e+01  -1.504028e+01
  -2.219373e+01  -6.665358e+01
   3.567755e+01  -6.123434e+01
   6.242883e+01  -4.095130e+00
   5.673166e+01   4.443430e+01
   4.368298e+01   3.839744e+01
   4.516515e+01   6.719625e-01
   5.595181e+01   5.410434e-01
   4.374308e+01   6.509839e+01
  -1.979749e+01   1.376609e+02
  -1.136265e+02   1.315051e+02
  -1.660988e+02   3.086058e+01
  -1.190315e+02  -8.430229e+01
  -1.035884e+00  -1.203091e+02
   8.330581e+01  -6.578067e+01
   5.542013e+01   6.190167e+00
  -5.044623e+01   1.857613e+01
  -1.154066e+02  -3.482402e+01
  -5.919056e+01  -9.262181e+01
   7.504152e+01  -9.492131e+01
   1.650283e+02  -3.601030e+01
   1.343128e+02   3.856145e+01
   2.354693e+01   7.395729e+01
  -5.764230e+01   4.991572e+01
  -4.147382e+01  -4.163828e+00
   3.617772e+01  -2.819680e+01
   8.148551e+01   1.581598e+01
   3.701821e+01   9.921197e+01
  -6.398264e+01   1.361456e+02
  -1.325906e+02   6.524944e+01
  -1.101769e+02  -7.503570e+01
  -1.744302e+01  -1.648670e+02
   6.930307e+01  -1.211596e+02
   9.039678e+01   1.155941e+01
   4.600278e+01   1.059961e+02
  -1.616679e+01   8.888859e+01
  -4.771340e+01   1.131856e+01
  -3.683601e+01  -2.868236e+01
  -1.118695e+01  -6.667676e+00
  -6.967652e+00   1.333078e+01
  -3.158285e+01  -2.113415e+01
  -5.145831e+01  -7.881839e+01
  -2.303719e+01  -8.953724e+01
   5.287574e+01  -3.610117e+01
   1.165928e+02   3.021531e+01
   1.034054e+02   5.823137e+01
   1.698553e+01   4.697323e+01
  -6.537016e+01   2.441694e+01
  -7.322113e+01   5.298689e+00
  -1.806033e+01  -1.053676e+01
   2.741711e+01  -1.790662e+01
   1.864930e+01  -9.087735e+00
  -1.026462e+01   4.177257e+00
   1.218134e+00   3.700280e+00
   5.452192e+01  -2.958719e+00
   8.148031e+01   1.678042e+01
   2.472399e+01   6.952887e+01
  -8.803206e+01   1.050001e+02
  -1.641502e+02   6.385647e+01
  -1.379269e+02  -4.476535e+01
  -3.249809e+01  -1.369623e+02
   6.868419e+01  -1.392648e+02
   1.014079e+02  -6.250029e+01
   7.010363e+01   1.431331e+01
   2.460080e+01   3.382471e+01
   5.351592e+00   1.290878e+01
   1.441056e+01   9.212847e+00
   2.621016e+01   4.456481e+01
   1.487108e+01   8.026608e+01
  -2.446136e+01   6.318972e+01
  -6.745113e+01  -1.035091e+01
  -7.257629e+01  -8.403759e+01
  -1.861578e+01  -9.446068e+01
   6.123023e+01  -3.244807e+01
   9.442520e+01   5.023687e+01
   4.062851e+01   8.928142e+01
  -5.343531e+01   6.193623e+01
  -9.408798e+01  -2.497060e+00
  -4.452732e+01  -5.297880e+01
   2.916858e+01  -5.882196e+01
   3.843445e+01  -2.650008e+01
  -1.956792e+01   8.308752e+00
  -6.020981e+01   1.023673e+01
  -1.939472e+01  -2.474289e+01
   6.666119e+01  -5.899179e+01
   1.077437e+02  -4.732199e+01
   6.662064e+01   1.440761e+01
  -8.956541e+00   7.463479e+01
  -5.113592e+01   7.557288e+01
  -4.182812e+01   1.607473e+01
  -8.540888e+00  -4.342822e+01
   1.938921e+01  -4.492599e+01
   3.242096e+01   4.897681e+00
   2.679755e+01   4.708741e+01
   1.555459e+00   3.862649e+01
  -2.915203e+01  -1.593703e+00
  -3.889966e+01  -2.285718e+01
  -1.951363e+01  -5.084651e+00
   4.398607e+00   2.014034e+01
   5.746546e+00   1.216071e+01
  -8.888542e+00  -2.632116e+01
  -7.490262e+00  -5.016746e+01
   2.005948e+01  -2.647919e+01
   4.128545e+01   2.445125e+01
   1.984626e+01   5.040883e+01
  -3.171948e+01   2.502040e+01
  -5.755343e+01  -2.461824e+01
  -2.013467e+01  -5.030451e+01
   5.014464e+01  -3.271573e+01
   8.345609e+01   6.747039e+00
   4.561830e+01   3.644247e+01
  -2.423049e+01   4.210749e+01
  -5.644110e+01   2.855736e+01
  -2.677488e+01   7.619837e+00
   2.110487e+01  -5.584532e+00
   2.729455e+01   9.563490e-01
  -1.669808e+01   1.976082e+01
  -6.223663e+01   2.017438e+01
