
 $NMID
 id='ANONYMOUS ', fmtdat='(2E16.6)'
 volume=1.0
 tramp=1.0
 $END
   3.193250e+03  -7.060380e+01
   1.870054e+03   1.635232e+03
   7.594454e+01   1.899229e+03
  -1.162139e+03   1.181541e+03
  -8.583481e+02   3.047039e+02
  -1.484347e+02  -1.653636e+02
   3.223656e+02   4.253070e+01
   2.665793e+01   3.818916e+02
  -3.990033e+02   6.157382e+02
  -5.993257e+02  -2.659331e+01
  -3.831347e+02  -4.378105e+02
  -3.149647e+01  -5.773289e+02
   2.584246e+02  -1.915441e+02
   2.455286e+02   3.694231e+02
  -9.798515e+01   4.833746e+02
  -3.515189e+02   6.623336e+01
  -3.365086e+02  -4.449692e+02
   1.099455e+02  -6.077866e+02
   4.624129e+02  -2.875375e+02
   4.282320e+02   1.435723e+02
   1.131197e+02   3.352008e+02
  -8.106657e+01   2.396935e+02
  -3.603984e+01   8.051601e+01
   1.985675e+02   1.020390e+02
   2.551275e+02   2.857194e+02
  -3.545540e+01   3.413254e+02
  -4.462043e+02   1.658136e+02
  -5.351096e+02  -1.469930e+02
  -1.891268e+02  -3.034625e+02
   2.752475e+02  -1.761080e+02
   4.212718e+02   1.143367e+02
   1.544084e+02   3.005490e+02
  -2.361964e+02   3.061441e+02
  -3.966228e+02   1.167687e+02
  -2.808999e+02  -1.353031e+02
  -7.813639e+01  -2.768988e+02
   2.690237e+01  -1.772610e+02
  -5.639645e+01   6.603682e+01
  -1.476714e+02   1.190148e+02
  -1.436249e+02  -1.289371e+02
   4.004148e+00  -4.389183e+02
   2.039964e+02  -3.827143e+02
   2.823307e+02  -3.518705e-01
   1.042987e+02   2.780425e+02
  -1.157402e+02   1.230809e+02
  -1.474881e+02  -2.447452e+02
   9.617446e+01  -3.561157e+02
   3.919169e+02  -6.771307e+01
   4.526332e+02   3.180271e+02
   1.641195e+02   4.446921e+02
  -2.486332e+02   2.520052e+02
  -4.563159e+02  -3.979539e+01
  -3.095966e+02  -2.123651e+02
   2.749557e+01  -2.013966e+02
   2.492467e+02  -8.331752e+01
   1.999727e+02   1.194768e+01
   2.615303e+01   1.444630e+01
  -3.326597e+01  -3.820717e+01
   8.281739e+01  -4.387658e+01
   1.913313e+02   4.425332e+01
   1.078456e+02   1.633990e+02
  -1.289832e+02   2.124451e+02
  -2.997020e+02   1.234590e+02
  -2.360193e+02  -8.367488e+01
   1.703674e+01  -2.932026e+02
   2.634784e+02  -3.384630e+02
   3.309650e+02  -1.510471e+02
   2.165539e+02   1.451900e+02
   5.391476e+01   3.253289e+02
  -2.421639e+01   2.921844e+02
  -2.181962e+01   1.634329e+02
  -3.857953e+01   9.953040e+01
  -1.303217e+02   1.036221e+02
  -2.242053e+02   4.691356e+01
  -2.141336e+02  -1.059051e+02
  -8.270260e+01  -2.285610e+02
   8.273663e+01  -1.730123e+02
   1.711598e+02   3.958487e+01
   1.185079e+02   2.272578e+02
  -5.226605e+01   2.298994e+02
  -2.344511e+02   5.041587e+01
  -2.782590e+02  -1.683580e+02
  -1.432384e+02  -2.730320e+02
   5.085277e+01  -2.334308e+02
   1.460940e+02  -1.358689e+02
   1.293405e+02  -8.076336e+01
   1.340118e+02  -7.000397e+01
   2.549096e+02  -3.152962e+01
   3.758141e+02   9.481516e+01
   2.920036e+02   2.719904e+02
  -2.008563e+01   3.928687e+02
  -3.450802e+02   3.553689e+02
  -4.359241e+02   1.572945e+02
  -2.612804e+02  -8.872915e+01
  -1.600731e+01  -2.233586e+02
   8.370977e+01  -1.756882e+02
   8.513500e+00  -3.501917e+01
  -1.065723e+02   2.977547e+01
  -1.132518e+02  -3.708840e+01
  -4.200798e+00  -1.224914e+02
   1.011571e+02  -8.856112e+01
   9.293137e+01   4.799916e+01
  -2.787939e+01   1.137957e+02
  -1.429953e+02  -1.464604e+00
  -1.371542e+02  -2.081371e+02
   1.513926e+01  -3.082427e+02
   2.179930e+02  -1.943477e+02
   3.261315e+02   5.152024e+01
   2.535231e+02   2.405759e+02
   5.271009e+01   2.538934e+02
  -1.176450e+02   1.273388e+02
  -1.342289e+02   4.211314e+00
  -3.063752e+01  -1.064409e+01
   4.229984e+01   5.863230e+01
  -1.006144e+01   1.010237e+02
  -1.161436e+02   5.461974e+01
  -1.325110e+02  -2.803441e+01
  -2.688248e+01  -5.063417e+01
   7.693612e+01   9.831800e+00
   3.904408e+01   8.220596e+01
  -1.308727e+02   7.915745e+01
  -2.733109e+02  -1.761611e+01
  -2.361196e+02  -1.520664e+02
  -2.694236e+01  -2.370668e+02
   1.886147e+02  -2.108573e+02
   2.430191e+02  -8.743975e+01
   1.228552e+02   3.893484e+01
  -2.697246e+01   6.669217e+01
  -5.529167e+01  -5.661178e+00
   5.031981e+01  -6.979984e+01
   1.659451e+02  -2.690129e+01
   1.666302e+02   9.400649e+01
   4.885145e+01   1.679513e+02
  -7.987131e+01   1.215394e+02
  -1.124290e+02   1.417855e+01
  -4.112298e+01  -3.532368e+01
   3.886920e+01   1.682037e+01
   2.470503e+01   9.900254e+01
  -8.806586e+01   1.079406e+02
  -1.901360e+02   1.168890e+01
  -1.621297e+02  -1.214820e+02
  -8.335545e+00  -1.876443e+02
   1.388815e+02  -1.358978e+02
   1.557520e+02  -1.210852e+01
   5.067482e+01   8.336809e+01
  -5.350096e+01   8.614149e+01
  -6.317942e+01   2.436391e+01
  -1.615262e+00  -2.162231e+01
   3.464952e+01  -8.775855e+00
  -6.312331e+00   2.269005e+01
  -8.116146e+01   2.482004e+00
  -9.782900e+01  -8.341964e+01
  -1.030549e+01  -1.614730e+02
   1.317760e+02  -1.404933e+02
   2.186967e+02  -7.948387e+00
   1.756101e+02   1.449069e+02
   3.524009e+01   2.067192e+02
  -9.055881e+01   1.451219e+02
  -1.175890e+02   3.087826e+01
  -6.953328e+01  -3.864997e+01
  -3.054196e+01  -2.798571e+01
  -4.758270e+01   1.137531e+01
  -7.803426e+01   8.287114e+00
  -5.391860e+01  -4.900955e+01
   3.389985e+01  -9.799094e+01
   1.140351e+02  -6.570614e+01
   1.021075e+02   3.717536e+01
  -1.348552e+01   1.193289e+02
  -1.501441e+02   8.646114e+01
  -1.865475e+02  -5.542458e+01
  -7.474743e+01  -1.917172e+02
   1.134431e+02  -1.998750e+02
   2.388149e+02  -7.426966e+01
   2.171879e+02   8.062888e+01
   8.872943e+01   1.520259e+02
  -3.458416e+01   1.245028e+02
  -7.914781e+01   7.075603e+01
  -6.262624e+01   6.162775e+01
  -5.130970e+01   8.497505e+01
  -7.953858e+01   7.354734e+01
  -1.181293e+02  -1.402744e+01
  -1.086370e+02  -1.375136e+02
  -2.536497e+01  -2.036463e+02
   8.965674e+01  -1.508584e+02
   1.532615e+02  -1.069315e+01
   1.140286e+02   1.150638e+02
   8.392557e+00   1.416572e+02
  -6.879275e+01   7.329739e+01
  -5.789755e+01  -1.362804e+01
   3.627209e+00  -5.029752e+01
   2.640177e+01  -3.384433e+01
  -2.248643e+01  -1.002642e+01
  -7.674611e+01  -1.323881e+01
  -4.725358e+01  -3.379557e+01
   6.555047e+01  -3.544038e+01
   1.584587e+02   1.322441e+00
   1.312917e+02   5.747897e+01
  -1.585901e+00   8.947532e+01
  -1.232297e+02   6.808710e+01
  -1.324430e+02   5.836058e+00
  -4.093975e+01  -4.572966e+01
   5.322199e+01  -4.143272e+01
   7.119375e+01   1.458431e+01
   1.959547e+01   6.732508e+01
  -4.002321e+01   6.235942e+01
  -6.378702e+01   4.373185e+00
  -5.571267e+01  -4.613054e+01
  -4.520950e+01  -4.120872e+01
  -4.905315e+01  -2.929038e+00
  -5.770756e+01  -1.283757e+00
  -4.068291e+01  -6.589196e+01
   2.405326e+01  -1.387573e+02
   1.153040e+02  -1.325882e+02
   1.659916e+02  -3.070241e+01
   1.198799e+02   8.635727e+01
   1.580886e+00   1.226953e+02
  -8.536270e+01   6.591241e+01
  -5.844537e+01  -7.533274e+00
   5.088278e+01  -1.931648e+01
   1.199289e+02   3.493605e+01
   6.399029e+01   9.398808e+01
  -7.460712e+01   9.833496e+01
  -1.702288e+02   4.068719e+01
  -1.414010e+02  -3.583797e+01
  -2.764213e+01  -7.615905e+01
   5.833364e+01  -5.487829e+01
   4.423831e+01   6.645339e-01
  -3.623101e+01   2.829550e+01
  -8.482517e+01  -1.562127e+01
  -3.842033e+01  -1.022573e+02
   6.807871e+01  -1.409055e+02
   1.402030e+02  -6.707607e+01
   1.147719e+02   7.839136e+01
   1.689209e+01   1.714765e+02
  -7.288962e+01   1.270465e+02
  -9.382256e+01  -9.673240e+00
  -4.937056e+01  -1.085248e+02
   1.339501e+01  -9.303736e+01
   4.781040e+01  -1.354222e+01
   4.045682e+01   2.899436e+01
   1.394374e+01   6.911816e+00
   5.226051e+00  -1.483659e+01
   2.858248e+01   2.004718e+01
   5.301085e+01   8.083824e+01
   2.876931e+01   9.406563e+01
  -5.083676e+01   3.880351e+01
  -1.225956e+02  -3.163773e+01
  -1.117669e+02  -6.134808e+01
  -1.917558e+01  -4.908194e+01
   7.034899e+01  -2.562278e+01
   7.841737e+01  -6.303432e+00
   1.842726e+01   1.046230e+01
  -2.916852e+01   1.877122e+01
  -1.852696e+01   1.029298e+01
   1.166632e+01  -4.340446e+00
  -2.144191e+00  -4.199214e+00
  -5.766150e+01   2.860729e+00
  -8.323352e+01  -1.771983e+01
  -2.233575e+01  -7.257216e+01
   9.293446e+01  -1.085134e+02
   1.684226e+02  -6.391934e+01
   1.400134e+02   4.870385e+01
   3.251884e+01   1.420490e+02
  -7.008290e+01   1.419861e+02
  -1.042525e+02   6.268601e+01
  -7.275859e+01  -1.513854e+01
  -2.487249e+01  -3.440895e+01
  -3.810673e+00  -1.290907e+01
  -1.357998e+01  -8.577429e+00
  -2.732196e+01  -4.479712e+01
  -1.640364e+01  -8.238393e+01
   2.537275e+01  -6.530061e+01
   7.073179e+01   1.187851e+01
   7.485287e+01   8.901935e+01
   1.700625e+01   9.869444e+01
  -6.556374e+01   3.170727e+01
  -9.716748e+01  -5.460358e+01
  -3.941115e+01  -9.226712e+01
   5.637867e+01  -6.092172e+01
   9.519445e+01   4.453287e+00
   4.329979e+01   5.349076e+01
  -3.051549e+01   5.849032e+01
  -3.710344e+01   2.674122e+01
   2.267284e+01  -8.016165e+00
   6.198390e+01  -1.053916e+01
   1.822035e+01   2.511564e+01
  -6.868678e+01   6.181300e+01
  -1.087893e+02   5.038645e+01
  -6.610299e+01  -1.404940e+01
   9.586476e+00  -7.678688e+01
   5.119235e+01  -7.653672e+01
   4.154601e+01  -1.389842e+01
   7.993180e+00   4.598484e+01
  -2.081689e+01   4.499191e+01
  -3.435368e+01  -7.024455e+00
  -2.722062e+01  -4.831030e+01
   1.518178e-01  -3.789422e+01
   3.102962e+01   2.794250e+00
   3.892868e+01   2.327329e+01
   1.862710e+01   5.544936e+00
  -4.821090e+00  -1.845966e+01
  -6.545665e+00  -9.553634e+00
   5.669863e+00   2.752562e+01
   2.273235e+00   4.885519e+01
  -2.329916e+01   2.280223e+01
  -3.984009e+01  -2.904349e+01
  -1.591229e+01  -5.392233e+01
   3.499648e+01  -2.590524e+01
   5.856390e+01   2.646240e+01
   2.027512e+01   5.329457e+01
  -5.085550e+01   3.457993e+01
  -8.532332e+01  -6.877472e+00
  -4.736928e+01  -3.761977e+01
   2.472836e+01  -4.323892e+01
   5.847898e+01  -2.886106e+01
   2.688314e+01  -7.372379e+00
  -2.400590e+01   5.291025e+00
  -2.965265e+01  -2.661960e+00
   1.884613e+01  -2.227221e+01
   6.749697e+01  -2.145060e+01
