
 $NMID
 id='ANONYMOUS ', fmtdat='(2E16.6)'
 volume=1.0
 tramp=1.0
 $END
  -2.384996e+03  -1.528972e+02
  -1.600105e+03  -9.500259e+02
  -1.745927e+02  -1.528843e+03
   8.457623e+02  -1.059377e+03
   6.603334e+02  -3.996576e+02
   2.030871e+02   5.878045e+01
  -1.907550e+02   5.432449e+00
  -9.143237e+01  -3.296326e+02
   2.875448e+02  -3.988285e+02
   3.867178e+02  -1.955778e+02
   3.359814e+02   3.398788e+02
   2.867680e+01   5.100318e+02
  -9.882890e+01   2.284603e+02
  -1.287284e+02  -2.778571e+02
   2.553944e+01  -3.892168e+02
   2.180340e+02  -9.355411e+01
   2.087289e+02   3.695109e+02
  -4.841340e+01   5.106648e+02
  -3.526270e+02   3.204612e+02
  -3.544150e+02  -4.511709e+01
  -1.240440e+02  -2.614797e+02
   7.916771e+01  -2.056962e+02
   2.494887e+01  -1.047669e+02
  -1.772586e+02  -1.690195e+02
  -1.932712e+02  -2.756920e+02
   8.988872e+01  -2.604641e+02
   3.820213e+02  -5.122690e+01
   4.228817e+02   1.574904e+02
   1.468802e+02   2.384516e+02
  -2.282012e+02   9.843206e+01
  -3.428060e+02  -1.277936e+02
  -1.162193e+02  -2.852308e+02
   2.098654e+02  -2.481082e+02
   3.404725e+02  -9.509216e+01
   2.447917e+02   1.020600e+02
   9.048605e+01   2.056093e+02
   5.037040e+01   1.258449e+02
   1.114965e+02  -3.159207e+01
   1.552860e+02  -5.022099e+01
   8.846939e+01   1.382436e+02
  -4.098529e+01   3.458708e+02
  -1.687074e+02   2.944066e+02
  -1.757586e+02   2.068502e+01
  -5.347421e+01  -1.742475e+02
   8.645350e+01  -6.062832e+01
   7.871970e+01   2.019805e+02
  -1.075934e+02   2.773720e+02
  -3.369331e+02   2.651260e+01
  -3.758296e+02  -2.898537e+02
  -1.381007e+02  -3.756688e+02
   2.113577e+02  -1.967812e+02
   3.905863e+02   3.482582e+01
   2.731189e+02   1.516034e+02
   1.042176e+00   1.379661e+02
  -1.835627e+02   8.371327e+01
  -1.680017e+02   3.559162e+01
  -4.745004e+01   8.789785e+00
   6.354912e+00   3.423321e+00
  -6.263442e+01   3.236348e+00
  -1.452961e+02  -3.550131e+01
  -9.048716e+01  -1.283607e+02
   1.116365e+02  -1.995192e+02
   2.869352e+02  -1.342025e+02
   2.440788e+02   8.155249e+01
  -8.861281e+00   2.978546e+02
  -2.590828e+02   3.225126e+02
  -3.113631e+02   1.198271e+02
  -1.802865e+02  -1.451024e+02
  -3.738645e+01  -2.776680e+02
   2.800014e+00  -2.417672e+02
  -8.735593e+00  -1.558278e+02
   3.569961e+01  -1.199024e+02
   1.451492e+02  -1.042595e+02
   2.207088e+02  -2.460061e+01
   1.822927e+02   1.183671e+02
   4.977549e+01   2.074135e+02
  -8.489743e+01   1.408981e+02
  -1.430685e+02  -4.915070e+01
  -9.121865e+01  -2.043409e+02
   4.969578e+01  -1.962997e+02
   1.971156e+02  -3.475847e+01
   2.406638e+02   1.486938e+02
   1.386133e+02   2.377577e+02
  -2.310262e+01   2.096045e+02
  -1.180314e+02   1.366951e+02
  -1.202810e+02   9.252790e+01
  -1.397963e+02   7.681553e+01
  -2.538405e+02   2.982700e+01
  -3.566034e+02  -9.131672e+01
  -2.710038e+02  -2.607146e+02
   2.571795e+01  -3.713972e+02
   3.273764e+02  -3.322962e+02
   4.036718e+02  -1.416298e+02
   2.291446e+02   8.459482e+01
   6.824756e+00   1.968201e+02
  -6.719907e+01   1.481491e+02
   1.465672e+01   3.302496e+01
   1.014681e+02  -1.326628e+01
   8.628566e+01   4.081769e+01
  -8.343642e+00   1.017436e+02
  -8.238197e+01   6.567664e+01
  -6.598272e+01  -4.389629e+01
   2.975661e+01  -9.459312e+01
   1.246234e+02   5.929503e+00
   1.257630e+02   1.888782e+02
  -6.297359e+00   2.858893e+02
  -2.004285e+02   1.857068e+02
  -3.099771e+02  -4.492600e+01
  -2.371936e+02  -2.271368e+02
  -4.076459e+01  -2.367831e+02
   1.143293e+02  -1.131172e+02
   1.172562e+02   1.092806e+00
   1.976175e+01   8.324104e+00
  -3.733447e+01  -5.815763e+01
   1.578231e+01  -9.280850e+01
   1.058254e+02  -4.622391e+01
   1.131721e+02   2.709074e+01
   1.668376e+01   4.141143e+01
  -7.144714e+01  -1.921064e+01
  -2.865088e+01  -8.553067e+01
   1.326864e+02  -7.689381e+01
   2.623485e+02   2.197467e+01
   2.180372e+02   1.519758e+02
   1.549333e+01   2.248303e+02
  -1.809192e+02   1.885382e+02
  -2.195550e+02   7.065928e+01
  -1.034608e+02  -3.644277e+01
   2.732369e+01  -5.236078e+01
   4.463609e+01   1.296498e+01
  -5.187964e+01   6.306735e+01
  -1.516405e+02   1.847356e+01
  -1.500499e+02  -9.085228e+01
  -4.468809e+01  -1.539782e+02
   7.065783e+01  -1.072154e+02
   9.906166e+01  -8.644011e+00
   3.249032e+01   3.094684e+01
  -3.928704e+01  -2.603273e+01
  -1.887069e+01  -1.051262e+02
   9.251302e+01  -1.053715e+02
   1.846212e+02  -5.743464e+00
   1.512482e+02   1.198396e+02
   5.375393e+00   1.747539e+02
  -1.277177e+02   1.232537e+02
  -1.385081e+02   1.229165e+01
  -4.221264e+01  -7.092946e+01
   4.938538e+01  -7.326293e+01
   5.325037e+01  -1.844858e+01
  -5.718048e+00   2.100718e+01
  -3.821693e+01   4.430437e+00
   5.449536e+00  -2.824175e+01
   8.083661e+01  -5.904256e+00
   9.657146e+01   8.144417e+01
   9.907121e+00   1.569702e+02
  -1.263314e+02   1.312825e+02
  -2.057426e+02   2.522487e+00
  -1.620489e+02  -1.386182e+02
  -3.074062e+01  -1.900560e+02
   8.238123e+01  -1.311991e+02
   1.072312e+02  -2.881311e+01
   6.479038e+01   3.151469e+01
   3.256402e+01   2.192970e+01
   4.954109e+01  -1.242534e+01
   7.786495e+01  -5.806581e+00
   5.304200e+01   5.250928e+01
  -3.377116e+01   9.981956e+01
  -1.134966e+02   6.593984e+01
  -1.007680e+02  -3.997116e+01
   1.427084e+01  -1.192017e+02
   1.452966e+02  -8.121229e+01
   1.750927e+02   5.960160e+01
   6.412611e+01   1.841803e+02
  -1.124662e+02   1.829645e+02
  -2.234882e+02   5.989404e+01
  -1.981599e+02  -7.952704e+01
  -7.753790e+01  -1.385867e+02
   3.391384e+01  -1.101325e+02
   7.202696e+01  -6.399113e+01
   5.485503e+01  -5.801107e+01
   4.523983e+01  -8.078697e+01
   7.449094e+01  -6.919886e+01
   1.120298e+02   1.385179e+01
   1.013660e+02   1.293568e+02
   2.119432e+01   1.898786e+02
  -8.635262e+01   1.383126e+02
  -1.425437e+02   6.225832e+00
  -1.034686e+02  -1.096372e+02
  -4.434115e+00  -1.316584e+02
   6.650629e+01  -6.493191e+01
   5.443967e+01   1.719085e+01
  -5.933890e+00   4.952757e+01
  -2.876959e+01   3.075269e+01
   1.924222e+01   6.996042e+00
   7.330160e+01   1.233567e+01
   4.509619e+01   3.471136e+01
  -6.515314e+01   3.583844e+01
  -1.534035e+02  -2.695265e+00
  -1.227595e+02  -5.833294e+01
   6.809295e+00  -8.748957e+01
   1.191676e+02  -6.330739e+01
   1.229317e+02  -1.687948e+00
   3.656193e+01   4.725512e+01
  -4.936842e+01   4.145017e+01
  -6.654616e+01  -1.389300e+01
  -2.166758e+01  -6.503145e+01
   3.427216e+01  -6.011189e+01
   6.109022e+01  -3.930933e+00
   5.622815e+01   4.424020e+01
   4.293969e+01   3.871738e+01
   4.335979e+01   2.133581e+00
   5.338027e+01   1.382002e+00
   4.148407e+01   6.349878e+01
  -2.053121e+01   1.331416e+02
  -1.118190e+02   1.269389e+02
  -1.622206e+02   2.953788e+01
  -1.156762e+02  -8.266329e+01
  -1.668368e-01  -1.183848e+02
   8.193670e+01  -6.471646e+01
   5.451731e+01   6.521133e+00
  -4.789876e+01   1.944478e+01
  -1.107705e+02  -3.187961e+01
  -5.742839e+01  -8.860984e+01
   7.126202e+01  -9.154624e+01
   1.576333e+02  -3.468264e+01
   1.285755e+02   3.737968e+01
   2.259783e+01   7.188120e+01
  -5.539883e+01   4.815526e+01
  -4.054539e+01  -5.238961e+00
   3.476612e+01  -2.932753e+01
   7.949460e+01   1.395981e+01
   3.755143e+01   9.706438e+01
  -6.057603e+01   1.354328e+02
  -1.287060e+02   6.595514e+01
  -1.089085e+02  -7.280690e+01
  -2.001571e+01  -1.618877e+02
   6.515218e+01  -1.190360e+02
   8.795327e+01   1.092732e+01
   4.645542e+01   1.025019e+02
  -1.386283e+01   8.523996e+01
  -4.556481e+01   1.047521e+01
  -3.615283e+01  -2.667408e+01
  -1.145236e+01  -4.765132e+00
  -6.936803e+00   1.356249e+01
  -3.108004e+01  -2.075014e+01
  -5.072521e+01  -7.659285e+01
  -2.284469e+01  -8.676997e+01
   5.174092e+01  -3.565522e+01
   1.136727e+02   2.818787e+01
   1.005494e+02   5.595449e+01
   1.647562e+01   4.663081e+01
  -6.379926e+01   2.499783e+01
  -7.180666e+01   5.254276e+00
  -1.819228e+01  -1.132698e+01
   2.664968e+01  -1.797765e+01
   1.936724e+01  -8.764148e+00
  -8.730564e+00   4.452673e+00
   9.946997e-01   3.583938e+00
   5.140904e+01  -2.989074e+00
   7.800260e+01   1.690854e+01
   2.463189e+01   6.848431e+01
  -8.433289e+01   1.023688e+02
  -1.593176e+02   6.203628e+01
  -1.353639e+02  -4.359742e+01
  -3.282285e+01  -1.337116e+02
   6.661733e+01  -1.362560e+02
   9.954026e+01  -6.174090e+01
   6.919860e+01   1.401088e+01
   2.463930e+01   3.406177e+01
   5.685458e+00   1.409385e+01
   1.412681e+01   9.217701e+00
   2.525482e+01   4.247694e+01
   1.412907e+01   7.740768e+01
  -2.381665e+01   6.208903e+01
  -6.562854e+01  -8.395603e+00
  -7.162148e+01  -8.026580e+01
  -1.960297e+01  -9.193860e+01
   5.896350e+01  -3.300565e+01
   9.219192e+01   4.728428e+01
   4.010896e+01   8.614548e+01
  -5.187835e+01   6.041562e+01
  -9.224922e+01  -2.046924e+00
  -4.418051e+01  -5.218698e+01
   2.841960e+01  -5.850419e+01
   3.866291e+01  -2.690805e+01
  -1.651083e+01   7.810009e+00
  -5.589403e+01   1.069907e+01
  -1.766699e+01  -2.234865e+01
   6.413226e+01  -5.551474e+01
   1.029961e+02  -4.422458e+01
   6.306579e+01   1.498172e+01
  -9.581285e+00   7.252999e+01
  -5.012496e+01   7.253349e+01
  -4.115010e+01   1.434860e+01
  -8.786457e+00  -4.333326e+01
   1.923560e+01  -4.456224e+01
   3.248951e+01   4.540840e+00
   2.663854e+01   4.647293e+01
   8.507821e-01   3.889746e+01
  -2.957524e+01  -8.714561e-01
  -3.818975e+01  -2.302372e+01
  -1.840961e+01  -6.313497e+00
   5.349026e+00   1.885221e+01
   6.089060e+00   1.234395e+01
  -9.023700e+00  -2.452208e+01
  -7.959455e+00  -4.826306e+01
   1.933780e+01  -2.586510e+01
   4.039931e+01   2.377669e+01
   1.932046e+01   4.923217e+01
  -3.164932e+01   2.472094e+01
  -5.698785e+01  -2.377449e+01
  -2.026167e+01  -4.989875e+01
   4.885386e+01  -3.356210e+01
   8.209284e+01   5.041324e+00
   4.569228e+01   3.519354e+01
  -2.226973e+01   4.254289e+01
  -5.457239e+01   2.974256e+01
  -2.713542e+01   8.179120e+00
   1.864298e+01  -5.821484e+00
   2.566520e+01   2.258602e-01
  -1.556569e+01   1.911358e+01
  -5.936021e+01   1.978328e+01
