
 $NMID
 id='ANONYMOUS ', fmtdat='(2E16.6)'
 volume=1.0
 tramp=1.0
 $END
   3.094537e+03   2.565284e+02
   2.190029e+03   1.546404e+03
   2.893838e+02   2.044185e+03
  -1.151118e+03   1.565262e+03
  -1.067143e+03   5.930265e+02
  -3.054355e+02  -9.468141e+01
   2.098519e+02  -3.909201e+01
   5.487486e+01   4.004772e+02
  -3.659133e+02   6.024868e+02
  -6.611631e+02   1.555730e+02
  -3.728614e+02  -4.435269e+02
  -6.317362e+01  -6.644129e+02
   1.978644e+02  -1.802630e+02
   2.663888e+02   3.790308e+02
  -5.743070e+01   5.482733e+02
  -3.269187e+02   1.331916e+02
  -3.541304e+02  -4.426575e+02
   9.893437e+01  -6.994498e+02
   5.087917e+02  -3.394465e+02
   5.519796e+02   1.229331e+02
   2.227643e+02   3.405207e+02
  -7.480436e+01   2.678031e+02
  -4.765457e+01   1.383645e+02
   2.381152e+02   1.831047e+02
   3.095150e+02   3.464208e+02
  -6.439652e+01   3.804951e+02
  -5.235312e+02   1.353832e+02
  -6.079294e+02  -1.820262e+02
  -1.830555e+02  -3.076206e+02
   3.367201e+02  -1.741328e+02
   4.735068e+02   1.541699e+02
   1.608556e+02   3.543864e+02
  -2.675530e+02   3.757257e+02
  -4.412510e+02   1.524802e+02
  -3.368519e+02  -1.540444e+02
  -1.288738e+02  -3.118584e+02
  -3.412228e+01  -1.852626e+02
  -9.403428e+01   6.786321e+01
  -1.661492e+02   1.084501e+02
  -1.218412e+02  -1.653651e+02
   3.230551e+01  -4.785706e+02
   2.191165e+02  -4.130741e+02
   2.696303e+02  -3.577173e+01
   1.097584e+02   2.555232e+02
  -1.037198e+02   1.024729e+02
  -1.250910e+02  -2.634130e+02
   1.327408e+02  -3.744326e+02
   4.503125e+02  -7.257620e+01
   5.239904e+02   3.526044e+02
   2.092618e+02   4.984699e+02
  -2.642568e+02   2.863004e+02
  -5.296701e+02  -3.200279e+01
  -3.844136e+02  -2.065783e+02
  -9.096913e-01  -2.011966e+02
   2.723293e+02  -1.104236e+02
   2.502945e+02  -3.289449e+01
   5.915806e+01  -2.703193e+00
  -3.249130e+01  -1.677454e+01
   7.528616e+01  -2.447272e+01
   2.112153e+02   4.195248e+01
   1.415483e+02   1.829728e+02
  -1.401689e+02   2.792681e+02
  -3.792054e+02   1.845418e+02
  -3.236442e+02  -1.053859e+02
   3.547915e+00  -3.925865e+02
   3.262408e+02  -4.354871e+02
   4.035357e+02  -1.805758e+02
   2.512138e+02   1.750191e+02
   7.156183e+01   3.734606e+02
   6.777612e+00   3.402835e+02
   8.613080e+00   2.150328e+02
  -4.632281e+01   1.511663e+02
  -1.797655e+02   1.364546e+02
  -2.857002e+02   4.909803e+01
  -2.552488e+02  -1.346030e+02
  -9.430380e+01  -2.706948e+02
   9.744957e+01  -1.989700e+02
   2.023073e+02   4.986542e+01
   1.435057e+02   2.695543e+02
  -5.503238e+01   2.707059e+02
  -2.713252e+02   6.183847e+01
  -3.320136e+02  -1.898001e+02
  -1.857739e+02  -3.100078e+02
   3.906652e+01  -2.777543e+02
   1.621989e+02  -1.829812e+02
   1.594116e+02  -1.203503e+02
   1.793736e+02  -9.478102e+01
   3.255061e+02  -3.826235e+01
   4.652676e+02   1.142126e+02
   3.610331e+02   3.325370e+02
  -2.279386e+01   4.852484e+02
  -4.199188e+02   4.460633e+02
  -5.253820e+02   2.010689e+02
  -3.108310e+02  -1.028736e+02
  -2.182201e+01  -2.639610e+02
   8.007522e+01  -2.070438e+02
  -1.149857e+01  -4.814037e+01
  -1.281465e+02   2.117391e+01
  -1.203387e+02  -5.074066e+01
   7.767962e-01  -1.397145e+02
   1.099790e+02  -9.772650e+01
   1.025615e+02   5.111704e+01
  -2.455212e+01   1.246552e+02
  -1.634123e+02  -4.174347e+00
  -1.762622e+02  -2.460697e+02
  -8.432066e-01  -3.754941e+02
   2.620430e+02  -2.484351e+02
   4.147690e+02   5.008544e+01
   3.240160e+02   2.893624e+02
   6.494015e+01   3.076999e+02
  -1.446644e+02   1.523895e+02
  -1.556605e+02   6.665248e+00
  -2.805436e+01  -4.944724e+00
   5.156446e+01   7.910251e+01
  -1.579475e+01   1.242153e+02
  -1.383145e+02   6.630376e+01
  -1.530883e+02  -2.982754e+01
  -2.858893e+01  -5.330800e+01
   8.931668e+01   2.119001e+01
   3.715649e+01   1.079128e+02
  -1.735409e+02   1.015942e+02
  -3.453922e+02  -2.403111e+01
  -2.908584e+02  -1.965737e+02
  -2.568724e+01  -2.997082e+02
   2.369389e+02  -2.591250e+02
   2.942052e+02  -1.038990e+02
   1.436867e+02   4.581262e+01
  -3.343257e+01   7.588263e+01
  -6.121323e+01  -8.426830e+00
   6.532555e+01  -8.175559e+01
   2.011642e+02  -3.140799e+01
   2.032173e+02   1.093582e+02
   6.533057e+01   1.975434e+02
  -8.899497e+01   1.447668e+02
  -1.294794e+02   2.013489e+01
  -4.302680e+01  -3.339407e+01
   5.256555e+01   3.539459e+01
   2.766462e+01   1.351188e+02
  -1.179965e+02   1.376470e+02
  -2.429860e+02   1.177997e+01
  -2.040908e+02  -1.514811e+02
  -1.398728e+01  -2.287206e+02
   1.640845e+02  -1.674221e+02
   1.848996e+02  -2.349716e+01
   6.251948e+01   9.060412e+01
  -5.846466e+01   1.002462e+02
  -6.867873e+01   3.197791e+01
   3.752130e+00  -2.225054e+01
   4.476811e+01  -7.390723e+00
  -1.034221e+01   3.162510e+01
  -1.059132e+02   5.164100e+00
  -1.258937e+02  -1.055067e+02
  -1.356939e+01  -2.044479e+02
   1.646810e+02  -1.757600e+02
   2.708629e+02  -1.009476e+01
   2.174645e+02   1.773527e+02
   4.889249e+01   2.508198e+02
  -1.027861e+02   1.769341e+02
  -1.399197e+02   4.264046e+01
  -8.847869e+01  -3.922029e+01
  -4.366536e+01  -2.701304e+01
  -6.317146e+01   1.770451e+01
  -1.006605e+02   9.696210e+00
  -7.058096e+01  -6.686372e+01
   4.144585e+01  -1.292794e+02
   1.469696e+02  -8.552007e+01
   1.324781e+02   5.148277e+01
  -1.855756e+01   1.555836e+02
  -1.941249e+02   1.076721e+02
  -2.368521e+02  -7.574169e+01
  -9.173584e+01  -2.431445e+02
   1.457671e+02  -2.490838e+02
   2.972433e+02  -9.218308e+01
   2.681708e+02   9.494564e+01
   1.104641e+02   1.811646e+02
  -3.879544e+01   1.517690e+02
  -9.147091e+01   9.153137e+01
  -7.108248e+01   8.184001e+01
  -5.966255e+01   1.100333e+02
  -9.896310e+01   9.535726e+01
  -1.497900e+02  -1.404306e+01
  -1.389560e+02  -1.683669e+02
  -3.466556e+01  -2.508119e+02
   1.075840e+02  -1.854901e+02
   1.861729e+02  -1.299994e+01
   1.385577e+02   1.402134e+02
   9.441177e+00   1.711891e+02
  -8.460093e+01   8.646160e+01
  -6.961577e+01  -2.058904e+01
   7.986822e+00  -6.453875e+01
   3.573767e+01  -4.135723e+01
  -2.817134e+01  -9.325060e+00
  -9.804053e+01  -1.429032e+01
  -5.910907e+01  -4.351614e+01
   8.542374e+01  -4.782488e+01
   2.011835e+02  -5.392246e-01
   1.629223e+02   7.192043e+01
  -5.307973e+00   1.128888e+02
  -1.537255e+02   8.516231e+01
  -1.614698e+02   6.898736e+00
  -4.896095e+01  -5.782062e+01
   6.504303e+01  -5.254665e+01
   8.845478e+01   1.788113e+01
   2.829185e+01   8.468522e+01
  -4.619446e+01   7.940469e+01
  -8.127251e+01   7.023606e+00
  -7.432258e+01  -5.633415e+01
  -5.817356e+01  -4.939056e+01
  -5.971689e+01  -1.649985e+00
  -7.340796e+01  -9.814641e-01
  -5.687281e+01  -8.436799e+01
   2.418465e+01  -1.776402e+02
   1.437380e+02  -1.709137e+02
   2.115889e+02  -4.311202e+01
   1.536634e+02   1.044572e+02
   3.807968e+00   1.530292e+02
  -1.055445e+02   8.511988e+01
  -7.113290e+01  -7.067054e+00
   6.449491e+01  -2.480127e+01
   1.497644e+02   4.050655e+01
   7.965814e+01   1.151405e+02
  -9.164542e+01   1.226555e+02
  -2.091048e+02   5.151410e+01
  -1.729782e+02  -4.352499e+01
  -3.303255e+01  -9.264601e+01
   7.148720e+01  -6.511127e+01
   5.298352e+01   4.558751e+00
  -4.669169e+01   3.831655e+01
  -1.074752e+02  -1.790506e+01
  -5.350467e+01  -1.281901e+02
   7.629166e+01  -1.808856e+02
   1.689815e+02  -9.149286e+01
   1.462167e+02   9.082487e+01
   3.112629e+01   2.108165e+02
  -8.176172e+01   1.583895e+02
  -1.141262e+02  -1.042974e+01
  -6.260853e+01  -1.321474e+02
   1.579362e+01  -1.119928e+02
   5.901904e+01  -1.494333e+01
   4.812935e+01   3.445692e+01
   1.447174e+01   6.221490e+00
   6.970273e+00  -1.865795e+01
   3.994917e+01   2.615688e+01
   6.967382e+01   9.954662e+01
   3.523971e+01   1.136872e+02
  -6.560465e+01   4.748495e+01
  -1.520169e+02  -3.527680e+01
  -1.362695e+02  -7.141560e+01
  -2.305008e+01  -5.988158e+01
   8.464878e+01  -3.361666e+01
   9.469182e+01  -9.044298e+00
   2.299894e+01   1.355478e+01
  -3.464726e+01   2.347623e+01
  -2.284050e+01   1.129605e+01
   1.347613e+01  -6.462130e+00
  -2.221278e+00  -3.841288e+00
  -7.000192e+01   6.937251e+00
  -1.041740e+02  -1.898873e+01
  -3.288105e+01  -8.991978e+01
   1.098575e+02  -1.384643e+02
   2.084805e+02  -8.630833e+01
   1.785104e+02   5.445230e+01
   4.634358e+01   1.756255e+02
  -8.357255e+01   1.805876e+02
  -1.286167e+02   8.314959e+01
  -9.067501e+01  -1.627524e+01
  -3.192846e+01  -4.278962e+01
  -6.398680e+00  -1.669764e+01
  -1.830641e+01  -1.062487e+01
  -3.493937e+01  -5.536386e+01
  -2.162186e+01  -1.022574e+02
   2.972033e+01  -8.211645e+01
   8.737857e+01   1.163123e+01
   9.628751e+01   1.069972e+02
   2.651446e+01   1.220327e+02
  -7.876917e+01   4.361794e+01
  -1.233987e+02  -6.208107e+01
  -5.415569e+01  -1.130165e+02
   6.775149e+01  -7.995989e+01
   1.203656e+02   9.981351e-01
   5.720071e+01   6.685530e+01
  -3.679789e+01   7.643816e+01
  -4.831016e+01   3.520623e+01
   2.555835e+01  -1.188280e+01
   7.657662e+01  -1.581753e+01
   2.474299e+01   3.058699e+01
  -8.330383e+01   7.816637e+01
  -1.349899e+02   6.377238e+01
  -8.397544e+01  -1.760168e+01
   9.999482e+00  -9.658804e+01
   6.347576e+01  -9.648859e+01
   5.347056e+01  -1.852713e+01
   1.266162e+01   5.725583e+01
  -2.446713e+01   5.774099e+01
  -4.320253e+01  -6.401042e+00
  -3.627934e+01  -5.939994e+01
  -2.260010e+00  -4.862114e+01
   3.774270e+01   1.591302e+00
   4.916929e+01   2.776781e+01
   2.390637e+01   5.498684e+00
  -5.844386e+00  -2.536920e+01
  -6.208109e+00  -1.480716e+01
   1.228925e+01   3.351429e+01
   8.874267e+00   6.380491e+01
  -2.760972e+01   3.418204e+01
  -5.434604e+01  -3.120500e+01
  -2.588692e+01  -6.587427e+01
   4.177301e+01  -3.459777e+01
   7.587569e+01   2.953232e+01
   2.823215e+01   6.488293e+01
  -6.317040e+01   4.475096e+01
  -1.077152e+02  -5.501180e+00
  -5.976199e+01  -4.543150e+01
   3.040554e+01  -5.512436e+01
   7.230070e+01  -3.803581e+01
   3.394450e+01  -9.388464e+00
  -2.813772e+01   8.790955e+00
  -3.637261e+01  -8.651279e-01
   2.071177e+01  -2.768594e+01
   8.003293e+01  -2.960657e+01
