
 $NMID
 id='ANONYMOUS ', fmtdat='(2E16.6)'
 volume=1.0
 tramp=1.0
 $END
   1.690191e+03  -2.421387e+02
   1.144592e+03   8.635723e+02
   9.690992e+01   1.184727e+03
  -6.794965e+02   8.142875e+02
  -7.986215e+02   2.237413e+02
  -2.146332e+02  -2.475105e+02
   2.599148e+02  -6.505948e+01
   1.361374e+02   2.351169e+02
  -1.724811e+02   3.321489e+02
  -3.271506e+02   2.223437e+02
  -3.123691e+02  -2.070973e+02
  -8.218317e+01  -3.112301e+02
   1.350543e+02  -1.593297e+02
   1.506683e+02   1.604366e+02
  -5.404398e+01   3.344785e+02
  -2.274980e+02   1.024364e+02
  -2.173294e+02  -2.200114e+02
   2.609128e+01  -4.301389e+02
   2.458437e+02  -2.233092e+02
   3.159804e+02   5.206273e+01
   1.391072e+02   1.883535e+02
  -1.377549e+01   1.749071e+02
  -3.297655e+01   7.752906e+01
   1.233034e+02   7.475672e+01
   1.334760e+02   1.896944e+02
  -5.274330e+01   2.294904e+02
  -2.984717e+02   7.421555e+01
  -3.188575e+02  -1.146944e+02
  -8.879863e+01  -1.605681e+02
   1.716751e+02  -6.313637e+01
   2.343352e+02   8.660167e+01
   9.363882e+01   1.645765e+02
  -1.393369e+02   1.728384e+02
  -2.531215e+02   7.019703e+01
  -1.848077e+02  -6.446665e+01
  -6.983546e+01  -1.359875e+02
  -3.044157e+01  -9.813844e+01
  -5.750515e+01   1.054656e+01
  -8.737417e+01   3.774095e+01
  -7.090512e+01  -9.520233e+01
   2.715819e+01  -2.498680e+02
   1.110773e+02  -2.331640e+02
   1.453113e+02  -2.291640e+01
   5.794918e+01   1.489053e+02
  -5.048286e+01   6.301751e+01
  -6.929276e+01  -1.506507e+02
   7.234179e+01  -2.108787e+02
   2.492788e+02  -3.739035e+01
   2.854354e+02   2.119926e+02
   1.048895e+02   2.874158e+02
  -1.592882e+02   1.596786e+02
  -3.020807e+02  -2.365588e+01
  -2.213657e+02  -1.207308e+02
  -7.562133e+00  -1.154904e+02
   1.497511e+02  -7.463271e+01
   1.465296e+02  -3.060753e+01
   4.080580e+01  -1.582664e+00
  -1.784722e+01   2.703928e+00
   3.828066e+01  -6.713962e+00
   1.210139e+02   1.470875e+01
   8.996933e+01   9.298824e+01
  -7.458545e+01   1.631131e+02
  -2.232908e+02   1.169444e+02
  -1.971719e+02  -5.810493e+01
  -1.736291e+00  -2.312455e+02
   1.932717e+02  -2.485159e+02
   2.339900e+02  -9.796546e+01
   1.360910e+02   9.196510e+01
   3.257595e+01   1.912474e+02
   9.283609e+00   1.823202e+02
   1.968831e+01   1.370098e+02
  -2.091596e+01   1.057627e+02
  -1.110832e+02   7.451273e+01
  -1.705427e+02   6.106500e+00
  -1.381698e+02  -8.955020e+01
  -3.826544e+01  -1.428458e+02
   6.123877e+01  -9.776461e+01
   1.073328e+02   2.933567e+01
   7.517921e+01   1.443766e+02
  -2.576720e+01   1.514809e+02
  -1.427880e+02   4.713096e+01
  -1.887257e+02  -9.318478e+01
  -1.172652e+02  -1.678437e+02
   9.937666e+00  -1.616269e+02
   8.546689e+01  -1.128243e+02
   9.046201e+01  -7.408099e+01
   1.014733e+02  -5.470888e+01
   1.840128e+02  -2.120485e+01
   2.625586e+02   6.781427e+01
   2.038535e+02   1.899140e+02
  -1.506350e+01   2.726791e+02
  -2.367901e+02   2.430398e+02
  -2.900398e+02   1.055678e+02
  -1.671288e+02  -5.547254e+01
  -1.080378e+01  -1.372463e+02
   4.085422e+01  -1.093936e+02
  -1.003040e+01  -2.965221e+01
  -7.062746e+01   7.136759e+00
  -6.247396e+01  -2.816993e+01
   2.636227e+00  -7.118188e+01
   5.680534e+01  -4.835680e+01
   4.986310e+01   2.659399e+01
  -1.632889e+01   6.271430e+01
  -8.793716e+01  -7.534404e+00
  -9.173170e+01  -1.406603e+02
   5.736236e+00  -2.082699e+02
   1.525693e+02  -1.337762e+02
   2.356082e+02   3.621282e+01
   1.785833e+02   1.685087e+02
   2.992454e+01   1.754779e+02
  -8.589546e+01   8.522460e+01
  -8.951023e+01   2.769982e+00
  -1.765841e+01  -4.058712e+00
   2.548563e+01   4.138978e+01
  -1.004178e+01   6.541608e+01
  -7.331463e+01   3.304018e+01
  -7.934501e+01  -1.776021e+01
  -1.262396e+01  -2.672511e+01
   4.777761e+01   1.787027e+01
   1.579556e+01   6.437747e+01
  -1.013657e+02   5.503076e+01
  -1.949739e+02  -1.959729e+01
  -1.617004e+02  -1.148275e+02
  -1.201404e+01  -1.679578e+02
   1.341470e+02  -1.434896e+02
   1.643048e+02  -5.912822e+01
   7.927462e+01   2.252096e+01
  -1.792113e+01   4.081077e+01
  -3.129971e+01  -2.781288e+00
   3.886930e+01  -4.264748e+01
   1.116465e+02  -1.660326e+01
   1.103846e+02   5.948774e+01
   3.363362e+01   1.071468e+02
  -5.036669e+01   7.814074e+01
  -7.037154e+01   1.036770e+01
  -2.082028e+01  -1.715308e+01
   3.113336e+01   2.233127e+01
   1.421646e+01   7.633901e+01
  -6.963186e+01   7.531828e+01
  -1.386743e+02   3.715330e+00
  -1.135530e+02  -8.664767e+01
  -5.312365e+00  -1.279375e+02
   9.297909e+01  -9.275936e+01
   1.017235e+02  -1.291263e+01
   3.256514e+01   4.870479e+01
  -3.270160e+01   5.240683e+01
  -3.476658e+01   1.531999e+01
   6.929169e+00  -1.144020e+01
   2.657296e+01   6.772569e-01
  -8.992875e+00   2.216913e+01
  -6.463347e+01   2.723989e+00
  -7.340770e+01  -6.352896e+01
  -6.016290e+00  -1.184880e+02
   9.622503e+01  -9.856615e+01
   1.532021e+02  -3.110912e+00
   1.205740e+02   1.004526e+02
   2.576376e+01   1.397685e+02
  -5.782979e+01   9.789765e+01
  -7.741753e+01   2.349851e+01
  -4.736493e+01  -2.158059e+01
  -2.301578e+01  -1.355701e+01
  -3.679694e+01   1.238422e+01
  -5.927499e+01   5.633110e+00
  -4.165220e+01  -3.940178e+01
   2.403560e+01  -7.469631e+01
   8.613170e+01  -4.764963e+01
   7.755324e+01   3.228701e+01
  -1.184909e+01   9.183504e+01
  -1.144201e+02   6.122530e+01
  -1.394191e+02  -4.471159e+01
  -5.295677e+01  -1.402266e+02
   8.518948e+01  -1.416219e+02
   1.716429e+02  -5.149969e+01
   1.520965e+02   5.500103e+01
   6.000167e+01   1.023662e+02
  -2.545573e+01   8.462853e+01
  -5.279892e+01   5.042692e+01
  -3.844659e+01   4.598490e+01
  -3.076772e+01   6.292364e+01
  -5.480177e+01   5.469381e+01
  -8.607322e+01  -7.391738e+00
  -8.013451e+01  -9.603658e+01
  -2.041257e+01  -1.437656e+02
   6.106082e+01  -1.060224e+02
   1.057271e+02  -6.271189e+00
   7.896498e+01   8.131868e+01
   5.505591e+00   9.687602e+01
  -4.875671e+01   4.598284e+01
  -4.036014e+01  -1.485485e+01
   4.864266e+00  -3.727115e+01
   2.196514e+01  -2.203973e+01
  -1.447545e+01  -4.662805e+00
  -5.520349e+01  -9.723934e+00
  -3.328327e+01  -2.649330e+01
   5.017720e+01  -2.643902e+01
   1.162818e+02   2.437977e+00
   9.275882e+01   4.308709e+01
  -4.769418e+00   6.413840e+01
  -8.934115e+01   4.686855e+01
  -9.226697e+01   2.493452e+00
  -2.634258e+01  -3.408408e+01
   3.930633e+01  -3.079700e+01
   5.263458e+01   1.064090e+01
   1.809667e+01   5.058356e+01
  -2.558214e+01   4.841430e+01
  -4.753196e+01   6.120852e+00
  -4.485600e+01  -3.179864e+01
  -3.513608e+01  -2.859067e+01
  -3.445357e+01  -1.166584e+00
  -4.076497e+01  -1.057290e+00
  -3.183302e+01  -4.942615e+01
   1.311292e+01  -1.020911e+02
   8.123187e+01  -9.675765e+01
   1.206288e+02  -2.339726e+01
   8.836220e+01   5.995286e+01
   2.294099e+00   8.660767e+01
  -6.070623e+01   4.771638e+01
  -4.140948e+01  -4.459068e+00
   3.621770e+01  -1.468638e+01
   8.518455e+01   2.227151e+01
   4.572286e+01   6.457653e+01
  -5.116738e+01   6.930717e+01
  -1.174748e+02   2.919428e+01
  -9.696786e+01  -2.499001e+01
  -1.798851e+01  -5.269564e+01
   4.126865e+01  -3.595617e+01
   3.047109e+01   4.684197e+00
  -2.669051e+01   2.360871e+01
  -6.228613e+01  -9.500203e+00
  -3.202999e+01  -7.376645e+01
   4.256997e+01  -1.040304e+02
   9.687225e+01  -5.266637e+01
   8.447863e+01   5.198429e+01
   1.803367e+01   1.203655e+02
  -4.740068e+01   9.039683e+01
  -6.555888e+01  -6.285805e+00
  -3.499794e+01  -7.541039e+01
   1.006628e+01  -6.360024e+01
   3.376394e+01  -7.818288e+00
   2.636441e+01   2.045410e+01
   7.178331e+00   4.258002e+00
   3.658833e+00  -1.049270e+01
   2.271531e+01   1.397050e+01
   3.922403e+01   5.494712e+01
   1.932671e+01   6.344705e+01
  -3.709657e+01   2.701606e+01
  -8.503342e+01  -1.922361e+01
  -7.591373e+01  -4.025367e+01
  -1.261406e+01  -3.457710e+01
   4.773498e+01  -1.960276e+01
   5.343208e+01  -4.473820e+00
   1.316002e+01   8.762790e+00
  -1.966479e+01   1.393383e+01
  -1.353936e+01   5.952548e+00
   6.940720e+00  -3.997408e+00
  -1.517225e+00  -1.901379e+00
  -3.987006e+01   4.575645e+00
  -5.982058e+01  -1.111749e+01
  -1.987640e+01  -5.266848e+01
   6.201712e+01  -8.084817e+01
   1.195584e+02  -5.032444e+01
   1.035308e+02   3.100079e+01
   2.780211e+01   1.006845e+02
  -4.739819e+01   1.034941e+02
  -7.361562e+01   4.754981e+01
  -5.204216e+01  -9.580474e+00
  -1.829869e+01  -2.496959e+01
  -3.313067e+00  -1.020902e+01
  -9.807203e+00  -6.406358e+00
  -1.913774e+01  -3.113398e+01
  -1.183936e+01  -5.727468e+01
   1.696673e+01  -4.601964e+01
   4.967299e+01   6.499463e+00
   5.506584e+01   6.022649e+01
   1.546593e+01   6.947392e+01
  -4.485754e+01   2.588117e+01
  -7.090366e+01  -3.432419e+01
  -3.179600e+01  -6.427882e+01
   3.807424e+01  -4.633079e+01
   6.892594e+01  -1.375752e-02
   3.327362e+01   3.842478e+01
  -2.057680e+01   4.424533e+01
  -2.832237e+01   2.036919e+01
   1.277836e+01  -6.778458e+00
   4.190101e+01  -9.180576e+00
   1.317533e+01   1.682258e+01
  -4.734970e+01   4.303852e+01
  -7.633652e+01   3.413097e+01
  -4.740895e+01  -1.185197e+01
   6.463805e+00  -5.595752e+01
   3.771559e+01  -5.555734e+01
   3.257814e+01  -1.062440e+01
   9.172993e+00   3.336081e+01
  -1.297773e+01   3.465420e+01
  -2.504645e+01  -1.759810e+00
  -2.149431e+01  -3.297231e+01
  -1.675216e+00  -2.791250e+01
   2.146696e+01   7.453479e-01
   2.797047e+01   1.609770e+01
   1.344951e+01   3.498708e+00
  -3.653837e+00  -1.484233e+01
  -3.567499e+00  -9.335308e+00
   7.702952e+00   1.865032e+01
   5.793128e+00   3.700740e+01
  -1.520743e+01   2.059761e+01
  -3.113276e+01  -1.722687e+01
  -1.515722e+01  -3.791570e+01
   2.357698e+01  -2.019449e+01
   4.358748e+01   1.684192e+01
   1.654382e+01   3.737016e+01
  -3.581072e+01   2.605319e+01
  -6.165909e+01  -2.601844e+00
  -3.469253e+01  -2.579487e+01
   1.668234e+01  -3.195708e+01
   4.105156e+01  -2.255029e+01
   1.988940e+01  -5.927534e+00
  -1.498621e+01   5.251747e+00
  -2.007082e+01  -1.050337e-02
   1.155407e+01  -1.569501e+01
   4.506173e+01  -1.703728e+01
