
 $NMID
 id='ANONYMOUS ', fmtdat='(2E16.6)'
 volume=1.0
 tramp=1.0
 $END
  -7.312345e+02  -6.862781e+01
  -5.761860e+02  -3.378206e+02
  -1.906666e+02  -4.915241e+02
   2.388645e+02  -4.924873e+02
   2.311979e+02  -2.132707e+02
   7.582961e+01   1.583059e+00
  -1.718014e+01   1.373762e+01
   3.626391e+01  -1.467157e+02
   7.553080e+01  -1.521920e+02
   1.832933e+02  -4.088956e+01
   4.778744e+01   1.634261e+02
   2.514042e+01   2.082245e+02
  -5.996131e+01   6.670995e+01
  -6.323117e+00  -1.075504e+02
   2.832787e+01  -1.500615e+02
   8.219763e+01  -1.677928e+01
   9.155160e+01   1.204616e+02
   2.872029e+01   1.866617e+02
  -1.565365e+02   1.597018e+02
  -1.112493e+02  -3.648097e+01
  -5.047452e+01  -9.850531e+01
   4.429810e+01  -8.914804e+01
  -1.441112e+01  -3.620446e+01
  -7.380335e+01  -8.772253e+01
  -3.565625e+01  -1.148970e+02
   3.832371e+01  -8.386098e+01
   1.620788e+02   8.043348e-01
   1.718288e+02   9.736314e+01
   3.500236e+01   1.085026e+02
  -9.659236e+01   3.429409e+01
  -1.483620e+02  -7.705771e+01
  -5.337945e+01  -1.278202e+02
   8.076782e+01  -1.030940e+02
   1.384994e+02  -2.956285e+01
   1.084346e+02   5.010856e+01
   2.509792e+01   8.891046e+01
   3.608554e+00   5.951584e+01
   2.211660e+01  -9.818954e+00
   4.895760e+01  -2.974617e+01
   5.108694e+01   5.010579e+01
  -2.126176e+01   1.326662e+02
  -7.560675e+01   9.937280e+01
  -5.931461e+01  -4.468028e+00
  -1.077789e+01  -7.167037e+01
   4.383006e+01  -1.174156e+01
   1.607067e+01   8.518459e+01
  -5.013751e+01   1.049260e+02
  -1.387897e+02  -8.763179e+00
  -1.420981e+02  -1.442344e+02
  -3.645876e+01  -1.705187e+02
   1.065294e+02  -8.571937e+01
   1.736289e+02   2.542473e+01
   1.187057e+02   7.854958e+01
  -4.820248e+00   7.389421e+01
  -8.524103e+01   4.217979e+01
  -7.518904e+01   1.649898e+01
  -1.650147e+01  -9.624314e-01
   5.397251e+00  -5.312470e+00
  -3.315293e+01  -3.239544e+00
  -7.582803e+01  -1.641518e+01
  -4.744211e+01  -5.652416e+01
   5.105383e+01  -8.777976e+01
   1.331811e+02  -5.810291e+01
   1.123533e+02   3.680314e+01
  -4.522522e+00   1.278513e+02
  -1.196084e+02   1.329700e+02
  -1.434358e+02   4.319709e+01
  -8.055197e+01  -6.625986e+01
  -1.313379e+01  -1.161812e+02
   6.436700e+00  -1.008566e+02
   4.617848e-01  -7.012767e+01
   1.867707e+01  -5.958146e+01
   6.406615e+01  -4.922993e+01
   9.485711e+01  -6.088435e+00
   7.506008e+01   5.955942e+01
   1.738553e+01   9.268573e+01
  -3.866989e+01   5.411839e+01
  -5.834134e+01  -3.084559e+01
  -3.230922e+01  -9.291252e+01
   2.857585e+01  -8.090692e+01
   8.958530e+01  -7.948710e+00
   1.042928e+02   7.031951e+01
   5.432409e+01   1.072800e+02
  -1.568620e+01   8.801881e+01
  -5.646411e+01   5.773957e+01
  -5.714967e+01   3.654614e+01
  -6.652145e+01   2.909179e+01
  -1.125844e+02   2.213462e+00
  -1.480541e+02  -5.464456e+01
  -1.055501e+02  -1.204765e+02
   2.408134e+01  -1.610728e+02
   1.522036e+02  -1.366643e+02
   1.781926e+02  -5.104283e+01
   9.871162e+01   4.114682e+01
  -5.726585e-01   8.556163e+01
  -3.037829e+01   6.380289e+01
   8.621182e+00   1.753358e+01
   4.820809e+01   1.329160e+00
   3.860178e+01   2.286143e+01
  -7.695567e+00   4.553714e+01
  -4.108009e+01   2.616314e+01
  -2.900461e+01  -1.884616e+01
   1.689670e+01  -3.589044e+01
   5.698127e+01   9.001721e+00
   4.874763e+01   8.897725e+01
  -1.628601e+01   1.245315e+02
  -9.785393e+01   7.281533e+01
  -1.353055e+02  -3.120642e+01
  -9.605182e+01  -1.066953e+02
  -1.143517e+01  -1.026519e+02
   5.124718e+01  -4.594349e+01
   4.964756e+01   9.281845e-01
   9.133406e+00  -7.941023e-01
  -1.149828e+01  -2.922598e+01
   1.241482e+01  -3.869005e+01
   4.804515e+01  -1.335146e+01
   4.622377e+01   1.659017e+01
   3.769009e+00   1.661592e+01
  -3.024807e+01  -1.417068e+01
  -6.103303e+00  -4.096127e+01
   6.550643e+01  -3.047192e+01
   1.173036e+02   1.827364e+01
   9.116595e+01   7.539859e+01
  -9.189573e-01   1.023591e+02
  -8.516416e+01   8.103860e+01
  -9.807349e+01   2.682699e+01
  -4.433099e+01  -1.912714e+01
   1.212101e+01  -2.380434e+01
   1.666308e+01   5.084378e+00
  -2.711186e+01   2.508596e+01
  -6.715683e+01   3.907638e+00
  -6.089171e+01  -4.243853e+01
  -1.271227e+01  -6.712215e+01
   3.415118e+01  -4.426496e+01
   4.039032e+01  -1.575614e+00
   9.594153e+00   1.338703e+01
  -1.846146e+01  -1.342765e+01
  -5.067680e+00  -4.773364e+01
   4.394956e+01  -4.474119e+01
   8.046897e+01   1.908053e+00
   6.221129e+01   5.649853e+01
  -2.062619e+00   7.582798e+01
  -5.748759e+01   4.862449e+01
  -5.919638e+01   3.962677e-02
  -1.547145e+01  -3.199698e+01
   2.322808e+01  -2.850575e+01
   2.181494e+01  -4.625675e+00
  -4.768480e+00   8.915240e+00
  -1.727999e+01  -2.993477e-01
   4.485197e+00  -1.378641e+01
   3.714600e+01  -1.594001e+00
   4.073708e+01   3.700687e+01
  -1.345155e-01   6.849328e+01
  -5.989467e+01   5.523634e+01
  -8.988555e+01  -3.369543e+00
  -6.547194e+01  -6.466913e+01
  -7.255595e+00  -8.425728e+01
   4.023150e+01  -5.574027e+01
   4.704290e+01  -9.744793e+00
   2.697626e+01   1.532112e+01
   1.368690e+01   9.880310e+00
   2.205618e+01  -4.093323e+00
   3.431425e+01  -3.231800e-01
   2.247100e+01   2.511232e+01
  -1.604861e+01   4.222107e+01
  -5.042443e+01   2.496637e+01
  -4.403854e+01  -2.082632e+01
   9.132178e+00  -5.279103e+01
   6.727584e+01  -3.154837e+01
   7.836992e+01   3.054584e+01
   2.646698e+01   8.200213e+01
  -5.348396e+01   7.940114e+01
  -1.011149e+02   2.351295e+01
  -8.727116e+01  -3.742787e+01
  -3.193237e+01  -6.374997e+01
   1.666291e+01  -4.974081e+01
   3.149464e+01  -2.822470e+01
   2.413460e+01  -2.490020e+01
   2.156604e+01  -3.539271e+01
   3.530396e+01  -3.021657e+01
   5.023799e+01   6.920216e+00
   4.315724e+01   5.836203e+01
   6.245579e+00   8.406690e+01
  -3.994894e+01   5.940282e+01
  -6.246161e+01   1.116472e-01
  -4.309226e+01  -4.964116e+01
   1.067657e+00  -5.732280e+01
   3.100819e+01  -2.710498e+01
   2.343012e+01   8.601009e+00
  -4.293498e+00   2.191972e+01
  -1.360946e+01   1.354142e+01
   8.410384e+00   3.411153e+00
   3.214842e+01   5.857052e+00
   1.898027e+01   1.489554e+01
  -2.945119e+01   1.427393e+01
  -6.678256e+01  -3.431696e+00
  -5.168886e+01  -2.751702e+01
   5.490519e+00  -3.815257e+01
   5.352818e+01  -2.540319e+01
   5.331237e+01   2.138699e+00
   1.429890e+01   2.202844e+01
  -2.284941e+01   1.725761e+01
  -2.933470e+01  -7.962881e+00
  -9.023311e+00  -2.928389e+01
   1.497081e+01  -2.590543e+01
   2.592900e+01  -1.236547e+00
   2.367757e+01   1.880480e+01
   1.878448e+01   1.559118e+01
   1.991373e+01  -2.213299e-01
   2.449331e+01   5.211406e-01
   1.882598e+01   2.861278e+01
  -9.172913e+00   5.869934e+01
  -4.907743e+01   5.451503e+01
  -7.073495e+01   1.129597e+01
  -4.964249e+01  -3.689796e+01
   4.825611e-01  -5.033680e+01
   3.547925e+01  -2.597112e+01
   2.335848e+01   3.467561e+00
  -2.083172e+01   6.455426e+00
  -4.760106e+01  -1.678610e+01
  -2.376443e+01  -3.952219e+01
   3.209398e+01  -3.767175e+01
   6.925986e+01  -1.185837e+01
   5.596965e+01   1.794777e+01
   9.066722e+00   3.098809e+01
  -2.529067e+01   2.001874e+01
  -1.829616e+01  -2.471012e+00
   1.516964e+01  -1.221124e+01
   3.485001e+01   6.521275e+00
   1.575608e+01   4.155798e+01
  -2.747372e+01   5.719424e+01
  -5.628649e+01   2.705324e+01
  -4.544716e+01  -3.198808e+01
  -5.608509e+00  -6.911496e+01
   3.026578e+01  -4.960633e+01
   3.738656e+01   6.540829e+00
   1.735331e+01   4.504222e+01
  -8.423895e+00   3.635291e+01
  -2.043158e+01   3.339742e+00
  -1.533757e+01  -1.254764e+01
  -4.452798e+00  -2.605136e+00
  -2.357907e+00   5.551952e+00
  -1.234072e+01  -9.447127e+00
  -2.028013e+01  -3.382864e+01
  -8.956939e+00  -3.764539e+01
   2.221944e+01  -1.449902e+01
   4.844560e+01   1.407689e+01
   4.276553e+01   2.586229e+01
   6.763332e+00   2.041802e+01
  -2.774487e+01   9.592255e+00
  -3.085950e+01   1.055883e+00
  -7.189340e+00  -5.245737e+00
   1.214695e+01  -7.265811e+00
   8.185900e+00  -3.371020e+00
  -4.512961e+00   1.835485e+00
   3.108485e-01   1.772011e+00
   2.325189e+01  -3.416251e-02
   3.461426e+01   9.171009e+00
   9.620428e+00   3.048889e+01
  -3.928076e+01   4.317358e+01
  -7.136983e+01   2.416171e+01
  -5.863680e+01  -2.150664e+01
  -1.195330e+01  -5.890475e+01
   3.126637e+01  -5.814313e+01
   4.428223e+01  -2.513423e+01
   3.018060e+01   7.149016e+00
   1.053529e+01   1.481457e+01
   2.322932e+00   5.650764e+00
   5.563092e+00   4.241587e+00
   9.916657e+00   1.942720e+01
   4.749949e+00   3.450407e+01
  -1.137878e+01   2.676367e+01
  -2.861193e+01  -5.332022e+00
  -3.004072e+01  -3.715054e+01
  -6.675441e+00  -4.086177e+01
   2.660461e+01  -1.334406e+01
   3.965706e+01   2.227671e+01
   1.605974e+01   3.794197e+01
  -2.348489e+01   2.489844e+01
  -3.947444e+01  -2.650604e+00
  -1.775340e+01  -2.280807e+01
   1.360257e+01  -2.393213e+01
   1.685636e+01  -1.059626e+01
  -8.060632e+00   2.660863e+00
  -2.509122e+01   2.687956e+00
  -7.413141e+00  -1.091433e+01
   2.940733e+01  -2.341705e+01
   4.666809e+01  -1.745109e+01
   2.864951e+01   8.028528e+00
  -4.440819e+00   3.230340e+01
  -2.326512e+01   3.178964e+01
  -1.920289e+01   6.610598e+00
  -4.150614e+00  -1.854438e+01
   8.555330e+00  -1.934861e+01
   1.381850e+01   1.801379e+00
   1.081086e+01   1.965006e+01
   3.055615e-01   1.624785e+01
  -1.203354e+01  -1.082289e+00
  -1.551639e+01  -1.041965e+01
  -7.723878e+00  -2.448944e+00
   1.843915e+00   8.767989e+00
   2.124392e+00   5.681542e+00
  -3.552668e+00  -1.092625e+01
  -2.561182e+00  -2.110361e+01
   8.623112e+00  -1.060658e+01
   1.697491e+01   1.121532e+01
   7.448576e+00   2.184014e+01
  -1.413154e+01   1.030606e+01
  -2.446459e+01  -1.106572e+01
  -8.126698e+00  -2.138923e+01
   2.142360e+01  -1.323677e+01
   3.515915e+01   3.809118e+00
   1.861240e+01   1.582481e+01
  -1.128456e+01   1.736617e+01
  -2.483747e+01   1.113136e+01
  -1.180250e+01   2.452023e+00
   8.864828e+00  -2.512988e+00
   1.209041e+01   5.977048e-01
  -6.390083e+00   8.036801e+00
  -2.596740e+01   7.581987e+00
