
 $NMID
 id='ANONYMOUS ', fmtdat='(2E16.6)'
 volume=1.0
 tramp=1.0
 $END
   2.031013e+02   6.078149e+01
   3.407338e+01  -2.689881e+01
  -1.397113e+01   4.720380e+01
   2.398884e+01   4.701895e+01
   6.105054e+01  -1.594659e+01
  -2.398657e+01  -9.869955e+00
   2.957877e+01   4.247864e+01
   2.169618e+01  -2.817364e+01
  -1.599206e+01  -8.719704e+00
  -7.870354e+00  -2.111319e+01
  -1.427275e+01   2.363551e+01
  -3.941535e+01  -2.005540e+01
   4.372533e+00   1.464839e+01
  -7.563767e+00  -2.923650e+01
  -2.555175e+01   1.942510e+00
  -2.863963e+01  -1.843147e+01
  -2.660257e+01   4.091169e+01
  -6.692898e+00  -7.649273e+00
   2.591147e+00  -1.740006e+01
   1.530019e-01   2.314078e+00
  -1.977662e+01  -1.097705e+01
  -2.486050e+01  -2.950795e+00
   1.206818e+00  -2.507471e+01
  -7.474084e-01   2.727960e+00
   6.001939e+00  -7.842412e+00
   8.619896e+00  -3.263205e+01
   3.211819e+00  -4.406854e+00
   2.752523e+00  -1.350478e+01
   7.739527e+00   1.625572e+01
  -2.934267e+00  -7.116565e+00
  -6.007554e+00  -1.151610e+01
   7.527664e-01  -1.392229e+01
   2.392990e+00   6.991887e+00
   2.569402e+00   5.896452e+00
  -6.321001e-01   7.110422e+00
   1.023090e+01  -4.709010e+00
  -3.045901e+00   4.469369e+00
  -7.011256e+00  -1.226590e+00
  -3.449253e+00   8.824104e+00
   6.397225e+00  -2.010294e+00
   9.228008e+00  -5.741972e+00
   4.874015e+00   9.870483e+00
   2.459070e-02   2.027709e+00
   3.392069e+00   1.742874e+00
   6.248582e+00  -1.652213e+00
   1.837485e+00   7.870738e+00
  -2.614589e+00   8.369751e+00
  -7.189935e+00  -7.843463e-01
  -3.679356e+00   2.868564e+00
  -7.227690e-01  -1.996573e+00
   4.008568e+00  -3.813512e+00
   5.918196e+00  -3.222301e+00
   4.363436e+00   8.193360e+00
  -2.253092e+00   9.625228e+00
  -4.971341e+00   2.696871e+00
  -1.839364e+00  -5.401149e+00
   4.888249e+00  -2.380751e+00
   1.893230e+00   5.559335e+00
  -6.272256e+00   7.135060e+00
  -1.044089e+01  -1.295020e+00
  -2.807475e+00  -8.842472e+00
   5.704786e+00  -6.977847e+00
   7.496298e+00  -1.260199e+00
   4.516778e+00   4.324427e+00
   1.423956e+00   7.591321e+00
  -5.504013e+00   8.748262e+00
  -1.303474e+01   1.144130e+00
  -9.892533e+00  -9.856979e+00
   2.250896e+00  -1.354847e+01
   1.024108e+01  -5.561411e+00
   5.052016e+00   3.031200e+00
  -1.543828e+00   2.230278e+00
   1.322022e-01  -4.147569e+00
   8.550120e+00  -5.060069e+00
   9.742984e+00   4.338674e+00
   2.052536e+00   1.127325e+01
  -6.771266e+00   1.078835e+01
  -1.102677e+01   5.454280e-01
  -7.537907e+00  -8.067932e+00
   6.327607e-01  -1.183211e+01
   1.096412e+01  -3.788288e+00
   1.152819e+01   5.702183e+00
   2.964957e+00   1.266187e+01
  -6.359251e+00   1.039838e+01
  -9.513044e+00   2.120405e+00
  -5.649506e+00  -4.630240e-01
  -4.196112e+00  -2.953404e-01
  -6.672581e+00   3.470589e+00
  -1.140244e+01  -2.969103e+00
  -1.091042e+01  -1.368384e+01
   7.200149e-01  -1.738620e+01
   1.101739e+01  -1.352251e+01
   1.864849e+01  -1.735694e+00
   1.101400e+01   9.986341e+00
  -1.247351e+00   1.331738e+01
  -9.331610e+00   6.212028e+00
  -5.700176e+00  -3.363147e+00
   2.648768e+00  -6.807189e+00
   7.541666e+00  -1.002545e+00
   2.563979e+00   4.431293e+00
  -3.314518e+00   5.321524e+00
  -4.387693e+00  -1.372614e+00
   3.521084e+00  -4.998403e+00
   8.681841e+00  -3.907999e-01
   5.946540e+00   9.569566e+00
  -3.107037e+00   1.344172e+01
  -1.275946e+01   7.329968e+00
  -1.439732e+01  -4.941392e+00
  -6.696385e+00  -1.272260e+01
   3.639522e+00  -1.044005e+01
   7.998040e+00  -2.357889e+00
   3.885948e+00   4.353864e+00
  -2.038745e+00   3.279387e+00
  -4.511849e+00  -2.550831e+00
  -7.947632e-01  -7.346364e+00
   5.369732e+00  -4.610083e+00
   6.526294e+00   2.091138e+00
   8.202061e-01   5.490774e+00
  -5.835848e+00   1.209185e+00
  -4.408053e+00  -6.710623e+00
   4.979034e+00  -9.399755e+00
   1.430265e+01  -3.209092e+00
   1.365706e+01   8.113930e+00
   2.660099e+00   1.477199e+01
  -8.951682e+00   1.218443e+01
  -1.235740e+01   2.331890e+00
  -5.587611e+00  -5.187865e+00
   1.496502e+00  -4.266849e+00
   2.457970e+00   2.138964e+00
  -3.667838e+00   5.403759e+00
  -9.128376e+00   3.931743e-01
  -7.417759e+00  -7.843017e+00
   9.668605e-02  -1.156941e+01
   6.890371e+00  -6.133438e+00
   6.256750e+00   2.388834e+00
   6.595600e-01   5.488095e+00
  -4.023614e+00   2.571546e-01
  -1.612019e+00  -7.552934e+00
   5.694588e+00  -8.317432e+00
   1.097090e+01  -1.128775e+00
   8.689203e+00   8.971191e+00
   1.515582e-01   1.203166e+01
  -8.065322e+00   7.103020e+00
  -9.049824e+00  -1.369814e+00
  -3.127728e+00  -5.376975e+00
   2.901750e+00  -3.818821e+00
   3.613187e+00  -1.476678e-02
  -2.386500e-01   1.459511e+00
  -3.108101e+00  -1.000517e+00
  -4.354284e-01  -2.706464e+00
   4.727690e+00  -6.585126e-01
   5.576096e+00   5.720529e+00
  -1.505549e-01   9.422424e+00
  -9.497425e+00   5.904341e+00
  -1.344055e+01  -2.830039e+00
  -8.437014e+00  -1.169102e+01
   2.202005e+00  -1.293709e+01
   8.974789e+00  -7.150603e+00
   8.243444e+00   1.217593e+00
   2.883423e+00   4.697927e+00
   1.895460e-01   2.147884e+00
   2.148782e+00  -1.556716e+00
   5.437904e+00  -1.610035e-01
   3.843703e+00   4.412958e+00
  -2.410540e+00   7.916428e+00
  -8.377420e+00   4.297228e+00
  -6.514405e+00  -3.533924e+00
   1.080985e+00  -8.668829e+00
   9.080134e+00  -4.942590e+00
   1.092585e+01   5.147186e+00
   2.324128e+00   1.295881e+01
  -9.102762e+00   1.115005e+01
  -1.532373e+01   1.169544e+00
  -1.138330e+01  -8.319696e+00
  -2.521950e+00  -1.110589e+01
   3.330100e+00  -6.701335e+00
   4.428418e+00  -3.485206e+00
   2.964502e+00  -3.575492e+00
   3.705776e+00  -6.010605e+00
   7.594768e+00  -4.865223e+00
   1.096763e+01   2.204255e+00
   8.003896e+00   1.121480e+01
  -9.598020e-01   1.464193e+01
  -9.825488e+00   9.169652e+00
  -1.220953e+01  -1.685689e+00
  -6.151960e+00  -9.796640e+00
   2.984189e+00  -9.561143e+00
   7.618397e+00  -2.828312e+00
   5.027386e+00   3.763789e+00
  -7.758097e-01   4.925615e+00
  -3.488841e+00   2.190164e+00
  -4.680676e-01  -1.012170e-01
   3.063951e+00   9.693748e-01
   1.635902e+00   3.326780e+00
  -4.482427e+00   3.414335e+00
  -9.250565e+00  -5.831896e-01
  -7.121467e+00  -6.086803e+00
   9.621506e-01  -8.125366e+00
   7.902296e+00  -4.562898e+00
   7.573970e+00   1.891650e+00
   1.418223e+00   5.596573e+00
  -4.092219e+00   3.315367e+00
  -4.526618e+00  -2.341140e+00
  -5.177520e-01  -5.752859e+00
   3.201797e+00  -3.982386e+00
   3.523461e+00   1.063141e+00
   1.647939e+00   3.682492e+00
   7.215455e-01   1.796487e+00
   2.172684e+00  -1.883949e+00
   4.465151e+00  -1.343220e+00
   4.412386e+00   4.211130e+00
   9.032275e-03   9.620611e+00
  -6.733598e+00   8.506059e+00
  -1.020654e+01   9.526702e-01
  -7.482600e+00  -6.650059e+00
  -6.102792e-02  -8.004745e+00
   5.575629e+00  -2.706181e+00
   4.037238e+00   2.854549e+00
  -2.604348e+00   2.597181e+00
  -7.167857e+00  -2.224090e+00
  -4.460161e+00  -7.046185e+00
   4.154400e+00  -6.668172e+00
   9.974390e+00  -1.811341e+00
   8.208388e+00   3.815081e+00
   1.023130e+00   5.525117e+00
  -3.750046e+00   2.664581e+00
  -2.224557e+00  -1.374529e+00
   2.990538e+00  -2.023614e+00
   5.071289e+00   2.124887e+00
   8.657502e-01   7.636633e+00
  -6.134832e+00   8.069418e+00
  -9.265437e+00   1.555409e+00
  -5.835607e+00  -7.438915e+00
   1.207883e+00  -1.106520e+01
   6.339171e+00  -5.853864e+00
   6.430463e+00   3.046020e+00
   2.178298e+00   7.856743e+00
  -2.207844e+00   5.586573e+00
  -3.668010e+00   2.521697e-01
  -2.221079e+00  -1.858007e+00
  -5.844041e-01  -2.760225e-01
  -1.006244e+00   1.140987e+00
  -3.313088e+00  -8.449334e-01
  -3.824383e+00  -5.111866e+00
  -4.997831e-01  -6.889591e+00
   5.136010e+00  -3.812397e+00
   8.590217e+00   1.810897e+00
   6.101240e+00   5.492446e+00
  -5.363056e-01   5.113441e+00
  -5.594664e+00   1.821604e+00
  -5.036689e+00  -1.158219e+00
  -4.894327e-01  -2.202653e+00
   2.593148e+00  -1.284648e+00
   1.740071e+00   1.426675e-01
  -4.885870e-01   7.684517e-01
  -9.296960e-02   5.947083e-02
   3.071885e+00  -1.106348e-02
   4.400272e+00   1.848240e+00
   5.511046e-01   5.205408e+00
  -6.335770e+00   6.501457e+00
  -1.056697e+01   2.916522e+00
  -8.266274e+00  -4.680508e+00
  -1.248964e+00  -1.052789e+01
   5.214313e+00  -9.836051e+00
   7.389844e+00  -3.531892e+00
   5.426630e+00   2.632486e+00
   2.193722e+00   4.121555e+00
   2.802059e-01   1.575821e+00
   5.263641e-01   1.170225e-01
   1.404884e+00   2.231235e+00
   5.810584e-01   5.227479e+00
  -2.225025e+00   4.569120e+00
  -4.968806e+00  -6.048737e-01
  -4.568692e+00  -6.099712e+00
  -1.537253e-01  -6.773972e+00
   5.206414e+00  -1.726409e+00
   6.557401e+00   4.283585e+00
   2.219310e+00   6.672142e+00
  -4.084192e+00   4.088834e+00
  -6.530915e+00  -6.803138e-01
  -3.396310e+00  -3.739318e+00
   1.470106e+00  -3.508672e+00
   2.700137e+00  -1.266842e+00
  -3.103503e-01   5.539471e-01
  -2.931335e+00   3.161043e-01
  -1.090282e+00  -1.580566e+00
   3.642264e+00  -2.765708e+00
   6.018663e+00  -1.421426e+00
   3.367699e+00   2.153276e+00
  -1.900057e+00   4.735806e+00
  -4.792700e+00   3.439484e+00
  -3.334699e+00  -1.299226e+00
   5.393622e-01  -4.726746e+00
   3.452995e+00  -3.297997e+00
   3.675708e+00   1.411849e+00
   1.588181e+00   4.723930e+00
  -1.029812e+00   3.639074e+00
  -2.630135e+00  -1.181276e-01
  -2.600662e+00  -1.894479e+00
  -1.319550e+00  -4.745819e-01
  -2.618204e-01   1.547606e+00
  -2.176064e-01   8.365331e-01
  -9.727020e-01  -2.235821e+00
  -4.583350e-01  -4.134027e+00
   1.547892e+00  -2.384909e+00
   2.809116e+00   1.466721e+00
   1.502360e+00   3.443075e+00
  -1.940076e+00   1.767264e+00
  -3.599364e+00  -1.809063e+00
  -1.279363e+00  -3.817059e+00
   3.390925e+00  -2.451845e+00
   5.736631e+00   4.749540e-01
   3.187728e+00   2.791676e+00
  -1.458693e+00   2.994247e+00
  -3.806229e+00   1.692024e+00
  -1.948911e+00   6.358030e-02
   1.498741e+00  -4.661052e-01
   2.149175e+00   4.204454e-01
  -9.150590e-01   1.959320e+00
  -4.170823e+00   1.307102e+00
