
 $NMID
 id='ANONYMOUS ', fmtdat='(2E16.6)'
 volume=1.0
 tramp=1.0
 $END
  -2.154214e+03  -3.361131e+01
  -1.445434e+03  -1.127088e+03
   9.993997e+01  -1.340367e+03
   9.497566e+02  -7.110001e+02
   5.548689e+02  -1.137279e+02
   2.815763e+01   1.629356e+02
  -2.231756e+02  -6.226808e+01
  -1.995320e+01  -3.377957e+02
   3.002020e+02  -3.409389e+02
   3.786172e+02  -1.669553e+00
   2.268056e+02   3.721904e+02
   1.259240e+01   3.939733e+02
  -1.464131e+02   1.200613e+02
  -1.598245e+02  -2.615149e+02
   8.979154e+01  -3.470479e+02
   2.196843e+02  -6.255616e+01
   2.436916e+02   2.981125e+02
  -4.193759e+01   3.902865e+02
  -2.851858e+02   2.146810e+02
  -3.188042e+02  -9.592277e+01
  -8.001636e+01  -2.213359e+02
   7.058125e+01  -1.821210e+02
   3.663764e+01  -1.004953e+02
  -1.128049e+02  -9.328401e+01
  -1.628421e+02  -1.655151e+02
   2.705252e+01  -1.876229e+02
   3.097124e+02  -9.239689e+01
   3.629772e+02   1.179012e+02
   1.119400e+02   2.265555e+02
  -2.170990e+02   1.123446e+02
  -2.987391e+02  -8.869632e+01
  -1.091063e+02  -2.202240e+02
   1.572657e+02  -2.147388e+02
   2.766408e+02  -9.669956e+01
   1.984707e+02   8.241267e+01
   6.317126e+01   1.916207e+02
  -9.981575e+00   1.286360e+02
   3.554813e+01  -2.560255e+01
   1.005572e+02  -7.402260e+01
   9.033085e+01   8.884182e+01
  -2.360027e+01   2.827635e+02
  -1.404549e+02   2.448312e+02
  -1.698520e+02   6.096407e+00
  -6.071999e+01  -1.639296e+02
   6.416264e+01  -5.878665e+01
   8.795865e+01   1.645847e+02
  -7.095774e+01   2.381619e+02
  -2.617736e+02   3.371736e+01
  -2.989417e+02  -2.241338e+02
  -1.000079e+02  -2.996191e+02
   1.739237e+02  -1.588871e+02
   3.120478e+02   3.601250e+01
   2.136832e+02   1.424876e+02
  -1.590268e+01   1.338073e+02
  -1.673502e+02   6.920227e+01
  -1.410190e+02   1.338268e+01
  -2.424466e+01   1.623062e+00
   1.861983e+01   2.017182e+01
  -5.807625e+01   2.171105e+01
  -1.364725e+02  -2.856916e+01
  -8.345502e+01  -1.110891e+02
   8.654294e+01  -1.540919e+02
   2.201551e+02  -9.397166e+01
   1.821100e+02   6.262420e+01
  -6.457756e+00   2.168674e+02
  -1.895935e+02   2.425132e+02
  -2.323051e+02   1.036441e+02
  -1.414854e+02  -9.702889e+01
  -3.467171e+01  -2.101946e+02
   7.898344e-01  -1.897429e+02
  -4.146041e+00  -1.189339e+02
   2.788671e+01  -8.634623e+01
   1.076148e+02  -7.794521e+01
   1.657939e+02  -2.188194e+01
   1.394308e+02   8.822122e+01
   4.218939e+01   1.617172e+02
  -6.267814e+01   1.122811e+02
  -1.133799e+02  -3.454755e+01
  -7.588088e+01  -1.563877e+02
   3.293176e+01  -1.533060e+02
   1.534834e+02  -3.321826e+01
   1.849148e+02   1.081793e+02
   1.013500e+02   1.779923e+02
  -2.687104e+01   1.576000e+02
  -9.074515e+01   9.961983e+01
  -8.783987e+01   6.154289e+01
  -1.010861e+02   4.737814e+01
  -1.828730e+02   1.576492e+01
  -2.588812e+02  -6.869687e+01
  -1.958563e+02  -1.874639e+02
   2.133589e+01  -2.712304e+02
   2.455976e+02  -2.439978e+02
   3.037072e+02  -1.050202e+02
   1.735073e+02   6.380282e+01
   4.785759e+00   1.507595e+02
  -5.448861e+01   1.171527e+02
   5.453419e+00   2.726755e+01
   7.800015e+01  -1.226954e+01
   7.238684e+01   3.082269e+01
  -4.506542e+00   7.990261e+01
  -7.008502e+01   5.433226e+01
  -5.711252e+01  -3.165364e+01
   2.322281e+01  -6.978600e+01
   9.776774e+01   8.437864e+00
   9.041499e+01   1.465260e+02
  -1.640902e+01   2.124021e+02
  -1.555992e+02   1.328803e+02
  -2.287859e+02  -3.834999e+01
  -1.757769e+02  -1.689351e+02
  -3.611461e+01  -1.773810e+02
   8.220776e+01  -8.779509e+01
   9.289052e+01  -3.487570e+00
   2.232330e+01   4.373834e+00
  -2.754833e+01  -4.381728e+01
   7.868704e+00  -6.918736e+01
   7.907144e+01  -3.363975e+01
   8.935795e+01   2.194088e+01
   1.663901e+01   3.246053e+01
  -5.349980e+01  -1.331437e+01
  -2.376420e+01  -6.078735e+01
   9.635109e+01  -5.283039e+01
   1.925262e+02   1.766152e+01
   1.603193e+02   1.083811e+02
   1.148405e+01   1.610559e+02
  -1.341934e+02   1.402913e+02
  -1.643538e+02   5.833848e+01
  -7.784908e+01  -2.455225e+01
   2.260914e+01  -4.252786e+01
   3.631672e+01   4.544606e+00
  -3.936442e+01   4.604604e+01
  -1.170828e+02   1.682889e+01
  -1.142432e+02  -6.451910e+01
  -3.148078e+01  -1.137234e+02
   5.635207e+01  -8.177673e+01
   7.634118e+01  -1.005656e+01
   2.502920e+01   2.113789e+01
  -2.882615e+01  -1.749987e+01
  -1.446349e+01  -7.302398e+01
   6.676315e+01  -7.421098e+01
   1.358929e+02  -3.463972e+00
   1.123751e+02   8.846757e+01
   3.798930e+00   1.300183e+02
  -9.673341e+01   9.077023e+01
  -1.059530e+02   6.200929e+00
  -3.272148e+01  -5.561363e+01
   3.710535e+01  -5.585182e+01
   4.145220e+01  -1.436627e+01
  -1.949347e+00   1.396062e+01
  -2.548929e+01   2.741926e+00
   6.010277e+00  -1.879475e+01
   5.947411e+01  -2.713259e+00
   7.051032e+01   5.895475e+01
   6.725859e+00   1.136536e+02
  -9.389029e+01   9.802918e+01
  -1.528438e+02   4.839356e+00
  -1.193582e+02  -1.010288e+02
  -2.094678e+01  -1.429159e+02
   6.339224e+01  -9.964634e+01
   8.009104e+01  -2.093458e+01
   4.615877e+01   2.651067e+01
   2.142438e+01   1.851595e+01
   3.517095e+01  -9.094075e+00
   5.662882e+01  -4.480425e+00
   3.900873e+01   3.766076e+01
  -2.425897e+01   7.126418e+01
  -8.155201e+01   4.547055e+01
  -7.299628e+01  -3.011132e+01
   1.058043e+01  -8.542480e+01
   1.075857e+02  -5.578523e+01
   1.320936e+02   4.576847e+01
   5.004594e+01   1.376943e+02
  -8.440630e+01   1.381263e+02
  -1.715075e+02   4.774261e+01
  -1.536300e+02  -6.040191e+01
  -5.931908e+01  -1.084333e+02
   2.738850e+01  -8.777967e+01
   5.696504e+01  -4.980861e+01
   4.403257e+01  -4.302421e+01
   3.620660e+01  -5.919829e+01
   5.653729e+01  -5.091949e+01
   8.317275e+01   1.043282e+01
   7.537252e+01   9.689933e+01
   1.690447e+01   1.421432e+02
  -6.217774e+01   1.039038e+02
  -1.054058e+02   5.328991e+00
  -7.748678e+01  -8.100221e+01
  -3.731109e+00  -9.770832e+01
   4.984901e+01  -4.861298e+01
   4.112051e+01   1.206465e+01
  -3.769176e+00   3.672689e+01
  -2.104647e+01   2.387060e+01
   1.424570e+01   6.680352e+00
   5.431187e+01   9.433383e+00
   3.389559e+01   2.472059e+01
  -4.734594e+01   2.534229e+01
  -1.134788e+02  -2.117302e+00
  -9.264125e+01  -4.210048e+01
   3.154982e+00  -6.358101e+01
   8.807851e+01  -4.673598e+01
   9.223048e+01  -2.758030e+00
   2.739839e+01   3.311819e+01
  -3.742434e+01   2.925067e+01
  -4.987066e+01  -1.093497e+01
  -1.534672e+01  -4.846442e+01
   2.640432e+01  -4.509898e+01
   4.551222e+01  -3.701207e+00
   4.182103e+01   3.229177e+01
   3.371451e+01   2.854389e+01
   3.431970e+01   1.373935e+00
   4.057242e+01   1.349294e+00
   3.044771e+01   4.828424e+01
  -1.500218e+01   1.004376e+02
  -8.186327e+01   9.515112e+01
  -1.198942e+02   2.231294e+01
  -8.694435e+01  -6.082744e+01
  -1.916155e+00  -8.694008e+01
   6.018296e+01  -4.739123e+01
   4.126672e+01   4.428199e+00
  -3.515903e+01   1.331183e+01
  -8.312041e+01  -2.462548e+01
  -4.405497e+01  -6.587095e+01
   5.194617e+01  -6.789950e+01
   1.175187e+02  -2.672163e+01
   9.747036e+01   2.592153e+01
   1.911975e+01   5.247371e+01
  -3.998494e+01   3.671890e+01
  -3.042077e+01  -1.812869e+00
   2.502617e+01  -2.022855e+01
   5.893485e+01   1.084866e+01
   2.796701e+01   7.175232e+01
  -4.570051e+01   9.964393e+01
  -9.657035e+01   4.851183e+01
  -8.055378e+01  -5.401958e+01
  -1.327071e+01  -1.199455e+02
   4.991102e+01  -8.844478e+01
   6.521840e+01   8.050065e+00
   3.375220e+01   7.642539e+01
  -1.054780e+01   6.397262e+01
  -3.404838e+01   7.502931e+00
  -2.754797e+01  -2.097017e+01
  -8.488551e+00  -4.487248e+00
  -3.237561e+00   1.054947e+01
  -2.003380e+01  -1.421393e+01
  -3.644040e+01  -5.611844e+01
  -1.876795e+01  -6.410717e+01
   3.553729e+01  -2.578567e+01
   8.412424e+01   2.217117e+01
   7.631333e+01   4.231293e+01
   1.312385e+01   3.426486e+01
  -4.829540e+01   1.835421e+01
  -5.454299e+01   4.418401e+00
  -1.385510e+01  -7.909134e+00
   1.959469e+01  -1.391486e+01
   1.364343e+01  -7.297892e+00
  -6.982113e+00   3.040376e+00
   1.451524e+00   3.011417e+00
   3.929745e+01  -1.760803e+00
   5.787022e+01   1.278823e+01
   1.697869e+01   5.100233e+01
  -6.368170e+01   7.600305e+01
  -1.182624e+02   4.515111e+01
  -9.980128e+01  -3.342565e+01
  -2.414656e+01  -9.934818e+01
   4.938090e+01  -9.976820e+01
   7.402752e+01  -4.431701e+01
   5.162088e+01   1.063920e+01
   1.768313e+01   2.452954e+01
   2.829439e+00   9.843886e+00
   9.162222e+00   7.053756e+00
   1.800653e+01   3.180442e+01
   1.000244e+01   5.726359e+01
  -1.822987e+01   4.488537e+01
  -4.874637e+01  -8.246798e+00
  -5.196440e+01  -6.147568e+01
  -1.266854e+01  -6.866726e+01
   4.466457e+01  -2.274362e+01
   6.791445e+01   3.740860e+01
   2.813534e+01   6.464776e+01
  -3.969560e+01   4.349686e+01
  -6.829332e+01  -2.978898e+00
  -3.197289e+01  -3.859776e+01
   2.116489e+01  -4.264346e+01
   2.755024e+01  -2.012674e+01
  -1.376974e+01   4.761066e+00
  -4.184333e+01   6.735375e+00
  -1.189167e+01  -1.742596e+01
   4.883908e+01  -4.166808e+01
   7.664949e+01  -3.274401e+01
   4.638736e+01   1.202539e+01
  -7.536763e+00   5.464779e+01
  -3.745642e+01   5.373789e+01
  -3.080975e+01   9.790067e+00
  -6.917953e+00  -3.257132e+01
   1.412798e+01  -3.254268e+01
   2.413180e+01   3.668254e+00
   1.956940e+01   3.335810e+01
   4.280182e-01   2.712319e+01
  -2.171185e+01  -1.268675e+00
  -2.777142e+01  -1.633126e+01
  -1.357726e+01  -4.596396e+00
   3.485292e+00   1.241149e+01
   4.896956e+00   6.677461e+00
  -3.886157e+00  -1.941231e+01
  -2.095159e+00  -3.439998e+01
   1.626877e+01  -1.650867e+01
   2.873584e+01   1.990414e+01
   1.218044e+01   3.782991e+01
  -2.413876e+01   1.845121e+01
  -4.171117e+01  -1.846726e+01
  -1.462010e+01  -3.729385e+01
   3.555787e+01  -2.417548e+01
   5.989125e+01   4.935476e+00
   3.326465e+01   2.620258e+01
  -1.680771e+01   2.980577e+01
  -4.031984e+01   1.977449e+01
  -1.861611e+01   5.406509e+00
   1.622981e+01  -3.238698e+00
   2.054095e+01   1.958022e+00
  -1.211181e+01   1.538056e+01
  -4.594914e+01   1.516528e+01
