
 $NMID
 id='ANONYMOUS ', fmtdat='(2E16.6)'
 volume=1.0
 tramp=1.0
 $END
   2.865026e+03  -5.569218e+01
   1.899014e+03   1.438052e+03
   1.785695e+02   1.838971e+03
  -1.037720e+03   1.280489e+03
  -8.396564e+02   1.020981e+02
  -5.423250e+01  -2.078961e+02
   2.832834e+02   7.109400e+01
   3.464612e+01   5.323733e+02
  -2.792163e+02   5.655976e+02
  -6.691601e+02   8.626291e+01
  -4.234338e+02  -4.622427e+02
  -1.989504e+01  -5.058180e+02
   2.679469e+02  -1.428642e+02
   2.466736e+02   3.322549e+02
  -9.522333e+01   4.734452e+02
  -3.115974e+02   1.268826e+02
  -2.791852e+02  -3.993538e+02
   1.312917e+02  -5.614577e+02
   4.296129e+02  -2.936768e+02
   4.216522e+02   1.443499e+02
   1.276621e+02   3.454210e+02
  -1.427392e+02   2.485878e+02
  -6.065734e+01   8.099103e+01
   1.872412e+02   1.049249e+02
   2.558278e+02   2.595085e+02
  -4.812114e+01   3.396483e+02
  -4.481587e+02   1.429719e+02
  -5.404937e+02  -1.801281e+02
  -1.762330e+02  -3.364426e+02
   3.194732e+02  -1.973458e+02
   4.618959e+02   1.310078e+02
   1.732541e+02   3.601676e+02
  -2.438420e+02   3.146698e+02
  -4.128536e+02   1.017746e+02
  -2.997947e+02  -1.365538e+02
  -8.861432e+01  -2.852242e+02
   3.265710e+01  -1.736667e+02
  -1.379126e+01   8.081473e+01
  -1.515877e+02   1.312151e+02
  -1.773755e+02  -1.454587e+02
  -1.115442e+01  -4.476138e+02
   2.349061e+02  -3.890862e+02
   3.152065e+02   2.743650e+01
   1.176595e+02   2.952705e+02
  -1.477209e+02   1.201364e+02
  -1.565937e+02  -2.545528e+02
   1.166279e+02  -3.583160e+02
   4.156094e+02  -4.158606e+01
   4.404381e+02   3.555147e+02
   1.248084e+02   4.720042e+02
  -2.861965e+02   2.499300e+02
  -4.815860e+02  -7.040032e+01
  -3.155263e+02  -2.500787e+02
   4.135075e+01  -2.192540e+02
   2.643771e+02  -7.944372e+01
   2.031987e+02   2.187377e+01
   1.366534e+01   2.017215e+01
  -3.820525e+01  -3.963686e+01
   9.936113e+01  -4.892972e+01
   2.182100e+02   4.815464e+01
   1.173915e+02   1.867979e+02
  -1.478746e+02   2.425381e+02
  -3.320794e+02   1.377960e+02
  -2.624544e+02  -9.523090e+01
   1.101204e+01  -3.144527e+02
   2.782169e+02  -3.499488e+02
   3.548677e+02  -1.456235e+02
   2.283981e+02   1.574280e+02
   4.796060e+01   3.323373e+02
  -3.471502e+01   2.927833e+02
  -1.993662e+01   1.690809e+02
  -3.002335e+01   1.159925e+02
  -1.326100e+02   1.177598e+02
  -2.431058e+02   4.602837e+01
  -2.302626e+02  -1.237812e+02
  -8.058817e+01  -2.439521e+02
   9.681440e+01  -1.727285e+02
   1.791864e+02   4.894878e+01
   1.186537e+02   2.349175e+02
  -5.103258e+01   2.353701e+02
  -2.334667e+02   5.556307e+01
  -2.865125e+02  -1.659887e+02
  -1.589417e+02  -2.814560e+02
   4.567964e+01  -2.459963e+02
   1.538284e+02  -1.409738e+02
   1.371687e+02  -7.311407e+01
   1.419849e+02  -6.597831e+01
   2.632058e+02  -3.331759e+01
   3.828469e+02   9.555227e+01
   2.934235e+02   2.864193e+02
  -3.054157e+01   4.106616e+02
  -3.615829e+02   3.645635e+02
  -4.484116e+02   1.547115e+02
  -2.663837e+02  -9.712784e+01
  -1.655818e+01  -2.304829e+02
   8.503250e+01  -1.789808e+02
   2.417045e+00  -3.417062e+01
  -1.152999e+02   3.015030e+01
  -1.179069e+02  -4.396933e+01
  -4.212501e+00  -1.349028e+02
   1.065576e+02  -9.572834e+01
   9.700773e+01   4.873880e+01
  -2.728875e+01   1.177771e+02
  -1.442963e+02  -7.201940e+00
  -1.332442e+02  -2.226114e+02
   2.375335e+01  -3.168266e+02
   2.289629e+02  -1.879294e+02
   3.341895e+02   6.598306e+01
   2.559748e+02   2.514879e+02
   4.879190e+01   2.554457e+02
  -1.256505e+02   1.252380e+02
  -1.390377e+02   1.313265e+00
  -2.758050e+01  -1.164047e+01
   4.913997e+01   6.185125e+01
  -6.661909e+00   1.072975e+02
  -1.186195e+02   5.930314e+01
  -1.367686e+02  -2.725786e+01
  -2.924292e+01  -4.937298e+01
   7.357964e+01   1.668204e+01
   3.061814e+01   8.919825e+01
  -1.432876e+02   7.699210e+01
  -2.816443e+02  -3.112744e+01
  -2.344001e+02  -1.690546e+02
  -1.753966e+01  -2.477859e+02
   1.999474e+02  -2.123696e+02
   2.515587e+02  -8.216124e+01
   1.265703e+02   4.546532e+01
  -2.831719e+01   7.054901e+01
  -5.764149e+01  -6.817552e+00
   5.284019e+01  -7.325765e+01
   1.737410e+02  -2.620978e+01
   1.742530e+02   1.000471e+02
   5.026697e+01   1.751098e+02
  -8.391168e+01   1.247910e+02
  -1.158825e+02   1.505899e+01
  -4.055270e+01  -3.159701e+01
   4.100421e+01   2.463624e+01
   2.212791e+01   1.069066e+02
  -9.768576e+01   1.096463e+02
  -2.019412e+02   5.433447e+00
  -1.687479e+02  -1.321927e+02
  -5.215634e+00  -1.960379e+02
   1.484257e+02  -1.368903e+02
   1.622462e+02  -7.249875e+00
   4.902812e+01   8.727616e+01
  -5.894165e+01   8.484465e+01
  -6.476200e+01   1.949523e+01
   1.923364e+00  -2.425521e+01
   3.810070e+01  -7.630598e+00
  -7.741199e+00   2.515694e+01
  -8.447444e+01   1.177740e+00
  -9.843155e+01  -8.831201e+01
  -5.561286e+00  -1.663700e+02
   1.401970e+02  -1.411804e+02
   2.258402e+02  -3.466693e+00
   1.767643e+02   1.537216e+02
   2.984848e+01   2.151545e+02
  -9.723842e+01   1.476419e+02
  -1.209602e+02   2.787274e+01
  -6.890561e+01  -4.089054e+01
  -3.289535e+01  -2.710691e+01
  -5.282819e+01   1.242173e+01
  -8.195459e+01   5.481384e+00
  -5.399918e+01  -5.586789e+01
   3.754357e+01  -1.020186e+02
   1.181327e+02  -6.370390e+01
   1.029046e+02   4.453358e+01
  -1.878506e+01   1.236421e+02
  -1.590639e+02   8.186828e+01
  -1.948978e+02  -6.951085e+01
  -7.277023e+01  -2.066904e+02
   1.271982e+02  -2.079545e+02
   2.568841e+02  -6.983078e+01
   2.287621e+02   9.166085e+01
   8.926320e+01   1.622624e+02
  -3.963308e+01   1.297689e+02
  -8.314628e+01   7.425255e+01
  -6.474887e+01   6.581619e+01
  -5.544251e+01   8.988383e+01
  -8.743498e+01   7.576215e+01
  -1.264891e+02  -1.763246e+01
  -1.121239e+02  -1.465796e+02
  -2.168366e+01  -2.132321e+02
   9.812055e+01  -1.552504e+02
   1.612766e+02  -7.680098e+00
   1.165587e+02   1.218763e+02
   4.236739e+00   1.468694e+02
  -7.485722e+01   7.411084e+01
  -6.015135e+01  -1.591432e+01
   5.991936e+00  -5.304023e+01
   2.902551e+01  -3.552572e+01
  -2.302107e+01  -1.198676e+01
  -7.876189e+01  -1.728807e+01
  -4.642389e+01  -3.868104e+01
   7.148775e+01  -3.717525e+01
   1.665569e+02   5.291764e+00
   1.357314e+02   6.459829e+01
  -3.864321e+00   9.458380e+01
  -1.294600e+02   6.723435e+01
  -1.365102e+02   1.098275e+00
  -3.929047e+01  -4.983891e+01
   5.812664e+01  -4.123267e+01
   7.431414e+01   1.837620e+01
   1.884435e+01   7.121825e+01
  -4.239689e+01   6.434815e+01
  -6.510858e+01   4.096394e+00
  -5.618725e+01  -4.763772e+01
  -4.655456e+01  -4.203442e+01
  -5.245283e+01  -2.932820e+00
  -6.157782e+01  -1.791754e+00
  -4.269674e+01  -6.918760e+01
   2.555099e+01  -1.452244e+02
   1.207869e+02  -1.381962e+02
   1.735584e+02  -3.131502e+01
   1.248129e+02   9.052378e+01
   1.609553e+00   1.265464e+02
  -8.782556e+01   6.591107e+01
  -5.824311e+01  -9.779544e+00
   5.521577e+01  -1.848588e+01
   1.250209e+02   4.107542e+01
   6.413435e+01   1.019922e+02
  -8.081303e+01   1.025975e+02
  -1.784901e+02   3.825024e+01
  -1.462228e+02  -4.215863e+01
  -2.686864e+01  -8.105839e+01
   6.176151e+01  -5.519439e+01
   4.548046e+01   3.593270e+00
  -3.912968e+01   2.968251e+01
  -8.838699e+01  -1.944571e+01
  -3.787515e+01  -1.097806e+02
   7.529064e+01  -1.470330e+02
   1.494736e+02  -6.656049e+01
   1.192647e+02   8.560660e+01
   1.453734e+01   1.806210e+02
  -7.847842e+01   1.318619e+02
  -9.774095e+01  -1.150097e+01
  -4.975003e+01  -1.137359e+02
   1.457641e+01  -9.636129e+01
   4.904605e+01  -1.273300e+01
   4.134566e+01   3.101508e+01
   1.465874e+01   6.425282e+00
   5.963006e+00  -1.725208e+01
   2.950058e+01   2.011163e+01
   5.397488e+01   8.565117e+01
   2.860409e+01   9.944654e+01
  -5.367909e+01   3.916143e+01
  -1.268170e+02  -3.625382e+01
  -1.137498e+02  -6.654678e+01
  -1.696693e+01  -5.066135e+01
   7.449805e+01  -2.401000e+01
   8.022632e+01  -4.670063e+00
   1.653106e+01   1.085117e+01
  -3.138122e+01   1.910615e+01
  -1.772167e+01   1.094529e+01
   1.415675e+01  -3.754000e+00
  -2.412160e+00  -4.610938e+00
  -6.222345e+01   1.484496e+00
  -8.790271e+01  -2.030108e+01
  -2.167299e+01  -7.658453e+01
   9.999492e+01  -1.118619e+02
   1.776871e+02  -6.351224e+01
   1.454360e+02   5.405618e+01
   3.160351e+01   1.496497e+02
  -7.562695e+01   1.467822e+02
  -1.102449e+02   6.274497e+01
  -7.616624e+01  -1.776870e+01
  -2.558080e+01  -3.609850e+01
  -3.109393e+00  -1.270455e+01
  -1.320184e+01  -8.365033e+00
  -2.738688e+01  -4.687089e+01
  -1.550016e+01  -8.635947e+01
   2.774686e+01  -6.781412e+01
   7.309268e+01   1.406283e+01
   7.514437e+01   9.541988e+01
   1.450692e+01   1.037499e+02
  -6.942521e+01   3.090515e+01
  -9.986264e+01  -5.983999e+01
  -3.919257e+01  -9.665409e+01
   5.941195e+01  -6.172228e+01
   9.891224e+01   5.827772e+00
   4.469477e+01   5.472699e+01
  -3.197153e+01   5.950729e+01
  -3.900187e+01   2.885488e+01
   2.316535e+01  -5.085637e+00
   6.402048e+01  -8.418554e+00
   1.735122e+01   2.568494e+01
  -7.469141e+01   6.147835e+01
  -1.159259e+02   4.909312e+01
  -6.920294e+01  -1.734774e+01
   1.220262e+01  -8.155046e+01
   5.581172e+01  -7.973366e+01
   4.409179e+01  -1.353473e+01
   8.346896e+00   4.881196e+01
  -2.128419e+01   4.651699e+01
  -3.485087e+01  -7.888891e+00
  -2.816121e+01  -5.015366e+01
  -7.861596e-01  -3.856335e+01
   3.064705e+01   3.479415e+00
   4.007690e+01   2.336773e+01
   2.039991e+01   4.407836e+00
  -3.445754e+00  -1.964007e+01
  -5.727172e+00  -9.503762e+00
   5.404382e+00   2.923566e+01
   1.186140e+00   5.068007e+01
  -2.460148e+01   2.312617e+01
  -4.004804e+01  -3.038305e+01
  -1.475395e+01  -5.523992e+01
   3.648285e+01  -2.495039e+01
   5.926254e+01   2.927807e+01
   1.915021e+01   5.512088e+01
  -5.335519e+01   3.375863e+01
  -8.809031e+01  -9.830449e+00
  -4.816810e+01  -3.988560e+01
   2.679856e+01  -4.294270e+01
   6.147260e+01  -2.725040e+01
   2.750673e+01  -7.029658e+00
  -2.643503e+01   3.551483e+00
  -3.177585e+01  -5.327919e+00
   2.028569e+01  -2.377353e+01
   7.182832e+01  -2.055546e+01
