
 $NMID
 id='ANONYMOUS ', fmtdat='(2E16.6)'
 volume=1.0
 tramp=1.0
 $END
  -1.479846e+03   9.244310e+01
  -1.085005e+03  -8.322566e+02
   1.324087e+02  -8.090878e+02
   4.447860e+02  -4.686383e+02
   3.203482e+02  -2.324637e+02
  -1.293018e+01   4.029259e+01
  -9.021698e+01  -5.593664e+01
   4.088995e+01  -2.216669e+02
   1.624948e+02  -2.226022e+02
   2.871557e+02  -3.900969e+00
   1.399214e+02   2.033436e+02
  -5.936184e+01   2.703303e+02
  -1.726156e+02   4.835719e+01
  -1.140325e+02  -1.720616e+02
  -1.691819e+01  -2.387637e+02
   2.143471e+02  -3.852463e+01
   1.247079e+02   2.159180e+02
  -7.572531e+01   3.261029e+02
  -2.401012e+02   1.436354e+02
  -2.178875e+02  -6.551235e+01
  -7.553601e+01  -1.719184e+02
   3.295774e+01  -1.234647e+02
   3.042846e+01  -1.671248e+01
  -1.129580e+02  -7.813154e+01
  -1.028584e+02  -1.527417e+02
   3.811262e+01  -1.814895e+02
   2.407431e+02  -5.631617e+01
   2.862305e+02   9.434040e+01
   8.481915e+01   1.543803e+02
  -1.538312e+02   5.457320e+01
  -2.034157e+02  -9.223493e+01
  -4.613235e+01  -1.491684e+02
   1.324245e+02  -1.407678e+02
   1.994680e+02  -4.958520e+01
   1.394772e+02   6.757595e+01
   3.565258e+01   1.280800e+02
   4.129948e+00   7.727282e+01
   5.404111e+01  -2.713112e+01
   8.669893e+01  -4.887542e+01
   6.419594e+01   6.274808e+01
  -3.042400e+01   2.033654e+02
  -9.186945e+01   1.663409e+02
  -9.995298e+01   2.528967e+00
  -3.033878e+01  -1.092286e+02
   4.130009e+01  -2.737061e+01
   3.833981e+01   1.322844e+02
  -6.527432e+01   1.569255e+02
  -1.872621e+02   5.767414e+00
  -2.013224e+02  -1.787499e+02
  -7.467247e+01  -2.074004e+02
   1.172524e+02  -9.404196e+01
   2.141045e+02   4.300236e+01
   1.504856e+02   9.768488e+01
  -1.878203e+00   7.823682e+01
  -1.104164e+02   3.928658e+01
  -1.043839e+02   1.790426e+01
  -3.000455e+01   9.155049e+00
   9.450786e+00   7.428116e+00
  -3.225676e+01   2.390635e+00
  -8.979669e+01  -2.090482e+01
  -6.247771e+01  -6.709052e+01
   6.066245e+01  -1.014585e+02
   1.651903e+02  -6.925059e+01
   1.334854e+02   4.079924e+01
  -1.956160e+01   1.561442e+02
  -1.568979e+02   1.747277e+02
  -1.716292e+02   6.927389e+01
  -8.849918e+01  -7.743364e+01
  -1.171975e+01  -1.552538e+02
   3.936308e+00  -1.383111e+02
  -3.747841e+00  -8.737565e+01
   2.271741e+01  -6.114691e+01
   8.123775e+01  -4.867491e+01
   1.197948e+02  -4.055188e+00
   9.821897e+01   7.142203e+01
   2.858382e+01   1.158438e+02
  -4.518323e+01   7.500133e+01
  -8.054945e+01  -2.958017e+01
  -5.535247e+01  -1.139740e+02
   2.875381e+01  -1.070811e+02
   1.137692e+02  -1.649938e+01
   1.385279e+02   8.808671e+01
   7.745921e+01   1.358778e+02
  -1.578954e+01   1.205706e+02
  -7.069973e+01   7.935341e+01
  -7.378476e+01   5.256972e+01
  -8.069727e+01   4.074891e+01
  -1.424046e+02   1.392453e+01
  -1.924113e+02  -5.341072e+01
  -1.460563e+02  -1.426865e+02
   1.522903e+01  -2.023314e+02
   1.775206e+02  -1.821111e+02
   2.166604e+02  -7.711196e+01
   1.210791e+02   4.569625e+01
   1.596604e+00   1.061750e+02
  -3.482352e+01   8.087702e+01
   7.153739e+00   2.104225e+01
   5.424378e+01  -5.681163e+00
   4.639091e+01   2.023536e+01
  -5.887605e+00   5.302191e+01
  -4.723299e+01   3.689979e+01
  -3.811021e+01  -2.055991e+01
   1.498722e+01  -4.747874e+01
   6.622311e+01   5.236641e+00
   6.517681e+01   1.066599e+02
  -9.538865e+00   1.568637e+02
  -1.143863e+02   9.817223e+01
  -1.721627e+02  -3.105631e+01
  -1.311504e+02  -1.278703e+02
  -2.361092e+01  -1.275052e+02
   6.135316e+01  -5.807546e+01
   6.418201e+01   1.652812e-01
   1.101178e+01  -5.242168e-01
  -2.023930e+01  -3.604185e+01
   7.930890e+00  -5.110700e+01
   5.684216e+01  -2.312858e+01
   6.019825e+01   1.596343e+01
   7.813721e+00   2.185053e+01
  -3.926472e+01  -1.292380e+01
  -1.418363e+01  -4.883111e+01
   7.465023e+01  -4.297564e+01
   1.446263e+02   1.277209e+01
   1.180100e+02   8.470418e+01
   5.575054e+00   1.239429e+02
  -1.014163e+02   1.035880e+02
  -1.204905e+02   3.903229e+01
  -5.602384e+01  -1.984216e+01
   1.445529e+01  -2.987511e+01
   2.215760e+01   3.425458e+00
  -3.040293e+01   2.972322e+01
  -8.209505e+01   6.499685e+00
  -7.805186e+01  -4.984218e+01
  -1.941880e+01  -8.104486e+01
   4.137266e+01  -5.482841e+01
   5.395039e+01  -3.044737e+00
   1.594215e+01   1.559492e+01
  -2.263368e+01  -1.689290e+01
  -1.020532e+01  -5.807988e+01
   5.101500e+01  -5.479321e+01
   1.005177e+02   1.445915e+00
   8.102579e+01   6.760632e+01
   8.471372e-01   9.331263e+01
  -7.161221e+01   6.244012e+01
  -7.578100e+01   3.250302e+00
  -2.237649e+01  -3.917846e+01
   2.765194e+01  -3.875723e+01
   2.899670e+01  -1.034025e+01
  -3.454630e+00   9.213329e+00
  -1.994287e+01   3.573480e-01
   5.553157e+00  -1.596782e+01
   4.756902e+01  -2.556491e+00
   5.379302e+01   4.494666e+01
   4.117851e+00   8.564267e+01
  -7.107944e+01   7.122173e+01
  -1.114516e+02   2.989756e-01
  -8.444246e+01  -7.643637e+01
  -1.293117e+01  -1.024235e+02
   4.563915e+01  -6.915658e+01
   5.543363e+01  -1.410392e+01
   3.234238e+01   1.706483e+01
   1.617004e+01   1.013762e+01
   2.808513e+01  -8.388365e+00
   4.528401e+01  -3.259848e+00
   3.023915e+01   3.006429e+01
  -1.938297e+01   5.512711e+01
  -6.356117e+01   3.391695e+01
  -5.567139e+01  -2.439022e+01
   9.283927e+00  -6.570831e+01
   8.226131e+01  -4.019809e+01
   9.639635e+01   3.722902e+01
   3.244245e+01   1.023907e+02
  -6.656427e+01   9.703823e+01
  -1.257884e+02   2.804326e+01
  -1.075050e+02  -4.700457e+01
  -3.923191e+01  -7.619990e+01
   2.215862e+01  -5.875142e+01
   4.099713e+01  -3.352461e+01
   3.123725e+01  -3.166702e+01
   2.616415e+01  -4.494447e+01
   4.243066e+01  -3.747932e+01
   6.125529e+01   1.044029e+01
   5.363508e+01   7.489737e+01
   8.815259e+00   1.063019e+02
  -4.873118e+01   7.460264e+01
  -7.790673e+01   1.278638e-01
  -5.516961e+01  -6.252192e+01
  -9.126517e-01  -7.147432e+01
   3.671467e+01  -3.269249e+01
   2.856334e+01   1.184601e+01
  -5.075141e+00   2.743852e+01
  -1.698847e+01   1.571925e+01
   1.015495e+01   2.923110e+00
   3.985228e+01   6.551141e+00
   2.392935e+01   1.862575e+01
  -3.639709e+01   1.778225e+01
  -8.357975e+01  -4.303281e+00
  -6.582548e+01  -3.375763e+01
   5.212505e+00  -4.693809e+01
   6.604815e+01  -3.170478e+01
   6.727481e+01   1.164601e+00
   1.894405e+01   2.503188e+01
  -2.840077e+01   1.972889e+01
  -3.722358e+01  -9.859773e+00
  -1.096799e+01  -3.573419e+01
   2.033423e+01  -3.137567e+01
   3.413000e+01  -1.326732e+00
   3.001841e+01   2.378876e+01
   2.274607e+01   1.974888e+01
   2.471655e+01   2.176187e-01
   3.144571e+01   1.055618e+00
   2.362605e+01   3.627514e+01
  -1.233712e+01   7.400923e+01
  -6.300424e+01   6.902336e+01
  -8.893160e+01   1.414729e+01
  -6.134412e+01  -4.683651e+01
   2.731051e+00  -6.386605e+01
   4.640243e+01  -3.290831e+01
   2.965298e+01   5.648022e+00
  -2.789286e+01   1.071454e+01
  -6.206089e+01  -1.855524e+01
  -3.129211e+01  -4.916431e+01
   4.048399e+01  -4.930856e+01
   8.741864e+01  -1.728571e+01
   7.030040e+01   2.169968e+01
   1.157423e+01   3.945741e+01
  -3.074874e+01   2.612313e+01
  -2.187055e+01  -2.648663e+00
   1.946068e+01  -1.493906e+01
   4.285199e+01   9.435305e+00
   1.849458e+01   5.387809e+01
  -3.536649e+01   7.265600e+01
  -7.113683e+01   3.327800e+01
  -5.771839e+01  -4.212111e+01
  -7.507025e+00  -8.872894e+01
   3.851785e+01  -6.370695e+01
   4.839858e+01   7.945253e+00
   2.359776e+01   5.744243e+01
  -9.366206e+00   4.720307e+01
  -2.546252e+01   5.498681e+00
  -1.926117e+01  -1.532771e+01
  -5.646423e+00  -3.229426e+00
  -3.472432e+00   6.986544e+00
  -1.648330e+01  -1.197352e+01
  -2.705238e+01  -4.254692e+01
  -1.152786e+01  -4.728102e+01
   2.901416e+01  -1.808869e+01
   6.273780e+01   1.746509e+01
   5.485580e+01   3.241263e+01
   7.908476e+00   2.596186e+01
  -3.616441e+01   1.315066e+01
  -3.989478e+01   2.024298e+00
  -9.858543e+00  -6.798532e+00
   1.482861e+01  -1.002361e+01
   1.014603e+01  -4.696382e+00
  -5.164368e+00   2.347901e+00
   9.066641e-01   1.822295e+00
   2.922066e+01  -1.505702e+00
   4.324528e+01   9.729607e+00
   1.258000e+01   3.798001e+01
  -4.811617e+01   5.566705e+01
  -8.876398e+01   3.219477e+01
  -7.389044e+01  -2.601067e+01
  -1.607556e+01  -7.430962e+01
   3.869451e+01  -7.389999e+01
   5.591948e+01  -3.234199e+01
   3.804773e+01   9.018312e+00
   1.239569e+01   1.883822e+01
   1.528401e+00   7.553849e+00
   6.513803e+00   4.804103e+00
   1.321974e+01   2.303031e+01
   7.703909e+00   4.207952e+01
  -1.279294e+01   3.304308e+01
  -3.563099e+01  -5.997663e+00
  -3.801477e+01  -4.543784e+01
  -8.812549e+00  -5.112535e+01
   3.390425e+01  -1.724255e+01
   5.077254e+01   2.785098e+01
   2.084738e+01   4.893549e+01
  -2.965188e+01   3.352941e+01
  -5.028056e+01  -2.071867e+00
  -2.281202e+01  -2.963020e+01
   1.655616e+01  -3.198475e+01
   2.122151e+01  -1.346844e+01
  -9.747210e+00   5.777349e+00
  -3.135138e+01   6.415320e+00
  -1.021881e+01  -1.239111e+01
   3.446407e+01  -3.010680e+01
   5.581257e+01  -2.369310e+01
   3.419028e+01   8.642094e+00
  -5.614092e+00   3.926292e+01
  -2.805075e+01   3.867759e+01
  -2.308696e+01   7.036037e+00
  -4.935042e+00  -2.384185e+01
   1.081543e+01  -2.400100e+01
   1.784719e+01   3.132859e+00
   1.382001e+01   2.532593e+01
   1.127681e-01   2.044619e+01
  -1.603096e+01  -1.815137e+00
  -2.039497e+01  -1.335620e+01
  -9.971463e+00  -3.393948e+00
   2.603703e+00   1.075222e+01
   3.458779e+00   6.540982e+00
  -3.672821e+00  -1.441620e+01
  -2.359298e+00  -2.703665e+01
   1.203858e+01  -1.352424e+01
   2.248650e+01   1.492265e+01
   1.002854e+01   2.905972e+01
  -1.803604e+01   1.461684e+01
  -3.178450e+01  -1.321732e+01
  -1.161095e+01  -2.754684e+01
   2.626218e+01  -1.816619e+01
   4.467583e+01   3.472875e+00
   2.478083e+01   1.974274e+01
  -1.276574e+01   2.291561e+01
  -3.076229e+01   1.541027e+01
  -1.551466e+01   3.619466e+00
   1.025123e+01  -3.776023e+00
   1.463920e+01  -2.809397e-01
  -8.005627e+00   9.921472e+00
  -3.233522e+01   1.043421e+01
