
 $NMID
 id='ANONYMOUS ', fmtdat='(2E16.6)'
 volume=1.0
 tramp=1.0
 $END
   2.906412e+03  -2.620572e+01
   1.987394e+03   1.647138e+03
  -1.993541e+02   2.092841e+03
  -1.263221e+03   1.147907e+03
  -1.032204e+03  -5.721334e+01
  -6.813534e+00  -3.869809e+02
   4.886749e+02   2.280344e+02
   4.700598e+01   5.269514e+02
  -4.398182e+02   6.210469e+02
  -7.076496e+02   1.718181e+00
  -4.370847e+02  -4.430447e+02
   5.926079e+01  -6.748436e+02
   3.421317e+02  -1.802350e+02
   2.904109e+02   4.221730e+02
  -1.349799e+02   5.686790e+02
  -3.992471e+02   1.241454e+02
  -3.265011e+02  -4.893778e+02
   1.532419e+02  -5.956769e+02
   5.102526e+02  -2.245195e+02
   4.869351e+02   1.939024e+02
   1.258344e+02   3.375302e+02
  -1.314606e+02   2.485332e+02
  -9.968374e+01   4.486381e+01
   1.400996e+02   4.055840e+01
   2.691153e+02   2.153964e+02
   7.588922e+01   3.648330e+02
  -4.217229e+02   2.469862e+02
  -5.919137e+02  -1.130403e+02
  -2.509603e+02  -3.672421e+02
   3.105237e+02  -2.836680e+02
   5.212284e+02   7.845861e+01
   2.375491e+02   3.655222e+02
  -2.174063e+02   3.949052e+02
  -4.317781e+02   1.535337e+02
  -3.315511e+02  -1.528132e+02
  -8.752136e+01  -3.303450e+02
   5.951093e+01  -2.111271e+02
   1.355440e+01   1.004503e+02
  -1.494710e+02   2.177510e+02
  -2.578811e+02  -9.215585e+01
  -6.772257e+01  -5.019021e+02
   2.492722e+02  -4.764160e+02
   3.834876e+02  -1.345198e+01
   1.502176e+02   3.655550e+02
  -1.817168e+02   1.907389e+02
  -2.325379e+02  -2.669823e+02
   8.640059e+01  -4.157432e+02
   4.432674e+02  -8.621406e+01
   4.896483e+02   3.426105e+02
   1.565041e+02   4.801771e+02
  -2.927213e+02   2.708173e+02
  -5.140371e+02  -5.537481e+01
  -3.345193e+02  -2.620308e+02
   6.045193e+01  -2.462717e+02
   3.107492e+02  -7.365327e+01
   2.181170e+02   6.586221e+01
  -1.857255e+01   4.417859e+01
  -7.337425e+01  -7.352361e+01
   1.046668e+02  -9.666579e+01
   2.458660e+02   4.063191e+01
   1.317680e+02   2.076327e+02
  -1.418990e+02   2.478050e+02
  -3.067641e+02   1.305784e+02
  -2.254045e+02  -7.537665e+01
   1.827785e+01  -2.720435e+02
   2.451661e+02  -3.334627e+02
   3.222548e+02  -1.674101e+02
   2.299302e+02   1.441195e+02
   6.618648e+01   3.559753e+02
  -3.421978e+01   3.191205e+02
  -3.352449e+01   1.562925e+02
  -2.831899e+01   8.214626e+01
  -1.113253e+02   1.145081e+02
  -2.295736e+02   8.017954e+01
  -2.451179e+02  -8.993229e+01
  -1.090154e+02  -2.452980e+02
   7.984109e+01  -2.000177e+02
   1.911272e+02   2.306546e+01
   1.479439e+02   2.287633e+02
  -2.784503e+01   2.514057e+02
  -2.319347e+02   8.115986e+01
  -3.012100e+02  -1.487427e+02
  -1.686703e+02  -2.835202e+02
   4.987650e+01  -2.569552e+02
   1.601930e+02  -1.379188e+02
   1.341116e+02  -5.634219e+01
   1.245789e+02  -5.791509e+01
   2.494485e+02  -4.805003e+01
   3.858530e+02   6.938819e+01
   3.142846e+02   2.653624e+02
  -5.824571e+00   4.168738e+02
  -3.453247e+02   3.930846e+02
  -4.507853e+02   1.899036e+02
  -2.864854e+02  -8.315672e+01
  -3.500667e+01  -2.488811e+02
   8.708023e+01  -2.070096e+02
   2.311220e+01  -3.615930e+01
  -1.095068e+02   5.785395e+01
  -1.378754e+02  -2.234606e+01
  -2.206352e+01  -1.465074e+02
   1.131773e+02  -1.196587e+02
   1.182023e+02   4.708919e+01
  -1.888224e+01   1.376884e+02
  -1.571267e+02   1.299316e+01
  -1.525820e+02  -2.221751e+02
   9.208574e+00  -3.271075e+02
   2.175379e+02  -2.008398e+02
   3.344903e+02   5.007303e+01
   2.748112e+02   2.377358e+02
   7.447773e+01   2.552323e+02
  -1.158876e+02   1.374913e+02
  -1.499950e+02   1.177440e+01
  -3.894332e+01  -1.431436e+01
   5.565948e+01   5.410350e+01
   7.898208e+00   1.102961e+02
  -1.161925e+02   7.370978e+01
  -1.474521e+02  -1.574492e+01
  -3.660279e+01  -5.223840e+01
   7.861389e+01   1.778470e+00
   4.138333e+01   7.894350e+01
  -1.352455e+02   8.481461e+01
  -2.819320e+02  -7.001178e+00
  -2.456773e+02  -1.459564e+02
  -3.535481e+01  -2.450525e+02
   1.868117e+02  -2.310820e+02
   2.524740e+02  -1.026837e+02
   1.360800e+02   4.243563e+01
  -2.508659e+01   8.143542e+01
  -6.586817e+01  -7.809374e-01
   4.269705e+01  -8.136925e+01
   1.733446e+02  -4.050417e+01
   1.839174e+02   9.381428e+01
   6.205700e+01   1.790205e+02
  -7.842284e+01   1.321763e+02
  -1.203249e+02   1.974892e+01
  -5.044319e+01  -3.333659e+01
   3.620924e+01   1.703871e+01
   3.071987e+01   1.001023e+02
  -8.212578e+01   1.137613e+02
  -1.945585e+02   2.021742e+01
  -1.780027e+02  -1.197599e+02
  -2.050550e+01  -1.973668e+02
   1.419787e+02  -1.485728e+02
   1.670804e+02  -1.474996e+01
   5.738805e+01   9.082210e+01
  -5.513739e+01   9.405840e+01
  -6.733864e+01   2.630916e+01
  -4.919524e+00  -2.333336e+01
   3.141047e+01  -1.132730e+01
  -7.992012e+00   2.141664e+01
  -8.035656e+01   3.167555e+00
  -9.845493e+01  -7.979868e+01
  -1.641731e+01  -1.602132e+02
   1.256239e+02  -1.477890e+02
   2.199646e+02  -1.996199e+01
   1.852219e+02   1.398343e+02
   4.399933e+01   2.133513e+02
  -8.822875e+01   1.537312e+02
  -1.192250e+02   3.305110e+01
  -7.023433e+01  -4.011724e+01
  -3.269179e+01  -2.610044e+01
  -5.120926e+01   1.559161e+01
  -7.942269e+01   1.047947e+01
  -5.172828e+01  -4.926710e+01
   3.246715e+01  -9.578022e+01
   1.060537e+02  -6.357630e+01
   9.532093e+01   3.659230e+01
  -1.305778e+01   1.177471e+02
  -1.468217e+02   8.518704e+01
  -1.918663e+02  -5.578549e+01
  -8.731551e+01  -1.961824e+02
   1.086558e+02  -2.106974e+02
   2.479695e+02  -8.450135e+01
   2.324981e+02   7.750596e+01
   9.888573e+01   1.552083e+02
  -3.161088e+01   1.305688e+02
  -8.005603e+01   7.848122e+01
  -6.510745e+01   6.908384e+01
  -5.509166e+01   9.091788e+01
  -8.380451e+01   7.672393e+01
  -1.226398e+02  -1.401175e+01
  -1.143207e+02  -1.403062e+02
  -3.123097e+01  -2.097893e+02
   8.780981e+01  -1.589223e+02
   1.586400e+02  -1.690953e+01
   1.232606e+02   1.136927e+02
   1.537975e+01   1.455650e+02
  -6.610441e+01   8.024160e+01
  -5.849938e+01  -6.729273e+00
  -5.214488e-01  -4.646952e+01
   1.925194e+01  -3.470025e+01
  -2.912835e+01  -1.417540e+01
  -7.892110e+01  -1.756669e+01
  -4.586114e+01  -3.638229e+01
   6.701677e+01  -3.849377e+01
   1.598920e+02  -3.940707e+00
   1.360596e+02   5.240612e+01
   5.233255e+00   8.895402e+01
  -1.198187e+02   7.208196e+01
  -1.346617e+02   1.094483e+01
  -4.364834e+01  -4.341468e+01
   5.385452e+01  -4.119539e+01
   7.284384e+01   1.408699e+01
   1.860253e+01   6.559464e+01
  -4.155845e+01   6.012855e+01
  -6.159799e+01   3.689775e+00
  -5.197076e+01  -4.348371e+01
  -4.527214e+01  -3.688992e+01
  -5.406186e+01   9.951947e-01
  -6.280634e+01   6.442107e-01
  -4.328963e+01  -6.661935e+01
   2.153353e+01  -1.432665e+02
   1.118133e+02  -1.396652e+02
   1.647927e+02  -3.719088e+01
   1.233338e+02   8.344289e+01
   7.460179e+00   1.222681e+02
  -8.140961e+01   6.563016e+01
  -5.661529e+01  -8.349540e+00
   5.419396e+01  -1.932443e+01
   1.261332e+02   3.684246e+01
   6.891272e+01   9.814086e+01
  -7.521737e+01   1.044381e+02
  -1.763153e+02   4.748193e+01
  -1.488305e+02  -3.259183e+01
  -3.157291e+01  -7.904832e+01
   5.906538e+01  -6.089554e+01
   4.667222e+01  -2.119181e+00
  -3.602746e+01   3.034267e+01
  -8.727026e+01  -1.401266e+01
  -4.077440e+01  -1.053675e+02
   6.926552e+01  -1.469920e+02
   1.448604e+02  -7.070807e+01
   1.205273e+02   8.041253e+01
   2.135384e+01   1.775081e+02
  -7.088007e+01   1.336038e+02
  -9.644615e+01  -5.584307e+00
  -5.628548e+01  -1.085201e+02
   6.584939e+00  -9.598206e+01
   4.684662e+01  -1.632345e+01
   4.511549e+01   2.806678e+01
   1.798735e+01   6.356158e+00
   4.431022e+00  -1.671619e+01
   2.648096e+01   1.874071e+01
   5.532003e+01   8.281376e+01
   3.394555e+01   9.776939e+01
  -4.913037e+01   4.072601e+01
  -1.270924e+02  -3.167623e+01
  -1.166973e+02  -6.047580e+01
  -1.862479e+01  -4.664086e+01
   7.414479e+01  -2.476928e+01
   7.902196e+01  -8.592827e+00
   1.453177e+01   8.412692e+00
  -3.223350e+01   2.078360e+01
  -1.663441e+01   1.394381e+01
   1.487809e+01  -3.297574e+00
  -3.756960e+00  -5.798476e+00
  -6.422254e+01   1.930252e+00
  -8.836780e+01  -1.743753e+01
  -2.158443e+01  -7.456246e+01
   9.754432e+01  -1.137387e+02
   1.724900e+02  -6.855604e+01
   1.424239e+02   4.930161e+01
   3.493592e+01   1.470346e+02
  -6.843827e+01   1.467211e+02
  -1.049133e+02   6.463476e+01
  -7.514647e+01  -1.495369e+01
  -2.597913e+01  -3.365876e+01
  -2.562834e+00  -1.072509e+01
  -1.338486e+01  -6.019734e+00
  -3.117267e+01  -4.393447e+01
  -2.135559e+01  -8.426748e+01
   2.399319e+01  -6.820217e+01
   7.351411e+01   1.114085e+01
   7.772484e+01   9.176062e+01
   1.619306e+01   1.012839e+02
  -6.888747e+01   3.099805e+01
  -9.981182e+01  -5.689123e+01
  -4.049050e+01  -9.302371e+01
   5.608421e+01  -6.102497e+01
   9.475137e+01   2.274223e+00
   4.365808e+01   4.975107e+01
  -2.853355e+01   5.677574e+01
  -3.395946e+01   2.873686e+01
   2.597465e+01  -6.148760e+00
   6.394292e+01  -1.127439e+01
   1.806197e+01   2.456589e+01
  -7.039529e+01   6.538812e+01
  -1.096578e+02   5.629948e+01
  -6.571060e+01  -1.186469e+01
   9.273039e+00  -7.971534e+01
   4.901488e+01  -7.933229e+01
   3.915420e+01  -1.280553e+01
   7.833408e+00   4.868998e+01
  -1.950337e+01   4.490712e+01
  -3.380371e+01  -8.988706e+00
  -2.857449e+01  -4.797958e+01
  -1.470880e+00  -3.544292e+01
   3.030245e+01   3.739369e+00
   3.933747e+01   2.055336e+01
   1.967727e+01   2.388207e+00
  -3.713101e+00  -1.739406e+01
  -6.693251e+00  -4.916457e+00
   2.892623e+00   3.076321e+01
  -2.067793e+00   4.744169e+01
  -2.567523e+01   1.853279e+01
  -3.817274e+01  -3.287412e+01
  -1.205541e+01  -5.549632e+01
   3.714085e+01  -2.502108e+01
   5.872762e+01   2.877679e+01
   2.009085e+01   5.568230e+01
  -5.092070e+01   3.564221e+01
  -8.630105e+01  -7.367584e+00
  -4.860557e+01  -3.852860e+01
   2.503013e+01  -4.311761e+01
   5.970557e+01  -2.758884e+01
   2.551713e+01  -6.722352e+00
  -2.853568e+01   3.546927e+00
  -3.262412e+01  -6.611070e+00
   2.213763e+01  -2.627820e+01
   7.504809e+01  -2.311008e+01
