
 $NMID
 id='ANONYMOUS ', fmtdat='(2E16.6)'
 volume=1.0
 tramp=1.0
 $END
   2.757073e+03  -1.536638e+02
   1.776357e+03   1.331722e+03
   4.079874e+00   1.719901e+03
  -9.964641e+02   1.140719e+03
  -8.659597e+02   1.844107e+02
  -4.141092e+01  -2.369879e+02
   2.980110e+02   1.180461e+02
   1.435457e+02   3.903925e+02
  -3.414621e+02   5.241408e+02
  -5.676903e+02   1.437580e+02
  -3.911631e+02  -4.261612e+02
   3.195380e+01  -5.419184e+02
   2.287615e+02  -1.755168e+02
   2.457285e+02   3.677130e+02
  -1.424045e+02   4.703746e+02
  -3.913986e+02   9.692435e+01
  -2.348923e+02  -3.798381e+02
   7.843685e+01  -5.780276e+02
   4.133074e+02  -2.461031e+02
   3.801122e+02   1.808428e+02
   1.293710e+02   3.242552e+02
  -1.073442e+02   2.128783e+02
  -6.312911e+01   6.378822e+01
   1.292179e+02   5.739318e+01
   2.183865e+02   2.236355e+02
  -3.705467e+01   3.234703e+02
  -4.199300e+02   1.206685e+02
  -5.265826e+02  -1.704533e+02
  -1.550265e+02  -3.139187e+02
   2.893995e+02  -1.449406e+02
   4.287060e+02   1.456423e+02
   1.393645e+02   3.239664e+02
  -2.472793e+02   2.882536e+02
  -3.774221e+02   9.708831e+01
  -2.594696e+02  -1.478723e+02
  -6.198563e+01  -2.454741e+02
   6.979489e-01  -1.569327e+02
  -5.429014e+01   6.261480e+01
  -1.625812e+02   1.130131e+02
  -1.695073e+02  -1.277182e+02
   6.356700e+00  -4.163636e+02
   2.331346e+02  -3.655869e+02
   2.735736e+02   5.415219e-01
   9.388484e+01   2.566138e+02
  -1.351327e+02   1.073593e+02
  -1.412394e+02  -2.249979e+02
   1.052197e+02  -3.113859e+02
   3.786308e+02  -4.376680e+01
   3.996836e+02   3.187778e+02
   1.221366e+02   4.234272e+02
  -2.569936e+02   2.219567e+02
  -4.434963e+02  -6.176657e+01
  -2.902200e+02  -2.220108e+02
   4.046218e+01  -1.916121e+02
   2.462140e+02  -6.480096e+01
   1.848513e+02   2.832077e+01
   5.131229e+00   2.253343e+01
  -4.814986e+01  -3.568595e+01
   7.721981e+01  -4.516629e+01
   1.893437e+02   3.701679e+01
   1.055528e+02   1.531449e+02
  -1.305156e+02   2.019409e+02
  -2.957702e+02   1.194448e+02
  -2.285580e+02  -7.548094e+01
   2.312528e+01  -2.711657e+02
   2.578798e+02  -3.132981e+02
   3.107184e+02  -1.334474e+02
   1.863196e+02   1.442425e+02
   2.980464e+01   3.030993e+02
  -3.192347e+01   2.600021e+02
  -1.356413e+01   1.411949e+02
  -2.552836e+01   9.489535e+01
  -1.199491e+02   1.027365e+02
  -2.155142e+02   3.989430e+01
  -1.992716e+02  -1.131731e+02
  -6.458038e+01  -2.181641e+02
   8.789435e+01  -1.510131e+02
   1.589231e+02   4.829587e+01
   1.029465e+02   2.104490e+02
  -5.071497e+01   2.069482e+02
  -2.094024e+02   4.710519e+01
  -2.575915e+02  -1.493978e+02
  -1.353422e+02  -2.499512e+02
   4.716736e+01  -2.203219e+02
   1.374306e+02  -1.324055e+02
   1.167533e+02  -7.372449e+01
   1.247258e+02  -6.334229e+01
   2.419891e+02  -2.886743e+01
   3.558704e+02   9.148880e+01
   2.698535e+02   2.646050e+02
  -3.489933e+01   3.727223e+02
  -3.364189e+02   3.283494e+02
  -4.080129e+02   1.342443e+02
  -2.343223e+02  -8.974398e+01
  -7.497367e+00  -2.087640e+02
   7.863560e+01  -1.602217e+02
   1.956645e+00  -3.059630e+01
  -1.039320e+02   2.588664e+01
  -1.068852e+02  -3.899879e+01
   9.739896e-01  -1.191441e+02
   9.867035e+01  -8.089886e+01
   8.517668e+01   4.638434e+01
  -3.031561e+01   1.039254e+02
  -1.342782e+02  -9.020176e+00
  -1.209631e+02  -2.028617e+02
   2.352149e+01  -2.883060e+02
   2.080376e+02  -1.723081e+02
   3.034572e+02   5.600028e+01
   2.343779e+02   2.259427e+02
   4.885041e+01   2.317088e+02
  -1.086565e+02   1.137591e+02
  -1.241429e+02   2.206932e+00
  -2.585352e+01  -8.001848e+00
   4.253769e+01   5.801491e+01
  -7.146654e+00   9.740794e+01
  -1.060288e+02   5.251594e+01
  -1.203035e+02  -2.484877e+01
  -2.173070e+01  -4.303389e+01
   6.954107e+01   1.668203e+01
   2.649635e+01   8.232408e+01
  -1.340745e+02   7.297879e+01
  -2.602538e+02  -2.486875e+01
  -2.150331e+02  -1.527936e+02
  -1.408178e+01  -2.266607e+02
   1.846203e+02  -1.930726e+02
   2.284578e+02  -7.267657e+01
   1.105838e+02   4.202760e+01
  -3.047810e+01   6.162419e+01
  -5.282163e+01  -8.431493e+00
   5.022686e+01  -6.472039e+01
   1.575581e+02  -2.011508e+01
   1.542021e+02   9.219535e+01
   4.155715e+01   1.557853e+02
  -7.685216e+01   1.080046e+02
  -1.034737e+02   9.452878e+00
  -3.506317e+01  -3.040020e+01
   3.794596e+01   2.337121e+01
   2.119743e+01   9.942323e+01
  -8.706757e+01   1.009930e+02
  -1.818964e+02   4.789154e+00
  -1.522439e+02  -1.206454e+02
  -4.200348e+00  -1.765150e+02
   1.334581e+02  -1.223011e+02
   1.439274e+02  -5.937671e+00
   4.249145e+01   7.845410e+01
  -5.258918e+01   7.670849e+01
  -5.560197e+01   1.890618e+01
   3.346604e+00  -2.033314e+01
   3.323926e+01  -5.880140e+00
  -1.003187e+01   2.348406e+01
  -7.983770e+01   1.624068e+00
  -9.150391e+01  -8.091664e+01
  -5.003284e+00  -1.525349e+02
   1.288236e+02  -1.285855e+02
   2.052072e+02  -2.599542e+00
   1.581808e+02   1.404512e+02
   2.482722e+01   1.940486e+02
  -8.825212e+01   1.329782e+02
  -1.073288e+02   2.472212e+01
  -6.098329e+01  -3.663510e+01
  -2.984820e+01  -2.293730e+01
  -4.910903e+01   1.250152e+01
  -7.711401e+01   4.693444e+00
  -4.968314e+01  -5.161799e+01
   3.309726e+01  -9.280861e+01
   1.065242e+02  -5.753600e+01
   9.264552e+01   4.182683e+01
  -1.808630e+01   1.132974e+02
  -1.460162e+02   7.118641e+01
  -1.773504e+02  -6.851956e+01
  -6.444702e+01  -1.899712e+02
   1.187360e+02  -1.864020e+02
   2.351604e+02  -5.909123e+01
   2.068804e+02   8.563799e+01
   7.901286e+01   1.464692e+02
  -3.844011e+01   1.157778e+02
  -7.613558e+01   6.622540e+01
  -5.892143e+01   5.898217e+01
  -5.114351e+01   8.101511e+01
  -7.923890e+01   6.843642e+01
  -1.139661e+02  -1.665179e+01
  -1.000704e+02  -1.339766e+02
  -1.801675e+01  -1.941315e+02
   8.944064e+01  -1.397942e+02
   1.449173e+02  -5.073540e+00
   1.036334e+02   1.115488e+02
   2.705213e+00   1.323834e+02
  -6.741691e+01   6.536345e+01
  -5.332980e+01  -1.548011e+01
   5.698512e+00  -4.773238e+01
   2.552877e+01  -3.169556e+01
  -2.195616e+01  -1.126961e+01
  -7.175235e+01  -1.699460e+01
  -4.102211e+01  -3.604783e+01
   6.654225e+01  -3.371814e+01
   1.521000e+02   5.615882e+00
   1.234022e+02   6.000157e+01
  -3.989831e+00   8.688137e+01
  -1.181366e+02   6.114379e+01
  -1.249540e+02   6.238749e-01
  -3.686991e+01  -4.500807e+01
   5.201335e+01  -3.642779e+01
   6.743250e+01   1.720517e+01
   1.751490e+01   6.353903e+01
  -3.840173e+01   5.651123e+01
  -5.928518e+01   3.077301e+00
  -5.092985e+01  -4.166428e+01
  -4.187193e+01  -3.559217e+01
  -4.806247e+01  -1.009755e+00
  -5.734468e+01  -1.507352e+00
  -4.075728e+01  -6.432665e+01
   2.214747e+01  -1.337027e+02
   1.096284e+02  -1.261747e+02
   1.572676e+02  -2.743742e+01
   1.123693e+02   8.303187e+01
   7.897668e-01   1.145513e+02
  -7.942278e+01   5.829993e+01
  -5.211444e+01  -9.915624e+00
   5.033874e+01  -1.637438e+01
   1.125019e+02   3.774090e+01
   5.699705e+01   9.210871e+01
  -7.330966e+01   9.111645e+01
  -1.605749e+02   3.352144e+01
  -1.307336e+02  -3.797596e+01
  -2.327996e+01  -7.238372e+01
   5.572953e+01  -4.901594e+01
   4.066024e+01   3.884615e+00
  -3.563390e+01   2.717489e+01
  -7.970240e+01  -1.713976e+01
  -3.428225e+01  -9.877868e+01
   6.685122e+01  -1.322886e+02
   1.330583e+02  -5.963631e+01
   1.068023e+02   7.747281e+01
   1.312098e+01   1.622561e+02
  -7.053140e+01   1.175667e+02
  -8.858565e+01  -1.157570e+01
  -4.505090e+01  -1.028828e+02
   1.405980e+01  -8.663965e+01
   4.536279e+01  -1.119844e+01
   3.733510e+01   2.814007e+01
   1.257744e+01   6.204658e+00
   5.670609e+00  -1.453348e+01
   2.784954e+01   1.954734e+01
   4.917353e+01   7.816525e+01
   2.371452e+01   8.985721e+01
  -5.106267e+01   3.523512e+01
  -1.154286e+02  -3.305926e+01
  -1.018057e+02  -6.021186e+01
  -1.426543e+01  -4.599147e+01
   6.748461e+01  -2.140722e+01
   7.245333e+01  -3.393085e+00
   1.504875e+01   1.066379e+01
  -2.898011e+01   1.757193e+01
  -1.763102e+01   9.774552e+00
   1.134184e+01  -3.338445e+00
  -2.161771e+00  -3.604066e+00
  -5.597105e+01   1.675548e+00
  -8.023794e+01  -1.889009e+01
  -2.153079e+01  -7.019757e+01
   8.941096e+01  -1.020037e+02
   1.610151e+02  -5.836870e+01
   1.323620e+02   4.795304e+01
   2.873284e+01   1.346828e+02
  -6.865258e+01   1.325697e+02
  -9.951904e+01   5.681954e+01
  -6.804774e+01  -1.634474e+01
  -2.243134e+01  -3.319151e+01
  -2.543702e+00  -1.173015e+01
  -1.187573e+01  -7.379874e+00
  -2.473336e+01  -4.202734e+01
  -1.392781e+01  -7.772419e+01
   2.504598e+01  -6.076286e+01
   6.596395e+01   1.280890e+01
   6.791177e+01   8.580786e+01
   1.317788e+01   9.333282e+01
  -6.238901e+01   2.829873e+01
  -9.001817e+01  -5.336035e+01
  -3.570235e+01  -8.722708e+01
   5.311705e+01  -5.631422e+01
   8.867293e+01   5.267315e+00
   4.006471e+01   5.013612e+01
  -2.879844e+01   5.429811e+01
  -3.518467e+01   2.538483e+01
   2.088654e+01  -5.883105e+00
   5.748194e+01  -8.375867e+00
   1.572002e+01   2.341841e+01
  -6.690509e+01   5.568089e+01
  -1.037276e+02   4.398126e+01
  -6.144607e+01  -1.593255e+01
   1.162021e+01  -7.323179e+01
   5.041826e+01  -7.123701e+01
   3.991201e+01  -1.187722e+01
   7.812134e+00   4.389459e+01
  -1.889110e+01   4.203425e+01
  -3.114222e+01  -7.019625e+00
  -2.525876e+01  -4.465911e+01
  -7.238415e-01  -3.381728e+01
   2.781034e+01   4.072312e+00
   3.589796e+01   2.189141e+01
   1.753681e+01   3.710676e+00
  -4.064512e+00  -1.871357e+01
  -5.801116e+00  -9.544632e+00
   5.202063e+00   2.619676e+01
   1.817851e+00   4.601592e+01
  -2.138415e+01   2.110862e+01
  -3.616936e+01  -2.782098e+01
  -1.362736e+01  -5.018310e+01
   3.303324e+01  -2.286764e+01
   5.394537e+01   2.649471e+01
   1.782572e+01   5.012610e+01
  -4.800206e+01   3.071567e+01
  -7.952615e+01  -8.935197e+00
  -4.314284e+01  -3.647783e+01
   2.458949e+01  -3.918922e+01
   5.614505e+01  -2.449342e+01
   2.585072e+01  -5.862541e+00
  -2.258835e+01   3.821691e+00
  -2.783311e+01  -3.945998e+00
   1.849265e+01  -2.012843e+01
   6.442947e+01  -1.740351e+01
