
 $NMID
 id='ANONYMOUS ', fmtdat='(2E16.6)'
 volume=1.0
 tramp=1.0
 $END
  -2.362360e+03   9.562777e+01
  -1.691900e+03  -1.167755e+03
  -2.435105e+02  -1.396798e+03
   7.930197e+02  -1.055025e+03
   8.439490e+02  -2.701852e+02
   1.470365e+02   1.873045e+02
  -2.886881e+02  -2.784178e+01
  -2.124511e+01  -4.444753e+02
   2.636555e+02  -3.929715e+02
   4.448715e+02  -4.906183e+01
   2.321972e+02   3.220378e+02
   8.019624e+01   4.492554e+02
  -2.147505e+02   1.440334e+02
  -2.106159e+02  -2.387486e+02
   4.679832e+01  -3.810171e+02
   2.095434e+02  -1.062703e+02
   2.092205e+02   3.139993e+02
  -5.598243e+01   4.619304e+02
  -3.214733e+02   2.362689e+02
  -3.371395e+02  -1.364011e+02
  -1.234733e+02  -2.710665e+02
   7.867975e+01  -1.976637e+02
   3.238234e+01  -9.168354e+01
  -1.342857e+02  -9.910685e+01
  -1.716336e+02  -2.332643e+02
   5.174288e+01  -2.833052e+02
   3.524541e+02  -8.652961e+01
   4.348459e+02   1.627813e+02
   1.583629e+02   2.501952e+02
  -2.407790e+02   1.299852e+02
  -3.555158e+02  -1.082315e+02
  -1.398994e+02  -2.805299e+02
   1.848295e+02  -2.376432e+02
   3.365919e+02  -8.543755e+01
   2.294976e+02   1.206528e+02
   7.081555e+01   2.364472e+02
  -7.619980e+00   1.349530e+02
   3.939542e+01  -6.978350e+01
   1.326697e+02  -9.604745e+01
   1.373277e+02   1.355665e+02
  -2.906393e+00   3.694115e+02
  -1.799619e+02   3.260627e+02
  -2.351910e+02   5.016132e-01
  -9.336444e+01  -2.235874e+02
   9.633797e+01  -8.190420e+01
   9.706195e+01   2.031521e+02
  -9.902084e+01   2.710847e+02
  -3.160800e+02   1.919448e+01
  -3.373233e+02  -2.896909e+02
  -1.003327e+02  -3.709690e+02
   2.170496e+02  -1.891016e+02
   3.790309e+02   5.823576e+01
   2.597875e+02   1.868000e+02
  -2.212649e+01   1.654832e+02
  -2.109416e+02   6.406536e+01
  -1.727656e+02  -1.255287e+01
  -1.941113e+01  -1.600710e+01
   3.158409e+01   2.467630e+01
  -7.031062e+01   3.258962e+01
  -1.668363e+02  -3.448557e+01
  -9.355210e+01  -1.387327e+02
   1.143388e+02  -1.866173e+02
   2.614292e+02  -1.097419e+02
   2.001664e+02   7.547633e+01
  -2.754150e+01   2.503676e+02
  -2.387290e+02   2.751145e+02
  -2.828746e+02   1.098896e+02
  -1.674334e+02  -1.274852e+02
  -3.058757e+01  -2.626401e+02
   1.916907e+01  -2.352576e+02
   5.796712e+00  -1.427880e+02
   2.980378e+01  -9.809373e+01
   1.205407e+02  -8.718140e+01
   1.964999e+02  -2.088630e+01
   1.698003e+02   1.106099e+02
   4.994022e+01   1.967654e+02
  -8.122461e+01   1.317543e+02
  -1.391545e+02  -4.472836e+01
  -9.071736e+01  -1.880299e+02
   4.024167e+01  -1.801773e+02
   1.817439e+02  -3.347643e+01
   2.221258e+02   1.390804e+02
   1.185804e+02   2.246811e+02
  -4.276463e+01   1.950762e+02
  -1.276674e+02   1.167858e+02
  -1.179832e+02   6.288501e+01
  -1.252237e+02   4.780264e+01
  -2.169325e+02   1.401518e+01
  -3.044381e+02  -8.889444e+01
  -2.274674e+02  -2.327860e+02
   3.413153e+01  -3.229298e+02
   2.936300e+02  -2.834740e+02
   3.544892e+02  -1.153173e+02
   2.029317e+02   8.420099e+01
   4.182252e+00   1.827261e+02
  -7.261552e+01   1.372177e+02
  -3.286594e+00   2.580869e+01
   8.739361e+01  -2.183395e+01
   8.992170e+01   3.603142e+01
   3.161376e+00   1.005062e+02
  -8.063533e+01   6.740086e+01
  -7.315456e+01  -3.994550e+01
   2.313040e+01  -8.586168e+01
   1.148916e+02   1.417940e+01
   1.038978e+02   1.818627e+02
  -2.589054e+01   2.523586e+02
  -1.950437e+02   1.459221e+02
  -2.772807e+02  -6.009781e+01
  -2.017977e+02  -2.096921e+02
  -2.685803e+01  -2.091751e+02
   1.091397e+02  -9.974005e+01
   1.104844e+02   1.243340e+00
   1.912115e+01   9.451396e+00
  -3.746361e+01  -4.918877e+01
   9.802074e+00  -8.283556e+01
   9.522984e+01  -4.274259e+01
   1.048959e+02   2.399042e+01
   1.893760e+01   3.611980e+01
  -5.892268e+01  -2.100381e+01
  -1.848248e+01  -7.656654e+01
   1.244705e+02  -5.869998e+01
   2.333903e+02   3.609025e+01
   1.875146e+02   1.471481e+02
   4.343294e+00   2.033805e+02
  -1.719018e+02   1.671389e+02
  -2.061840e+02   6.179235e+01
  -9.885336e+01  -3.656522e+01
   2.487010e+01  -5.400348e+01
   4.285570e+01   5.403924e+00
  -4.804396e+01   5.407202e+01
  -1.417286e+02   1.525003e+01
  -1.368352e+02  -8.380055e+01
  -3.554306e+01  -1.404689e+02
   7.001518e+01  -9.768246e+01
   9.181503e+01  -1.030509e+01
   2.966890e+01   2.384042e+01
  -3.369502e+01  -2.391420e+01
  -1.468587e+01  -8.813021e+01
   8.284274e+01  -8.557341e+01
   1.638792e+02   4.968418e-01
   1.332063e+02   1.087836e+02
   5.496149e-01   1.559318e+02
  -1.208891e+02   1.070485e+02
  -1.289995e+02   4.399667e+00
  -3.731479e+01  -6.959994e+01
   4.829488e+01  -6.669440e+01
   5.073470e+01  -1.444810e+01
  -3.269383e+00   1.913389e+01
  -3.000036e+01   2.930200e+00
   9.378279e+00  -2.363857e+01
   7.133787e+01  -2.506944e-01
   7.923363e+01   7.683122e+01
   5.244941e-01   1.396613e+02
  -1.167966e+02   1.134615e+02
  -1.821230e+02  -2.131207e+00
  -1.395469e+02  -1.281664e+02
  -2.153446e+01  -1.733919e+02
   7.860666e+01  -1.161581e+02
   9.645673e+01  -2.094712e+01
   5.406677e+01   3.197438e+01
   2.634183e+01   2.087233e+01
   4.452530e+01  -9.974445e+00
   6.945658e+01  -6.103953e-01
   4.391254e+01   4.891853e+01
  -3.581293e+01   8.253974e+01
  -1.023530e+02   4.633816e+01
  -8.412264e+01  -4.319963e+01
   2.158160e+01  -1.036236e+02
   1.363293e+02  -6.303467e+01
   1.605035e+02   6.235768e+01
   5.593913e+01   1.706414e+02
  -1.085700e+02   1.658362e+02
  -2.101722e+02   5.050489e+01
  -1.836763e+02  -7.842482e+01
  -6.836050e+01  -1.317936e+02
   3.566672e+01  -1.029503e+02
   6.878468e+01  -5.866199e+01
   5.251189e+01  -5.326285e+01
   4.562522e+01  -7.297430e+01
   7.244634e+01  -6.046797e+01
   1.023339e+02   1.656613e+01
   8.801796e+01   1.209295e+02
   1.325663e+01   1.727579e+02
  -8.211734e+01   1.232452e+02
  -1.288982e+02   2.602099e+00
  -8.971153e+01  -1.008390e+02
   5.220081e-01  -1.182503e+02
   6.129464e+01  -5.717489e+01
   4.639430e+01   1.538549e+01
  -7.616362e+00   4.272853e+01
  -2.410672e+01   2.658213e+01
   2.110641e+01   8.663830e+00
   6.699518e+01   1.603440e+01
   3.820414e+01   3.415651e+01
  -5.978321e+01   3.012850e+01
  -1.360035e+02  -7.583613e+00
  -1.080141e+02  -5.536402e+01
   7.008052e+00  -7.576384e+01
   1.073749e+02  -5.027850e+01
   1.101528e+02   3.634407e+00
   2.982076e+01   4.242849e+01
  -4.849685e+01   3.286837e+01
  -5.996460e+01  -1.693248e+01
  -1.402569e+01  -5.972288e+01
   3.560704e+01  -5.186419e+01
   5.326881e+01  -5.311513e-01
   4.477937e+01   4.118225e+01
   3.673879e+01   3.459508e+01
   4.236752e+01   2.028286e+00
   5.060050e+01   2.463408e+00
   3.428409e+01   5.862252e+01
  -2.358886e+01   1.187267e+02
  -1.020604e+02   1.089862e+02
  -1.427960e+02   2.031737e+01
  -9.949765e+01  -7.630396e+01
   2.507356e+00  -1.017964e+02
   7.394072e+01  -5.094124e+01
   4.737135e+01   8.857463e+00
  -4.565821e+01   1.305573e+01
  -1.008929e+02  -3.591917e+01
  -4.989614e+01  -8.296015e+01
   6.736530e+01  -8.032478e+01
   1.442239e+02  -2.682730e+01
   1.164750e+02   3.624595e+01
   2.009584e+01   6.413800e+01
  -4.955330e+01   4.192291e+01
  -3.513646e+01  -4.273795e+00
   3.279298e+01  -2.325999e+01
   7.116919e+01   1.737847e+01
   2.909742e+01   8.988847e+01
  -6.223975e+01   1.189004e+02
  -1.208813e+02   5.257003e+01
  -9.478064e+01  -7.095959e+01
  -9.122916e+00  -1.465518e+02
   6.532294e+01  -1.048278e+02
   7.852853e+01   1.247950e+01
   3.753743e+01   9.348683e+01
  -1.453450e+01   7.676284e+01
  -4.024420e+01   8.478345e+00
  -3.214974e+01  -2.544134e+01
  -1.066159e+01  -4.932603e+00
  -4.807925e+00   1.317682e+01
  -2.450672e+01  -1.780022e+01
  -4.316358e+01  -6.996461e+01
  -2.127215e+01  -7.960104e+01
   4.502950e+01  -3.074023e+01
   1.025073e+02   3.007272e+01
   9.072513e+01   5.470662e+01
   1.241547e+01   4.202883e+01
  -6.063704e+01   1.938870e+01
  -6.465835e+01   1.942517e+00
  -1.275511e+01  -1.090727e+01
   2.628720e+01  -1.574798e+01
   1.529421e+01  -7.229038e+00
  -1.102782e+01   4.510276e+00
   1.686528e+00   3.747784e+00
   5.025710e+01  -1.485229e+00
   7.150791e+01   1.740399e+01
   1.773645e+01   6.333516e+01
  -8.216896e+01   9.051594e+01
  -1.460566e+02   4.957315e+01
  -1.185757e+02  -4.621550e+01
  -2.371013e+01  -1.222852e+02
   6.444192e+01  -1.181589e+02
   9.134208e+01  -4.941936e+01
   6.178544e+01   1.562440e+01
   1.993887e+01   3.027127e+01
   2.133105e+00   1.135194e+01
   1.044428e+01   7.710842e+00
   2.133787e+01   3.823451e+01
   1.106480e+01   6.962001e+01
  -2.360232e+01   5.442632e+01
  -5.955023e+01  -1.162369e+01
  -6.055708e+01  -7.779840e+01
  -1.094299e+01  -8.506986e+01
   5.720479e+01  -2.573089e+01
   8.127379e+01   4.920579e+01
   3.080499e+01   7.986162e+01
  -4.967983e+01   5.049448e+01
  -8.046095e+01  -6.254191e+00
  -3.486183e+01  -4.616356e+01
   2.745561e+01  -4.802388e+01
   3.185100e+01  -2.157429e+01
  -1.950434e+01   5.370223e+00
  -5.232728e+01   5.806410e+00
  -1.369269e+01  -2.222621e+01
   6.102262e+01  -4.908821e+01
   9.381579e+01  -3.708363e+01
   5.511482e+01   1.607271e+01
  -1.124251e+01   6.562073e+01
  -4.663766e+01   6.289932e+01
  -3.673636e+01   9.840365e+00
  -6.760275e+00  -3.954094e+01
   1.779565e+01  -3.757749e+01
   2.823149e+01   6.184587e+00
   2.168507e+01   4.036641e+01
  -4.940861e-01   3.101673e+01
  -2.459568e+01  -3.705325e+00
  -3.098803e+01  -2.052269e+01
  -1.546473e+01  -4.324288e+00
   2.542200e+00   1.696389e+01
   3.383783e+00   9.286166e+00
  -5.325360e+00  -2.408378e+01
  -1.009713e+00  -4.357084e+01
   2.085459e+01  -2.077143e+01
   3.367058e+01   2.499473e+01
   1.236363e+01   4.619593e+01
  -3.002628e+01   2.029354e+01
  -4.848434e+01  -2.530258e+01
  -1.481059e+01  -4.585195e+01
   4.479467e+01  -2.646716e+01
   7.229456e+01   1.003656e+01
   3.841793e+01   3.377361e+01
  -2.328233e+01   3.530160e+01
  -5.116688e+01   2.192527e+01
  -2.320698e+01   4.929157e+00
   2.065339e+01  -4.178110e+00
   2.548764e+01   2.890304e+00
  -1.592796e+01   1.866638e+01
  -5.730940e+01   1.693214e+01
