
 $NMID
 id='ANONYMOUS ', fmtdat='(2E16.6)'
 volume=1.0
 tramp=1.0
 $END
   1.214528e+03   1.650679e+02
   8.555252e+02   4.330635e+02
   2.011281e+02   7.953348e+02
  -2.773512e+02   6.307663e+02
  -2.942919e+02   3.502132e+02
  -1.939560e+02  -1.834218e+01
   3.658322e+01  -7.813999e+01
   4.041836e-01   7.451121e+01
  -1.575728e+02   2.508543e+02
  -2.758659e+02   5.379260e+01
  -2.248634e+02  -1.850203e+02
  -4.750897e+01  -2.874506e+02
   4.500384e+01  -1.663516e+02
   3.599109e+00   6.694635e+01
   1.774624e+01   2.267223e+02
  -1.522461e+02   1.049465e+02
  -2.224227e+02  -2.280416e+02
  -4.620119e+01  -3.374115e+02
   1.788477e+02  -1.827039e+02
   2.503851e+02   7.264546e+01
   1.337937e+02   1.317394e+02
  -8.173952e+00   9.427875e+01
   8.013138e+00   4.360162e+01
   9.832060e+01   8.801251e+01
   8.460720e+01   1.750802e+02
  -8.858663e+01   1.420763e+02
  -2.211378e+02  -5.039753e+00
  -2.015422e+02  -1.375146e+02
  -3.744938e+01  -1.165232e+02
   1.504319e+02  -2.340303e+01
   1.821727e+02   8.690886e+01
   5.080542e+01   1.368357e+02
  -1.089641e+02   1.408394e+02
  -1.739516e+02   4.891156e+01
  -1.276130e+02  -4.562227e+01
  -5.672635e+01  -1.031987e+02
  -4.705706e+01  -6.081684e+01
  -8.267844e+01   6.810098e+00
  -9.187036e+01  -3.007990e-01
  -2.531568e+01  -1.006744e+02
   6.773263e+01  -1.781471e+02
   1.110232e+02  -1.389071e+02
   8.137925e+01   1.237859e+01
   1.907115e+01   9.474237e+01
  -4.113939e+01   6.299994e+00
  -2.717994e+01  -1.220674e+02
   7.466296e+01  -1.362586e+02
   1.856905e+02   1.161953e+01
   1.963554e+02   1.745762e+02
   6.476781e+01   2.098816e+02
  -1.275816e+02   1.084290e+02
  -2.154790e+02  -2.340028e+01
  -1.518249e+02  -8.040422e+01
  -1.073482e+01  -7.246131e+01
   8.969847e+01  -5.537289e+01
   9.114995e+01  -4.159154e+01
   3.685404e+01  -1.856041e+01
   5.471586e+00   2.445222e+00
   3.366685e+01   6.188053e+00
   7.551704e+01   1.580044e+01
   5.189744e+01   6.146483e+01
  -5.648588e+01   1.102598e+02
  -1.637832e+02   7.907575e+01
  -1.512901e+02  -5.197307e+01
  -5.158824e+00  -1.857054e+02
   1.520509e+02  -1.979059e+02
   1.900786e+02  -7.499968e+01
   1.103474e+02   7.620707e+01
   2.597396e+01   1.474765e+02
   1.088869e+01   1.329066e+02
   2.408098e+01   1.001501e+02
  -1.104261e+01   8.990264e+01
  -9.211458e+01   7.372583e+01
  -1.439605e+02   1.085537e+01
  -1.128778e+02  -7.817794e+01
  -2.347348e+01  -1.220580e+02
   5.660478e+01  -7.421007e+01
   8.022622e+01   3.332537e+01
   4.440981e+01   1.140107e+02
  -3.481446e+01   1.042037e+02
  -1.116844e+02   1.553869e+01
  -1.294449e+02  -7.891716e+01
  -7.438875e+01  -1.226746e+02
   1.095663e+01  -1.136543e+02
   5.794129e+01  -8.695515e+01
   6.380173e+01  -6.431170e+01
   8.178838e+01  -4.926323e+01
   1.496351e+02  -1.651227e+01
   2.091348e+02   5.708873e+01
   1.562105e+02   1.545393e+02
  -1.967172e+01   2.150391e+02
  -1.972257e+02   1.858531e+02
  -2.332268e+02   7.260304e+01
  -1.234914e+02  -5.467735e+01
   5.722500e+00  -1.080426e+02
   3.751754e+01  -7.382773e+01
  -1.726402e+01  -1.512121e+01
  -6.773084e+01   5.537657e-01
  -4.814358e+01  -2.923133e+01
   1.131491e+01  -5.237791e+01
   4.832682e+01  -2.683166e+01
   2.788613e+01   2.610966e+01
  -2.950130e+01   4.289666e+01
  -7.715446e+01  -1.568081e+01
  -6.688906e+01  -1.140995e+02
   1.358666e+01  -1.639055e+02
   1.242971e+02  -1.064631e+02
   1.803557e+02   2.543600e+01
   1.330246e+02   1.317430e+02
   2.036246e+01   1.364988e+02
  -6.340099e+01   6.191341e+01
  -6.100233e+01  -2.298048e+00
  -6.596809e+00  -9.038373e-01
   2.040845e+01   3.908555e+01
  -1.353129e+01   5.419057e+01
  -6.262433e+01   2.121881e+01
  -5.964981e+01  -2.011921e+01
   8.711811e-02  -2.193412e+01
   4.730100e+01   1.879493e+01
   1.382626e+01   5.823068e+01
  -8.682211e+01   5.037410e+01
  -1.607736e+02  -1.272213e+01
  -1.271376e+02  -9.303726e+01
  -2.245772e+00  -1.351208e+02
   1.104591e+02  -1.083190e+02
   1.247680e+02  -3.565473e+01
   5.136024e+01   2.464415e+01
  -2.177614e+01   2.886157e+01
  -2.515400e+01  -9.792974e+00
   3.391983e+01  -3.596912e+01
   8.770921e+01  -9.183845e+00
   8.227838e+01   5.035342e+01
   2.087707e+01   8.296233e+01
  -4.183413e+01   5.636493e+01
  -5.321546e+01   3.116936e+00
  -1.106533e+01  -1.574754e+01
   2.982433e+01   1.946227e+01
   1.293412e+01   6.494143e+01
  -5.735339e+01   6.389211e+01
  -1.126055e+02   4.649301e+00
  -9.018320e+01  -6.822356e+01
  -2.709493e+00  -9.928754e+01
   7.313432e+01  -6.938403e+01
   7.581352e+01  -7.315946e+00
   1.930598e+01   3.774825e+01
  -3.004974e+01   3.810020e+01
  -2.773794e+01   7.658720e+00
   8.510883e+00  -1.241691e+01
   2.510784e+01  -9.040741e-01
  -5.023829e+00   1.967655e+01
  -5.193695e+01   6.202280e+00
  -6.028597e+01  -4.771891e+01
  -4.847783e+00  -9.428575e+01
   7.661906e+01  -7.921595e+01
   1.205161e+02  -2.666237e+00
   9.165763e+01   7.926325e+01
   1.745038e+01   1.089573e+02
  -4.453914e+01   7.515021e+01
  -5.710087e+01   1.828419e+01
  -3.481927e+01  -1.492226e+01
  -1.748454e+01  -9.245381e+00
  -2.911381e+01   9.553217e+00
  -4.786930e+01   6.046169e+00
  -3.639484e+01  -2.845438e+01
   1.474580e+01  -5.767082e+01
   6.552976e+01  -3.969544e+01
   6.135590e+01   2.375783e+01
  -8.062428e+00   7.178581e+01
  -8.909066e+01   4.839397e+01
  -1.091409e+02  -3.691901e+01
  -4.123566e+01  -1.108208e+02
   6.572847e+01  -1.105549e+02
   1.309581e+02  -3.779593e+01
   1.159596e+02   4.357753e+01
   4.569013e+01   7.813517e+01
  -1.788157e+01   6.299126e+01
  -3.884912e+01   3.712212e+01
  -2.826292e+01   3.352355e+01
  -2.380085e+01   4.758023e+01
  -4.283351e+01   4.252786e+01
  -6.583222e+01  -4.099592e+00
  -5.985882e+01  -7.220074e+01
  -1.339699e+01  -1.095252e+02
   4.803412e+01  -8.028595e+01
   8.062397e+01  -2.917647e+00
   5.842735e+01   6.460470e+01
   7.158414e-01   7.666529e+01
  -4.171968e+01   3.726174e+01
  -3.473006e+01  -1.120648e+01
   2.188046e+00  -3.105843e+01
   1.767401e+01  -2.054483e+01
  -1.054352e+01  -5.311029e+00
  -4.409278e+01  -6.931170e+00
  -2.777642e+01  -2.074375e+01
   3.902543e+01  -2.336007e+01
   9.268921e+01  -7.826371e-01
   7.414319e+01   3.440139e+01
  -3.972491e+00   5.343330e+01
  -7.048306e+01   3.857099e+01
  -7.266519e+01   9.660982e-01
  -2.184915e+01  -2.867266e+01
   2.839861e+01  -2.516980e+01
   4.008663e+01   6.905789e+00
   1.615740e+01   3.681287e+01
  -1.638833e+01   3.556021e+01
  -3.487393e+01   5.494010e+00
  -3.421408e+01  -2.215168e+01
  -2.586341e+01  -2.022034e+01
  -2.482234e+01   2.995730e-01
  -3.224792e+01   1.125605e+00
  -2.840342e+01  -3.491013e+01
   6.232975e+00  -7.758736e+01
   6.160103e+01  -7.703311e+01
   9.414732e+01  -2.237734e+01
   6.871099e+01   4.403297e+01
   1.912782e+00   6.784945e+01
  -4.591360e+01   3.897061e+01
  -3.055520e+01  -2.295296e+00
   2.809587e+01  -1.132515e+01
   6.436898e+01   1.731096e+01
   3.388693e+01   5.007572e+01
  -3.990339e+01   5.287453e+01
  -8.986969e+01   2.074902e+01
  -7.365557e+01  -2.057439e+01
  -1.265137e+01  -4.021024e+01
   3.314088e+01  -2.637101e+01
   2.485397e+01   4.757848e+00
  -1.907611e+01   1.916348e+01
  -4.700690e+01  -5.480079e+00
  -2.593184e+01  -5.359861e+01
   2.860568e+01  -7.677731e+01
   6.956500e+01  -3.961298e+01
   6.193393e+01   3.767773e+01
   1.360507e+01   8.846960e+01
  -3.583617e+01   6.554025e+01
  -5.033359e+01  -6.702101e+00
  -2.595808e+01  -5.780316e+01
   1.033843e+01  -4.803605e+01
   2.811425e+01  -5.587240e+00
   1.981563e+01   1.584147e+01
   3.981216e+00   3.470875e+00
   2.840587e+00  -7.684751e+00
   1.906658e+01   1.096399e+01
   3.063175e+01   4.245103e+01
   1.320432e+01   4.891216e+01
  -2.963827e+01   2.125359e+01
  -6.447577e+01  -1.418407e+01
  -5.738564e+01  -3.066905e+01
  -1.089970e+01  -2.664672e+01
   3.444314e+01  -1.505248e+01
   4.054357e+01  -3.343725e+00
   1.152517e+01   6.538858e+00
  -1.470793e+01   9.906368e+00
  -1.209273e+01   3.933493e+00
   4.237971e+00  -3.133337e+00
   4.848828e-01  -1.144170e+00
  -2.788293e+01   4.234840e+00
  -4.580308e+01  -6.832322e+00
  -1.900979e+01  -3.825743e+01
   4.255150e+01  -6.113833e+01
   8.860741e+01  -4.085694e+01
   7.926257e+01   1.944944e+01
   2.291985e+01   7.363049e+01
  -3.432317e+01   7.823010e+01
  -5.487446e+01   3.712970e+01
  -3.920318e+01  -6.191672e+00
  -1.441625e+01  -1.814443e+01
  -3.764451e+00  -7.506496e+00
  -8.653922e+00  -5.362004e+00
  -1.527316e+01  -2.480902e+01
  -9.205074e+00  -4.451133e+01
   1.232378e+01  -3.558687e+01
   3.723844e+01   3.866978e+00
   4.256053e+01   4.380471e+01
   1.407873e+01   5.149784e+01
  -3.173878e+01   2.078503e+01
  -5.366406e+01  -2.331182e+01
  -2.616888e+01  -4.769981e+01
   2.695488e+01  -3.673205e+01
   5.238809e+01  -2.436569e+00
   2.697929e+01   2.840801e+01
  -1.435236e+01   3.471882e+01
  -2.146123e+01   1.645910e+01
   9.763223e+00  -4.956630e+00
   3.282662e+01  -6.792672e+00
   1.120840e+01   1.370299e+01
  -3.652983e+01   3.447507e+01
  -6.063272e+01   2.794112e+01
  -3.889000e+01  -7.506619e+00
   2.800180e+00  -4.262128e+01
   2.725901e+01  -4.453142e+01
   2.422567e+01  -1.169667e+01
   7.489968e+00   2.271911e+01
  -8.141657e+00   2.593321e+01
  -1.723530e+01  -3.247832e-01
  -1.613731e+01  -2.390458e+01
  -2.486790e+00  -2.080987e+01
   1.570576e+01   6.863739e-01
   2.193384e+01   1.255348e+01
   9.698726e+00   2.513367e+00
  -5.437832e+00  -1.226471e+01
  -5.031118e+00  -9.024604e+00
   6.950004e+00   1.204986e+01
   8.893517e+00   2.691884e+01
  -8.085402e+00   1.652066e+01
  -2.401727e+01  -1.043431e+01
  -1.421733e+01  -2.626989e+01
   1.594745e+01  -1.529808e+01
   3.294205e+01   1.074355e+01
   1.298049e+01   2.639508e+01
  -2.713294e+01   1.953526e+01
  -4.671991e+01  -1.060955e+00
  -2.590543e+01  -1.879287e+01
   1.271689e+01  -2.447963e+01
   3.063121e+01  -1.799627e+01
   1.523171e+01  -5.348278e+00
  -9.929517e+00   3.983236e+00
  -1.385959e+01   1.387041e+00
   7.813503e+00  -9.413404e+00
   3.145969e+01  -1.142696e+01
