
 $NMID
 id='ANONYMOUS ', fmtdat='(2E16.6)'
 volume=1.0
 tramp=1.0
 $END
  -1.719683e+02  -5.377351e+01
  -8.008200e+01  -4.762692e+01
  -5.727606e+01  -6.350835e+01
   1.499456e+01  -5.870133e+01
  -1.148668e+01  -5.234581e+01
  -9.474591e+01  -2.387389e+01
  -4.230192e-01   1.862250e+01
   1.012089e+01  -5.526429e+01
   1.118196e+00  -3.915517e+01
  -1.888346e+01  -4.097924e+01
  -3.009155e+01   1.621694e+00
   3.989272e+00   9.842591e+00
  -1.545305e+01  -3.032865e+01
  -4.852304e+01   5.838551e+00
  -3.432041e+01   2.566931e+01
  -1.302021e+01   3.754952e+01
   1.226259e+01   2.189895e+01
  -9.910246e+00   3.704865e+00
   1.900886e+01   2.643554e+00
  -9.394267e+00   3.015939e+00
   2.711088e+01  -1.768753e+01
  -4.722261e+00   3.267742e+00
   2.641371e+00  -5.607055e+00
  -3.046786e+00  -2.841319e+01
   3.286072e+00  -2.586493e+01
   3.218511e+01  -2.535264e-01
   1.188818e+01   2.680880e+01
   4.719247e+00   1.986053e+01
   1.612140e+01  -4.210453e-01
  -6.268201e+00   3.288005e+00
  -2.728375e+00   1.596378e+01
  -8.921465e+00   3.872269e+00
   1.481357e+00  -1.509763e+00
   1.520797e+01  -1.471106e+01
   4.395615e+00  -5.503658e+00
   3.374610e+00   2.124711e+01
  -1.269424e+01   6.864082e+00
  -1.004663e+01  -9.817268e+00
   4.271071e+00  -1.029533e+01
  -3.063508e+00   3.354268e+00
  -3.922230e+00   1.702188e+01
  -3.869013e+00   8.067055e+00
  -4.413522e+00  -8.695498e+00
   1.346615e+01  -9.165204e+00
   5.888541e+00  -2.824045e+00
   2.940653e+00   1.359891e+01
  -1.427853e+01   1.297141e+01
  -1.375766e+01  -8.030133e+00
  -9.280905e+00  -2.171752e+01
  -1.552320e-03  -1.099917e+01
   7.314776e+00   8.348230e+00
   1.035442e+01   1.150953e+01
   5.956292e+00   1.197212e+00
  -2.957732e-02  -8.891466e-02
  -3.277935e+00   8.016095e+00
  -7.015156e+00   1.189466e+01
  -8.652996e+00   4.857617e+00
  -7.386987e+00  -4.357817e+00
  -3.772635e+00  -6.610022e+00
  -1.804368e+00  -4.037990e+00
   1.892850e+00  -4.114287e+00
   1.020690e+01  -5.097433e+00
   1.607381e+01   1.102110e+00
   8.202611e+00   1.418273e+01
  -9.741946e+00   1.969999e+01
  -2.099237e+01   7.681659e+00
  -1.552254e+01  -8.569195e+00
  -5.249199e-01  -1.143820e+01
   6.893105e+00  -3.446780e+00
   7.734561e-01   1.165534e+00
  -5.547902e+00  -4.243354e+00
   2.486231e-01  -1.062515e+01
   1.170728e+01  -7.152913e+00
   1.278612e+01   4.792575e+00
   7.216850e-01   1.367520e+01
  -1.006577e+01   8.956313e+00
  -9.726522e+00  -5.167883e+00
   2.825615e-01  -1.217459e+01
   1.030740e+01  -5.932218e+00
   1.027029e+01   5.519280e+00
   3.724378e+00   1.011645e+01
  -2.328005e+00   7.545054e+00
  -9.814571e-03   4.308658e+00
  -1.196903e+00   5.352711e+00
  -4.533804e+00   3.908009e+00
  -8.479113e+00   2.543590e+00
  -7.330815e+00  -2.956377e+00
  -5.317407e+00  -6.562926e+00
  -4.320218e+00  -8.490128e+00
   7.002846e-01  -1.187033e+01
   9.745822e+00  -8.422472e+00
   1.631880e+01   2.436920e-01
   1.215779e+01   9.228221e+00
  -1.034173e+00   1.301199e+01
  -8.811384e+00   3.991838e+00
  -6.477882e+00  -4.510006e+00
   2.387034e+00  -4.106435e+00
   4.404164e+00   1.384142e+00
   1.680325e-01   4.775028e+00
  -2.242730e+00   1.092144e+00
  -2.277292e+00  -1.729032e+00
   1.114054e+00  -1.380215e+00
   3.965296e+00   1.903662e+00
   2.427470e+00   7.186845e+00
  -3.560782e+00   8.930730e+00
  -1.135825e+01   4.141436e+00
  -1.398086e+01  -4.711758e+00
  -6.880086e+00  -1.437177e+01
   3.616162e+00  -1.356307e+01
   1.085957e+01  -5.156116e+00
   8.896425e+00   4.071474e+00
   1.939654e+00   5.423580e+00
  -2.306960e+00   1.674862e-01
  -6.264176e-01  -4.219352e+00
   3.681868e+00  -2.442877e+00
   5.320479e+00   3.281012e+00
   2.374985e+00   6.897988e+00
  -2.059388e+00   3.521988e+00
  -2.810437e+00  -4.429559e+00
   2.429684e+00  -6.915383e+00
   9.060679e+00   4.113233e-01
   8.705026e+00   1.182979e+01
  -5.190518e-01   1.582362e+01
  -1.135110e+01   8.451814e+00
  -1.470802e+01  -2.858823e+00
  -8.303827e+00  -8.597737e+00
   5.592846e-01  -6.270863e+00
   4.253379e+00  -1.337190e+00
   1.010432e+00   1.128565e+00
  -3.917905e+00  -4.412484e-01
  -4.766618e+00  -4.663956e+00
  -1.140098e-01  -7.095806e+00
   5.886884e+00  -4.967901e+00
   7.346125e+00   8.235188e-01
   2.847912e+00   4.585458e+00
  -2.591105e+00   1.997077e+00
  -2.437250e+00  -3.311582e+00
   3.465602e+00  -5.273573e+00
   8.908058e+00  -2.363575e-02
   8.067632e+00   7.448007e+00
   4.641811e-01   1.065915e+01
  -7.412593e+00   7.067688e+00
  -9.886702e+00  -6.910809e-02
  -5.468205e+00  -5.196518e+00
   1.491168e+00  -5.120925e+00
   4.464019e+00  -1.327719e+00
   1.957614e+00   2.180547e+00
  -2.375816e+00   1.653378e+00
  -2.143298e+00  -2.080925e+00
   1.858387e+00  -2.946881e+00
   4.434883e+00   5.922165e-01
   8.388988e-01   5.464999e+00
  -5.845390e+00   5.578426e+00
  -8.582520e+00  -1.167655e+00
  -5.213419e+00  -8.524949e+00
   2.144054e+00  -1.034258e+01
   8.097489e+00  -5.684728e+00
   8.399226e+00   1.459088e+00
   4.394744e+00   4.856812e+00
  -3.103493e-01   3.661547e+00
  -1.200826e+00   1.165664e+00
   1.443458e+00   7.541626e-01
   2.984254e+00   3.043642e+00
   1.231959e+00   5.037350e+00
  -5.135309e+00   3.624748e+00
  -7.680913e+00  -1.100466e+00
  -3.390231e+00  -5.593171e+00
   4.341571e+00  -4.423369e+00
   8.044351e+00   1.681582e+00
   3.298739e+00   7.475353e+00
  -5.294997e+00   8.131987e+00
  -1.010065e+01   1.544150e+00
  -8.279335e+00  -5.767318e+00
  -1.840691e+00  -9.462802e+00
   3.032677e+00  -6.740644e+00
   3.845486e+00  -2.270631e+00
   3.040277e+00   1.901369e-01
   3.656674e+00   1.020759e-01
   5.495320e+00  -7.616053e-01
   5.887171e+00   6.938132e-01
   2.971465e+00   4.697693e+00
  -1.372143e+00   7.661264e+00
  -5.569111e+00   6.536311e+00
  -6.944674e+00   9.632917e-01
  -4.274645e+00  -4.973788e+00
   9.485072e-01  -7.271751e+00
   5.276079e+00  -3.798024e+00
   5.351940e+00   2.097018e+00
   1.359979e+00   4.815840e+00
  -3.070852e+00   2.513122e+00
  -3.895368e+00  -7.373420e-01
  -6.231585e-01  -8.299632e-01
   2.276281e+00   1.669161e+00
   7.621523e-01   2.567548e+00
  -3.839749e+00  -5.970819e-01
  -5.470277e+00  -5.600269e+00
  -1.079754e+00  -7.381406e+00
   5.496966e+00  -3.746953e+00
   7.915304e+00   2.124488e+00
   4.011163e+00   5.154684e+00
  -1.726087e+00   3.703764e+00
  -3.555802e+00   1.805187e-01
  -7.593938e-01  -2.469747e+00
   2.449276e+00  -2.915435e+00
   3.048728e+00  -7.495914e-01
   1.553017e+00   2.291827e+00
  -2.583569e-02   3.552221e+00
   1.639586e-01   2.638371e+00
   1.409875e+00   6.739666e-01
   1.899993e+00   1.131195e+00
  -5.259503e-01   3.527997e+00
  -4.849661e+00   4.761751e+00
  -8.351074e+00   1.430231e+00
  -7.219301e+00  -4.419771e+00
  -1.589945e+00  -7.646340e+00
   4.547561e+00  -5.314134e+00
   5.901340e+00   4.960773e-02
   1.767975e+00   2.605743e+00
  -2.318294e+00   2.440454e-03
  -2.714818e+00  -4.064288e+00
   1.251377e+00  -4.656646e+00
   5.042331e+00  -7.695819e-01
   5.239870e+00   3.840658e+00
   2.131210e+00   4.993111e+00
  -1.526131e+00   2.143512e+00
  -2.540825e+00  -9.506860e-01
  -3.708045e-01  -1.657861e+00
   2.241616e+00   2.274541e-01
   2.291024e+00   2.763852e+00
  -1.195413e+00   3.942926e+00
  -5.024882e+00   2.653283e+00
  -5.050830e+00  -1.052386e+00
  -7.045424e-01  -4.468152e+00
   4.159443e+00  -4.899512e+00
   5.056692e+00  -1.176330e+00
   1.294864e+00   3.619407e+00
  -2.764897e+00   4.916503e+00
  -3.597962e+00   1.806389e+00
  -1.266812e+00  -1.979407e+00
   4.732914e-01  -2.435489e+00
   2.597918e-02  -2.807291e-01
  -1.090871e+00   6.083638e-01
  -7.871922e-01  -1.799711e+00
   1.072591e+00  -4.727713e+00
   2.827362e+00  -3.869839e+00
   3.584104e+00   7.636634e-01
   3.089071e+00   5.015684e+00
   1.366877e+00   5.397638e+00
  -1.120541e+00   2.202398e+00
  -2.968011e+00  -1.177341e+00
  -2.425229e+00  -1.908545e+00
  -9.525131e-02  -9.730423e-01
   1.509086e+00   1.285032e-01
   8.401122e-01   3.598029e-01
  -5.024225e-01   1.617547e-01
  -3.519972e-01   1.359930e-01
   1.673171e+00   1.037075e+00
   2.331919e+00   2.419169e+00
  -5.171211e-01   2.855584e+00
  -5.333299e+00   9.349418e-01
  -7.063588e+00  -2.585623e+00
  -3.138014e+00  -5.298043e+00
   3.104365e+00  -5.036415e+00
   6.519503e+00  -2.055760e+00
   5.008435e+00   1.086976e+00
   1.405947e+00   2.245662e+00
  -2.938539e-01   1.525964e+00
   1.964741e-01   6.981770e-01
   6.024858e-01   1.398294e+00
  -7.085053e-01   2.727243e+00
  -2.586128e+00   3.074457e+00
  -3.079185e+00   1.007557e+00
  -1.795239e+00  -2.359524e+00
   3.623226e-01  -4.651648e+00
   2.253816e+00  -3.569784e+00
   2.510089e+00   6.736473e-01
   1.175777e+00   4.253783e+00
  -1.456303e+00   3.922020e+00
  -3.527169e+00   1.619258e-01
  -2.958429e+00  -3.323452e+00
   2.966840e-01  -3.464066e+00
   2.914312e+00  -1.195589e+00
   2.016819e+00   1.664109e-01
  -7.697321e-01  -6.037723e-01
  -1.703676e+00  -1.965126e+00
   1.176127e+00  -1.347726e+00
   4.811843e+00   1.025444e+00
   4.976776e+00   2.951547e+00
   1.247971e+00   3.194158e+00
  -3.118845e+00   1.964244e+00
  -4.018002e+00   5.546136e-01
  -1.882120e+00  -6.152585e-01
   9.280353e-01  -1.080527e+00
   1.614424e+00  -4.962254e-01
   5.782040e-01   8.352108e-01
  -7.511206e-01   2.035978e+00
  -1.001140e+00   1.165090e+00
  -8.050667e-01  -9.691478e-01
  -6.698381e-01  -2.125115e+00
  -6.623684e-01  -1.185146e+00
  -6.802213e-01   7.554534e-01
  -2.857610e-01   6.430880e-01
   7.051249e-01  -1.279598e+00
   1.513274e+00  -2.383742e+00
   1.738636e+00  -6.834071e-01
   7.941608e-01   2.052541e+00
  -8.294047e-01   2.511687e+00
  -1.776877e+00  -2.444821e-01
  -9.280456e-01  -2.799783e+00
   1.399117e+00  -2.217796e+00
   3.206750e+00   8.348559e-01
   2.511145e+00   3.108320e+00
   2.023831e-01   2.513375e+00
  -2.266074e+00   3.612000e-01
  -2.471203e+00  -9.474445e-01
  -6.002256e-01  -4.346983e-01
   1.187418e+00   7.974256e-01
   7.763285e-01   1.163729e+00
  -1.563509e+00   3.279693e-01
  -2.797158e+00  -1.260821e+00
