
 $NMID
 id='ANONYMOUS ', fmtdat='(2E16.6)'
 volume=1.0
 tramp=1.0
 $END
   1.951981e+03  -7.857170e+00
   1.099907e+03   9.800523e+02
  -2.096382e+02   1.139600e+03
  -7.632041e+02   3.547376e+02
  -2.904311e+02  -6.238916e+01
   2.111268e+02  -1.179251e+02
   2.516127e+02   1.775467e+02
   6.505581e+01   3.521518e+02
  -2.997777e+02   2.808944e+02
  -3.802779e+02  -4.052856e+01
  -2.143915e+02  -3.645186e+02
   1.062223e+02  -2.777127e+02
   1.775927e+02  -1.138722e+02
   1.360026e+02   2.786332e+02
  -1.114815e+02   3.549317e+02
  -2.504141e+02   1.330316e+01
  -1.211587e+02  -3.234938e+02
   1.628951e+02  -3.156167e+02
   2.357223e+02  -3.876076e+01
   1.639012e+02   1.250698e+02
   3.513767e+01   1.722080e+02
  -9.919939e+01   1.026155e+02
  -9.041974e+01   1.753020e+01
   4.912739e+01  -1.801321e+01
   1.455125e+02   3.347219e+01
   7.170815e+01   1.674746e+02
  -1.839798e+02   1.686364e+02
  -3.416142e+02  -3.865516e+01
  -1.590775e+02  -2.133356e+02
   1.616969e+02  -1.930030e+02
   3.078264e+02   3.301077e+01
   1.164908e+02   1.811245e+02
  -1.240145e+02   2.036439e+02
  -2.017737e+02   8.353146e+01
  -1.581709e+02  -8.057917e+01
  -2.852600e+01  -1.701152e+02
   6.761276e+01  -1.043225e+02
   4.697892e+01   7.779503e+01
  -7.632537e+01   1.632943e+02
  -1.881263e+02  -1.889098e+01
  -8.656477e+01  -2.690209e+02
   1.298564e+02  -2.645432e+02
   2.305759e+02   8.374431e+00
   1.078725e+02   2.186775e+02
  -1.152516e+02   1.254293e+02
  -1.576185e+02  -1.313031e+02
   3.148981e+01  -2.264890e+02
   2.236401e+02  -6.193106e+01
   2.403929e+02   1.533036e+02
   6.924781e+01   2.237796e+02
  -1.383355e+02   1.330604e+02
  -2.295350e+02  -2.238905e+01
  -1.324321e+02  -1.399615e+02
   6.203061e+01  -1.269109e+02
   1.605182e+02  -1.524418e+01
   8.154345e+01   7.187459e+01
  -5.031395e+01   3.628431e+01
  -5.873591e+01  -5.976568e+01
   5.778978e+01  -7.345807e+01
   1.323263e+02   2.215602e+01
   6.233923e+01   1.109223e+02
  -7.102505e+01   1.042826e+02
  -1.320910e+02   3.583300e+01
  -9.034406e+01  -3.318125e+01
  -3.572415e+00  -9.382242e+01
   7.912665e+01  -1.309278e+02
   1.289932e+02  -8.501819e+01
   1.107668e+02   4.839668e+01
   2.976162e+01   1.559826e+02
  -3.886786e+01   1.353407e+02
  -3.512501e+01   3.828030e+01
   9.924590e-01  -2.815932e+00
  -1.202468e+01   3.567963e+01
  -7.363252e+01   5.171057e+01
  -1.048631e+02  -1.556640e+01
  -5.751233e+01  -9.416420e+01
   2.914635e+01  -9.355024e+01
   8.706210e+01  -5.373537e+00
   7.345853e+01   8.807434e+01
  -5.575833e+00   1.102917e+02
  -1.017890e+02   4.401698e+01
  -1.344889e+02  -6.620647e+01
  -6.894629e+01  -1.337617e+02
   3.878054e+01  -1.144456e+02
   8.860500e+01  -4.169309e+01
   5.801297e+01   5.794736e-01
   3.647953e+01  -1.430430e+01
   8.476421e+01  -2.769617e+01
   1.442302e+02   1.913935e+01
   1.216262e+02   1.056213e+02
   2.126984e+00   1.664502e+02
  -1.287514e+02   1.583182e+02
  -1.772759e+02   7.926325e+01
  -1.277011e+02  -3.298696e+01
  -2.499583e+01  -1.120570e+02
   4.222940e+01  -9.455572e+01
   2.962505e+01  -8.977980e+00
  -3.979471e+01   4.249761e+01
  -7.359706e+01   1.345724e+00
  -2.077822e+01  -7.180006e+01
   5.669668e+01  -6.485522e+01
   6.380563e+01   2.292727e+01
  -7.040090e+00   7.379522e+01
  -7.316831e+01   1.601160e+01
  -6.506204e+01  -9.078127e+01
   2.937968e+00  -1.302354e+02
   7.581669e+01  -7.366699e+01
   1.173727e+02   1.811628e+01
   1.075563e+02   8.319631e+01
   4.124281e+01   9.226356e+01
  -4.071731e+01   5.384614e+01
  -6.813593e+01   5.402925e+00
  -2.222819e+01  -1.084801e+01
   2.944368e+01   1.793866e+01
   1.441554e+01   4.891881e+01
  -4.588599e+01   3.742514e+01
  -6.852516e+01  -5.614416e+00
  -2.251247e+01  -2.920728e+01
   3.109322e+01  -9.216370e+00
   2.323084e+01   2.554983e+01
  -4.313911e+01   3.532082e+01
  -1.033226e+02   7.103195e+00
  -9.916490e+01  -4.606028e+01
  -2.638053e+01  -9.547428e+01
   6.492950e+01  -1.025142e+02
   1.046015e+02  -5.083181e+01
   6.405564e+01   2.020696e+01
  -9.591973e+00   4.326151e+01
  -3.540772e+01   2.818667e+00
   1.193267e+01  -4.032723e+01
   7.430700e+01  -2.396252e+01
   8.084714e+01   3.780918e+01
   2.571585e+01   7.789037e+01
  -3.649008e+01   5.923487e+01
  -5.494372e+01   1.049134e+01
  -2.594814e+01  -1.686382e+01
   1.207189e+01  -2.948704e+00
   1.671898e+01   3.030638e+01
  -2.425363e+01   4.386692e+01
  -7.335309e+01   1.446088e+01
  -7.312460e+01  -4.376166e+01
  -9.946154e+00  -8.121401e+01
   6.009946e+01  -6.159468e+01
   7.131295e+01  -2.426169e+00
   2.342077e+01   4.270175e+01
  -2.497431e+01   4.104534e+01
  -3.040829e+01   1.099651e+01
  -6.585236e+00  -1.012496e+01
   7.832416e+00  -7.531246e+00
  -3.659232e+00   2.222430e+00
  -2.506696e+01  -2.830746e+00
  -3.179320e+01  -2.867102e+01
  -7.033393e+00  -5.698671e+01
   4.514243e+01  -5.629052e+01
   8.672834e+01  -1.060280e+01
   7.591433e+01   5.508177e+01
   1.580515e+01   8.879455e+01
  -4.160747e+01   6.423513e+01
  -5.046714e+01   1.032020e+01
  -2.636254e+01  -2.110612e+01
  -1.037459e+01  -1.328855e+01
  -2.044033e+01   5.241629e+00
  -3.085064e+01   4.033665e+00
  -1.620322e+01  -1.753696e+01
   1.429313e+01  -3.355623e+01
   3.602837e+01  -2.282410e+01
   3.106774e+01   1.048413e+01
  -3.723822e+00   4.010614e+01
  -5.024595e+01   3.196393e+01
  -7.188091e+01  -1.725796e+01
  -3.792749e+01  -7.307200e+01
   3.854779e+01  -8.563171e+01
   9.912747e+01  -3.729833e+01
   9.595535e+01   3.055622e+01
   4.049718e+01   6.425026e+01
  -1.492097e+01   5.412534e+01
  -3.566543e+01   3.110311e+01
  -2.966723e+01   2.606615e+01
  -2.436833e+01   3.371244e+01
  -3.294790e+01   2.692057e+01
  -4.721705e+01  -8.604637e+00
  -4.465062e+01  -5.794173e+01
  -1.308957e+01  -8.436481e+01
   3.517685e+01  -6.404160e+01
   6.542447e+01  -7.585778e+00
   5.158436e+01   4.544241e+01
   7.347253e+00   5.905658e+01
  -2.569579e+01   3.312494e+01
  -2.341010e+01  -1.442005e+00
  -2.373030e+00  -1.748018e+01
   3.896801e+00  -1.399108e+01
  -1.267231e+01  -7.234662e+00
  -2.799036e+01  -8.075242e+00
  -1.500659e+01  -1.316006e+01
   2.459923e+01  -1.323790e+01
   5.885578e+01  -1.964651e+00
   5.335469e+01   1.765013e+01
   5.870741e+00   3.254706e+01
  -4.489383e+01   2.881265e+01
  -5.414973e+01   6.853505e+00
  -1.763977e+01  -1.432250e+01
   2.328696e+01  -1.443543e+01
   2.902952e+01   6.065615e+00
   2.978335e+00   2.493336e+01
  -2.114038e+01   2.225282e+01
  -2.417132e+01   4.741191e-01
  -1.701115e+01  -1.762647e+01
  -1.674504e+01  -1.497951e+01
  -2.305445e+01  -2.507498e-01
  -2.485198e+01   6.282719e-01
  -1.407137e+01  -2.480518e+01
   1.005120e+01  -5.497794e+01
   4.073151e+01  -5.453454e+01
   5.995840e+01  -1.432377e+01
   4.671587e+01   3.269676e+01
   4.316063e+00   4.676853e+01
  -3.040017e+01   2.315659e+01
  -2.191582e+01  -5.679762e+00
   2.158680e+01  -8.215083e+00
   5.122846e+01   1.473678e+01
   2.932624e+01   3.867044e+01
  -2.822098e+01   4.208545e+01
  -6.957415e+01   2.158833e+01
  -5.995017e+01  -9.917853e+00
  -1.457472e+01  -3.130780e+01
   2.143125e+01  -2.719131e+01
   1.795201e+01  -4.292136e+00
  -1.361451e+01   9.940832e+00
  -3.254442e+01  -6.737644e+00
  -1.209451e+01  -4.212332e+01
   3.220182e+01  -5.642075e+01
   5.965521e+01  -2.356863e+01
   4.587320e+01   3.650535e+01
   4.605119e+00   7.224069e+01
  -3.040953e+01   5.268033e+01
  -3.906130e+01  -3.038103e+00
  -2.419128e+01  -4.377638e+01
  -3.716509e-01  -3.975287e+01
   1.779654e+01  -8.345232e+00
   2.084227e+01   1.012085e+01
   1.047076e+01   2.303199e+00
   1.859569e+00  -7.387818e+00
   8.443522e+00   6.282253e+00
   2.204401e+01   3.339644e+01
   1.599848e+01   4.083236e+01
  -1.835709e+01   1.713686e+01
  -5.254269e+01  -1.397376e+01
  -4.850720e+01  -2.595739e+01
  -5.865727e+00  -1.873407e+01
   3.313875e+01  -8.832346e+00
   3.269936e+01  -3.134342e+00
   3.741620e+00   3.049073e+00
  -1.432019e+01   8.684742e+00
  -5.119621e+00   6.861535e+00
   7.750432e+00  -3.455147e-01
  -2.583328e+00  -3.216711e+00
  -2.803236e+01  -1.274203e+00
  -3.436265e+01  -8.794336e+00
  -3.802385e+00  -3.017862e+01
   4.306787e+01  -4.352889e+01
   6.824150e+01  -2.355824e+01
   5.308973e+01   2.328461e+01
   1.135673e+01   5.949946e+01
  -2.754824e+01   5.640292e+01
  -4.169116e+01   2.268505e+01
  -3.016569e+01  -7.875925e+00
  -9.536372e+00  -1.366738e+01
   1.678366e+00  -3.613462e+00
  -3.119215e+00  -1.492672e+00
  -1.225101e+01  -1.636590e+01
  -8.923770e+00  -3.260416e+01
   1.044937e+01  -2.599627e+01
   3.003014e+01   6.914748e+00
   2.853841e+01   3.946855e+01
   1.341893e+00   4.064016e+01
  -3.085448e+01   8.426964e+00
  -3.826239e+01  -2.748703e+01
  -1.184702e+01  -3.799894e+01
   2.459651e+01  -2.105613e+01
   3.635527e+01   3.561759e+00
   1.500836e+01   1.847243e+01
  -1.127898e+01   1.987123e+01
  -1.119009e+01   1.094908e+01
   1.203914e+01  -5.572409e-01
   2.459526e+01  -3.262904e+00
   5.225574e+00   8.877778e+00
  -2.800843e+01   2.497097e+01
  -4.121748e+01   2.264134e+01
  -2.308535e+01  -3.910740e+00
   4.819539e+00  -3.088283e+01
   1.815930e+01  -2.950198e+01
   1.321860e+01  -2.104768e+00
   9.140111e-01   2.103639e+01
  -8.944461e+00   1.616476e+01
  -1.347470e+01  -6.733932e+00
  -1.017935e+01  -1.995208e+01
   5.691525e-01  -1.220364e+01
   1.204555e+01   3.035439e+00
   1.451280e+01   7.455291e+00
   7.474756e+00   7.331968e-02
   2.036100e-02  -5.102767e+00
  -2.391226e+00   1.516173e+00
  -2.817950e+00   1.369023e+01
  -6.428123e+00   1.630888e+01
  -1.214886e+01   2.424030e+00
  -1.129880e+01  -1.668104e+01
   4.510087e-01  -2.267436e+01
   1.622896e+01  -8.077271e+00
   2.115069e+01   1.399829e+01
   6.391651e+00   2.323431e+01
  -1.914336e+01   1.353877e+01
  -3.250044e+01  -4.377934e+00
  -1.888412e+01  -1.555421e+01
   9.288641e+00  -1.503452e+01
   2.296759e+01  -8.185567e+00
   8.777410e+00  -1.892751e+00
  -1.355943e+01  -6.267781e-01
  -1.399554e+01  -5.442555e+00
   1.087350e+01  -1.167309e+01
   3.308658e+01  -8.074094e+00
