
 $NMID
 id='ANONYMOUS ', fmtdat='(2E16.6)'
 volume=1.0
 tramp=1.0
 $END
   2.820140e+03  -1.273163e+02
   2.183433e+03   1.191099e+03
   9.025531e+01   1.797580e+03
  -8.672699e+02   1.127333e+03
  -8.267310e+02   4.849768e+02
  -1.990239e+02  -2.434710e+02
   1.826340e+02   1.686297e-01
   3.992266e+01   4.129990e+02
  -3.511978e+02   4.010549e+02
  -4.785434e+02   9.814011e+01
  -4.364008e+02  -3.533465e+02
  -5.973298e+01  -6.272211e+02
   2.874661e+02  -1.492039e+02
   2.244098e+02   3.288805e+02
  -8.038640e+00   4.443223e+02
  -3.650440e+02   1.432824e+02
  -3.075680e+02  -4.471643e+02
   5.328859e+01  -6.333771e+02
   4.189875e+02  -2.891349e+02
   4.257020e+02   1.044326e+02
   1.595335e+02   3.921813e+02
  -7.801804e+01   2.567470e+02
  -7.579237e+01   5.715034e+01
   1.859806e+02   8.250376e+01
   2.629048e+02   2.731463e+02
  -1.518051e+01   3.347062e+02
  -4.231795e+02   1.105584e+02
  -5.399090e+02  -1.859654e+02
  -1.981214e+02  -2.983459e+02
   2.810431e+02  -1.327209e+02
   4.499788e+02   1.230088e+02
   1.770234e+02   3.189832e+02
  -2.253760e+02   2.975057e+02
  -4.204732e+02   1.247597e+02
  -3.039932e+02  -1.287914e+02
  -9.228518e+01  -2.645200e+02
  -4.191007e-01  -1.618012e+02
  -7.065400e+01   6.452421e+01
  -1.799276e+02   1.169278e+02
  -1.625241e+02  -1.521635e+02
   1.397144e+01  -4.441985e+02
   2.186593e+02  -4.057487e+02
   2.772759e+02  -2.183603e+01
   1.097138e+02   2.636655e+02
  -1.194138e+02   1.442414e+02
  -1.573164e+02  -2.265922e+02
   8.027935e+01  -3.476279e+02
   3.908395e+02  -6.891520e+01
   4.553283e+02   3.162588e+02
   1.714208e+02   4.446893e+02
  -2.681988e+02   2.483068e+02
  -4.837445e+02  -5.111752e+01
  -3.180564e+02  -2.104651e+02
   3.632392e+01  -1.947007e+02
   2.554298e+02  -8.538367e+01
   1.941300e+02   4.257939e+00
   1.664391e+01   1.370278e+01
  -3.366575e+01  -2.877562e+01
   8.663097e+01  -4.362562e+01
   1.944760e+02   3.030731e+01
   1.108230e+02   1.607630e+02
  -1.313796e+02   2.331308e+02
  -3.120964e+02   1.442594e+02
  -2.503390e+02  -8.951269e+01
   1.969543e+01  -3.157242e+02
   2.829359e+02  -3.495813e+02
   3.491151e+02  -1.412172e+02
   2.163683e+02   1.574855e+02
   4.471431e+01   3.270343e+02
  -2.531901e+01   2.912993e+02
  -1.274477e+01   1.734459e+02
  -3.510295e+01   1.180978e+02
  -1.403644e+02   1.123372e+02
  -2.411412e+02   3.903376e+01
  -2.244373e+02  -1.261017e+02
  -7.977470e+01  -2.435131e+02
   9.107469e+01  -1.715594e+02
   1.730052e+02   4.544585e+01
   1.178966e+02   2.239043e+02
  -5.021877e+01   2.217664e+02
  -2.216538e+02   4.615687e+01
  -2.713826e+02  -1.592413e+02
  -1.523539e+02  -2.629099e+02
   2.966811e+01  -2.405316e+02
   1.359843e+02  -1.516500e+02
   1.347911e+02  -9.342480e+01
   1.508102e+02  -7.456341e+01
   2.757149e+02  -3.548996e+01
   3.920039e+02   9.128646e+01
   3.005156e+02   2.768306e+02
  -2.429877e+01   4.061290e+02
  -3.550398e+02   3.719948e+02
  -4.402067e+02   1.667824e+02
  -2.554421e+02  -8.702935e+01
  -1.299309e+01  -2.256123e+02
   8.004870e+01  -1.761667e+02
  -3.301316e+00  -3.633069e+01
  -1.121409e+02   3.096643e+01
  -1.112236e+02  -3.602521e+01
  -4.247494e-01  -1.226473e+02
   1.026180e+02  -8.804113e+01
   9.058881e+01   4.919373e+01
  -2.950747e+01   1.181824e+02
  -1.489809e+02  -1.148485e-01
  -1.442362e+02  -2.181715e+02
   1.170086e+01  -3.237664e+02
   2.259503e+02  -2.021010e+02
   3.412193e+02   5.737960e+01
   2.649668e+02   2.527059e+02
   5.184367e+01   2.602236e+02
  -1.251407e+02   1.259070e+02
  -1.391380e+02   6.229499e-01
  -3.015943e+01  -1.120645e+01
   4.559651e+01   5.957989e+01
  -7.193248e+00   1.026112e+02
  -1.150033e+02   5.511698e+01
  -1.309744e+02  -2.952821e+01
  -2.183743e+01  -5.132796e+01
   8.387189e+01   1.587017e+01
   4.019745e+01   9.548786e+01
  -1.420296e+02   9.150159e+01
  -2.911251e+02  -1.792103e+01
  -2.465962e+02  -1.645817e+02
  -2.430766e+01  -2.500854e+02
   1.973458e+02  -2.156741e+02
   2.480604e+02  -8.587871e+01
   1.230234e+02   3.941725e+01
  -2.750301e+01   6.488950e+01
  -5.346333e+01  -7.370820e+00
   5.365954e+01  -6.931160e+01
   1.692305e+02  -2.469555e+01
   1.691357e+02   9.750487e+01
   4.898525e+01   1.704227e+02
  -8.217296e+01   1.202937e+02
  -1.130079e+02   9.996235e+00
  -3.645592e+01  -3.610779e+01
   4.605926e+01   2.369920e+01
   2.685574e+01   1.104728e+02
  -9.477803e+01   1.155227e+02
  -2.003162e+02   1.141377e+01
  -1.693183e+02  -1.268903e+02
  -9.168207e+00  -1.933451e+02
   1.428939e+02  -1.387584e+02
   1.580667e+02  -1.123877e+01
   4.887958e+01   8.547744e+01
  -5.781170e+01   8.597738e+01
  -6.345362e+01   2.014621e+01
   3.401796e+00  -2.597584e+01
   4.116416e+01  -6.287494e+00
  -5.573984e+00   3.080988e+01
  -8.805100e+01   7.599852e+00
  -1.061174e+02  -8.712709e+01
  -1.363209e+01  -1.701516e+02
   1.354304e+02  -1.460133e+02
   2.243273e+02  -8.247660e+00
   1.789931e+02   1.483050e+02
   3.540627e+01   2.096755e+02
  -9.109446e+01   1.463771e+02
  -1.181814e+02   2.990586e+01
  -6.861568e+01  -3.843089e+01
  -3.174785e+01  -2.588661e+01
  -5.180766e+01   1.564378e+01
  -8.440516e+01   9.390595e+00
  -5.740707e+01  -5.406099e+01
   3.653205e+01  -1.051679e+02
   1.213003e+02  -6.898289e+01
   1.081315e+02   4.367761e+01
  -1.630133e+01   1.288295e+02
  -1.597825e+02   8.929710e+01
  -1.985572e+02  -6.198121e+01
  -7.922325e+01  -2.015599e+02
   1.189440e+02  -2.064997e+02
   2.503692e+02  -7.449791e+01
   2.249332e+02   8.370090e+01
   8.962262e+01   1.548619e+02
  -3.755233e+01   1.253056e+02
  -8.113074e+01   7.300138e+01
  -6.287396e+01   6.526616e+01
  -5.163590e+01   9.066333e+01
  -8.292386e+01   7.757137e+01
  -1.229192e+02  -1.568698e+01
  -1.121111e+02  -1.439999e+02
  -2.562235e+01  -2.108669e+02
   9.248701e+01  -1.540781e+02
   1.571501e+02  -9.068024e+00
   1.164861e+02   1.191157e+02
   7.525691e+00   1.449703e+02
  -7.141496e+01   7.356831e+01
  -5.844093e+01  -1.638694e+01
   6.524187e+00  -5.315854e+01
   2.930274e+01  -3.377285e+01
  -2.421467e+01  -8.068005e+00
  -8.223708e+01  -1.335788e+01
  -5.013089e+01  -3.731735e+01
   6.956833e+01  -3.902247e+01
   1.660408e+02   1.434598e+00
   1.358201e+02   6.085319e+01
  -3.571882e+00   9.295034e+01
  -1.289421e+02   6.824500e+01
  -1.367811e+02   3.467615e+00
  -4.163351e+01  -4.887904e+01
   5.540211e+01  -4.316679e+01
   7.429149e+01   1.496288e+01
   2.193286e+01   6.830477e+01
  -3.951029e+01   6.196312e+01
  -6.478823e+01   2.974639e+00
  -5.676579e+01  -4.709716e+01
  -4.428126e+01  -4.002785e+01
  -4.810174e+01  -5.064046e-01
  -5.876720e+01   1.317943e-01
  -4.389589e+01  -6.740507e+01
   2.234214e+01  -1.428748e+02
   1.180590e+02  -1.370805e+02
   1.718483e+02  -3.193306e+01
   1.241375e+02   8.880965e+01
   8.722953e-01   1.260982e+02
  -8.853248e+01   6.696438e+01
  -5.918311e+01  -9.119145e+00
   5.388843e+01  -2.018488e+01
   1.242267e+02   3.686831e+01
   6.523452e+01   9.794993e+01
  -7.746529e+01   1.011212e+02
  -1.749633e+02   4.040691e+01
  -1.445694e+02  -3.883288e+01
  -2.789115e+01  -7.907071e+01
   6.045560e+01  -5.585801e+01
   4.678223e+01   2.385499e+00
  -3.598172e+01   3.104013e+01
  -8.738714e+01  -1.494742e+01
  -4.216461e+01  -1.055055e+02
   6.675963e+01  -1.470224e+02
   1.429074e+02  -7.088399e+01
   1.197244e+02   7.979632e+01
   1.990857e+01   1.765168e+02
  -7.362836e+01   1.304505e+02
  -9.697361e+01  -1.060853e+01
  -5.102173e+01  -1.118133e+02
   1.443589e+01  -9.502911e+01
   4.990476e+01  -1.311200e+01
   4.133485e+01   3.020387e+01
   1.340962e+01   7.394214e+00
   5.063904e+00  -1.496860e+01
   2.996490e+01   2.069902e+01
   5.466207e+01   8.260686e+01
   2.836916e+01   9.549763e+01
  -5.345077e+01   3.905798e+01
  -1.255242e+02  -3.257366e+01
  -1.126368e+02  -6.260505e+01
  -1.762255e+01  -4.981545e+01
   7.296593e+01  -2.532796e+01
   8.007402e+01  -5.155921e+00
   1.792295e+01   1.211046e+01
  -3.135702e+01   2.059523e+01
  -2.025455e+01   1.113212e+01
   1.115880e+01  -4.339292e+00
  -2.449648e+00  -4.267289e+00
  -6.000386e+01   3.308922e+00
  -8.755004e+01  -1.802315e+01
  -2.537169e+01  -7.593189e+01
   9.472480e+01  -1.138733e+02
   1.745922e+02  -6.800107e+01
   1.463455e+02   4.954701e+01
   3.494271e+01   1.470706e+02
  -7.197195e+01   1.472262e+02
  -1.076119e+02   6.509665e+01
  -7.509315e+01  -1.527195e+01
  -2.580294e+01  -3.510921e+01
  -4.335167e+00  -1.329239e+01
  -1.423203e+01  -9.164779e+00
  -2.849637e+01  -4.616553e+01
  -1.723450e+01  -8.418219e+01
   2.592908e+01  -6.694514e+01
   7.286621e+01   1.114686e+01
   7.774046e+01   9.086776e+01
   1.844180e+01   1.020690e+02
  -6.709072e+01   3.420848e+01
  -1.006830e+02  -5.459226e+01
  -4.226370e+01  -9.428914e+01
   5.656340e+01  -6.300915e+01
   9.752317e+01   4.090377e+00
   4.494826e+01   5.482913e+01
  -3.149284e+01   6.006970e+01
  -3.955611e+01   2.729361e+01
   2.156562e+01  -8.439154e+00
   6.271232e+01  -1.104448e+01
   1.889467e+01   2.538326e+01
  -7.106651e+01   6.262781e+01
  -1.127529e+02   5.071343e+01
  -6.896386e+01  -1.576597e+01
   9.455349e+00  -8.036728e+01
   5.288084e+01  -8.038703e+01
   4.333276e+01  -1.599652e+01
   9.620049e+00   4.625436e+01
  -1.971895e+01   4.602434e+01
  -3.353336e+01  -6.556197e+00
  -2.726045e+01  -4.898829e+01
  -1.030050e-01  -3.873827e+01
   3.116824e+01   3.102919e+00
   3.960350e+01   2.433421e+01
   1.881200e+01   5.721177e+00
  -5.076732e+00  -1.977390e+01
  -6.619145e+00  -1.115369e+01
   6.696740e+00   2.736019e+01
   3.661895e+00   5.019585e+01
  -2.310979e+01   2.381817e+01
  -4.089639e+01  -2.965249e+01
  -1.605555e+01  -5.503330e+01
   3.666011e+01  -2.577037e+01
   6.104566e+01   2.807697e+01
   2.085830e+01   5.525209e+01
  -5.317234e+01   3.581811e+01
  -8.879087e+01  -6.890039e+00
  -4.936703e+01  -3.886783e+01
   2.535910e+01  -4.522417e+01
   6.055161e+01  -3.048835e+01
   2.829311e+01  -7.989061e+00
  -2.411107e+01   5.344849e+00
  -3.063072e+01  -2.830638e+00
   1.881692e+01  -2.324487e+01
   6.954711e+01  -2.223992e+01
