
 $NMID
 id='ANONYMOUS ', fmtdat='(2E16.6)'
 volume=1.0
 tramp=1.0
 $END
  -2.302322e+03  -1.195729e+02
  -1.673817e+03  -1.276074e+03
   7.165265e+01  -1.486310e+03
   8.912125e+02  -9.434798e+02
   8.443754e+02  -9.876567e+01
  -5.973471e+01   1.460111e+02
  -2.483851e+02  -1.014696e+02
   3.943625e+01  -3.380919e+02
   3.788594e+02  -4.575330e+02
   5.121491e+02  -7.460479e+01
   3.384468e+02   3.651873e+02
  -2.093412e+01   4.782241e+02
  -2.270372e+02   8.860515e+01
  -1.972004e+02  -2.987423e+02
   6.392669e+01  -4.508525e+02
   3.139865e+02  -6.269829e+01
   2.564662e+02   4.096370e+02
  -6.037626e+01   5.169485e+02
  -3.846930e+02   2.084721e+02
  -4.010221e+02  -9.568715e+01
  -1.921863e+02  -2.577357e+02
   8.550908e+01  -2.169185e+02
   7.905974e+01  -6.112077e+01
  -1.177533e+02  -9.943700e+01
  -2.141860e+02  -2.386450e+02
   2.075542e+01  -3.087936e+02
   3.979974e+02  -1.118628e+02
   4.768454e+02   1.733476e+02
   1.653597e+02   2.877181e+02
  -2.606400e+02   1.286934e+02
  -3.889608e+02  -1.382171e+02
  -1.415807e+02  -3.012035e+02
   2.165252e+02  -2.835693e+02
   3.736165e+02  -9.207996e+01
   2.643346e+02   1.342787e+02
   8.308434e+01   2.257253e+02
   9.302117e+00   1.147752e+02
   6.989551e+01  -6.314000e+01
   1.570051e+02  -7.027712e+01
   1.332134e+02   1.525902e+02
  -3.109979e+01   3.961665e+02
  -2.084759e+02   3.242612e+02
  -2.394123e+02   5.905620e+00
  -8.627135e+01  -2.260140e+02
   1.134816e+02  -9.727817e+01
   1.221793e+02   2.197343e+02
  -9.606044e+01   3.038691e+02
  -3.561129e+02   4.306989e+01
  -3.945985e+02  -3.028323e+02
  -1.372329e+02  -4.045031e+02
   2.329919e+02  -2.174400e+02
   4.264730e+02   5.745813e+01
   2.916149e+02   1.971809e+02
  -1.705637e+01   1.659426e+02
  -2.196588e+02   6.534810e+01
  -1.783005e+02  -5.622843e+00
  -2.282864e+01  -9.164114e+00
   3.117527e+01   2.741056e+01
  -6.831683e+01   3.823362e+01
  -1.682196e+02  -2.473980e+01
  -1.029795e+02  -1.371475e+02
   1.100089e+02  -2.052579e+02
   2.802198e+02  -1.354717e+02
   2.343679e+02   7.043558e+01
  -1.224272e+01   2.815788e+02
  -2.605005e+02   3.230174e+02
  -3.212656e+02   1.353805e+02
  -1.911430e+02  -1.439335e+02
  -3.123584e+01  -3.014239e+02
   2.352687e+01  -2.638645e+02
   2.157753e+00  -1.509988e+02
   2.408045e+01  -1.042426e+02
   1.299717e+02  -1.079229e+02
   2.276607e+02  -4.220259e+01
   2.075692e+02   1.153708e+02
   6.963740e+01   2.296960e+02
  -8.851038e+01   1.633336e+02
  -1.627159e+02  -4.594534e+01
  -1.062267e+02  -2.208042e+02
   5.175492e+01  -2.121593e+02
   2.109946e+02  -3.936943e+01
   2.523111e+02   1.551925e+02
   1.371465e+02   2.459085e+02
  -3.121903e+01   2.173295e+02
  -1.240784e+02   1.382949e+02
  -1.188703e+02   8.368622e+01
  -1.342918e+02   6.881172e+01
  -2.490217e+02   2.851796e+01
  -3.560599e+02  -8.696882e+01
  -2.734090e+02  -2.570530e+02
   2.848252e+01  -3.756174e+02
   3.348084e+02  -3.376171e+02
   4.110839e+02  -1.421766e+02
   2.345974e+02   9.229278e+01
   6.045842e+00   2.092943e+02
  -7.427418e+01   1.551139e+02
   5.604097e+00   2.600548e+01
   1.077882e+02  -2.464347e+01
   1.035237e+02   4.393806e+01
   1.840530e-02   1.197629e+02
  -9.241871e+01   8.146894e+01
  -8.035057e+01  -4.387717e+01
   2.821057e+01  -1.006695e+02
   1.315165e+02   9.973515e+00
   1.270764e+02   2.049268e+02
  -1.533210e+01   2.975164e+02
  -2.102678e+02   1.849485e+02
  -3.167588e+02  -5.042896e+01
  -2.467398e+02  -2.307921e+02
  -5.066204e+01  -2.391203e+02
   1.123988e+02  -1.175661e+02
   1.256345e+02  -2.973944e+00
   2.639245e+01   8.465923e+00
  -4.116029e+01  -5.695865e+01
   8.305940e+00  -9.571796e+01
   1.052967e+02  -5.168724e+01
   1.166440e+02   2.497101e+01
   1.661788e+01   4.300200e+01
  -7.520226e+01  -2.020872e+01
  -2.713267e+01  -9.115402e+01
   1.423709e+02  -8.258587e+01
   2.728415e+02   2.208830e+01
   2.229980e+02   1.588452e+02
   1.395721e+01   2.349755e+02
  -1.872056e+02   1.981644e+02
  -2.287047e+02   7.488040e+01
  -1.098124e+02  -4.057053e+01
   2.913621e+01  -6.031416e+01
   5.005259e+01   8.820050e+00
  -5.096427e+01   6.558951e+01
  -1.577427e+02   2.204969e+01
  -1.557323e+02  -9.103380e+01
  -4.314387e+01  -1.559017e+02
   7.709176e+01  -1.075804e+02
   1.032546e+02  -7.114133e+00
   3.019501e+01   3.226332e+01
  -4.584907e+01  -2.542123e+01
  -2.492073e+01  -1.047239e+02
   9.028637e+01  -1.059870e+02
   1.873888e+02  -6.619734e+00
   1.548132e+02   1.197458e+02
   4.676464e+00   1.764359e+02
  -1.331893e+02   1.231119e+02
  -1.439216e+02   8.325181e+00
  -4.306464e+01  -7.626972e+01
   5.209290e+01  -7.592936e+01
   5.601638e+01  -1.808736e+01
  -3.899912e+00   2.196685e+01
  -3.736339e+01   4.904457e+00
   6.067337e+00  -2.844107e+01
   8.107549e+01  -5.731473e+00
   9.717970e+01   8.192032e+01
   1.013086e+01   1.584943e+02
  -1.283726e+02   1.340908e+02
  -2.092127e+02   4.393430e+00
  -1.645517e+02  -1.399752e+02
  -3.012980e+01  -1.940116e+02
   8.488135e+01  -1.336439e+02
   1.067990e+02  -2.752340e+01
   6.153569e+01   3.378905e+01
   2.919762e+01   2.093453e+01
   4.945523e+01  -1.526485e+01
   7.878541e+01  -7.711268e+00
   5.251404e+01   5.065337e+01
  -3.379982e+01   9.600941e+01
  -1.104416e+02   6.207454e+01
  -9.691656e+01  -4.075192e+01
   1.590065e+01  -1.177688e+02
   1.476314e+02  -7.804521e+01
   1.808480e+02   6.248235e+01
   7.086559e+01   1.883354e+02
  -1.125018e+02   1.896832e+02
  -2.318351e+02   6.540867e+01
  -2.068120e+02  -7.807567e+01
  -8.142901e+01  -1.406769e+02
   3.462941e+01  -1.133713e+02
   7.212787e+01  -6.636284e+01
   5.428289e+01  -6.098921e+01
   4.588384e+01  -8.402473e+01
   7.705049e+01  -7.227450e+01
   1.146194e+02   1.349002e+01
   1.025930e+02   1.320393e+02
   2.101674e+01   1.933094e+02
  -8.697741e+01   1.402424e+02
  -1.442539e+02   6.070062e+00
  -1.046561e+02  -1.109959e+02
  -3.860795e+00  -1.329205e+02
   6.744035e+01  -6.620920e+01
   5.410691e+01   1.604350e+01
  -6.083582e+00   4.954394e+01
  -2.706030e+01   3.246173e+01
   2.230267e+01   9.329999e+00
   7.495233e+01   1.396245e+01
   4.449209e+01   3.541886e+01
  -6.660592e+01   3.637902e+01
  -1.552153e+02  -2.043710e+00
  -1.257544e+02  -5.810929e+01
   4.419550e+00  -8.730945e+01
   1.196127e+02  -6.301673e+01
   1.258495e+02  -1.803708e+00
   3.758972e+01   4.569740e+01
  -5.124201e+01   3.853002e+01
  -6.815029e+01  -1.569338e+01
  -1.992817e+01  -6.314699e+01
   3.660660e+01  -5.631114e+01
   5.955139e+01  -2.247152e+00
   5.159673e+01   4.258762e+01
   4.057173e+01   3.529082e+01
   4.586835e+01  -5.887335e-01
   5.757586e+01  -2.499406e-01
   4.329181e+01   6.297871e+01
  -2.006080e+01   1.333572e+02
  -1.099576e+02   1.285512e+02
  -1.594779e+02   3.171379e+01
  -1.140003e+02  -8.029019e+01
  -5.473999e-01  -1.155532e+02
   8.055339e+01  -6.191993e+01
   5.236971e+01   8.177041e+00
  -5.170345e+01   1.855770e+01
  -1.151113e+02  -3.478208e+01
  -5.905405e+01  -9.152292e+01
   7.370497e+01  -9.322257e+01
   1.630003e+02  -3.503447e+01
   1.326274e+02   3.828281e+01
   2.303319e+01   7.374795e+01
  -5.773410e+01   4.995946e+01
  -4.245409e+01  -3.999281e+00
   3.486444e+01  -2.787419e+01
   8.057306e+01   1.626783e+01
   3.657932e+01   9.848681e+01
  -6.413833e+01   1.341427e+02
  -1.324457e+02   6.313491e+01
  -1.094450e+02  -7.459580e+01
  -1.709535e+01  -1.620195e+02
   6.809997e+01  -1.193011e+02
   8.843930e+01   1.020142e+01
   4.567938e+01   1.027211e+02
  -1.435787e+01   8.659637e+01
  -4.577641e+01   1.142486e+01
  -3.693851e+01  -2.770227e+01
  -1.155403e+01  -5.831232e+00
  -5.578808e+00   1.435795e+01
  -2.923811e+01  -1.930603e+01
  -5.080404e+01  -7.695283e+01
  -2.515296e+01  -8.829341e+01
   5.016033e+01  -3.523184e+01
   1.145737e+02   3.093177e+01
   1.014378e+02   5.789732e+01
   1.486870e+01   4.523899e+01
  -6.628958e+01   2.238440e+01
  -7.170168e+01   4.133656e+00
  -1.541793e+01  -1.071335e+01
   2.802413e+01  -1.783361e+01
   1.690726e+01  -9.317474e+00
  -1.179127e+01   4.228671e+00
   1.527273e+00   3.683373e+00
   5.483186e+01  -3.309026e+00
   8.025838e+01   1.603997e+01
   2.359748e+01   6.822254e+01
  -8.659366e+01   1.029718e+02
  -1.601656e+02   6.201551e+01
  -1.344274e+02  -4.432918e+01
  -3.203862e+01  -1.342221e+02
   6.673835e+01  -1.352563e+02
   9.933948e+01  -6.015403e+01
   6.900873e+01   1.431477e+01
   2.332233e+01   3.256243e+01
   3.622729e+00   1.149609e+01
   1.322185e+01   7.465556e+00
   2.626390e+01   4.236877e+01
   1.577854e+01   7.813499e+01
  -2.335066e+01   6.196061e+01
  -6.565099e+01  -1.048754e+01
  -6.993349e+01  -8.311175e+01
  -1.628358e+01  -9.243630e+01
   6.099767e+01  -2.994230e+01
   9.113716e+01   5.087413e+01
   3.753656e+01   8.680546e+01
  -5.268771e+01   5.844171e+01
  -8.984591e+01  -2.965581e+00
  -4.124268e+01  -4.989211e+01
   2.847920e+01  -5.533539e+01
   3.515428e+01  -2.578073e+01
  -2.187080e+01   6.985212e+00
  -5.949837e+01   9.179154e+00
  -1.784385e+01  -2.418391e+01
   6.617091e+01  -5.815719e+01
   1.050936e+02  -4.696713e+01
   6.382900e+01   1.422699e+01
  -9.651551e+00   7.354229e+01
  -4.972136e+01   7.328816e+01
  -4.012490e+01   1.414627e+01
  -8.518083e+00  -4.292952e+01
   1.812019e+01  -4.235911e+01
   3.043450e+01   6.001277e+00
   2.490403e+01   4.444750e+01
   7.454160e-01   3.413939e+01
  -2.809768e+01  -3.946169e+00
  -3.651767e+01  -2.226984e+01
  -1.759594e+01  -4.328033e+00
   5.245043e+00   1.864765e+01
   6.602763e+00   1.000504e+01
  -6.551404e+00  -2.577781e+01
  -4.658600e+00  -4.641481e+01
   2.053022e+01  -2.262531e+01
   3.825841e+01   2.612962e+01
   1.601066e+01   5.004899e+01
  -3.282203e+01   2.364493e+01
  -5.604506e+01  -2.569503e+01
  -1.912335e+01  -5.079980e+01
   4.909914e+01  -3.256267e+01
   8.160396e+01   7.185447e+00
   4.445690e+01   3.643699e+01
  -2.441794e+01   4.108384e+01
  -5.621784e+01   2.680276e+01
  -2.621704e+01   6.496313e+00
   2.184318e+01  -5.081403e+00
   2.750565e+01   2.222295e+00
  -1.759945e+01   1.979668e+01
  -6.315942e+01   1.865574e+01
