
 $NMID
 id='ANONYMOUS ', fmtdat='(2E16.6)'
 volume=1.0
 tramp=1.0
 $END
  -3.115890e+03   2.447666e+02
  -2.146691e+03  -1.498153e+03
   1.200298e+02  -2.046286e+03
   1.120264e+03  -1.032003e+03
   8.937766e+02  -1.192284e+02
  -4.496923e+01   3.338436e+02
  -4.266118e+02   6.037481e-01
  -9.659027e+01  -4.994509e+02
   4.729464e+02  -6.319849e+02
   5.668773e+02  -1.175878e+02
   3.986317e+02   6.222900e+02
  -1.332639e+01   6.641713e+02
  -2.868547e+02   1.853861e+02
  -2.230407e+02  -4.058718e+02
   1.161292e+02  -5.523177e+02
   3.722350e+02  -1.137981e+02
   3.023629e+02   4.668506e+02
  -1.226779e+02   6.092135e+02
  -4.526814e+02   2.625560e+02
  -4.323450e+02  -1.948971e+02
  -1.425490e+02  -3.962340e+02
   1.399284e+02  -2.439941e+02
   8.021807e+01  -6.214655e+01
  -1.693307e+02  -5.413894e+01
  -2.740356e+02  -2.673147e+02
   4.676515e+00  -3.469885e+02
   4.389709e+02  -1.519146e+02
   5.659022e+02   1.996370e+02
   1.945447e+02   3.903211e+02
  -3.199352e+02   2.077434e+02
  -4.884020e+02  -1.503300e+02
  -1.860901e+02  -3.639746e+02
   2.452200e+02  -3.349547e+02
   4.287866e+02  -9.809515e+01
   3.083995e+02   1.725870e+02
   8.097398e+01   2.785777e+02
  -3.268206e+01   1.521035e+02
   3.220217e+01  -7.777198e+01
   1.630965e+02  -1.203018e+02
   1.858939e+02   1.491045e+02
   5.659909e+00   4.454154e+02
  -2.455280e+02   3.816998e+02
  -3.049544e+02  -1.918154e+01
  -1.121529e+02  -2.798463e+02
   1.529360e+02  -1.206725e+02
   1.782441e+02   2.538483e+02
  -1.017873e+02   3.551770e+02
  -4.069563e+02   4.993028e+01
  -4.424619e+02  -3.423395e+02
  -1.357588e+02  -4.670684e+02
   2.771230e+02  -2.553813e+02
   4.704730e+02   6.879149e+01
   3.082063e+02   2.554457e+02
  -4.466690e+01   2.211014e+02
  -2.643305e+02   7.014906e+01
  -1.998495e+02  -4.099481e+01
  -5.896055e+00  -2.538060e+01
   5.078896e+01   5.027961e+01
  -9.035998e+01   5.817646e+01
  -2.155124e+02  -4.444367e+01
  -1.174007e+02  -1.765078e+02
   1.502047e+02  -2.201764e+02
   3.295892e+02  -1.179775e+02
   2.461734e+02   9.448970e+01
  -3.035759e+01   2.950769e+02
  -2.820498e+02   3.318286e+02
  -3.388860e+02   1.401234e+02
  -2.058563e+02  -1.538221e+02
  -3.268021e+01  -3.253791e+02
   4.209360e+01  -2.829811e+02
   2.199749e+01  -1.506469e+02
   2.656923e+01  -9.329032e+01
   1.219905e+02  -1.036029e+02
   2.269165e+02  -4.653463e+01
   2.156767e+02   1.147975e+02
   7.287932e+01   2.352324e+02
  -9.379237e+01   1.702561e+02
  -1.719956e+02  -4.571280e+01
  -1.121329e+02  -2.303167e+02
   5.512189e+01  -2.289023e+02
   2.293951e+02  -5.058497e+01
   2.776403e+02   1.670977e+02
   1.467445e+02   2.819691e+02
  -5.383965e+01   2.487383e+02
  -1.592710e+02   1.414518e+02
  -1.404589e+02   6.777329e+01
  -1.430444e+02   5.319446e+01
  -2.593038e+02   2.396674e+01
  -3.767011e+02  -9.792889e+01
  -2.847696e+02  -2.802824e+02
   3.727813e+01  -4.031289e+02
   3.657413e+02  -3.581497e+02
   4.503086e+02  -1.480324e+02
   2.649512e+02   1.028300e+02
   1.167979e+01   2.360011e+02
  -8.979759e+01   1.829448e+02
  -1.045735e+01   3.696084e+01
   1.097035e+02  -3.212905e+01
   1.197991e+02   3.892573e+01
   3.033982e+00   1.315617e+02
  -1.114669e+02   9.599766e+01
  -1.006749e+02  -4.795355e+01
   2.774010e+01  -1.190917e+02
   1.482358e+02   1.617452e+00
   1.335100e+02   2.180855e+02
  -2.740771e+01   3.164454e+02
  -2.301139e+02   1.881640e+02
  -3.293761e+02  -6.535979e+01
  -2.502763e+02  -2.522591e+02
  -4.810745e+01  -2.575425e+02
   1.218785e+02  -1.253835e+02
   1.363682e+02  -1.661942e+00
   3.003978e+01   1.161124e+01
  -4.407181e+01  -6.013356e+01
   9.786739e+00  -1.048405e+02
   1.189619e+02  -5.636973e+01
   1.338480e+02   3.026313e+01
   2.303328e+01   5.166549e+01
  -7.943301e+01  -1.583522e+01
  -3.254054e+01  -9.104798e+01
   1.460034e+02  -8.090449e+01
   2.863725e+02   2.888355e+01
   2.366805e+02   1.710765e+02
   1.491836e+01   2.521029e+02
  -2.062609e+02   2.146690e+02
  -2.562744e+02   7.947868e+01
  -1.256364e+02  -5.125483e+01
   3.355045e+01  -7.360213e+01
   6.132937e+01   7.789343e+00
  -5.358992e+01   7.521968e+01
  -1.752987e+02   2.625892e+01
  -1.722480e+02  -1.020438e+02
  -4.498364e+01  -1.760696e+02
   8.822801e+01  -1.224185e+02
   1.160311e+02  -1.039083e+01
   3.845208e+01   3.650967e+01
  -4.335791e+01  -2.077342e+01
  -2.463856e+01  -1.050846e+02
   9.540263e+01  -1.096274e+02
   1.989397e+02  -6.367036e+00
   1.653834e+02   1.310029e+02
   1.154649e+00   1.942994e+02
  -1.510477e+02   1.336006e+02
  -1.610092e+02   2.976757e+00
  -4.623431e+01  -9.057806e+01
   6.127386e+01  -8.588036e+01
   6.549965e+01  -1.965053e+01
  -4.219944e-02   2.365709e+01
  -3.501980e+01   5.696001e+00
   9.387115e+00  -2.625909e+01
   8.387826e+01  -1.645272e-01
   9.711000e+01   9.101347e+01
   6.080846e+00   1.679092e+02
  -1.382468e+02   1.404662e+02
  -2.239164e+02   3.054084e-01
  -1.743636e+02  -1.555688e+02
  -2.673442e+01  -2.126937e+02
   9.912497e+01  -1.427808e+02
   1.192551e+02  -2.319411e+01
   6.532035e+01   4.332330e+01
   2.920806e+01   2.613950e+01
   5.230136e+01  -1.457993e+01
   8.422742e+01  -6.271031e+00
   5.404609e+01   5.513040e+01
  -3.884488e+01   1.003721e+02
  -1.180652e+02   6.151541e+01
  -1.017671e+02  -4.589636e+01
   2.007202e+01  -1.229204e+02
   1.598487e+02  -7.885676e+01
   1.952311e+02   7.075279e+01
   7.265651e+01   2.040558e+02
  -1.270337e+02   2.037590e+02
  -2.567635e+02   6.759270e+01
  -2.263340e+02  -9.144394e+01
  -8.537192e+01  -1.600487e+02
   4.306295e+01  -1.280612e+02
   8.449150e+01  -7.225956e+01
   6.438677e+01  -6.221987e+01
   5.485520e+01  -8.575857e+01
   8.661685e+01  -7.266489e+01
   1.242676e+02   1.911551e+01
   1.077283e+02   1.471221e+02
   1.716012e+01   2.129562e+02
  -1.000587e+02   1.530479e+02
  -1.591175e+02   3.711418e+00
  -1.126638e+02  -1.248488e+02
  -2.171609e+00  -1.465978e+02
   7.421365e+01  -7.146051e+01
   5.888737e+01   1.706034e+01
  -5.371268e+00   5.082467e+01
  -2.672938e+01   3.319552e+01
   2.496819e+01   1.274011e+01
   7.862036e+01   2.050885e+01
   4.503456e+01   4.021609e+01
  -7.171093e+01   3.555125e+01
  -1.648695e+02  -8.000528e+00
  -1.341778e+02  -6.559330e+01
   3.905036e+00  -9.299728e+01
   1.289162e+02  -6.489407e+01
   1.366693e+02   2.386501e-01
   3.980076e+01   4.894058e+01
  -5.799195e+01   3.887781e+01
  -7.343277e+01  -2.036310e+01
  -1.630656e+01  -7.087900e+01
   4.535477e+01  -6.090325e+01
   6.532001e+01   2.545779e-02
   5.292782e+01   4.993389e+01
   4.277567e+01   4.164244e+01
   5.089382e+01   1.219116e+00
   6.189189e+01   9.753654e-01
   4.221123e+01   6.876006e+01
  -2.737308e+01   1.435338e+02
  -1.213393e+02   1.343381e+02
  -1.704233e+02   2.692320e+01
  -1.195403e+02  -9.212736e+01
   2.492355e+00  -1.241416e+02
   8.897974e+01  -6.158470e+01
   5.794665e+01   1.248295e+01
  -5.479268e+01   1.826896e+01
  -1.237320e+02  -4.251663e+01
  -6.322439e+01  -1.016656e+02
   8.090547e+01  -9.904490e+01
   1.771657e+02  -3.386280e+01
   1.438863e+02   4.420352e+01
   2.489341e+01   7.996269e+01
  -6.241467e+01   5.281709e+01
  -4.494461e+01  -4.572252e+00
   3.933848e+01  -2.833188e+01
   8.680927e+01   2.131795e+01
   3.445682e+01   1.096978e+02
  -7.765079e+01   1.440969e+02
  -1.483916e+02   6.223261e+01
  -1.156003e+02  -8.865421e+01
  -1.069737e+01  -1.799576e+02
   8.011032e+01  -1.284503e+02
   9.686385e+01   1.452165e+01
   4.793360e+01   1.143056e+02
  -1.576196e+01   9.523411e+01
  -4.907119e+01   1.197572e+01
  -4.092596e+01  -3.086019e+01
  -1.473225e+01  -6.565707e+00
  -6.447729e+00   1.583024e+01
  -2.924837e+01  -2.137280e+01
  -5.234575e+01  -8.581277e+01
  -2.598584e+01  -9.824503e+01
   5.483363e+01  -3.792125e+01
   1.258773e+02   3.742926e+01
   1.117073e+02   6.773185e+01
   1.518130e+01   5.149082e+01
  -7.530007e+01   2.308197e+01
  -8.019273e+01   2.261305e+00
  -1.623818e+01  -1.295165e+01
   3.201565e+01  -1.935264e+01
   1.899134e+01  -9.898385e+00
  -1.285678e+01   4.549931e+00
   2.740769e+00   4.897808e+00
   6.126384e+01  -7.490048e-01
   8.589782e+01   2.149136e+01
   1.988346e+01   7.605984e+01
  -1.005289e+02   1.085936e+02
  -1.758740e+02   5.952799e+01
  -1.420479e+02  -5.575769e+01
  -2.819369e+01  -1.476714e+02
   7.754677e+01  -1.428201e+02
   1.098607e+02  -5.955042e+01
   7.426285e+01   1.908733e+01
   2.324909e+01   3.641708e+01
   1.557168e+00   1.307359e+01
   1.211624e+01   8.577133e+00
   2.647203e+01   4.604551e+01
   1.441095e+01   8.410003e+01
  -2.820503e+01   6.546873e+01
  -7.218892e+01  -1.523499e+01
  -7.259150e+01  -9.502559e+01
  -1.195162e+01  -1.024786e+02
   6.991719e+01  -2.955296e+01
   9.769907e+01   6.091522e+01
   3.623302e+01   9.662262e+01
  -6.033650e+01   6.001675e+01
  -9.644874e+01  -8.445289e+00
  -4.108147e+01  -5.566349e+01
   3.356657e+01  -5.757821e+01
   3.790060e+01  -2.566078e+01
  -2.469582e+01   6.970657e+00
  -6.395332e+01   8.235524e+00
  -1.683037e+01  -2.624823e+01
   7.357739e+01  -6.033611e+01
   1.130818e+02  -4.742213e+01
   6.620022e+01   1.747270e+01
  -1.332453e+01   7.910150e+01
  -5.549276e+01   7.665607e+01
  -4.315075e+01   1.152496e+01
  -6.832819e+00  -4.846663e+01
   2.301967e+01  -4.483628e+01
   3.471748e+01   9.579393e+00
   2.573145e+01   5.038965e+01
  -1.958212e+00   3.743558e+01
  -3.149630e+01  -4.892903e+00
  -3.843037e+01  -2.483188e+01
  -1.836495e+01  -5.094479e+00
   3.624130e+00   1.933404e+01
   5.557833e+00   9.283714e+00
  -4.256860e+00  -2.898149e+01
   3.693494e-01  -4.951196e+01
   2.449111e+01  -2.133119e+01
   3.784751e+01   3.204303e+01
   1.206595e+01   5.548979e+01
  -3.707950e+01   2.362564e+01
  -5.797080e+01  -3.122980e+01
  -1.781976e+01  -5.613525e+01
   5.347014e+01  -3.272050e+01
   8.684247e+01   1.189671e+01
   4.685624e+01   4.110131e+01
  -2.733254e+01   4.237085e+01
  -6.164179e+01   2.575894e+01
  -2.806069e+01   6.203401e+00
   2.500105e+01  -3.251474e+00
   3.015959e+01   5.157614e+00
  -2.146816e+01   2.187447e+01
  -7.140423e+01   1.754384e+01
