
 $NMID
 id='ANONYMOUS ', fmtdat='(2E16.6)'
 volume=1.0
 tramp=1.0
 $END
  -1.811942e+03  -3.448531e+01
  -1.189235e+03  -7.672426e+02
  -1.950806e+00  -1.192152e+03
   6.319293e+02  -8.331397e+02
   4.987055e+02  -1.620898e+02
   3.312349e+01   6.334790e+01
  -1.818121e+02   4.687266e+01
   1.370289e+01  -2.668049e+02
   2.494501e+02  -3.138533e+02
   3.779450e+02  -8.477638e+01
   2.724735e+02   2.844059e+02
   3.368419e+01   3.940859e+02
  -1.279189e+02   1.140080e+02
  -1.310956e+02  -2.425391e+02
   6.589090e+01  -3.124432e+02
   2.570165e+02  -1.461525e+01
   2.041190e+02   2.681326e+02
  -2.311225e+01   3.435687e+02
  -2.588277e+02   1.450864e+02
  -3.180119e+02  -7.311282e+01
  -6.411928e+01  -2.170238e+02
   1.022238e+02  -1.369948e+02
   3.966425e+01  -2.518041e+01
  -9.239331e+01  -4.788747e+01
  -1.428536e+02  -1.399959e+02
   3.084546e+01  -2.224333e+02
   2.401100e+02  -8.214566e+01
   2.862531e+02   1.329465e+02
   1.012039e+02   2.125398e+02
  -1.604825e+02   1.312000e+02
  -2.658611e+02  -6.652778e+01
  -1.094030e+02  -1.869977e+02
   1.344074e+02  -1.923014e+02
   2.448542e+02  -6.365021e+01
   1.721116e+02   8.091218e+01
   2.371302e+01   1.538739e+02
  -2.266530e+01   7.209618e+01
   3.158030e+01  -5.938267e+01
   1.134053e+02  -5.551276e+01
   1.120635e+02   9.703357e+01
  -5.849419e+00   2.644240e+02
  -1.480680e+02   2.131956e+02
  -1.693566e+02  -1.791734e+01
  -6.095412e+01  -1.624475e+02
   6.571871e+01  -7.056419e+01
   9.299129e+01   1.402068e+02
  -5.544552e+01   1.909085e+02
  -2.299886e+02   1.510215e+01
  -2.456689e+02  -2.085304e+02
  -6.332798e+01  -2.641979e+02
   1.739087e+02  -1.389918e+02
   2.772879e+02   4.285044e+01
   1.731357e+02   1.482848e+02
  -2.989902e+01   1.332107e+02
  -1.537914e+02   4.666720e+01
  -1.167015e+02  -2.068910e+01
  -6.799565e+00  -1.663061e+01
   2.521176e+01   2.698426e+01
  -5.343470e+01   3.404371e+01
  -1.263251e+02  -2.667946e+01
  -7.361687e+01  -1.070186e+02
   7.878695e+01  -1.339139e+02
   1.891099e+02  -7.215084e+01
   1.483625e+02   5.428700e+01
  -1.236509e+01   1.726170e+02
  -1.626976e+02   1.933506e+02
  -1.971057e+02   8.107218e+01
  -1.207123e+02  -9.091856e+01
  -2.468788e+01  -1.909925e+02
   1.255433e+01  -1.658962e+02
   3.862782e+00  -9.146536e+01
   1.901543e+01  -6.254279e+01
   8.495641e+01  -6.979108e+01
   1.462722e+02  -3.223484e+01
   1.320685e+02   7.073819e+01
   4.033458e+01   1.492453e+02
  -5.991162e+01   1.102686e+02
  -1.032756e+02  -2.548636e+01
  -6.570742e+01  -1.394508e+02
   3.119702e+01  -1.363038e+02
   1.297856e+02  -2.809833e+01
   1.578575e+02   9.791544e+01
   8.476214e+01   1.580336e+02
  -2.999543e+01   1.403450e+02
  -8.747405e+01   8.140492e+01
  -7.767862e+01   4.521674e+01
  -8.166475e+01   3.875446e+01
  -1.540020e+02   1.466652e+01
  -2.242916e+02  -5.956033e+01
  -1.746161e+02  -1.706882e+02
   1.914593e+01  -2.399492e+02
   2.199740e+02  -2.095699e+02
   2.713670e+02  -8.355080e+01
   1.592568e+02   6.377236e+01
   4.006475e+00   1.384958e+02
  -5.607760e+01   1.031149e+02
  -6.249104e+00   1.778070e+01
   6.772005e+01  -1.749623e+01
   6.927576e+01   2.782844e+01
  -2.347485e+00   8.116606e+01
  -7.017396e+01   5.456081e+01
  -5.958305e+01  -3.272770e+01
   2.166062e+01  -7.491459e+01
   9.022087e+01  -1.686645e+00
   7.753829e+01   1.299463e+02
  -2.127859e+01   1.903714e+02
  -1.392449e+02   1.135857e+02
  -1.937595e+02  -4.174893e+01
  -1.443256e+02  -1.562569e+02
  -2.410533e+01  -1.592806e+02
   7.551268e+01  -7.455787e+01
   8.368655e+01   4.755633e+00
   1.966615e+01   1.312105e+01
  -2.595530e+01  -3.300211e+01
   4.300722e+00  -6.172952e+01
   6.773530e+01  -3.185261e+01
   7.723410e+01   2.127497e+01
   1.253830e+01   3.330861e+01
  -4.909840e+01  -9.163773e+00
  -2.327440e+01  -5.624234e+01
   8.225044e+01  -5.113029e+01
   1.674153e+02   1.471440e+01
   1.407145e+02   9.993091e+01
   1.077039e+01   1.473168e+02
  -1.197356e+02   1.237934e+02
  -1.501973e+02   4.366180e+01
  -7.373128e+01  -3.099500e+01
   1.906689e+01  -4.143960e+01
   3.532525e+01   7.769075e+00
  -3.071630e+01   4.552569e+01
  -1.010627e+02   1.433878e+01
  -9.963654e+01  -6.208516e+01
  -2.614877e+01  -1.037784e+02
   5.045851e+01  -6.947846e+01
   6.621467e+01  -2.926746e+00
   2.054223e+01   2.358599e+01
  -2.661379e+01  -1.288436e+01
  -1.471437e+01  -6.412391e+01
   5.539116e+01  -6.677211e+01
   1.154661e+02  -5.092084e+00
   9.589267e+01   7.663398e+01
   1.353293e+00   1.136849e+02
  -8.684779e+01   7.793589e+01
  -9.349826e+01   1.235486e+00
  -2.660740e+01  -5.365457e+01
   3.665496e+01  -5.039282e+01
   3.910740e+01  -1.028906e+01
  -1.026581e+00   1.610002e+01
  -2.251493e+01   3.744256e+00
   4.398097e+00  -1.737626e+01
   5.023893e+01  -2.696265e+00
   5.911547e+01   5.228213e+01
   4.867031e+00   1.000032e+02
  -8.080380e+01   8.330923e+01
  -1.313094e+02   1.127728e+00
  -1.026457e+02  -9.043257e+01
  -1.715728e+01  -1.246153e+02
   5.712032e+01  -8.410588e+01
   7.012453e+01  -1.450251e+01
   3.966783e+01   2.570751e+01
   1.711132e+01   1.650281e+01
   2.946272e+01  -8.121182e+00
   4.820521e+01  -5.567257e+00
   3.208122e+01   3.002563e+01
  -2.199281e+01   5.754796e+01
  -6.957111e+01   3.769227e+01
  -6.013306e+01  -2.512617e+01
   1.072408e+01  -7.331015e+01
   9.319696e+01  -5.023930e+01
   1.142146e+02   3.782021e+01
   4.526054e+01   1.180872e+02
  -6.982628e+01   1.200608e+02
  -1.460974e+02   4.167110e+01
  -1.312054e+02  -5.238820e+01
  -5.145422e+01  -9.209553e+01
   2.378508e+01  -7.230101e+01
   4.902880e+01  -3.979366e+01
   3.730990e+01  -3.602791e+01
   3.040790e+01  -5.096464e+01
   4.796710e+01  -4.363964e+01
   7.087180e+01   9.854476e+00
   6.331590e+01   8.402151e+01
   1.157958e+01   1.226955e+02
  -5.706350e+01   8.950813e+01
  -9.283669e+01   3.690131e+00
  -6.708660e+01  -7.190734e+01
  -2.426865e+00  -8.642203e+01
   4.378407e+01  -4.386261e+01
   3.597380e+01   8.742066e+00
  -2.285516e+00   3.004339e+01
  -1.649475e+01   2.025644e+01
   1.362349e+01   7.522115e+00
   4.672871e+01   1.122549e+01
   2.888379e+01   2.302550e+01
  -4.012653e+01   2.142832e+01
  -9.664416e+01  -2.978145e+00
  -7.986499e+01  -3.664243e+01
   1.103775e+00  -5.386899e+01
   7.456035e+01  -3.849904e+01
   7.973801e+01  -4.643122e-01
   2.424620e+01   2.886344e+01
  -3.241787e+01   2.380887e+01
  -4.270319e+01  -1.043617e+01
  -1.116148e+01  -4.028410e+01
   2.423060e+01  -3.539123e+01
   3.670394e+01  -5.958316e-01
   3.041748e+01   2.809180e+01
   2.491010e+01   2.395267e+01
   2.952016e+01   1.292930e+00
   3.590751e+01   4.157307e-01
   2.436786e+01   3.852472e+01
  -1.606895e+01   8.181576e+01
  -7.113867e+01   7.834673e+01
  -9.966123e+01   1.714387e+01
  -6.974024e+01  -5.316128e+01
   1.501890e+00  -7.410712e+01
   5.259829e+01  -3.816503e+01
   3.512009e+01   7.103894e+00
  -3.084646e+01   1.229380e+01
  -7.166300e+01  -2.295418e+01
  -3.728045e+01  -5.833182e+01
   4.612113e+01  -5.761949e+01
   1.023274e+02  -1.954943e+01
   8.348802e+01   2.629393e+01
   1.430009e+01   4.723860e+01
  -3.687359e+01   3.163475e+01
  -2.776110e+01  -2.272789e+00
   2.044982e+01  -1.738713e+01
   4.893702e+01   1.062618e+01
   2.103238e+01   6.222501e+01
  -4.295343e+01   8.349571e+01
  -8.519081e+01   3.706148e+01
  -6.817792e+01  -5.062328e+01
  -7.899949e+00  -1.046189e+02
   4.607157e+01  -7.539681e+01
   5.691361e+01   7.748916e+00
   2.831650e+01   6.666302e+01
  -9.596261e+00   5.576727e+01
  -2.903502e+01   7.039379e+00
  -2.383817e+01  -1.885778e+01
  -8.276304e+00  -4.896398e+00
  -3.503125e+00   9.327859e+00
  -1.661921e+01  -1.104741e+01
  -3.042565e+01  -4.840518e+01
  -1.581293e+01  -5.716183e+01
   3.025978e+01  -2.320901e+01
   7.184432e+01   2.043703e+01
   6.496647e+01   3.853745e+01
   9.987400e+00   2.924484e+01
  -4.271481e+01   1.307569e+01
  -4.673312e+01   1.269455e+00
  -9.900524e+00  -7.351985e+00
   1.904319e+01  -1.161238e+01
   1.224520e+01  -6.461644e+00
  -6.418316e+00   2.354975e+00
   1.395168e+00   3.374099e+00
   3.475667e+01   1.622939e-01
   4.975746e+01   1.204158e+01
   1.289495e+01   4.346255e+01
  -5.629135e+01   6.344969e+01
  -1.009656e+02   3.644545e+01
  -8.305243e+01  -3.033752e+01
  -1.825591e+01  -8.469814e+01
   4.296671e+01  -8.319965e+01
   6.267728e+01  -3.551843e+01
   4.309259e+01   1.005466e+01
   1.436443e+01   2.024353e+01
   1.955315e+00   7.058476e+00
   8.117490e+00   4.968148e+00
   1.624479e+01   2.708695e+01
   8.783426e+00   4.942214e+01
  -1.629460e+01   3.868442e+01
  -4.205488e+01  -7.549212e+00
  -4.294039e+01  -5.352210e+01
  -8.195494e+00  -5.866403e+01
   3.920922e+01  -1.793087e+01
   5.628510e+01   3.361885e+01
   2.169295e+01   5.491180e+01
  -3.396063e+01   3.527147e+01
  -5.612378e+01  -3.739281e+00
  -2.515287e+01  -3.178565e+01
   1.833548e+01  -3.407503e+01
   2.263409e+01  -1.586320e+01
  -1.275030e+01   3.644126e+00
  -3.666045e+01   5.247899e+00
  -1.072849e+01  -1.468069e+01
   4.164909e+01  -3.482736e+01
   6.548406e+01  -2.792187e+01
   3.896714e+01   9.267941e+00
  -7.324494e+00   4.548178e+01
  -3.184268e+01   4.482793e+01
  -2.471557e+01   7.811149e+00
  -4.096453e+00  -2.730504e+01
   1.225746e+01  -2.617628e+01
   1.909483e+01   4.666014e+00
   1.484547e+01   2.863416e+01
  -4.003337e-01   2.162635e+01
  -1.809074e+01  -2.898611e+00
  -2.272680e+01  -1.485875e+01
  -1.052783e+01  -3.475848e+00
   3.490446e+00   1.134836e+01
   4.387825e+00   5.904438e+00
  -3.237226e+00  -1.590961e+01
  -1.702376e+00  -2.818606e+01
   1.302738e+01  -1.268827e+01
   2.234902e+01   1.724477e+01
   7.887502e+00   3.081208e+01
  -2.120537e+01   1.347968e+01
  -3.372257e+01  -1.756493e+01
  -1.025920e+01  -3.229951e+01
   3.136806e+01  -1.973844e+01
   5.070425e+01   5.731462e+00
   2.755822e+01   2.354907e+01
  -1.522718e+01   2.554503e+01
  -3.524636e+01   1.611709e+01
  -1.630463e+01   3.910562e+00
   1.373041e+01  -2.227360e+00
   1.676348e+01   2.635924e+00
  -1.226683e+01   1.238272e+01
  -4.100843e+01   9.825186e+00
