
 $NMID
 id='ANONYMOUS ', fmtdat='(2E16.6)'
 volume=1.0
 tramp=1.0
 $END
  -1.371542e+03  -1.090922e+02
  -1.107557e+03  -7.084378e+02
  -2.721106e+02  -9.986015e+02
   3.401984e+02  -6.774750e+02
   5.086119e+02  -1.833189e+02
   1.345598e+02   9.074870e+01
  -1.027680e+02   1.260566e+02
  -1.590514e+01  -1.781091e+02
   1.755164e+02  -2.243414e+02
   2.779060e+02  -8.996662e+01
   2.559211e+02   2.242901e+02
   9.071112e+01   2.213496e+02
  -8.044516e+01   8.457027e+01
  -8.842339e+01  -1.396517e+02
  -6.388557e+00  -2.587382e+02
   1.414240e+02  -9.981173e+01
   2.115522e+02   2.425888e+02
  -9.594531e+00   3.348480e+02
  -1.981690e+02   1.757841e+02
  -2.459565e+02  -6.290482e+01
  -8.050329e+01  -1.950393e+02
   3.871293e+01  -1.467018e+02
  -1.225315e+01  -6.019264e+01
  -1.343850e+02  -8.515211e+01
  -1.359455e+02  -1.788878e+02
   4.247601e+01  -1.898081e+02
   2.518641e+02  -3.510782e+01
   2.697063e+02   1.237887e+02
   5.655671e+01   1.926420e+02
  -1.918336e+02   6.359435e+01
  -2.159726e+02  -1.055869e+02
  -6.666674e+01  -1.796140e+02
   1.477856e+02  -1.667560e+02
   2.311158e+02  -3.925042e+01
   1.370230e+02   8.835901e+01
   3.706940e+01   1.229441e+02
  -2.107737e+00   6.910505e+01
   6.184141e+01  -4.467326e+01
   1.056251e+02  -2.262901e+01
   6.003623e+01   1.197691e+02
  -6.301447e+01   2.385980e+02
  -1.593935e+02   1.759145e+02
  -1.463232e+02  -2.722254e+01
  -2.800543e+01  -1.459524e+02
   7.773091e+01  -4.748892e+01
   6.736428e+01   1.484888e+02
  -7.714385e+01   1.931242e+02
  -2.183359e+02   1.616177e+01
  -2.299507e+02  -1.963433e+02
  -6.391186e+01  -2.576952e+02
   1.496156e+02  -1.288581e+02
   2.424545e+02   5.072613e+01
   1.577561e+02   1.293800e+02
  -1.468917e+01   9.134841e+01
  -1.224304e+02   2.574943e+01
  -1.015433e+02  -7.522476e+00
  -1.608218e+01  -9.402509e-01
   1.706610e+01   1.529977e+01
  -3.540089e+01   1.516697e+01
  -9.585866e+01  -1.993985e+01
  -5.869614e+01  -8.091391e+01
   7.484560e+01  -1.186125e+02
   1.856830e+02  -7.186448e+01
   1.516360e+02   6.175995e+01
  -1.843760e+01   1.905268e+02
  -1.836663e+02   2.004545e+02
  -2.120532e+02   6.781629e+01
  -1.112207e+02  -1.020018e+02
  -5.028707e+00  -1.817530e+02
   1.768301e+01  -1.500065e+02
  -9.413989e+00  -9.143128e+01
   8.689197e+00  -7.637864e+01
   8.917739e+01  -7.555618e+01
   1.562378e+02  -2.021022e+01
   1.314910e+02   8.778605e+01
   2.869368e+01   1.519162e+02
  -7.225855e+01   9.764326e+01
  -1.015387e+02  -4.209116e+01
  -4.958520e+01  -1.475920e+02
   4.972559e+01  -1.295560e+02
   1.362013e+02  -8.384837e+00
   1.434193e+02   1.145077e+02
   6.675417e+01   1.609018e+02
  -3.517995e+01   1.305715e+02
  -8.234411e+01   7.321141e+01
  -7.377301e+01   4.290820e+01
  -8.474572e+01   3.682083e+01
  -1.590962e+02   1.121764e+01
  -2.263904e+02  -6.717194e+01
  -1.666240e+02  -1.746752e+02
   3.465478e+01  -2.392475e+02
   2.340488e+02  -1.978732e+02
   2.768035e+02  -5.981706e+01
   1.453455e+02   8.373248e+01
  -1.473931e+01   1.354347e+02
  -6.385982e+01   9.047790e+01
  -3.747184e+00   1.520520e+01
   6.564302e+01  -4.825491e+00
   5.590473e+01   3.654051e+01
  -1.453033e+01   6.635265e+01
  -6.288610e+01   3.409295e+01
  -4.405394e+01  -3.564131e+01
   2.743638e+01  -5.801824e+01
   8.296583e+01   1.240666e+01
   6.741490e+01   1.267256e+02
  -2.460084e+01   1.798940e+02
  -1.400999e+02   1.096541e+02
  -1.944460e+02  -4.024052e+01
  -1.393925e+02  -1.563949e+02
  -1.478016e+01  -1.589625e+02
   7.862004e+01  -7.171208e+01
   7.584057e+01   6.651924e+00
   1.137376e+01   9.378798e+00
  -2.465996e+01  -3.907029e+01
   1.207737e+01  -6.238302e+01
   7.269340e+01  -2.730103e+01
   7.600236e+01   2.343532e+01
   9.972146e+00   2.940895e+01
  -4.809281e+01  -1.537304e+01
  -1.853205e+01  -5.827403e+01
   8.760564e+01  -4.597001e+01
   1.694190e+02   2.529704e+01
   1.351815e+02   1.089327e+02
  -8.558795e-01   1.470916e+02
  -1.283841e+02   1.130386e+02
  -1.475306e+02   3.271931e+01
  -6.428431e+01  -3.240870e+01
   2.448314e+01  -3.473692e+01
   3.149245e+01   1.120551e+01
  -3.804840e+01   4.017334e+01
  -1.039645e+02   5.368062e+00
  -9.563709e+01  -6.651200e+01
  -1.885908e+01  -1.038129e+02
   5.675050e+01  -6.866299e+01
   6.867291e+01  -2.222852e+00
   1.959727e+01   2.354070e+01
  -2.688680e+01  -1.435389e+01
  -1.056332e+01  -6.509918e+01
   6.214648e+01  -6.369312e+01
   1.182301e+02   2.812161e+00
   9.123278e+01   8.320140e+01
  -5.943243e+00   1.130786e+02
  -9.032749e+01   7.145127e+01
  -9.174858e+01  -3.845347e+00
  -2.318637e+01  -5.339845e+01
   3.966409e+01  -4.732405e+01
   4.106168e+01  -7.770808e+00
  -1.692097e+00   1.712836e+01
  -2.598045e+01   4.181089e+00
   2.215960e+00  -1.757500e+01
   5.152091e+01  -1.933645e+00
   5.951624e+01   5.566087e+01
  -9.586343e-01   1.024738e+02
  -9.075818e+01   8.114082e+01
  -1.357949e+02  -8.176644e+00
  -9.746531e+01  -1.007078e+02
  -7.190413e+00  -1.279374e+02
   6.349079e+01  -8.080623e+01
   7.298630e+01  -9.920289e+00
   4.010232e+01   2.840468e+01
   1.635888e+01   1.735762e+01
   2.860034e+01  -7.275996e+00
   4.819880e+01  -2.571381e+00
   3.322891e+01   3.392110e+01
  -2.237107e+01   6.272593e+01
  -7.359351e+01   3.801115e+01
  -6.347914e+01  -2.911729e+01
   1.318793e+01  -7.560344e+01
   9.743076e+01  -4.410956e+01
   1.127174e+02   4.986734e+01
   3.385491e+01   1.266642e+02
  -8.362984e+01   1.168114e+02
  -1.532420e+02   2.904631e+01
  -1.290246e+02  -6.434694e+01
  -4.483874e+01  -9.817879e+01
   2.867676e+01  -7.378319e+01
   5.188100e+01  -3.946857e+01
   3.946086e+01  -3.522913e+01
   3.380699e+01  -4.990561e+01
   5.316266e+01  -4.137052e+01
   7.400156e+01   1.384469e+01
   6.089451e+01   8.928816e+01
   4.589193e+00   1.256199e+02
  -6.397516e+01   8.703462e+01
  -9.473674e+01  -2.524548e+00
  -6.310433e+01  -7.705303e+01
   4.362201e+00  -8.737191e+01
   4.938895e+01  -4.043629e+01
   3.784509e+01   1.364762e+01
  -4.631723e+00   3.355872e+01
  -2.057353e+01   2.115779e+01
   1.114778e+01   7.178369e+00
   4.647273e+01   1.214638e+01
   2.758366e+01   2.529570e+01
  -4.419733e+01   2.163986e+01
  -1.007001e+02  -8.588526e+00
  -7.904065e+01  -4.575796e+01
   7.566709e+00  -5.951806e+01
   8.175108e+01  -3.669241e+01
   8.207459e+01   5.993645e+00
   2.300187e+01   3.406083e+01
  -3.365968e+01   2.432656e+01
  -4.243259e+01  -1.287049e+01
  -1.077238e+01  -4.227143e+01
   2.478492e+01  -3.528151e+01
   3.839569e+01   1.183052e+00
   3.251324e+01   3.047755e+01
   2.507097e+01   2.587719e+01
   2.823424e+01   2.590958e+00
   3.538282e+01   2.582088e+00
   2.468965e+01   4.176177e+01
  -1.813071e+01   8.445356e+01
  -7.691865e+01   7.796458e+01
  -1.057336e+02   1.357307e+01
  -7.147695e+01  -5.776010e+01
   4.332372e+00  -7.687987e+01
   5.561584e+01  -3.860087e+01
   3.561206e+01   6.745024e+00
  -3.120933e+01   1.018386e+01
  -7.003546e+01  -2.679185e+01
  -3.306703e+01  -6.115043e+01
   5.077466e+01  -5.588048e+01
   1.042887e+02  -1.402208e+01
   8.237479e+01   3.091847e+01
   1.188164e+01   4.741239e+01
  -3.781290e+01   2.807186e+01
  -2.558564e+01  -4.450167e+00
   2.387017e+01  -1.514966e+01
   4.985238e+01   1.441259e+01
   1.800814e+01   6.428584e+01
  -4.727502e+01   8.193321e+01
  -8.679579e+01   3.349866e+01
  -6.545940e+01  -5.377449e+01
  -1.815857e+00  -1.051898e+02
   5.154727e+01  -7.233220e+01
   5.817404e+01   1.327862e+01
   2.408602e+01   7.065431e+01
  -1.577774e+01   5.630909e+01
  -3.215385e+01   4.947781e+00
  -2.243084e+01  -2.017084e+01
  -6.647688e+00  -4.612959e+00
  -5.127742e+00   9.260337e+00
  -2.000060e+01  -1.351350e+01
  -3.000905e+01  -5.273085e+01
  -1.078701e+01  -6.010566e+01
   3.560348e+01  -2.299565e+01
   7.326730e+01   2.421037e+01
   6.352106e+01   4.368627e+01
   9.202976e+00   3.296245e+01
  -4.266477e+01   1.323353e+01
  -4.770500e+01  -4.869927e-01
  -1.214407e+01  -8.146072e+00
   1.760986e+01  -1.014288e+01
   1.226078e+01  -4.997055e+00
  -6.615584e+00   1.734427e+00
   2.349849e-01   1.595716e+00
   3.435206e+01  -9.785262e-02
   5.153152e+01   1.411833e+01
   1.409257e+01   4.530041e+01
  -5.903711e+01   6.292620e+01
  -1.064654e+02   3.402063e+01
  -8.600974e+01  -3.337098e+01
  -1.530644e+01  -8.764761e+01
   4.881589e+01  -8.491551e+01
   6.659357e+01  -3.506343e+01
   4.354542e+01   1.213779e+01
   1.407334e+01   2.234445e+01
   2.772649e+00   8.152555e+00
   8.612140e+00   5.893802e+00
   1.432949e+01   2.906805e+01
   5.638210e+00   5.137177e+01
  -1.817330e+01   3.896538e+01
  -4.162375e+01  -9.420803e+00
  -4.160497e+01  -5.579787e+01
  -7.556495e+00  -5.973077e+01
   3.912807e+01  -1.719951e+01
   5.564679e+01   3.587395e+01
   2.047387e+01   5.738921e+01
  -3.638069e+01   3.569138e+01
  -5.843033e+01  -6.373217e+00
  -2.557957e+01  -3.564895e+01
   2.053735e+01  -3.583873e+01
   2.510176e+01  -1.533976e+01
  -1.240861e+01   3.783979e+00
  -3.783360e+01   2.992782e+00
  -1.051569e+01  -1.695569e+01
   4.490101e+01  -3.444855e+01
   7.052237e+01  -2.475756e+01
   4.181524e+01   1.239975e+01
  -8.630722e+00   4.673691e+01
  -3.543221e+01   4.543789e+01
  -2.702044e+01   8.399155e+00
  -3.408885e+00  -2.720797e+01
   1.410973e+01  -2.678131e+01
   2.006364e+01   4.849128e+00
   1.447190e+01   3.089069e+01
  -1.487834e+00   2.428388e+01
  -1.907931e+01  -2.633085e+00
  -2.378283e+01  -1.649330e+01
  -1.174848e+01  -4.575366e+00
   2.900989e+00   1.233927e+01
   4.218791e+00   7.585134e+00
  -3.559151e+00  -1.626854e+01
  -2.532560e+00  -3.064401e+01
   1.328664e+01  -1.466563e+01
   2.391550e+01   1.765921e+01
   9.548796e+00   3.246132e+01
  -2.124791e+01   1.414247e+01
  -3.499526e+01  -1.795433e+01
  -1.075610e+01  -3.253575e+01
   3.228697e+01  -1.881635e+01
   5.170605e+01   7.214252e+00
   2.737436e+01   2.440689e+01
  -1.648610e+01   2.519561e+01
  -3.641897e+01   1.549894e+01
  -1.719063e+01   3.763454e+00
   1.320475e+01  -2.343099e+00
   1.693783e+01   1.982166e+00
  -1.133062e+01   1.121497e+01
  -3.977162e+01   9.015253e+00
