
 $NMID
 id='ANONYMOUS ', fmtdat='(2E16.6)'
 volume=1.0
 tramp=1.0
 $END
   2.139227e+02   9.690129e+01
   8.864152e+01   1.046897e+02
   1.910940e+01   5.814467e+01
   9.336672e+00   1.406198e+02
   1.925242e+01   8.026978e+01
   4.831394e+01   5.695166e+01
  -5.764795e+01   4.580861e+01
   5.565366e+01   6.055237e+01
   1.839731e+01   5.095348e+01
   2.968279e+01   2.618697e+01
  -8.830345e+00   3.283334e+01
  -5.691238e+01  -1.172905e+01
   8.379416e+00   1.043829e+01
  -3.828662e+01   1.494714e+01
   1.070143e+01  -2.124637e+01
   1.635959e+01  -1.687696e+01
   9.933340e+00  -4.271802e+00
  -2.095236e+01   3.601736e-01
  -4.668163e+01   4.583483e+00
  -9.263941e+00   1.387698e+01
  -3.022347e+01   1.250404e+01
  -1.518443e+01  -5.145747e+00
   1.758160e+01  -1.043019e+01
   2.360045e-01  -2.543667e+01
   1.486825e+01  -1.309253e+01
  -1.541846e+01   1.493401e+01
  -1.869124e+00  -1.850004e+00
  -1.248520e+00   1.553721e+01
  -4.342126e-02   2.247009e+01
   1.308540e+01   1.791537e+01
   4.389081e+00  -2.735577e-01
   7.747699e-01   6.030522e+00
  -6.275237e+00  -6.707199e+00
  -6.072145e+00   1.005544e+01
   9.216264e+00   8.386375e+00
   5.868222e+00  -7.934513e+00
  -2.705673e-01  -1.061249e+01
  -1.442373e+01   5.778171e+00
  -1.202249e+01  -1.197580e+00
   2.397589e+00   3.530728e+00
  -5.542576e+00  -5.575309e+00
   1.427380e+00  -1.313062e+01
  -6.511426e+00  -5.819206e+00
  -3.771885e+00  -1.342309e+00
   6.040372e+00   5.745907e-01
  -4.103800e-01   5.015887e-02
  -1.115294e+00   3.566918e+00
  -1.245728e+00   9.590832e+00
  -2.319370e+00   6.875463e+00
  -4.822138e+00  -4.204147e+00
  -8.603752e+00  -1.180636e+01
  -1.721459e+00  -5.803202e+00
   1.557275e+00   6.483329e+00
   1.351497e+00   4.439628e+00
  -8.629999e-01  -3.024285e+00
   6.065969e-01  -6.416759e+00
   4.997525e+00  -2.152154e+00
   4.603885e+00   4.678558e+00
  -1.632001e+00   4.655035e+00
  -6.738433e+00  -1.317629e+00
  -4.437538e+00  -5.486708e+00
   1.822632e+00  -2.648164e+00
   5.311839e+00   2.748407e+00
   2.735210e+00   2.756477e+00
  -2.414510e+00  -4.004715e-01
  -4.244010e+00  -1.727997e+00
  -7.620477e-01  -1.768154e+00
   2.880250e+00  -2.849097e+00
   2.918189e+00  -3.746539e+00
   1.548826e+00  -2.320029e+00
   2.082681e+00   1.762591e-01
   2.205136e+00   2.241563e+00
  -2.727654e-01   1.786470e+00
  -2.513059e-01  -4.316977e-01
   3.021346e+00  -1.509375e+00
   4.244014e+00   4.289256e-01
   2.114354e+00   3.446586e+00
  -3.988503e+00   2.182494e+00
  -4.090132e+00  -4.675408e+00
   1.169490e+00  -7.261284e+00
   5.564462e+00  -1.395713e+00
   2.943081e+00   6.007894e+00
  -3.961847e+00   6.287840e+00
  -4.740881e+00  -1.814868e+00
  -1.960900e+00  -5.930611e+00
   2.944725e+00  -3.371888e+00
   3.806064e+00   5.801191e-01
  -2.561604e+00   7.504435e-01
  -3.790442e+00  -3.993388e+00
  -9.781551e-01  -3.314298e+00
   2.949453e+00  -3.368344e+00
   7.148027e+00   2.685521e-01
   7.014582e+00   2.029035e+00
   3.618684e+00   1.749459e+00
  -1.340499e+00   3.048018e+00
  -1.735549e+00   2.482161e+00
  -2.283285e+00  -9.551108e-01
   1.120175e+00  -3.126353e+00
   2.983863e+00  -1.623503e+00
   1.014900e+00   3.038717e+00
  -2.138251e+00   2.974315e+00
  -1.578621e+00  -3.062683e-01
   2.589430e-01  -2.796131e+00
   4.189348e+00  -7.801753e-01
   3.691658e+00   5.711453e+00
  -1.505505e+00   7.400377e+00
  -7.195559e+00   3.855540e+00
  -8.569155e+00  -1.936065e+00
  -3.315655e+00  -6.252682e+00
   2.244914e+00  -5.219532e+00
   3.399960e+00  -1.389771e+00
   1.010966e+00   1.128959e+00
  -7.143596e-01   6.325046e-01
  -3.785634e-01  -1.300208e+00
   1.372920e+00  -2.065498e+00
   2.536525e+00  -4.725363e-01
   1.598254e+00   1.799764e+00
  -7.899297e-01   1.586442e+00
  -1.300797e+00  -3.548776e-01
  -2.485455e-01  -1.904115e+00
   2.190304e+00  -1.895296e+00
   4.472026e+00   5.448524e-02
   4.189701e+00   3.234289e+00
   8.381897e-01   5.739129e+00
  -3.435734e+00   5.378252e+00
  -5.203667e+00   1.644853e+00
  -3.120101e+00  -2.045474e+00
  -4.875154e-01  -2.307178e+00
   1.162740e-01  -2.426055e-01
  -1.371821e+00   7.998016e-01
  -2.396522e+00  -6.117780e-01
  -9.464244e-01  -3.038519e+00
   1.848388e+00  -3.123404e+00
   2.976806e+00  -4.754375e-01
   1.477262e+00   2.072476e+00
  -8.003377e-01   2.178063e+00
  -1.921410e+00  -6.365429e-01
  -5.953725e-01  -2.380825e+00
   2.529065e+00  -1.753850e+00
   3.963541e+00   7.760583e-01
   2.315572e+00   3.657859e+00
  -1.726199e+00   4.201408e+00
  -3.808209e+00   1.446001e+00
  -2.639079e+00  -1.500220e+00
  -3.737218e-01  -1.807837e+00
   6.807339e-01  -5.608191e-01
   2.747400e-02   4.218562e-01
  -6.980340e-04  -1.304805e-01
   4.223303e-01  -1.144844e+00
   1.492900e+00  -7.582682e-01
   2.396100e+00   1.628088e+00
   1.113653e+00   3.924985e+00
  -1.551567e+00   3.743613e+00
  -4.332194e+00   2.358957e+00
  -4.900491e+00  -1.125774e+00
  -2.490320e+00  -3.527739e+00
   1.176845e+00  -3.772056e+00
   3.319864e+00  -1.823862e+00
   2.060083e+00   6.743296e-01
   3.375407e-01   1.429536e+00
  -3.887553e-01   4.196257e-02
   1.352897e+00  -5.393063e-01
   2.149533e+00   3.147495e-01
   2.434018e-01   2.032053e+00
  -2.148759e+00   2.461137e+00
  -3.018793e+00   4.376021e-01
  -2.152338e+00  -2.866190e+00
   1.329019e+00  -3.367589e+00
   3.517876e+00  -6.546615e-02
   3.006460e+00   2.879271e+00
   1.970272e-02   4.905422e+00
  -3.838797e+00   2.966459e+00
  -4.932399e+00  -5.247388e-01
  -2.987173e+00  -2.970385e+00
   5.655142e-01  -3.327442e+00
   2.465403e+00  -1.768853e+00
   1.896072e+00  -1.173294e-01
   5.191593e-01  -5.337226e-03
   8.778471e-01  -3.082320e-01
   2.456540e+00  -4.365844e-01
   3.776572e+00   1.831900e+00
   1.594529e+00   4.545481e+00
  -2.572469e+00   5.135707e+00
  -5.507787e+00   2.024710e+00
  -4.629469e+00  -2.578737e+00
  -8.770621e-01  -4.626926e+00
   2.095956e+00  -2.985061e+00
   2.582391e+00   1.381314e-01
   1.180919e+00   1.687695e+00
  -1.972280e-01   1.119965e+00
  -1.279300e-01   1.334765e-01
   7.894554e-02   3.723971e-01
  -2.319945e-01   1.504402e+00
  -8.756664e-01   1.687435e+00
  -1.834589e+00   2.196321e-01
  -2.355774e+00  -1.692841e+00
  -1.361666e+00  -2.688838e+00
   8.302575e-01  -1.707691e+00
   2.702484e+00   2.202781e-01
   1.949443e+00   1.894617e+00
  -9.682074e-01   2.088348e+00
  -2.942951e+00   3.086500e-01
  -2.313114e+00  -1.986979e+00
   4.539923e-01  -2.662901e+00
   2.364039e+00  -1.318126e+00
   1.613323e+00   8.422319e-01
  -5.245385e-01   1.607210e+00
  -7.815189e-01   3.214274e-01
   7.952589e-01  -9.312004e-01
   2.297288e+00  -3.152388e-02
   1.448140e+00   2.287756e+00
  -1.585676e+00   3.317374e+00
  -3.924052e+00   1.739066e+00
  -3.625801e+00  -1.443451e+00
  -1.193856e+00  -3.724743e+00
   1.599762e+00  -2.511941e+00
   2.567038e+00   3.162677e-01
   1.389412e+00   1.931063e+00
  -1.396091e+00   1.477173e+00
  -2.776955e+00  -8.664512e-01
  -1.489798e+00  -2.813526e+00
   1.551858e+00  -2.229532e+00
   3.489374e+00  -3.262402e-02
   2.391106e+00   2.051563e+00
  -7.176034e-01   2.212399e+00
  -2.284046e+00   4.647687e-01
  -7.735413e-01  -9.997644e-01
   1.926983e+00  -5.108000e-01
   2.005057e+00   1.748779e+00
  -1.063065e+00   3.201680e+00
  -4.459172e+00   1.710099e+00
  -4.527142e+00  -1.892452e+00
  -8.244090e-01  -4.698980e+00
   3.309079e+00  -4.171449e+00
   4.378435e+00  -9.184640e-01
   2.462375e+00   2.725496e+00
  -2.923874e-01   3.688489e+00
  -1.587305e+00   2.071112e+00
  -1.472287e+00  -6.837884e-02
  -9.600702e-01  -8.057326e-01
  -8.272225e-01  -2.078214e-01
  -1.034767e+00   2.101343e-01
  -1.206336e+00  -9.165797e-01
  -7.003957e-01  -2.767633e+00
   1.279433e+00  -3.138219e+00
   3.198494e+00  -7.836561e-01
   3.348253e+00   2.475492e+00
   1.039623e+00   4.183077e+00
  -2.172998e+00   2.570968e+00
  -3.535610e+00  -3.829558e-01
  -2.032917e+00  -2.113395e+00
   5.058371e-01  -1.718907e+00
   1.440501e+00  -5.219095e-01
   5.727393e-01   2.461626e-01
  -1.327991e-01  -3.884486e-01
   6.576689e-01  -6.119297e-01
   2.149362e+00   4.007914e-01
   2.023964e+00   2.241289e+00
  -5.662669e-01   3.322470e+00
  -3.540658e+00   2.603131e+00
  -4.810285e+00  -1.666529e-01
  -3.148646e+00  -3.137706e+00
   3.820574e-01  -4.603437e+00
   3.122868e+00  -3.243519e+00
   3.598718e+00  -2.869898e-01
   2.088276e+00   2.216873e+00
  -1.034432e-02   2.348300e+00
  -8.447564e-01   7.481932e-01
  -4.541685e-01  -3.275584e-01
   3.346733e-01   4.809414e-01
  -2.531283e-01   2.002382e+00
  -1.937531e+00   1.591475e+00
  -2.758325e+00  -1.170522e+00
  -1.206637e+00  -3.729832e+00
   1.619717e+00  -3.251833e+00
   3.470350e+00   2.766971e-04
   2.363797e+00   3.015164e+00
  -5.544980e-01   3.398834e+00
  -2.649364e+00   1.049926e+00
  -2.488000e+00  -1.515015e+00
  -3.401504e-01  -2.117004e+00
   1.574418e+00  -1.055135e+00
   1.506233e+00   2.779199e-01
  -7.451947e-02   9.678680e-01
  -1.338011e+00   4.121707e-01
  -7.144790e-01  -7.791949e-01
   1.021363e+00  -1.291355e+00
   2.079170e+00  -4.291427e-01
   1.131173e+00   1.330941e+00
  -1.169249e+00   2.024400e+00
  -2.457297e+00   6.617111e-01
  -1.572767e+00  -1.606277e+00
   7.923027e-01  -2.565244e+00
   2.362004e+00  -8.122500e-01
   1.731777e+00   1.657756e+00
  -2.753397e-01   2.504439e+00
  -1.653086e+00   1.123604e+00
  -1.528740e+00  -9.142191e-01
  -2.747488e-01  -1.359268e+00
   4.102055e-01  -1.666170e-02
   3.082692e-02   9.893598e-01
  -4.098894e-01   4.485389e-01
  -3.838536e-01  -1.098982e+00
   4.475125e-01  -1.662261e+00
   1.217178e+00  -4.303612e-01
   1.095702e+00   1.470059e+00
  -1.084283e-01   2.205197e+00
  -1.491501e+00   8.926724e-01
  -1.732465e+00  -1.268449e+00
  -4.080009e-01  -2.301386e+00
   1.575204e+00  -1.272412e+00
   2.422151e+00   7.554067e-01
   1.174793e+00   2.043146e+00
  -1.028871e+00   1.506727e+00
  -2.196436e+00   2.639830e-01
  -1.024227e+00  -7.243626e-01
   7.800734e-01  -6.046783e-01
   1.103554e+00   2.822301e-01
  -4.866415e-01   5.429140e-01
  -1.865865e+00  -5.580771e-02
