
 $NMID
 id='ANONYMOUS ', fmtdat='(2E16.6)'
 volume=1.0
 tramp=1.0
 $END
   5.102623e+03  -5.463755e+01
   2.864388e+03   3.052521e+03
  -8.283530e+02   3.060358e+03
  -2.480334e+03   9.327801e+02
  -1.173219e+03  -8.716082e+02
   7.206796e+02  -6.442047e+02
   1.070470e+03   5.812592e+02
   5.526314e+01   1.319960e+03
  -1.070708e+03   9.106560e+02
  -1.157375e+03  -1.427761e+02
  -5.432445e+02  -9.291203e+02
   2.724874e+02  -1.049358e+03
   7.723757e+02  -1.155473e+02
   4.785988e+02   8.431578e+02
  -3.159595e+02   8.610250e+02
  -7.221901e+02  -2.437270e+00
  -2.779600e+02  -7.849344e+02
   3.742623e+02  -7.291131e+02
   6.267640e+02  -8.725540e+01
   4.369274e+02   4.572861e+02
   3.298826e+01   5.457644e+02
  -3.005170e+02   3.302045e+02
  -2.754403e+02   9.809687e+00
   1.205295e+02  -1.517849e+02
   4.928433e+02   1.203531e+02
   2.344666e+02   5.274714e+02
  -5.590419e+02   5.223981e+02
  -1.054078e+03  -5.774805e+01
  -5.614680e+02  -6.642634e+02
   4.737457e+02  -5.976985e+02
   8.996797e+02   8.214282e+00
   4.282938e+02   5.905657e+02
  -3.277001e+02   6.197702e+02
  -6.846584e+02   2.381596e+02
  -5.083482e+02  -2.816620e+02
  -9.484776e+01  -6.008234e+02
   2.505080e+02  -3.861786e+02
   2.400916e+02   2.646481e+02
  -1.794881e+02   5.697894e+02
  -5.537811e+02   2.857603e+00
  -3.163779e+02  -8.269843e+02
   3.713515e+02  -8.869398e+02
   7.445035e+02  -3.206698e+01
   3.441722e+02   6.916679e+02
  -3.431513e+02   4.110876e+02
  -4.733897e+02  -3.851795e+02
   7.241644e+01  -6.788811e+02
   6.655297e+02  -1.787122e+02
   7.151505e+02   4.946854e+02
   2.084939e+02   7.233753e+02
  -4.544384e+02   4.287699e+02
  -7.626126e+02  -9.428921e+01
  -4.598858e+02  -4.822469e+02
   1.846500e+02  -4.609484e+02
   5.457491e+02  -6.909340e+01
   2.957981e+02   2.530930e+02
  -1.500152e+02   1.424351e+02
  -1.770849e+02  -1.896384e+02
   2.080666e+02  -2.399294e+02
   4.297725e+02   8.454700e+01
   1.680001e+02   3.687844e+02
  -2.571975e+02   3.164129e+02
  -4.010302e+02   8.020923e+01
  -2.265567e+02  -1.094472e+02
   3.856669e+01  -2.598901e+02
   2.626016e+02  -3.752781e+02
   3.981535e+02  -2.563792e+02
   3.450842e+02   1.576959e+02
   8.942657e+01   5.163420e+02
  -1.479589e+02   4.581810e+02
  -1.533937e+02   1.294753e+02
  -2.766484e+01  -2.453748e+01
  -3.959823e+01   9.345506e+01
  -2.194169e+02   1.547733e+02
  -3.265500e+02  -5.394752e+01
  -1.917454e+02  -3.148285e+02
   8.107512e+01  -3.052734e+02
   2.721227e+02  -1.762016e+01
   2.427633e+02   2.836528e+02
  -6.337839e+00   3.581913e+02
  -3.214649e+02   1.535671e+02
  -4.457722e+02  -1.889409e+02
  -2.346072e+02  -4.201880e+02
   1.235737e+02  -3.740580e+02
   2.817273e+02  -1.474695e+02
   1.790856e+02   1.088801e+00
   1.058872e+02  -3.545425e+01
   2.640449e+02  -7.999289e+01
   4.707572e+02   6.172653e+01
   3.928824e+02   3.339431e+02
   1.444740e-01   5.208298e+02
  -4.187196e+02   4.879892e+02
  -5.729308e+02   2.413245e+02
  -4.010326e+02  -1.096792e+02
  -7.342590e+01  -3.561204e+02
   1.587465e+02  -3.145873e+02
   1.112378e+02  -4.153250e+01
  -1.205528e+02   1.389828e+02
  -2.368407e+02   6.776874e+00
  -6.763425e+01  -2.321368e+02
   1.942298e+02  -2.136952e+02
   2.249266e+02   6.672446e+01
  -1.460241e+01   2.332323e+02
  -2.346998e+02   4.412996e+01
  -1.957124e+02  -2.910750e+02
   4.094917e+01  -4.071815e+02
   2.743580e+02  -2.200397e+02
   3.822904e+02   7.339138e+01
   3.245155e+02   2.739534e+02
   1.143932e+02   3.085893e+02
  -1.313780e+02   1.959088e+02
  -2.118021e+02   2.961528e+01
  -7.156157e+01  -4.164382e+01
   8.603878e+01   4.061836e+01
   3.976488e+01   1.516257e+02
  -1.468226e+02   1.263893e+02
  -2.165338e+02  -1.195153e+01
  -7.328289e+01  -8.963771e+01
   9.331782e+01  -2.370446e+01
   6.589363e+01   8.451313e+01
  -1.427080e+02   1.007054e+02
  -3.270697e+02  -6.462525e-01
  -3.076444e+02  -1.617499e+02
  -7.476946e+01  -2.971314e+02
   2.116091e+02  -3.096961e+02
   3.354318e+02  -1.541936e+02
   2.075863e+02   5.980064e+01
  -2.541573e+01   1.334782e+02
  -1.105555e+02   1.199214e+01
   3.557678e+01  -1.225535e+02
   2.340366e+02  -7.369318e+01
   2.580873e+02   1.216306e+02
   8.492573e+01   2.499394e+02
  -1.126355e+02   1.924420e+02
  -1.732359e+02   3.946929e+01
  -8.780590e+01  -4.631901e+01
   2.798834e+01  -5.893628e+00
   4.181880e+01   9.160603e+01
  -8.194861e+01   1.283741e+02
  -2.299719e+02   3.490718e+01
  -2.259290e+02  -1.429923e+02
  -2.654911e+01  -2.584948e+02
   1.969098e+02  -1.967005e+02
   2.349538e+02  -6.877789e+00
   8.074071e+01   1.399341e+02
  -8.015701e+01   1.362010e+02
  -1.022852e+02   3.831692e+01
  -2.536459e+01  -2.929357e+01
   2.224651e+01  -2.186318e+01
  -1.286773e+01   6.805767e+00
  -8.077184e+01  -1.356217e+01
  -9.994731e+01  -9.647691e+01
  -1.693885e+01  -1.826570e+02
   1.446786e+02  -1.772411e+02
   2.721909e+02  -3.254744e+01
   2.394200e+02   1.750028e+02
   5.165087e+01   2.817177e+02
  -1.288765e+02   2.024827e+02
  -1.634983e+02   3.095291e+01
  -8.410044e+01  -6.808200e+01
  -3.351313e+01  -4.415099e+01
  -6.191924e+01   1.309921e+01
  -9.028186e+01   5.817996e+00
  -4.507825e+01  -5.832594e+01
   5.050924e+01  -9.879787e+01
   1.167377e+02  -5.939735e+01
   9.558928e+01   4.243923e+01
  -1.725023e+01   1.251965e+02
  -1.632952e+02   9.749532e+01
  -2.306527e+02  -5.827268e+01
  -1.212069e+02  -2.349284e+02
   1.229234e+02  -2.713404e+02
   3.160735e+02  -1.170441e+02
   3.083440e+02   1.000343e+02
   1.327084e+02   2.107574e+02
  -4.529250e+01   1.771560e+02
  -1.129525e+02   1.027014e+02
  -9.616108e+01   8.388301e+01
  -8.161573e+01   1.071311e+02
  -1.108459e+02   8.522179e+01
  -1.514948e+02  -2.810076e+01
  -1.385627e+02  -1.819227e+02
  -3.534582e+01  -2.662697e+02
   1.165417e+02  -2.038340e+02
   2.080500e+02  -2.595451e+01
   1.617213e+02   1.422187e+02
   2.310924e+01   1.882405e+02
  -7.832570e+01   1.099481e+02
  -6.876318e+01   2.536989e+00
  -5.077863e+00  -4.800521e+01
   1.001930e+01  -3.930916e+01
  -4.529919e+01  -2.199325e+01
  -9.274708e+01  -2.827409e+01
  -5.033500e+01  -4.473219e+01
   7.493586e+01  -4.147314e+01
   1.822613e+02  -2.139213e+00
   1.654077e+02   5.899081e+01
   1.842738e+01   1.017793e+02
  -1.394011e+02   8.606197e+01
  -1.686322e+02   1.658770e+01
  -5.608877e+01  -4.655406e+01
   7.079563e+01  -4.249791e+01
   8.749586e+01   2.387635e+01
   5.524912e+00   8.137393e+01
  -6.820980e+01   6.748236e+01
  -7.451370e+01  -4.227831e+00
  -5.052019e+01  -6.075800e+01
  -5.088592e+01  -5.052148e+01
  -7.311912e+01  -3.791174e+00
  -7.704411e+01  -1.887824e+00
  -3.855106e+01  -8.035729e+01
   4.069105e+01  -1.707626e+02
   1.361934e+02  -1.640234e+02
   1.912782e+02  -3.705941e+01
   1.444394e+02   1.073457e+02
   8.828558e+00   1.466099e+02
  -9.993870e+01   7.018949e+01
  -6.992832e+01  -1.794823e+01
   6.923893e+01  -2.227603e+01
   1.611482e+02   5.197896e+01
   8.954213e+01   1.255853e+02
  -9.345705e+01   1.313302e+02
  -2.221400e+02   6.202255e+01
  -1.900337e+02  -3.752195e+01
  -4.513882e+01  -1.000691e+02
   6.867751e+01  -8.235226e+01
   5.488412e+01  -9.574750e+00
  -4.629294e+01   3.020848e+01
  -1.049157e+02  -2.832334e+01
  -3.587091e+01  -1.409466e+02
   1.106227e+02  -1.809454e+02
   1.986154e+02  -7.077659e+01
   1.482143e+02   1.210766e+02
   1.021196e+01   2.337409e+02
  -1.017588e+02   1.699942e+02
  -1.232424e+02  -7.053394e+00
  -7.197743e+01  -1.375360e+02
   1.100558e-01  -1.249412e+02
   5.201110e+01  -2.490382e+01
   6.087289e+01   3.506760e+01
   3.122879e+01   8.901069e+00
   4.725550e+00  -2.509369e+01
   2.398509e+01   1.729294e+01
   6.617933e+01   1.043494e+02
   5.105490e+01   1.296795e+02
  -5.445215e+01   5.391030e+01
  -1.638739e+02  -4.653179e+01
  -1.545965e+02  -8.404902e+01
  -2.099841e+01  -5.889846e+01
   1.044506e+02  -2.650952e+01
   1.044901e+02  -9.856677e+00
   1.231047e+01   7.996089e+00
  -4.535685e+01   2.622634e+01
  -1.528028e+01   2.194102e+01
   2.630872e+01  -1.211661e+00
  -7.227046e+00  -1.049417e+01
  -8.897733e+01  -4.962130e+00
  -1.077599e+02  -2.908144e+01
  -7.585766e+00  -9.533693e+01
   1.419813e+02  -1.335360e+02
   2.182503e+02  -6.565839e+01
   1.639329e+02   8.265176e+01
   2.717086e+01   1.911933e+02
  -9.428728e+01   1.737631e+02
  -1.344081e+02   6.568366e+01
  -9.483375e+01  -2.704743e+01
  -2.894117e+01  -4.209053e+01
   4.603231e+00  -1.041267e+01
  -1.067247e+01  -4.714115e+00
  -3.811556e+01  -5.337804e+01
  -2.618056e+01  -1.056102e+02
   3.546737e+01  -8.412518e+01
   9.645254e+01   2.263486e+01
   8.996146e+01   1.294963e+02
   2.821958e+00   1.333448e+02
  -9.842960e+01   2.686226e+01
  -1.206364e+02  -9.086888e+01
  -3.605821e+01  -1.216331e+02
   7.831364e+01  -6.283677e+01
   1.129591e+02   1.560207e+01
   4.370439e+01   5.788930e+01
  -3.899270e+01   5.765858e+01
  -3.539540e+01   3.139312e+01
   4.140804e+01   2.694829e-01
   8.137566e+01  -6.539499e+00
   1.655957e+01   2.958964e+01
  -9.350443e+01   7.664883e+01
  -1.344864e+02   6.759039e+01
  -7.281986e+01  -1.497135e+01
   1.982296e+01  -9.722155e+01
   6.229905e+01  -9.101747e+01
   4.270335e+01  -3.795522e+00
   6.360385e-01   6.697134e+01
  -3.136198e+01   4.923048e+01
  -4.343205e+01  -2.310447e+01
  -3.108628e+01  -6.362756e+01
   4.031090e+00  -3.793136e+01
   3.884909e+01   1.031559e+01
   4.565102e+01   2.418469e+01
   2.387532e+01   6.145863e-01
   5.898610e-01  -1.602822e+01
  -6.339068e+00   5.202135e+00
  -8.717203e+00   4.457288e+01
  -2.267098e+01   5.280277e+01
  -3.996604e+01   7.657522e+00
  -3.448678e+01  -5.508181e+01
   4.539065e+00  -7.241629e+01
   5.272563e+01  -2.297517e+01
   6.475892e+01   4.783164e+01
   1.580225e+01   7.429123e+01
  -6.382894e+01   3.811322e+01
  -1.029077e+02  -2.009805e+01
  -5.674350e+01  -5.190013e+01
   3.428593e+01  -4.630488e+01
   7.618062e+01  -2.309719e+01
   2.772994e+01  -4.671730e+00
  -4.511314e+01  -2.978205e+00
  -4.496632e+01  -1.962894e+01
   3.720576e+01  -3.758402e+01
   1.086821e+02  -2.279915e+01
