
 $NMID
 id='ANONYMOUS ', fmtdat='(2E16.6)'
 volume=1.0
 tramp=1.0
 $END
   2.538124e+03  -4.167339e+01
   1.805961e+03   1.130536e+03
  -2.436851e+02   1.568648e+03
  -1.235376e+03   8.208772e+02
  -8.012044e+02   2.120134e+01
   1.494909e+02  -1.384515e+02
   2.968064e+02   7.777773e+01
  -1.181034e+02   4.928088e+02
  -3.781339e+02   5.485108e+02
  -5.342642e+02   3.453316e+01
  -3.034558e+02  -4.369418e+02
   3.644757e+01  -5.659075e+02
   2.609595e+02  -1.279920e+02
   1.349770e+02   3.551839e+02
  -8.043360e+01   4.558594e+02
  -2.627660e+02   5.823375e+01
  -2.712451e+02  -4.651476e+02
   1.480779e+02  -5.492537e+02
   3.980758e+02  -2.190921e+02
   3.776252e+02   9.784177e+01
   1.018844e+02   3.014441e+02
  -8.625282e+01   1.798399e+02
  -7.821685e+01   5.530877e+01
   1.448746e+02   8.980699e+01
   2.282353e+02   2.590914e+02
   6.160337e+00   3.161559e+02
  -3.865904e+02   1.014229e+02
  -4.971246e+02  -2.109310e+02
  -1.700714e+02  -3.204419e+02
   2.996803e+02  -1.227227e+02
   4.202730e+02   1.618252e+02
   1.543882e+02   3.168023e+02
  -2.330236e+02   2.732610e+02
  -4.023338e+02   9.379382e+01
  -2.708553e+02  -1.433927e+02
  -7.828569e+01  -2.387909e+02
   3.298640e+01  -1.273765e+02
  -4.380078e+01   7.520314e+01
  -1.531841e+02   1.100409e+02
  -1.524419e+02  -1.356359e+02
   1.998574e+01  -4.024148e+02
   2.140423e+02  -3.366770e+02
   2.646755e+02   9.886169e+00
   8.296099e+01   2.428569e+02
  -1.262950e+02   1.099995e+02
  -1.418793e+02  -2.225085e+02
   9.970394e+01  -3.063295e+02
   3.681613e+02  -2.611320e+01
   4.130780e+02   3.174160e+02
   1.252757e+02   4.161367e+02
  -2.715687e+02   2.211023e+02
  -4.535530e+02  -6.326109e+01
  -2.934001e+02  -2.143751e+02
   3.790885e+01  -1.863492e+02
   2.369820e+02  -6.957623e+01
   1.745160e+02   1.107641e+01
   9.573118e+00   6.107138e+00
  -2.837845e+01  -4.155386e+01
   8.988305e+01  -3.846440e+01
   1.830242e+02   4.959929e+01
   9.266353e+01   1.603119e+02
  -1.299286e+02   1.999259e+02
  -2.840422e+02   1.132706e+02
  -2.241077e+02  -8.023131e+01
   1.522475e+01  -2.707192e+02
   2.532831e+02  -3.086656e+02
   3.178206e+02  -1.297804e+02
   1.930977e+02   1.472140e+02
   2.197070e+01   3.071940e+02
  -4.938911e+01   2.635188e+02
  -2.441130e+01   1.363442e+02
  -2.438559e+01   7.956514e+01
  -1.140862e+02   8.866196e+01
  -2.146712e+02   3.873390e+01
  -2.044661e+02  -1.068302e+02
  -7.024097e+01  -2.215420e+02
   9.090062e+01  -1.629987e+02
   1.657536e+02   4.138466e+01
   1.096324e+02   2.167520e+02
  -4.865937e+01   2.139365e+02
  -2.142436e+02   4.197023e+01
  -2.527501e+02  -1.565521e+02
  -1.341460e+02  -2.483298e+02
   4.088229e+01  -2.158977e+02
   1.313813e+02  -1.262058e+02
   1.201489e+02  -7.718022e+01
   1.316980e+02  -6.477243e+01
   2.471952e+02  -2.649283e+01
   3.540225e+02   9.541795e+01
   2.685420e+02   2.638748e+02
  -3.179961e+01   3.742281e+02
  -3.351950e+02   3.322755e+02
  -4.123930e+02   1.399654e+02
  -2.387871e+02  -9.088776e+01
  -7.890657e+00  -2.091212e+02
   8.153142e+01  -1.586958e+02
   3.097343e+00  -2.560862e+01
  -1.063926e+02   3.179337e+01
  -1.113292e+02  -3.923466e+01
  -2.206223e+00  -1.199730e+02
   1.005952e+02  -8.421666e+01
   8.761267e+01   4.850143e+01
  -2.947037e+01   1.088265e+02
  -1.370378e+02  -7.005435e+00
  -1.250206e+02  -2.065558e+02
   2.415420e+01  -2.930748e+02
   2.136567e+02  -1.736577e+02
   3.069423e+02   6.185831e+01
   2.319257e+02   2.326997e+02
   4.161269e+01   2.354456e+02
  -1.132841e+02   1.141660e+02
  -1.237050e+02   1.700956e+00
  -2.793504e+01  -1.015850e+01
   3.717921e+01   5.521927e+01
  -1.020227e+01   9.385174e+01
  -1.047791e+02   4.783531e+01
  -1.175324e+02  -2.993168e+01
  -1.971461e+01  -4.743215e+01
   7.257893e+01   1.739347e+01
   3.290395e+01   8.991323e+01
  -1.290991e+02   8.247219e+01
  -2.631273e+02  -2.056310e+01
  -2.242631e+02  -1.562572e+02
  -2.267571e+01  -2.344030e+02
   1.827408e+02  -1.985245e+02
   2.327148e+02  -7.266224e+01
   1.159470e+02   4.565232e+01
  -2.748294e+01   6.448360e+01
  -5.289576e+01  -8.830400e+00
   4.870500e+01  -6.789450e+01
   1.563422e+02  -2.224723e+01
   1.527630e+02   9.313157e+01
   3.889632e+01   1.586097e+02
  -8.069039e+01   1.088843e+02
  -1.049120e+02   5.809670e+00
  -3.249109e+01  -3.620704e+01
   4.390600e+01   1.949727e+01
   2.636490e+01   9.864022e+01
  -8.649831e+01   1.024093e+02
  -1.844843e+02   6.505441e+00
  -1.543581e+02  -1.190430e+02
  -3.791593e+00  -1.755060e+02
   1.367104e+02  -1.213772e+02
   1.467708e+02  -6.044929e+00
   4.242782e+01   7.820397e+01
  -5.482302e+01   7.625900e+01
  -5.867287e+01   1.764706e+01
   1.926071e+00  -2.265671e+01
   3.506510e+01  -5.976334e+00
  -6.295407e+00   2.531625e+01
  -7.794726e+01   4.301851e+00
  -9.218898e+01  -8.073046e+01
  -7.416039e+00  -1.549513e+02
   1.279180e+02  -1.314312e+02
   2.074626e+02  -2.414739e+00
   1.609123e+02   1.421557e+02
   2.514130e+01   1.953497e+02
  -8.993041e+01   1.314155e+02
  -1.093858e+02   2.280417e+01
  -5.957462e+01  -3.824408e+01
  -2.538542e+01  -2.334982e+01
  -4.597150e+01   1.457413e+01
  -7.700283e+01   6.987530e+00
  -5.154254e+01  -4.923464e+01
   3.452074e+01  -9.366531e+01
   1.103558e+02  -5.939011e+01
   9.778552e+01   4.087928e+01
  -1.525692e+01   1.158333e+02
  -1.462918e+02   7.787872e+01
  -1.800620e+02  -5.935420e+01
  -6.865639e+01  -1.849359e+02
   1.143352e+02  -1.865228e+02
   2.312728e+02  -6.401805e+01
   2.027820e+02   8.124785e+01
   7.632871e+01   1.439551e+02
  -3.709616e+01   1.148102e+02
  -7.326328e+01   6.418411e+01
  -5.602270e+01   5.647729e+01
  -4.857539e+01   8.010743e+01
  -7.803323e+01   6.909831e+01
  -1.121821e+02  -1.551342e+01
  -9.860175e+01  -1.330002e+02
  -1.760107e+01  -1.931128e+02
   8.921484e+01  -1.380527e+02
   1.446048e+02  -2.474063e+00
   1.027869e+02   1.132096e+02
   1.722158e+00   1.320282e+02
  -6.790643e+01   6.348342e+01
  -5.261624e+01  -1.697822e+01
   7.226441e+00  -4.739559e+01
   2.701361e+01  -2.958256e+01
  -2.168365e+01  -8.489954e+00
  -7.331679e+01  -1.448417e+01
  -4.420487e+01  -3.469140e+01
   6.357953e+01  -3.404613e+01
   1.508815e+02   4.078609e+00
   1.233580e+02   5.842164e+01
  -4.291416e+00   8.604970e+01
  -1.194297e+02   6.096301e+01
  -1.258402e+02  -2.087197e-01
  -3.625837e+01  -4.686947e+01
   5.365944e+01  -3.786743e+01
   6.796642e+01   1.772178e+01
   1.622755e+01   6.476183e+01
  -4.008387e+01   5.592455e+01
  -5.904440e+01  -9.102665e-02
  -4.870288e+01  -4.507235e+01
  -3.908182e+01  -3.711798e+01
  -4.551811e+01  -1.739162e-01
  -5.571184e+01  -6.898587e-02
  -3.874169e+01  -6.186675e+01
   2.402529e+01  -1.299039e+02
   1.099716e+02  -1.227465e+02
   1.552229e+02  -2.540286e+01
   1.090260e+02   8.346778e+01
  -2.746748e+00   1.141855e+02
  -8.198245e+01   5.777487e+01
  -5.346974e+01  -1.144165e+01
   5.005877e+01  -1.880735e+01
   1.134360e+02   3.651031e+01
   5.811379e+01   9.230357e+01
  -7.366190e+01   9.171436e+01
  -1.621593e+02   3.210879e+01
  -1.324327e+02  -4.121211e+01
  -2.321326e+01  -7.506625e+01
   5.815920e+01  -4.983199e+01
   4.354228e+01   4.365565e+00
  -3.368127e+01   2.729505e+01
  -7.939965e+01  -1.771573e+01
  -3.421481e+01  -9.892089e+01
   6.749698e+01  -1.316123e+02
   1.340662e+02  -5.870822e+01
   1.068711e+02   7.800440e+01
   1.195997e+01   1.626145e+02
  -7.175797e+01   1.178654e+02
  -8.856437e+01  -1.209504e+01
  -4.390932e+01  -1.042554e+02
   1.523275e+01  -8.752573e+01
   4.557891e+01  -1.117871e+01
   3.713528e+01   2.889942e+01
   1.226222e+01   7.011044e+00
   5.164169e+00  -1.446786e+01
   2.734392e+01   1.871104e+01
   4.894055e+01   7.728300e+01
   2.420382e+01   8.912016e+01
  -5.016281e+01   3.437440e+01
  -1.147030e+02  -3.423093e+01
  -1.009612e+02  -6.150758e+01
  -1.314787e+01  -4.637076e+01
   6.904025e+01  -2.082010e+01
   7.374719e+01  -2.133996e+00
   1.588926e+01   1.168661e+01
  -2.876674e+01   1.830090e+01
  -1.782212e+01   1.025136e+01
   1.095761e+01  -3.644373e+00
  -1.966320e+00  -4.666217e+00
  -5.421461e+01   5.584733e-01
  -7.773344e+01  -1.833211e+01
  -1.943052e+01  -6.764515e+01
   8.986233e+01  -9.841892e+01
   1.601606e+02  -5.561899e+01
   1.307717e+02   4.939173e+01
   2.682358e+01   1.349727e+02
  -7.081185e+01   1.324682e+02
  -1.011786e+02   5.623135e+01
  -6.877361e+01  -1.709434e+01
  -2.218226e+01  -3.386624e+01
  -2.343653e+00  -1.213165e+01
  -1.207020e+01  -7.663938e+00
  -2.457370e+01  -4.215061e+01
  -1.340383e+01  -7.775879e+01
   2.504931e+01  -6.088537e+01
   6.495533e+01   1.274048e+01
   6.667279e+01   8.583451e+01
   1.270164e+01   9.299717e+01
  -6.205840e+01   2.725410e+01
  -8.913493e+01  -5.457622e+01
  -3.431855e+01  -8.800124e+01
   5.433379e+01  -5.548311e+01
   8.897151e+01   6.755888e+00
   3.910794e+01   5.112810e+01
  -3.023598e+01   5.357456e+01
  -3.581077e+01   2.410263e+01
   2.157844e+01  -6.810778e+00
   5.881301e+01  -8.298530e+00
   1.670086e+01   2.391396e+01
  -6.689075e+01   5.586897e+01
  -1.046403e+02   4.390057e+01
  -6.200336e+01  -1.595561e+01
   1.196542e+01  -7.295408e+01
   5.109552e+01  -7.114407e+01
   3.974420e+01  -1.182370e+01
   6.632247e+00   4.330905e+01
  -1.962666e+01   4.064294e+01
  -3.012612e+01  -8.449119e+00
  -2.295356e+01  -4.527143e+01
   1.148820e+00  -3.328687e+01
   2.830538e+01   5.565381e+00
   3.529825e+01   2.322288e+01
   1.669529e+01   4.981752e+00
  -4.890729e+00  -1.812853e+01
  -6.650681e+00  -9.318580e+00
   4.540666e+00   2.569230e+01
   1.764073e+00   4.515625e+01
  -2.174437e+01   2.002602e+01
  -3.651669e+01  -2.848329e+01
  -1.315953e+01  -5.060206e+01
   3.411829e+01  -2.258399e+01
   5.504465e+01   2.735390e+01
   1.754156e+01   5.128227e+01
  -4.933568e+01   3.106762e+01
  -8.058871e+01  -9.497867e+00
  -4.360547e+01  -3.732723e+01
   2.470197e+01  -3.974737e+01
   5.636644e+01  -2.516919e+01
   2.627935e+01  -6.748166e+00
  -2.186708e+01   3.007014e+00
  -2.710445e+01  -3.979068e+00
   1.900570e+01  -1.927183e+01
   6.475850e+01  -1.618758e+01
