
 $NMID
 id='ANONYMOUS ', fmtdat='(2E16.6)'
 volume=1.0
 tramp=1.0
 $END
  -3.577170e+03   7.063073e+01
  -2.304544e+03  -1.903190e+03
   3.085305e+02  -2.225921e+03
   1.607951e+03  -9.525476e+02
   8.978286e+02   2.180355e+02
  -1.567419e+02   2.261794e+02
  -5.815821e+02  -1.766053e+02
  -1.073148e+02  -7.822215e+02
   6.470436e+02  -5.564587e+02
   7.054936e+02   1.536605e+01
   3.998539e+02   5.879964e+02
  -1.433956e+01   7.190117e+02
  -4.755957e+02   2.209926e+02
  -2.708999e+02  -4.859284e+02
   1.557493e+02  -6.241376e+02
   4.843037e+02  -2.260516e+00
   2.288440e+02   5.145244e+02
  -1.797621e+02   6.097122e+02
  -5.076376e+02   1.688064e+02
  -3.502653e+02  -2.836776e+02
  -7.407979e+01  -3.774302e+02
   1.417576e+02  -2.396167e+02
   1.107315e+02  -5.829279e+01
  -1.220246e+02  -1.985279e+01
  -2.672165e+02  -1.945184e+02
  -9.304320e+01  -3.442487e+02
   4.213038e+02  -2.516614e+02
   6.831485e+02   1.281024e+02
   3.189219e+02   3.952390e+02
  -3.319594e+02   2.989447e+02
  -5.886718e+02  -8.351057e+01
  -2.383476e+02  -3.733020e+02
   2.626128e+02  -3.787219e+02
   4.644192e+02  -1.510441e+02
   3.311148e+02   1.533000e+02
   5.730760e+01   3.595572e+02
  -1.094735e+02   2.148429e+02
  -4.675236e+01  -1.432402e+02
   1.572640e+02  -2.823118e+02
   3.051995e+02   7.002219e+01
   1.271886e+02   5.249146e+02
  -2.474303e+02   5.211507e+02
  -4.085435e+02   2.071202e+01
  -1.639255e+02  -3.795463e+02
   2.017310e+02  -2.038105e+02
   2.484851e+02   2.643474e+02
  -7.396074e+01   4.202593e+02
  -4.510126e+02   1.070707e+02
  -4.937347e+02  -3.410316e+02
  -1.565242e+02  -4.775196e+02
   3.003507e+02  -2.789141e+02
   5.112032e+02   5.823573e+01
   3.188880e+02   2.810808e+02
  -9.947267e+01   2.668860e+02
  -3.421918e+02   6.242052e+01
  -2.162395e+02  -1.061882e+02
   4.777156e+01  -6.645634e+01
   9.163283e+01   8.269495e+01
  -1.134355e+02   1.072375e+02
  -2.596995e+02  -5.249012e+01
  -1.246132e+02  -2.177488e+02
   1.591881e+02  -2.244970e+02
   3.080487e+02  -9.490834e+01
   2.100281e+02   7.815970e+01
  -2.756635e+01   2.408452e+02
  -2.416587e+02   3.123229e+02
  -3.197962e+02   1.784174e+02
  -2.313282e+02  -1.281943e+02
  -5.470187e+01  -3.613237e+02
   6.372105e+01  -3.260638e+02
   5.644724e+01  -1.357644e+02
   2.149689e+01  -4.578854e+01
   8.220740e+01  -9.409756e+01
   2.060309e+02  -8.758032e+01
   2.421380e+02   7.438870e+01
   1.179174e+02   2.366982e+02
  -7.673038e+01   2.037479e+02
  -1.890320e+02  -1.218394e+01
  -1.476052e+02  -2.166135e+02
   3.025298e+01  -2.430657e+02
   2.281315e+02  -8.346260e+01
   2.989151e+02   1.504835e+02
   1.585669e+02   2.924915e+02
  -6.387379e+01   2.572759e+02
  -1.734853e+02   1.253903e+02
  -1.312765e+02   3.855705e+01
  -1.079475e+02   4.831387e+01
  -2.277837e+02   5.244202e+01
  -3.679285e+02  -6.125147e+01
  -3.006702e+02  -2.543218e+02
   5.349150e+00  -3.965242e+02
   3.317533e+02  -3.676833e+02
   4.330590e+02  -1.691743e+02
   2.765381e+02   9.002155e+01
   2.813248e+01   2.449437e+02
  -1.023304e+02   1.970746e+02
  -4.108113e+01   2.692605e+01
   1.012033e+02  -6.468274e+01
   1.423659e+02   1.960712e+01
   2.474293e+01   1.477326e+02
  -1.243525e+02   1.186468e+02
  -1.276675e+02  -5.421732e+01
   2.302764e+01  -1.450913e+02
   1.643231e+02  -1.536663e+01
   1.461891e+02   2.158205e+02
  -2.089159e+01   3.125811e+02
  -2.142931e+02   1.841692e+02
  -3.124914e+02  -5.429319e+01
  -2.521166e+02  -2.293981e+02
  -6.655238e+01  -2.474450e+02
   1.144197e+02  -1.367576e+02
   1.523866e+02  -9.171735e+00
   4.344130e+01   2.268298e+01
  -5.263151e+01  -4.562063e+01
  -9.229523e+00  -1.077626e+02
   1.136836e+02  -7.134881e+01
   1.471055e+02   2.345193e+01
   3.848490e+01   6.168222e+01
  -7.726507e+01   2.672692e+00
  -4.654559e+01  -7.797030e+01
   1.214565e+02  -8.356937e+01
   2.666740e+02   6.391716e+00
   2.403504e+02   1.394214e+02
   4.303208e+01   2.358649e+02
  -1.767341e+02   2.266654e+02
  -2.503934e+02   1.041664e+02
  -1.401114e+02  -4.111739e+01
   2.290869e+01  -8.400299e+01
   6.767557e+01  -3.250852e+00
  -4.092315e+01   7.905193e+01
  -1.716718e+02   3.991753e+01
  -1.788070e+02  -9.362048e+01
  -5.347253e+01  -1.783138e+02
   8.557031e+01  -1.320899e+02
   1.228484e+02  -1.931610e+01
   5.137431e+01   3.815942e+01
  -3.457438e+01  -4.894583e+00
  -3.119483e+01  -8.521490e+01
   7.655431e+01  -1.040745e+02
   1.851663e+02  -1.984159e+01
   1.669709e+02   1.148710e+02
   1.152817e+01   1.910669e+02
  -1.459363e+02   1.414085e+02
  -1.643278e+02   8.666333e+00
  -5.183011e+01  -9.322887e+01
   5.878404e+01  -9.170172e+01
   6.794961e+01  -2.368705e+01
   7.429624e+00   2.338845e+01
  -2.772873e+01   1.225700e+01
   6.994819e+00  -1.687920e+01
   7.015594e+01   1.305425e+00
   8.640731e+01   7.769446e+01
   1.315267e+01   1.503722e+02
  -1.186465e+02   1.381626e+02
  -2.098695e+02   1.543776e+01
  -1.754016e+02  -1.396030e+02
  -3.540647e+01  -2.093602e+02
   9.384834e+01  -1.462203e+02
   1.182471e+02  -2.370970e+01
   6.388342e+01   4.663944e+01
   2.705785e+01   2.947716e+01
   4.885196e+01  -1.282704e+01
   7.625150e+01  -7.731560e+00
   4.602850e+01   4.875222e+01
  -3.822628e+01   8.945303e+01
  -1.052434e+02   5.588873e+01
  -8.993871e+01  -3.741325e+01
   1.477186e+01  -1.113760e+02
   1.401934e+02  -8.115394e+01
   1.837580e+02   5.264628e+01
   8.458496e+01   1.868600e+02
  -1.036901e+02   2.018632e+02
  -2.402143e+02   7.919309e+01
  -2.254335e+02  -7.861937e+01
  -9.288138e+01  -1.544988e+02
   3.793913e+01  -1.261053e+02
   8.327321e+01  -7.109684e+01
   6.534407e+01  -6.023061e+01
   5.238191e+01  -8.305022e+01
   7.948712e+01  -7.050741e+01
   1.163674e+02   1.639252e+01
   1.074507e+02   1.386370e+02
   2.543237e+01   2.039023e+02
  -9.015097e+01   1.525749e+02
  -1.556000e+02   1.333548e+01
  -1.177930e+02  -1.134212e+02
  -1.246735e+01  -1.427870e+02
   6.416058e+01  -7.697035e+01
   5.493351e+01   7.869964e+00
  -7.312533e-02   4.430511e+01
  -1.703049e+01   3.054439e+01
   2.857899e+01   1.105553e+01
   7.456481e+01   1.650036e+01
   4.387590e+01   3.524053e+01
  -6.109126e+01   3.573657e+01
  -1.493452e+02   2.113542e+00
  -1.291467e+02  -5.046955e+01
  -5.796255e+00  -8.362913e+01
   1.153653e+02  -6.701164e+01
   1.298104e+02  -9.339495e+00
   4.014179e+01   4.154060e+01
  -5.475429e+01   3.814810e+01
  -6.952134e+01  -1.584108e+01
  -1.230680e+01  -6.527395e+01
   4.580315e+01  -5.774536e+01
   6.011031e+01  -1.098046e+00
   4.730768e+01   4.611639e+01
   4.167452e+01   3.912025e+01
   5.182335e+01   1.970122e+00
   5.812891e+01   3.983553e-01
   3.620669e+01   6.317436e+01
  -2.588472e+01   1.352244e+02
  -1.082680e+02   1.297917e+02
  -1.554201e+02   3.022181e+01
  -1.146251e+02  -8.365142e+01
  -3.690127e+00  -1.169703e+02
   8.110701e+01  -5.903807e+01
   5.577290e+01   1.230348e+01
  -5.297493e+01   2.047441e+01
  -1.231365e+02  -3.618052e+01
  -6.703499e+01  -9.574667e+01
   7.288522e+01  -1.007335e+02
   1.706099e+02  -4.391552e+01
   1.435242e+02   3.362866e+01
   3.005105e+01   7.735820e+01
  -5.677953e+01   5.881296e+01
  -4.442533e+01   2.746985e+00
   3.547535e+01  -2.595515e+01
   8.299213e+01   1.858172e+01
   3.318593e+01   1.045027e+02
  -7.630012e+01   1.389975e+02
  -1.460199e+02   6.032422e+01
  -1.140179e+02  -8.513801e+01
  -1.207663e+01  -1.746851e+02
   7.564297e+01  -1.280858e+02
   9.403252e+01   8.546368e+00
   5.161401e+01   1.077043e+02
  -7.466673e+00   9.438547e+01
  -4.428098e+01   1.584042e+01
  -4.359379e+01  -2.817138e+01
  -1.918978e+01  -7.188959e+00
  -4.914942e+00   1.629529e+01
  -2.344709e+01  -1.723251e+01
  -5.049677e+01  -8.004039e+01
  -3.185934e+01  -9.497271e+01
   4.739544e+01  -3.829005e+01
   1.230899e+02   3.502983e+01
   1.125081e+02   6.403090e+01
   1.477472e+01   4.791618e+01
  -7.714905e+01   2.265027e+01
  -7.977566e+01   4.876171e+00
  -1.343689e+01  -1.043033e+01
   3.293967e+01  -2.028292e+01
   1.584942e+01  -1.304591e+01
  -1.588109e+01   3.082507e+00
   3.418153e+00   6.203425e+00
   6.217861e+01   3.607350e-01
   8.237336e+01   1.987611e+01
   1.407163e+01   7.188639e+01
  -9.982069e+01   1.041029e+02
  -1.662691e+02   5.699659e+01
  -1.317998e+02  -5.445258e+01
  -2.719803e+01  -1.425719e+02
   7.014331e+01  -1.370302e+02
   1.029069e+02  -5.677720e+01
   7.224370e+01   1.790703e+01
   2.312025e+01   3.356131e+01
  -6.665825e-01   1.055871e+01
   9.924268e+00   5.731160e+00
   2.757980e+01   4.221426e+01
   1.798086e+01   8.067088e+01
  -2.625448e+01   6.372377e+01
  -7.182388e+01  -1.569649e+01
  -7.112008e+01  -9.452774e+01
  -8.953002e+00  -9.998674e+01
   7.081914e+01  -2.547138e+01
   9.471272e+01   6.241526e+01
   3.328163e+01   9.225517e+01
  -5.867344e+01   5.375329e+01
  -9.105175e+01  -8.998182e+00
  -3.815677e+01  -4.924173e+01
   3.059629e+01  -5.121857e+01
   3.285424e+01  -2.561418e+01
  -2.625512e+01   3.240663e+00
  -6.117324e+01   7.147135e+00
  -1.474074e+01  -2.340608e+01
   7.066049e+01  -5.876213e+01
   1.060963e+02  -4.986303e+01
   6.090609e+01   1.302695e+01
  -1.247448e+01   7.563644e+01
  -4.957060e+01   7.330405e+01
  -3.691079e+01   8.711741e+00
  -4.107108e+00  -4.805617e+01
   2.240836e+01  -4.035085e+01
   3.286240e+01   1.358599e+01
   2.399402e+01   4.880021e+01
  -3.037361e+00   3.238034e+01
  -3.083055e+01  -6.888450e+00
  -3.661774e+01  -2.200269e+01
  -1.767713e+01  -3.421054e+00
   3.168137e+00   1.550473e+01
   6.741774e+00   3.347910e+00
   8.825144e-01  -3.022243e+01
   7.015641e+00  -4.388246e+01
   2.566317e+01  -1.399827e+01
   3.210738e+01   3.530295e+01
   5.555272e+00   5.410286e+01
  -3.787680e+01   2.137992e+01
  -5.422025e+01  -3.183149e+01
  -1.592747e+01  -5.547790e+01
   5.034718e+01  -3.236689e+01
   8.247792e+01   1.095406e+01
   4.560285e+01   3.916931e+01
  -2.554015e+01   3.995352e+01
  -5.870121e+01   2.374592e+01
  -2.459253e+01   5.444546e+00
   2.892871e+01  -1.982281e+00
   3.224160e+01   8.467014e+00
  -2.291101e+01   2.576455e+01
  -7.479838e+01   2.025994e+01
