
 $NMID
 id='ANONYMOUS ', fmtdat='(2E16.6)'
 volume=1.0
 tramp=1.0
 $END
  -2.458337e+03  -1.862095e+01
  -1.557477e+03  -1.172113e+03
  -2.696324e+02  -1.306737e+03
   6.684020e+02  -1.247951e+03
   6.967363e+02  -2.958032e+02
   1.258552e+02  -1.499752e+02
  -7.348055e+01  -6.643741e+01
  -3.281067e+01  -3.552061e+02
   3.076596e+02  -3.367575e+02
   4.142767e+02  -1.480707e+02
   2.482700e+02   2.702362e+02
   1.710553e+02   4.794008e+02
  -1.501112e+02   1.103827e+02
  -7.948966e+01  -2.100327e+02
   3.074101e+01  -3.304487e+02
   2.324523e+02  -5.403370e+01
   2.464578e+02   3.290869e+02
   1.901898e+01   4.754371e+02
  -3.017296e+02   2.474463e+02
  -3.687393e+02  -8.369197e+01
  -1.308097e+02  -2.787266e+02
   4.292832e+01  -2.154838e+02
   1.873079e+01  -6.603198e+01
  -1.522954e+02  -1.172323e+02
  -1.926223e+02  -2.392997e+02
   7.477824e+01  -2.777549e+02
   3.851555e+02  -6.509682e+01
   4.432590e+02   1.475150e+02
   1.419063e+02   2.097428e+02
  -2.226397e+02   7.145542e+01
  -3.282671e+02  -1.159719e+02
  -9.423262e+01  -2.166527e+02
   1.994685e+02  -2.285888e+02
   3.047522e+02  -1.020923e+02
   2.137550e+02   8.616456e+01
   7.901885e+01   1.896425e+02
   4.159019e+01   1.195698e+02
   9.636383e+01  -4.684104e+01
   1.385503e+02  -6.327172e+01
   8.318898e+01   1.319829e+02
  -5.325427e+01   3.404931e+02
  -1.622431e+02   2.870787e+02
  -1.846092e+02   2.398241e+01
  -5.576472e+01  -1.785387e+02
   7.224101e+01  -7.802824e+01
   8.024057e+01   1.863425e+02
  -8.912926e+01   2.707233e+02
  -3.090770e+02   3.656555e+01
  -3.530197e+02  -2.766644e+02
  -1.315759e+02  -3.656720e+02
   1.993740e+02  -1.950686e+02
   3.654810e+02   4.460317e+01
   2.606221e+02   1.479523e+02
   2.427974e+00   1.328335e+02
  -1.791900e+02   7.136348e+01
  -1.717537e+02   2.381030e+01
  -5.348684e+01  -1.778938e+00
   1.094014e+01  -4.357460e+00
  -4.543601e+01   4.468420e+00
  -1.278785e+02  -2.358428e+01
  -8.826929e+01  -1.120544e+02
   9.519141e+01  -1.881724e+02
   2.637348e+02  -1.304727e+02
   2.288562e+02   7.653573e+01
  -1.294135e+01   2.845827e+02
  -2.597893e+02   3.053525e+02
  -3.102735e+02   1.108521e+02
  -1.754443e+02  -1.397116e+02
  -3.034603e+01  -2.664185e+02
   5.829628e+00  -2.357718e+02
  -1.098901e+01  -1.569293e+02
   3.196282e+01  -1.206785e+02
   1.395759e+02  -9.908016e+01
   2.124952e+02  -1.582724e+01
   1.708854e+02   1.191862e+02
   4.463153e+01   1.984285e+02
  -8.276956e+01   1.278325e+02
  -1.322488e+02  -4.826273e+01
  -8.438596e+01  -1.904706e+02
   4.561264e+01  -1.800413e+02
   1.842987e+02  -3.265575e+01
   2.279551e+02   1.345071e+02
   1.314080e+02   2.153189e+02
  -2.381267e+01   1.968418e+02
  -1.119591e+02   1.332321e+02
  -1.143422e+02   9.201060e+01
  -1.290443e+02   7.303264e+01
  -2.332920e+02   2.689776e+01
  -3.320692e+02  -8.286859e+01
  -2.563291e+02  -2.388582e+02
   2.099338e+01  -3.424808e+02
   3.002400e+02  -3.101018e+02
   3.656092e+02  -1.326850e+02
   2.032923e+02   7.593128e+01
   4.008840e+00   1.791552e+02
  -5.544433e+01   1.331488e+02
   1.697016e+01   3.020237e+01
   9.292058e+01  -9.681504e+00
   7.580392e+01   3.800467e+01
  -1.154443e+01   8.990737e+01
  -7.687380e+01   5.676336e+01
  -6.030924e+01  -3.876874e+01
   2.968146e+01  -8.064486e+01
   1.189535e+02   1.097290e+01
   1.176823e+02   1.773434e+02
  -9.924037e+00   2.630946e+02
  -1.915785e+02   1.724292e+02
  -2.915433e+02  -4.200289e+01
  -2.192362e+02  -2.109471e+02
  -3.363359e+01  -2.199883e+02
   1.098512e+02  -1.033753e+02
   1.095469e+02   4.463539e+00
   1.586225e+01   9.252187e+00
  -3.752702e+01  -5.529206e+01
   1.330827e+01  -8.738194e+01
   9.949877e+01  -4.011091e+01
   1.064060e+02   2.986910e+01
   1.535953e+01   4.032957e+01
  -6.972738e+01  -2.032146e+01
  -3.094588e+01  -8.320073e+01
   1.223718e+02  -7.281445e+01
   2.470145e+02   2.080328e+01
   2.079496e+02   1.418031e+02
   1.785071e+01   2.091950e+02
  -1.685345e+02   1.768347e+02
  -2.064943e+02   6.947500e+01
  -9.809205e+01  -3.071865e+01
   2.495639e+01  -4.756502e+01
   4.061345e+01   1.122406e+01
  -5.074913e+01   5.708281e+01
  -1.442370e+02   1.544373e+01
  -1.404079e+02  -8.528756e+01
  -3.893278e+01  -1.432255e+02
   6.961963e+01  -9.991617e+01
   9.313012e+01  -8.119724e+00
   2.760322e+01   2.886382e+01
  -3.977013e+01  -2.325093e+01
  -1.843504e+01  -9.681253e+01
   8.696950e+01  -9.790806e+01
   1.726859e+02  -5.477222e+00
   1.400589e+02   1.119797e+02
   2.945025e+00   1.638065e+02
  -1.219525e+02   1.142737e+02
  -1.313802e+02   8.922509e+00
  -3.938252e+01  -6.923071e+01
   4.823180e+01  -6.965179e+01
   5.162458e+01  -1.659120e+01
  -5.949078e+00   2.053760e+01
  -3.760891e+01   4.037206e+00
   4.880061e+00  -2.824001e+01
   7.803030e+01  -7.267099e+00
   9.244199e+01   7.677443e+01
   8.038857e+00   1.502770e+02
  -1.222810e+02   1.253820e+02
  -1.945514e+02   1.090472e+00
  -1.505174e+02  -1.343951e+02
  -2.699050e+01  -1.821613e+02
   7.935811e+01  -1.228427e+02
   1.019568e+02  -2.327275e+01
   6.214835e+01   3.316201e+01
   2.857317e+01   2.162025e+01
   4.316656e+01  -1.216061e+01
   7.175288e+01  -6.075035e+00
   5.037162e+01   4.888287e+01
  -3.189178e+01   9.324104e+01
  -1.100870e+02   6.075182e+01
  -9.857448e+01  -3.963631e+01
   1.414989e+01  -1.157033e+02
   1.431781e+02  -7.912461e+01
   1.735032e+02   5.554799e+01
   6.565975e+01   1.770108e+02
  -1.066248e+02   1.781138e+02
  -2.152753e+02   6.264450e+01
  -1.907668e+02  -7.263019e+01
  -7.434045e+01  -1.325417e+02
   3.230842e+01  -1.075914e+02
   6.785737e+01  -6.251979e+01
   5.134887e+01  -5.519760e+01
   4.197227e+01  -7.660090e+01
   7.038143e+01  -6.651068e+01
   1.059835e+02   1.127018e+01
   9.736062e+01   1.215100e+02
   2.238170e+01   1.805893e+02
  -7.925894e+01   1.325989e+02
  -1.342680e+02   6.837809e+00
  -9.871272e+01  -1.041554e+02
  -4.397354e+00  -1.249998e+02
   6.397179e+01  -6.089417e+01
   5.214276e+01   1.818003e+01
  -6.012480e+00   4.931417e+01
  -2.776132e+01   3.017466e+01
   1.859230e+01   5.867119e+00
   7.066023e+01   1.088300e+01
   4.297511e+01   3.349654e+01
  -6.272179e+01   3.532913e+01
  -1.460978e+02  -1.893350e+00
  -1.160897e+02  -5.550148e+01
   7.479760e+00  -8.280820e+01
   1.135814e+02  -5.893191e+01
   1.167430e+02  -7.986508e-01
   3.406849e+01   4.481448e+01
  -4.743665e+01   3.881219e+01
  -6.382793e+01  -1.343591e+01
  -2.090722e+01  -6.177630e+01
   3.271636e+01  -5.708599e+01
   5.876014e+01  -4.168508e+00
   5.387877e+01   4.223752e+01
   4.023398e+01   3.712917e+01
   3.966090e+01   2.072088e+00
   4.976840e+01   6.455920e-01
   3.989504e+01   5.971674e+01
  -1.783531e+01   1.258060e+02
  -1.049677e+02   1.197363e+02
  -1.539918e+02   2.710674e+01
  -1.101913e+02  -7.863135e+01
   2.366928e-01  -1.109164e+02
   7.930882e+01  -6.003882e+01
   5.331682e+01   6.312034e+00
  -4.527758e+01   1.746567e+01
  -1.062897e+02  -3.041250e+01
  -5.592588e+01  -8.246561e+01
   6.619713e+01  -8.468737e+01
   1.487390e+02  -3.269195e+01
   1.219315e+02   3.367050e+01
   2.239394e+01   6.597504e+01
  -5.170349e+01   4.479390e+01
  -3.841586e+01  -4.547671e+00
   3.263819e+01  -2.705510e+01
   7.598844e+01   1.375710e+01
   3.696775e+01   9.224051e+01
  -5.650884e+01   1.281072e+02
  -1.224496e+02   6.284045e+01
  -1.036830e+02  -6.802854e+01
  -1.839902e+01  -1.523249e+02
   6.309089e+01  -1.123371e+02
   8.296943e+01   1.004791e+01
   4.170528e+01   9.657397e+01
  -1.520996e+01   8.065177e+01
  -4.312599e+01   1.016955e+01
  -3.218951e+01  -2.518497e+01
  -8.944507e+00  -5.264909e+00
  -6.456985e+00   1.220541e+01
  -3.064797e+01  -1.955513e+01
  -4.890947e+01  -7.149407e+01
  -2.229078e+01  -8.133895e+01
   4.864166e+01  -3.430291e+01
   1.080273e+02   2.536102e+01
   9.649565e+01   5.263235e+01
   1.724993e+01   4.499528e+01
  -5.955623e+01   2.498476e+01
  -6.848916e+01   5.540666e+00
  -1.850165e+01  -1.080934e+01
   2.424634e+01  -1.663626e+01
   1.799192e+01  -7.317784e+00
  -8.205871e+00   4.615955e+00
   6.177029e-01   2.234481e+00
   4.834811e+01  -4.597031e+00
   7.431186e+01   1.471704e+01
   2.476419e+01   6.483979e+01
  -7.799788e+01   9.765313e+01
  -1.501027e+02   5.935340e+01
  -1.283184e+02  -4.028887e+01
  -3.154462e+01  -1.251048e+02
   6.230091e+01  -1.274603e+02
   9.339918e+01  -5.819001e+01
   6.476773e+01   1.209851e+01
   2.290804e+01   3.072788e+01
   5.284380e+00   1.289876e+01
   1.327646e+01   9.309952e+00
   2.355317e+01   4.071380e+01
   1.347763e+01   7.327941e+01
  -2.187600e+01   5.871397e+01
  -6.196853e+01  -7.743157e+00
  -6.836882e+01  -7.594313e+01
  -1.962165e+01  -8.736524e+01
   5.491482e+01  -3.185914e+01
   8.714759e+01   4.414038e+01
   3.836098e+01   8.112585e+01
  -4.860246e+01   5.653883e+01
  -8.607043e+01  -2.652829e+00
  -4.042341e+01  -4.939721e+01
   2.747292e+01  -5.447590e+01
   3.594298e+01  -2.402537e+01
  -1.735674e+01   8.104645e+00
  -5.425983e+01   9.205505e+00
  -1.699679e+01  -2.291279e+01
   6.120869e+01  -5.367524e+01
   9.813498e+01  -4.176324e+01
   6.080788e+01   1.469524e+01
  -7.950923e+00   6.879587e+01
  -4.703145e+01   6.858212e+01
  -3.954790e+01   1.434956e+01
  -9.431959e+00  -3.945919e+01
   1.758757e+01  -4.104483e+01
   3.024970e+01   3.958356e+00
   2.467262e+01   4.256181e+01
   3.150342e-01   3.548992e+01
  -2.780584e+01  -1.584152e+00
  -3.535261e+01  -2.220031e+01
  -1.651240e+01  -6.514834e+00
   5.614490e+00   1.811783e+01
   5.899214e+00   1.283114e+01
  -8.380218e+00  -2.199218e+01
  -7.491267e+00  -4.550945e+01
   1.790944e+01  -2.511473e+01
   3.750860e+01   2.191882e+01
   1.783696e+01   4.651448e+01
  -2.956792e+01   2.346786e+01
  -5.336978e+01  -2.234629e+01
  -1.896243e+01  -4.678495e+01
   4.597258e+01  -3.108460e+01
   7.708357e+01   5.225866e+00
   4.255044e+01   3.310813e+01
  -2.147704e+01   3.979760e+01
  -5.152233e+01   2.770987e+01
  -2.522548e+01   7.648555e+00
   1.790068e+01  -5.770582e+00
   2.383906e+01   3.933172e-01
  -1.547331e+01   1.857862e+01
  -5.654628e+01   1.921454e+01
