
 $NMID
 id='ANONYMOUS ', fmtdat='(2E16.6)'
 volume=1.0
 tramp=1.0
 $END
   3.304813e+03   1.323037e+02
   2.164732e+03   1.510865e+03
   3.298522e+02   1.831192e+03
  -1.068804e+03   1.539452e+03
  -9.259410e+02   5.327053e+02
  -2.660656e+02   9.980055e+00
   2.597412e+02  -5.429556e+01
  -1.858447e+01   4.192858e+02
  -2.817058e+02   6.032011e+02
  -5.895885e+02   1.698500e+02
  -4.503819e+02  -4.901125e+02
  -5.033852e+01  -6.148533e+02
   2.080298e+02  -2.384154e+02
   2.480722e+02   3.839975e+02
  -8.697182e+01   5.682722e+02
  -3.325358e+02   1.001463e+02
  -3.115450e+02  -5.011640e+02
   8.555978e+01  -7.028225e+02
   4.493933e+02  -3.298048e+02
   4.887818e+02   9.393040e+01
   1.800771e+02   3.414927e+02
  -6.280336e+01   2.442871e+02
  -2.091585e+01   1.127319e+02
   2.387310e+02   1.788419e+02
   2.609436e+02   3.705024e+02
  -7.078698e+01   3.613406e+02
  -5.201425e+02   8.765231e+01
  -5.998816e+02  -2.535400e+02
  -1.838132e+02  -3.553556e+02
   3.552817e+02  -1.005404e+02
   4.593722e+02   2.001594e+02
   1.561251e+02   3.599962e+02
  -2.987934e+02   3.092505e+02
  -4.677725e+02   1.116721e+02
  -3.082481e+02  -1.598652e+02
  -7.005499e+01  -2.737142e+02
  -8.709420e+00  -1.541031e+02
  -1.245447e+02   8.642088e+01
  -2.244138e+02   9.810788e+01
  -1.545103e+02  -2.079028e+02
   7.214677e+01  -4.894048e+02
   2.617021e+02  -3.887533e+02
   2.699552e+02   4.731466e+00
   8.208177e+01   2.752668e+02
  -1.273984e+02   9.787432e+01
  -1.392795e+02  -2.802528e+02
   1.277798e+02  -3.638069e+02
   4.515446e+02  -2.456064e+01
   5.106739e+02   4.033645e+02
   1.704697e+02   5.104172e+02
  -3.041304e+02   2.584437e+02
  -5.418918e+02  -7.300274e+01
  -3.677118e+02  -2.342045e+02
   1.758837e+01  -1.985409e+02
   2.662472e+02  -9.732114e+01
   2.267544e+02  -2.514503e+01
   4.872408e+01   6.574644e-01
  -2.167121e+01  -1.186740e+01
   8.323209e+01  -2.192831e+01
   2.008529e+02   3.046754e+01
   1.262391e+02   1.599295e+02
  -1.418009e+02   2.617686e+02
  -3.681509e+02   1.822258e+02
  -3.090710e+02  -9.866122e+01
   2.421533e+01  -3.834282e+02
   3.541826e+02  -4.179198e+02
   4.166640e+02  -1.516058e+02
   2.270051e+02   1.981759e+02
   2.349889e+01   3.711051e+02
  -2.551748e+01   3.197599e+02
   1.150591e+01   2.023108e+02
  -3.183799e+01   1.556551e+02
  -1.837107e+02   1.371005e+02
  -3.040895e+02   2.541662e+01
  -2.571012e+02  -1.725128e+02
  -6.686303e+01  -2.895494e+02
   1.271053e+02  -1.853796e+02
   2.007538e+02   8.083354e+01
   1.118103e+02   2.857758e+02
  -8.345534e+01   2.551974e+02
  -2.684607e+02   2.743353e+01
  -3.061738e+02  -2.121062e+02
  -1.624088e+02  -3.087776e+02
   4.486907e+01  -2.638591e+02
   1.567922e+02  -1.664656e+02
   1.527172e+02  -1.074905e+02
   1.747633e+02  -8.254521e+01
   3.177120e+02  -2.686068e+01
   4.503755e+02   1.229914e+02
   3.401820e+02   3.307810e+02
  -4.698307e+01   4.766188e+02
  -4.433423e+02   4.250795e+02
  -5.376008e+02   1.700901e+02
  -2.954417e+02  -1.285119e+02
   3.233967e+00  -2.663475e+02
   1.001079e+02  -1.946768e+02
  -1.165217e+01  -4.003765e+01
  -1.338898e+02   1.464108e+01
  -1.160814e+02  -6.272654e+01
   1.478520e+01  -1.382238e+02
   1.157486e+02  -8.157931e+01
   9.301923e+01   6.418664e+01
  -3.839660e+01   1.229653e+02
  -1.647704e+02  -1.713075e+01
  -1.590945e+02  -2.601506e+02
   2.067941e+01  -3.767409e+02
   2.720140e+02  -2.334598e+02
   4.092803e+02   7.442227e+01
   3.104184e+02   3.085766e+02
   5.213802e+01   3.129794e+02
  -1.504079e+02   1.457723e+02
  -1.573099e+02  -1.374975e+00
  -3.225932e+01  -5.828340e+00
   4.135056e+01   8.106084e+01
  -2.680751e+01   1.198631e+02
  -1.415933e+02   5.298527e+01
  -1.474791e+02  -4.315222e+01
  -1.902556e+01  -5.743635e+01
   9.431866e+01   2.549682e+01
   3.498967e+01   1.111247e+02
  -1.772697e+02   9.411818e+01
  -3.424039e+02  -4.016582e+01
  -2.761775e+02  -2.077988e+02
  -6.142225e+00  -2.949847e+02
   2.497417e+02  -2.406522e+02
   2.928726e+02  -8.467184e+01
   1.331095e+02   5.422087e+01
  -4.062986e+01   7.405028e+01
  -5.875986e+01  -1.154404e+01
   7.220900e+01  -7.772178e+01
   2.001770e+02  -2.020099e+01
   1.900247e+02   1.212153e+02
   4.657721e+01   2.012223e+02
  -1.019752e+02   1.372919e+02
  -1.313971e+02   6.729612e+00
  -3.921683e+01  -4.412523e+01
   5.448321e+01   3.221179e+01
   2.527771e+01   1.348933e+02
  -1.202524e+02   1.325440e+02
  -2.384455e+02   6.361857e-01
  -1.917474e+02  -1.602425e+02
   3.202083e-02  -2.256256e+02
   1.718481e+02  -1.524559e+02
   1.826379e+02  -7.149382e+00
   5.268653e+01   9.756351e+01
  -6.908462e+01   9.584687e+01
  -7.373160e+01   2.235018e+01
   5.576468e+00  -2.947384e+01
   5.022038e+01  -7.791612e+00
  -5.860647e+00   3.512683e+01
  -1.039552e+02   7.013954e+00
  -1.232652e+02  -1.057652e+02
  -7.964875e+00  -2.008888e+02
   1.691025e+02  -1.648468e+02
   2.661518e+02   4.894449e+00
   2.012930e+02   1.854819e+02
   2.861888e+01   2.460754e+02
  -1.135458e+02   1.649952e+02
  -1.394846e+02   3.141924e+01
  -8.016853e+01  -4.536170e+01
  -3.795486e+01  -2.937476e+01
  -6.103000e+01   1.663144e+01
  -1.001571e+02   8.044943e+00
  -6.887684e+01  -6.666586e+01
   4.337370e+01  -1.256229e+02
   1.465871e+02  -8.072195e+01
   1.289724e+02   5.346084e+01
  -2.327355e+01   1.512084e+02
  -1.932945e+02   9.697089e+01
  -2.275953e+02  -8.506060e+01
  -7.663756e+01  -2.423365e+02
   1.569968e+02  -2.349255e+02
   2.987555e+02  -7.159193e+01
   2.574194e+02   1.119790e+02
   9.537574e+01   1.859399e+02
  -5.052125e+01   1.449917e+02
  -9.730384e+01   8.175473e+01
  -7.358952e+01   7.465426e+01
  -6.189995e+01   1.045047e+02
  -9.997548e+01   8.841835e+01
  -1.466574e+02  -2.208478e+01
  -1.285016e+02  -1.738758e+02
  -2.180888e+01  -2.494400e+02
   1.161067e+02  -1.768278e+02
   1.849229e+02  -2.031699e+00
   1.299431e+02   1.462342e+02
   3.430983e-01   1.695959e+02
  -8.953499e+01   8.003250e+01
  -7.029533e+01  -2.612292e+01
   9.871453e+00  -6.642959e+01
   3.971963e+01  -4.113913e+01
  -2.326252e+01  -1.072386e+01
  -9.369400e+01  -1.779675e+01
  -5.648749e+01  -4.513951e+01
   8.643389e+01  -4.362988e+01
   1.998737e+02   8.833170e+00
   1.581356e+02   8.065561e+01
  -1.185760e+01   1.142265e+02
  -1.580685e+02   7.826200e+01
  -1.609845e+02  -2.384113e+00
  -4.579621e+01  -6.253778e+01
   6.623766e+01  -5.071534e+01
   8.610210e+01   2.161251e+01
   2.507315e+01   8.446477e+01
  -4.660253e+01   7.503205e+01
  -7.762601e+01   2.190208e+00
  -6.897696e+01  -5.821720e+01
  -5.381834e+01  -4.945048e+01
  -5.706572e+01  -2.121081e+00
  -7.014696e+01  -2.039010e+00
  -5.195279e+01  -8.269250e+01
   2.983616e+01  -1.707739e+02
   1.463737e+02  -1.602292e+02
   2.080820e+02  -3.309019e+01
   1.457175e+02   1.094129e+02
  -3.109041e+00   1.509551e+02
  -1.068516e+02   7.890063e+01
  -6.952708e+01  -1.074281e+01
   6.347846e+01  -2.180137e+01
   1.432105e+02   4.826125e+01
   7.110369e+01   1.190309e+02
  -9.685089e+01   1.158287e+02
  -2.074196e+02   3.758636e+01
  -1.670707e+02  -5.446348e+01
  -2.723030e+01  -9.389165e+01
   7.401465e+01  -6.023881e+01
   5.331357e+01   6.959427e+00
  -4.520345e+01   3.477370e+01
  -1.019547e+02  -2.186427e+01
  -4.482980e+01  -1.254066e+02
   8.343525e+01  -1.698206e+02
   1.688586e+02  -7.928855e+01
   1.368283e+02   9.665684e+01
   1.735600e+01   2.080624e+02
  -9.104317e+01   1.510809e+02
  -1.137609e+02  -1.712097e+01
  -5.490617e+01  -1.351161e+02
   2.312043e+01  -1.117612e+02
   6.062189e+01  -1.267017e+01
   4.626888e+01   3.694688e+01
   1.426584e+01   7.964228e+00
   8.295312e+00  -1.712928e+01
   3.786056e+01   2.764760e+01
   6.198232e+01   1.015820e+02
   2.720396e+01   1.138272e+02
  -6.698554e+01   4.294655e+01
  -1.461632e+02  -4.360961e+01
  -1.288169e+02  -7.825375e+01
  -1.932349e+01  -6.061365e+01
   8.486675e+01  -2.870309e+01
   9.434579e+01  -3.722506e+00
   2.343254e+01   1.498789e+01
  -3.468394e+01   2.254334e+01
  -2.370329e+01   1.160844e+01
   1.303997e+01  -4.654987e+00
  -1.074083e+00  -4.117538e+00
  -6.812868e+01   2.950623e+00
  -1.022296e+02  -2.272146e+01
  -3.060446e+01  -8.759489e+01
   1.119179e+02  -1.291099e+02
   2.077069e+02  -7.529213e+01
   1.728690e+02   6.018537e+01
   3.729846e+01   1.729280e+02
  -9.117998e+01   1.725681e+02
  -1.307152e+02   7.522763e+01
  -8.823662e+01  -2.083754e+01
  -2.924777e+01  -4.398273e+01
  -5.429161e+00  -1.684811e+01
  -1.736087e+01  -1.156039e+01
  -3.082031e+01  -5.594353e+01
  -1.512611e+01  -1.008786e+02
   3.287164e+01  -7.840010e+01
   8.328692e+01   1.561166e+01
   8.696809e+01   1.083027e+02
   1.953600e+01   1.191648e+02
  -7.768278e+01   3.779017e+01
  -1.159884e+02  -6.700217e+01
  -4.701149e+01  -1.131229e+02
   6.981237e+01  -7.480147e+01
   1.179136e+02   6.830262e+00
   5.384684e+01   6.800901e+01
  -3.883011e+01   7.310103e+01
  -4.892715e+01   3.326136e+01
   2.512577e+01  -8.103960e+00
   7.499429e+01  -9.641224e+00
   2.157110e+01   3.189896e+01
  -8.772789e+01   7.167498e+01
  -1.378973e+02   5.464218e+01
  -8.268754e+01  -2.211191e+01
   1.455060e+01  -9.485253e+01
   6.704639e+01  -9.308662e+01
   5.282544e+01  -1.777213e+01
   9.476781e+00   5.521749e+01
  -2.546197e+01   5.487789e+01
  -4.006459e+01  -8.257827e+00
  -3.139079e+01  -6.000312e+01
   5.670813e-01  -4.784099e+01
   3.769317e+01   3.668734e+00
   4.804508e+01   3.072644e+01
   2.352600e+01   8.345384e+00
  -6.136331e+00  -2.373326e+01
  -7.944291e+00  -1.433137e+01
   9.458644e+00   3.259428e+01
   6.605759e+00   6.129566e+01
  -2.708982e+01   3.073777e+01
  -5.116671e+01  -3.352983e+01
  -2.236812e+01  -6.542241e+01
   4.234579e+01  -3.152947e+01
   7.298170e+01   3.285376e+01
   2.513805e+01   6.503489e+01
  -6.307136e+01   4.093905e+01
  -1.043618e+02  -1.030001e+01
  -5.650743e+01  -4.677518e+01
   3.135295e+01  -5.187874e+01
   7.196787e+01  -3.387620e+01
   3.414853e+01  -8.611831e+00
  -2.645706e+01   6.664647e+00
  -3.456589e+01  -1.583047e+00
   2.113792e+01  -2.359205e+01
   7.842574e+01  -2.298762e+01
