
 $NMID
 id='ANONYMOUS ', fmtdat='(2E16.6)'
 volume=1.0
 tramp=1.0
 $END
   3.227363e+03   3.877957e+01
   2.345129e+03   1.757054e+03
  -6.632082e+01   2.023428e+03
  -1.279370e+03   1.336661e+03
  -1.010692e+03   3.178206e+02
   5.672017e+01  -1.143398e+02
   3.694334e+02   1.105267e+02
   1.947684e+01   5.405870e+02
  -4.527744e+02   6.348555e+02
  -7.143021e+02   1.514519e+02
  -4.421788e+02  -5.452093e+02
  -1.278318e+01  -6.811025e+02
   3.052183e+02  -2.093876e+02
   2.953380e+02   4.495349e+02
  -1.556277e+02   5.975017e+02
  -4.305187e+02   9.989804e+01
  -2.527258e+02  -5.366936e+02
   1.605093e+02  -5.956340e+02
   5.062879e+02  -2.704524e+02
   4.297753e+02   1.725425e+02
   1.325972e+02   3.330492e+02
  -1.538694e+02   2.268772e+02
  -6.890350e+01   6.941729e+01
   1.812803e+02   7.303818e+01
   3.123451e+02   2.513009e+02
   6.910702e+01   3.491945e+02
  -4.520070e+02   1.791459e+02
  -6.331003e+02  -1.515631e+02
  -2.455533e+02  -3.742251e+02
   3.344652e+02  -2.668151e+02
   5.362917e+02   1.122487e+02
   2.089354e+02   3.811110e+02
  -2.616936e+02   3.761135e+02
  -4.686642e+02   1.479760e+02
  -3.349997e+02  -1.536096e+02
  -8.640943e+01  -3.267220e+02
   5.581339e+01  -2.077753e+02
  -1.209972e+01   1.100648e+02
  -1.816276e+02   2.086483e+02
  -2.460547e+02  -1.156582e+02
  -4.751640e+01  -5.183675e+02
   2.845916e+02  -4.722652e+02
   3.776802e+02   3.935111e+00
   1.378036e+02   3.527942e+02
  -1.892949e+02   1.732759e+02
  -2.220411e+02  -2.796207e+02
   9.851016e+01  -4.284337e+02
   4.660955e+02  -9.143649e+01
   5.114728e+02   3.559591e+02
   1.756639e+02   5.050325e+02
  -2.969580e+02   2.882538e+02
  -5.399122e+02  -5.019755e+01
  -3.583597e+02  -2.637590e+02
   5.712247e+01  -2.514604e+02
   3.108525e+02  -9.241144e+01
   2.184934e+02   4.142020e+01
  -1.235949e+01   3.377129e+01
  -5.926236e+01  -5.929347e+01
   1.152990e+02  -7.779335e+01
   2.482076e+02   4.064853e+01
   1.311546e+02   1.958546e+02
  -1.475683e+02   2.510658e+02
  -3.308958e+02   1.509853e+02
  -2.645104e+02  -7.153541e+01
  -3.492120e+00  -3.075962e+02
   2.663969e+02  -3.855248e+02
   3.672512e+02  -1.928817e+02
   2.544584e+02   1.564178e+02
   5.520430e+01   3.803273e+02
  -5.241358e+01   3.278323e+02
  -3.321464e+01   1.491242e+02
  -1.747319e+01   7.658659e+01
  -1.107583e+02   1.171601e+02
  -2.425684e+02   8.292379e+01
  -2.590969e+02  -9.804078e+01
  -1.147005e+02  -2.580035e+02
   8.645565e+01  -2.100850e+02
   2.047568e+02   2.216142e+01
   1.577818e+02   2.359634e+02
  -3.214026e+01   2.602627e+02
  -2.478784e+02   8.355915e+01
  -3.218148e+02  -1.553537e+02
  -1.792012e+02  -3.013950e+02
   5.165933e+01  -2.737123e+02
   1.721515e+02  -1.529868e+02
   1.437190e+02  -6.906724e+01
   1.384363e+02  -6.773166e+01
   2.667630e+02  -4.993106e+01
   4.065262e+02   7.741183e+01
   3.259312e+02   2.815618e+02
  -9.068239e+00   4.335792e+02
  -3.587596e+02   4.055978e+02
  -4.669311e+02   1.904668e+02
  -2.963936e+02  -8.930502e+01
  -3.287836e+01  -2.527784e+02
   9.272829e+01  -2.036793e+02
   2.002075e+01  -3.248268e+01
  -1.172580e+02   5.558868e+01
  -1.432117e+02  -3.069648e+01
  -1.773544e+01  -1.520502e+02
   1.246508e+02  -1.184847e+02
   1.277509e+02   5.361286e+01
  -1.874840e+01   1.457265e+02
  -1.659439e+02   1.606948e+01
  -1.642831e+02  -2.250122e+02
   4.835712e+00  -3.392979e+02
   2.268175e+02  -2.132575e+02
   3.506159e+02   4.588324e+01
   2.877994e+02   2.455179e+02
   7.762992e+01   2.691320e+02
  -1.204761e+02   1.475555e+02
  -1.554972e+02   1.424731e+01
  -4.148942e+01  -1.363166e+01
   5.416371e+01   5.757431e+01
   4.454547e+00   1.147524e+02
  -1.223741e+02   7.346982e+01
  -1.539171e+02  -2.192296e+01
  -3.855234e+01  -5.820067e+01
   8.335060e+01   3.309425e+00
   4.749855e+01   8.538475e+01
  -1.375267e+02   8.903477e+01
  -2.946779e+02  -1.018522e+01
  -2.583397e+02  -1.546529e+02
  -3.645941e+01  -2.542210e+02
   1.977012e+02  -2.368699e+02
   2.637945e+02  -1.050329e+02
   1.386046e+02   4.276847e+01
  -2.970214e+01   8.214405e+01
  -6.904245e+01  -2.229840e+00
   4.728808e+01  -8.588016e+01
   1.840223e+02  -4.362843e+01
   1.943259e+02   9.655155e+01
   6.531434e+01   1.879967e+02
  -8.303471e+01   1.405275e+02
  -1.265008e+02   2.101217e+01
  -5.099180e+01  -3.651987e+01
   4.132002e+01   1.712053e+01
   3.361211e+01   1.064502e+02
  -8.826372e+01   1.201983e+02
  -2.073038e+02   2.041167e+01
  -1.865497e+02  -1.264232e+02
  -1.869226e+01  -2.060898e+02
   1.505721e+02  -1.550638e+02
   1.747616e+02  -1.715167e+01
   5.964733e+01   9.312233e+01
  -5.784768e+01   9.979958e+01
  -7.034784e+01   2.931790e+01
  -5.643773e+00  -2.494167e+01
   3.417867e+01  -1.384328e+01
  -6.756140e+00   2.217147e+01
  -8.321377e+01   4.351725e+00
  -1.044708e+02  -8.471054e+01
  -1.759155e+01  -1.713284e+02
   1.345188e+02  -1.570462e+02
   2.353283e+02  -1.886413e+01
   1.966725e+02   1.514389e+02
   4.466537e+01   2.267734e+02
  -9.651730e+01   1.628013e+02
  -1.280497e+02   3.606211e+01
  -7.601442e+01  -4.126167e+01
  -3.633028e+01  -2.924712e+01
  -5.532721e+01   1.418949e+01
  -8.483119e+01   9.323081e+00
  -5.561089e+01  -5.296904e+01
   3.424269e+01  -1.038998e+02
   1.149893e+02  -7.097198e+01
   1.050265e+02   3.747375e+01
  -1.093026e+01   1.256651e+02
  -1.550153e+02   9.304126e+01
  -2.035945e+02  -5.862234e+01
  -9.179263e+01  -2.075393e+02
   1.151525e+02  -2.229521e+02
   2.620772e+02  -8.837194e+01
   2.449787e+02   8.233170e+01
   1.028367e+02   1.636898e+02
  -3.536504e+01   1.367180e+02
  -8.491942e+01   8.146756e+01
  -6.709347e+01   7.133304e+01
  -5.560480e+01   9.543607e+01
  -8.744161e+01   8.207219e+01
  -1.308694e+02  -1.363458e+01
  -1.228981e+02  -1.489380e+02
  -3.368031e+01  -2.226720e+02
   9.365946e+01  -1.679569e+02
   1.681611e+02  -1.708072e+01
   1.297810e+02   1.207749e+02
   1.509136e+01   1.534243e+02
  -7.096103e+01   8.324803e+01
  -6.247204e+01  -9.726348e+00
   6.292380e-01  -5.195934e+01
   2.353610e+01  -3.745106e+01
  -2.790728e+01  -1.218062e+01
  -8.367530e+01  -1.450653e+01
  -5.106108e+01  -3.691634e+01
   6.974795e+01  -4.221061e+01
   1.717113e+02  -6.020493e+00
   1.471787e+02   5.618178e+01
   5.453500e+00   9.726965e+01
  -1.298958e+02   7.942973e+01
  -1.450724e+02   1.255747e+01
  -4.640490e+01  -4.681525e+01
   5.834422e+01  -4.472753e+01
   7.858565e+01   1.521394e+01
   2.127304e+01   7.185206e+01
  -4.422979e+01   6.708457e+01
  -6.876671e+01   6.301639e+00
  -5.983933e+01  -4.602007e+01
  -5.047480e+01  -4.059422e+01
  -5.679925e+01  -1.053555e+00
  -6.534138e+01  -3.083391e-01
  -4.665727e+01  -7.080255e+01
   2.149000e+01  -1.528121e+02
   1.184093e+02  -1.506766e+02
   1.766360e+02  -4.208054e+01
   1.329465e+02   8.782518e+01
   8.855300e+00   1.321211e+02
  -8.680859e+01   7.299258e+01
  -6.119240e+01  -7.855756e+00
   5.640491e+01  -2.299551e+01
   1.336249e+02   3.575523e+01
   7.418751e+01   1.029438e+02
  -7.799898e+01   1.124602e+02
  -1.862342e+02   5.187650e+01
  -1.581829e+02  -3.430444e+01
  -3.463033e+01  -8.407429e+01
   6.219707e+01  -6.430677e+01
   4.992645e+01  -2.094724e+00
  -3.747069e+01   3.113438e+01
  -9.245414e+01  -1.619540e+01
  -4.386221e+01  -1.121632e+02
   7.305338e+01  -1.557182e+02
   1.541406e+02  -7.497407e+01
   1.294370e+02   8.482247e+01
   2.431227e+01   1.889228e+02
  -7.488282e+01   1.430421e+02
  -1.032095e+02  -5.427345e+00
  -6.028939e+01  -1.159378e+02
   7.147286e+00  -1.028409e+02
   4.964908e+01  -1.701466e+01
   4.687851e+01   3.109934e+01
   1.805766e+01   7.607470e+00
   5.114354e+00  -1.815547e+01
   2.971980e+01   1.829031e+01
   5.991187e+01   8.591508e+01
   3.622831e+01   1.026505e+02
  -5.239706e+01   4.433008e+01
  -1.347159e+02  -3.129463e+01
  -1.236389e+02  -6.290480e+01
  -2.038832e+01  -5.034612e+01
   7.803247e+01  -2.795046e+01
   8.440595e+01  -1.013255e+01
   1.688004e+01   9.174448e+00
  -3.310383e+01   2.229655e+01
  -1.807712e+01   1.457274e+01
   1.507736e+01  -3.841968e+00
  -2.936352e+00  -6.186027e+00
  -6.534328e+01   2.351858e+00
  -9.156873e+01  -1.802669e+01
  -2.313692e+01  -7.815405e+01
   1.019713e+02  -1.194369e+02
   1.827624e+02  -7.212380e+01
   1.526913e+02   5.199189e+01
   3.876357e+01   1.559353e+02
  -7.212718e+01   1.567420e+02
  -1.119987e+02   7.068814e+01
  -8.050639e+01  -1.406351e+01
  -2.815601e+01  -3.533345e+01
  -3.297050e+00  -1.223685e+01
  -1.456242e+01  -7.239610e+00
  -3.249797e+01  -4.667201e+01
  -2.196334e+01  -8.862671e+01
   2.531826e+01  -7.153178e+01
   7.708961e+01   1.222357e+01
   8.189118e+01   9.728596e+01
   1.755357e+01   1.076722e+02
  -7.290015e+01   3.321188e+01
  -1.070067e+02  -6.090940e+01
  -4.426075e+01  -9.982912e+01
   6.024095e+01  -6.552249e+01
   1.033998e+02   3.145916e+00
   4.855048e+01   5.436105e+01
  -3.085478e+01   6.172184e+01
  -3.890720e+01   3.106256e+01
   2.483369e+01  -6.070832e+00
   6.705560e+01  -1.166343e+01
   1.941199e+01   2.536513e+01
  -7.470308e+01   6.771723e+01
  -1.173645e+02   5.806156e+01
  -7.076504e+01  -1.319500e+01
   1.009333e+01  -8.425590e+01
   5.325335e+01  -8.437591e+01
   4.243322e+01  -1.418810e+01
   7.960386e+00   5.090745e+01
  -2.152847e+01   4.734736e+01
  -3.639346e+01  -9.884258e+00
  -3.011630e+01  -5.206456e+01
  -9.606596e-01  -3.891926e+01
   3.314918e+01   3.014430e+00
   4.294873e+01   2.195787e+01
   2.172707e+01   3.026138e+00
  -3.652001e+00  -1.875694e+01
  -6.969891e+00  -6.613684e+00
   3.950298e+00   3.161539e+01
   1.678916e-02   5.097593e+01
  -2.512823e+01   2.164888e+01
  -4.022439e+01  -3.265284e+01
  -1.427676e+01  -5.742868e+01
   3.817468e+01  -2.654874e+01
   6.240961e+01   2.970562e+01
   2.179831e+01   5.810458e+01
  -5.401764e+01   3.813079e+01
  -9.195141e+01  -6.381363e+00
  -5.201341e+01  -3.960605e+01
   2.590649e+01  -4.550639e+01
   6.249052e+01  -3.044605e+01
   2.704248e+01  -8.659081e+00
  -2.906312e+01   3.431774e+00
  -3.346553e+01  -6.083534e+00
   2.277947e+01  -2.644457e+01
   7.759152e+01  -2.388041e+01
