
 $NMID
 id='ANONYMOUS ', fmtdat='(2E16.6)'
 volume=1.0
 tramp=1.0
 $END
   3.990598e+03  -8.421921e+01
   2.433765e+03   2.222074e+03
  -3.461478e+02   2.375413e+03
  -1.596039e+03   7.902500e+02
  -1.029054e+03  -1.725632e+02
   2.139495e+02  -4.090660e+02
   7.007952e+02   2.284014e+02
  -3.063193e+00   7.775001e+02
  -6.729895e+02   6.787155e+02
  -8.031946e+02  -8.386936e+00
  -4.170295e+02  -5.640087e+02
   1.025348e+02  -6.751198e+02
   4.413246e+02  -2.242438e+02
   3.075179e+02   5.137263e+02
  -1.504518e+02   6.446870e+02
  -4.334913e+02   3.879629e+01
  -2.453335e+02  -5.419856e+02
   2.013013e+02  -5.574446e+02
   5.010112e+02  -2.073543e+02
   3.979788e+02   2.516571e+02
   6.006989e+01   3.558393e+02
  -1.756409e+02   2.374271e+02
  -1.416146e+02   5.479712e+01
   1.332053e+02   3.905407e+01
   3.540325e+02   1.782860e+02
   1.051827e+02   3.604164e+02
  -4.372627e+02   2.750028e+02
  -7.158446e+02  -1.084183e+02
  -3.623530e+02  -4.251453e+02
   3.067811e+02  -3.472448e+02
   5.834736e+02   5.545570e+01
   2.675211e+02   3.957081e+02
  -2.482578e+02   4.138624e+02
  -4.906810e+02   1.830159e+02
  -3.554088e+02  -1.753493e+02
  -7.292797e+01  -3.758184e+02
   1.234380e+02  -2.362443e+02
   7.257731e+01   1.449528e+02
  -1.790694e+02   3.039218e+02
  -3.183973e+02  -6.326553e+01
  -1.301456e+02  -5.636574e+02
   2.740516e+02  -5.479847e+02
   4.559119e+02  -1.521627e+01
   1.978660e+02   4.289183e+02
  -2.175041e+02   2.314850e+02
  -2.945948e+02  -2.763103e+02
   5.961105e+01  -4.628272e+02
   4.825110e+02  -1.074087e+02
   5.407542e+02   3.666799e+02
   1.749048e+02   5.196494e+02
  -3.234165e+02   3.039592e+02
  -5.567779e+02  -5.719770e+01
  -3.498008e+02  -3.079474e+02
   9.869803e+01  -2.911314e+02
   3.562562e+02  -6.335966e+01
   2.176883e+02   1.181301e+02
  -5.955925e+01   6.714155e+01
  -9.715395e+01  -1.076713e+02
   1.269426e+02  -1.349411e+02
   2.790212e+02   4.849496e+01
   1.346598e+02   2.353331e+02
  -1.576290e+02   2.437872e+02
  -3.074864e+02   1.037782e+02
  -2.141810e+02  -7.745264e+01
   1.379482e+01  -2.459152e+02
   2.297390e+02  -3.238041e+02
   3.269626e+02  -1.882593e+02
   2.515974e+02   1.310905e+02
   6.314971e+01   3.743017e+02
  -7.596288e+01   3.350745e+02
  -7.183191e+01   1.306520e+02
  -2.139519e+01   3.434323e+01
  -7.199635e+01   9.211452e+01
  -2.015258e+02   9.549221e+01
  -2.489656e+02  -6.853909e+01
  -1.295360e+02  -2.449125e+02
   7.025503e+01  -2.210610e+02
   1.975931e+02   3.911874e+00
   1.645660e+02   2.240046e+02
  -1.631314e+01   2.584273e+02
  -2.349300e+02   9.127847e+01
  -3.134866e+02  -1.525048e+02
  -1.677966e+02  -3.042903e+02
   7.095197e+01  -2.664817e+02
   1.813615e+02  -1.236530e+02
   1.306823e+02  -3.122184e+01
   1.028013e+02  -4.460219e+01
   2.315314e+02  -5.216014e+01
   3.778415e+02   5.695635e+01
   3.069841e+02   2.589653e+02
  -7.620077e+00   4.044245e+02
  -3.411178e+02   3.793868e+02
  -4.490399e+02   1.807298e+02
  -2.930251e+02  -8.829923e+01
  -3.590402e+01  -2.576543e+02
   1.098201e+02  -2.140188e+02
   5.158659e+01  -2.820181e+01
  -1.023449e+02   7.821050e+01
  -1.592477e+02  -1.668832e+01
  -3.534062e+01  -1.642259e+02
   1.315448e+02  -1.386146e+02
   1.449072e+02   5.096877e+01
  -1.168514e+01   1.590887e+02
  -1.663856e+02   2.399375e+01
  -1.541667e+02  -2.202238e+02
   1.691278e+01  -3.224472e+02
   2.142278e+02  -1.912011e+02
   3.187709e+02   4.990724e+01
   2.652740e+02   2.291779e+02
   8.038601e+01   2.541020e+02
  -1.104111e+02   1.472198e+02
  -1.565232e+02   1.634293e+01
  -4.834423e+01  -2.280145e+01
   5.557765e+01   4.531887e+01
   1.265803e+01   1.140423e+02
  -1.181372e+02   8.062390e+01
  -1.571310e+02  -1.917243e+01
  -4.538060e+01  -6.531225e+01
   7.896610e+01  -1.017907e+01
   5.351134e+01   7.246020e+01
  -1.155458e+02   8.461741e+01
  -2.655882e+02   2.140498e+00
  -2.458661e+02  -1.290711e+02
  -5.182786e+01  -2.333844e+02
   1.726853e+02  -2.344989e+02
   2.546919e+02  -1.122069e+02
   1.462739e+02   4.302324e+01
  -2.434444e+01   9.242229e+01
  -7.673288e+01   5.827807e+00
   3.428557e+01  -8.726876e+01
   1.757061e+02  -4.995795e+01
   1.902434e+02   9.189941e+01
   6.251946e+01   1.857741e+02
  -8.447814e+01   1.416895e+02
  -1.291462e+02   2.446860e+01
  -5.901135e+01  -3.903601e+01
   3.183592e+01   1.154159e+00
   3.409099e+01   8.424143e+01
  -7.266652e+01   1.092173e+02
  -1.875133e+02   2.661588e+01
  -1.757368e+02  -1.149949e+02
  -1.836797e+01  -2.001458e+02
   1.475358e+02  -1.512565e+02
   1.727031e+02  -1.009453e+01
   5.851692e+01   9.993096e+01
  -5.909513e+01   9.981071e+01
  -7.353750e+01   2.679318e+01
  -1.228767e+01  -2.497845e+01
   2.658031e+01  -1.531016e+01
  -5.523378e+00   1.401989e+01
  -7.076994e+01  -1.606168e+00
  -9.146416e+01  -7.595068e+01
  -1.917633e+01  -1.515816e+02
   1.179930e+02  -1.436918e+02
   2.181728e+02  -2.276323e+01
   1.867529e+02   1.377059e+02
   3.999038e+01   2.154155e+02
  -9.793167e+01   1.550898e+02
  -1.252860e+02   2.859868e+01
  -6.780222e+01  -4.739288e+01
  -2.826985e+01  -3.188922e+01
  -4.829362e+01   1.259540e+01
  -7.623510e+01   8.838354e+00
  -4.617782e+01  -4.648384e+01
   3.510585e+01  -9.024421e+01
   1.013165e+02  -6.082357e+01
   8.993978e+01   3.270806e+01
  -9.279338e+00   1.100416e+02
  -1.367919e+02   8.601615e+01
  -1.861244e+02  -4.671555e+01
  -9.120960e+01  -1.871159e+02
   1.011049e+02  -2.095857e+02
   2.439604e+02  -8.714800e+01
   2.326364e+02   7.757593e+01
   9.697497e+01   1.596166e+02
  -3.695107e+01   1.328381e+02
  -8.600705e+01   7.539895e+01
  -6.959306e+01   6.185751e+01
  -5.565789e+01   8.268151e+01
  -8.090702e+01   7.033347e+01
  -1.189141e+02  -1.600821e+01
  -1.121296e+02  -1.397819e+02
  -3.040606e+01  -2.094866e+02
   8.981518e+01  -1.606378e+02
   1.612981e+02  -1.888698e+01
   1.254497e+02   1.137290e+02
   1.692161e+01   1.476283e+02
  -6.438288e+01   8.248691e+01
  -5.741975e+01  -5.353140e+00
  -2.306151e+00  -4.541751e+01
   1.606048e+01  -3.332580e+01
  -2.870519e+01  -1.211580e+01
  -7.483896e+01  -1.470591e+01
  -4.510317e+01  -3.325314e+01
   5.970642e+01  -3.686420e+01
   1.505604e+02  -5.922149e+00
   1.338412e+02   4.784917e+01
   1.031480e+01   8.548118e+01
  -1.149203e+02   7.167476e+01
  -1.340096e+02   1.282290e+01
  -4.409844e+01  -4.077189e+01
   5.462506e+01  -3.912761e+01
   7.161558e+01   1.488753e+01
   1.347670e+01   6.519625e+01
  -4.670585e+01   5.874856e+01
  -6.134052e+01   1.782814e+00
  -4.794145e+01  -4.613761e+01
  -4.248831e+01  -3.960533e+01
  -5.304967e+01  -1.521535e+00
  -5.934425e+01   7.372289e-01
  -3.741782e+01  -6.288614e+01
   2.478742e+01  -1.375850e+02
   1.083088e+02  -1.345392e+02
   1.577132e+02  -3.364259e+01
   1.187502e+02   8.403682e+01
   6.729360e+00   1.201364e+02
  -8.133265e+01   6.246227e+01
  -5.772627e+01  -1.065034e+01
   5.200678e+01  -2.069861e+01
   1.248304e+02   3.514072e+01
   6.967374e+01   9.559439e+01
  -7.222081e+01   1.031664e+02
  -1.728858e+02   4.861041e+01
  -1.474383e+02  -3.002535e+01
  -3.339868e+01  -7.801588e+01
   5.564112e+01  -6.260930e+01
   4.411990e+01  -5.212819e+00
  -3.633963e+01   2.663636e+01
  -8.490172e+01  -1.736614e+01
  -3.525183e+01  -1.066509e+02
   7.602587e+01  -1.444280e+02
   1.485762e+02  -6.526231e+01
   1.183662e+02   8.468482e+01
   1.641704e+01   1.787739e+02
  -7.390692e+01   1.335048e+02
  -9.622505e+01  -5.309945e+00
  -5.629996e+01  -1.085527e+02
   3.686331e+00  -9.749425e+01
   4.423057e+01  -1.790638e+01
   4.620737e+01   2.835233e+01
   2.110822e+01   7.815672e+00
   4.204131e+00  -1.731387e+01
   2.282728e+01   1.573486e+01
   5.290604e+01   8.035429e+01
   3.557902e+01   9.774095e+01
  -4.661869e+01   4.147810e+01
  -1.268221e+02  -3.297526e+01
  -1.176803e+02  -6.314199e+01
  -1.710088e+01  -4.797316e+01
   7.791439e+01  -2.444853e+01
   8.093836e+01  -8.526078e+00
   1.341436e+01   8.029578e+00
  -3.289399e+01   2.119640e+01
  -1.467657e+01   1.599314e+01
   1.657539e+01  -1.736449e+00
  -4.996722e+00  -7.043649e+00
  -6.565252e+01  -1.669451e+00
  -8.494146e+01  -2.064909e+01
  -1.400775e+01  -7.387838e+01
   1.026454e+02  -1.082208e+02
   1.705577e+02  -6.062223e+01
   1.359243e+02   5.455574e+01
   2.976208e+01   1.469954e+02
  -6.978968e+01   1.422754e+02
  -1.047277e+02   5.996097e+01
  -7.470017e+01  -1.756197e+01
  -2.441900e+01  -3.434130e+01
   3.507572e-01  -1.067504e+01
  -1.049466e+01  -5.500662e+00
  -2.945780e+01  -4.276400e+01
  -1.980432e+01  -8.256783e+01
   2.647362e+01  -6.595608e+01
   7.464967e+01   1.496670e+01
   7.434144e+01   9.600910e+01
   9.759292e+00   1.023625e+02
  -7.281078e+01   2.675910e+01
  -9.760221e+01  -6.273060e+01
  -3.517676e+01  -9.358337e+01
   5.891041e+01  -5.589584e+01
   9.307783e+01   6.561223e+00
   4.042625e+01   4.816815e+01
  -2.910430e+01   5.255354e+01
  -3.166368e+01   2.804436e+01
   2.789518e+01  -2.213079e+00
   6.271371e+01  -8.125966e+00
   1.514047e+01   2.365092e+01
  -7.158411e+01   6.221406e+01
  -1.074557e+02   5.440152e+01
  -6.201796e+01  -1.142058e+01
   1.219087e+01  -7.764841e+01
   4.937743e+01  -7.569765e+01
   3.698139e+01  -8.534113e+00
   3.876845e+00   5.067726e+01
  -2.332875e+01   4.227125e+01
  -3.493210e+01  -1.364895e+01
  -2.616621e+01  -5.071720e+01
   2.216433e+00  -3.446210e+01
   3.237631e+01   5.300611e+00
   3.887565e+01   2.102761e+01
   1.950706e+01   3.162151e+00
  -2.635195e+00  -1.440314e+01
  -6.792836e+00  -1.166690e+00
  -1.812970e+00   3.211764e+01
  -8.428087e+00   4.458153e+01
  -2.721470e+01   1.337151e+01
  -3.310603e+01  -3.674215e+01
  -5.702424e+00  -5.581223e+01
   3.846784e+01  -2.271846e+01
   5.508346e+01   3.171896e+01
   1.681510e+01   5.646464e+01
  -5.016363e+01   3.375560e+01
  -8.342393e+01  -9.978463e+00
  -4.667477e+01  -3.899100e+01
   2.517772e+01  -4.056519e+01
   5.869319e+01  -2.435374e+01
   2.356457e+01  -6.138901e+00
  -3.049301e+01   7.719042e-01
  -3.255200e+01  -1.000689e+01
   2.533296e+01  -2.699668e+01
   7.869624e+01  -2.009232e+01
