
 $NMID
 id='ANONYMOUS ', fmtdat='(2E16.6)'
 volume=1.0
 tramp=1.0
 $END
   2.265346e+03   5.899792e+01
   1.503419e+03   1.111866e+03
   3.529629e+02   1.385046e+03
  -6.746385e+02   1.170004e+03
  -6.512507e+02   2.759610e+02
  -1.836441e+02   3.986452e+01
   8.085003e+01   8.508289e+01
   2.204085e+01   3.501647e+02
  -2.545902e+02   4.054353e+02
  -3.878881e+02   7.193757e+01
  -3.146501e+02  -3.133105e+02
  -1.082927e+02  -4.138490e+02
   1.070458e+02  -1.616809e+02
   1.416927e+02   2.148686e+02
  -8.393940e+01   3.920526e+02
  -2.541022e+02   9.195945e+01
  -2.830996e+02  -2.898899e+02
   2.033861e+01  -4.642159e+02
   3.068086e+02  -3.114225e+02
   3.290450e+02   6.544325e+01
   1.384406e+02   2.327216e+02
  -2.689624e+01   2.110650e+02
   3.913068e+01   1.010892e+02
   1.888179e+02   1.303490e+02
   1.840240e+02   2.237611e+02
  -9.189147e+01   2.379927e+02
  -3.398549e+02   7.842035e+01
  -3.666243e+02  -1.249897e+02
  -1.058275e+02  -2.004579e+02
   2.192648e+02  -7.512182e+01
   2.977831e+02   9.951020e+01
   1.046079e+02   2.475564e+02
  -1.740355e+02   2.264723e+02
  -3.000997e+02   1.019477e+02
  -2.157885e+02  -9.752655e+01
  -8.392598e+01  -2.031444e+02
  -3.614877e+01  -1.307851e+02
  -7.969658e+01   3.783027e+01
  -1.285548e+02   7.049070e+01
  -6.427141e+01  -1.025525e+02
   5.097774e+01  -3.086099e+02
   1.570981e+02  -2.757164e+02
   1.557967e+02  -2.595448e+01
   5.234726e+01   1.657342e+02
  -7.008764e+01   6.061318e+01
  -7.155596e+01  -1.802822e+02
   9.794475e+01  -2.613004e+02
   3.063166e+02  -3.057346e+01
   3.490839e+02   2.690377e+02
   1.284569e+02   3.520879e+02
  -1.846628e+02   1.932833e+02
  -3.522926e+02  -2.400687e+01
  -2.599152e+02  -1.308037e+02
  -1.937790e+01  -1.237887e+02
   1.562821e+02  -8.016590e+01
   1.565521e+02  -4.391092e+01
   5.362430e+01  -1.765222e+01
  -3.732943e+00  -6.124891e+00
   4.966083e+01  -6.283371e+00
   1.284391e+02   2.182434e+01
   9.075424e+01   1.065562e+02
  -8.610951e+01   1.852018e+02
  -2.526737e+02   1.374263e+02
  -2.275222e+02  -6.702613e+01
  -2.694408e+00  -2.829616e+02
   2.302772e+02  -3.140607e+02
   2.851060e+02  -1.207273e+02
   1.705009e+02   1.321468e+02
   4.645411e+01   2.542179e+02
   1.535532e+01   2.179728e+02
   2.352005e+01   1.421338e+02
  -2.753594e+01   1.182006e+02
  -1.365744e+02   1.082349e+02
  -2.062159e+02   3.042114e+01
  -1.685453e+02  -1.059014e+02
  -4.902836e+01  -1.879663e+02
   7.206736e+01  -1.252830e+02
   1.273655e+02   4.238290e+01
   8.577132e+01   1.791054e+02
  -3.663316e+01   1.728007e+02
  -1.731594e+02   4.155567e+01
  -2.192475e+02  -1.133689e+02
  -1.356372e+02  -1.962589e+02
   9.160730e+00  -1.844901e+02
   9.673333e+01  -1.343651e+02
   1.031250e+02  -9.343306e+01
   1.209553e+02  -7.482276e+01
   2.210265e+02  -3.315427e+01
   3.188548e+02   6.958000e+01
   2.520310e+02   2.213250e+02
  -7.929924e+00   3.281935e+02
  -2.817446e+02   3.022009e+02
  -3.544330e+02   1.345535e+02
  -2.025682e+02  -6.946305e+01
  -1.143414e+01  -1.719305e+02
   5.173115e+01  -1.322582e+02
  -1.896571e+01  -3.469949e+01
  -8.900485e+01   5.121994e+00
  -7.164139e+01  -3.972132e+01
   1.234838e+01  -8.576326e+01
   7.655171e+01  -5.356914e+01
   6.345014e+01   3.694874e+01
  -2.218013e+01   8.050855e+01
  -1.128251e+02  -3.385979e+00
  -1.217721e+02  -1.601210e+02
  -5.313197e+00  -2.509880e+02
   1.757617e+02  -1.739555e+02
   2.837632e+02   2.493437e+01
   2.228381e+02   1.921890e+02
   4.449658e+01   2.108067e+02
  -9.958307e+01   1.059575e+02
  -1.035744e+02   4.754433e+00
  -1.417262e+01  -3.774576e+00
   3.823730e+01   5.439745e+01
  -1.055992e+01   8.510494e+01
  -9.452823e+01   4.488229e+01
  -1.037763e+02  -2.011181e+01
  -1.775518e+01  -3.603229e+01
   6.314218e+01   1.446946e+01
   2.777827e+01   7.450057e+01
  -1.157694e+02   7.263014e+01
  -2.343023e+02  -1.122701e+01
  -1.987741e+02  -1.284257e+02
  -2.139854e+01  -1.993927e+02
   1.542977e+02  -1.746280e+02
   1.927554e+02  -7.331288e+01
   9.334465e+01   2.547368e+01
  -2.215807e+01   4.659623e+01
  -3.932006e+01  -7.695455e+00
   4.553651e+01  -5.606393e+01
   1.365922e+02  -2.297354e+01
   1.390045e+02   7.234417e+01
   4.663076e+01   1.338958e+02
  -5.890709e+01   9.937488e+01
  -8.779289e+01   1.365383e+01
  -2.893078e+01  -2.402078e+01
   3.730883e+01   2.375253e+01
   2.105469e+01   9.449977e+01
  -7.920365e+01   9.757745e+01
  -1.657636e+02   1.098530e+01
  -1.411582e+02  -1.018605e+02
  -1.305649e+01  -1.554684e+02
   1.082197e+02  -1.140155e+02
   1.240459e+02  -1.698695e+01
   4.199105e+01   6.033660e+01
  -4.123109e+01   6.686219e+01
  -4.794866e+01   1.975868e+01
   4.776395e+00  -1.699877e+01
   3.587864e+01  -5.060111e+00
  -3.449703e+00   2.572560e+01
  -7.492816e+01   9.206319e+00
  -9.344990e+01  -6.860296e+01
  -1.603540e+01  -1.412000e+02
   1.099128e+02  -1.241271e+02
   1.862913e+02  -1.091544e+01
   1.511662e+02   1.185518e+02
   3.549762e+01   1.703189e+02
  -6.862265e+01   1.216892e+02
  -9.694760e+01   3.038761e+01
  -6.185756e+01  -2.512810e+01
  -3.166808e+01  -1.838292e+01
  -4.372686e+01   1.288224e+01
  -6.999486e+01   7.423738e+00
  -5.092435e+01  -4.621490e+01
   2.589876e+01  -9.267392e+01
   1.011660e+02  -6.521747e+01
   9.429865e+01   3.264933e+01
  -8.217038e+00   1.101901e+02
  -1.307951e+02   8.128483e+01
  -1.647558e+02  -4.725855e+01
  -6.788263e+01  -1.666011e+02
   9.401797e+01  -1.746114e+02
   2.012153e+02  -6.736491e+01
   1.846748e+02   6.217702e+01
   7.695748e+01   1.229138e+02
  -2.483536e+01   1.034247e+02
  -6.089029e+01   6.297798e+01
  -4.595275e+01   5.625130e+01
  -3.707109e+01   7.508354e+01
  -6.522154e+01   6.642546e+01
  -1.031313e+02  -5.118999e+00
  -9.932140e+01  -1.101680e+02
  -3.007709e+01  -1.706477e+02
   6.913183e+01  -1.307870e+02
   1.271657e+02  -1.404300e+01
   9.841025e+01   9.377408e+01
   9.777639e+00   1.185600e+02
  -5.852498e+01   6.049111e+01
  -5.122350e+01  -1.540625e+01
   3.597350e+00  -4.745989e+01
   2.659009e+01  -2.994165e+01
  -1.637499e+01  -4.489218e+00
  -6.726877e+01  -6.792855e+00
  -4.298994e+01  -2.932785e+01
   5.772388e+01  -3.572910e+01
   1.396623e+02  -3.930857e+00
   1.135665e+02   4.841658e+01
  -3.667637e+00   7.999131e+01
  -1.062117e+02   6.192753e+01
  -1.115845e+02   5.967367e+00
  -3.518608e+01  -4.173266e+01
   4.260597e+01  -3.962238e+01
   6.103968e+01   9.588429e+00
   2.364272e+01   5.764755e+01
  -2.712245e+01   5.629893e+01
  -5.503803e+01   7.908459e+00
  -5.383353e+01  -3.637960e+01
  -4.188757e+01  -3.307597e+01
  -4.014956e+01  -2.814210e-01
  -4.948786e+01   1.195144e+00
  -4.202458e+01  -5.554912e+01
   1.110501e+01  -1.222820e+02
   9.542155e+01  -1.216410e+02
   1.467025e+02  -3.541544e+01
   1.095514e+02   6.923892e+01
   5.565771e+00   1.073897e+02
  -7.239570e+01   6.266284e+01
  -5.075565e+01  -2.715727e+00
   4.245299e+01  -1.868951e+01
   1.022551e+02   2.467185e+01
   5.559187e+01   7.682222e+01
  -6.152048e+01   8.395854e+01
  -1.424110e+02   3.763505e+01
  -1.187322e+02  -2.749571e+01
  -2.377510e+01  -6.286136e+01
   4.814317e+01  -4.610330e+01
   3.709457e+01   1.753185e+00
  -3.035886e+01   2.718260e+01
  -7.373355e+01  -9.566359e+00
  -3.997855e+01  -8.639745e+01
   4.754662e+01  -1.256945e+02
   1.139415e+02  -6.647771e+01
   1.031589e+02   5.952114e+01
   2.586472e+01   1.446368e+02
  -5.474056e+01   1.103436e+02
  -8.076351e+01  -5.787796e+00
  -4.575146e+01  -9.054604e+01
   1.018931e+01  -7.791550e+01
   4.098590e+01  -1.160762e+01
   3.259815e+01   2.277100e+01
   9.293092e+00   4.022318e+00
   5.719103e+00  -1.314510e+01
   2.960188e+01   1.661943e+01
   4.924970e+01   6.666001e+01
   2.445903e+01   7.782774e+01
  -4.459217e+01   3.503008e+01
  -1.037779e+02  -2.042799e+01
  -9.439359e+01  -4.685155e+01
  -1.876462e+01  -4.218179e+01
   5.551283e+01  -2.601361e+01
   6.534040e+01  -8.521583e+00
   1.838837e+01   8.867697e+00
  -2.243459e+01   1.695405e+01
  -1.677915e+01   8.358746e+00
   7.978796e+00  -4.583246e+00
  -5.928430e-01  -2.370147e+00
  -4.647512e+01   6.534699e+00
  -7.243568e+01  -1.042317e+01
  -2.718711e+01  -6.097151e+01
   7.041120e+01  -9.809574e+01
   1.414227e+02  -6.486586e+01
   1.252622e+02   3.255994e+01
   3.636996e+01   1.192334e+02
  -5.348485e+01   1.257427e+02
  -8.674820e+01   6.019512e+01
  -6.279278e+01  -8.911142e+00
  -2.393354e+01  -2.853341e+01
  -6.150348e+00  -1.185261e+01
  -1.327608e+01  -7.890919e+00
  -2.436894e+01  -3.791729e+01
  -1.629007e+01  -6.959845e+01
   1.817589e+01  -5.710712e+01
   5.926226e+01   4.831476e+00
   6.855507e+01   6.968875e+01
   2.251232e+01   8.285856e+01
  -5.148509e+01   3.325093e+01
  -8.614268e+01  -3.827836e+01
  -4.112742e+01  -7.653215e+01
   4.368819e+01  -5.720663e+01
   8.286757e+01  -2.064968e+00
   4.151874e+01   4.552469e+01
  -2.370661e+01   5.372736e+01
  -3.374784e+01   2.451276e+01
   1.566469e+01  -9.064525e+00
   5.153100e+01  -1.203631e+01
   1.776854e+01   2.069342e+01
  -5.554297e+01   5.402915e+01
  -9.182063e+01   4.465072e+01
  -5.886196e+01  -1.102739e+01
   4.465749e+00  -6.632814e+01
   4.176569e+01  -6.841592e+01
   3.717317e+01  -1.594164e+01
   1.106814e+01   3.787596e+01
  -1.436424e+01   4.104081e+01
  -2.906809e+01  -1.648994e+00
  -2.667987e+01  -4.013849e+01
  -3.569568e+00  -3.506047e+01
   2.601604e+01  -7.978062e-01
   3.565514e+01   1.908847e+01
   1.739823e+01   4.818823e+00
  -5.369598e+00  -1.744676e+01
  -5.728076e+00  -1.176280e+01
   9.697699e+00   2.157643e+01
   9.837600e+00   4.422900e+01
  -1.627703e+01   2.532715e+01
  -3.820914e+01  -1.907725e+01
  -2.061926e+01  -4.397769e+01
   2.696243e+01  -2.435711e+01
   5.252781e+01   1.831486e+01
   2.092515e+01   4.324180e+01
  -4.223332e+01   3.185042e+01
  -7.377437e+01  -1.043117e+00
  -4.256720e+01  -2.913724e+01
   1.770170e+01  -3.852986e+01
   4.718961e+01  -2.903552e+01
   2.377856e+01  -9.291008e+00
  -1.614455e+01   5.270439e+00
  -2.233364e+01   5.023970e-01
   1.373779e+01  -1.772417e+01
   5.273215e+01  -2.028920e+01
