
 $NMID
 id='ANONYMOUS ', fmtdat='(2E16.6)'
 volume=1.0
 tramp=1.0
 $END
  -1.842847e+03  -1.850809e+01
  -1.102520e+03  -9.718092e+02
  -2.935386e+01  -1.234366e+03
   6.366928e+02  -6.891164e+02
   5.177271e+02  -1.709388e+02
  -2.674008e+01   1.250805e+02
  -1.774184e+02  -5.956510e+01
   9.936642e-01  -2.744764e+02
   1.691880e+02  -3.489067e+02
   3.564938e+02  -7.515608e+01
   3.271185e+02   2.121591e+02
   7.492785e+00   3.592759e+02
  -1.275185e+02   1.587781e+02
  -1.675372e+02  -1.995053e+02
   4.383020e+01  -2.550639e+02
   2.370117e+02  -1.787173e+01
   1.672604e+02   2.799589e+02
  -9.400104e+01   3.540102e+02
  -2.591428e+02   1.303255e+02
  -2.704677e+02  -5.904633e+01
  -6.031016e+01  -1.905837e+02
   4.594439e+01  -1.119092e+02
  -2.372907e+00  -4.845986e+01
  -9.967165e+01  -4.895321e+01
  -1.298428e+02  -1.574929e+02
   2.396315e+01  -2.105799e+02
   2.679104e+02  -8.570164e+01
   3.367503e+02   1.310882e+02
   1.004671e+02   1.777803e+02
  -1.590727e+02   7.682456e+01
  -2.641613e+02  -8.312569e+01
  -7.851109e+01  -1.694755e+02
   1.670431e+02  -1.809608e+02
   2.672600e+02  -6.636161e+01
   1.899997e+02   8.102205e+01
   4.701440e+01   1.699677e+02
  -9.451127e-02   1.044520e+02
   3.477485e+01  -2.858497e+01
   8.785123e+01  -8.211877e+01
   1.088613e+02   8.765435e+01
   1.156592e+00   2.791206e+02
  -1.323105e+02   2.491670e+02
  -1.705310e+02  -1.440436e+01
  -6.123550e+01  -1.703822e+02
   7.513096e+01  -6.595356e+01
   8.364135e+01   1.757996e+02
  -7.816935e+01   2.152688e+02
  -2.569499e+02   1.411059e+01
  -2.696844e+02  -2.205597e+02
  -7.813021e+01  -2.672677e+02
   1.726300e+02  -1.255521e+02
   2.863663e+02   4.519121e+01
   1.845670e+02   1.318403e+02
  -2.414858e+01   1.129458e+02
  -1.611291e+02   4.731623e+01
  -1.304744e+02  -2.073562e+00
  -1.662000e+01  -6.600548e+00
   2.629826e+01   1.754216e+01
  -4.406462e+01   1.993437e+01
  -1.159544e+02  -2.793703e+01
  -6.905471e+01  -9.914930e+01
   8.164649e+01  -1.308423e+02
   1.942534e+02  -7.326361e+01
   1.515759e+02   6.251985e+01
  -2.253061e+01   1.909426e+02
  -1.883180e+02   2.059274e+02
  -2.219784e+02   7.653419e+01
  -1.276409e+02  -1.067559e+02
  -1.521590e+01  -2.069949e+02
   2.499084e+01  -1.803264e+02
   1.196665e+01  -1.040733e+02
   2.675920e+01  -6.870806e+01
   9.561731e+01  -6.624267e+01
   1.563468e+02  -1.937546e+01
   1.386400e+02   8.368582e+01
   4.154671e+01   1.550563e+02
  -6.258092e+01   1.057662e+02
  -1.070211e+02  -3.859406e+01
  -6.246897e+01  -1.496879e+02
   4.706110e+01  -1.343409e+02
   1.494191e+02  -1.207767e+01
   1.685582e+02   1.169347e+02
   8.587781e+01   1.679299e+02
  -3.174136e+01   1.453925e+02
  -9.259155e+01   8.845276e+01
  -8.735212e+01   5.460800e+01
  -9.487073e+01   3.950642e+01
  -1.614314e+02   9.069529e+00
  -2.271044e+02  -6.869390e+01
  -1.707852e+02  -1.780657e+02
   2.921677e+01  -2.511413e+02
   2.373757e+02  -2.189885e+02
   2.847633e+02  -8.095933e+01
   1.624777e+02   7.290277e+01
   3.316698e-01   1.477816e+02
  -5.811741e+01   1.058550e+02
  -4.530866e+00   2.079353e+01
   6.790313e+01  -1.033726e+01
   6.459145e+01   3.318711e+01
  -6.319317e+00   7.699634e+01
  -6.634374e+01   4.351320e+01
  -5.087881e+01  -4.002313e+01
   2.167103e+01  -7.062504e+01
   8.625573e+01   8.255899e+00
   7.666594e+01   1.393474e+02
  -1.710500e+01   1.951592e+02
  -1.410120e+02   1.144047e+02
  -2.038797e+02  -4.368745e+01
  -1.554151e+02  -1.592309e+02
  -2.687323e+01  -1.623194e+02
   7.690149e+01  -7.977703e+01
   8.459027e+01  -1.422329e+00
   2.023893e+01   8.159001e+00
  -2.177743e+01  -3.417978e+01
   1.125248e+01  -6.024395e+01
   7.281574e+01  -3.206302e+01
   7.885905e+01   1.793340e+01
   1.399740e+01   2.943632e+01
  -4.452077e+01  -1.047252e+01
  -1.566059e+01  -5.300974e+01
   8.933264e+01  -4.278544e+01
   1.704623e+02   2.654816e+01
   1.371977e+02   1.094540e+02
   2.029781e+00   1.495470e+02
  -1.277516e+02   1.192188e+02
  -1.520346e+02   3.883901e+01
  -7.148795e+01  -3.090174e+01
   2.058428e+01  -3.799504e+01
   3.328102e+01   8.421751e+00
  -3.464946e+01   4.177790e+01
  -1.033494e+02   8.687865e+00
  -9.873926e+01  -6.692739e+01
  -2.356559e+01  -1.076492e+02
   5.384878e+01  -7.187944e+01
   6.939892e+01  -3.623768e+00
   2.351139e+01   2.206135e+01
  -2.334032e+01  -1.729462e+01
  -8.988941e+00  -6.869877e+01
   6.417926e+01  -6.579998e+01
   1.244308e+02   2.749981e+00
   1.003959e+02   8.623413e+01
  -9.138584e-01   1.199430e+02
  -9.355138e+01   8.031929e+01
  -9.959986e+01   2.230366e+00
  -2.921896e+01  -5.305266e+01
   3.766376e+01  -5.184255e+01
   4.119863e+01  -1.318145e+01
  -9.101977e-01   1.401497e+01
  -2.413072e+01   3.493879e+00
   4.300798e+00  -1.617030e+01
   5.311617e+01  -6.702079e-01
   6.219785e+01   5.590769e+01
   2.781211e+00   1.036657e+02
  -8.845005e+01   8.469972e+01
  -1.387660e+02  -3.103274e+00
  -1.046307e+02  -9.814095e+01
  -1.399517e+01  -1.311490e+02
   6.318429e+01  -8.775042e+01
   7.586377e+01  -1.447564e+01
   4.379034e+01   2.617046e+01
   1.993548e+01   1.725558e+01
   3.263714e+01  -5.780511e+00
   5.146460e+01  -4.462599e-01
   3.288880e+01   3.701793e+01
  -2.542154e+01   6.354897e+01
  -7.469673e+01   3.952451e+01
  -6.497955e+01  -2.669641e+01
   1.123261e+01  -7.603130e+01
   9.614554e+01  -4.874297e+01
   1.150628e+02   4.309963e+01
   3.926784e+01   1.238593e+02
  -7.973039e+01   1.215915e+02
  -1.545440e+02   3.725354e+01
  -1.342834e+02  -5.923196e+01
  -5.079874e+01  -9.812885e+01
   2.599645e+01  -7.662574e+01
   5.180368e+01  -4.354476e+01
   4.123508e+01  -3.982198e+01
   3.604593e+01  -5.448672e+01
   5.400510e+01  -4.408865e+01
   7.524740e+01   1.435345e+01
   6.414496e+01   9.162666e+01
   9.676744e+00   1.290407e+02
  -6.039971e+01   9.055194e+01
  -9.570008e+01   3.644026e-01
  -6.779052e+01  -7.608548e+01
  -7.024095e-01  -8.776190e+01
   4.620140e+01  -4.208009e+01
   3.628979e+01   1.149421e+01
  -4.517761e+00   3.160183e+01
  -1.874544e+01   1.993234e+01
   1.377019e+01   6.578655e+00
   4.845276e+01   1.133876e+01
   2.827021e+01   2.465276e+01
  -4.443477e+01   2.166367e+01
  -1.017504e+02  -6.376664e+00
  -8.087996e+01  -4.266761e+01
   5.472127e+00  -5.797592e+01
   8.094198e+01  -3.835294e+01
   8.309761e+01   2.023415e+00
   2.301078e+01   3.098726e+01
  -3.528326e+01   2.353181e+01
  -4.409979e+01  -1.274449e+01
  -9.843560e+00  -4.306199e+01
   2.690716e+01  -3.694186e+01
   3.976619e+01   2.478721e-01
   3.328122e+01   3.029657e+01
   2.693834e+01   2.555027e+01
   3.087443e+01   2.302100e+00
   3.657053e+01   3.431379e+00
   2.358094e+01   4.473247e+01
  -1.965434e+01   8.758533e+01
  -7.774065e+01   7.922439e+01
  -1.071339e+02   1.247921e+01
  -7.367553e+01  -5.908378e+01
   2.743013e+00  -7.763294e+01
   5.654815e+01  -3.896008e+01
   3.662504e+01   6.411329e+00
  -3.362992e+01   9.809859e+00
  -7.543342e+01  -2.771290e+01
  -3.618681e+01  -6.308203e+01
   5.228062e+01  -5.945937e+01
   1.095274e+02  -1.799494e+01
   8.665229e+01   2.941623e+01
   1.318928e+01   4.891488e+01
  -3.864102e+01   3.077162e+01
  -2.685885e+01  -3.746626e+00
   2.416692e+01  -1.710735e+01
   5.236412e+01   1.355628e+01
   2.058930e+01   6.668994e+01
  -4.686098e+01   8.734266e+01
  -9.035120e+01   3.782765e+01
  -7.058007e+01  -5.407022e+01
  -5.999954e+00  -1.099600e+02
   5.029886e+01  -7.833886e+01
   5.963160e+01   9.575253e+00
   2.742597e+01   7.059747e+01
  -1.233179e+01   5.791448e+01
  -3.055844e+01   6.102789e+00
  -2.295865e+01  -1.986353e+01
  -7.028396e+00  -4.129430e+00
  -4.104114e+00   9.849873e+00
  -1.891387e+01  -1.327861e+01
  -3.156804e+01  -5.281599e+01
  -1.441544e+01  -6.011565e+01
   3.360214e+01  -2.222429e+01
   7.520072e+01   2.440905e+01
   6.704737e+01   4.200754e+01
   9.860980e+00   3.023941e+01
  -4.499812e+01   1.201249e+01
  -4.931713e+01   2.583160e-01
  -1.081821e+01  -7.017041e+00
   1.993859e+01  -1.040862e+01
   1.301385e+01  -5.896974e+00
  -7.430399e+00   1.808021e+00
   3.158271e-01   2.426023e+00
   3.623838e+01   3.903810e-01
   5.311669e+01   1.420058e+01
   1.326427e+01   4.668809e+01
  -6.210335e+01   6.552120e+01
  -1.101866e+02   3.515910e+01
  -8.852913e+01  -3.549804e+01
  -1.630472e+01  -9.175641e+01
   5.001244e+01  -8.855545e+01
   6.910947e+01  -3.666468e+01
   4.602696e+01   1.213783e+01
   1.496296e+01   2.240598e+01
   2.551446e+00   7.736202e+00
   9.075860e+00   5.872656e+00
   1.643777e+01   3.007198e+01
   7.771217e+00   5.357890e+01
  -1.792950e+01   4.126257e+01
  -4.373992e+01  -8.950369e+00
  -4.399193e+01  -5.782345e+01
  -8.352630e+00  -6.238897e+01
   4.092153e+01  -1.759074e+01
   5.847632e+01   3.787433e+01
   2.165279e+01   5.997222e+01
  -3.803250e+01   3.700147e+01
  -6.139159e+01  -6.534020e+00
  -2.703497e+01  -3.664415e+01
   2.136275e+01  -3.745571e+01
   2.621899e+01  -1.708749e+01
  -1.276360e+01   3.196651e+00
  -3.882581e+01   4.095746e+00
  -1.040944e+01  -1.573441e+01
   4.690355e+01  -3.461624e+01
   7.222438e+01  -2.630079e+01
   4.131000e+01   1.188203e+01
  -1.040524e+01   4.825679e+01
  -3.676041e+01   4.702183e+01
  -2.731723e+01   7.819697e+00
  -3.573765e+00  -2.953110e+01
   1.435828e+01  -2.880472e+01
   2.097167e+01   4.661401e+00
   1.619099e+01   3.151178e+01
   3.354129e-02   2.496087e+01
  -1.869315e+01  -1.997567e+00
  -2.493871e+01  -1.570580e+01
  -1.318394e+01  -3.751250e+00
   1.610658e+00   1.230252e+01
   3.668938e+00   6.536306e+00
  -3.046882e+00  -1.814480e+01
  -6.913592e-01  -3.210822e+01
   1.506649e+01  -1.461675e+01
   2.500679e+01   1.934564e+01
   9.026057e+00   3.483342e+01
  -2.309696e+01   1.516766e+01
  -3.716621e+01  -1.932282e+01
  -1.164292e+01  -3.520414e+01
   3.365770e+01  -2.057896e+01
   5.465295e+01   7.301743e+00
   2.928931e+01   2.540077e+01
  -1.688268e+01   2.584913e+01
  -3.775490e+01   1.554513e+01
  -1.694820e+01   3.769892e+00
   1.562536e+01  -1.684527e+00
   1.898165e+01   3.449798e+00
  -1.224616e+01   1.360805e+01
  -4.332041e+01   1.113718e+01
