
 $NMID
 id='ANONYMOUS ', fmtdat='(2E16.6)'
 volume=1.0
 tramp=1.0
 $END
   1.391747e+03  -7.840424e+01
   1.085399e+03   6.762519e+02
  -5.952450e+01   8.639894e+02
  -5.666792e+02   5.654737e+02
  -4.362690e+02   1.659494e+02
  -6.545618e+01   8.233364e+01
   9.344321e+01   4.955980e+01
   2.378440e+01   1.855454e+02
  -1.535644e+02   2.288798e+02
  -2.881981e+02   1.307298e+02
  -1.825630e+02  -1.700135e+02
   1.173586e+01  -2.882429e+02
   6.904266e+01  -1.062964e+02
   3.153815e+01   8.147083e+01
  -3.710129e+01   2.471910e+02
  -1.285103e+02   5.280231e+01
  -1.631733e+02  -1.584282e+02
  -2.502739e+01  -2.943801e+02
   2.276405e+02  -1.958943e+02
   2.098102e+02   1.806133e+01
   9.895234e+01   1.104119e+02
  -6.329106e+01   9.641748e+01
  -1.422861e+01   7.632563e+01
   9.248437e+01   9.926055e+01
   1.374523e+02   1.533482e+02
   1.738798e+00   1.249776e+02
  -1.977487e+02   3.730376e+01
  -2.465516e+02  -8.890841e+01
  -7.497162e+01  -1.067723e+02
   1.413513e+02  -3.897280e+01
   1.888691e+02   6.949670e+01
   6.670309e+01   1.589924e+02
  -1.151928e+02   1.271552e+02
  -2.019358e+02   5.049645e+01
  -1.335621e+02  -5.596719e+01
  -3.297659e+01  -1.245969e+02
  -1.136417e+01  -5.972611e+01
  -5.677491e+01   2.007457e+01
  -9.463006e+01   2.995716e+01
  -4.584223e+01  -9.145878e+01
   4.704047e+01  -1.977192e+02
   1.076243e+02  -1.623929e+02
   8.929856e+01  -1.900276e+00
   2.773588e+01   1.088748e+02
  -4.650029e+01   3.594385e+01
  -3.015391e+01  -1.166246e+02
   6.340224e+01  -1.523565e+02
   1.879415e+02  -1.228621e+01
   2.150242e+02   1.760857e+02
   7.746031e+01   2.247121e+02
  -1.245241e+02   1.190063e+02
  -2.321937e+02  -3.018229e+01
  -1.622831e+02  -9.544981e+01
   4.179555e+00  -7.589865e+01
   1.161657e+02  -3.622188e+01
   9.878243e+01  -1.429861e+01
   1.521914e+01  -6.583747e+00
  -1.609155e+01  -4.923747e+00
   3.609911e+01  -3.663105e+00
   9.094859e+01   1.806088e+01
   5.327258e+01   7.163232e+01
  -6.907707e+01   1.147901e+02
  -1.688768e+02   7.872071e+01
  -1.409639e+02  -4.563149e+01
   5.891985e+00  -1.718614e+02
   1.511688e+02  -1.900102e+02
   1.801901e+02  -7.666427e+01
   1.006640e+02   7.898508e+01
   1.438157e+01   1.620106e+02
  -7.954926e+00   1.431835e+02
   6.226468e+00   8.838596e+01
  -1.263071e+01   6.325971e+01
  -7.579033e+01   5.746629e+01
  -1.275711e+02   1.704633e+01
  -1.130716e+02  -6.415987e+01
  -3.727748e+01  -1.200648e+02
   4.582850e+01  -8.390936e+01
   8.406779e+01   2.477922e+01
   5.391470e+01   1.199568e+02
  -2.887273e+01   1.151964e+02
  -1.145961e+02   2.157552e+01
  -1.373846e+02  -8.818204e+01
  -7.575723e+01  -1.399923e+02
   1.202789e+01  -1.181693e+02
   6.148137e+01  -7.551608e+01
   5.954322e+01  -4.772125e+01
   7.635281e+01  -4.243083e+01
   1.441804e+02  -2.161483e+01
   2.070235e+02   3.965237e+01
   1.585339e+02   1.334699e+02
  -8.682700e+00   2.063609e+02
  -1.818241e+02   1.935376e+02
  -2.232971e+02   8.953024e+01
  -1.279388e+02  -4.207685e+01
  -5.858130e+00  -1.099936e+02
   3.669725e+01  -8.683876e+01
  -9.811810e+00  -2.148718e+01
  -5.901599e+01   6.511203e+00
  -5.208254e+01  -2.650185e+01
   2.427057e+00  -6.419875e+01
   5.277382e+01  -4.355240e+01
   4.798051e+01   2.399240e+01
  -7.565082e+00   5.900940e+01
  -6.931649e+01   1.540707e+00
  -7.512456e+01  -1.096626e+02
   1.178292e+00  -1.687674e+02
   1.174409e+02  -1.095574e+02
   1.847366e+02   2.771218e+01
   1.451068e+02   1.367294e+02
   3.056729e+01   1.421607e+02
  -6.353507e+01   7.016617e+01
  -7.182895e+01   3.798905e+00
  -1.768525e+01  -9.767748e-01
   1.610059e+01   3.519261e+01
  -1.054672e+01   5.271773e+01
  -6.120269e+01   2.494024e+01
  -6.616541e+01  -1.627443e+01
  -1.064542e+01  -2.400048e+01
   4.131604e+01   9.797880e+00
   1.850020e+01   4.647847e+01
  -7.495581e+01   4.302968e+01
  -1.512965e+02  -1.138151e+01
  -1.266995e+02  -8.507036e+01
  -9.006472e+00  -1.283473e+02
   1.057588e+02  -1.101321e+02
   1.286908e+02  -4.337035e+01
   6.060783e+01   2.093354e+01
  -1.639917e+01   3.318430e+01
  -2.663633e+01  -3.982587e+00
   2.917638e+01  -3.523984e+01
   8.724908e+01  -1.301090e+01
   8.684833e+01   4.865089e+01
   2.639933e+01   8.642728e+01
  -3.990107e+01   6.191164e+01
  -5.608158e+01   6.368845e+00
  -1.716974e+01  -1.726871e+01
   2.574634e+01   1.406657e+01
   1.531476e+01   5.944196e+01
  -4.923529e+01   6.234760e+01
  -1.048770e+02   8.130705e+00
  -8.947443e+01  -6.293972e+01
  -7.230729e+00  -9.715367e+01
   7.047587e+01  -7.070805e+01
   7.853945e+01  -9.306325e+00
   2.360181e+01   3.874340e+01
  -2.886532e+01   4.201088e+01
  -3.022645e+01   1.096927e+01
   4.366553e+00  -1.217987e+01
   2.344676e+01  -4.053394e+00
  -2.865394e+00   1.634147e+01
  -4.684581e+01   6.710733e+00
  -5.687185e+01  -4.193179e+01
  -7.890768e+00  -8.704712e+01
   6.890634e+01  -7.741189e+01
   1.146758e+02  -6.601268e+00
   9.133360e+01   7.375190e+01
   2.032085e+01   1.060781e+02
  -4.328439e+01   7.527776e+01
  -5.836210e+01   1.856798e+01
  -3.493650e+01  -1.606186e+01
  -1.759580e+01  -1.177796e+01
  -2.769529e+01   8.272096e+00
  -4.523838e+01   5.595448e+00
  -3.268578e+01  -2.737147e+01
   1.744122e+01  -5.542157e+01
   6.347195e+01  -3.782053e+01
   5.773241e+01   2.225249e+01
  -8.458396e+00   6.780702e+01
  -8.426806e+01   4.678587e+01
  -1.036652e+02  -3.344070e+01
  -4.094200e+01  -1.048691e+02
   6.163857e+01  -1.065212e+02
   1.277982e+02  -3.756597e+01
   1.148039e+02   4.134547e+01
   4.574308e+01   7.654001e+01
  -1.898344e+01   6.148947e+01
  -3.991922e+01   3.578474e+01
  -2.853765e+01   3.317566e+01
  -2.216934e+01   4.736135e+01
  -4.022014e+01   4.231854e+01
  -6.422386e+01  -4.564677e+00
  -6.008279e+01  -7.165899e+01
  -1.577134e+01  -1.082936e+02
   4.527689e+01  -8.046675e+01
   7.939569e+01  -5.610087e+00
   5.980302e+01   6.040774e+01
   4.538911e+00   7.322643e+01
  -3.658591e+01   3.598539e+01
  -3.052573e+01  -1.028565e+01
   3.872847e+00  -2.915881e+01
   1.742912e+01  -1.855497e+01
  -9.701141e+00  -3.566332e+00
  -4.159060e+01  -4.902504e+00
  -2.669177e+01  -1.751764e+01
   3.602656e+01  -2.029400e+01
   8.763964e+01  -9.818858e-01
   7.194765e+01   3.065873e+01
  -1.810398e+00   4.956904e+01
  -6.707736e+01   3.832096e+01
  -7.054647e+01   3.873276e+00
  -2.146845e+01  -2.555852e+01
   2.802074e+01  -2.374951e+01
   3.855566e+01   7.184549e+00
   1.349353e+01   3.667682e+01
  -1.836741e+01   3.449467e+01
  -3.466915e+01   3.901197e+00
  -3.270575e+01  -2.275685e+01
  -2.605531e+01  -1.993079e+01
  -2.577075e+01  -2.466298e-01
  -3.122187e+01  -5.870287e-01
  -2.538646e+01  -3.595331e+01
   8.556208e+00  -7.600002e+01
   6.000704e+01  -7.402897e+01
   9.067819e+01  -2.045024e+01
   6.698242e+01   4.322752e+01
   3.036087e+00   6.579295e+01
  -4.457749e+01   3.775516e+01
  -3.095975e+01  -2.561545e+00
   2.665572e+01  -1.173120e+01
   6.362803e+01   1.619617e+01
   3.463228e+01   4.923067e+01
  -3.816435e+01   5.290682e+01
  -8.886628e+01   2.181147e+01
  -7.402463e+01  -1.946348e+01
  -1.406722e+01  -3.997318e+01
   3.172725e+01  -2.732905e+01
   2.452173e+01   2.695070e+00
  -1.871582e+01   1.695833e+01
  -4.624071e+01  -6.546229e+00
  -2.439874e+01  -5.311215e+01
   3.110849e+01  -7.571664e+01
   7.153126e+01  -3.922836e+01
   6.241146e+01   3.743810e+01
   1.323860e+01   8.923486e+01
  -3.551606e+01   6.827465e+01
  -4.980462e+01  -3.852403e+00
  -2.723032e+01  -5.733427e+01
   6.808001e+00  -4.986601e+01
   2.593877e+01  -7.393291e+00
   2.127860e+01   1.569382e+01
   6.612830e+00   4.515834e+00
   2.693871e+00  -7.110877e+00
   1.632023e+01   1.026792e+01
   2.896550e+01   4.124339e+01
   1.478550e+01   4.783192e+01
  -2.757356e+01   2.031842e+01
  -6.453138e+01  -1.454928e+01
  -5.808097e+01  -2.983166e+01
  -9.954010e+00  -2.511167e+01
   3.640264e+01  -1.444680e+01
   4.073718e+01  -4.584382e+00
   9.821667e+00   5.230313e+00
  -1.534171e+01   1.058846e+01
  -1.063190e+01   6.095488e+00
   5.126802e+00  -1.986982e+00
  -1.083903e+00  -2.137245e+00
  -2.992880e+01   2.068380e+00
  -4.501279e+01  -8.424040e+00
  -1.521624e+01  -3.832409e+01
   4.539781e+01  -6.002024e+01
   8.840180e+01  -3.882949e+01
   7.749763e+01   2.117373e+01
   2.258893e+01   7.417856e+01
  -3.334568e+01   7.786237e+01
  -5.406990e+01   3.724314e+01
  -3.918782e+01  -5.643419e+00
  -1.459727e+01  -1.772814e+01
  -3.398886e+00  -7.289490e+00
  -8.195390e+00  -4.740952e+00
  -1.509388e+01  -2.354024e+01
  -9.438971e+00  -4.306068e+01
   1.250149e+01  -3.458782e+01
   3.694782e+01   4.725382e+00
   4.080058e+01   4.503405e+01
   1.140262e+01   5.135675e+01
  -3.348540e+01   1.869976e+01
  -5.298781e+01  -2.579971e+01
  -2.398944e+01  -4.754840e+01
   2.820140e+01  -3.407551e+01
   5.155261e+01  -4.863342e-01
   2.529495e+01   2.757754e+01
  -1.517374e+01   3.237836e+01
  -2.082424e+01   1.581117e+01
   1.036883e+01  -4.131904e+00
   3.236870e+01  -6.466366e+00
   1.054989e+01   1.282767e+01
  -3.599213e+01   3.345865e+01
  -5.846936e+01   2.787612e+01
  -3.692919e+01  -7.380000e+00
   3.454223e+00  -4.229908e+01
   2.673191e+01  -4.313764e+01
   2.288340e+01  -9.299333e+00
   6.297733e+00   2.409265e+01
  -9.169586e+00   2.467055e+01
  -1.763974e+01  -2.379486e+00
  -1.557246e+01  -2.504149e+01
  -1.092934e+00  -2.041942e+01
   1.643648e+01   8.900055e-01
   2.160004e+01   1.223405e+01
   1.011389e+01   2.653518e+00
  -3.672252e+00  -1.063966e+01
  -3.824259e+00  -6.625757e+00
   5.284808e+00   1.352877e+01
   4.954652e+00   2.644482e+01
  -1.046967e+01   1.443552e+01
  -2.285162e+01  -1.254390e+01
  -1.154398e+01  -2.752430e+01
   1.724967e+01  -1.515054e+01
   3.238896e+01   1.167513e+01
   1.267676e+01   2.723266e+01
  -2.629112e+01   1.957161e+01
  -4.576205e+01  -1.302483e+00
  -2.585611e+01  -1.879050e+01
   1.250654e+01  -2.386491e+01
   3.086427e+01  -1.708861e+01
   1.511723e+01  -4.561058e+00
  -1.114783e+01   4.185201e+00
  -1.515212e+01   7.342768e-01
   8.181248e+00  -1.052357e+01
   3.313719e+01  -1.215911e+01
