
 $NMID
 id='ANONYMOUS ', fmtdat='(2E16.6)'
 volume=1.0
 tramp=1.0
 $END
  -6.067776e+02  -6.078524e+00
  -2.548844e+02  -2.509966e+02
  -4.870728e+01  -2.257424e+02
   1.089535e+02  -2.988486e+02
   1.414321e+02  -7.112179e+01
   8.241940e+01   4.539919e+01
  -3.556982e+01   1.805177e+01
  -2.163194e+01  -1.543393e+02
   7.976393e+01  -1.377014e+02
   5.994918e+01  -9.614000e+00
   1.065509e+02   1.187849e+02
  -1.536576e+01   1.033665e+02
  -1.073988e+02   1.168459e+00
  -3.185535e+01  -9.364483e+01
   4.244321e+01  -7.512699e+01
   1.177305e+02  -1.893612e-01
   1.829143e+01   8.280553e+01
  -7.988674e+01   1.117753e+02
  -8.083784e+01   3.467152e+01
  -6.075945e+01  -4.435743e+01
   1.746932e+00  -7.071564e+01
  -1.792690e+01  -1.683291e+01
  -1.786765e+00  -2.559913e+01
  -4.447879e+01  -7.433737e+01
  -3.454895e+01  -1.258431e+02
   3.927176e+01  -8.189605e+01
   1.300606e+02  -2.704829e+01
   1.349226e+02   7.061499e+01
   2.708129e+01   8.485898e+01
  -6.882024e+01   2.522426e+01
  -7.948216e+01  -5.986403e+01
  -1.745772e+01  -8.681136e+01
   6.754848e+01  -5.594539e+01
   9.204706e+01   2.883500e+00
   5.032311e+01   4.117731e+01
   6.267534e+00   5.399628e+01
   1.241597e+01   2.266241e+01
   3.239417e+01  -1.119388e+01
   4.179097e+01  -1.529398e+01
   1.804205e+01   5.438043e+01
  -1.406251e+01   9.593862e+01
  -3.969482e+01   6.356686e+01
  -5.406738e+01  -2.639896e+01
  -1.359661e+01  -4.713098e+01
   1.953404e+01   2.472049e+00
   2.225781e+01   6.334758e+01
  -2.913043e+01   5.338804e+01
  -8.488786e+01  -2.102373e+01
  -8.288378e+01  -9.309885e+01
  -1.635714e+01  -9.402531e+01
   6.991502e+01  -3.327195e+01
   9.780352e+01   3.108364e+01
   5.661529e+01   5.534504e+01
  -1.226817e+01   3.796114e+01
  -5.227746e+01   9.261159e+00
  -4.404037e+01  -8.689026e+00
  -1.481414e+01  -4.940872e+00
  -1.525559e+00   2.402478e+00
  -1.568142e+01  -4.036109e+00
  -3.169570e+01  -2.479881e+01
  -1.221051e+01  -4.454238e+01
   4.305445e+01  -4.402854e+01
   8.430844e+01  -1.362956e+01
   6.178275e+01   3.566623e+01
  -1.447004e+01   7.047998e+01
  -7.989358e+01   6.258770e+01
  -8.329910e+01   1.472750e+01
  -3.647438e+01  -3.811083e+01
   8.781803e+00  -6.215029e+01
   1.809814e+01  -5.553680e+01
   6.701959e+00  -4.056834e+01
   1.065406e+01  -3.202349e+01
   3.789760e+01  -2.067639e+01
   5.740920e+01   6.719964e+00
   4.357170e+01   4.332767e+01
   3.722267e+00   5.944895e+01
  -3.152008e+01   3.289959e+01
  -3.659354e+01  -2.152368e+01
  -1.418336e+01  -6.043984e+01
   2.385266e+01  -5.085098e+01
   5.083818e+01  -1.133592e+00
   5.177751e+01   4.820149e+01
   2.356228e+01   6.421983e+01
  -1.487672e+01   5.045502e+01
  -3.327632e+01   2.632263e+01
  -3.340484e+01   1.481112e+01
  -3.702308e+01   5.037219e+00
  -6.480472e+01  -9.426848e+00
  -8.350569e+01  -4.142049e+01
  -4.878712e+01  -7.661757e+01
   3.123904e+01  -9.244069e+01
   1.051576e+02  -6.524632e+01
   1.089944e+02  -8.055821e+00
   4.988420e+01   3.908033e+01
  -1.400807e+01   5.031496e+01
  -2.871452e+01   3.126626e+01
  -1.215781e+00   8.824268e+00
   2.420595e+01   3.878462e+00
   1.808649e+01   1.433232e+01
  -6.308344e+00   1.975588e+01
  -2.067303e+01   5.152853e+00
  -9.994007e+00  -1.598241e+01
   1.322014e+01  -1.783927e+01
   3.061611e+01   1.379063e+01
   1.926898e+01   5.670879e+01
  -1.867998e+01   6.993974e+01
  -6.139424e+01   3.384748e+01
  -7.429664e+01  -3.076005e+01
  -4.538303e+01  -7.087032e+01
   2.835261e+00  -6.021315e+01
   3.190638e+01  -1.915104e+01
   2.544113e+01   7.900031e+00
   2.771805e+00   6.841972e-01
  -4.781922e+00  -1.981540e+01
   1.172555e+01  -2.406626e+01
   3.014213e+01  -6.041253e+00
   2.577113e+01   1.275027e+01
   1.151055e+00   1.042498e+01
  -1.467937e+01  -8.461205e+00
   1.505754e+00  -2.073548e+01
   4.018566e+01  -7.897433e+00
   6.296751e+01   2.389678e+01
   4.134377e+01   5.233599e+01
  -1.413228e+01   5.719641e+01
  -5.994088e+01   3.522780e+01
  -6.022270e+01   2.509736e+00
  -2.323217e+01  -1.767835e+01
   1.096737e+01  -1.362498e+01
   1.131383e+01   3.701818e+00
  -1.640854e+01   1.015842e+01
  -3.899365e+01  -5.870383e+00
  -3.147722e+01  -3.104534e+01
   2.275134e-01  -3.955965e+01
   2.663185e+01  -2.191342e+01
   2.609550e+01   2.505869e+00
   5.261064e+00   8.189556e+00
  -9.189982e+00  -8.682929e+00
   2.283082e+00  -2.544514e+01
   3.112721e+01  -1.874678e+01
   4.705794e+01   1.026915e+01
   2.892193e+01   3.878074e+01
  -1.149323e+01   4.352402e+01
  -4.024076e+01   2.241762e+01
  -3.466576e+01  -6.695361e+00
  -5.567417e+00  -2.174780e+01
   1.738529e+01  -1.568818e+01
   1.534386e+01  -1.087089e+00
  -1.589251e+00   5.264300e+00
  -9.192871e+00  -1.460201e+00
   3.435781e+00  -6.466368e+00
   2.162981e+01   4.056003e+00
   1.970223e+01   2.712402e+01
  -8.123679e+00   3.991605e+01
  -4.123266e+01   2.497840e+01
  -5.227817e+01  -1.275873e+01
  -3.009659e+01  -4.462704e+01
   6.193637e+00  -4.864615e+01
   2.917710e+01  -2.694524e+01
   2.660939e+01  -1.131640e-01
   1.192842e+01   1.260225e+01
   5.770600e+00   7.555635e+00
   1.297592e+01  -9.442248e-01
   1.953598e+01   2.235561e+00
   1.002354e+01   1.584604e+01
  -1.442624e+01   2.193388e+01
  -3.223696e+01   8.370626e+00
  -2.360603e+01  -1.714608e+01
   1.139216e+01  -2.836374e+01
   4.318027e+01  -1.031617e+01
   4.155702e+01   2.634873e+01
   2.809504e+00   5.055951e+01
  -4.254737e+01   3.799547e+01
  -6.242672e+01  -1.429738e-01
  -4.499066e+01  -3.465899e+01
  -9.399610e+00  -4.150630e+01
   1.803000e+01  -2.615529e+01
   2.454151e+01  -1.125455e+01
   1.865354e+01  -1.072741e+01
   1.638073e+01  -1.708064e+01
   2.240156e+01  -1.141644e+01
   2.703748e+01   1.266862e+01
   1.688620e+01   4.011829e+01
  -8.011478e+00   4.858066e+01
  -3.213221e+01   2.775290e+01
  -3.646684e+01  -8.651522e+00
  -1.765373e+01  -3.454160e+01
   8.627375e+00  -3.327716e+01
   2.070716e+01  -1.202489e+01
   1.129854e+01   7.805639e+00
  -5.732613e+00   1.205677e+01
  -9.024657e+00   5.677593e+00
   5.235757e+00   2.459041e+00
   1.807063e+01   7.348657e+00
   8.955155e+00   1.142577e+01
  -1.863737e+01   4.873101e+00
  -3.762938e+01  -1.073638e+01
  -2.632316e+01  -2.298242e+01
   7.557732e+00  -2.152596e+01
   3.383778e+01  -7.285345e+00
   3.105750e+01   8.966721e+00
   6.185969e+00   1.516736e+01
  -1.517946e+01   7.089564e+00
  -1.625333e+01  -8.554340e+00
  -1.773762e+00  -1.772567e+01
   1.172518e+01  -1.207077e+01
   1.446547e+01   3.759393e+00
   1.006589e+01   1.481123e+01
   7.146169e+00   1.132149e+01
   1.033481e+01   2.010519e+00
   1.343606e+01   2.900475e+00
   6.056290e+00   1.804364e+01
  -1.389618e+01   3.150601e+01
  -3.589016e+01   2.384658e+01
  -4.182078e+01  -3.534295e+00
  -2.306906e+01  -2.793745e+01
   7.424538e+00  -2.900718e+01
   2.395713e+01  -1.063138e+01
   1.264848e+01   4.699498e+00
  -1.340451e+01   9.744476e-01
  -2.555569e+01  -1.607572e+01
  -8.610334e+00  -2.645196e+01
   2.357210e+01  -1.832773e+01
   4.189837e+01   1.685835e+00
   3.044053e+01   1.726676e+01
   1.428910e+00   1.846143e+01
  -1.671388e+01   8.116278e+00
  -9.223256e+00  -3.366115e+00
   1.140872e+01  -3.973755e+00
   1.887595e+01   9.225364e+00
   2.048638e+00   2.631567e+01
  -2.479341e+01   2.907011e+01
  -3.590468e+01   7.460867e+00
  -2.099163e+01  -2.487105e+01
   6.317594e+00  -4.051253e+01
   2.332499e+01  -2.425994e+01
   1.976040e+01   8.543966e+00
   4.159509e+00   2.759437e+01
  -8.999378e+00   1.920646e+01
  -1.195032e+01  -7.638289e-01
  -7.069200e+00  -8.749297e+00
  -1.937778e+00  -1.629169e+00
  -1.694604e+00   2.598062e+00
  -5.855399e+00  -7.697002e+00
  -7.496954e+00  -2.241378e+01
  -1.424171e-01  -2.256059e+01
   1.534458e+01  -4.600272e+00
   2.660046e+01   1.521978e+01
   2.068903e+01   2.111216e+01
  -1.893999e-01   1.312877e+01
  -1.822657e+01   1.863371e+00
  -1.811066e+01  -4.179960e+00
  -3.560305e+00  -4.842821e+00
   7.463193e+00  -3.149491e+00
   4.384173e+00  -1.158382e+00
  -3.064037e+00   2.959882e-02
   5.108890e-01   2.661030e-01
   1.425661e+01   1.991740e+00
   1.966900e+01   8.704697e+00
   2.583087e+00   1.816085e+01
  -2.709192e+01   1.995826e+01
  -4.319408e+01   5.912313e+00
  -3.015716e+01  -1.818584e+01
   7.605562e-01  -3.414077e+01
   2.511726e+01  -2.891938e+01
   2.808840e+01  -8.398563e+00
   1.573320e+01   8.449406e+00
   3.442152e+00   1.029783e+01
  -3.823644e-01   3.336535e+00
   2.200920e+00   2.455501e+00
   3.219977e+00   1.186818e+01
  -1.315255e+00   2.055644e+01
  -9.767856e+00   1.414062e+01
  -1.599558e+01  -6.991153e+00
  -1.257239e+01  -2.554179e+01
   1.592428e+00  -2.450950e+01
   1.748106e+01  -3.859743e+00
   1.999592e+01   1.839018e+01
   3.877758e+00   2.425997e+01
  -1.737531e+01   1.164951e+01
  -2.270960e+01  -6.285662e+00
  -7.157799e+00  -1.538230e+01
   1.072820e+01  -1.250521e+01
   1.040211e+01  -4.409700e+00
  -5.648873e+00   6.277599e-01
  -1.539533e+01  -1.238538e+00
  -3.214820e+00  -7.276748e+00
   1.963637e+01  -1.067939e+01
   2.921409e+01  -5.503653e+00
   1.579813e+01   7.401882e+00
  -6.132968e+00   1.803661e+01
  -1.700157e+01   1.582845e+01
  -1.152669e+01   1.653290e+00
   2.336045e-01  -1.122338e+01
   7.314839e+00  -9.775356e+00
   7.264175e+00   3.218081e+00
   2.839644e+00   1.320513e+01
  -2.796932e+00   9.007617e+00
  -7.172335e+00  -3.170582e+00
  -7.435575e+00  -8.629821e+00
  -3.595611e+00  -2.870424e+00
   4.303613e-01   5.108269e+00
   8.930653e-01   3.252592e+00
  -3.771275e-01  -6.860013e+00
   1.515310e+00  -1.232280e+01
   6.851541e+00  -4.711479e+00
   8.824951e+00   9.042550e+00
   1.824243e+00   1.376743e+01
  -9.455527e+00   4.417118e+00
  -1.279204e+01  -9.287387e+00
  -2.221858e+00  -1.340592e+01
   1.377232e+01  -5.176723e+00
   1.962052e+01   6.428425e+00
   8.874143e+00   1.160424e+01
  -8.415834e+00   9.062395e+00
  -1.546999e+01   3.667229e+00
  -7.101485e+00   3.185539e-03
   5.441060e+00  -4.487075e-01
   6.440752e+00   1.576488e+00
  -5.409665e+00   3.716014e+00
  -1.654633e+01   1.136002e+00
