
 $NMID
 id='ANONYMOUS ', fmtdat='(2E16.6)'
 volume=1.0
 tramp=1.0
 $END
  -4.031067e+03   7.755423e+01
  -2.637560e+03  -2.105337e+03
   3.388014e+02  -2.553904e+03
   1.745216e+03  -1.202558e+03
   1.043694e+03   4.821911e+01
  -2.929465e+02   3.249290e+02
  -6.273071e+02  -1.792153e+02
   8.234903e+00  -7.951834e+02
   6.189964e+02  -7.548223e+02
   8.033022e+02  -4.701135e+01
   4.860551e+02   7.068600e+02
  -1.263184e+02   8.010487e+02
  -4.408619e+02   1.323197e+02
  -3.337075e+02  -6.143616e+02
   2.109290e+02  -6.797885e+02
   4.903993e+02   6.693283e+00
   2.614109e+02   5.766890e+02
  -2.423302e+02   6.604215e+02
  -6.009297e+02   2.073805e+02
  -4.031360e+02  -2.735866e+02
  -8.154962e+01  -3.853545e+02
   2.569661e+02  -2.468747e+02
   1.588299e+02  -6.240215e+00
  -1.489099e+02   8.079381e+00
  -3.660096e+02  -1.626397e+02
  -1.289228e+02  -3.952686e+02
   4.792537e+02  -3.131707e+02
   7.477372e+02   1.190085e+02
   3.196812e+02   4.698640e+02
  -3.877870e+02   3.682847e+02
  -6.412651e+02  -7.350961e+01
  -2.732123e+02  -4.648951e+02
   2.680216e+02  -4.638135e+02
   5.182380e+02  -1.967992e+02
   3.690175e+02   1.909513e+02
   7.887270e+01   4.118380e+02
  -1.421114e+02   2.577702e+02
  -9.701249e+01  -1.511607e+02
   1.627202e+02  -3.191967e+02
   3.487037e+02   6.176080e+01
   1.483890e+02   6.064155e+02
  -2.993846e+02   5.799291e+02
  -4.905047e+02  -5.234215e+00
  -2.094217e+02  -4.664884e+02
   2.371848e+02  -2.457321e+02
   2.890910e+02   3.048653e+02
  -9.041111e+01   4.796446e+02
  -5.028721e+02   9.972930e+01
  -5.301817e+02  -4.029120e+02
  -1.450198e+02  -5.443464e+02
   3.436355e+02  -2.991107e+02
   5.692023e+02   7.693324e+01
   3.504724e+02   3.260629e+02
  -1.066038e+02   3.027046e+02
  -3.714369e+02   7.251118e+01
  -2.260701e+02  -1.164864e+02
   6.588304e+01  -6.781679e+01
   9.806563e+01   1.084019e+02
  -1.471487e+02   1.333332e+02
  -3.068273e+02  -6.140658e+01
  -1.390826e+02  -2.559007e+02
   1.812553e+02  -2.608428e+02
   3.394173e+02  -1.110782e+02
   2.363873e+02   8.187507e+01
  -6.664519e+00   2.671535e+02
  -2.410754e+02   3.561587e+02
  -3.507737e+02   2.082585e+02
  -2.733411e+02  -1.440218e+02
  -6.602691e+01  -4.088337e+02
   8.741522e+01  -3.567975e+02
   8.000087e+01  -1.298346e+02
   2.039201e+01  -3.247066e+01
   7.503374e+01  -1.048186e+02
   2.206417e+02  -1.101269e+02
   2.751354e+02   7.493074e+01
   1.384883e+02   2.695364e+02
  -8.402056e+01   2.383826e+02
  -2.237879e+02  -6.356413e+00
  -1.821629e+02  -2.453841e+02
   2.094772e+01  -2.843037e+02
   2.589938e+02  -1.062338e+02
   3.427757e+02   1.644505e+02
   1.799700e+02   3.318528e+02
  -7.746477e+01   2.903530e+02
  -2.000424e+02   1.342808e+02
  -1.398473e+02   3.281465e+01
  -1.103928e+02   5.501092e+01
  -2.506684e+02   6.106475e+01
  -4.092136e+02  -6.539460e+01
  -3.345521e+02  -2.848531e+02
   6.329892e+00  -4.402092e+02
   3.655629e+02  -4.071280e+02
   4.800481e+02  -1.927628e+02
   3.125507e+02   9.192583e+01
   3.972938e+01   2.727132e+02
  -1.156020e+02   2.267778e+02
  -4.847777e+01   2.990676e+01
   1.190119e+02  -8.073909e+01
   1.741826e+02   2.439370e+01
   3.188197e+01   1.808558e+02
  -1.499461e+02   1.493280e+02
  -1.548304e+02  -5.717095e+01
   2.329098e+01  -1.678746e+02
   1.828800e+02  -1.928468e+01
   1.579531e+02   2.403389e+02
  -3.041628e+01   3.413288e+02
  -2.351351e+02   1.961639e+02
  -3.355962e+02  -5.829965e+01
  -2.765456e+02  -2.420682e+02
  -8.287183e+01  -2.650085e+02
   1.182597e+02  -1.543426e+02
   1.667792e+02  -1.788101e+01
   4.796155e+01   2.348684e+01
  -6.422243e+01  -4.823607e+01
  -1.620075e+01  -1.211640e+02
   1.266117e+02  -8.777309e+01
   1.690914e+02   1.816571e+01
   4.753140e+01   6.629374e+01
  -8.211843e+01   5.278379e+00
  -4.752084e+01  -8.106836e+01
   1.364605e+02  -8.833371e+01
   2.916842e+02   8.436886e+00
   2.601164e+02   1.537898e+02
   4.519703e+01   2.614351e+02
  -1.946091e+02   2.526296e+02
  -2.775672e+02   1.145448e+02
  -1.571173e+02  -5.175408e+01
   2.667023e+01  -9.856838e+01
   8.089665e+01  -2.382928e+00
  -4.003727e+01   9.453500e+01
  -1.911263e+02   5.077973e+01
  -2.044870e+02  -1.009073e+02
  -6.641346e+01  -1.984429e+02
   8.972314e+01  -1.487661e+02
   1.351319e+02  -2.507946e+01
   5.985510e+01   3.841777e+01
  -3.573752e+01  -7.742468e+00
  -3.575449e+01  -9.562738e+01
   8.077744e+01  -1.174435e+02
   2.039790e+02  -2.470340e+01
   1.903613e+02   1.259464e+02
   2.040332e+01   2.127470e+02
  -1.584947e+02   1.587523e+02
  -1.845475e+02   1.084885e+01
  -6.128737e+01  -1.023305e+02
   6.202171e+01  -1.025615e+02
   7.439783e+01  -2.880876e+01
   1.054798e+01   2.347395e+01
  -2.712835e+01   1.458937e+01
   1.042327e+01  -1.479457e+01
   7.684089e+01   3.404844e+00
   9.466271e+01   8.167155e+01
   1.671864e+01   1.626361e+02
  -1.286169e+02   1.546746e+02
  -2.339366e+02   2.406243e+01
  -2.006277e+02  -1.487916e+02
  -4.425566e+01  -2.319014e+02
   1.031117e+02  -1.677974e+02
   1.329502e+02  -3.324272e+01
   7.147877e+01   4.585399e+01
   3.116281e+01   3.042716e+01
   5.471950e+01  -1.356777e+01
   8.435511e+01  -5.698671e+00
   5.042443e+01   5.290341e+01
  -3.729689e+01   9.563006e+01
  -1.068923e+02   6.145356e+01
  -9.338491e+01  -3.690387e+01
   1.253450e+01  -1.167603e+02
   1.483457e+02  -8.735776e+01
   2.000383e+02   5.625498e+01
   9.697380e+01   2.057750e+02
  -1.105949e+02   2.276765e+02
  -2.653642e+02   9.272117e+01
  -2.526266e+02  -8.434937e+01
  -1.075362e+02  -1.709511e+02
   3.635741e+01  -1.417908e+02
   8.799024e+01  -8.239542e+01
   7.224945e+01  -7.097828e+01
   6.148087e+01  -9.468733e+01
   9.087837e+01  -7.907478e+01
   1.303472e+02   1.780016e+01
   1.202897e+02   1.513470e+02
   3.142986e+01   2.237269e+02
  -9.629402e+01   1.694277e+02
  -1.719888e+02   1.860634e+01
  -1.324420e+02  -1.212021e+02
  -1.611149e+01  -1.566261e+02
   7.004301e+01  -8.786990e+01
   6.132874e+01   4.272127e+00
   1.890579e+00   4.730596e+01
  -1.676730e+01   3.601474e+01
   3.250639e+01   1.538253e+01
   8.134318e+01   1.869993e+01
   4.745370e+01   3.722994e+01
  -6.664860e+01   3.934191e+01
  -1.644877e+02   4.373872e+00
  -1.453781e+02  -5.367882e+01
  -1.149791e+01  -9.310261e+01
   1.240511e+02  -7.719250e+01
   1.445412e+02  -1.367672e+01
   4.737180e+01   4.266293e+01
  -5.873389e+01   3.963810e+01
  -7.641672e+01  -1.814954e+01
  -1.364022e+01  -7.054878e+01
   5.010306e+01  -6.227735e+01
   6.559073e+01  -2.078559e+00
   5.208311e+01   4.730493e+01
   4.845649e+01   4.002828e+01
   6.091713e+01   1.164292e+00
   6.695109e+01   4.448675e-01
   4.144933e+01   6.969468e+01
  -2.654397e+01   1.498004e+02
  -1.161680e+02   1.467472e+02
  -1.694559e+02   3.859167e+01
  -1.280060e+02  -8.854695e+01
  -8.333756e+00  -1.281587e+02
   8.588596e+01  -6.677357e+01
   6.009684e+01   1.159692e+01
  -5.866263e+01   2.147829e+01
  -1.365373e+02  -4.021112e+01
  -7.524121e+01  -1.060071e+02
   8.017691e+01  -1.130140e+02
   1.895765e+02  -5.186258e+01
   1.609303e+02   3.472474e+01
   3.599317e+01   8.574267e+01
  -6.123613e+01   6.721344e+01
  -4.898247e+01   4.881038e+00
   3.801215e+01  -2.789793e+01
   9.035176e+01   2.061425e+01
   3.673145e+01   1.156383e+02
  -8.319336e+01   1.537381e+02
  -1.607154e+02   6.665543e+01
  -1.273546e+02  -9.405122e+01
  -1.662014e+01  -1.933663e+02
   8.072027e+01  -1.431738e+02
   1.045071e+02   6.512517e+00
   6.102093e+01   1.175915e+02
  -4.332074e+00   1.055669e+02
  -4.834430e+01   1.902859e+01
  -5.008773e+01  -3.148588e+01
  -2.211862e+01  -8.484253e+00
  -4.105823e+00   1.964986e+01
  -2.513142e+01  -1.594695e+01
  -5.853202e+01  -8.691636e+01
  -3.996921e+01  -1.062493e+02
   4.950018e+01  -4.503891e+01
   1.369177e+02   3.546681e+01
   1.267943e+02   6.707184e+01
   1.823911e+01   4.972428e+01
  -8.373717e+01   2.448515e+01
  -8.616239e+01   8.665832e+00
  -1.308957e+01  -8.005062e+00
   3.649650e+01  -2.208687e+01
   1.615422e+01  -1.653227e+01
  -1.820550e+01   2.558917e+00
   4.747096e+00   8.316702e+00
   7.011205e+01   1.969416e+00
   9.068834e+01   2.194346e+01
   1.414985e+01   7.907065e+01
  -1.113382e+02   1.159788e+02
  -1.836776e+02   6.457641e+01
  -1.461161e+02  -5.988237e+01
  -3.185377e+01  -1.587612e+02
   7.506522e+01  -1.529595e+02
   1.125962e+02  -6.419334e+01
   8.030626e+01   1.810163e+01
   2.638345e+01   3.508178e+01
   3.837498e-02   9.545522e+00
   1.234767e+01   5.021728e+00
   3.322254e+01   4.640847e+01
   2.262293e+01   8.997308e+01
  -2.757498e+01   7.129262e+01
  -7.915769e+01  -1.653987e+01
  -7.861807e+01  -1.036990e+02
  -9.534902e+00  -1.092569e+02
   7.799727e+01  -2.682952e+01
   1.040521e+02   6.922715e+01
   3.708619e+01   1.011564e+02
  -6.331521e+01   5.954419e+01
  -1.001178e+02  -7.835000e+00
  -4.364504e+01  -5.216587e+01
   3.136033e+01  -5.651883e+01
   3.485320e+01  -3.045627e+01
  -2.921580e+01   2.353428e+00
  -6.762932e+01   8.998475e+00
  -1.685773e+01  -2.500557e+01
   7.737566e+01  -6.669509e+01
   1.167376e+02  -5.849640e+01
   6.730269e+01   1.243438e+01
  -1.329125e+01   8.351355e+01
  -5.308685e+01   8.165430e+01
  -3.912711e+01   9.655470e+00
  -3.735506e+00  -5.316232e+01
   2.420678e+01  -4.440106e+01
   3.617878e+01   1.456282e+01
   2.774790e+01   5.260545e+01
  -1.164848e+00   3.486349e+01
  -3.266778e+01  -6.309107e+00
  -4.039511e+01  -2.094014e+01
  -2.063122e+01  -9.166482e-01
   2.400732e+00   1.689192e+01
   6.873726e+00   1.521690e+00
   1.371111e+00  -3.470632e+01
   8.636539e+00  -4.762728e+01
   2.864892e+01  -1.357904e+01
   3.463699e+01   3.961029e+01
   5.504209e+00   5.908657e+01
  -4.154297e+01   2.282829e+01
  -5.884656e+01  -3.510490e+01
  -1.734294e+01  -6.050761e+01
   5.481151e+01  -3.519891e+01
   9.013855e+01   1.173978e+01
   4.979786e+01   4.199929e+01
  -2.822331e+01   4.272869e+01
  -6.406571e+01   2.509273e+01
  -2.524804e+01   6.301061e+00
   3.414996e+01  -3.575357e-01
   3.659351e+01   1.133806e+01
  -2.646476e+01   2.906399e+01
  -8.457168e+01   2.158345e+01
