
 $NMID
 id='ANONYMOUS ', fmtdat='(2E16.6)'
 volume=1.0
 tramp=1.0
 $END
   1.113486e+03   1.521948e+02
   6.961903e+02   6.044913e+02
  -1.742016e+02   8.047900e+02
  -6.010902e+02   2.973143e+02
  -2.823577e+02  -2.044747e+02
   1.797205e+02  -1.947086e+02
   1.565751e+02   1.277989e+02
   6.893604e+01   3.776215e+02
  -1.939243e+02   2.031551e+02
  -2.086466e+02   1.559692e+01
  -7.355270e+01  -2.432678e+02
   2.790746e+01  -2.586469e+02
   1.571572e+02  -3.774732e+01
   1.457577e+02   2.298776e+02
  -7.305569e+01   1.988168e+02
  -1.662874e+02  -2.030716e+01
  -9.482514e+01  -2.201036e+02
   1.537610e+02  -1.888973e+02
   1.863296e+02  -3.844995e+01
   9.829815e+01   5.747071e+01
  -3.014695e+01   1.513422e+02
  -2.469440e+01   7.850129e+01
  -3.763574e+01   3.782106e+01
   2.336787e+01  -1.166001e+01
   7.933866e+01   2.399310e+01
   1.696977e+01   1.180465e+02
  -1.046018e+02   9.938439e+01
  -2.049036e+02  -2.293279e+01
  -1.269368e+02  -1.418464e+02
   8.011392e+01  -1.064921e+02
   1.991411e+02   2.314631e+01
   8.911057e+01   1.089455e+02
  -8.390559e+01   1.276035e+02
  -1.465308e+02   3.933625e+01
  -1.076875e+02  -7.468329e+01
  -8.683319e+00  -1.342715e+02
   6.869620e+01  -7.645493e+01
   5.333648e+01   7.797791e+01
  -5.146060e+01   1.289712e+02
  -1.200271e+02  -1.712289e+00
  -6.601861e+01  -1.895747e+02
   8.221237e+01  -1.914689e+02
   1.644472e+02   1.754988e+01
   5.401258e+01   1.530524e+02
  -8.542678e+01   8.311417e+01
  -1.023953e+02  -1.072342e+02
   2.897237e+01  -1.572998e+02
   1.512735e+02  -2.420829e+01
   1.578355e+02   1.186964e+02
   3.676038e+01   1.515932e+02
  -1.068999e+02   7.166289e+01
  -1.619909e+02  -3.487001e+01
  -8.471384e+01  -1.047300e+02
   5.379997e+01  -8.862863e+01
   1.176106e+02  -2.659962e+00
   5.698613e+01   5.696180e+01
  -3.575527e+01   2.135346e+01
  -3.612515e+01  -4.721588e+01
   4.403091e+01  -4.340439e+01
   8.358220e+01   3.352675e+01
   2.485997e+01   8.108853e+01
  -5.977578e+01   4.932145e+01
  -8.078204e+01  -5.565251e+00
  -3.718215e+01  -3.057534e+01
   1.804597e+01  -4.548318e+01
   5.894316e+01  -6.572085e+01
   8.111476e+01  -4.748226e+01
   6.918578e+01   3.439350e+01
   1.843384e+01   1.108932e+02
  -3.261034e+01   1.008324e+02
  -4.089855e+01   2.932679e+01
  -2.021485e+01  -9.601386e+00
  -1.799597e+01   8.666371e+00
  -4.379903e+01   2.284760e+01
  -5.826892e+01  -1.362796e+01
  -3.462603e+01  -6.192362e+01
   1.346340e+01  -6.043534e+01
   5.099365e+01  -5.208741e+00
   4.848379e+01   5.270490e+01
  -4.640153e-01   6.849201e+01
  -6.851624e+01   2.663875e+01
  -9.005716e+01  -4.468437e+01
  -4.348760e+01  -8.916771e+01
   2.976435e+01  -7.598817e+01
   5.981982e+01  -2.328753e+01
   3.853324e+01  -6.034717e-01
   2.538726e+01  -8.970324e+00
   5.649711e+01  -1.552498e+01
   9.152580e+01   1.804301e+01
   7.189289e+01   7.553910e+01
  -5.926940e+00   1.042644e+02
  -8.480521e+01   9.031090e+01
  -1.132003e+02   4.042584e+01
  -7.727439e+01  -2.466086e+01
  -1.020877e+01  -7.052519e+01
   3.404076e+01  -5.937416e+01
   2.516549e+01  -6.906429e+00
  -2.357363e+01   2.428241e+01
  -4.605376e+01   2.301749e-02
  -9.364783e+00  -4.179879e+01
   4.011416e+01  -3.484896e+01
   4.052846e+01   1.811688e+01
  -9.821832e+00   4.454333e+01
  -4.751291e+01   2.069536e+00
  -3.376677e+01  -6.164975e+01
   1.307353e+01  -7.936054e+01
   5.595748e+01  -3.896439e+01
   7.304276e+01   2.127381e+01
   6.049627e+01   5.810493e+01
   1.745963e+01   6.104469e+01
  -2.992906e+01   3.465210e+01
  -4.199210e+01   2.028327e+00
  -1.346915e+01  -8.868058e+00
   1.507024e+01   9.552432e+00
   4.789487e+00   2.934710e+01
  -2.851167e+01   2.046401e+01
  -3.837794e+01  -6.367835e+00
  -1.132094e+01  -1.639460e+01
   1.769341e+01   6.637586e-01
   1.083747e+01   1.974170e+01
  -2.842878e+01   1.813016e+01
  -6.332737e+01  -3.158900e+00
  -6.007544e+01  -3.218457e+01
  -1.537021e+01  -5.625362e+01
   4.151835e+01  -5.894965e+01
   6.700419e+01  -2.935587e+01
   4.209285e+01   1.214996e+01
  -4.984605e+00   2.641769e+01
  -2.236896e+01   2.427738e+00
   6.628746e+00  -2.287020e+01
   4.509991e+01  -1.134827e+01
   4.814350e+01   2.721506e+01
   1.336746e+01   5.001356e+01
  -2.438089e+01   3.598521e+01
  -3.468963e+01   5.071913e+00
  -1.793305e+01  -1.078876e+01
   3.393768e+00  -1.420241e+00
   5.758713e+00   1.785905e+01
  -1.693992e+01   2.344876e+01
  -4.411546e+01   3.734670e+00
  -4.183482e+01  -3.048886e+01
  -2.167512e+00  -5.050331e+01
   4.036217e+01  -3.623601e+01
   4.581312e+01   7.544745e-01
   1.388768e+01   2.806499e+01
  -1.716276e+01   2.664818e+01
  -2.043134e+01   7.499234e+00
  -5.093574e+00  -5.976242e+00
   3.554520e+00  -4.149421e+00
  -3.343326e+00   8.487631e-01
  -1.663447e+01  -2.970132e+00
  -1.990214e+01  -2.001806e+01
  -2.411219e+00  -3.782185e+01
   3.063168e+01  -3.554817e+01
   5.580421e+01  -4.490090e+00
   4.671566e+01   3.863901e+01
   6.428676e+00   5.910720e+01
  -2.981567e+01   4.009509e+01
  -3.390604e+01   2.872689e+00
  -1.680278e+01  -1.638888e+01
  -6.234352e+00  -9.483887e+00
  -1.356942e+01   1.183410e+00
  -1.997103e+01  -1.416231e+00
  -8.956846e+00  -1.393943e+01
   1.263356e+01  -2.073776e+01
   2.714446e+01  -1.155709e+01
   2.113092e+01   8.718811e+00
  -2.404444e+00   2.468365e+01
  -3.277378e+01   1.946794e+01
  -4.545631e+01  -1.125127e+01
  -2.185097e+01  -4.614189e+01
   2.578926e+01  -5.101448e+01
   6.278821e+01  -1.951445e+01
   5.864486e+01   2.339215e+01
   2.323472e+01   4.300439e+01
  -1.092904e+01   3.451808e+01
  -2.497541e+01   1.798294e+01
  -2.219198e+01   1.411465e+01
  -1.944683e+01   1.901696e+01
  -2.298704e+01   1.484685e+01
  -2.800905e+01  -7.524913e+00
  -2.372916e+01  -3.769459e+01
  -3.928143e+00  -5.364785e+01
   2.414837e+01  -4.014369e+01
   4.069539e+01  -3.655165e+00
   3.113782e+01   2.985525e+01
   3.963166e+00   3.795129e+01
  -1.618883e+01   2.135984e+01
  -1.491878e+01   2.877115e-02
  -1.883012e+00  -9.164464e+00
   2.055121e+00  -8.074015e+00
  -7.923290e+00  -6.665301e+00
  -1.716616e+01  -8.685690e+00
  -8.835099e+00  -1.030038e+01
   1.569199e+01  -6.386671e+00
   3.668212e+01   2.931803e+00
   3.289821e+01   1.396196e+01
   3.471108e+00   2.015226e+01
  -2.807079e+01   1.570767e+01
  -3.380904e+01   2.014175e+00
  -1.142443e+01  -9.583294e+00
   1.428314e+01  -7.640301e+00
   1.730766e+01   5.980458e+00
   3.334455e-01   1.688324e+01
  -1.489790e+01   1.289355e+01
  -1.563408e+01  -2.683318e+00
  -9.376807e+00  -1.431818e+01
  -8.281195e+00  -1.162190e+01
  -1.282813e+01  -1.447618e+00
  -1.423025e+01  -7.760227e-01
  -5.907944e+00  -1.579833e+01
   1.097193e+01  -3.247344e+01
   2.965418e+01  -2.985799e+01
   3.815808e+01  -3.754429e+00
   2.662085e+01   2.393150e+01
  -6.112857e-01   2.987834e+01
  -2.120348e+01   1.313393e+01
  -1.444075e+01  -4.557520e+00
   1.298336e+01  -4.016023e+00
   3.098576e+01   1.191785e+01
   1.703786e+01   2.598070e+01
  -1.931826e+01   2.524661e+01
  -4.523183e+01   9.907536e+00
  -3.884960e+01  -9.819150e+00
  -8.872863e+00  -2.101462e+01
   1.535287e+01  -1.637557e+01
   1.310544e+01  -1.412307e+00
  -8.217338e+00   6.666061e+00
  -2.128647e+01  -5.035544e+00
  -7.640941e+00  -2.774393e+01
   2.273890e+01  -3.595509e+01
   4.091396e+01  -1.346833e+01
   2.936293e+01   2.553507e+01
  -2.540730e-01   4.805896e+01
  -2.295789e+01   3.399343e+01
  -2.512184e+01  -3.181693e+00
  -1.292536e+01  -2.971139e+01
   1.406888e+00  -2.588573e+01
   1.055826e+01  -4.145178e+00
   1.195942e+01   8.452409e+00
   6.676101e+00   2.533016e+00
   1.318547e+00  -5.279578e+00
   4.095407e+00   3.042155e+00
   1.183875e+01   2.086031e+01
   9.676237e+00   2.632774e+01
  -1.031206e+01   1.074106e+01
  -3.192131e+01  -1.038668e+01
  -3.035821e+01  -1.821184e+01
  -3.981984e+00  -1.190593e+01
   2.140718e+01  -3.895173e+00
   2.138909e+01  -9.474062e-02
   1.857884e+00   2.338712e+00
  -1.039082e+01   4.563107e+00
  -4.141280e+00   3.480680e+00
   5.193899e+00  -7.753552e-01
  -8.275156e-01  -2.546167e+00
  -1.717211e+01  -2.111036e+00
  -2.084054e+01  -7.272038e+00
   7.382842e-02  -1.950180e+01
   3.066625e+01  -2.522495e+01
   4.521226e+01  -9.898845e+00
   3.211832e+01   1.966924e+01
   2.807598e+00   3.936305e+01
  -2.179258e+01   3.365811e+01
  -2.831099e+01   1.113723e+01
  -1.871883e+01  -6.681362e+00
  -5.026938e+00  -8.628265e+00
   1.328422e+00  -2.117412e+00
  -2.038119e+00  -1.470982e+00
  -7.170172e+00  -1.128117e+01
  -4.468862e+00  -2.110263e+01
   7.422160e+00  -1.625169e+01
   1.864527e+01   5.239064e+00
   1.676542e+01   2.615465e+01
  -5.385033e-01   2.639693e+01
  -1.992871e+01   4.291201e+00
  -2.305287e+01  -1.991579e+01
  -5.601785e+00  -2.568461e+01
   1.707314e+01  -1.216651e+01
   2.321740e+01   5.177273e+00
   8.093206e+00   1.342089e+01
  -9.080394e+00   1.170692e+01
  -8.184811e+00   5.496026e+00
   7.664791e+00  -4.453681e-01
   1.612442e+01  -1.255588e+00
   3.426124e+00   5.303363e+00
  -1.860987e+01   1.352477e+01
  -2.678245e+01   1.190119e+01
  -1.386669e+01  -3.202786e+00
   5.193323e+00  -1.870388e+01
   1.344679e+01  -1.768917e+01
   8.650340e+00  -6.357541e-01
  -5.726443e-01   1.323815e+01
  -6.525550e+00   9.592297e+00
  -8.410885e+00  -5.002563e+00
  -5.577726e+00  -1.320982e+01
   1.120562e+00  -7.588897e+00
   8.030753e+00   2.620918e+00
   9.455022e+00   5.504503e+00
   5.004323e+00   7.853152e-01
  -8.688722e-02  -2.999981e+00
  -1.930164e+00   9.355484e-01
  -2.537340e+00   8.383760e+00
  -4.562536e+00   9.816392e+00
  -7.554470e+00   7.016549e-01
  -6.093191e+00  -1.148702e+01
   1.950470e+00  -1.438582e+01
   1.129704e+01  -4.028361e+00
   1.289582e+01   1.037106e+01
   2.616380e+00   1.533963e+01
  -1.355314e+01   7.434564e+00
  -2.087604e+01  -4.917083e+00
  -1.129180e+01  -1.101799e+01
   6.951411e+00  -9.028534e+00
   1.539604e+01  -4.186776e+00
   5.977024e+00  -1.316956e+00
  -8.292481e+00  -1.868367e+00
  -8.073695e+00  -4.681389e+00
   8.055056e+00  -6.752835e+00
   2.216344e+01  -2.552547e+00
