
 $NMID
 id='ANONYMOUS ', fmtdat='(2E16.6)'
 volume=1.0
 tramp=1.0
 $END
  -3.590486e+03   3.011604e+02
  -2.382084e+03  -2.081422e+03
   5.980773e+02  -2.523907e+03
   1.790913e+03  -6.856200e+02
   8.642262e+02   3.898259e+02
  -5.106162e+02   5.307986e+02
  -7.708665e+02  -2.599608e+02
  -5.239902e+01  -7.858831e+02
   6.275435e+02  -7.193527e+02
   8.320437e+02   6.007206e+01
   3.269027e+02   7.893756e+02
  -2.347145e+02   7.924810e+02
  -5.522374e+02   1.406580e+02
  -3.374744e+02  -6.620582e+02
   2.545802e+02  -6.658345e+02
   5.523988e+02  -3.397243e+01
   2.157029e+02   6.569322e+02
  -2.856641e+02   6.173003e+02
  -5.800394e+02   8.819937e+01
  -3.339500e+02  -3.190985e+02
  -9.264011e+00  -3.697736e+02
   2.355019e+02  -2.001278e+02
   2.028109e+02   3.365187e+01
  -1.182236e+02   5.823564e+01
  -3.680273e+02  -1.063436e+02
  -1.808506e+02  -3.805808e+02
   3.856310e+02  -3.474089e+02
   7.135251e+02   5.013597e+01
   3.458167e+02   4.943206e+02
  -3.235408e+02   4.501064e+02
  -6.435203e+02  -7.773506e+00
  -2.953313e+02  -4.247489e+02
   2.485118e+02  -4.667048e+02
   4.809712e+02  -2.028288e+02
   3.491117e+02   1.852860e+02
   4.251095e+01   3.857738e+02
  -1.738360e+02   2.454817e+02
  -1.231511e+02  -1.825437e+02
   1.705672e+02  -3.640613e+02
   4.012357e+02   2.999813e+01
   2.050456e+02   6.133914e+02
  -3.055326e+02   6.011020e+02
  -5.407991e+02  -1.676011e+01
  -2.231732e+02  -5.047610e+02
   2.679920e+02  -2.804248e+02
   3.421608e+02   3.008064e+02
  -4.940482e+01   4.934715e+02
  -4.843572e+02   1.316292e+02
  -5.127908e+02  -3.486829e+02
  -1.469895e+02  -5.148037e+02
   3.261670e+02  -3.013038e+02
   5.403870e+02   6.698540e+01
   3.179873e+02   3.380620e+02
  -1.399604e+02   3.150148e+02
  -3.828671e+02   3.937682e+01
  -1.994511e+02  -1.764729e+02
   1.109915e+02  -8.958409e+01
   1.183873e+02   1.428951e+02
  -1.622602e+02   1.648593e+02
  -3.168426e+02  -7.142712e+01
  -1.263041e+02  -2.694434e+02
   1.777692e+02  -2.331666e+02
   2.835332e+02  -7.390041e+01
   1.690577e+02   6.115818e+01
  -1.350810e+01   1.858374e+02
  -1.830250e+02   2.819184e+02
  -2.954593e+02   1.892114e+02
  -2.570983e+02  -1.251948e+02
  -5.952806e+01  -3.877615e+02
   1.180474e+02  -3.358721e+02
   1.154250e+02  -9.099571e+01
   2.023806e+01   1.775915e+01
   3.605915e+01  -7.315892e+01
   1.735708e+02  -1.124887e+02
   2.434548e+02   4.786445e+01
   1.345641e+02   2.383892e+02
  -6.547778e+01   2.267866e+02
  -1.962114e+02   1.126638e+01
  -1.683206e+02  -2.070765e+02
   7.889150e+00  -2.568384e+02
   2.257425e+02  -9.964974e+01
   3.097606e+02   1.495608e+02
   1.555243e+02   3.094908e+02
  -9.112422e+01   2.632681e+02
  -1.986471e+02   9.886637e+01
  -1.240314e+02   1.645757e+00
  -7.529078e+01   3.521098e+01
  -2.030294e+02   6.096483e+01
  -3.537401e+02  -5.007021e+01
  -2.925726e+02  -2.507633e+02
   3.986613e+00  -3.835749e+02
   3.129496e+02  -3.541957e+02
   4.250932e+02  -1.678253e+02
   2.943352e+02   8.463803e+01
   4.739533e+01   2.586092e+02
  -1.169408e+02   2.169231e+02
  -7.504740e+01   1.853418e+01
   9.410467e+01  -9.642367e+01
   1.708978e+02   1.133443e+01
   3.641185e+01   1.782897e+02
  -1.470491e+02   1.468849e+02
  -1.543095e+02  -6.312846e+01
   2.474937e+01  -1.731306e+02
   1.737466e+02  -2.704632e+01
   1.374739e+02   2.147016e+02
  -3.393294e+01   2.975935e+02
  -1.948253e+02   1.640354e+02
  -2.710421e+02  -4.699861e+01
  -2.369351e+02  -1.966234e+02
  -8.836393e+01  -2.272062e+02
   9.254019e+01  -1.463177e+02
   1.570500e+02  -2.280992e+01
   5.752716e+01   3.015473e+01
  -5.894517e+01  -2.844882e+01
  -2.731629e+01  -1.059781e+02
   1.075842e+02  -8.586664e+01
   1.566921e+02   1.248814e+01
   5.171113e+01   6.585107e+01
  -7.002952e+01   1.861374e+01
  -5.075524e+01  -5.771596e+01
   1.003193e+02  -7.078988e+01
   2.347092e+02  -1.217034e+00
   2.206157e+02   1.125752e+02
   5.138312e+01   2.110846e+02
  -1.543955e+02   2.212612e+02
  -2.388421e+02   1.098849e+02
  -1.419702e+02  -4.334977e+01
   2.462029e+01  -9.425251e+01
   7.962355e+01  -5.720068e+00
  -2.853554e+01   9.055447e+01
  -1.686386e+02   5.445557e+01
  -1.833593e+02  -8.630674e+01
  -5.963056e+01  -1.783101e+02
   7.992169e+01  -1.355070e+02
   1.232982e+02  -2.405647e+01
   6.190348e+01   3.783358e+01
  -2.316047e+01   5.726480e+00
  -3.473813e+01  -6.915272e+01
   5.623324e+01  -9.727849e+01
   1.656135e+02  -2.767505e+01
   1.641938e+02   1.025797e+02
   2.062356e+01   1.857625e+02
  -1.396507e+02   1.411572e+02
  -1.662565e+02   5.520074e+00
  -5.673769e+01  -9.829093e+01
   5.638370e+01  -9.633376e+01
   7.134153e+01  -2.734819e+01
   1.794614e+01   2.160966e+01
  -1.675604e+01   1.736274e+01
   6.694003e+00  -4.444017e+00
   5.630880e+01   7.798209e+00
   7.313843e+01   6.502937e+01
   1.677262e+01   1.287282e+02
  -1.011476e+02   1.280032e+02
  -1.959639e+02   2.644348e+01
  -1.740214e+02  -1.216956e+02
  -3.837317e+01  -1.994575e+02
   9.266309e+01  -1.471653e+02
   1.158228e+02  -2.595031e+01
   5.930624e+01   4.638088e+01
   2.409579e+01   3.024814e+01
   4.590105e+01  -1.176812e+01
   6.848576e+01  -7.894253e+00
   3.571886e+01   4.008445e+01
  -3.177757e+01   7.497552e+01
  -8.083237e+01   5.013232e+01
  -7.007754e+01  -2.469119e+01
   6.121047e+00  -8.947060e+01
   1.116760e+02  -7.361753e+01
   1.621873e+02   3.788758e+01
   8.864802e+01   1.653771e+02
  -8.361649e+01   1.928272e+02
  -2.219979e+02   8.382626e+01
  -2.184862e+02  -7.044704e+01
  -9.496791e+01  -1.501335e+02
   3.317332e+01  -1.248297e+02
   8.219989e+01  -7.082088e+01
   6.878987e+01  -5.783029e+01
   5.610628e+01  -7.559305e+01
   7.542770e+01  -6.172193e+01
   1.061617e+02   1.841096e+01
   9.940253e+01   1.285185e+02
   2.697289e+01   1.891927e+02
  -8.106770e+01   1.460541e+02
  -1.484908e+02   2.060100e+01
  -1.181108e+02  -9.989750e+01
  -2.062646e+01  -1.348897e+02
   5.344892e+01  -8.099299e+01
   5.027875e+01  -3.728567e+00
   6.381670e+00   3.504813e+01
  -6.683063e+00   2.956828e+01
   3.002662e+01   1.487391e+01
   6.476104e+01   1.680924e+01
   3.771809e+01   2.982402e+01
  -5.026182e+01   3.135294e+01
  -1.295688e+02   5.423131e+00
  -1.215150e+02  -4.003814e+01
  -1.713208e+01  -7.385810e+01
   9.849985e+01  -6.413981e+01
   1.227819e+02  -1.393232e+01
   4.319422e+01   3.229595e+01
  -4.946370e+01   3.086479e+01
  -6.414308e+01  -1.477675e+01
  -7.722669e+00  -5.555131e+01
   4.540060e+01  -4.780813e+01
   5.190221e+01  -3.476287e-02
   3.716952e+01   3.888582e+01
   3.828799e+01   3.340307e+01
   5.366145e+01   1.742851e+00
   5.600264e+01   2.400015e-01
   2.943235e+01   5.539496e+01
  -2.598645e+01   1.213164e+02
  -9.428433e+01   1.204366e+02
  -1.354488e+02   3.167339e+01
  -1.041378e+02  -7.365965e+01
  -8.091206e+00  -1.058444e+02
   7.039983e+01  -5.371623e+01
   5.043891e+01   1.121122e+01
  -4.902618e+01   1.740150e+01
  -1.156325e+02  -3.457666e+01
  -6.476860e+01  -8.914751e+01
   6.708773e+01  -9.581935e+01
   1.614525e+02  -4.657492e+01
   1.388365e+02   2.657417e+01
   3.334413e+01   7.387570e+01
  -5.042165e+01   6.198325e+01
  -4.193612e+01   8.051827e+00
   3.125397e+01  -2.232010e+01
   7.499411e+01   1.808878e+01
   2.818733e+01   9.946110e+01
  -7.498900e+01   1.302804e+02
  -1.392936e+02   5.357557e+01
  -1.072526e+02  -8.382434e+01
  -1.158281e+01  -1.663018e+02
   6.904114e+01  -1.225278e+02
   8.821226e+01   4.099221e+00
   5.403231e+01   9.899747e+01
   1.609592e+00   9.061667e+01
  -3.811064e+01   1.790448e+01
  -4.515998e+01  -2.664391e+01
  -2.279569e+01  -7.927739e+00
  -2.800537e+00   1.794295e+01
  -1.632732e+01  -1.070224e+01
  -4.718442e+01  -7.280865e+01
  -3.709290e+01  -9.184620e+01
   3.757020e+01  -3.910185e+01
   1.158013e+02   3.173994e+01
   1.101263e+02   5.822058e+01
   1.573333e+01   4.081963e+01
  -7.377916e+01   1.872433e+01
  -7.449884e+01   7.303671e+00
  -8.930039e+00  -5.407566e+00
   3.304556e+01  -1.910525e+01
   1.271198e+01  -1.632942e+01
  -1.750231e+01   9.890519e-01
   4.926203e+00   8.855359e+00
   6.182940e+01   5.166331e+00
   7.550154e+01   2.086571e+01
   5.352656e+00   6.653950e+01
  -1.001969e+02   9.431593e+01
  -1.549558e+02   4.822299e+01
  -1.179951e+02  -5.639746e+01
  -2.212239e+01  -1.354592e+02
   6.454225e+01  -1.259476e+02
   9.455807e+01  -5.015977e+01
   6.789587e+01   1.667812e+01
   2.167584e+01   2.849738e+01
  -1.977859e+00   6.615071e+00
   8.815415e+00   3.100911e+00
   2.848988e+01   3.798623e+01
   2.002768e+01   7.492936e+01
  -2.385291e+01   5.932901e+01
  -6.745266e+01  -1.559809e+01
  -6.383992e+01  -8.970928e+01
  -3.352855e+00  -9.238027e+01
   6.844481e+01  -1.910500e+01
   8.542734e+01   6.257276e+01
   2.722538e+01   8.548579e+01
  -5.455583e+01   4.632447e+01
  -8.173354e+01  -8.821602e+00
  -3.426957e+01  -4.124628e+01
   2.581361e+01  -4.362020e+01
   2.637342e+01  -2.514443e+01
  -2.684735e+01  -8.071496e-01
  -5.663659e+01   6.010725e+00
  -1.261812e+01  -1.953911e+01
   6.503844e+01  -5.452700e+01
   9.565138e+01  -5.002240e+01
   5.314431e+01   8.429939e+00
  -1.280718e+01   6.860643e+01
  -4.343177e+01   6.656980e+01
  -3.022287e+01   5.310695e+00
  -8.652683e-01  -4.649818e+01
   2.162374e+01  -3.580055e+01
   3.055255e+01   1.531270e+01
   2.259048e+01   4.499193e+01
  -1.945512e+00   2.736246e+01
  -2.797408e+01  -6.452221e+00
  -3.403114e+01  -1.650020e+01
  -1.791600e+01  -6.458249e-01
   9.872917e-01   1.040619e+01
   7.210270e+00  -4.127596e+00
   6.931706e+00  -3.054732e+01
   1.430086e+01  -3.561348e+01
   2.574626e+01  -4.906062e+00
   2.358996e+01   3.751638e+01
  -2.378396e+00   4.972900e+01
  -3.673013e+01   1.649370e+01
  -4.617186e+01  -3.276934e+01
  -1.187537e+01  -5.283438e+01
   4.548669e+01  -2.906626e+01
   7.400219e+01   1.193576e+01
   4.155242e+01   3.628910e+01
  -2.272865e+01   3.389239e+01
  -5.270887e+01   1.797527e+01
  -1.923531e+01   5.154451e+00
   3.139397e+01   3.656228e+00
   3.088807e+01   1.476988e+01
  -2.686692e+01   2.643707e+01
  -7.701177e+01   1.595280e+01
