
 $NMID
 id='ANONYMOUS ', fmtdat='(2E16.6)'
 volume=1.0
 tramp=1.0
 $END
  -4.002671e+03  -5.355697e-01
  -2.272961e+03  -2.190265e+03
   2.305925e+02  -2.242615e+03
   1.526122e+03  -1.022154e+03
   9.723267e+02   2.331274e+02
  -2.377439e+02   4.026500e+02
  -6.032428e+02  -2.302157e+02
   1.731638e+01  -7.084555e+02
   6.723358e+02  -6.547877e+02
   7.552304e+02  -4.552292e+00
   5.445852e+02   5.814344e+02
  -5.918205e+01   6.867216e+02
  -3.600790e+02   2.024800e+02
  -3.425144e+02  -4.836724e+02
   1.559456e+02  -6.120957e+02
   5.157060e+02  -1.125461e+01
   2.296084e+02   5.567648e+02
  -2.022778e+02   5.605445e+02
  -4.779322e+02   1.925400e+02
  -3.725192e+02  -2.405962e+02
  -8.378811e+01  -3.733759e+02
   1.771406e+02  -2.608010e+02
   1.105231e+02  -8.643940e+01
  -1.692607e+02  -4.144084e+01
  -3.282800e+02  -1.980631e+02
  -9.632598e+01  -3.592463e+02
   4.530478e+02  -3.004269e+02
   6.962220e+02   9.731042e+01
   3.165684e+02   4.155162e+02
  -3.301240e+02   3.132626e+02
  -5.613391e+02  -8.933383e+01
  -2.417883e+02  -4.055727e+02
   2.579140e+02  -3.843924e+02
   4.857413e+02  -1.614379e+02
   3.506845e+02   1.615270e+02
   8.246731e+01   3.429020e+02
  -9.586191e+01   2.316153e+02
  -3.840274e+01  -1.131445e+02
   1.719917e+02  -2.619635e+02
   3.041625e+02   7.999835e+01
   1.192163e+02   5.608345e+02
  -2.426283e+02   5.376197e+02
  -4.251960e+02   1.491321e+01
  -1.901697e+02  -3.859919e+02
   1.840327e+02  -2.010414e+02
   2.455314e+02   2.845723e+02
  -9.436211e+01   4.444990e+02
  -4.876364e+02   8.999167e+01
  -5.197655e+02  -3.728332e+02
  -1.540950e+02  -5.160974e+02
   3.193125e+02  -3.070259e+02
   5.403109e+02   3.997802e+01
   3.408384e+02   2.859290e+02
  -8.088312e+01   2.788818e+02
  -3.307926e+02   7.611150e+01
  -2.101386e+02  -9.651916e+01
   4.766179e+01  -5.963273e+01
   8.669471e+01   9.199498e+01
  -1.222597e+02   1.137504e+02
  -2.651532e+02  -5.494255e+01
  -1.197630e+02  -2.289899e+02
   1.721250e+02  -2.363210e+02
   3.216151e+02  -9.623699e+01
   2.192587e+02   9.062396e+01
  -2.495458e+01   2.603752e+02
  -2.502435e+02   3.261745e+02
  -3.399896e+02   1.779120e+02
  -2.517626e+02  -1.428271e+02
  -6.022831e+01  -3.790446e+02
   7.326652e+01  -3.390938e+02
   6.966407e+01  -1.431097e+02
   3.106434e+01  -4.925346e+01
   8.856860e+01  -9.542376e+01
   2.107979e+02  -8.622559e+01
   2.442894e+02   8.019190e+01
   1.176485e+02   2.464304e+02
  -7.398855e+01   2.134545e+02
  -1.925613e+02  -9.883822e+00
  -1.552183e+02  -2.253110e+02
   2.478652e+01  -2.555169e+02
   2.348363e+02  -8.443127e+01
   3.129219e+02   1.600574e+02
   1.690807e+02   3.083925e+02
  -7.121657e+01   2.693922e+02
  -1.878830e+02   1.279139e+02
  -1.384736e+02   3.652864e+01
  -1.132406e+02   4.896626e+01
  -2.429483e+02   5.208303e+01
  -3.903058e+02  -6.872302e+01
  -3.140459e+02  -2.738128e+02
   1.317749e+01  -4.208013e+02
   3.584895e+02  -3.864612e+02
   4.652470e+02  -1.776661e+02
   2.962462e+02   9.316846e+01
   3.273354e+01   2.589375e+02
  -1.075609e+02   2.173299e+02
  -4.178215e+01   3.869658e+01
   1.081306e+02  -6.573844e+01
   1.553214e+02   2.187144e+01
   2.901804e+01   1.593900e+02
  -1.311707e+02   1.338489e+02
  -1.416867e+02  -4.884504e+01
   1.307416e+01  -1.506914e+02
   1.660766e+02  -1.794544e+01
   1.546511e+02   2.246635e+02
  -1.998422e+01   3.263299e+02
  -2.263157e+02   1.937609e+02
  -3.308607e+02  -5.548240e+01
  -2.693969e+02  -2.393485e+02
  -7.474889e+01  -2.603455e+02
   1.162647e+02  -1.472376e+02
   1.563927e+02  -1.491506e+01
   4.493664e+01   1.885242e+01
  -5.475892e+01  -5.091842e+01
  -7.923580e+00  -1.149417e+02
   1.214558e+02  -7.829810e+01
   1.576237e+02   1.918068e+01
   4.537105e+01   6.017209e+01
  -7.371458e+01   3.446962e+00
  -4.164098e+01  -7.306337e+01
   1.307655e+02  -7.410992e+01
   2.752903e+02   1.779364e+01
   2.419727e+02   1.492392e+02
   3.417408e+01   2.434234e+02
  -1.924461e+02   2.313164e+02
  -2.643986e+02   1.037586e+02
  -1.444503e+02  -4.641843e+01
   2.834820e+01  -8.922137e+01
   7.435176e+01  -2.315311e+00
  -4.185121e+01   8.472670e+01
  -1.819993e+02   4.299648e+01
  -1.919441e+02  -9.768808e+01
  -6.060799e+01  -1.875902e+02
   8.698840e+01  -1.405898e+02
   1.288285e+02  -2.388977e+01
   5.643799e+01   3.580041e+01
  -3.246813e+01  -8.430434e+00
  -2.887938e+01  -9.096522e+01
   8.200520e+01  -1.093746e+02
   1.940128e+02  -1.916666e+01
   1.751635e+02   1.234324e+02
   1.348393e+01   2.035031e+02
  -1.517662e+02   1.495134e+02
  -1.735471e+02   8.650022e+00
  -5.806397e+01  -9.906129e+01
   5.894809e+01  -9.833044e+01
   7.151825e+01  -2.731727e+01
   9.031272e+00   2.285962e+01
  -2.867363e+01   1.280318e+01
   8.280266e+00  -1.594748e+01
   7.607416e+01   2.551120e+00
   9.298949e+01   8.095339e+01
   1.327951e+01   1.571315e+02
  -1.277316e+02   1.451216e+02
  -2.247474e+02   1.738835e+01
  -1.875857e+02  -1.455081e+02
  -3.803534e+01  -2.204980e+02
   9.907127e+01  -1.577971e+02
   1.264713e+02  -3.092280e+01
   6.960162e+01   4.535484e+01
   3.132510e+01   3.224866e+01
   5.203344e+01  -1.104454e+01
   7.928940e+01  -6.016509e+00
   4.684716e+01   4.989991e+01
  -3.789310e+01   9.280639e+01
  -1.054575e+02   6.019458e+01
  -9.081601e+01  -3.593414e+01
   1.472005e+01  -1.119853e+02
   1.437140e+02  -8.102453e+01
   1.868858e+02   5.590431e+01
   8.366216e+01   1.953725e+02
  -1.111529e+02   2.112727e+02
  -2.531366e+02   8.264388e+01
  -2.375612e+02  -8.436858e+01
  -9.863405e+01  -1.644183e+02
   3.799446e+01  -1.351526e+02
   8.748770e+01  -7.798724e+01
   7.039639e+01  -6.660977e+01
   5.785576e+01  -8.820362e+01
   8.547198e+01  -7.284149e+01
   1.239322e+02   1.923584e+01
   1.129302e+02   1.462337e+02
   2.626058e+01   2.139673e+02
  -9.493699e+01   1.602834e+02
  -1.634598e+02   1.464118e+01
  -1.238595e+02  -1.183456e+02
  -1.326202e+01  -1.497869e+02
   6.724496e+01  -8.153559e+01
   5.794936e+01   7.942120e+00
  -2.240150e-01   4.745874e+01
  -1.932324e+01   3.406897e+01
   2.819574e+01   1.302268e+01
   7.670589e+01   1.682916e+01
   4.486999e+01   3.554157e+01
  -6.493421e+01   3.629935e+01
  -1.571197e+02   1.042393e+00
  -1.355870e+02  -5.397441e+01
  -5.912441e+00  -8.845312e+01
   1.207200e+02  -7.047502e+01
   1.367948e+02  -9.543003e+00
   4.394520e+01   4.351721e+01
  -5.579413e+01   4.009230e+01
  -7.309000e+01  -1.601958e+01
  -1.481179e+01  -6.725102e+01
   4.619968e+01  -6.017154e+01
   6.328336e+01  -1.825634e+00
   5.079520e+01   4.724040e+01
   4.482115e+01   4.092516e+01
   5.506872e+01   2.682170e+00
   6.172874e+01   1.317118e+00
   3.862476e+01   6.694503e+01
  -2.725713e+01   1.430270e+02
  -1.148558e+02   1.383980e+02
  -1.651126e+02   3.390648e+01
  -1.224630e+02  -8.728868e+01
  -6.201500e+00  -1.244682e+02
   8.289852e+01  -6.512384e+01
   5.784298e+01   9.758208e+00
  -5.362884e+01   1.949523e+01
  -1.259247e+02  -3.839452e+01
  -6.867928e+01  -9.959061e+01
   7.629161e+01  -1.042970e+02
   1.771771e+02  -4.580073e+01
   1.494324e+02   3.420005e+01
   3.194633e+01   7.966363e+01
  -5.841589e+01   6.090165e+01
  -4.510323e+01   2.399289e+00
   3.839307e+01  -2.779979e+01
   8.770490e+01   1.868974e+01
   3.614507e+01   1.101093e+02
  -7.803714e+01   1.476697e+02
  -1.515568e+02   6.572341e+01
  -1.202625e+02  -8.727094e+01
  -1.594905e+01  -1.821091e+02
   7.579599e+01  -1.340855e+02
   9.733530e+01   7.692534e+00
   5.550989e+01   1.110727e+02
  -5.934261e+00   9.748456e+01
  -4.620870e+01   1.630723e+01
  -4.696813e+01  -2.903899e+01
  -2.093471e+01  -6.744465e+00
  -4.661170e+00   1.723101e+01
  -2.374071e+01  -1.834003e+01
  -5.309008e+01  -8.443683e+01
  -3.462913e+01  -1.001919e+02
   4.831380e+01  -4.108095e+01
   1.288111e+02   3.498518e+01
   1.192399e+02   6.497223e+01
   1.795176e+01   4.871096e+01
  -7.815271e+01   2.412979e+01
  -8.223694e+01   7.670142e+00
  -1.442407e+01  -8.556959e+00
   3.325525e+01  -2.098564e+01
   1.563477e+01  -1.556619e+01
  -1.656667e+01   1.355517e+00
   4.771218e+00   6.154269e+00
   6.706294e+01   1.385790e+00
   8.832631e+01   2.227224e+01
   1.600502e+01   7.706628e+01
  -1.052684e+02   1.109980e+02
  -1.767782e+02   6.128306e+01
  -1.410085e+02  -5.688586e+01
  -3.015514e+01  -1.508377e+02
   7.333007e+01  -1.456400e+02
   1.082348e+02  -6.114253e+01
   7.633517e+01   1.792922e+01
   2.509026e+01   3.472556e+01
   8.981370e-01   1.070057e+01
   1.215518e+01   5.996701e+00
   3.018014e+01   4.474499e+01
   1.923310e+01   8.581095e+01
  -2.769508e+01   6.831718e+01
  -7.589804e+01  -1.488896e+01
  -7.554873e+01  -9.851461e+01
  -1.022406e+01  -1.053755e+02
   7.394080e+01  -2.795488e+01
   9.983667e+01   6.406742e+01
   3.623248e+01   9.663420e+01
  -6.041934e+01   5.813190e+01
  -9.576309e+01  -6.761194e+00
  -4.162340e+01  -5.014251e+01
   3.005316e+01  -5.434829e+01
   3.324579e+01  -2.874995e+01
  -2.748508e+01   1.970402e+00
  -6.354272e+01   7.462510e+00
  -1.516156e+01  -2.427710e+01
   7.402978e+01  -6.205323e+01
   1.113743e+02  -5.321356e+01
   6.467069e+01   1.338959e+01
  -1.272659e+01   8.030475e+01
  -5.245794e+01   7.863773e+01
  -4.015201e+01   1.012447e+01
  -5.446490e+00  -5.151110e+01
   2.304468e+01  -4.500420e+01
   3.537706e+01   1.202578e+01
   2.715699e+01   5.141682e+01
  -9.447309e-01   3.620289e+01
  -3.164026e+01  -4.722642e+00
  -3.951620e+01  -2.134616e+01
  -2.037236e+01  -3.095159e+00
   1.715385e+00   1.591351e+01
   5.771915e+00   2.471980e+00
  -2.144101e-01  -3.266029e+01
   6.733396e+00  -4.672814e+01
   2.792291e+01  -1.540419e+01
   3.577053e+01   3.635308e+01
   7.843126e+00   5.672834e+01
  -3.921689e+01   2.334239e+01
  -5.742865e+01  -3.189443e+01
  -1.796232e+01  -5.692365e+01
   5.144921e+01  -3.352982e+01
   8.538115e+01   1.094299e+01
   4.723671e+01   3.997977e+01
  -2.635348e+01   4.099870e+01
  -6.055764e+01   2.426595e+01
  -2.494709e+01   5.828209e+00
   3.026543e+01  -1.425749e+00
   3.300583e+01   9.269149e+00
  -2.480893e+01   2.642732e+01
  -7.893856e+01   2.034739e+01
