
 $NMID
 id='ANONYMOUS ', fmtdat='(2E16.6)'
 volume=1.0
 tramp=1.0
 $END
  -5.337205e+02  -8.561941e+01
  -3.380192e+02  -3.566265e+02
  -3.619120e+01  -4.188396e+02
   2.447229e+02  -2.052762e+02
   1.172981e+02   2.141006e+01
  -7.335705e+01   2.771424e+01
  -8.029838e+01  -4.588306e+01
  -2.342923e+01  -1.391761e+02
   8.497887e+01  -4.924360e+01
   3.946102e+01   1.053671e+00
   9.072160e+01   1.182500e+02
   2.258762e+01   1.478955e+02
  -3.640349e+00   7.665888e+01
  -9.003790e+01  -8.445019e+01
   5.127629e+01  -1.339984e+02
   8.953799e+01  -1.471208e+01
   4.391125e+01   1.053325e+02
  -6.030294e+01   1.188238e+02
  -7.798339e+01   1.402650e+01
  -4.730559e+01  -3.378604e+01
   6.325484e+00  -5.626859e+01
   1.678063e+01  -8.684501e+00
  -3.044539e+00  -2.168600e+01
   4.650269e+00   3.286166e-01
  -1.284512e+01   2.538790e+01
  -1.633923e+01  -6.321579e+00
   2.593745e+01  -3.921474e+01
   8.385572e+01  -1.017800e+01
   5.899919e+01   5.589576e+01
  -3.497446e+01   6.744510e+01
  -1.061515e+02   2.005212e+01
  -6.765896e+01  -4.738727e+01
   1.658547e+01  -6.837524e+01
   6.199990e+01  -3.743799e+01
   4.716652e+01   2.931061e+01
   2.690428e-01   6.318818e+01
  -3.297662e+01   4.835148e+01
  -2.767617e+01  -2.752223e+01
   2.248266e+01  -6.283186e+01
   6.215540e+01  -2.258086e+00
   2.976120e+01   1.035405e+02
  -5.521339e+01   1.080532e+02
  -8.886658e+01  -6.266642e+00
  -4.065932e+01  -8.326041e+01
   2.889685e+01  -5.714406e+01
   4.153860e+01   4.014238e+01
  -1.595366e+01   6.918395e+01
  -6.793923e+01   1.374424e+01
  -6.829424e+01  -5.371287e+01
  -1.632658e+01  -6.843090e+01
   4.172284e+01  -3.562537e+01
   7.404448e+01   3.701455e+00
   4.499621e+01   3.809525e+01
  -1.943913e+01   4.076708e+01
  -5.758984e+01   8.451478e+00
  -3.180531e+01  -2.657941e+01
   2.096397e+01  -1.679652e+01
   2.943126e+01   2.206942e+01
  -1.594880e+01   3.299025e+01
  -4.814631e+01  -8.591254e-01
  -2.166677e+01  -3.602205e+01
   2.795083e+01  -3.286102e+01
   3.987969e+01  -6.030305e+00
   1.262517e+01   1.365139e+01
  -1.103097e+01   2.396498e+01
  -1.715316e+01   3.164545e+01
  -2.208511e+01   2.551918e+01
  -2.986463e+01  -7.130786e+00
  -2.278663e+01  -4.244169e+01
  -1.123609e+00  -4.290183e+01
   1.378363e+01  -1.411894e+01
   1.348666e+01   2.180679e+00
   9.180201e+00  -9.832421e+00
   1.436594e+01  -1.911169e+01
   2.262811e+01  -3.092067e-01
   2.035681e+01   2.588024e+01
   5.936742e+00   2.815447e+01
  -1.475781e+01   5.807845e+00
  -1.984320e+01  -1.781942e+01
  -5.371738e+00  -2.592063e+01
   2.597357e+01  -1.339871e+01
   4.426905e+01   1.460628e+01
   2.999286e+01   3.732167e+01
  -6.182499e+00   3.942818e+01
  -2.888995e+01   2.052213e+01
  -2.244321e+01   1.044139e+01
  -1.792984e+01   1.251786e+01
  -2.898523e+01   1.094051e+01
  -4.559090e+01  -8.196534e+00
  -3.890582e+01  -3.697349e+01
  -4.245823e+00  -5.180175e+01
   3.324530e+01  -4.700220e+01
   4.850299e+01  -2.673495e+01
   3.691766e+01   2.034472e+00
   1.445141e+01   2.894647e+01
  -5.023182e+00   3.250548e+01
  -6.533536e+00   1.055780e+01
   7.003840e+00  -9.700522e+00
   1.702414e+01  -2.870312e+00
   6.026849e+00   1.827741e+01
  -1.411825e+01   2.017057e+01
  -1.853567e+01  -2.921113e+00
  -8.041565e-02  -1.932262e+01
   2.048580e+01  -5.224837e+00
   2.031963e+01   2.354502e+01
   6.562568e-01   3.707760e+01
  -2.170758e+01   2.404621e+01
  -3.389043e+01   7.974408e-01
  -3.253098e+01  -1.766098e+01
  -1.710421e+01  -2.462176e+01
   5.478104e+00  -1.895958e+01
   1.740755e+01  -5.793552e+00
   8.048006e+00   2.118883e+00
  -6.877790e+00  -3.706556e+00
  -5.983823e+00  -1.242644e+01
   1.033149e+01  -1.189910e+01
   1.793527e+01  -3.138905e-01
   6.769893e+00   6.776486e+00
  -7.707698e+00   2.947001e+00
  -6.366425e+00  -4.887851e+00
   1.009679e+01  -7.813960e+00
   2.479290e+01  -3.769772e+00
   2.533728e+01   5.198832e+00
   1.022388e+01   1.901990e+01
  -1.121957e+01   2.829615e+01
  -2.347778e+01   2.138785e+01
  -1.743225e+01   9.794648e-01
  -7.449927e-01  -1.245511e+01
   6.777464e+00  -4.169359e+00
  -3.761736e+00   1.058437e+01
  -1.908030e+01   9.990101e+00
  -2.179178e+01  -7.888178e+00
  -9.371781e+00  -2.164034e+01
   5.442972e+00  -1.828962e+01
   1.197900e+01  -5.176065e+00
   8.991261e+00   2.146540e+00
   1.386884e+00  -1.281816e+00
  -1.800272e+00  -8.107417e+00
   5.330107e+00  -1.097275e+01
   1.808276e+01  -3.685276e+00
   2.138483e+01   1.099841e+01
   6.095173e+00   2.282794e+01
  -1.427702e+01   1.997262e+01
  -2.123418e+01   3.117312e+00
  -9.536588e+00  -1.202560e+01
   4.910240e+00  -1.320766e+01
   8.754456e+00  -4.268851e+00
   3.413598e+00   2.259337e+00
  -4.548254e-01   1.598421e+00
   2.144030e+00   3.545194e-01
   7.412622e+00   2.802696e+00
   9.644902e+00   9.406374e+00
   3.185864e+00   1.576345e+01
  -1.204786e+01   1.584149e+01
  -2.567217e+01   5.208326e+00
  -2.420731e+01  -1.237909e+01
  -6.731051e+00  -2.454684e+01
   1.123240e+01  -2.053906e+01
   1.584260e+01  -5.177975e+00
   8.594760e+00   5.803417e+00
   3.732803e+00   4.898039e+00
   6.082755e+00  -4.409768e-01
   8.614228e+00  -1.190098e-01
   3.770399e+00   6.008537e+00
  -4.496833e+00   1.100715e+01
  -9.481773e+00   7.914239e+00
  -7.519203e+00  -1.932178e+00
   1.451094e-01  -1.108523e+01
   1.111472e+01  -1.052344e+01
   1.766892e+01   3.073621e+00
   1.137719e+01   1.943740e+01
  -6.862430e+00   2.511485e+01
  -2.518668e+01   1.312957e+01
  -2.764778e+01  -6.311586e+00
  -1.468997e+01  -1.747009e+01
   1.426113e+00  -1.637115e+01
   9.241653e+00  -1.060264e+01
   8.983697e+00  -9.114253e+00
   7.855466e+00  -1.022803e+01
   9.580970e+00  -7.729188e+00
   1.307723e+01   2.261708e+00
   1.308205e+01   1.499217e+01
   6.141106e+00   2.274396e+01
  -6.561116e+00   1.942126e+01
  -1.716363e+01   5.737209e+00
  -1.719399e+01  -9.258736e+00
  -6.949893e+00  -1.600174e+01
   4.090088e+00  -1.182997e+01
   6.997295e+00  -3.507894e+00
   3.220543e+00   2.194896e+00
   1.670562e+00   3.647880e+00
   5.624518e+00   3.502742e+00
   9.048302e+00   3.637483e+00
   4.344299e+00   4.346126e+00
  -7.019421e+00   4.430595e+00
  -1.647633e+01   2.609030e+00
  -1.532164e+01  -1.913895e+00
  -3.527828e+00  -7.327464e+00
   9.529875e+00  -9.221187e+00
   1.267125e+01  -4.966405e+00
   4.840867e+00   1.663663e+00
  -4.832395e+00   3.700804e+00
  -7.115022e+00  -1.427873e+00
  -1.456765e+00  -7.487210e+00
   4.647725e+00  -7.172123e+00
   7.242722e+00  -4.038319e-01
   6.578921e+00   4.858281e+00
   6.073741e+00   3.843610e+00
   5.880837e+00  -3.655069e-01
   5.397077e+00  -2.427757e-01
   3.134835e+00   6.779985e+00
  -1.599724e+00   1.465616e+01
  -9.085073e+00   1.471165e+01
  -1.557657e+01   4.759459e+00
  -1.351183e+01  -7.164189e+00
  -2.529649e+00  -1.180801e+01
   7.923060e+00  -7.208986e+00
   6.267214e+00   4.740478e-02
  -6.325792e+00   1.734751e+00
  -1.559529e+01  -3.553754e+00
  -9.294174e+00  -1.062981e+01
   8.267662e+00  -1.288006e+01
   2.144487e+01  -8.135150e+00
   1.948201e+01   1.229892e+00
   6.029399e+00   9.146789e+00
  -5.741264e+00   9.808258e+00
  -6.068775e+00   3.178664e+00
   2.787004e+00  -2.946209e+00
   9.400859e+00   2.969461e-01
   5.401337e+00   1.135998e+01
  -6.645035e+00   1.826370e+01
  -1.638381e+01   1.018669e+01
  -1.510643e+01  -8.666090e+00
  -4.753087e+00  -2.151586e+01
   6.191820e+00  -1.685487e+01
   1.122096e+01  -1.123315e-01
   8.834055e+00   1.247559e+01
   2.041534e+00   1.150602e+01
  -4.863449e+00   2.543367e+00
  -7.227523e+00  -2.521330e+00
  -3.873153e+00  -3.862730e-01
  -9.077603e-02   1.975698e+00
  -1.489793e+00  -1.963857e+00
  -6.496400e+00  -8.907225e+00
  -6.432861e+00  -1.065098e+01
   3.367637e+00  -4.837101e+00
   1.491860e+01   2.358755e+00
   1.516545e+01   5.267423e+00
   3.200685e+00   4.617546e+00
  -8.715646e+00   3.754590e+00
  -9.515137e+00   2.396303e+00
  -1.741121e+00  -2.309209e-01
   3.397020e+00  -2.691269e+00
   1.169870e+00  -2.191563e+00
  -2.281737e+00   5.032364e-01
   6.201925e-01   9.727854e-01
   7.644374e+00  -8.101906e-01
   9.424559e+00   1.013881e+00
   1.297003e+00   8.248732e+00
  -1.173964e+01   1.362892e+01
  -1.927796e+01   7.889943e+00
  -1.588279e+01  -6.552655e+00
  -4.268050e+00  -1.823813e+01
   7.043174e+00  -1.737688e+01
   1.204090e+01  -7.287070e+00
   9.451062e+00   1.614248e+00
   3.539290e+00   3.294135e+00
  -4.986787e-02   7.598036e-01
   1.009606e+00   5.929713e-01
   3.863868e+00   4.730809e+00
   3.486388e+00   8.980837e+00
  -1.696307e+00   7.548714e+00
  -8.248080e+00  -1.051209e+00
  -9.400802e+00  -1.029825e+01
  -1.797257e+00  -1.181707e+01
   8.636183e+00  -3.875917e+00
   1.225602e+01   6.705567e+00
   4.957400e+00   1.123934e+01
  -6.285204e+00   7.519799e+00
  -1.044448e+01   1.141351e-03
  -4.775065e+00  -5.457416e+00
   2.909018e+00  -6.080428e+00
   3.015908e+00  -2.994806e+00
  -3.148389e+00   9.105411e-01
  -6.750752e+00   1.766935e+00
  -1.689650e+00  -2.159290e+00
   6.989567e+00  -7.045808e+00
   1.038903e+01  -6.795076e+00
   6.199696e+00   4.332669e-01
  -5.325889e-01   8.140186e+00
  -4.057835e+00   8.363037e+00
  -3.673130e+00   1.131083e+00
  -1.189343e+00  -5.381575e+00
   1.606635e+00  -4.802811e+00
   4.062804e+00   1.031671e+00
   4.182120e+00   4.928663e+00
   1.027227e+00   3.502169e+00
  -3.238144e+00   8.308098e-02
  -4.641510e+00  -8.750585e-01
  -2.877735e+00   5.569248e-01
  -6.719575e-01   1.321327e+00
   2.973189e-01  -9.753025e-01
   7.099740e-01  -4.343619e+00
   2.290630e+00  -4.730404e+00
   3.913132e+00  -5.886671e-01
   3.305679e+00   5.037806e+00
  -6.302641e-01   6.823315e+00
  -5.341079e+00   2.607778e+00
  -6.554701e+00  -3.911228e+00
  -2.119270e+00  -6.874643e+00
   5.273949e+00  -4.361508e+00
   9.355637e+00   5.342438e-01
   5.863580e+00   3.724762e+00
  -1.979054e+00   4.077965e+00
  -5.944583e+00   2.648525e+00
  -1.990303e+00   1.029831e+00
   4.357907e+00   5.774197e-01
   4.374217e+00   1.972144e+00
  -2.793551e+00   4.407132e+00
  -9.621162e+00   3.990804e+00
