
 $NMID
 id='ANONYMOUS ', fmtdat='(2E16.6)'
 volume=1.0
 tramp=1.0
 $END
  -2.120402e+03  -2.092676e+02
  -1.678316e+03  -1.262882e+03
  -1.460703e+02  -1.608765e+03
   9.054996e+02  -1.165567e+03
   8.237742e+02  -1.966884e+02
   1.205319e+02   3.643059e+02
  -3.414807e+02  -6.975442e+01
  -1.409898e+02  -4.237033e+02
   3.106996e+02  -4.521695e+02
   5.931295e+02  -7.237748e+01
   3.922029e+02   4.693108e+02
  -1.356009e+00   5.807781e+02
  -3.692715e+02   1.895803e+02
  -3.254533e+02  -3.535635e+02
   1.093226e+02  -4.394646e+02
   3.364460e+02  -6.112957e+01
   2.956025e+02   4.450708e+02
  -1.669444e+02   5.057889e+02
  -3.998798e+02   2.426125e+02
  -4.324372e+02  -1.265763e+02
  -1.106165e+02  -2.722338e+02
   6.774415e+01  -2.303574e+02
   5.533116e+01  -9.666976e+01
  -1.489500e+02  -9.233313e+01
  -2.344110e+02  -2.257121e+02
   2.126033e+01  -3.094227e+02
   4.006410e+02  -1.481410e+02
   4.844379e+02   1.217133e+02
   1.755177e+02   2.971149e+02
  -2.702326e+02   1.930885e+02
  -4.166365e+02  -9.008139e+01
  -1.666070e+02  -3.121367e+02
   2.029719e+02  -3.215216e+02
   3.769319e+02  -1.255751e+02
   2.715203e+02   1.376900e+02
   7.751742e+01   2.650808e+02
  -2.606872e+01   1.621217e+02
   2.167127e+01  -6.738191e+01
   1.174552e+02  -1.284464e+02
   1.390586e+02   1.019995e+02
   2.276658e+01   3.949588e+02
  -1.699821e+02   3.773181e+02
  -2.581722e+02   2.678187e+01
  -1.128139e+02  -2.531227e+02
   8.323652e+01  -1.187825e+02
   1.335109e+02   2.181186e+02
  -9.277141e+01   3.314029e+02
  -3.613185e+02   5.082144e+01
  -4.186199e+02  -3.038329e+02
  -1.545939e+02  -4.185391e+02
   2.321687e+02  -2.362312e+02
   4.406415e+02   3.226249e+01
   3.127719e+02   1.953257e+02
  -1.811912e+01   1.956595e+02
  -2.454052e+02   8.922031e+01
  -2.038286e+02  -1.269596e+01
  -1.858332e+01  -2.736017e+01
   5.379579e+01   2.666904e+01
  -6.474051e+01   4.933316e+01
  -1.916749e+02  -2.834378e+01
  -1.202929e+02  -1.571301e+02
   1.218248e+02  -2.144690e+02
   3.013845e+02  -1.217829e+02
   2.358798e+02   8.905560e+01
  -2.299022e+01   2.845247e+02
  -2.580615e+02   3.168710e+02
  -3.110259e+02   1.411827e+02
  -1.995512e+02  -1.262858e+02
  -6.396959e+01  -2.943078e+02
  -2.786771e+00  -2.826113e+02
   7.793939e+00  -1.800220e+02
   4.829207e+01  -1.167109e+02
   1.428914e+02  -1.002107e+02
   2.189952e+02  -3.503347e+01
   1.967848e+02   1.068015e+02
   7.480264e+01   2.147763e+02
  -7.387455e+01   1.606988e+02
  -1.568725e+02  -3.464256e+01
  -1.181127e+02  -2.072406e+02
   3.076815e+01  -2.148883e+02
   2.061925e+02  -5.574420e+01
   2.635869e+02   1.425071e+02
   1.556472e+02   2.522979e+02
  -3.637658e+01   2.336631e+02
  -1.421056e+02   1.427801e+02
  -1.401760e+02   7.414767e+01
  -1.421429e+02   5.221460e+01
  -2.456075e+02   2.339393e+01
  -3.537921e+02  -8.180468e+01
  -2.758840e+02  -2.510989e+02
   1.767859e+01  -3.760494e+02
   3.186617e+02  -3.510161e+02
   4.038822e+02  -1.661587e+02
   2.449642e+02   7.206789e+01
   2.579701e+01   2.093547e+02
  -6.741019e+01   1.739061e+02
  -4.520337e+00   4.145327e+01
   9.546837e+01  -3.059848e+01
   1.072256e+02   2.452246e+01
   1.456486e+01   1.098867e+02
  -8.714033e+01   8.866081e+01
  -8.925035e+01  -3.265099e+01
   1.689617e+01  -9.635997e+01
   1.302130e+02   6.172403e+00
   1.306109e+02   1.992606e+02
  -1.450881e+01   2.919994e+02
  -2.123483e+02   1.820362e+02
  -3.196839e+02  -5.144488e+01
  -2.486322e+02  -2.295250e+02
  -5.474764e+01  -2.427260e+02
   1.110650e+02  -1.249035e+02
   1.297793e+02  -8.616826e+00
   3.193227e+01   9.202970e+00
  -4.194624e+01  -5.428702e+01
   1.347780e+00  -9.773617e+01
   1.007955e+02  -6.074876e+01
   1.224932e+02   1.392289e+01
   3.030582e+01   3.715824e+01
  -6.244924e+01  -1.571483e+01
  -2.431624e+01  -7.909600e+01
   1.353112e+02  -7.250377e+01
   2.643156e+02   2.193208e+01
   2.216544e+02   1.492797e+02
   2.177907e+01   2.280501e+02
  -1.797356e+02   2.025630e+02
  -2.299781e+02   8.561550e+01
  -1.185446e+02  -3.497389e+01
   2.152637e+01  -6.450153e+01
   5.033501e+01   1.540196e+00
  -4.687613e+01   6.315997e+01
  -1.561495e+02   2.473381e+01
  -1.592004e+02  -8.809757e+01
  -5.009398e+01  -1.577191e+02
   7.127140e+01  -1.143981e+02
   1.029475e+02  -1.632638e+01
   3.801002e+01   2.488410e+01
  -3.454108e+01  -2.645020e+01
  -1.862102e+01  -1.002806e+02
   8.935243e+01  -1.018793e+02
   1.852296e+02  -7.853288e+00
   1.581897e+02   1.176950e+02
   1.043644e+01   1.793976e+02
  -1.314015e+02   1.307894e+02
  -1.478585e+02   1.415225e+01
  -4.772638e+01  -7.640349e+01
   5.010536e+01  -7.983154e+01
   5.654575e+01  -2.169701e+01
  -2.851486e+00   1.992535e+01
  -3.336252e+01   5.031409e+00
   1.014538e+01  -2.552639e+01
   8.197021e+01  -2.548462e+00
   9.396551e+01   8.269801e+01
   7.312853e+00   1.566457e+02
  -1.272411e+02   1.333692e+02
  -2.060564e+02   6.605928e+00
  -1.646162e+02  -1.377348e+02
  -3.310452e+01  -1.954143e+02
   8.368230e+01  -1.369377e+02
   1.100038e+02  -2.951020e+01
   6.599581e+01   3.427076e+01
   3.191031e+01   2.376472e+01
   4.967788e+01  -1.162979e+01
   7.750775e+01  -3.509072e+00
   4.959171e+01   5.351517e+01
  -3.675259e+01   9.540374e+01
  -1.107463e+02   5.743249e+01
  -9.403889e+01  -4.406119e+01
   1.974096e+01  -1.168198e+02
   1.485133e+02  -7.554732e+01
   1.805817e+02   6.459373e+01
   7.043257e+01   1.907247e+02
  -1.120679e+02   1.918069e+02
  -2.329790e+02   6.838832e+01
  -2.120724e+02  -7.936474e+01
  -8.601237e+01  -1.446086e+02
   3.284485e+01  -1.183719e+02
   7.538086e+01  -7.018265e+01
   5.886372e+01  -6.324886e+01
   4.958055e+01  -8.500697e+01
   7.952272e+01  -7.128543e+01
   1.176729e+02   1.459104e+01
   1.068274e+02   1.330823e+02
   2.426035e+01   1.955918e+02
  -8.689018e+01   1.447655e+02
  -1.463487e+02   1.068006e+01
  -1.072606e+02  -1.092202e+02
  -6.027559e+00  -1.335657e+02
   6.622005e+01  -6.708694e+01
   5.401979e+01   1.534158e+01
  -4.937178e+00   4.784407e+01
  -2.517467e+01   3.068075e+01
   2.309935e+01   1.054408e+01
   7.375749e+01   1.766887e+01
   4.225826e+01   3.763359e+01
  -6.756804e+01   3.431677e+01
  -1.543488e+02  -5.246907e+00
  -1.248078e+02  -5.846855e+01
   4.116263e+00  -8.552211e+01
   1.187351e+02  -6.262041e+01
   1.252650e+02  -3.547649e+00
   3.691059e+01   4.466752e+01
  -5.230974e+01   3.985625e+01
  -6.850167e+01  -1.499267e+01
  -1.890329e+01  -6.591747e+01
   3.803267e+01  -6.007503e+01
   6.041680e+01  -3.131740e+00
   5.255108e+01   4.454581e+01
   4.284202e+01   3.749761e+01
   4.817190e+01  -1.395378e-01
   5.802448e+01   9.858031e-01
   4.144836e+01   6.618027e+01
  -2.232677e+01   1.366834e+02
  -1.119767e+02   1.287614e+02
  -1.609888e+02   2.889960e+01
  -1.157353e+02  -8.296002e+01
  -1.446386e+00  -1.162690e+02
   8.119991e+01  -6.120001e+01
   5.354917e+01   8.065330e+00
  -5.114240e+01   1.719798e+01
  -1.150896e+02  -3.573604e+01
  -5.933873e+01  -9.124637e+01
   7.307804e+01  -9.325083e+01
   1.620010e+02  -3.675363e+01
   1.323089e+02   3.562957e+01
   2.440865e+01   7.193853e+01
  -5.531592e+01   4.983548e+01
  -3.983526e+01  -3.724498e+00
   3.747787e+01  -2.873300e+01
   8.295149e+01   1.598895e+01
   3.739181e+01   1.014457e+02
  -6.596868e+01   1.388193e+02
  -1.355393e+02   6.571174e+01
  -1.111353e+02  -7.655212e+01
  -1.687595e+01  -1.664937e+02
   6.903760e+01  -1.217980e+02
   8.883742e+01   1.061522e+01
   4.662451e+01   1.039986e+02
  -1.218529e+01   8.744274e+01
  -4.466020e+01   1.138093e+01
  -3.812761e+01  -2.705036e+01
  -1.338164e+01  -4.886752e+00
  -4.940146e+00   1.486697e+01
  -2.724790e+01  -2.017275e+01
  -5.100255e+01  -7.824189e+01
  -2.776555e+01  -8.904599e+01
   4.941177e+01  -3.554427e+01
   1.179990e+02   3.117353e+01
   1.061315e+02   5.852572e+01
   1.602543e+01   4.624463e+01
  -6.920547e+01   2.383724e+01
  -7.408097e+01   5.374750e+00
  -1.526953e+01  -1.040249e+01
   2.892371e+01  -1.792401e+01
   1.615855e+01  -9.165163e+00
  -1.355778e+01   4.214157e+00
   1.674181e+00   2.537647e+00
   5.754170e+01  -5.016697e+00
   8.284944e+01   1.653713e+01
   2.329135e+01   7.187483e+01
  -8.955439e+01   1.072288e+02
  -1.639787e+02   6.297279e+01
  -1.367364e+02  -4.778658e+01
  -3.184116e+01  -1.386018e+02
   6.852105e+01  -1.373858e+02
   1.017244e+02  -5.963854e+01
   7.068398e+01   1.589104e+01
   2.350437e+01   3.392820e+01
   2.690958e+00   1.284367e+01
   1.197443e+01   7.799959e+00
   2.588870e+01   4.229957e+01
   1.593037e+01   7.870670e+01
  -2.421696e+01   6.315108e+01
  -6.847148e+01  -1.074537e+01
  -7.296739e+01  -8.599381e+01
  -1.629520e+01  -9.678579e+01
   6.455996e+01  -3.187562e+01
   9.519956e+01   5.284832e+01
   3.840105e+01   8.988656e+01
  -5.505723e+01   5.966920e+01
  -9.191137e+01  -4.161933e+00
  -4.110116e+01  -5.135351e+01
   2.977797e+01  -5.563254e+01
   3.531718e+01  -2.526319e+01
  -2.237597e+01   7.718282e+00
  -5.942660e+01   9.532135e+00
  -1.687321e+01  -2.432050e+01
   6.643764e+01  -5.864223e+01
   1.041328e+02  -4.702788e+01
   6.284100e+01   1.501352e+01
  -9.669915e+00   7.481310e+01
  -4.983947e+01   7.367138e+01
  -4.128247e+01   1.252028e+01
  -9.405545e+00  -4.566333e+01
   1.899068e+01  -4.442475e+01
   3.322454e+01   6.340136e+00
   2.724419e+01   4.635460e+01
   1.216517e+00   3.646190e+01
  -2.845518e+01  -2.821694e+00
  -3.686723e+01  -2.186407e+01
  -1.863092e+01  -3.840643e+00
   2.930892e+00   1.972899e+01
   4.085379e+00   1.009407e+01
  -6.830190e+00  -2.768534e+01
  -2.676406e+00  -4.932150e+01
   2.311798e+01  -2.368836e+01
   3.943252e+01   2.812466e+01
   1.565047e+01   5.277437e+01
  -3.401858e+01   2.479439e+01
  -5.698377e+01  -2.655109e+01
  -1.965184e+01  -5.168727e+01
   4.908162e+01  -3.232063e+01
   8.233827e+01   8.105737e+00
   4.524042e+01   3.689415e+01
  -2.504144e+01   4.092341e+01
  -5.781454e+01   2.644844e+01
  -2.656818e+01   5.842586e+00
   2.404032e+01  -5.944924e+00
   3.026640e+01   2.766832e+00
  -1.727433e+01   2.287835e+01
  -6.610051e+01   2.246932e+01
