
 $NMID
 id='ANONYMOUS ', fmtdat='(2E16.6)'
 volume=1.0
 tramp=1.0
 $END
  -3.034307e+03   1.859811e+02
  -2.111244e+03  -1.628894e+03
   1.519509e+02  -2.154843e+03
   1.554507e+03  -1.205856e+03
   9.288332e+02   6.327408e+01
  -1.872805e+01   3.863223e+02
  -4.308027e+02  -1.777897e+02
  -9.945997e+01  -5.907084e+02
   5.054879e+02  -6.676053e+02
   6.838415e+02  -6.715673e+01
   4.732877e+02   4.955450e+02
  -4.869344e+01   6.464271e+02
  -3.575121e+02   1.828711e+02
  -2.942772e+02  -4.376185e+02
   1.433966e+02  -5.661896e+02
   4.954339e+02  -1.323554e+02
   3.226359e+02   5.079875e+02
  -1.839984e+02   7.103770e+02
  -5.000985e+02   2.554582e+02
  -4.410032e+02  -2.449597e+02
  -1.154323e+02  -3.651160e+02
   1.289985e+02  -2.571680e+02
   1.041809e+02  -9.284639e+01
  -1.282184e+02  -5.719628e+01
  -2.520837e+02  -2.308924e+02
  -1.988167e+01  -3.859271e+02
   4.312241e+02  -1.854269e+02
   5.937315e+02   1.775931e+02
   2.581464e+02   3.785392e+02
  -2.937501e+02   2.582709e+02
  -5.231542e+02  -8.719799e+01
  -2.260522e+02  -3.791904e+02
   2.362213e+02  -3.725682e+02
   4.719973e+02  -1.525316e+02
   3.489530e+02   1.726028e+02
   7.539799e+01   3.380996e+02
  -6.925277e+01   1.971569e+02
  -2.244001e+00  -1.186958e+02
   1.761100e+02  -2.007582e+02
   2.437689e+02   1.005874e+02
   6.642193e+01   5.090256e+02
  -2.486969e+02   4.951767e+02
  -3.640061e+02   2.098294e+01
  -1.352554e+02  -3.479937e+02
   1.733536e+02  -1.715806e+02
   2.040459e+02   2.717195e+02
  -1.121608e+02   3.987548e+02
  -4.540945e+02   6.794120e+01
  -4.875876e+02  -3.690734e+02
  -1.500130e+02  -5.054046e+02
   3.175136e+02  -2.760075e+02
   5.421100e+02   6.967079e+01
   3.498599e+02   2.784136e+02
  -6.972587e+01   2.495748e+02
  -3.257674e+02   7.004225e+01
  -2.241601e+02  -6.716060e+01
   2.364366e+01  -3.863522e+01
   7.886011e+01   7.558913e+01
  -1.084806e+02   8.799461e+01
  -2.560340e+02  -5.715809e+01
  -1.306013e+02  -2.204314e+02
   1.689226e+02  -2.459598e+02
   3.471718e+02  -1.120771e+02
   2.475435e+02   1.008602e+02
  -3.194412e+01   2.906857e+02
  -2.783786e+02   3.383845e+02
  -3.433430e+02   1.659001e+02
  -2.247989e+02  -1.441193e+02
  -4.621868e+01  -3.564993e+02
   4.950226e+01  -3.236333e+02
   4.088095e+01  -1.594212e+02
   3.696510e+01  -7.505902e+01
   1.231620e+02  -9.490723e+01
   2.332850e+02  -5.731154e+01
   2.338173e+02   1.069337e+02
   8.962051e+01   2.480366e+02
  -9.340086e+01   1.913412e+02
  -1.878583e+02  -3.519929e+01
  -1.314107e+02  -2.339249e+02
   4.948876e+01  -2.446310e+02
   2.442484e+02  -6.395184e+01
   3.032785e+02   1.721593e+02
   1.611221e+02   2.996345e+02
  -6.391682e+01   2.666091e+02
  -1.746964e+02   1.504677e+02
  -1.465346e+02   7.178697e+01
  -1.407034e+02   6.447465e+01
  -2.688078e+02   3.876945e+01
  -4.043254e+02  -9.702810e+01
  -3.179309e+02  -3.003718e+02
   2.515514e+01  -4.273386e+02
   3.721346e+02  -3.767378e+02
   4.658595e+02  -1.646586e+02
   2.839834e+02   9.542379e+01
   2.526026e+01   2.461721e+02
  -9.649334e+01   1.995460e+02
  -2.450494e+01   3.866116e+01
   1.058920e+02  -4.835388e+01
   1.318356e+02   3.163852e+01
   1.320697e+01   1.481797e+02
  -1.206601e+02   1.117500e+02
  -1.179560e+02  -5.679087e+01
   2.713379e+01  -1.412647e+02
   1.612367e+02  -2.764328e+00
   1.454176e+02   2.342502e+02
  -2.748271e+01   3.320765e+02
  -2.388690e+02   1.920061e+02
  -3.423238e+02  -6.707974e+01
  -2.639813e+02  -2.527728e+02
  -5.763917e+01  -2.633838e+02
   1.235621e+02  -1.389325e+02
   1.485764e+02  -9.473368e+00
   3.762491e+01   1.647388e+01
  -5.015412e+01  -5.357862e+01
  -2.506283e-01  -1.093776e+02
   1.181594e+02  -6.746354e+01
   1.427518e+02   2.519940e+01
   3.137869e+01   5.418587e+01
  -7.936508e+01  -1.418673e+01
  -3.608399e+01  -9.389333e+01
   1.461951e+02  -8.457637e+01
   2.935072e+02   2.632006e+01
   2.488056e+02   1.691332e+02
   2.567253e+01   2.552115e+02
  -2.033400e+02   2.265272e+02
  -2.635435e+02   9.416617e+01
  -1.357811e+02  -4.548336e+01
   2.944541e+01  -7.902956e+01
   6.411188e+01   2.888333e+00
  -5.110197e+01   7.924298e+01
  -1.799685e+02   3.409810e+01
  -1.820721e+02  -1.011906e+02
  -5.391837e+01  -1.824045e+02
   8.447575e+01  -1.304472e+02
   1.188606e+02  -1.555208e+01
   4.471010e+01   3.361466e+01
  -3.898281e+01  -2.288307e+01
  -2.511059e+01  -1.068730e+02
   9.354834e+01  -1.130050e+02
   2.042731e+02  -1.057487e+01
   1.775286e+02   1.319279e+02
   9.930104e+00   2.036489e+02
  -1.538482e+02   1.461877e+02
  -1.712332e+02   8.669280e+00
  -5.268784e+01  -9.392149e+01
   6.163237e+01  -9.081764e+01
   6.801255e+01  -2.117965e+01
   7.327191e-02   2.477610e+01
  -3.494526e+01   7.558869e+00
   1.084756e+01  -2.446805e+01
   8.613615e+01   1.620298e+00
   9.899469e+01   9.277791e+01
   6.569296e+00   1.710553e+02
  -1.414770e+02   1.468592e+02
  -2.322542e+02   8.823429e+00
  -1.864061e+02  -1.542771e+02
  -3.497503e+01  -2.232767e+02
   1.003894e+02  -1.562530e+02
   1.259031e+02  -2.949866e+01
   6.960991e+01   4.368486e+01
   3.133560e+01   2.792104e+01
   5.505980e+01  -1.572946e+01
   8.766401e+01  -6.478505e+00
   5.477864e+01   5.815659e+01
  -4.049390e+01   1.033945e+02
  -1.192088e+02   6.217528e+01
  -1.003926e+02  -4.636998e+01
   1.941452e+01  -1.246453e+02
   1.593107e+02  -8.321586e+01
   1.991946e+02   6.862673e+01
   8.155385e+01   2.090749e+02
  -1.228594e+02   2.141048e+02
  -2.609013e+02   7.602608e+01
  -2.372163e+02  -9.142776e+01
  -9.535355e+01  -1.655983e+02
   3.995626e+01  -1.328066e+02
   8.644398e+01  -7.492822e+01
   6.806861e+01  -6.625424e+01
   5.864304e+01  -9.216405e+01
   9.040540e+01  -7.774506e+01
   1.286061e+02   1.918484e+01
   1.131345e+02   1.514382e+02
   2.128245e+01   2.199676e+02
  -1.004365e+02   1.610876e+02
  -1.654724e+02   1.029069e+01
  -1.209240e+02  -1.236056e+02
  -7.918197e+00  -1.515070e+02
   7.254438e+01  -7.862514e+01
   5.925821e+01   1.261778e+01
  -4.369994e+00   5.010855e+01
  -2.513170e+01   3.355217e+01
   2.771700e+01   1.223946e+01
   8.226696e+01   1.958973e+01
   4.775534e+01   4.065125e+01
  -7.140619e+01   3.783928e+01
  -1.679396e+02  -4.748546e+00
  -1.395931e+02  -6.344952e+01
   5.139139e-01  -9.477457e+01
   1.302854e+02  -6.981730e+01
   1.412420e+02  -4.337804e+00
   4.245786e+01   4.875849e+01
  -5.912510e+01   4.175426e+01
  -7.579024e+01  -1.900049e+01
  -1.669981e+01  -7.266111e+01
   4.632607e+01  -6.379634e+01
   6.652698e+01  -1.254359e+00
   5.502006e+01   5.006058e+01
   4.672358e+01   4.195034e+01
   5.528747e+01   1.761177e+00
   6.372958e+01   2.564514e+00
   4.142008e+01   7.253942e+01
  -2.876587e+01   1.489545e+02
  -1.229294e+02   1.393872e+02
  -1.743972e+02   2.958411e+01
  -1.254150e+02  -9.287939e+01
  -1.136760e+00  -1.273731e+02
   9.017078e+01  -6.463233e+01
   5.967804e+01   1.138901e+01
  -5.782445e+01   1.854844e+01
  -1.303225e+02  -4.237276e+01
  -6.724094e+01  -1.035358e+02
   8.278428e+01  -1.047541e+02
   1.836108e+02  -4.137076e+01
   1.505340e+02   4.025545e+01
   2.890853e+01   8.259611e+01
  -6.157519e+01   5.945781e+01
  -4.612571e+01  -8.154328e-01
   3.932799e+01  -2.955616e+01
   8.931033e+01   2.017782e+01
   3.722809e+01   1.139342e+02
  -7.903406e+01   1.519830e+02
  -1.548634e+02   6.712908e+01
  -1.229236e+02  -9.120727e+01
  -1.404373e+01  -1.877745e+02
   8.122286e+01  -1.353434e+02
   1.004163e+02   1.297035e+01
   5.144098e+01   1.174561e+02
  -1.382570e+01   9.920466e+01
  -4.993666e+01   1.312380e+01
  -4.424020e+01  -3.208477e+01
  -1.695909e+01  -7.430772e+00
  -5.297141e+00   1.713834e+01
  -2.776289e+01  -2.051925e+01
  -5.524770e+01  -8.734821e+01
  -3.214986e+01  -1.017582e+02
   5.287071e+01  -4.055745e+01
   1.315543e+02   3.698161e+01
   1.195309e+02   6.772669e+01
   1.725463e+01   5.126452e+01
  -7.944576e+01   2.403461e+01
  -8.395926e+01   4.387548e+00
  -1.542092e+01  -1.209725e+01
   3.455315e+01  -2.076915e+01
   1.882708e+01  -1.157436e+01
  -1.480752e+01   5.230785e+00
   3.311357e+00   6.360755e+00
   6.498370e+01  -9.033016e-01
   8.938714e+01   2.121037e+01
   1.886806e+01   7.965090e+01
  -1.062547e+02   1.157543e+02
  -1.839583e+02   6.366838e+01
  -1.489745e+02  -5.935309e+01
  -3.141003e+01  -1.567931e+02
   7.874607e+01  -1.510927e+02
   1.141544e+02  -6.295535e+01
   7.862048e+01   1.881422e+01
   2.530604e+01   3.605474e+01
   1.687185e+00   1.192543e+01
   1.305361e+01   7.915127e+00
   2.920938e+01   4.756780e+01
   1.743121e+01   8.801970e+01
  -2.813803e+01   6.901179e+01
  -7.565555e+01  -1.541736e+01
  -7.704759e+01  -9.959039e+01
  -1.286708e+01  -1.077896e+02
   7.380166e+01  -3.079797e+01
   1.031116e+02   6.420918e+01
   3.844654e+01   1.011576e+02
  -6.298504e+01   6.255709e+01
  -1.008089e+02  -7.854472e+00
  -4.350957e+01  -5.644672e+01
   3.366746e+01  -5.945267e+01
   3.777305e+01  -2.816466e+01
  -2.723430e+01   5.677094e+00
  -6.712073e+01   8.307379e+00
  -1.695274e+01  -2.671825e+01
   7.724062e+01  -6.403830e+01
   1.174277e+02  -5.208722e+01
   6.834712e+01   1.614782e+01
  -1.368989e+01   8.244562e+01
  -5.636534e+01   8.019966e+01
  -4.331659e+01   1.177447e+01
  -6.671636e+00  -5.081534e+01
   2.303247e+01  -4.626918e+01
   3.581338e+01   1.026221e+01
   2.755944e+01   5.135717e+01
  -5.651482e-01   3.702969e+01
  -3.147596e+01  -5.576767e+00
  -3.962762e+01  -2.378558e+01
  -1.991416e+01  -3.401913e+00
   3.085052e+00   1.960212e+01
   5.836810e+00   7.372687e+00
  -3.175037e+00  -3.156558e+01
   2.872187e+00  -5.081422e+01
   2.698324e+01  -2.015428e+01
   3.877691e+01   3.524203e+01
   1.055627e+01   5.845854e+01
  -4.056019e+01   2.433612e+01
  -6.107020e+01  -3.316027e+01
  -1.874476e+01  -5.935903e+01
   5.560006e+01  -3.502111e+01
   9.100451e+01   1.120703e+01
   4.962809e+01   4.173075e+01
  -2.811506e+01   4.376401e+01
  -6.387459e+01   2.699852e+01
  -2.766537e+01   6.780062e+00
   2.886866e+01  -2.719120e+00
   3.321105e+01   7.207743e+00
  -2.343583e+01   2.594175e+01
  -7.787797e+01   2.099712e+01
