
 $NMID
 id='ANONYMOUS ', fmtdat='(2E16.6)'
 volume=1.0
 tramp=1.0
 $END
  -4.257881e+03   1.670151e+02
  -2.768667e+03  -2.590883e+03
   6.895802e+02  -2.768716e+03
   2.133080e+03  -1.039618e+03
   1.105119e+03   6.043006e+02
  -5.250085e+02   7.103970e+02
  -9.126716e+02  -4.126967e+02
  -6.662544e+01  -1.032738e+03
   7.476025e+02  -7.323087e+02
   9.097953e+02   3.267943e+01
   4.308635e+02   8.279288e+02
  -1.703944e+02   9.644426e+02
  -6.343379e+02   1.549524e+02
  -3.935057e+02  -6.818217e+02
   2.690900e+02  -7.735601e+02
   5.753602e+02   6.106094e+00
   2.741893e+02   7.482528e+02
  -3.723732e+02   6.974217e+02
  -5.971760e+02   6.899307e+01
  -3.792695e+02  -3.524223e+02
   1.220440e+00  -4.610171e+02
   1.905023e+02  -2.456351e+02
   2.151473e+02  -1.649917e+01
  -9.903876e+01   6.180269e+01
  -3.760926e+02  -1.136914e+02
  -1.647648e+02  -4.168574e+02
   4.288531e+02  -3.908416e+02
   8.304192e+02   7.374636e+01
   4.283654e+02   5.325984e+02
  -3.938736e+02   4.711999e+02
  -7.331776e+02  -4.418764e+01
  -3.428966e+02  -4.770915e+02
   2.808838e+02  -5.277397e+02
   5.765593e+02  -1.940720e+02
   4.093671e+02   2.438832e+02
   6.346185e+01   4.900275e+02
  -2.151602e+02   2.985247e+02
  -1.832496e+02  -2.308163e+02
   1.698354e+02  -4.623937e+02
   4.574218e+02  -8.103233e+00
   2.571035e+02   6.890019e+02
  -3.164353e+02   7.163326e+02
  -6.109100e+02   7.703016e+00
  -2.498023e+02  -5.597899e+02
   2.920506e+02  -3.250833e+02
   3.835402e+02   3.379449e+02
  -7.583029e+01   5.529297e+02
  -5.486191e+02   1.280957e+02
  -5.893616e+02  -4.140048e+02
  -1.635177e+02  -5.792745e+02
   3.786334e+02  -3.293531e+02
   6.251469e+02   8.348664e+01
   3.717353e+02   3.792228e+02
  -1.550249e+02   3.607135e+02
  -4.446939e+02   5.311480e+01
  -2.435994e+02  -1.992237e+02
   1.205482e+02  -1.105553e+02
   1.522350e+02   1.554776e+02
  -1.551874e+02   1.939633e+02
  -3.455231e+02  -6.863123e+01
  -1.500081e+02  -3.017136e+02
   1.923925e+02  -2.607675e+02
   3.223217e+02  -6.710324e+01
   1.920637e+02   9.061236e+01
  -2.439432e+01   2.141459e+02
  -2.133872e+02   3.065492e+02
  -3.259071e+02   2.093087e+02
  -2.846089e+02  -1.271496e+02
  -8.298381e+01  -4.203088e+02
   1.075689e+02  -3.753627e+02
   1.213880e+02  -1.123553e+02
   3.368286e+01   8.228511e+00
   4.726931e+01  -8.630169e+01
   1.875855e+02  -1.257150e+02
   2.670897e+02   5.428364e+01
   1.559784e+02   2.651903e+02
  -6.406621e+01   2.491119e+02
  -2.157165e+02   1.366832e+01
  -1.935934e+02  -2.252121e+02
  -5.236536e-01  -2.829932e+02
   2.514880e+02  -1.202048e+02
   3.542817e+02   1.542190e+02
   1.928815e+02   3.428438e+02
  -9.105870e+01   3.125422e+02
  -2.288783e+02   1.257931e+02
  -1.591703e+02   6.024716e+00
  -1.019118e+02   2.970557e+01
  -2.324398e+02   6.219418e+01
  -3.949836e+02  -5.718172e+01
  -3.253189e+02  -2.856331e+02
   3.475524e+00  -4.363990e+02
   3.510827e+02  -4.045101e+02
   4.706921e+02  -1.975953e+02
   3.231083e+02   8.834207e+01
   5.372770e+01   2.849517e+02
  -1.245444e+02   2.498104e+02
  -8.256579e+01   2.889673e+01
   1.055616e+02  -1.130289e+02
   1.944686e+02  -1.412812e+00
   5.252968e+01   1.916191e+02
  -1.579057e+02   1.735841e+02
  -1.779323e+02  -5.769405e+01
   1.815748e+01  -1.914170e+02
   1.917576e+02  -3.114969e+01
   1.580796e+02   2.456659e+02
  -3.699053e+01   3.416103e+02
  -2.281678e+02   1.844757e+02
  -3.174094e+02  -6.462391e+01
  -2.702517e+02  -2.320882e+02
  -9.319972e+01  -2.590003e+02
   1.128590e+02  -1.597679e+02
   1.795853e+02  -2.029020e+01
   6.119084e+01   3.756065e+01
  -7.168799e+01  -3.352409e+01
  -3.504508e+01  -1.237499e+02
   1.191589e+02  -1.004675e+02
   1.768817e+02   1.291677e+01
   5.911286e+01   7.297545e+01
  -7.775165e+01   1.541808e+01
  -5.478314e+01  -7.303359e+01
   1.166495e+02  -8.384309e+01
   2.701574e+02   1.654971e-01
   2.569629e+02   1.316373e+02
   6.721458e+01   2.435543e+02
  -1.713778e+02   2.566325e+02
  -2.771171e+02   1.318564e+02
  -1.739854e+02  -4.478235e+01
   1.833668e+01  -1.090218e+02
   8.956272e+01  -1.165161e+01
  -2.892405e+01   9.840368e+01
  -1.903882e+02   5.874256e+01
  -2.089946e+02  -1.010168e+02
  -6.805788e+01  -2.041785e+02
   9.220229e+01  -1.544810e+02
   1.406052e+02  -2.873101e+01
   7.063776e+01   3.957812e+01
  -2.398132e+01   3.461120e+00
  -3.540041e+01  -7.745331e+01
   6.732647e+01  -1.072859e+02
   1.906625e+02  -2.887868e+01
   1.877035e+02   1.178823e+02
   2.155368e+01   2.127520e+02
  -1.630346e+02   1.612309e+02
  -1.926069e+02   5.093198e+00
  -6.304841e+01  -1.141750e+02
   6.817558e+01  -1.084231e+02
   8.286560e+01  -2.790487e+01
   1.732948e+01   2.543341e+01
  -2.117690e+01   1.550364e+01
   1.029809e+01  -8.459399e+00
   6.995268e+01   9.978216e+00
   8.516794e+01   8.019148e+01
   1.467348e+01   1.530158e+02
  -1.212054e+02   1.473748e+02
  -2.264097e+02   2.638120e+01
  -1.964013e+02  -1.458103e+02
  -3.982632e+01  -2.319406e+02
   1.081874e+02  -1.648863e+02
   1.332385e+02  -2.382816e+01
   6.722056e+01   5.677952e+01
   2.596961e+01   3.591380e+01
   5.226451e+01  -1.080080e+01
   7.670666e+01  -2.896830e+00
   3.693533e+01   4.987701e+01
  -4.486213e+01   8.370214e+01
  -9.966824e+01   4.990842e+01
  -8.014791e+01  -3.610018e+01
   1.311210e+01  -1.065481e+02
   1.341783e+02  -8.327771e+01
   1.880501e+02   4.791748e+01
   9.870763e+01   1.940578e+02
  -9.925531e+01   2.207562e+02
  -2.565390e+02   9.356657e+01
  -2.490223e+02  -8.274350e+01
  -1.067252e+02  -1.705596e+02
   3.703778e+01  -1.423588e+02
   9.093972e+01  -8.103319e+01
   7.685960e+01  -6.659727e+01
   6.596412e+01  -8.665526e+01
   9.045720e+01  -7.014651e+01
   1.231691e+02   2.219116e+01
   1.122843e+02   1.488453e+02
   2.811733e+01   2.183258e+02
  -9.585580e+01   1.672607e+02
  -1.709641e+02   2.092673e+01
  -1.336640e+02  -1.175124e+02
  -1.908905e+01  -1.543061e+02
   6.568805e+01  -8.865556e+01
   5.819179e+01  -5.241344e-01
   3.900882e+00   3.967695e+01
  -1.027428e+01   3.123280e+01
   3.560216e+01   1.755037e+01
   7.647062e+01   2.382565e+01
   4.197485e+01   3.832382e+01
  -6.184111e+01   3.457362e+01
  -1.502050e+02   9.497501e-01
  -1.352360e+02  -4.953506e+01
  -1.352340e+01  -8.314238e+01
   1.152894e+02  -6.889143e+01
   1.379949e+02  -1.154236e+01
   4.501740e+01   3.957028e+01
  -5.875532e+01   3.561681e+01
  -7.252718e+01  -1.865077e+01
  -6.285403e+00  -6.568338e+01
   5.392403e+01  -5.490956e+01
   5.975701e+01   3.031953e+00
   4.058085e+01   4.909433e+01
   4.100748e+01   4.099196e+01
   5.884378e+01   2.872504e+00
   6.249782e+01   9.009656e-01
   3.092324e+01   6.472153e+01
  -3.436705e+01   1.386671e+02
  -1.127254e+02   1.334464e+02
  -1.565785e+02   2.865484e+01
  -1.166818e+02  -8.983966e+01
  -4.700888e+00  -1.208510e+02
   8.367843e+01  -5.663742e+01
   5.743362e+01   1.596575e+01
  -5.816571e+01   1.774215e+01
  -1.335612e+02  -4.422860e+01
  -7.256782e+01  -1.043175e+02
   7.992026e+01  -1.078172e+02
   1.864667e+02  -4.970144e+01
   1.578423e+02   3.231215e+01
   3.588178e+01   8.396380e+01
  -5.908639e+01   6.929894e+01
  -4.673688e+01   8.522863e+00
   3.848103e+01  -2.527007e+01
   8.777284e+01   2.210734e+01
   3.027713e+01   1.155916e+02
  -9.097571e+01   1.497868e+02
  -1.635726e+02   5.969010e+01
  -1.218772e+02  -9.889398e+01
  -7.818818e+00  -1.923744e+02
   8.391500e+01  -1.393716e+02
   1.006230e+02   7.091446e+00
   5.820746e+01   1.142658e+02
  -8.327877e-01   1.029219e+02
  -4.319135e+01   1.958342e+01
  -5.086473e+01  -2.961992e+01
  -2.657202e+01  -7.668983e+00
  -4.146767e+00   1.998862e+01
  -1.870753e+01  -1.537578e+01
  -5.253811e+01  -8.692080e+01
  -4.054684e+01  -1.064553e+02
   4.512563e+01  -4.268969e+01
   1.341936e+02   4.046268e+01
   1.258040e+02   7.069474e+01
   1.569988e+01   4.813085e+01
  -8.696362e+01   2.010766e+01
  -8.604721e+01   6.310873e+00
  -9.346711e+00  -7.410198e+00
   3.805042e+01  -2.148756e+01
   1.288756e+01  -1.774456e+01
  -2.165245e+01   1.239777e+00
   6.065083e+00   8.641553e+00
   7.349054e+01   4.418325e+00
   8.887847e+01   2.445372e+01
   5.879854e+00   7.877497e+01
  -1.179543e+02   1.099828e+02
  -1.809972e+02   5.336118e+01
  -1.355146e+02  -6.905201e+01
  -2.163950e+01  -1.582418e+02
   7.915286e+01  -1.432691e+02
   1.116360e+02  -5.356353e+01
   7.766863e+01   2.283348e+01
   2.305655e+01   3.485279e+01
  -4.199195e+00   8.638056e+00
   8.519840e+00   4.111301e+00
   3.079123e+01   4.398666e+01
   2.112534e+01   8.637613e+01
  -2.887834e+01   6.854921e+01
  -7.862571e+01  -1.905768e+01
  -7.366022e+01  -1.062354e+02
  -2.380148e+00  -1.096189e+02
   8.088435e+01  -2.228611e+01
   9.888105e+01   7.483163e+01
   2.885511e+01   1.004559e+02
  -6.561025e+01   5.186907e+01
  -9.371448e+01  -1.397196e+01
  -3.564711e+01  -4.944873e+01
   3.329741e+01  -4.884489e+01
   3.032779e+01  -2.609342e+01
  -3.309094e+01   2.963758e-01
  -6.655938e+01   6.336604e+00
  -1.376960e+01  -2.321636e+01
   7.615983e+01  -6.199032e+01
   1.102616e+02  -5.539036e+01
   6.012687e+01   1.173379e+01
  -1.568958e+01   7.957329e+01
  -5.109900e+01   7.555896e+01
  -3.577236e+01   4.407364e+00
  -1.514145e+00  -5.449743e+01
   2.496730e+01  -4.100172e+01
   3.533631e+01   1.856208e+01
   2.535148e+01   5.229419e+01
  -3.165528e+00   3.109950e+01
  -3.198388e+01  -9.085139e+00
  -3.748272e+01  -2.072906e+01
  -1.962895e+01  -1.225703e+00
  -1.334152e-01   1.359751e+01
   6.230112e+00  -3.318285e+00
   7.873597e+00  -3.574064e+01
   1.857409e+01  -4.297520e+01
   3.243645e+01  -5.793153e+00
   2.755072e+01   4.586177e+01
  -4.940923e+00   6.006456e+01
  -4.439430e+01   1.861963e+01
  -5.383009e+01  -4.019086e+01
  -1.291173e+01  -6.228753e+01
   5.319046e+01  -3.212356e+01
   8.568347e+01   1.656109e+01
   4.756486e+01   4.354626e+01
  -2.795156e+01   3.901578e+01
  -6.347298e+01   1.943810e+01
  -2.417967e+01   3.637209e+00
   3.634993e+01   2.014511e+00
   3.752571e+01   1.598977e+01
  -2.944216e+01   3.079622e+01
  -8.897551e+01   1.858777e+01
