
 $NMID
 id='ANONYMOUS ', fmtdat='(2E16.6)'
 volume=1.0
 tramp=1.0
 $END
   2.392049e+03   2.381607e+01
   1.656307e+03   1.065835e+03
   6.372180e+01   1.515881e+03
  -7.907041e+02   1.011018e+03
  -5.927321e+02   3.597422e+02
  -1.101017e+02  -1.333243e+02
   2.018813e+02  -8.913191e+00
   1.303993e+02   2.783328e+02
  -2.984235e+02   4.948140e+02
  -5.081429e+02   1.538193e+02
  -3.043208e+02  -3.373676e+02
  -1.648631e+01  -4.872675e+02
   1.685728e+02  -1.640209e+02
   1.739618e+02   1.925512e+02
  -3.694704e+01   3.709731e+02
  -2.916574e+02   9.173895e+01
  -2.259849e+02  -3.524212e+02
   6.640299e+01  -4.876651e+02
   3.847024e+02  -2.396849e+02
   3.522222e+02   1.361869e+02
   1.230867e+02   2.665790e+02
  -9.090089e+01   1.572758e+02
  -3.613860e+01   4.577749e+01
   1.383698e+02   8.974161e+01
   1.916671e+02   2.660143e+02
  -3.419198e+01   2.958267e+02
  -3.452125e+02   7.372342e+01
  -4.018933e+02  -2.002237e+02
  -1.391458e+02  -2.627971e+02
   2.068070e+02  -9.687920e+01
   3.456785e+02   1.213174e+02
   1.191991e+02   2.590489e+02
  -2.085097e+02   2.302143e+02
  -3.292686e+02   9.077527e+01
  -2.312999e+02  -1.018306e+02
  -5.573200e+01  -1.941073e+02
   7.182403e-01  -1.075526e+02
  -8.802737e+01   4.410001e+01
  -1.715273e+02   6.595119e+01
  -1.345472e+02  -1.399189e+02
   4.114819e+01  -3.484200e+02
   2.124264e+02  -2.745986e+02
   2.109229e+02   2.697571e+01
   5.412145e+01   2.145180e+02
  -1.253740e+02   7.246446e+01
  -1.040744e+02  -2.011848e+02
   9.951473e+01  -2.664585e+02
   3.236639e+02  -2.604108e+01
   3.324612e+02   2.729485e+02
   9.538588e+01   3.469398e+02
  -2.136789e+02   1.762037e+02
  -3.531597e+02  -5.617502e+01
  -2.235127e+02  -1.694075e+02
   2.776719e+01  -1.370081e+02
   1.791252e+02  -5.000278e+01
   1.413536e+02  -9.865082e-03
   2.346251e+01  -6.699485e+00
  -1.461140e+01  -2.975068e+01
   6.701268e+01  -1.848634e+01
   1.426631e+02   4.316026e+01
   8.166679e+01   1.266861e+02
  -1.013802e+02   1.704323e+02
  -2.442755e+02   1.081872e+02
  -1.997421e+02  -6.536771e+01
   1.521004e+01  -2.430751e+02
   2.268696e+02  -2.698290e+02
   2.701203e+02  -9.754513e+01
   1.476071e+02   1.376287e+02
   9.057741e+00   2.530927e+02
  -2.331317e+01   2.054529e+02
   1.007025e+01   1.154119e+02
  -1.216832e+01   8.962873e+01
  -1.190103e+02   9.356996e+01
  -2.036697e+02   2.840919e+01
  -1.674945e+02  -1.073152e+02
  -3.447970e+01  -1.917147e+02
   9.057441e+01  -1.242610e+02
   1.330023e+02   5.011939e+01
   7.569115e+01   1.855803e+02
  -5.199046e+01   1.705500e+02
  -1.768586e+02   2.508317e+01
  -2.091045e+02  -1.329323e+02
  -1.107778e+02  -2.041508e+02
   3.234116e+01  -1.751301e+02
   1.064329e+02  -1.137192e+02
   9.633062e+01  -7.802435e+01
   1.122432e+02  -6.829291e+01
   2.126710e+02  -2.925703e+01
   3.070296e+02   7.832691e+01
   2.320425e+02   2.251393e+02
  -2.641568e+01   3.182848e+02
  -2.836430e+02   2.766460e+02
  -3.420092e+02   1.093867e+02
  -1.898915e+02  -8.081966e+01
   1.200256e+00  -1.710982e+02
   6.472640e+01  -1.186550e+02
  -9.326403e+00  -1.540249e+01
  -9.388895e+01   1.611196e+01
  -8.289815e+01  -4.221011e+01
   1.165265e+01  -9.648017e+01
   8.561417e+01  -5.578746e+01
   6.249276e+01   4.824128e+01
  -3.551358e+01   8.775516e+01
  -1.184784e+02  -8.943888e+00
  -1.047508e+02  -1.691226e+02
   1.700365e+01  -2.437716e+02
   1.755785e+02  -1.510104e+02
   2.579332e+02   4.126830e+01
   1.981031e+02   1.894619e+02
   3.787728e+01   1.966387e+02
  -9.437388e+01   9.550352e+01
  -1.027111e+02   9.234762e-01
  -1.978208e+01  -4.962930e+00
   3.420285e+01   5.082300e+01
  -8.988392e+00   7.872986e+01
  -8.972370e+01   3.557802e+01
  -9.803157e+01  -2.804345e+01
  -1.332782e+01  -3.622319e+01
   6.377557e+01   2.180365e+01
   2.507229e+01   7.861790e+01
  -1.152862e+02   6.565685e+01
  -2.255392e+02  -2.296690e+01
  -1.852096e+02  -1.328526e+02
  -1.099747e+01  -1.921144e+02
   1.564228e+02  -1.606268e+02
   1.881269e+02  -5.984980e+01
   8.660392e+01   3.267259e+01
  -2.609969e+01   4.613915e+01
  -3.808708e+01  -1.230131e+01
   4.911578e+01  -5.613760e+01
   1.343063e+02  -1.489604e+01
   1.266693e+02   8.088328e+01
   3.079462e+01   1.330044e+02
  -6.701604e+01   8.852184e+01
  -8.537310e+01   2.726574e+00
  -2.436620e+01  -2.909253e+01
   3.730443e+01   2.135586e+01
   1.917801e+01   8.812592e+01
  -7.684169e+01   8.749260e+01
  -1.569276e+02   2.469989e+00
  -1.284120e+02  -1.032238e+02
  -1.623818e+00  -1.483208e+02
   1.142049e+02  -1.012650e+02
   1.203143e+02  -4.389418e+00
   3.261313e+01   6.468703e+01
  -4.775011e+01   6.198285e+01
  -4.771552e+01   1.187074e+01
   6.501108e+00  -2.122506e+01
   3.432199e+01  -4.967671e+00
  -4.378786e+00   2.481406e+01
  -6.824846e+01   6.643483e+00
  -8.148288e+01  -6.831277e+01
  -7.014679e+00  -1.326967e+02
   1.088854e+02  -1.109190e+02
   1.752708e+02  -3.836241e-01
   1.355463e+02   1.206915e+02
   2.111769e+01   1.640884e+02
  -7.560355e+01   1.108828e+02
  -9.190215e+01   2.006840e+01
  -5.179298e+01  -2.969695e+01
  -2.513396e+01  -1.746459e+01
  -4.296469e+01   1.283755e+01
  -6.934088e+01   5.582320e+00
  -4.664343e+01  -4.548844e+01
   2.882313e+01  -8.518282e+01
   9.509144e+01  -5.583038e+01
   8.558312e+01   3.292799e+01
  -1.060907e+01   1.004255e+02
  -1.221936e+02   6.870275e+01
  -1.505076e+02  -5.107810e+01
  -5.632992e+01  -1.577559e+02
   9.742057e+01  -1.581977e+02
   1.950427e+02  -5.127020e+01
   1.725491e+02   7.010764e+01
   6.566956e+01   1.220316e+02
  -3.224612e+01   9.657942e+01
  -6.381868e+01   5.547181e+01
  -4.870317e+01   4.955115e+01
  -4.067372e+01   6.769374e+01
  -6.476324e+01   5.729261e+01
  -9.512499e+01  -1.374721e+01
  -8.501029e+01  -1.116047e+02
  -1.673127e+01  -1.622255e+02
   7.395947e+01  -1.175140e+02
   1.222645e+02  -4.155566e+00
   8.880539e+01   9.472987e+01
   3.051890e+00   1.126239e+02
  -5.840139e+01   5.516519e+01
  -4.740981e+01  -1.444204e+01
   5.065138e+00  -4.143883e+01
   2.437769e+01  -2.647270e+01
  -1.693419e+01  -7.735715e+00
  -6.246316e+01  -1.295590e+01
  -3.753300e+01  -3.054437e+01
   5.623695e+01  -2.980133e+01
   1.312205e+02   4.076494e+00
   1.058015e+02   5.182870e+01
  -4.684734e+00   7.524210e+01
  -1.024369e+02   5.291283e+01
  -1.072514e+02   4.054067e-01
  -3.206364e+01  -3.963704e+01
   4.334152e+01  -3.304860e+01
   5.729975e+01   1.274896e+01
   1.630919e+01   5.361895e+01
  -3.098775e+01   4.896019e+01
  -5.034024e+01   3.486246e+00
  -4.440670e+01  -3.541742e+01
  -3.576753e+01  -3.080177e+01
  -3.987214e+01  -1.141340e+00
  -4.883496e+01  -1.030284e+00
  -3.661520e+01  -5.365475e+01
   1.698870e+01  -1.132460e+02
   9.373433e+01  -1.087856e+02
   1.362230e+02  -2.571233e+01
   9.729355e+01   6.950188e+01
   1.631286e-01   9.894610e+01
  -6.965868e+01   5.213138e+01
  -4.589642e+01  -7.650242e+00
   4.248588e+01  -1.552022e+01
   9.633347e+01   3.067276e+01
   4.877868e+01   7.819913e+01
  -6.293837e+01   7.777853e+01
  -1.372812e+02   2.761354e+01
  -1.113371e+02  -3.406692e+01
  -1.936460e+01  -6.271410e+01
   4.846374e+01  -4.209697e+01
   3.643344e+01   3.439663e+00
  -2.775393e+01   2.449644e+01
  -6.710300e+01  -1.206629e+01
  -3.188179e+01  -8.182487e+01
   5.183681e+01  -1.130432e+02
   1.099187e+02  -5.367103e+01
   9.114974e+01   6.300501e+01
   1.333140e+01   1.365834e+02
  -5.879459e+01   9.896641e+01
  -7.503660e+01  -1.146269e+01
  -3.711157e+01  -8.862879e+01
   1.396261e+01  -7.294197e+01
   3.934545e+01  -7.994003e+00
   3.056395e+01   2.434318e+01
   9.456079e+00   4.692812e+00
   5.069747e+00  -1.284808e+01
   2.480844e+01   1.629093e+01
   4.209161e+01   6.569530e+01
   1.996260e+01   7.503723e+01
  -4.268609e+01   2.937312e+01
  -9.642843e+01  -2.708199e+01
  -8.586306e+01  -4.981752e+01
  -1.282633e+01  -3.872296e+01
   5.659477e+01  -1.887963e+01
   6.217233e+01  -3.135857e+00
   1.375182e+01   9.724066e+00
  -2.504795e+01   1.551788e+01
  -1.665936e+01   7.955292e+00
   8.961528e+00  -3.955937e+00
  -3.169393e-01  -4.069973e+00
  -4.482346e+01   1.605667e+00
  -6.684674e+01  -1.451264e+01
  -1.923295e+01  -5.789951e+01
   7.404708e+01  -8.601842e+01
   1.358631e+02  -5.043315e+01
   1.129664e+02   3.947506e+01
   2.586327e+01   1.139664e+02
  -5.704993e+01   1.136579e+02
  -8.393187e+01   5.003434e+01
  -5.823454e+01  -1.202600e+01
  -2.027515e+01  -2.686663e+01
  -4.079458e+00  -9.875915e+00
  -1.164229e+01  -7.188603e+00
  -2.179137e+01  -3.652968e+01
  -1.224317e+01  -6.608241e+01
   2.062318e+01  -5.212310e+01
   5.549854e+01   8.698488e+00
   5.876537e+01   6.992384e+01
   1.393183e+01   7.826822e+01
  -5.072221e+01   2.601278e+01
  -7.636157e+01  -4.262067e+01
  -3.172218e+01  -7.360917e+01
   4.454019e+01  -4.941606e+01
   7.646331e+01   3.358108e+00
   3.567720e+01   4.369161e+01
  -2.406433e+01   4.812740e+01
  -3.105838e+01   2.256481e+01
   1.612894e+01  -5.247602e+00
   4.820674e+01  -7.451080e+00
   1.358663e+01   1.977330e+01
  -5.682816e+01   4.706930e+01
  -8.869056e+01   3.734041e+01
  -5.306608e+01  -1.298380e+01
   9.122239e+00  -6.184311e+01
   4.227510e+01  -6.182638e+01
   3.381549e+01  -1.255563e+01
   7.541328e+00   3.548280e+01
  -1.456601e+01   3.610875e+01
  -2.527641e+01  -4.301537e+00
  -2.142801e+01  -3.736005e+01
  -9.972450e-01  -2.977445e+01
   2.406865e+01   2.540502e+00
   3.182106e+01   1.909040e+01
   1.546099e+01   4.671849e+00
  -4.442148e+00  -1.520536e+01
  -5.953782e+00  -8.908257e+00
   5.041464e+00   2.142026e+01
   3.946911e+00   3.949276e+01
  -1.671081e+01   1.955948e+01
  -3.174264e+01  -2.149286e+01
  -1.374644e+01  -4.165478e+01
   2.666991e+01  -1.932138e+01
   4.592909e+01   2.188150e+01
   1.517382e+01   4.233317e+01
  -4.149150e+01   2.671839e+01
  -6.889579e+01  -6.580037e+00
  -3.825441e+01  -3.054375e+01
   1.918896e+01  -3.457572e+01
   4.629335e+01  -2.352511e+01
   2.203090e+01  -7.448626e+00
  -1.727070e+01   2.577405e+00
  -2.183351e+01  -2.566175e+00
   1.574160e+01  -1.651178e+01
   5.318058e+01  -1.514153e+01
