
 $NMID
 id='ANONYMOUS ', fmtdat='(2E16.6)'
 volume=1.0
 tramp=1.0
 $END
   3.290800e+03   8.374134e+01
   2.113969e+03   1.338690e+03
   2.387810e+02   1.621872e+03
  -8.476416e+02   1.298727e+03
  -9.027223e+02   5.093078e+02
  -1.944373e+02   1.385676e+01
   1.128576e+02  -1.244269e+00
   7.674026e+01   3.547308e+02
  -3.961984e+02   4.264266e+02
  -5.079352e+02   1.518457e+02
  -4.347743e+02  -3.657420e+02
  -1.512295e+02  -5.015895e+02
   6.698486e+01  -1.650914e+02
   1.859960e+02   3.060667e+02
  -6.275927e+01   5.043124e+02
  -3.318485e+02   7.010778e+01
  -2.555572e+02  -3.986848e+02
   1.035997e+01  -5.465040e+02
   3.892272e+02  -2.840328e+02
   4.125053e+02   1.103601e+02
   1.402078e+02   3.496288e+02
  -1.058657e+02   2.197294e+02
  -3.695095e+01   6.000813e+01
   2.009980e+02   1.312007e+02
   2.657560e+02   3.146271e+02
  -6.267445e+01   3.159877e+02
  -4.458736e+02   9.452781e+01
  -5.215970e+02  -2.048563e+02
  -1.602665e+02  -3.133691e+02
   2.924429e+02  -9.931273e+01
   4.066856e+02   1.741537e+02
   1.343612e+02   3.176249e+02
  -2.385925e+02   2.613321e+02
  -3.912942e+02   9.784538e+01
  -2.656570e+02  -1.201245e+02
  -8.413157e+01  -2.176243e+02
  -1.383523e+01  -1.267142e+02
  -8.713687e+01   4.224629e+01
  -1.897651e+02   7.632599e+01
  -1.372199e+02  -1.637253e+02
   4.568712e+01  -4.080431e+02
   2.349643e+02  -3.201643e+02
   2.522660e+02   1.835131e+01
   6.435796e+01   2.440197e+02
  -1.373275e+02   9.452954e+01
  -1.332786e+02  -2.432533e+02
   1.168193e+02  -3.277178e+02
   3.952763e+02  -3.316910e+01
   4.162947e+02   3.505098e+02
   1.194079e+02   4.486246e+02
  -2.734299e+02   2.336956e+02
  -4.579312e+02  -5.716206e+01
  -3.041255e+02  -2.052148e+02
   1.204445e+01  -1.804508e+02
   2.126659e+02  -9.255532e+01
   1.781915e+02  -2.587876e+01
   3.713827e+01  -7.538125e+00
  -1.000886e+01  -1.840243e+01
   8.623372e+01  -2.057244e+01
   1.805183e+02   3.318653e+01
   1.057459e+02   1.430974e+02
  -1.285730e+02   2.207763e+02
  -3.206747e+02   1.477727e+02
  -2.687862e+02  -8.739544e+01
   1.498532e+01  -3.239599e+02
   2.981770e+02  -3.546448e+02
   3.578643e+02  -1.317638e+02
   2.000774e+02   1.672342e+02
   2.153536e+01   3.171141e+02
  -2.717308e+01   2.681339e+02
   5.299192e+00   1.610195e+02
  -2.196367e+01   1.239028e+02
  -1.449834e+02   1.204499e+02
  -2.496315e+02   3.658127e+01
  -2.201542e+02  -1.328336e+02
  -6.472476e+01  -2.421934e+02
   1.018945e+02  -1.639236e+02
   1.721960e+02   5.643919e+01
   1.019182e+02   2.341737e+02
  -6.682999e+01   2.166454e+02
  -2.242601e+02   3.212628e+01
  -2.595347e+02  -1.710024e+02
  -1.325503e+02  -2.629645e+02
   4.532238e+01  -2.249797e+02
   1.378301e+02  -1.357027e+02
   1.263478e+02  -8.288025e+01
   1.418857e+02  -6.979569e+01
   2.666713e+02  -2.800478e+01
   3.841431e+02   9.615123e+01
   2.889285e+02   2.796439e+02
  -3.579892e+01   4.054239e+02
  -3.685682e+02   3.611825e+02
  -4.493015e+02   1.430207e+02
  -2.487344e+02  -1.080431e+02
   2.795810e+00  -2.243196e+02
   8.504596e+01  -1.594385e+02
  -1.152020e+01  -2.860141e+01
  -1.189751e+02   1.513426e+01
  -1.059544e+02  -5.682852e+01
   1.057746e+01  -1.232418e+02
   1.048288e+02  -7.359841e+01
   8.353831e+01   5.368338e+01
  -3.230826e+01   1.059129e+02
  -1.424835e+02  -1.441919e+01
  -1.347482e+02  -2.175140e+02
   2.148186e+01  -3.136234e+02
   2.331517e+02  -1.929126e+02
   3.425749e+02   6.290277e+01
   2.553895e+02   2.577654e+02
   3.710482e+01   2.619170e+02
  -1.316742e+02   1.218033e+02
  -1.318844e+02  -4.044355e+00
  -2.010413e+01  -7.700583e+00
   4.302776e+01   6.972728e+01
  -2.011209e+01   1.062169e+02
  -1.241980e+02   4.752142e+01
  -1.302936e+02  -3.875543e+01
  -1.662574e+01  -5.076387e+01
   8.367262e+01   2.470116e+01
   3.229577e+01   1.005775e+02
  -1.527183e+02   8.439830e+01
  -2.960055e+02  -3.443501e+01
  -2.392817e+02  -1.804988e+02
  -6.171412e+00  -2.546758e+02
   2.141608e+02  -2.049747e+02
   2.512415e+02  -6.786950e+01
   1.126987e+02   5.086662e+01
  -3.837767e+01   6.324361e+01
  -5.420770e+01  -1.378864e+01
   5.996943e+01  -6.903593e+01
   1.717182e+02  -1.678868e+01
   1.630723e+02   1.042248e+02
   3.889528e+01   1.700732e+02
  -8.895345e+01   1.146035e+02
  -1.130605e+02   5.185720e+00
  -3.218384e+01  -3.685986e+01
   4.878016e+01   2.617357e+01
   2.332631e+01   1.124346e+02
  -1.017911e+02   1.117011e+02
  -2.033340e+02   1.640973e+00
  -1.626733e+02  -1.346421e+02
   2.124545e+00  -1.905272e+02
   1.481131e+02  -1.278115e+02
   1.543841e+02  -4.178066e+00
   4.218288e+01   8.334423e+01
  -6.109049e+01   8.043800e+01
  -6.234021e+01   1.806636e+01
   5.755919e+00  -2.395524e+01
   4.217402e+01  -5.038745e+00
  -6.873588e+00   2.994049e+01
  -8.898957e+01   5.015693e+00
  -1.040506e+02  -9.030743e+01
  -6.559516e+00  -1.714484e+02
   1.423531e+02  -1.415378e+02
   2.250181e+02   2.763250e+00
   1.710478e+02   1.572045e+02
   2.464000e+01   2.091371e+02
  -9.613884e+01   1.390279e+02
  -1.168331e+02   2.450407e+01
  -6.612094e+01  -3.893450e+01
  -3.097619e+01  -2.469415e+01
  -5.149970e+01   1.402594e+01
  -8.476960e+01   6.168583e+00
  -5.809109e+01  -5.530498e+01
   3.718231e+01  -1.041646e+02
   1.234142e+02  -6.693598e+01
   1.090979e+02   4.624352e+01
  -1.986832e+01   1.279960e+02
  -1.655570e+02   8.229352e+01
  -1.957595e+02  -7.232959e+01
  -6.700080e+01  -2.060625e+02
   1.324527e+02  -2.002942e+02
   2.543808e+02  -6.211200e+01
   2.191782e+02   9.294510e+01
   8.101180e+01   1.570156e+02
  -4.292539e+01   1.240920e+02
  -8.213787e+01   7.097211e+01
  -6.280555e+01   6.303983e+01
  -5.305689e+01   8.683285e+01
  -8.408976e+01   7.355525e+01
  -1.224048e+02  -1.904314e+01
  -1.070173e+02  -1.467033e+02
  -1.727259e+01  -2.102480e+02
   9.899045e+01  -1.484765e+02
   1.560557e+02  -2.358907e-02
   1.086253e+02   1.252274e+02
  -1.675504e+00   1.444215e+02
  -7.674876e+01   6.798300e+01
  -5.943694e+01  -2.227968e+01
   7.987111e+00  -5.660286e+01
   3.235857e+01  -3.582008e+01
  -2.067809e+01  -9.592857e+00
  -7.874522e+01  -1.475445e+01
  -4.689739e+01  -3.763037e+01
   7.285887e+01  -3.721593e+01
   1.682070e+02   6.286433e+00
   1.339593e+02   6.714862e+01
  -8.610958e+00   9.610029e+01
  -1.326576e+02   6.595949e+01
  -1.361597e+02  -1.357386e+00
  -3.810614e+01  -5.162764e+01
   5.753354e+01  -4.172794e+01
   7.381643e+01   1.853186e+01
   2.006136e+01   7.115248e+01
  -4.141608e+01   6.390174e+01
  -6.667805e+01   2.947887e+00
  -5.776521e+01  -4.819879e+01
  -4.473800e+01  -4.137568e+01
  -4.920334e+01  -1.975958e+00
  -6.125434e+01  -1.692909e+00
  -4.612929e+01  -7.050743e+01
   2.397648e+01  -1.462543e+02
   1.237782e+02  -1.381712e+02
   1.770113e+02  -2.967553e+01
   1.249218e+02   9.234340e+01
  -1.379799e+00   1.279520e+02
  -9.075412e+01   6.686499e+01
  -5.924846e+01  -9.347527e+00
   5.413600e+01  -1.912828e+01
   1.229105e+02   3.995514e+01
   6.174150e+01   1.004946e+02
  -8.151037e+01   9.912901e+01
  -1.762409e+02   3.329665e+01
  -1.419573e+02  -4.518911e+01
  -2.306037e+01  -7.962522e+01
   6.289738e+01  -5.111429e+01
   4.486689e+01   6.247333e+00
  -3.903431e+01   2.947442e+01
  -8.721201e+01  -1.936555e+01
  -3.773109e+01  -1.073674e+02
   7.101702e+01  -1.439663e+02
   1.432105e+02  -6.599377e+01
   1.159859e+02   8.245656e+01
   1.498012e+01   1.752447e+02
  -7.673928e+01   1.264399e+02
  -9.587213e+01  -1.495443e+01
  -4.616266e+01  -1.138892e+02
   1.950722e+01  -9.406038e+01
   5.136456e+01  -1.065058e+01
   3.947515e+01   3.153093e+01
   1.248723e+01   7.356346e+00
   7.233691e+00  -1.439251e+01
   3.220621e+01   2.256774e+01
   5.245368e+01   8.480147e+01
   2.290705e+01   9.605163e+01
  -5.674588e+01   3.734059e+01
  -1.232755e+02  -3.569687e+01
  -1.082488e+02  -6.593451e+01
  -1.554078e+01  -5.108652e+01
   7.228314e+01  -2.390884e+01
   7.931528e+01  -2.754264e+00
   1.868364e+01   1.275349e+01
  -3.042317e+01   1.945864e+01
  -2.058825e+01   1.072708e+01
   1.065368e+01  -3.216813e+00
  -1.794024e+00  -4.378231e+00
  -5.842100e+01   4.724999e-01
  -8.569058e+01  -2.110950e+01
  -2.355336e+01  -7.440457e+01
   9.653234e+01  -1.081800e+02
   1.752410e+02  -6.215997e+01
   1.444433e+02   5.158040e+01
   3.054347e+01   1.460735e+02
  -7.631661e+01   1.452156e+02
  -1.091950e+02   6.279021e+01
  -7.406711e+01  -1.754155e+01
  -2.466992e+01  -3.638535e+01
  -4.644200e+00  -1.315244e+01
  -1.472344e+01  -9.449421e+00
  -2.682369e+01  -4.775981e+01
  -1.343359e+01  -8.535213e+01
   2.833652e+01  -6.570757e+01
   7.143676e+01   1.405384e+01
   7.355276e+01   9.209259e+01
   1.538490e+01   1.003891e+02
  -6.660069e+01   3.141488e+01
  -9.765118e+01  -5.668552e+01
  -3.921263e+01  -9.499172e+01
   5.859785e+01  -6.264429e+01
   9.857721e+01   5.511368e+00
   4.518612e+01   5.659396e+01
  -3.185034e+01   6.113443e+01
  -4.038500e+01   2.819326e+01
   2.102584e+01  -6.523411e+00
   6.245970e+01  -8.214451e+00
   1.768203e+01   2.668220e+01
  -7.353350e+01   6.044660e+01
  -1.154603e+02   4.660102e+01
  -6.941282e+01  -1.806240e+01
   1.201865e+01  -7.996541e+01
   5.596040e+01  -7.872353e+01
   4.411323e+01  -1.482673e+01
   7.874779e+00   4.680464e+01
  -2.147238e+01   4.628028e+01
  -3.366836e+01  -7.148083e+00
  -2.638985e+01  -5.016179e+01
   1.301541e-01  -3.916716e+01
   3.085321e+01   3.866470e+00
   3.949521e+01   2.545919e+01
   1.914313e+01   5.969902e+00
  -5.175436e+00  -2.059764e+01
  -6.763479e+00  -1.192708e+01
   6.975739e+00   2.771356e+01
   4.927126e+00   5.119113e+01
  -2.231899e+01   2.499853e+01
  -4.173853e+01  -2.843545e+01
  -1.800309e+01  -5.428178e+01
   3.525340e+01  -2.569910e+01
   6.024928e+01   2.778622e+01
   2.010250e+01   5.426577e+01
  -5.338041e+01   3.417497e+01
  -8.766195e+01  -8.940698e+00
  -4.729006e+01  -3.952267e+01
   2.638019e+01  -4.400149e+01
   6.006809e+01  -2.860585e+01
   2.797693e+01  -7.372004e+00
  -2.293835e+01   4.918146e+00
  -2.874521e+01  -2.516338e+00
   1.938501e+01  -2.091725e+01
   6.775286e+01  -1.917110e+01
