
 $NMID
 id='ANONYMOUS ', fmtdat='(2E16.6)'
 volume=1.0
 tramp=1.0
 $END
   4.734013e+07   4.048195e+05
   2.849823e+07   2.889351e+07
  -5.955821e+06   3.177658e+07
  -2.301572e+07   1.281899e+07
  -1.409287e+07  -5.258575e+06
   2.482630e+06  -7.871164e+06
   8.365955e+06   5.910574e+05
   2.731061e+06   8.159410e+06
  -4.978708e+06   8.292754e+06
  -8.186970e+06   2.009288e+06
  -6.012287e+06  -5.344091e+06
  -6.636922e+05  -7.495131e+06
   3.493623e+06  -2.261367e+06
   2.327247e+06   4.938546e+06
  -3.160564e+06   5.880056e+06
  -6.732102e+06  -9.796923e+05
  -3.877379e+06  -8.675186e+06
   3.153221e+06  -1.007255e+07
   8.587170e+06  -4.964747e+06
   9.091941e+06   1.892634e+06
   5.364144e+06   6.379195e+06
   3.982276e+05   7.087981e+06
  -2.285213e+06   4.848970e+06
  -1.095586e+06   2.359668e+06
   1.256429e+06   2.282823e+06
   6.445892e+04   3.956061e+06
  -5.054182e+06   3.763028e+06
  -8.588556e+06   1.592191e+05
  -6.014070e+06  -3.762479e+06
   9.244050e+04  -4.361768e+06
   3.524276e+06  -2.009955e+06
   2.151296e+06   3.382624e+05
  -9.101046e+05   1.089489e+06
  -2.440673e+06   3.535427e+05
  -2.009208e+06  -1.619850e+06
  -3.502581e+05  -3.672607e+06
   1.711432e+06  -3.217138e+06
   2.580970e+06   3.421030e+05
   1.175539e+06   3.111610e+06
  -7.010055e+05   1.333741e+06
  -1.251615e+05  -2.428001e+06
   2.222163e+06  -2.117749e+06
   2.160654e+06   2.673566e+06
  -1.864788e+06   5.188749e+06
  -5.626621e+06   8.977906e+05
  -4.231507e+06  -5.761690e+06
   1.547440e+06  -7.131464e+06
   6.295682e+06  -2.016056e+06
   6.098407e+06   3.834330e+06
   1.760649e+06   5.286359e+06
  -3.014499e+06   2.499069e+06
  -4.737572e+06  -1.206778e+06
  -2.296586e+06  -2.999087e+06
   1.981732e+06  -1.947821e+06
   3.898219e+06   7.187274e+05
   1.734790e+06   2.283805e+06
  -1.450757e+06   1.179057e+06
  -1.591874e+06  -8.752831e+05
   9.825889e+05  -9.092765e+05
   2.139018e+06   1.239683e+06
  -2.689100e+05   2.741069e+06
  -3.687880e+06   1.662329e+06
  -4.481144e+06  -9.762338e+05
  -2.042532e+06  -3.307819e+06
   1.640277e+06  -4.561435e+06
   4.557412e+06  -4.186370e+06
   5.487525e+06  -1.394678e+06
   3.889233e+06   2.883262e+06
   7.233740e+05   5.446388e+06
  -1.559835e+06   4.247813e+06
  -1.450287e+06   1.265751e+06
  -2.574069e+05   1.302361e+04
  -2.863592e+05   9.564882e+05
  -1.711460e+06   1.461125e+06
  -2.618354e+06  -4.489433e+04
  -1.753733e+06  -1.983114e+06
   1.464003e+05  -2.064095e+06
   1.584059e+06  -1.426873e+05
   1.586944e+06   2.025991e+06
  -6.745478e+04   2.725311e+06
  -2.558432e+06   1.395630e+06
  -3.933201e+06  -1.206129e+06
  -2.713867e+06  -3.355374e+06
   1.089922e+05  -3.614879e+06
   1.950550e+06  -2.277999e+06
   1.867479e+06  -9.969327e+05
   1.587868e+06  -6.804861e+05
   2.667343e+06  -4.969119e+05
   3.970789e+06   6.623055e+05
   3.196777e+06   2.525978e+06
   1.150122e+05   3.804670e+06
  -3.001377e+06   3.582190e+06
  -3.911581e+06   1.876420e+06
  -2.432646e+06  -4.962873e+05
  -1.421268e+05  -2.099534e+06
   1.105487e+06  -1.738198e+06
   5.111355e+05   7.079571e+04
  -1.043312e+06   1.189374e+06
  -1.742584e+06   3.453099e+05
  -7.991305e+05  -1.104491e+06
   5.171793e+05  -1.031937e+06
   4.528169e+05   3.519211e+05
  -8.975041e+05   7.302044e+05
  -1.705580e+06  -9.893657e+05
  -7.603975e+05  -3.078808e+06
   1.239363e+06  -3.232464e+06
   2.815840e+06  -1.247943e+06
   3.163205e+06   1.207548e+06
   2.239245e+06   2.593369e+06
   4.519429e+05   2.493246e+06
  -1.186595e+06   1.361906e+06
  -1.485638e+06   1.825494e+05
  -4.578711e+05  -4.571843e+04
   3.309189e+05   6.989520e+05
  -3.707746e+05   1.220500e+06
  -1.732727e+06   5.233143e+05
  -1.863729e+06  -7.977376e+05
  -3.694731e+05  -1.288223e+06
   1.082315e+06  -5.365941e+05
   8.564785e+05   4.240786e+05
  -7.685208e+05   5.324389e+05
  -2.070591e+06  -2.432124e+05
  -1.696709e+06  -1.268767e+06
   1.998771e+05  -1.886291e+06
   2.164711e+06  -1.569678e+06
   2.591232e+06  -2.523415e+05
   1.120614e+06   1.165290e+06
  -8.499070e+05   1.360866e+06
  -1.416150e+06   1.591187e+05
  -1.609137e+05  -9.873819e+05
   1.408480e+06  -6.697185e+05
   1.597824e+06   7.204350e+05
   3.362181e+05   1.535813e+06
  -9.953174e+05   9.348021e+05
  -1.177837e+06  -2.587188e+05
  -2.527116e+05  -7.160292e+05
   7.235350e+05  -5.232371e+04
   6.719988e+05   9.803236e+05
  -5.529711e+05   1.317881e+06
  -1.876569e+06   4.827802e+05
  -1.884146e+06  -9.956994e+05
  -3.449659e+05  -1.929461e+06
   1.338887e+06  -1.521033e+06
   1.603834e+06  -1.977173e+05
   4.751364e+05   8.053495e+05
  -6.115412e+05   7.527719e+05
  -6.088141e+05   6.585895e+04
   9.694640e+04  -3.675801e+05
   4.847070e+05  -2.256308e+05
   1.667476e+05   6.963276e+04
  -3.891506e+05  -2.898389e+04
  -4.937223e+05  -5.917103e+05
   1.729300e+05  -1.097879e+06
   1.283072e+06  -8.337449e+05
   1.937248e+06   3.923282e+05
   1.352755e+06   1.817371e+06
  -2.159539e+05   2.262724e+06
  -1.517516e+06   1.331603e+06
  -1.598225e+06  -1.081664e+05
  -8.311516e+05  -8.620013e+05
  -3.047504e+05  -6.640033e+05
  -4.157489e+05  -2.416235e+05
  -5.482206e+05  -2.833951e+05
  -7.537966e+04  -6.903948e+05
   8.103801e+05  -8.411824e+05
   1.358350e+06  -3.137441e+05
   1.000316e+06   6.846809e+05
  -2.238966e+05   1.388008e+06
  -1.614352e+06   1.011669e+06
  -2.105551e+06  -4.570618e+05
  -1.062405e+06  -1.959036e+06
   9.289759e+05  -2.198301e+06
   2.356949e+06  -9.659939e+05
   2.201359e+06   5.996240e+05
   9.233019e+05   1.251808e+06
  -1.754406e+05   9.139905e+05
  -3.889144e+05   5.052998e+05
  -1.205941e+05   6.991963e+05
  -1.255703e+05   1.192030e+06
  -6.254268e+05   1.177686e+06
  -1.194811e+06   2.832092e+05
  -1.235541e+06  -1.017939e+06
  -5.055660e+05  -1.772268e+06
   5.919588e+05  -1.337534e+06
   1.202064e+06   3.754609e+03
   7.578226e+05   1.189070e+06
  -3.516707e+05   1.297519e+06
  -1.062525e+06   3.955278e+05
  -7.489641e+05  -6.176810e+05
   9.553457e+04  -9.811149e+05
   4.722119e+05  -7.303485e+05
   6.824090e+04  -4.003669e+05
  -3.967098e+05  -3.225809e+05
  -5.018327e+04  -3.608625e+05
   1.061321e+06  -1.938193e+05
   1.907082e+06   3.145438e+05
   1.502654e+06   9.647813e+05
  -2.393767e+04   1.323255e+06
  -1.465957e+06   1.048574e+06
  -1.701611e+06   2.631052e+05
  -7.816626e+05  -4.396376e+05
   2.365299e+05  -5.172226e+05
   4.703876e+05  -3.910700e+04
   1.853650e+04   3.779625e+05
  -4.224974e+05   2.346999e+05
  -4.447739e+05  -3.218960e+05
  -2.153950e+05  -6.813197e+05
  -7.072929e+04  -4.491975e+05
  -1.303128e+05   1.000261e+05
  -2.753673e+05   2.869839e+05
  -2.593833e+05  -2.160720e+05
   1.448525e+05  -9.261687e+05
   8.434952e+05  -9.877179e+05
   1.252505e+06  -1.458062e+05
   7.717478e+05   8.585178e+05
  -3.929319e+05   1.046243e+06
  -1.164863e+06   2.935507e+05
  -6.801811e+05  -5.433616e+05
   6.544469e+05  -6.051165e+05
   1.489347e+06   8.852041e+04
   9.555107e+05   8.065986e+05
  -4.416936e+05   9.336439e+05
  -1.405864e+06   4.609446e+05
  -1.164166e+06  -1.732709e+05
  -1.304775e+05  -4.843726e+05
   6.064425e+05  -2.551330e+05
   3.532046e+05   2.724398e+05
  -5.554015e+05   4.798584e+05
  -1.105070e+06  -8.935327e+04
  -6.128671e+05  -1.111930e+06
   5.698210e+05  -1.586805e+06
   1.397186e+06  -8.165667e+05
   1.172656e+06   7.171100e+05
   1.822647e+05   1.680506e+06
  -6.979142e+05   1.214845e+06
  -8.674023e+05  -1.623784e+05
  -4.056531e+05  -1.116701e+06
   2.014818e+05  -9.107601e+05
   5.243420e+05  -7.969264e+04
   4.405414e+05   3.563328e+05
   1.584811e+05   1.309069e+05
   4.364577e+04  -9.069753e+04
   2.528790e+05   2.743021e+05
   4.709774e+05   9.054261e+05
   1.813214e+05   1.011577e+06
  -6.635481e+05   3.680026e+05
  -1.381030e+06  -4.405395e+05
  -1.201713e+06  -7.875833e+05
  -1.716078e+05  -6.538055e+05
   8.046101e+05  -3.903772e+05
   9.238246e+05  -1.694830e+05
   3.344906e+05   4.893047e+04
  -1.383153e+05   2.108359e+05
  -2.995685e+04   1.933530e+05
   2.519864e+05   9.040350e+04
   4.600654e+04   1.253781e+05
  -6.239933e+05   2.197109e+05
  -9.808422e+05  -1.308054e+04
  -4.009361e+05  -6.499193e+05
   7.926735e+05  -1.102229e+06
   1.592975e+06  -7.053082e+05
   1.320597e+06   4.072412e+05
   2.564287e+05   1.318734e+06
  -7.198890e+05   1.288275e+06
  -9.846508e+05   5.033156e+05
  -6.148896e+05  -2.183668e+05
  -1.250337e+05  -3.363799e+05
   6.691332e+04  -6.264165e+04
  -7.546907e+04   1.571007e+04
  -2.813645e+05  -3.445370e+05
  -2.313224e+05  -7.576050e+05
   1.681863e+05  -6.370335e+05
   6.391079e+05   1.123568e+05
   6.946836e+05   8.911329e+05
   1.110161e+05   9.678613e+05
  -7.052966e+05   2.354743e+05
  -9.725157e+05  -6.724840e+05
  -3.295879e+05  -1.021508e+06
   6.676965e+05  -6.380287e+05
   1.050088e+06   6.800815e+04
   5.000066e+05   5.753434e+05
  -2.689131e+05   6.382706e+05
  -3.572642e+05   3.453567e+05
   2.298654e+05   6.580052e+03
   6.083759e+05  -3.845646e+04
   1.386768e+05   2.892598e+05
  -7.729690e+05   6.371471e+05
  -1.181688e+06   5.054603e+05
  -7.170343e+05  -1.680629e+05
   8.898580e+04  -8.163365e+05
   5.191085e+05  -8.041371e+05
   4.022371e+05  -1.540814e+05
   5.332735e+04   4.481655e+05
  -2.230454e+05   4.106606e+05
  -3.308653e+05  -1.340343e+05
  -2.401630e+05  -5.406759e+05
   4.802568e+04  -4.038371e+05
   3.671229e+05   3.941397e+04
   4.473750e+05   2.644777e+05
   2.272568e+05   9.191631e+04
  -3.382945e+04  -1.436173e+05
  -7.680156e+04  -4.594726e+04
   1.743419e+04   3.299487e+05
  -3.875053e+04   5.210501e+05
  -2.971318e+05   2.129510e+05
  -4.365582e+05  -3.504218e+05
  -1.560605e+05  -6.072612e+05
   3.800051e+05  -2.986555e+05
   6.271514e+05   2.573568e+05
   2.425053e+05   5.355130e+05
  -4.759804e+05   3.450383e+05
  -8.308263e+05  -6.600001e+04
  -4.519782e+05  -3.524888e+05
   2.744521e+05  -3.798014e+05
   6.002206e+05  -2.202849e+05
   2.384976e+05  -1.844471e+04
  -3.197377e+05   6.988749e+04
  -3.811096e+05  -5.254492e+04
   1.517799e+05  -2.711077e+05
   6.888268e+05  -2.587222e+05
