
 $NMID
 id='ANONYMOUS ', fmtdat='(2E16.6)'
 volume=1.0
 tramp=1.0
 $END
  -4.928766e+07   4.529876e+05
  -3.035200e+07  -2.922407e+07
   5.322249e+06  -3.309859e+07
   2.360024e+07  -1.412835e+07
   1.493125e+07   4.846792e+06
  -2.256911e+06   8.277176e+06
  -8.787358e+06  -2.081746e+05
  -3.229112e+06  -8.417324e+06
   4.889505e+06  -8.975743e+06
   8.525634e+06  -2.441891e+06
   6.446793e+06   5.498390e+06
   8.435636e+05   7.923491e+06
  -3.656274e+06   2.409536e+06
  -2.585654e+06  -5.274270e+06
   3.163507e+06  -6.382254e+06
   7.092539e+06   7.986685e+05
   4.301640e+06   8.997711e+06
  -3.049069e+06   1.063762e+07
  -8.878367e+06   5.358900e+06
  -9.508853e+06  -1.853023e+06
  -5.623877e+06  -6.561396e+06
  -4.842707e+05  -7.275936e+06
   2.184650e+06  -4.983651e+06
   8.596096e+05  -2.539407e+06
  -1.509787e+06  -2.590613e+06
  -6.977447e+04  -4.335952e+06
   5.435089e+06  -4.052146e+06
   9.165297e+06  -2.179143e+05
   6.385816e+06   3.930782e+06
  -1.516500e+05   4.590278e+06
  -3.818648e+06   2.087592e+06
  -2.274628e+06  -4.793999e+05
   1.128909e+06  -1.293594e+06
   2.791563e+06  -3.796544e+05
   2.198076e+06   1.853691e+06
   3.201224e+05   3.994180e+06
  -1.809218e+06   3.371736e+06
  -2.622415e+06  -4.229533e+05
  -1.161968e+06  -3.235591e+06
   7.176455e+05  -1.262587e+06
   9.480160e+04   2.699887e+06
  -2.347032e+06   2.339241e+06
  -2.361002e+06  -2.732460e+06
   1.739066e+06  -5.464511e+06
   5.733553e+06  -1.087708e+06
   4.501342e+06   5.872244e+06
  -1.420885e+06   7.442427e+06
  -6.534929e+06   2.230740e+06
  -6.558070e+06  -3.906356e+06
  -2.049511e+06  -5.573961e+06
   3.131646e+06  -2.775554e+06
   5.115674e+06   1.118214e+06
   2.584022e+06   3.109270e+06
  -1.996550e+06   2.124562e+06
  -4.121702e+06  -6.333526e+05
  -1.905628e+06  -2.339586e+06
   1.487177e+06  -1.274340e+06
   1.740302e+06   8.835375e+05
  -9.417449e+05   1.038533e+06
  -2.287034e+06  -1.129329e+06
   9.413585e+04  -2.791194e+06
   3.705524e+06  -1.847533e+06
   4.702760e+06   8.381192e+05
   2.246686e+06   3.383675e+06
  -1.670199e+06   4.848436e+06
  -4.823218e+06   4.507558e+06
  -5.816630e+06   1.531581e+06
  -4.125824e+06  -3.027417e+06
  -8.344119e+05  -5.777464e+06
   1.531456e+06  -4.572193e+06
   1.471067e+06  -1.466421e+06
   3.306796e+05  -1.254426e+05
   4.301152e+05  -1.058776e+06
   1.922644e+06  -1.528769e+06
   2.841165e+06   1.135703e+05
   1.883557e+06   2.198546e+06
  -1.930622e+05   2.271936e+06
  -1.777458e+06   1.635773e+05
  -1.774427e+06  -2.209800e+06
   4.863900e+04  -2.958089e+06
   2.741978e+06  -1.505257e+06
   4.196947e+06   1.270600e+06
   2.894806e+06   3.524587e+06
  -7.316162e+04   3.789506e+06
  -1.996110e+06   2.407247e+06
  -1.915646e+06   1.097066e+06
  -1.659377e+06   7.932145e+05
  -2.855292e+06   6.182515e+05
  -4.291445e+06  -6.150361e+05
  -3.502575e+06  -2.653213e+06
  -2.024149e+05  -4.110446e+06
   3.189094e+06  -3.928321e+06
   4.216330e+06  -2.073510e+06
   2.630595e+06   5.341729e+05
   1.460079e+05   2.281888e+06
  -1.199086e+06   1.879939e+06
  -5.496702e+05  -8.242604e+04
   1.119615e+06  -1.298276e+06
   1.867528e+06  -4.007470e+05
   8.638825e+05   1.172058e+06
  -5.548282e+05   1.127945e+06
  -5.240130e+05  -3.669758e+05
   9.143001e+05  -8.502577e+05
   1.863473e+06   9.390321e+05
   9.673728e+05   3.249143e+06
  -1.163497e+06   3.564566e+06
  -2.981737e+06   1.515362e+06
  -3.499649e+06  -1.179529e+06
  -2.542511e+06  -2.778786e+06
  -5.572105e+05  -2.725390e+06
   1.272738e+06  -1.501414e+06
   1.614774e+06  -2.154035e+05
   4.970106e+05   4.114719e+04
  -3.728687e+05  -7.492925e+05
   3.670140e+05  -1.317065e+06
   1.844219e+06  -5.986920e+05
   2.023188e+06   8.077816e+05
   4.358109e+05   1.372141e+06
  -1.155452e+06   6.086350e+05
  -9.520630e+05  -4.397765e+05
   8.095968e+05  -6.185635e+05
   2.270095e+06   1.895334e+05
   1.904278e+06   1.340613e+06
  -1.585522e+05   2.075390e+06
  -2.318879e+06   1.764531e+06
  -2.806684e+06   3.302244e+05
  -1.234173e+06  -1.230451e+06
   8.864086e+05  -1.474005e+06
   1.511410e+06  -1.958189e+05
   1.832948e+05   1.055517e+06
  -1.507978e+06   7.486212e+05
  -1.746030e+06  -7.397436e+05
  -4.115957e+05  -1.654661e+06
   1.045066e+06  -1.049898e+06
   1.286226e+06   2.351963e+05
   3.042807e+05   7.632031e+05
  -7.713558e+05   7.442327e+04
  -7.415639e+05  -1.044971e+06
   5.780775e+05  -1.433666e+06
   2.024018e+06  -5.517906e+05
   2.055456e+06   1.045459e+06
   4.102404e+05   2.079619e+06
  -1.413770e+06   1.672651e+06
  -1.730396e+06   2.522699e+05
  -5.379685e+05  -8.591234e+05
   6.433905e+05  -8.321971e+05
   6.683612e+05  -8.244131e+04
  -8.901776e+04   4.180111e+05
  -5.350713e+05   2.725692e+05
  -2.114604e+05  -7.718996e+04
   4.068768e+05  -1.690856e+03
   5.551336e+05   6.106229e+05
  -1.512208e+05   1.188829e+06
  -1.368022e+06   9.318868e+05
  -2.105588e+06  -3.847439e+05
  -1.499001e+06  -1.941339e+06
   1.910828e+05  -2.459768e+06
   1.621438e+06  -1.485901e+06
   1.748189e+06   7.591943e+04
   9.383192e+05   9.314355e+05
   3.494201e+05   7.456754e+05
   4.384130e+05   2.734807e+05
   5.794804e+05   2.891484e+05
   9.189121e+04   7.335548e+05
  -8.556888e+05   9.306358e+05
  -1.469948e+06   3.766696e+05
  -1.111824e+06  -7.266933e+05
   2.065109e+05  -1.525341e+06
   1.732046e+06  -1.139452e+06
   2.297587e+06   4.515184e+05
   1.199073e+06   2.099323e+06
  -9.489169e+05   2.399134e+06
  -2.524101e+06   1.103549e+06
  -2.405371e+06  -5.906338e+05
  -1.048346e+06  -1.338315e+06
   1.599420e+05  -1.014077e+06
   4.260797e+05  -5.734887e+05
   1.431510e+05  -7.576443e+05
   1.260325e+05  -1.278343e+06
   6.509493e+05  -1.276317e+06
   1.281340e+06  -3.257350e+05
   1.354502e+06   1.081552e+06
   5.793394e+05   1.912397e+06
  -6.186859e+05   1.460976e+06
  -1.304689e+06   2.214047e+04
  -8.486393e+05  -1.266693e+06
   3.439606e+05  -1.411822e+06
   1.129676e+06  -4.638847e+05
   8.218524e+05   6.323653e+05
  -6.901162e+04   1.052480e+06
  -4.779046e+05   8.034272e+05
  -5.822506e+04   4.434514e+05
   4.322201e+05   3.466942e+05
   5.859855e+04   3.920454e+05
  -1.139704e+06   2.327128e+05
  -2.063087e+06  -3.007474e+05
  -1.646739e+06  -1.010315e+06
  -1.152885e+04  -1.425238e+06
   1.554398e+06  -1.160067e+06
   1.834145e+06  -3.265422e+05
   8.602817e+05   4.451137e+05
  -2.399883e+05   5.573300e+05
  -5.046923e+05   5.804821e+04
  -2.200982e+04  -3.994059e+05
   4.591145e+05  -2.592131e+05
   4.861000e+05   3.411197e+05
   2.336310e+05   7.381211e+05
   7.335066e+04   4.864316e+05
   1.409055e+05  -1.193240e+05
   3.026925e+05  -3.266696e+05
   2.873980e+05   2.280373e+05
  -1.461379e+05   1.010780e+06
  -8.953943e+05   1.083817e+06
  -1.340304e+06   1.729544e+05
  -8.377752e+05  -9.168099e+05
   4.066557e+05  -1.129715e+06
   1.248909e+06  -3.276161e+05
   7.453751e+05   5.806481e+05
  -6.951529e+05   6.707618e+05
  -1.622163e+06  -6.131382e+04
  -1.067812e+06  -8.536551e+05
   4.493921e+05  -1.031182e+06
   1.519523e+06  -5.437597e+05
   1.277206e+06   1.569746e+05
   1.570463e+05   5.259228e+05
  -6.514478e+05   2.940874e+05
  -3.840443e+05  -2.848539e+05
   5.993429e+05  -5.243089e+05
   1.198681e+06   8.627017e+04
   6.731651e+05   1.199612e+06
  -6.031074e+05   1.726243e+06
  -1.507415e+06   9.019257e+05
  -1.284242e+06  -7.620219e+05
  -2.258177e+05  -1.823226e+06
   7.360315e+05  -1.337604e+06
   9.467757e+05   1.527610e+05
   4.687307e+05   1.203706e+06
  -1.917069e+05   9.983277e+05
  -5.644985e+05   1.005314e+05
  -4.923259e+05  -3.807517e+05
  -1.829710e+05  -1.421116e+05
  -4.246389e+04   1.020041e+05
  -2.670716e+05  -2.870359e+05
  -5.228189e+05  -9.716967e+05
  -2.254424e+05  -1.096923e+06
   7.016828e+05  -4.134881e+05
   1.508754e+06   4.539055e+05
   1.328459e+06   8.336313e+05
   1.991585e+05   7.045407e+05
  -8.751414e+05   4.368207e+05
  -1.003097e+06   2.036080e+05
  -3.566846e+05  -4.188593e+04
   1.498194e+05  -2.303182e+05
   1.897689e+04  -2.157268e+05
  -2.858440e+05  -9.983436e+04
  -4.776457e+04  -1.358327e+05
   6.850700e+05  -2.446065e+05
   1.063057e+06   1.019187e+03
   4.298645e+05   6.963967e+05
  -8.520265e+05   1.202398e+06
  -1.709172e+06   7.837523e+05
  -1.425934e+06  -4.260592e+05
  -2.955828e+05  -1.428436e+06
   7.568730e+05  -1.405974e+06
   1.059661e+06  -5.547947e+05
   6.721448e+05   2.329322e+05
   1.364572e+05   3.626021e+05
  -8.084709e+04   6.247966e+04
   7.823067e+04  -2.568358e+04
   3.160207e+05   3.659597e+05
   2.677756e+05   8.181249e+05
  -1.742150e+05   6.915019e+05
  -6.971682e+05  -1.188179e+05
  -7.615499e+05  -9.625860e+05
  -1.242755e+05  -1.046900e+06
   7.676189e+05  -2.565194e+05
   1.062246e+06   7.234599e+05
   3.669755e+05   1.102291e+06
  -7.157941e+05   6.950500e+05
  -1.135066e+06  -6.002373e+04
  -5.457433e+05  -6.090156e+05
   2.807109e+05  -6.872465e+05
   3.735062e+05  -3.782268e+05
  -2.587821e+05  -7.267816e+03
  -6.618270e+05   4.980086e+04
  -1.518042e+05  -3.097407e+05
   8.284222e+05  -7.048394e+05
   1.265975e+06  -5.743822e+05
   7.713055e+05   1.633936e+05
  -8.436065e+04   8.832629e+05
  -5.421297e+05   8.768636e+05
  -4.244700e+05   1.668407e+05
  -5.987256e+04  -4.891548e+05
   2.372241e+05  -4.438695e+05
   3.614513e+05   1.485970e+05
   2.676616e+05   5.830801e+05
  -4.795203e+04   4.311086e+05
  -3.984595e+05  -4.071636e+04
  -4.865845e+05  -2.739763e+05
  -2.479566e+05  -9.088163e+04
   3.476854e+04   1.485798e+05
   8.407974e+04   3.492738e+04
  -1.223409e+04  -3.629463e+05
   5.049768e+04  -5.563191e+05
   3.241784e+05  -2.200833e+05
   4.676000e+05   3.833379e+05
   1.635838e+05   6.574890e+05
  -4.118980e+05   3.255509e+05
  -6.785054e+05  -2.751315e+05
  -2.668569e+05  -5.805631e+05
   5.084511e+05  -3.803623e+05
   8.971432e+05   6.262645e+04
   4.931487e+05   3.756161e+05
  -2.918126e+05   4.097980e+05
  -6.453267e+05   2.403200e+05
  -2.517279e+05   2.236789e+04
   3.550676e+05  -7.369695e+04
   4.177978e+05   6.079018e+04
  -1.682634e+05   3.020303e+05
  -7.559051e+05   2.906457e+05
