
 $NMID
 id='ANONYMOUS ', fmtdat='(2E16.6)'
 volume=1.0
 tramp=1.0
 $END
   5.581612e+07   1.412734e+05
   3.352949e+07   3.494049e+07
  -7.626110e+06   3.794902e+07
  -2.762112e+07   1.426386e+07
  -1.637221e+07  -7.305724e+06
   3.438087e+06  -9.296681e+06
   9.807070e+06   1.430882e+06
   2.587201e+06   9.811123e+06
  -6.371126e+06   9.137364e+06
  -9.630637e+06   1.807029e+06
  -6.836758e+06  -6.170370e+06
  -7.209392e+05  -8.444085e+06
   3.916659e+06  -2.690647e+06
   2.469257e+06   5.311251e+06
  -3.850099e+06   6.352629e+06
  -7.798053e+06  -1.438034e+06
  -4.291307e+06  -1.014536e+07
   3.848939e+06  -1.164062e+07
   1.002037e+07  -5.795885e+06
   1.067874e+07   2.024909e+06
   6.593215e+06   7.384045e+06
   7.563906e+05   8.610424e+06
  -2.919852e+06   6.116010e+06
  -2.033004e+06   2.734841e+06
   8.768013e+05   2.052902e+06
   1.939628e+05   3.959386e+06
  -5.216924e+06   4.210209e+06
  -9.376312e+06   4.459977e+05
  -6.883485e+06  -4.044358e+06
  -3.125670e+05  -4.925352e+06
   3.533620e+06  -2.507631e+06
   2.359371e+06  -1.093438e+05
  -5.333841e+05   7.460986e+05
  -2.077305e+06   3.902167e+05
  -2.033464e+06  -1.323661e+06
  -6.766787e+05  -3.732185e+06
   1.730982e+06  -3.784785e+06
   3.199075e+06   4.651666e+02
   1.760843e+06   3.540195e+06
  -7.007332e+05   1.990958e+06
  -3.097820e+05  -2.287426e+06
   2.437851e+06  -2.186907e+06
   2.385578e+06   3.205570e+06
  -2.497661e+06   6.103991e+06
  -6.978269e+06   1.010411e+06
  -5.087048e+06  -6.898481e+06
   1.943405e+06  -8.478854e+06
   7.359464e+06  -2.362748e+06
   6.779648e+06   4.471014e+06
   1.694201e+06   5.973593e+06
  -3.482492e+06   2.588835e+06
  -5.134421e+06  -1.632059e+06
  -2.297522e+06  -3.510315e+06
   2.447163e+06  -2.150522e+06
   4.474905e+06   9.747866e+05
   1.894943e+06   2.731896e+06
  -1.715570e+06   1.343287e+06
  -1.681437e+06  -1.052562e+06
   1.386097e+06  -8.941647e+05
   2.487306e+06   1.833629e+06
  -6.654717e+05   3.512997e+06
  -4.673459e+06   1.896039e+06
  -5.284211e+06  -1.419913e+06
  -2.263811e+06  -3.986302e+06
   1.801796e+06  -5.150985e+06
   4.910269e+06  -4.679278e+06
   6.055269e+06  -1.672948e+06
   4.477621e+06   3.090959e+06
   8.803656e+05   6.040396e+06
  -1.921159e+06   4.661539e+06
  -1.819415e+06   1.142579e+06
  -1.763990e+05  -3.445588e+05
   8.948080e+04   8.674153e+05
  -1.482976e+06   1.711030e+06
  -2.673673e+06   2.507453e+05
  -1.924357e+06  -1.832446e+06
  -1.451869e+04  -2.026258e+06
   1.461552e+06  -1.508361e+05
   1.556337e+06   2.030396e+06
  -3.938268e+04   2.835503e+06
  -2.693356e+06   1.590172e+06
  -4.354064e+06  -1.174450e+06
  -3.153589e+06  -3.695180e+06
   3.807942e+04  -4.174727e+06
   2.262127e+06  -2.694872e+06
   2.240178e+06  -1.117569e+06
   1.841292e+06  -6.334644e+05
   2.903688e+06  -3.976134e+05
   4.244318e+06   8.393828e+05
   3.351155e+06   2.777923e+06
   3.889556e+04   4.031107e+06
  -3.198090e+06   3.733846e+06
  -4.083541e+06   1.993458e+06
  -2.567559e+06  -4.282904e+05
  -2.507971e+05  -2.151922e+06
   1.076069e+06  -1.861913e+06
   5.449465e+05   3.248257e+04
  -1.075293e+06   1.255308e+06
  -1.875947e+06   3.601764e+05
  -8.955701e+05  -1.190518e+06
   5.184686e+05  -1.068822e+06
   3.921475e+05   4.080694e+05
  -1.111904e+06   6.480334e+05
  -1.838167e+06  -1.372034e+06
  -5.247220e+05  -3.514340e+06
   1.740189e+06  -3.322365e+06
   3.180494e+06  -9.520847e+05
   3.190138e+06   1.564177e+06
   2.095309e+06   2.770032e+06
   3.490177e+05   2.540560e+06
  -1.235194e+06   1.391428e+06
  -1.533145e+06   1.915385e+05
  -4.803895e+05  -5.582619e+04
   3.329188e+05   7.455419e+05
  -4.388961e+05   1.318991e+06
  -1.898827e+06   5.354856e+05
  -1.990005e+06  -9.285457e+05
  -3.424891e+05  -1.416037e+06
   1.169933e+06  -5.287468e+05
   8.450586e+05   4.784128e+05
  -8.701635e+05   4.687669e+05
  -2.121667e+06  -4.112875e+05
  -1.632611e+06  -1.392589e+06
   3.273424e+05  -1.905435e+06
   2.305637e+06  -1.538391e+06
   2.719704e+06  -1.922807e+05
   1.169240e+06   1.276622e+06
  -9.341696e+05   1.469902e+06
  -1.549588e+06   1.637133e+05
  -1.879467e+05  -1.068529e+06
   1.505434e+06  -6.926273e+05
   1.668084e+06   8.178962e+05
   2.727608e+05   1.638829e+06
  -1.119328e+06   9.185797e+05
  -1.230054e+06  -3.636886e+05
  -2.072196e+05  -7.889620e+05
   7.962724e+05  -3.642382e+04
   7.047259e+05   1.051172e+06
  -5.902862e+05   1.384603e+06
  -1.975456e+06   4.926382e+05
  -1.973706e+06  -1.070701e+06
  -3.297528e+05  -2.046307e+06
   1.458401e+06  -1.580435e+06
   1.704453e+06  -1.577848e+05
   4.644854e+05   8.725305e+05
  -6.727907e+05   7.680896e+05
  -6.104083e+05   5.532825e+04
   1.447726e+05  -3.339268e+05
   4.794872e+05  -1.627081e+05
   8.118924e+04   7.685110e+04
  -4.685106e+05  -1.082738e+05
  -4.911216e+05  -7.001844e+05
   2.471321e+05  -1.170062e+06
   1.384933e+06  -8.418701e+05
   2.031664e+06   4.589250e+05
   1.391443e+06   1.939936e+06
  -2.712052e+05   2.361010e+06
  -1.619467e+06   1.326498e+06
  -1.639808e+06  -1.843843e+05
  -7.858309e+05  -8.936301e+05
  -2.705017e+05  -6.112784e+05
  -4.714197e+05  -1.941561e+05
  -6.338962e+05  -3.201562e+05
  -8.091454e+04  -7.645315e+05
   8.893775e+05  -8.596091e+05
   1.426269e+06  -2.673647e+05
   9.896513e+05   7.356210e+05
  -3.009414e+05   1.406957e+06
  -1.715416e+06   9.920339e+05
  -2.181970e+06  -5.353740e+05
  -1.048389e+06  -2.092526e+06
   1.064243e+06  -2.301027e+06
   2.534209e+06  -9.403086e+05
   2.284191e+06   7.274169e+05
   8.743984e+05   1.346653e+06
  -2.507135e+05   9.022996e+05
  -3.851293e+05   4.598559e+05
  -6.118789e+04   7.251033e+05
  -1.079304e+05   1.290176e+06
  -6.858484e+05   1.262750e+06
  -1.281981e+06   2.908897e+05
  -1.288380e+06  -1.084205e+06
  -5.034210e+05  -1.864686e+06
   6.387830e+05  -1.391029e+06
   1.257708e+06   3.744428e+04
   7.627705e+05   1.287447e+06
  -4.305340e+05   1.365127e+06
  -1.173597e+06   3.576349e+05
  -7.911554e+05  -7.301100e+05
   1.598238e+05  -1.074204e+06
   5.707611e+05  -7.593146e+05
   1.077372e+05  -3.986635e+05
  -4.192207e+05  -3.306534e+05
  -5.233075e+04  -3.727872e+05
   1.139651e+06  -1.790128e+05
   2.026722e+06   3.734486e+05
   1.562637e+06   1.061239e+06
  -8.209085e+04   1.422455e+06
  -1.599399e+06   1.092866e+06
  -1.810846e+06   2.196946e+05
  -8.065407e+05  -5.279258e+05
   2.736954e+05  -5.648770e+05
   5.110832e+05  -1.411505e+04
   3.275889e+04   4.241836e+05
  -4.298903e+05   2.449370e+05
  -4.667148e+05  -3.435162e+05
  -2.491172e+05  -7.016107e+05
  -1.006024e+05  -4.640373e+05
  -1.385852e+05   7.625174e+04
  -2.707184e+05   2.593939e+05
  -2.614844e+05  -2.367464e+05
   1.524277e+05  -9.527932e+05
   9.027732e+05  -1.027972e+06
   1.355299e+06  -1.626604e+05
   8.374724e+05   9.050239e+05
  -4.243956e+05   1.124942e+06
  -1.245637e+06   3.276721e+05
  -7.075417e+05  -5.684059e+05
   7.078283e+05  -6.166334e+05
   1.546187e+06   1.436358e+05
   9.382442e+05   8.809470e+05
  -5.219069e+05   9.450276e+05
  -1.479831e+06   4.023236e+05
  -1.186642e+06  -2.363953e+05
  -1.067505e+05  -5.039264e+05
   6.472309e+05  -2.387802e+05
   3.791524e+05   3.014497e+05
  -5.691897e+05   5.084305e+05
  -1.154702e+06  -8.326833e+04
  -6.553001e+05  -1.154070e+06
   5.792921e+05  -1.659739e+06
   1.451489e+06  -8.547938e+05
   1.214636e+06   7.538503e+05
   1.673809e+05   1.749742e+06
  -7.516674e+05   1.237525e+06
  -9.000295e+05  -2.089956e+05
  -3.803601e+05  -1.180408e+06
   2.604433e+05  -9.345513e+05
   5.605614e+05  -6.219164e+04
   4.298317e+05   3.776996e+05
   1.361747e+05   1.350278e+05
   5.826912e+04  -8.748758e+04
   2.993444e+05   3.026589e+05
   4.919220e+05   9.587466e+05
   1.402410e+05   1.058200e+06
  -7.357098e+05   3.729561e+05
  -1.429097e+06  -4.825340e+05
  -1.211886e+06  -8.466907e+05
  -1.657149e+05  -6.923065e+05
   8.199555e+05  -3.936645e+05
   9.589960e+05  -1.505870e+05
   3.727503e+05   6.862964e+04
  -1.370886e+05   2.192297e+05
  -6.730499e+04   1.908222e+05
   2.263460e+05   8.548481e+04
   5.870040e+04   1.275623e+05
  -6.177262e+05   2.279994e+05
  -1.027030e+06  -1.595592e+04
  -4.593200e+05  -6.822014e+05
   8.079630e+05  -1.156433e+06
   1.691536e+06  -7.445094e+05
   1.412348e+06   4.169116e+05
   2.638900e+05   1.373240e+06
  -7.748643e+05   1.349493e+06
  -1.032091e+06   5.363229e+05
  -6.322976e+05  -2.180242e+05
  -1.407640e+05  -3.513013e+05
   3.962246e+04  -7.947132e+04
  -9.291357e+04  -4.846553e+03
  -2.762492e+05  -3.755156e+05
  -2.196939e+05  -7.965401e+05
   1.753872e+05  -6.696022e+05
   6.568223e+05   1.038063e+05
   7.318305e+05   9.145183e+05
   1.411687e+05   1.010564e+06
  -7.157370e+05   2.659030e+05
  -1.014906e+06  -6.830680e+05
  -3.544398e+05  -1.069332e+06
   6.956925e+05  -6.819601e+05
   1.110499e+06   7.060111e+04
   5.374257e+05   6.247751e+05
  -2.853911e+05   6.926074e+05
  -4.012182e+05   3.677468e+05
   2.106086e+05   2.781746e+03
   6.280209e+05  -3.728257e+04
   1.524490e+05   3.076228e+05
  -8.149895e+05   6.537928e+05
  -1.267344e+06   4.984066e+05
  -7.788866e+05  -2.007838e+05
   9.711656e+04  -8.629131e+05
   5.734237e+05  -8.502710e+05
   4.466650e+05  -1.815568e+05
   6.431901e+04   4.549599e+05
  -2.294416e+05   4.413004e+05
  -3.389361e+05  -1.185641e+05
  -2.495471e+05  -5.656933e+05
   4.368589e+04  -4.434351e+05
   3.826102e+05   3.344095e+04
   4.765187e+05   2.968411e+05
   2.393170e+05   1.139492e+05
  -4.980176e+04  -1.681587e+05
  -8.662786e+04  -8.960675e+04
   4.765226e+04   3.231936e+05
   8.815862e+03   5.640684e+05
  -2.892415e+05   2.634537e+05
  -4.819003e+05  -3.347028e+05
  -2.019411e+05  -6.248787e+05
   3.848311e+05  -3.192466e+05
   6.673650e+05   2.548507e+05
   2.601551e+05   5.493520e+05
  -5.074178e+05   3.613209e+05
  -8.808675e+05  -6.232704e+04
  -4.767219e+05  -3.703814e+05
   2.870191e+05  -4.136263e+05
   6.322517e+05  -2.496138e+05
   2.687471e+05  -2.447157e+04
  -3.034132e+05   8.653336e+04
  -3.822814e+05  -3.124999e+04
   1.405637e+05  -2.613345e+05
   6.840038e+05  -2.597295e+05
