
 $NMID
 id='ANONYMOUS ', fmtdat='(2E16.6)'
 volume=1.0
 tramp=1.0
 $END
  -2.064386e+07  -9.053642e+04
  -1.121132e+07  -1.453277e+07
   4.798884e+06  -1.433978e+07
   1.100934e+07  -3.227738e+06
   5.033891e+06   5.026330e+06
  -2.585579e+06   3.961518e+06
  -3.783877e+06  -1.318894e+06
  -2.357203e+05  -3.972542e+06
   2.917030e+06  -2.738116e+06
   3.631472e+06   1.379010e+05
   2.354126e+06   2.613052e+06
  -6.291471e+04   3.156652e+06
  -1.907184e+06   1.150402e+06
  -1.266304e+06  -1.499452e+06
   1.218594e+06  -1.677012e+06
   2.462914e+06   9.749739e+05
   8.456999e+05   3.454162e+06
  -1.944574e+06   3.351170e+06
  -3.608059e+06   1.286496e+06
  -3.640676e+06  -1.058786e+06
  -2.392403e+06  -2.931096e+06
  -9.948673e+04  -3.701194e+06
   2.051585e+06  -2.522934e+06
   2.138880e+06  -1.617605e+05
   2.580197e+05   8.714718e+05
  -8.228409e+05  -4.299830e+05
   6.615589e+05  -1.853986e+06
   2.819450e+06  -1.051556e+06
   2.828669e+06   1.193143e+06
   8.083126e+05   2.438209e+06
  -9.443904e+05   1.967575e+06
  -1.333003e+06   8.863786e+05
  -9.961804e+05  -2.152614e+04
  -4.093347e+05  -5.919020e+05
   3.439550e+05  -3.356114e+05
   4.787026e+05   7.855363e+05
  -6.245308e+05   1.304475e+06
  -1.750840e+06   2.866323e+04
  -1.186791e+06  -1.649700e+06
   4.105957e+05  -1.447974e+06
   7.393979e+05   1.250586e+05
  -4.092738e+05   3.283265e+05
  -6.000496e+05  -1.372445e+06
   1.309037e+06  -2.147884e+06
   3.026987e+06  -9.790595e+04
   2.051933e+06   2.695423e+06
  -7.508984e+05   3.053288e+06
  -2.479471e+06   9.088307e+05
  -1.896977e+06  -1.179621e+06
  -1.887283e+05  -1.527222e+06
   1.084124e+06  -5.492760e+05
   1.211040e+06   6.803651e+05
   1.582371e+05   1.348968e+06
  -1.304005e+06   8.629392e+05
  -1.711044e+06  -5.333299e+05
  -5.177240e+05  -1.388410e+06
   7.730832e+05  -6.892247e+05
   4.580095e+05   4.487787e+05
  -7.958965e+05   1.903075e+05
  -8.221369e+05  -1.213336e+06
   7.913350e+05  -1.699408e+06
   2.106082e+06  -4.582930e+05
   1.710762e+06   1.056277e+06
   4.266264e+05   1.518711e+06
  -4.572820e+05   1.352955e+06
  -9.775110e+05   1.234836e+06
  -1.521396e+06   6.697339e+05
  -1.492277e+06  -7.071323e+05
  -3.549864e+05  -1.721887e+06
   9.001295e+05  -1.104019e+06
   8.300341e+05   4.054193e+05
  -3.475330e+05   9.023147e+05
  -1.027439e+06  -6.062450e+04
  -4.349202e+05  -1.065757e+06
   5.800180e+05  -9.525781e+05
   9.478440e+05  -1.126466e+05
   5.543444e+05   4.682215e+05
  -9.534154e+04   4.089335e+05
  -4.982761e+05  -9.656347e+04
  -2.685034e+05  -6.577363e+05
   5.915250e+05  -7.321618e+05
   1.333868e+06   5.551886e+03
   1.076494e+06   1.045728e+06
  -2.160744e+04   1.397997e+06
  -8.490159e+05   8.154219e+05
  -7.980064e+05   8.921467e+04
  -4.372675e+05  -9.894563e+04
  -4.611283e+05   1.252080e+04
  -6.963406e+05  -9.926600e+04
  -6.051578e+05  -4.292322e+05
  -1.671240e+05  -6.821724e+05
   2.746709e+05  -7.784266e+05
   5.774605e+05  -6.797363e+05
   6.961668e+05  -2.157595e+05
   4.467720e+05   4.397249e+05
  -9.081973e+04   6.221528e+05
  -3.305449e+05   7.320051e+04
   6.850485e+04  -4.725656e+05
   5.541015e+05  -2.564907e+05
   4.279059e+05   3.505390e+05
  -6.484418e+04   4.437781e+05
  -1.422815e+05   3.427477e+04
   2.193388e+05  -3.003126e+04
   2.630368e+05   4.772230e+05
  -2.694940e+05   7.674957e+05
  -7.135370e+05   3.178387e+05
  -5.627675e+05  -3.361742e+05
  -1.844099e+05  -5.011528e+05
  -7.427996e+04  -2.968714e+05
  -8.461881e+04  -2.039799e+05
   9.775989e+04  -2.228606e+05
   2.648985e+05  -9.735328e+04
   9.359639e+04   3.763640e+04
  -1.537588e+05  -1.127867e+05
   1.041764e+04  -3.638165e+05
   4.547904e+05  -2.635555e+05
   5.747351e+05   1.618229e+05
   2.026613e+05   4.279550e+05
  -1.942804e+05   3.205312e+05
  -2.363899e+05   1.060487e+05
  -4.983922e+04   1.517799e+04
   9.860737e+04  -7.196771e+03
   1.318022e+05   7.825564e+03
   2.511987e+04   1.440774e+05
  -2.432554e+05   2.769426e+05
  -4.627967e+05   1.086853e+05
  -2.974568e+05  -3.006428e+05
   1.898043e+05  -4.530544e+05
   4.635607e+05  -1.050340e+05
   1.963329e+05   3.174801e+05
  -2.679285e+05   2.924190e+05
  -3.824373e+05  -9.370688e+04
  -8.737096e+04  -3.397335e+05
   2.358339e+05  -2.203773e+05
   3.021941e+05   5.074897e+04
   1.356557e+05   2.118766e+05
  -1.073781e+05   1.857243e+05
  -2.487322e+05   1.139964e+03
  -1.290689e+05  -2.218007e+05
   1.959463e+05  -2.507250e+05
   3.798109e+05   2.323591e+04
   1.625717e+05   3.467156e+05
  -2.398188e+05   3.518189e+05
  -3.807564e+05   3.598533e+04
  -1.640029e+05  -2.457604e+05
   9.653910e+04  -2.634757e+05
   1.671540e+05  -1.301041e+05
   1.345170e+05  -1.584631e+04
   1.237186e+05   7.667790e+04
   8.903252e+04   1.676998e+05
  -6.578789e+03   1.846223e+05
  -6.984994e+04   1.182437e+05
  -7.203493e+04   8.508280e+04
  -1.341034e+05   1.050189e+05
  -2.703417e+05   2.013431e+04
  -2.722439e+05  -2.150010e+05
  -3.249715e+04  -3.643685e+05
   2.181300e+05  -2.292336e+05
   2.198959e+05   3.049347e+04
   6.456576e+04   1.201250e+05
   1.883494e+04   2.889827e+04
   9.744904e+04  -2.133885e+04
   9.385106e+04   4.151829e+04
  -3.533992e+04   7.725311e+04
  -1.124914e+05   2.306398e+04
  -5.937527e+04  -2.079206e+04
   5.826381e+03  -1.669621e+04
   3.081967e+04  -4.974141e+04
   1.162063e+05  -1.026947e+05
   2.513054e+05  -1.405499e+04
   2.216899e+05   2.286734e+05
  -6.319874e+04   3.701913e+05
  -3.536215e+05   2.207915e+05
  -3.625304e+05  -5.620741e+04
  -1.462861e+05  -1.696007e+05
   9.693521e+03  -9.380501e+04
  -1.156973e+04  -4.592140e+04
  -7.090848e+04  -1.402959e+05
  -2.960788e+04  -2.584391e+05
   9.336120e+04  -2.487650e+05
   2.101610e+05  -9.665051e+04
   2.525453e+05   1.119961e+05
   1.680224e+05   2.657611e+05
  -3.050617e+04   2.578274e+05
  -1.967603e+05   6.809368e+04
  -1.665377e+05  -1.572711e+05
   2.638111e+04  -2.160718e+05
   1.653359e+05  -7.510285e+04
   1.192117e+05   9.995312e+04
  -1.104048e+04   1.589508e+05
  -5.925906e+04   1.172032e+05
  -6.000672e+03   6.629712e+04
   3.928351e+04   4.117265e+04
  -9.175438e+03   2.924254e+04
  -1.391963e+05   2.259130e+04
  -2.592585e+05  -2.797239e+03
  -2.485397e+05  -8.624477e+04
  -5.880143e+04  -1.966769e+05
   1.867905e+05  -2.184401e+05
   2.747206e+05  -9.870569e+04
   1.428002e+05   5.013175e+04
  -3.291705e+04   8.069621e+04
  -6.155577e+04   5.849697e+02
   3.196312e+04  -5.524211e+04
   9.062835e+04  -1.265013e+04
   6.203383e+04   7.056031e+04
   2.405921e+04   1.088354e+05
   1.920809e+04   7.999600e+04
   7.516055e+03   1.329392e+04
  -1.977888e+04  -3.922265e+04
  -1.771131e+04  -1.991390e+04
  -3.273981e+02   7.202108e+04
  -4.384880e+04   1.352751e+05
  -1.319431e+05   6.592781e+04
  -1.267490e+05  -8.679318e+04
   2.475072e+04  -1.526615e+05
   1.628127e+05  -5.780774e+04
   1.053689e+05   7.563946e+04
  -9.837493e+04   9.380940e+04
  -2.207764e+05  -3.010041e+03
  -1.347337e+05  -9.993001e+04
   6.140674e+04  -1.239624e+05
   1.879833e+05  -8.389858e+04
   1.626712e+05  -8.160279e+03
   3.371340e+04   6.553402e+04
  -8.148621e+04   7.092951e+04
  -7.661746e+04  -1.658800e+04
   5.158532e+04  -9.716734e+04
   1.698506e+05  -3.416550e+04
   1.293400e+05   1.517533e+05
  -5.635021e+04   2.630711e+05
  -2.107333e+05   1.501212e+05
  -1.949704e+05  -1.008096e+05
  -5.102643e+04  -2.584653e+05
   8.161595e+04  -1.952830e+05
   1.251171e+05   4.807673e+02
   9.233700e+04   1.427592e+05
   1.987487e+04   1.348239e+05
  -5.422628e+04   3.737479e+04
  -8.064456e+04  -2.399130e+04
  -4.428265e+04  -3.717039e+03
  -8.180926e+03   2.261636e+04
  -4.093353e+04  -2.979695e+04
  -1.009037e+05  -1.290299e+05
  -6.784954e+04  -1.596972e+05
   8.675777e+04  -7.641018e+04
   2.277748e+05   3.888136e+04
   2.042314e+05   9.226230e+04
   3.231818e+04   8.594743e+04
  -1.223641e+05   6.981575e+04
  -1.336724e+05   4.723143e+04
  -3.980594e+04  -1.516293e+03
   2.788140e+04  -4.424022e+04
   5.622471e+03  -3.174489e+04
  -4.134302e+04   7.845029e+03
  -1.436198e+04  -5.222352e+02
   8.533391e+04  -4.723103e+04
   1.443960e+05  -2.932299e+04
   6.674441e+04   8.924622e+04
  -1.052071e+05   1.892986e+05
  -2.256004e+05   1.350321e+05
  -1.969346e+05  -4.632052e+04
  -5.927216e+04  -1.929392e+05
   7.203213e+04  -1.947449e+05
   1.214207e+05  -9.104015e+04
   9.234723e+04   7.164338e+03
   3.143689e+04   3.497813e+04
  -9.311168e+03   9.651946e+03
   3.350059e+03  -6.170724e+03
   5.291493e+04   3.297191e+04
   6.994560e+04   1.006877e+05
   1.613381e+03   1.092932e+05
  -1.067029e+05   9.807199e+03
  -1.375971e+05  -1.236723e+05
  -3.419172e+04  -1.565854e+05
   1.167756e+05  -4.944109e+04
   1.660702e+05   9.424053e+04
   6.266022e+04   1.505341e+05
  -9.074038e+04   1.003063e+05
  -1.496280e+05   1.020518e+04
  -7.988538e+04  -5.988265e+04
   1.663549e+04  -8.691253e+04
   2.626777e+04  -6.357399e+04
  -4.543296e+04  -9.392941e+03
  -8.635317e+04   1.374733e+04
  -1.837386e+04  -3.880059e+04
   1.046781e+05  -1.154208e+05
   1.611530e+05  -1.077451e+05
   1.034131e+05   9.552859e+03
   4.255105e+01   1.273230e+05
  -5.779821e+04   1.258675e+05
  -4.902575e+04   1.816227e+04
  -9.573223e+03  -7.176058e+04
   2.912806e+04  -5.743802e+04
   5.302224e+04   2.442223e+04
   4.446690e+04   7.682540e+04
  -4.187676e+03   5.480134e+04
  -5.979509e+04  -1.496679e+03
  -7.166679e+04  -2.742211e+04
  -3.415005e+04  -7.382089e+03
   4.762496e+03   1.457154e+04
   8.740121e+03  -7.461407e+03
  -1.056489e+03  -5.987917e+04
   1.557091e+04  -7.837370e+04
   5.415113e+04  -2.441123e+04
   6.611363e+04   6.054311e+04
   1.957024e+04   9.506123e+04
  -5.649874e+04   4.740946e+04
  -9.238704e+04  -3.350549e+04
  -4.275565e+04  -7.654067e+04
   6.011310e+04  -5.718071e+04
   1.215064e+05  -3.201825e+03
   7.473898e+04   4.474017e+04
  -3.653263e+04   6.076183e+04
  -9.269713e+04   3.902510e+04
  -3.399748e+04  -1.625861e+03
   6.248379e+04  -2.091581e+04
   7.306896e+04   8.255783e+03
  -2.136285e+04   5.822115e+04
  -1.153243e+05   6.052860e+04
