
 $NMID
 id='ANONYMOUS ', fmtdat='(2E16.6)'
 volume=1.0
 tramp=1.0
 $END
  -5.164859e+07  -1.277349e+06
  -3.019690e+07  -3.218406e+07
   7.377334e+06  -3.441336e+07
   2.515849e+07  -1.318354e+07
   1.485653e+07   6.166502e+06
  -2.970574e+06   8.373292e+06
  -8.862253e+06  -9.466235e+05
  -2.621181e+06  -8.786150e+06
   5.494405e+06  -8.642173e+06
   8.777852e+06  -1.915035e+06
   6.430770e+06   5.829686e+06
   6.864408e+05   8.071218e+06
  -3.811439e+06   2.464447e+06
  -2.536717e+06  -5.225603e+06
   3.404094e+06  -6.177310e+06
   7.195480e+06   1.216036e+06
   4.019168e+06   9.418640e+06
  -3.585883e+06   1.081716e+07
  -9.408149e+06   5.260281e+06
  -9.919926e+06  -2.179126e+06
  -5.820096e+06  -7.103191e+06
  -2.827611e+05  -7.870732e+06
   2.753888e+06  -5.256183e+06
   1.387995e+06  -2.312288e+06
  -1.385669e+06  -2.184927e+06
  -2.354220e+05  -4.189920e+06
   5.343346e+06  -4.177699e+06
   9.269927e+06  -2.950105e+05
   6.552221e+06   4.062795e+06
  -2.379245e+04   4.829741e+06
  -3.781142e+06   2.342755e+06
  -2.452839e+06  -2.428731e+05
   7.283149e+05  -1.215374e+06
   2.480521e+06  -5.767694e+05
   2.262532e+06   1.572033e+06
   5.514161e+05   3.956530e+06
  -1.860814e+06   3.557103e+06
  -2.962618e+06  -3.813168e+05
  -1.342696e+06  -3.497758e+06
   8.891716e+05  -1.569598e+06
   3.011420e+05   2.569430e+06
  -2.326122e+06   2.250787e+06
  -2.250141e+06  -2.915426e+06
   2.191698e+06  -5.520235e+06
   6.205510e+06  -7.537772e+05
   4.486647e+06   6.408454e+06
  -1.869974e+06   7.714980e+06
  -6.876172e+06   2.090411e+06
  -6.491930e+06  -4.156266e+06
  -1.810825e+06  -5.617012e+06
   3.205634e+06  -2.607126e+06
   4.972966e+06   1.313095e+06
   2.361697e+06   3.179605e+06
  -2.174622e+06   2.018206e+06
  -4.166089e+06  -8.478456e+05
  -1.801253e+06  -2.483179e+06
   1.588790e+06  -1.244827e+06
   1.667901e+06   9.283597e+05
  -1.082618e+06   8.630005e+05
  -2.184440e+06  -1.461874e+06
   5.074226e+05  -2.935034e+06
   4.099820e+06  -1.625868e+06
   4.779425e+06   1.208848e+06
   2.102534e+06   3.616601e+06
  -1.776225e+06   4.926301e+06
  -4.864092e+06   4.556052e+06
  -5.920618e+06   1.545846e+06
  -4.250474e+06  -3.114243e+06
  -8.054605e+05  -5.870105e+06
   1.692702e+06  -4.495122e+06
   1.521625e+06  -1.240471e+06
   1.434378e+05   3.134798e+04
   1.569432e+05  -1.108717e+06
   1.770179e+06  -1.718723e+06
   2.851941e+06  -9.404540e+04
   1.994841e+06   2.037963e+06
  -3.298236e+04   2.212616e+06
  -1.632942e+06   2.456660e+05
  -1.729755e+06  -2.061469e+06
   1.267886e+03  -2.895836e+06
   2.724948e+06  -1.557474e+06
   4.273596e+06   1.248118e+06
   2.960527e+06   3.635093e+06
  -1.418846e+05   3.943263e+06
  -2.162918e+06   2.456697e+06
  -2.044038e+06   1.025044e+06
  -1.684041e+06   6.825235e+05
  -2.803586e+06   5.218222e+05
  -4.197119e+06  -6.772172e+05
  -3.401754e+06  -2.640736e+06
  -1.696171e+05  -4.015781e+06
   3.112901e+06  -3.839323e+06
   4.112748e+06  -2.081401e+06
   2.621541e+06   4.606673e+05
   2.317516e+05   2.243335e+06
  -1.129921e+06   1.900234e+06
  -5.583408e+05  -5.765967e+04
   1.079728e+06  -1.290195e+06
   1.850568e+06  -3.872217e+05
   8.732103e+05   1.179156e+06
  -5.173482e+05   1.109589e+06
  -4.572153e+05  -3.465831e+05
   9.377400e+05  -7.144785e+05
   1.736994e+06   1.102506e+06
   7.221755e+05   3.228225e+06
  -1.323782e+06   3.303468e+06
  -2.901029e+06   1.233081e+06
  -3.259980e+06  -1.242192e+06
  -2.356736e+06  -2.637663e+06
  -5.256337e+05  -2.579881e+06
   1.217040e+06  -1.463188e+06
   1.566253e+06  -2.318052e+05
   4.841961e+05   4.087042e+04
  -3.583630e+05  -7.325740e+05
   3.907435e+05  -1.294902e+06
   1.840144e+06  -5.627978e+05
   1.972318e+06   8.381759e+05
   3.889119e+05   1.358615e+06
  -1.133320e+06   5.732402e+05
  -8.946626e+05  -4.227124e+05
   7.904364e+05  -5.405590e+05
   2.141377e+06   2.346009e+05
   1.773672e+06   1.279051e+06
  -1.767690e+05   1.952001e+06
  -2.237763e+06   1.674302e+06
  -2.720777e+06   3.043679e+05
  -1.194412e+06  -1.222657e+06
   8.954882e+05  -1.456884e+06
   1.511554e+06  -1.777054e+05
   1.852914e+05   1.056639e+06
  -1.482711e+06   7.283971e+05
  -1.688308e+06  -7.422063e+05
  -3.621599e+05  -1.603242e+06
   1.033575e+06  -9.751636e+05
   1.224781e+06   2.684672e+05
   2.586253e+05   7.443929e+05
  -7.682292e+05   5.479687e+04
  -7.252782e+05  -1.030428e+06
   5.623062e+05  -1.405729e+06
   1.977102e+06  -5.449668e+05
   2.009527e+06   1.022163e+06
   3.914440e+05   2.033937e+06
  -1.395760e+06   1.620572e+06
  -1.686428e+06   2.250606e+05
  -5.047079e+05  -8.398327e+05
   6.330150e+05  -7.965476e+05
   6.337169e+05  -8.825062e+04
  -8.876134e+04   3.668548e+05
  -4.800348e+05   2.416187e+05
  -1.562253e+05  -4.242168e+04
   4.026749e+05   5.867012e+04
   5.052030e+05   6.268176e+05
  -1.812484e+05   1.151567e+06
  -1.342131e+06   8.909953e+05
  -2.047537e+06  -3.867897e+05
  -1.455171e+06  -1.898406e+06
   1.886973e+05  -2.387412e+06
   1.566446e+06  -1.419275e+06
   1.667285e+06   8.629530e+04
   8.835390e+05   8.684923e+05
   3.522195e+05   6.642904e+05
   4.717327e+05   2.457153e+05
   5.928692e+05   3.125333e+05
   8.181702e+04   7.400676e+05
  -8.440459e+05   8.913880e+05
  -1.415444e+06   3.461462e+05
  -1.056143e+06  -6.914014e+05
   2.087575e+05  -1.445372e+06
   1.674883e+06  -1.083597e+06
   2.218964e+06   4.458569e+05
   1.140517e+06   2.043525e+06
  -9.582852e+05   2.321279e+06
  -2.470625e+06   1.037512e+06
  -2.310887e+06  -6.046632e+05
  -9.738203e+05  -1.286926e+06
   1.645619e+05  -9.399313e+05
   3.755215e+05  -5.354397e+05
   9.675942e+04  -7.621868e+05
   1.158294e+05  -1.282680e+06
   6.540907e+05  -1.258483e+06
   1.265574e+06  -3.145706e+05
   1.324256e+06   1.055416e+06
   5.647216e+05   1.861940e+06
  -6.005512e+05   1.422325e+06
  -1.263688e+06   1.429369e+04
  -8.084791e+05  -1.244248e+06
   3.611226e+05  -1.364983e+06
   1.113861e+06  -4.104224e+05
   7.826643e+05   6.593639e+05
  -1.081972e+05   1.033784e+06
  -5.001757e+05   7.593348e+05
  -6.546160e+04   4.101744e+05
   4.303146e+05   3.333550e+05
   6.220301e+04   3.803629e+05
  -1.119825e+06   2.136674e+05
  -2.021036e+06  -3.123708e+05
  -1.594946e+06  -9.989791e+05
   2.142824e+04  -1.393530e+06
   1.544387e+06  -1.121239e+06
   1.787340e+06  -2.935146e+05
   8.143439e+05   4.606163e+05
  -2.527736e+05   5.502723e+05
  -4.935803e+05   3.971638e+04
  -2.163655e+04  -4.106807e+05
   4.400958e+05  -2.613933e+05
   4.765198e+05   3.336793e+05
   2.513823e+05   7.225353e+05
   9.213502e+04   4.815554e+05
   1.277635e+05  -1.018738e+05
   2.693391e+05  -3.063818e+05
   2.738901e+05   2.228796e+05
  -1.292270e+05   9.808635e+05
  -8.758135e+05   1.057143e+06
  -1.337213e+06   1.693020e+05
  -8.405240e+05  -9.043345e+05
   4.065612e+05  -1.119666e+06
   1.240620e+06  -3.319506e+05
   7.315926e+05   5.602194e+05
  -6.807675e+05   6.445336e+05
  -1.562072e+06  -6.961402e+04
  -1.005021e+06  -8.237310e+05
   4.515594e+05  -9.735461e+05
   1.457525e+06  -4.982029e+05
   1.213671e+06   1.612484e+05
   1.429776e+05   5.007769e+05
  -6.313581e+05   2.732267e+05
  -3.771194e+05  -2.877469e+05
   5.778315e+05  -5.254009e+05
   1.175934e+06   6.857156e+04
   6.790896e+05   1.167836e+06
  -5.664644e+05   1.699070e+06
  -1.461471e+06   8.984364e+05
  -1.254376e+06  -7.321793e+05
  -2.263994e+05  -1.768270e+06
   7.082519e+05  -1.288492e+06
   9.090517e+05   1.598962e+05
   4.403038e+05   1.163937e+06
  -1.993301e+05   9.501642e+05
  -5.500476e+05   8.724008e+04
  -4.661811e+05  -3.597434e+05
  -1.648977e+05  -1.257460e+05
  -4.476498e+04   9.156275e+04
  -2.765242e+05  -2.995285e+05
  -5.146795e+05  -9.518667e+05
  -2.029886e+05  -1.052941e+06
   7.007332e+05  -3.886580e+05
   1.462979e+06   4.374146e+05
   1.273518e+06   8.001265e+05
   1.901669e+05   6.868495e+05
  -8.352267e+05   4.343999e+05
  -9.656423e+05   1.957579e+05
  -3.551082e+05  -5.563107e+04
   1.400391e+05  -2.284954e+05
   3.190613e+04  -1.919659e+05
  -2.636784e+05  -7.694450e+04
  -5.479502e+04  -1.343714e+05
   6.484964e+05  -2.565558e+05
   1.039313e+06  -6.189716e+03
   4.466868e+05   6.931673e+05
  -8.131225e+05   1.192394e+06
  -1.680874e+06   7.750618e+05
  -1.417844e+06  -4.111597e+05
  -3.008004e+05  -1.389526e+06
   7.409223e+05  -1.374315e+06
   1.036373e+06  -5.558240e+05
   6.571501e+05   2.127273e+05
   1.419854e+05   3.567912e+05
  -6.731049e+04   8.023794e+04
   7.608912e+04  -9.297955e+03
   2.969054e+05   3.568442e+05
   2.551866e+05   7.919599e+05
  -1.655511e+05   6.795820e+05
  -6.814251e+05  -9.885417e+04
  -7.618149e+05  -9.274236e+05
  -1.442888e+05  -1.030784e+06
   7.437888e+05  -2.756747e+05
   1.050846e+06   6.868782e+05
   3.729005e+05   1.078820e+06
  -6.980172e+05   6.944267e+05
  -1.117161e+06  -5.338057e+04
  -5.381527e+05  -6.085797e+05
   2.800650e+05  -6.863020e+05
   3.792519e+05  -3.664791e+05
  -2.385934e+05   8.053636e+03
  -6.412488e+05   5.563441e+04
  -1.531613e+05  -3.070209e+05
   8.031392e+05  -6.869837e+05
   1.239036e+06  -5.445881e+05
   7.620449e+05   1.772318e+05
  -8.059992e+04   8.677995e+05
  -5.425022e+05   8.558601e+05
  -4.349874e+05   1.682378e+05
  -7.219409e+04  -4.735123e+05
   2.304722e+05  -4.437303e+05
   3.586855e+05   1.281115e+05
   2.656348e+05   5.674419e+05
  -4.740657e+04   4.356211e+05
  -3.920454e+05  -3.182846e+04
  -4.753769e+05  -2.778156e+05
  -2.376466e+05  -9.694445e+04
   3.647352e+04   1.598473e+05
   7.085450e+04   5.802651e+04
  -3.868996e+04  -3.536894e+05
   2.517820e+04  -5.725049e+05
   3.183370e+05  -2.475465e+05
   4.855084e+05   3.630318e+05
   1.899210e+05   6.500561e+05
  -3.957778e+05   3.300266e+05
  -6.770750e+05  -2.598336e+05
  -2.731630e+05  -5.620742e+05
   4.993245e+05  -3.729393e+05
   8.865949e+05   5.448167e+04
   4.868677e+05   3.655504e+05
  -2.878454e+05   4.119435e+05
  -6.383678e+05   2.490527e+05
  -2.581843e+05   1.977376e+04
   3.348052e+05  -9.343187e+04
   4.088489e+05   3.734040e+04
  -1.442288e+05   2.913835e+05
  -7.132388e+05   2.978421e+05
