
 $NMID
 id='ANONYMOUS ', fmtdat='(2E16.6)'
 volume=1.0
 tramp=1.0
 $END
  -2.730778e+07   1.060890e+06
  -1.884397e+07  -1.238987e+07
  -5.380503e+05  -1.751709e+07
   1.161186e+07  -1.184495e+07
   1.000730e+07  -1.273519e+06
   7.239154e+05   4.992918e+06
  -5.554634e+06   2.571416e+06
  -4.299262e+06  -4.350007e+06
   1.153709e+06  -7.586211e+06
   5.089981e+06  -3.499888e+06
   4.559016e+06   3.405081e+06
   7.391602e+05   5.715612e+06
  -2.597448e+06   1.297210e+06
  -2.233699e+06  -4.662302e+06
   1.472908e+06  -5.636500e+06
   4.616539e+06  -6.521712e+05
   3.597018e+06   5.305791e+06
  -1.030170e+06   6.899095e+06
  -5.139681e+06   3.447461e+06
  -5.393635e+06  -1.375136e+06
  -2.440147e+06  -3.737839e+06
   2.249694e+05  -3.058944e+06
   6.444506e+04  -1.724392e+06
  -1.968723e+06  -2.060750e+06
  -2.493294e+06  -3.816474e+06
   6.064708e+05  -4.616037e+06
   5.407691e+06  -2.749146e+06
   7.373180e+06   8.120956e+05
   4.158232e+06   3.338779e+06
  -1.388925e+06   3.021997e+06
  -3.970280e+06   5.019141e+05
  -1.553648e+06  -1.920128e+06
   2.646942e+06  -2.172459e+06
   4.141964e+06   8.593306e+04
   2.021270e+06   3.055409e+06
  -8.901316e+05   3.995933e+06
  -1.821045e+06   1.807357e+06
  -7.400701e+05  -1.343329e+06
   5.097677e+05  -1.952225e+06
   5.013209e+05   6.920725e+05
  -7.184958e+05   3.259397e+06
  -2.000403e+06   2.282189e+06
  -1.982610e+06  -1.365543e+06
  -1.978917e+05  -3.347474e+06
   2.078880e+06  -1.195044e+06
   2.489403e+06   2.703529e+06
  -7.880651e+04   4.051680e+06
  -3.774334e+06   1.502787e+06
  -5.103578e+06  -2.339935e+06
  -2.429566e+06  -4.103989e+06
   2.093228e+06  -2.783560e+06
   4.486570e+06   2.841251e+04
   2.875033e+06   1.978492e+06
  -7.642183e+05   1.813455e+06
  -2.801128e+06   1.465470e+05
  -1.672244e+06  -1.203797e+06
   7.912282e+05  -9.300439e+05
   1.653601e+06   4.796432e+05
   1.427096e+05   1.334688e+06
  -1.664024e+06   6.390787e+05
  -1.357194e+06  -8.701159e+05
   9.865327e+05  -1.580439e+06
   2.822820e+06  -5.776993e+05
   1.902089e+06   1.616296e+06
  -1.318588e+06   3.421442e+06
  -4.178087e+06   3.240771e+06
  -4.511900e+06   7.271117e+05
  -2.578289e+06  -2.597452e+06
  -3.633158e+05  -4.411388e+06
   6.323784e+05  -3.785654e+06
   6.343877e+05  -2.071374e+06
   8.167115e+05  -1.160674e+06
   1.736258e+06  -1.179157e+06
   2.741927e+06  -6.352696e+05
   2.735098e+06   1.184610e+06
   1.291040e+06   2.872147e+06
  -8.698481e+05   2.477481e+06
  -2.306621e+06  -2.865408e+04
  -1.874593e+06  -2.512440e+06
   2.721100e+05  -2.849503e+06
   2.550243e+06  -9.286612e+05
   3.156291e+06   1.521985e+06
   1.740343e+06   2.731104e+06
  -2.439582e+05   2.347816e+06
  -1.142579e+06   1.367251e+06
  -9.425898e+05   8.927519e+05
  -1.099947e+06   1.029389e+06
  -2.462360e+06   9.117012e+05
  -3.863565e+06  -2.610958e+05
  -3.280407e+06  -2.251252e+06
  -3.028966e+05  -3.812211e+06
   3.028973e+06  -3.683553e+06
   4.113842e+06  -1.700799e+06
   2.364873e+06   8.862058e+05
  -2.958173e+05   2.261220e+06
  -1.446178e+06   1.564700e+06
  -4.679646e+05  -2.217093e+05
   1.162197e+06  -1.148857e+06
   1.633030e+06  -3.415242e+05
   6.127084e+05   1.009842e+06
  -6.491714e+05   1.076882e+06
  -7.609390e+05  -2.889870e+05
   4.309093e+05  -1.229098e+06
   1.755750e+06  -1.067008e+05
   1.791339e+06   2.376650e+06
   8.712695e+04   3.782391e+06
  -2.374557e+06   2.548491e+06
  -3.824968e+06  -4.050339e+05
  -3.106921e+06  -2.717961e+06
  -7.630884e+05  -2.900282e+06
   1.314501e+06  -1.477206e+06
   1.614418e+06  -1.243707e+05
   4.730709e+05   3.476841e+04
  -3.742290e+05  -6.911537e+05
   2.201393e+05  -1.137123e+06
   1.520131e+06  -5.815226e+05
   1.823797e+06   5.362022e+05
   5.377084e+05   1.137164e+06
  -1.023826e+06   6.570822e+05
  -1.066162e+06  -3.747856e+05
   6.383263e+05  -8.636273e+05
   2.377734e+06  -1.864780e+05
   2.235770e+06   1.232536e+06
   9.201664e+04   2.246767e+06
  -2.213123e+06   1.929785e+06
  -2.701624e+06   4.260892e+05
  -1.168753e+06  -1.047104e+06
   7.390032e+05  -1.251206e+06
   1.239583e+06  -1.725364e+05
   9.225806e+04   8.915025e+05
  -1.371871e+06   6.948840e+05
  -1.680602e+06  -5.784072e+05
  -5.888720e+05  -1.538432e+06
   8.287263e+05  -1.187351e+06
   1.275420e+06  -1.310960e+04
   4.613481e+05   6.463608e+05
  -6.221603e+05   1.187902e+05
  -6.700242e+05  -9.427524e+05
   5.696953e+05  -1.326875e+06
   1.918053e+06  -4.855131e+05
   1.921882e+06   9.897047e+05
   4.168478e+05   1.929445e+06
  -1.243428e+06   1.601717e+06
  -1.605940e+06   3.369225e+05
  -5.979228e+05  -7.659648e+05
   5.537458e+05  -8.468199e+05
   7.303685e+05  -8.098819e+04
   6.475803e+03   5.735744e+05
  -6.449642e+05   4.492464e+05
  -4.885518e+05  -1.202473e+05
   2.398878e+05  -2.584164e+05
   6.253236e+05   3.681948e+05
   2.201317e+04   1.095350e+06
  -1.227022e+06   9.468520e+05
  -2.000414e+06  -3.020881e+05
  -1.441319e+06  -1.805519e+06
   1.481250e+05  -2.380640e+06
   1.545590e+06  -1.573634e+06
   1.803481e+06  -5.787899e+04
   1.112019e+06   1.000503e+06
   4.060876e+05   1.013510e+06
   2.596135e+05   4.425774e+05
   3.636779e+05   1.935587e+05
   7.137082e+04   5.702655e+05
  -7.383515e+05   9.356933e+05
  -1.433939e+06   4.863158e+05
  -1.214329e+06  -7.125923e+05
   8.043330e+04  -1.621361e+06
   1.652694e+06  -1.231757e+06
   2.265580e+06   3.613093e+05
   1.273956e+06   1.950775e+06
  -7.160139e+05   2.292371e+06
  -2.276565e+06   1.202266e+06
  -2.381441e+06  -3.618615e+05
  -1.249190e+06  -1.254296e+06
   1.507767e+04  -1.164775e+06
   5.360532e+05  -7.310236e+05
   3.747131e+05  -7.001593e+05
   2.234670e+05  -1.065917e+06
   5.589000e+05  -1.110819e+06
   1.137931e+06  -2.909394e+05
   1.268941e+06   1.029872e+06
   5.570435e+05   1.827659e+06
  -5.944688e+05   1.402819e+06
  -1.261865e+06   7.136680e+04
  -8.728612e+05  -1.123146e+06
   1.874111e+05  -1.341097e+06
   9.328546e+05  -6.037949e+05
   7.782289e+05   3.709942e+05
   1.028511e+05   8.832301e+05
  -2.518019e+05   8.019225e+05
   2.868469e+04   5.034057e+05
   3.800221e+05   3.686432e+05
   3.631747e+04   3.913277e+05
  -1.017573e+06   2.628143e+05
  -1.878272e+06  -2.191984e+05
  -1.583748e+06  -8.754195e+05
  -1.500201e+05  -1.269836e+06
   1.326701e+06  -1.088068e+06
   1.696222e+06  -4.244652e+05
   8.732436e+05   2.535818e+05
  -1.575705e+05   4.607466e+05
  -4.387137e+05   1.277505e+05
   2.308298e+04  -2.849257e+05
   4.880943e+05  -2.229456e+05
   4.484578e+05   3.246524e+05
   1.103736e+05   7.364000e+05
  -3.735183e+04   4.711970e+05
   1.481238e+05  -1.974677e+05
   3.785711e+05  -4.161551e+05
   2.993783e+05   2.019242e+05
  -1.897295e+05   1.007526e+06
  -8.388135e+05   1.021201e+06
  -1.137571e+06   9.935325e+04
  -6.681574e+05  -8.718506e+05
   3.778599e+05  -9.710231e+05
   1.108932e+06  -2.086656e+05
   6.984392e+05   5.880300e+05
  -6.279598e+05   6.738439e+05
  -1.609147e+06   2.544453e+04
  -1.193778e+06  -7.766963e+05
   3.026203e+05  -1.095643e+06
   1.486746e+06  -7.085606e+05
   1.338456e+06   4.838704e+04
   2.190247e+05   5.328772e+05
  -6.083066e+05   3.478617e+05
  -3.324940e+05  -2.306890e+05
   6.270318e+05  -4.474304e+05
   1.137484e+06   1.659973e+05
   5.412001e+05   1.193389e+06
  -7.017051e+05   1.612032e+06
  -1.507685e+06   7.884295e+05
  -1.232178e+06  -7.767783e+05
  -2.058562e+05  -1.786949e+06
   7.094984e+05  -1.360176e+06
   9.402805e+05   6.747986e+04
   5.398651e+05   1.152919e+06
  -7.922954e+04   1.027057e+06
  -5.156677e+05   1.444255e+05
  -5.528857e+05  -3.850343e+05
  -2.602848e+05  -1.648886e+05
  -9.184816e+03   1.256250e+05
  -1.414820e+05  -2.169871e+05
  -4.657598e+05  -9.128623e+05
  -3.235702e+05  -1.082184e+06
   5.626331e+05  -4.243849e+05
   1.480051e+06   4.376631e+05
   1.385349e+06   8.045774e+05
   2.073136e+05   6.615758e+05
  -9.296184e+05   4.135270e+05
  -1.002865e+06   2.309831e+05
  -2.759435e+05   1.165118e+04
   1.772833e+05  -2.135751e+05
  -7.931562e+04  -2.603677e+05
  -3.800300e+05  -1.558615e+05
  -4.360292e+03  -1.368254e+05
   7.745847e+05  -1.906723e+05
   1.011571e+06   3.877878e+04
   2.560005e+05   6.537257e+05
  -9.288113e+05   1.088147e+06
  -1.580964e+06   6.666698e+05
  -1.239718e+06  -4.795758e+05
  -2.308455e+05  -1.396941e+06
   7.127033e+05  -1.313921e+06
   1.022350e+06  -4.536077e+05
   6.593497e+05   2.894013e+05
   8.283510e+04   3.477837e+05
  -1.675821e+05  -4.067052e+03
   4.323663e+04  -9.536704e+04
   3.503956e+05   3.246731e+05
   2.925137e+05   7.906071e+05
  -1.953976e+05   6.414560e+05
  -6.890054e+05  -1.922874e+05
  -6.595484e+05  -1.003053e+06
   5.751333e+03  -9.962811e+05
   8.018496e+05  -1.386198e+05
   9.788344e+05   8.008246e+05
   2.727477e+05   1.059471e+06
  -7.134208e+05   5.849627e+05
  -1.041699e+06  -1.012666e+05
  -4.612094e+05  -5.243591e+05
   2.709573e+05  -5.669408e+05
   2.822720e+05  -3.389091e+05
  -3.382873e+05  -4.701296e+04
  -6.611953e+05   2.370025e+04
  -1.108996e+05  -2.822107e+05
   8.069302e+05  -6.800672e+05
   1.150124e+06  -6.055631e+05
   6.514839e+05   9.503641e+04
  -1.008049e+05   8.128214e+05
  -4.543153e+05   8.007442e+05
  -3.197785e+05   9.064688e+04
  -1.852749e+03  -5.081022e+05
   2.512960e+05  -3.741951e+05
   3.493274e+05   2.291381e+05
   2.355611e+05   5.681381e+05
  -7.360955e+04   3.396429e+05
  -3.786062e+05  -8.109548e+04
  -4.363404e+05  -2.141679e+05
  -2.371387e+05  -4.059221e+04
  -8.907825e+03   7.911150e+04
   8.113722e+04  -9.695641e+04
   1.079914e+05  -3.999237e+05
   2.168757e+05  -4.423579e+05
   3.647201e+05  -5.668206e+04
   3.332921e+05   4.722937e+05
   7.062544e+02   6.459814e+05
  -4.430182e+05   2.645313e+05
  -5.920002e+05  -3.306347e+05
  -2.033707e+05  -5.956673e+05
   4.711498e+05  -3.447237e+05
   8.123154e+05   1.130198e+05
   4.427820e+05   3.720498e+05
  -2.873358e+05   3.270360e+05
  -6.017961e+05   1.437304e+05
  -1.779119e+05   4.560680e+03
   4.320979e+05   3.534823e+03
   4.347539e+05   1.590112e+05
  -2.423873e+05   3.410927e+05
  -8.540252e+05   2.596443e+05
