
 $NMID
 id='ANONYMOUS ', fmtdat='(2E16.6)'
 volume=1.0
 tramp=1.0
 $END
   2.665275e+07   2.987818e+06
   1.465654e+07   1.769869e+07
  -5.039919e+06   1.766520e+07
  -1.400255e+07   6.285135e+06
  -8.069204e+06  -3.759817e+06
   1.877812e+06  -4.849102e+06
   5.229187e+06   3.687256e+05
   1.574508e+06   5.049062e+06
  -3.295278e+06   5.092280e+06
  -5.091388e+06   9.349133e+05
  -3.268609e+06  -3.765087e+06
   2.908389e+05  -4.763134e+06
   2.527387e+06  -1.060823e+06
   1.284776e+06   3.379538e+06
  -2.148325e+06   3.537112e+06
  -3.859018e+06  -8.768355e+05
  -1.659242e+06  -5.205345e+06
   2.534819e+06  -5.411033e+06
   5.221708e+06  -1.971767e+06
   4.852738e+06   1.931153e+06
   2.339066e+06   4.000353e+06
  -3.989369e+05   3.875131e+06
  -1.568904e+06   2.451605e+06
  -6.469848e+05   1.302368e+06
   6.330788e+05   1.559912e+06
  -2.847480e+05   2.438627e+06
  -3.349638e+06   1.888261e+06
  -5.237580e+06  -5.677532e+05
  -3.387684e+06  -2.813840e+06
   4.916720e+05  -2.790936e+06
   2.518355e+06  -1.010068e+06
   1.359287e+06   5.209329e+05
  -8.439401e+05   7.511413e+05
  -1.703263e+06  -8.598562e+04
  -9.204549e+05  -1.425004e+06
   4.668317e+05  -2.325079e+06
   1.442398e+06  -1.556663e+06
   1.353750e+06   6.645981e+05
   3.047683e+05   1.937645e+06
  -4.588691e+05   5.537136e+05
   2.158831e+05  -1.567484e+06
   1.482837e+06  -1.094276e+06
   1.157535e+06   1.742256e+06
  -1.188870e+06   2.963395e+06
  -3.106331e+06   3.209500e+05
  -2.141804e+06  -3.383985e+06
   1.086371e+06  -3.907906e+06
   3.627018e+06  -8.258862e+05
   3.382675e+06   2.512745e+06
   7.968123e+05   3.228280e+06
  -1.995833e+06   1.417001e+06
  -2.884977e+06  -9.646688e+05
  -1.246619e+06  -2.081735e+06
   1.369402e+06  -1.257731e+06
   2.399920e+06   6.090016e+05
   9.670476e+05   1.602734e+06
  -9.657027e+05   7.459444e+05
  -1.002317e+06  -6.825778e+05
   5.843988e+05  -7.084727e+05
   1.332532e+06   6.861294e+05
  -3.289259e+04   1.611390e+06
  -2.039897e+06   8.747682e+05
  -2.511435e+06  -7.486520e+05
  -9.912250e+05  -1.982434e+06
   1.319758e+06  -2.411368e+06
   3.020141e+06  -1.939754e+06
   3.265225e+06  -2.939933e+05
   1.938420e+06   2.007495e+06
  -7.486575e+04   3.273876e+06
  -1.281718e+06   2.446507e+06
  -1.028056e+06   6.753242e+05
  -2.707816e+05  -6.275484e+04
  -3.197407e+05   4.589807e+05
  -1.143883e+06   6.900472e+05
  -1.570586e+06  -2.759596e+05
  -9.058889e+05  -1.443987e+06
   3.272256e+05  -1.369384e+06
   1.134016e+06   1.365891e+04
   9.170915e+05   1.455323e+06
  -2.725872e+05   1.738303e+06
  -1.700002e+06   6.282196e+05
  -2.213943e+06  -1.084912e+06
  -1.242445e+06  -2.189310e+06
   3.908007e+05  -2.022344e+06
   1.264841e+06  -1.075898e+06
   1.084481e+06  -3.938796e+05
   9.362130e+05  -3.081556e+05
   1.594284e+06  -1.596853e+05
   2.292126e+06   6.352983e+05
   1.722667e+06   1.732585e+06
  -1.812832e+05   2.307521e+06
  -2.057437e+06   1.937593e+06
  -2.539166e+06   8.035864e+05
  -1.475021e+06  -5.434494e+05
   1.069262e+05  -1.329576e+06
   9.053317e+05  -9.848559e+05
   3.863886e+05   1.068460e+05
  -7.313980e+05   7.055007e+05
  -1.153619e+06   1.295367e+05
  -4.394066e+05  -7.662709e+05
   4.555482e+05  -6.974290e+05
   3.870107e+05   2.093760e+05
  -5.011153e+05   5.228971e+05
  -1.003160e+06  -4.982489e+05
  -3.904241e+05  -1.838980e+06
   8.494970e+05  -1.995766e+06
   1.776590e+06  -7.174597e+05
   1.900667e+06   9.328948e+05
   1.237036e+06   1.818627e+06
   1.020977e+05   1.601923e+06
  -8.534935e+05   7.168528e+05
  -9.526807e+05  -4.476391e+04
  -2.819514e+05  -8.585260e+04
   1.890614e+05   4.466264e+05
  -2.560690e+05   7.425095e+05
  -1.084088e+06   2.562675e+05
  -1.155646e+06  -5.749200e+05
  -2.315553e+05  -8.597471e+05
   6.895267e+05  -3.692747e+05
   5.927368e+05   2.507484e+05
  -4.001506e+05   3.218522e+05
  -1.233142e+06  -1.948546e+05
  -1.010004e+06  -8.566323e+05
   2.014414e+05  -1.175209e+06
   1.434495e+06  -8.482679e+05
   1.632674e+06   2.736389e+04
   6.257871e+05   8.161603e+05
  -6.158719e+05   7.955937e+05
  -8.995165e+05   5.922061e+03
  -5.747658e+04  -6.334703e+05
   9.073825e+05  -3.519825e+05
   9.717657e+05   5.306990e+05
   1.529713e+05   1.006121e+06
  -6.757530e+05   5.926482e+05
  -7.812179e+05  -1.815022e+05
  -2.070260e+05  -4.843329e+05
   3.933286e+05  -7.537815e+04
   3.648667e+05   5.555439e+05
  -3.636526e+05   7.263934e+05
  -1.121047e+06   1.723892e+05
  -1.060434e+06  -7.159339e+05
  -8.393151e+04  -1.196786e+06
   9.281209e+05  -8.495578e+05
   1.037841e+06  -6.788649e+03
   2.903181e+05   5.745862e+05
  -4.220750e+05   4.905962e+05
  -4.468231e+05   3.084656e+04
  -1.249992e+03  -2.565958e+05
   2.896956e+05  -1.751575e+05
   1.535505e+05   1.598285e+04
  -1.586562e+05  -2.347777e+04
  -2.253399e+05  -3.364724e+05
   1.624803e+05  -5.996627e+05
   7.954530e+05  -3.925627e+05
   1.113249e+06   3.616772e+05
   6.714713e+05   1.176562e+06
  -3.115666e+05   1.363114e+06
  -1.049586e+06   7.267639e+05
  -1.005259e+06  -1.875169e+05
  -4.648100e+05  -6.603853e+05
  -1.083507e+05  -5.273139e+05
  -1.597307e+05  -2.212544e+05
  -2.330724e+05  -1.733472e+05
   4.242886e+04  -3.526493e+05
   5.365823e+05  -3.997747e+05
   7.991845e+05  -6.978863e+04
   5.180124e+05   4.898485e+05
  -2.366744e+05   8.120151e+05
  -1.019250e+06   4.817513e+05
  -1.221011e+06  -4.206659e+05
  -5.304551e+05  -1.236515e+06
   6.589022e+05  -1.261135e+06
   1.465116e+06  -4.548245e+05
   1.328093e+06   4.843011e+05
   5.389649e+05   8.444798e+05
  -1.468985e+05   6.036333e+05
  -3.195019e+05   3.157397e+05
  -1.968881e+05   3.941653e+05
  -2.006416e+05   6.667513e+05
  -4.563204e+05   6.385318e+05
  -7.215599e+05   7.587134e+04
  -6.616582e+05  -7.100559e+05
  -1.727212e+05  -1.113372e+06
   4.618106e+05  -7.733293e+05
   7.388969e+05   6.881076e+04
   3.949547e+05   7.467325e+05
  -2.672478e+05   7.619725e+05
  -6.312737e+05   2.188832e+05
  -4.075666e+05  -3.498433e+05
   7.212602e+04  -5.472210e+05
   2.669801e+05  -4.262161e+05
   4.992254e+04  -2.769848e+05
  -1.788887e+05  -2.426340e+05
   2.382628e+04  -2.148403e+05
   6.195256e+05  -3.017608e+04
   1.065771e+06   3.209241e+05
   8.278895e+05   6.629810e+05
  -4.974961e+04   7.629974e+05
  -8.989685e+05   5.169760e+05
  -1.041736e+06   6.908433e+04
  -4.733087e+05  -2.657820e+05
   1.559579e+05  -2.639064e+05
   2.694110e+05  -8.030009e+03
  -5.395697e+04   1.835821e+05
  -3.089296e+05   7.325136e+04
  -2.258709e+05  -2.464011e+05
  -7.107177e+03  -4.370668e+05
   4.393812e+04  -2.762730e+05
  -9.510893e+04   6.721498e+04
  -2.104785e+05   1.788414e+05
  -1.180172e+05  -1.256757e+05
   1.937969e+05  -5.218280e+05
   5.560689e+05  -4.969661e+05
   6.725807e+05   3.211825e+04
   3.269881e+05   5.586116e+05
  -3.098450e+05   5.413137e+05
  -6.777996e+05   2.962299e+04
  -3.467917e+05  -4.037246e+05
   4.404588e+05  -3.160689e+05
   9.151252e+05   1.662141e+05
   5.647432e+05   5.670213e+05
  -3.116051e+05   5.652185e+05
  -9.085228e+05   2.200246e+05
  -7.332673e+05  -1.705865e+05
  -6.330190e+04  -3.185758e+05
   3.840566e+05  -1.377252e+05
   1.850018e+05   1.663506e+05
  -3.838606e+05   2.173924e+05
  -6.453468e+05  -1.752207e+05
  -2.278744e+05  -7.318888e+05
   5.354778e+05  -8.807006e+05
   9.421284e+05  -3.273140e+05
   6.391394e+05   5.646306e+05
  -5.467556e+04   1.047203e+06
  -5.379940e+05   6.993542e+05
  -5.231152e+05  -1.422468e+05
  -1.856395e+05  -7.069476e+05
   1.496799e+05  -5.645852e+05
   3.045113e+05  -3.009912e+04
   2.685939e+05   2.591273e+05
   1.254553e+05   1.059031e+05
   2.510710e+04  -6.892976e+04
   8.261210e+04   1.505606e+05
   1.939280e+05   5.771982e+05
   7.037888e+04   6.519098e+05
  -3.854097e+05   1.861680e+05
  -8.101526e+05  -3.935388e+05
  -7.019611e+05  -5.926583e+05
  -4.899967e+04  -3.998766e+05
   5.613348e+05  -1.499297e+05
   5.902840e+05  -3.172248e+04
   1.676776e+05   3.272691e+04
  -1.212293e+05   1.132367e+05
  -1.274289e+03   1.453404e+05
   1.837157e+05   1.033680e+05
   6.420311e+02   7.037279e+04
  -4.390485e+05   4.825295e+04
  -5.805924e+05  -1.060587e+05
  -1.146141e+05  -4.078876e+05
   6.218399e+05  -5.584362e+05
   9.903217e+05  -2.480415e+05
   6.930492e+05   3.890579e+05
   7.947822e+03   8.232723e+05
  -5.359095e+05   6.899134e+05
  -6.256832e+05   1.780487e+05
  -3.485699e+05  -2.094586e+05
  -2.738671e+04  -2.032159e+05
   7.874567e+04   3.414206e+03
  -3.559648e+04   3.618978e+04
  -1.620125e+05  -2.190932e+05
  -9.494995e+04  -4.778252e+05
   1.618754e+05  -3.613155e+05
   3.802976e+05   1.532190e+05
   3.082974e+05   6.281512e+05
  -7.347702e+04   5.849240e+05
  -4.716828e+05   2.721863e+04
  -5.016201e+05  -5.401590e+05
  -6.887568e+04  -6.402988e+05
   4.653111e+05  -2.824650e+05
   5.973903e+05   1.505580e+05
   2.241989e+05   3.527997e+05
  -2.071165e+05   3.135723e+05
  -2.020737e+05   1.738714e+05
   1.775762e+05   5.540955e+04
   3.764584e+05   4.623583e+04
   3.988911e+04   1.764596e+05
  -5.286277e+05   3.161480e+05
  -7.308830e+05   2.296447e+05
  -3.803186e+05  -1.318316e+05
   1.341618e+05  -4.682546e+05
   3.518426e+05  -4.227014e+05
   2.092469e+05  -2.805082e+04
  -3.865810e+04   2.888425e+05
  -1.788529e+05   1.989282e+05
  -1.811238e+05  -1.525262e+05
  -8.477794e+04  -3.490758e+05
   7.330083e+04  -2.018286e+05
   2.141164e+05   7.568461e+04
   2.360553e+05   1.748203e+05
   1.311040e+05   5.521802e+04
   6.704357e+03  -5.611729e+04
  -5.131359e+04   2.658662e+04
  -7.803087e+04   2.170571e+05
  -1.435250e+05   2.571064e+05
  -2.144454e+05   2.515847e+04
  -1.705439e+05  -2.927580e+05
   3.585071e+04  -3.761953e+05
   2.743937e+05  -1.187522e+05
   3.202526e+05   2.382700e+05
   6.995159e+04   3.564409e+05
  -3.066446e+05   1.554064e+05
  -4.667922e+05  -1.347434e+05
  -2.261977e+05  -2.556731e+05
   1.984046e+05  -1.743527e+05
   3.698115e+05  -4.023542e+04
   1.162604e+05   1.670571e+04
  -2.386718e+05  -2.376113e+04
  -2.376028e+05  -1.151287e+05
   1.560888e+05  -1.712816e+05
   4.986848e+05  -7.844797e+04
