
 $NMID
 id='ANONYMOUS ', fmtdat='(2E16.6)'
 volume=1.0
 tramp=1.0
 $END
   2.206592e+07  -5.670923e+05
   1.594738e+07   8.563523e+06
   1.765580e+06   1.375236e+07
  -8.955658e+06   1.130599e+07
  -9.011304e+06   2.771711e+06
  -1.448614e+06  -4.254947e+06
   4.915872e+06  -3.276775e+06
   4.623582e+06   3.483360e+06
  -3.663287e+05   7.421818e+06
  -4.397600e+06   3.772776e+06
  -4.078338e+06  -3.050571e+06
  -5.715485e+05  -5.293057e+06
   2.411273e+06  -9.456148e+05
   2.062388e+06   4.711062e+06
  -1.214436e+06   5.576220e+06
  -4.099235e+06   9.580294e+05
  -3.382492e+06  -4.542993e+06
   6.721623e+05  -6.056020e+06
   4.340998e+06  -2.897543e+06
   4.373087e+06   1.415569e+06
   1.530924e+06   3.116325e+06
  -4.976479e+05   1.959382e+06
   5.005493e+05   8.702284e+05
   2.778483e+06   2.065985e+06
   2.738744e+06   4.369527e+06
  -9.561574e+05   4.829974e+06
  -5.658423e+06   2.312099e+06
  -7.083078e+06  -1.344095e+06
  -3.564631e+06  -3.396829e+06
   1.873876e+06  -2.626168e+06
   4.153432e+06   5.730873e+04
   1.334064e+06   2.437316e+06
  -3.234235e+06   2.404677e+06
  -4.654657e+06  -3.494706e+05
  -1.942133e+06  -3.548084e+06
   1.374788e+06  -4.089008e+06
   1.923434e+06  -1.370839e+06
   1.839018e+05   1.656041e+06
  -1.051774e+06   1.628732e+06
  -4.267438e+05  -1.279942e+06
   1.071437e+06  -3.500223e+06
   2.035747e+06  -2.286231e+06
   1.905437e+06   1.081374e+06
   6.578268e+05   2.878210e+06
  -1.156862e+06   1.220757e+06
  -1.940976e+06  -1.969038e+06
  -1.908747e+05  -3.240793e+06
   3.166770e+06  -1.250529e+06
   4.804669e+06   2.123486e+06
   2.503467e+06   3.901625e+06
  -1.953401e+06   2.818722e+06
  -4.461604e+06   1.457352e+05
  -2.995751e+06  -1.808161e+06
   4.966187e+05  -1.761268e+06
   2.526844e+06  -2.901837e+05
   1.625720e+06   9.693915e+05
  -6.496317e+05   8.389079e+05
  -1.668449e+06  -4.309665e+05
  -4.085162e+05  -1.468131e+06
   1.569466e+06  -1.108800e+06
   1.789507e+06   4.057145e+05
  -3.018860e+05   1.541692e+06
  -2.411132e+06   9.225183e+05
  -1.830308e+06  -1.226092e+06
   1.353350e+06  -3.098196e+06
   4.220930e+06  -2.875664e+06
   4.311239e+06  -4.014066e+05
   2.154768e+06   2.628949e+06
   1.204432e+05   4.179148e+06
  -5.056135e+05   3.672914e+06
  -4.791263e+05   2.295492e+06
  -1.015787e+06   1.467498e+06
  -2.197469e+06   1.198728e+06
  -3.082014e+06   3.208815e+05
  -2.758020e+06  -1.608045e+06
  -1.076735e+06  -3.194171e+06
   1.166747e+06  -2.586782e+06
   2.530388e+06   1.583596e+05
   1.886318e+06   2.738909e+06
  -4.300298e+05   2.903060e+06
  -2.605360e+06   7.208018e+05
  -2.920984e+06  -1.730985e+06
  -1.396962e+06  -2.641836e+06
   3.600450e+05  -2.010770e+06
   9.728173e+05  -1.091949e+06
   7.236687e+05  -8.446381e+05
   1.010676e+06  -1.102398e+06
   2.463872e+06  -9.551262e+05
   3.868334e+06   2.809347e+05
   3.264294e+06   2.308370e+06
   2.301247e+05   3.865883e+06
  -3.193215e+06   3.650453e+06
  -4.270305e+06   1.531674e+06
  -2.339315e+06  -1.084576e+06
   4.983548e+05  -2.319503e+06
   1.608230e+06  -1.481323e+06
   4.509678e+05   2.839249e+05
  -1.248179e+06   1.109039e+06
  -1.630761e+06   2.858522e+05
  -5.307737e+05  -1.015032e+06
   7.307975e+05  -1.075012e+06
   8.436091e+05   3.040660e+05
  -3.510271e+05   1.366363e+06
  -1.795425e+06   3.505775e+05
  -2.017743e+06  -2.269264e+06
  -3.279948e+05  -3.978858e+06
   2.364435e+06  -2.857404e+06
   4.036093e+06   3.139994e+05
   3.288981e+06   2.885128e+06
   7.599736e+05   3.069865e+06
  -1.412685e+06   1.480966e+06
  -1.670019e+06   5.524745e+04
  -4.803704e+05  -4.759253e+04
   3.662123e+05   7.099747e+05
  -2.207473e+05   1.119006e+06
  -1.497954e+06   5.511030e+05
  -1.812766e+06  -5.332067e+05
  -5.484058e+05  -1.126163e+06
   1.043691e+06  -6.606428e+05
   1.123197e+06   4.049226e+05
  -6.410220e+05   9.457800e+05
  -2.497979e+06   2.274052e+05
  -2.368931e+06  -1.312771e+06
  -9.742279e+04  -2.375224e+06
   2.316091e+06  -1.975731e+06
   2.774834e+06  -3.873157e+05
   1.157818e+06   1.064539e+06
  -7.589023e+05   1.207851e+06
  -1.208619e+06   1.349976e+05
  -4.235585e+04  -8.776080e+05
   1.400815e+06  -6.618322e+05
   1.701416e+06   6.031566e+05
   6.115981e+05   1.575472e+06
  -8.328487e+05   1.240425e+06
  -1.316084e+06   4.313976e+04
  -4.996972e+05  -6.509535e+05
   6.079430e+05  -1.166481e+05
   6.464759e+05   9.677079e+05
  -6.259242e+05   1.327014e+06
  -1.968266e+06   4.279219e+05
  -1.920593e+06  -1.063642e+06
  -3.760991e+05  -1.964373e+06
   1.284249e+06  -1.598744e+06
   1.633716e+06  -3.241129e+05
   6.101455e+05   7.834247e+05
  -5.739817e+05   8.617997e+05
  -7.742890e+05   5.891885e+04
  -1.350928e+04  -6.390464e+05
   7.141522e+05  -4.942954e+05
   5.799869e+05   1.541273e+05
  -2.110693e+05   3.351548e+05
  -6.585287e+05  -3.306662e+05
  -4.106574e+04  -1.108628e+06
   1.256598e+06  -9.489729e+05
   2.030487e+06   3.467681e+05
   1.421817e+06   1.870043e+06
  -2.104564e+05   2.433577e+06
  -1.622659e+06   1.604929e+06
  -1.880974e+06   4.373255e+04
  -1.166806e+06  -1.085948e+06
  -4.033039e+05  -1.132976e+06
  -2.044934e+05  -5.097898e+05
  -3.118851e+05  -1.817382e+05
  -5.439694e+04  -5.456720e+05
   7.563652e+05  -9.489266e+05
   1.487173e+06  -4.936452e+05
   1.264415e+06   7.675339e+05
  -9.482270e+04   1.701700e+06
  -1.722696e+06   1.252438e+06
  -2.323280e+06  -4.139420e+05
  -1.281419e+06  -2.013341e+06
   7.422794e+05  -2.320685e+06
   2.320324e+06  -1.204683e+06
   2.445146e+06   3.807277e+05
   1.309793e+06   1.311397e+06
  -1.123766e+04   1.246206e+06
  -6.073114e+05   7.823700e+05
  -4.714933e+05   6.942793e+05
  -2.873764e+05   1.034592e+06
  -5.831166e+05   1.085892e+06
  -1.144219e+06   2.586238e+05
  -1.257468e+06  -1.086521e+06
  -5.160517e+05  -1.881298e+06
   6.487080e+05  -1.415886e+06
   1.294778e+06  -5.006644e+04
   8.768603e+05   1.147124e+06
  -1.893158e+05   1.362167e+06
  -9.288547e+05   6.369530e+05
  -7.840191e+05  -3.335926e+05
  -1.295498e+05  -8.707725e+05
   2.216005e+05  -8.232891e+05
  -3.792733e+04  -5.381929e+05
  -3.674707e+05  -3.969228e+05
  -2.054051e+04  -4.047612e+05
   1.025527e+06  -2.519269e+05
   1.884551e+06   2.564605e+05
   1.594997e+06   9.132769e+05
   1.572274e+05   1.275683e+06
  -1.339573e+06   1.067933e+06
  -1.727993e+06   4.166748e+05
  -9.002798e+05  -2.354435e+05
   1.523975e+05  -4.457901e+05
   4.395909e+05  -1.392698e+05
  -4.264521e+04   2.612050e+05
  -5.174257e+05   2.056434e+05
  -4.433352e+05  -3.430131e+05
  -5.882909e+04  -7.614939e+05
   8.267200e+04  -4.799327e+05
  -1.614246e+05   2.214083e+05
  -4.255777e+05   4.431623e+05
  -3.082089e+05  -2.100682e+05
   2.364938e+05  -1.034532e+06
   8.803858e+05  -1.014963e+06
   1.122371e+06  -5.212926e+04
   6.191628e+05   9.059495e+05
  -4.088948e+05   9.491497e+05
  -1.111723e+06   1.524048e+05
  -6.912646e+05  -6.291023e+05
   6.497409e+05  -6.792636e+05
   1.660168e+06  -3.354198e+03
   1.246068e+06   8.173943e+05
  -3.047954e+05   1.142396e+06
  -1.549464e+06   7.342031e+05
  -1.399515e+06  -6.011019e+04
  -2.275257e+05  -5.596044e+05
   6.276824e+05  -3.565836e+05
   3.232604e+05   2.329872e+05
  -6.678431e+05   4.225519e+05
  -1.152653e+06  -2.261525e+05
  -4.879005e+05  -1.245436e+06
   7.977449e+05  -1.611910e+06
   1.578897e+06  -7.389537e+05
   1.235305e+06   8.417068e+05
   1.552779e+05   1.841397e+06
  -7.656677e+05   1.390687e+06
  -9.687054e+05  -7.377063e+04
  -5.440951e+05  -1.193955e+06
   8.174608e+04  -1.068272e+06
   5.244910e+05  -1.468274e+05
   5.765280e+05   4.161367e+05
   2.848800e+05   1.854920e+05
   4.411382e+03  -1.362308e+05
   1.063743e+05   2.075992e+05
   4.393012e+05   9.398791e+05
   3.292072e+05   1.124591e+06
  -5.558147e+05   4.265524e+05
  -1.508174e+06  -4.907550e+05
  -1.423269e+06  -8.644963e+05
  -1.977136e+05  -6.777784e+05
   9.867932e+05  -3.928143e+05
   1.042979e+06  -2.167072e+05
   2.640373e+05  -1.975607e+04
  -1.966883e+05   2.102415e+05
   1.006929e+05   2.845968e+05
   4.132699e+05   1.888126e+05
  -1.122559e+04   1.414554e+05
  -8.295810e+05   1.584440e+05
  -1.029371e+06  -7.946794e+04
  -1.982922e+05  -6.688563e+05
   1.010884e+06  -1.064370e+06
   1.615965e+06  -6.118722e+05
   1.214818e+06   5.437827e+05
   1.802709e+05   1.440206e+06
  -7.613647e+05   1.311934e+06
  -1.057965e+06   4.116253e+05
  -6.686123e+05  -3.336272e+05
  -6.098535e+04  -3.571683e+05
   1.958900e+05   2.837995e+04
  -3.884003e+04   1.168185e+05
  -3.624695e+05  -3.349345e+05
  -2.859925e+05  -8.183245e+05
   2.260878e+05  -6.429645e+05
   7.030131e+05   2.390674e+05
   6.232581e+05   1.065377e+06
  -7.023958e+04   1.013294e+06
  -8.400636e+05   8.681202e+04
  -9.635967e+05  -8.759520e+05
  -2.254693e+05  -1.089329e+06
   7.518892e+05  -5.532832e+05
   1.047064e+06   1.451195e+05
   4.392247e+05   5.310141e+05
  -2.922719e+05   5.451603e+05
  -2.763182e+05   3.323705e+05
   3.690386e+05   7.031361e+04
   6.831586e+05   1.914071e+03
   9.554279e+04   2.866264e+05
  -8.472629e+05   6.722486e+05
  -1.174563e+06   6.017686e+05
  -6.382880e+05  -9.697769e+04
   1.315678e+05  -8.170763e+05
   4.677244e+05  -7.941539e+05
   3.032930e+05  -6.494328e+04
  -2.906683e+04   5.292050e+05
  -2.733700e+05   3.599587e+05
  -3.496670e+05  -2.686972e+05
  -2.180988e+05  -5.892211e+05
   9.173797e+04  -3.233277e+05
   3.826875e+05   1.056791e+05
   4.314656e+05   2.170342e+05
   2.414559e+05   3.497010e+04
   2.250664e+04  -6.193306e+04
  -8.766234e+04   1.338177e+05
  -1.566676e+05   4.183566e+05
  -2.808871e+05   4.170863e+05
  -3.871592e+05   2.614395e+03
  -2.924385e+05  -5.200420e+05
   6.254340e+04  -6.618427e+05
   4.729965e+05  -2.431710e+05
   5.774322e+05   3.728170e+05
   1.750981e+05   6.245240e+05
  -4.861034e+05   3.330829e+05
  -8.119184e+05  -1.531833e+05
  -4.327140e+05  -3.956590e+05
   3.040781e+05  -3.067712e+05
   6.125641e+05  -1.049111e+05
   1.633755e+05   4.349560e+03
  -4.662391e+05  -3.863675e+04
  -4.475848e+05  -2.041735e+05
   2.812665e+05  -3.548004e+05
   9.161391e+05  -2.331928e+05
