
 $NMID
 id='ANONYMOUS ', fmtdat='(2E16.6)'
 volume=1.0
 tramp=1.0
 $END
   8.975131e+06  -1.257110e+06
   6.827904e+06   2.795029e+06
   1.288603e+06   5.505363e+06
  -3.103369e+06   4.940583e+06
  -3.464222e+06   1.498312e+06
  -7.562627e+05  -1.638619e+06
   1.807570e+06  -1.526336e+06
   1.999917e+06   1.180238e+06
   2.023755e+05   2.978735e+06
  -1.584726e+06   1.710475e+06
  -1.794923e+06  -1.035818e+06
  -4.931839e+05  -2.106937e+06
   9.317412e+05  -5.078419e+05
   1.072519e+06   1.783595e+06
  -2.112989e+05   2.290443e+06
  -1.601226e+06   5.716526e+05
  -1.574992e+06  -1.673633e+06
  -1.014381e+04  -2.474937e+06
   1.625462e+06  -1.379209e+06
   1.853504e+06   3.647912e+05
   7.856075e+05   1.207574e+06
  -1.146208e+05   8.492323e+05
   2.082736e+05   3.370726e+05
   1.191147e+06   6.670215e+05
   1.322397e+06   1.585481e+06
  -1.205657e+05   1.981906e+06
  -2.147608e+06   1.233013e+06
  -2.923772e+06  -1.662521e+05
  -1.619957e+06  -1.189388e+06
   6.096645e+05  -1.170582e+06
   1.672343e+06  -2.109316e+05
   6.767317e+05   8.959450e+05
  -1.148311e+06   1.132523e+06
  -1.869730e+06   1.162918e+05
  -9.697693e+05  -1.307303e+06
   3.259935e+05  -1.713272e+06
   7.064674e+05  -6.614215e+05
   1.818254e+05   6.562644e+05
  -3.280003e+05   7.274627e+05
  -2.507586e+05  -4.734716e+05
   2.341739e+05  -1.455051e+06
   6.966868e+05  -1.018870e+06
   8.139011e+05   3.466790e+05
   3.857332e+05   1.123710e+06
  -4.291351e+05   5.275499e+05
  -8.793632e+05  -7.233960e+05
  -2.168038e+05  -1.306887e+06
   1.227473e+06  -6.572966e+05
   2.035767e+06   6.174500e+05
   1.194046e+06   1.438287e+06
  -6.420490e+05   1.223545e+06
  -1.775288e+06   2.794882e+05
  -1.283008e+06  -5.745072e+05
   1.196093e+05  -7.267972e+05
   1.002741e+06  -2.342608e+05
   6.963466e+05   3.145121e+05
  -2.241838e+05   3.692744e+05
  -6.883401e+05  -8.914552e+04
  -2.323153e+05  -5.575589e+05
   5.652059e+05  -5.067388e+05
   7.136877e+05   7.743906e+04
  -6.447986e+04   6.194940e+05
  -9.232917e+05   4.723471e+05
  -7.886717e+05  -4.110110e+05
   3.893223e+05  -1.318741e+06
   1.548331e+06  -1.377166e+06
   1.717229e+06  -3.859127e+05
   1.009634e+06   9.500025e+05
   2.633566e+05   1.678374e+06
  -2.213963e+04   1.496012e+06
  -7.530706e+04   9.318661e+05
  -3.187532e+05   6.326263e+05
  -8.026430e+05   6.004328e+05
  -1.212342e+06   3.029061e+05
  -1.193807e+06  -4.886881e+05
  -6.073910e+05  -1.217800e+06
   3.235346e+05  -1.097824e+06
   1.016779e+06  -7.451340e+04
   8.990965e+05   9.927755e+05
  -1.817902e+04   1.185520e+06
  -1.008669e+06   4.288797e+05
  -1.268674e+06  -5.423584e+05
  -7.020500e+05  -9.959505e+05
   4.536798e+04  -8.356293e+05
   3.446546e+05  -4.910579e+05
   2.541063e+05  -3.713263e+05
   3.492036e+05  -4.882954e+05
   9.359214e+05  -5.065344e+05
   1.562018e+06  -8.569479e+04
   1.425218e+06   7.556245e+05
   2.926217e+05   1.534831e+06
  -1.086884e+06   1.627775e+06
  -1.629178e+06   8.389695e+05
  -9.964754e+05  -3.092390e+05
   7.359039e+04  -9.561188e+05
   5.650908e+05  -6.807600e+05
   1.971995e+05   8.924339e+04
  -4.411373e+05   5.107758e+05
  -6.396692e+05   1.992840e+05
  -2.669687e+05  -3.809992e+05
   2.355416e+05  -4.696198e+05
   3.513702e+05   7.643349e+04
  -7.025160e+04   5.591313e+05
  -6.943632e+05   2.255429e+05
  -9.138398e+05  -8.035644e+05
  -3.306383e+05  -1.564221e+06
   7.941743e+05  -1.254004e+06
   1.622170e+06  -8.154025e+04
   1.460638e+06   9.778341e+05
   4.641551e+05   1.184291e+06
  -4.866083e+05   6.663137e+05
  -6.651505e+05   1.103331e+05
  -1.946504e+05   5.858590e+03
   1.835483e+05   2.650316e+05
  -3.149712e+04   4.598110e+05
  -5.727699e+05   2.976014e+05
  -7.532212e+05  -1.213218e+05
  -2.765633e+05  -4.232278e+05
   3.833987e+05  -3.184108e+05
   4.694351e+05   1.023987e+05
  -2.059651e+05   4.088408e+05
  -9.831069e+05   2.200055e+05
  -1.012429e+06  -3.989567e+05
  -1.627809e+05  -9.413044e+05
   8.217683e+05  -9.094046e+05
   1.089137e+06  -2.990944e+05
   5.182795e+05   3.668375e+05
  -2.425155e+05   5.239235e+05
  -4.787186e+05   1.161010e+05
  -6.308626e+04  -3.507146e+05
   5.266496e+05  -3.380816e+05
   7.116088e+05   1.534076e+05
   3.251851e+05   5.978324e+05
  -2.689533e+05   5.375060e+05
  -5.228915e+05   8.432093e+04
  -2.323763e+05  -2.343547e+05
   2.377383e+05  -7.795743e+04
   3.095568e+05   3.535597e+05
  -1.805983e+05   5.639936e+05
  -7.650794e+05   2.746105e+05
  -8.242404e+05  -3.252138e+05
  -2.526747e+05  -7.665650e+05
   4.312159e+05  -7.061398e+05
   6.367648e+05  -2.138070e+05
   2.841933e+05   2.819065e+05
  -1.848964e+05   3.743800e+05
  -3.062603e+05   6.474422e+04
  -3.953157e+04  -2.530310e+05
   2.572953e+05  -2.345811e+05
   2.379827e+05   2.888935e+04
  -6.628614e+04   1.419053e+05
  -2.783151e+05  -9.892042e+04
  -7.274351e+04  -4.403613e+05
   4.531563e+05  -4.442097e+05
   8.298892e+05   3.307393e+04
   6.660927e+05   6.739468e+05
   4.283316e+04   9.839996e+05
  -5.644775e+05   7.254892e+05
  -7.482922e+05   1.153344e+05
  -5.221723e+05  -3.714656e+05
  -2.214518e+05  -4.293365e+05
  -1.106249e+05  -1.926410e+05
  -1.351538e+05  -5.803716e+04
  -4.949433e+04  -2.163042e+05
   2.532378e+05  -4.178872e+05
   5.676607e+05  -2.741277e+05
   5.443119e+05   2.397161e+05
   5.098118e+04   6.832471e+05
  -6.224965e+05   5.896446e+05
  -9.497529e+05  -4.422324e+04
  -6.165199e+05  -7.379494e+05
   1.770014e+05  -9.660105e+05
   8.654045e+05  -6.012650e+05
   9.962281e+05   2.567366e+04
   5.903813e+05   4.549798e+05
   6.064816e+04   4.967477e+05
  -1.999558e+05   3.439250e+05
  -1.505544e+05   3.038830e+05
  -6.099548e+04   4.307090e+05
  -1.776727e+05   4.653648e+05
  -4.449978e+05   1.629292e+05
  -5.599772e+05  -3.690600e+05
  -3.047609e+05  -7.255524e+05
   1.854132e+05  -6.002956e+05
   5.149525e+05  -8.747056e+04
   4.097863e+05   4.133198e+05
  -5.662250e+03   5.540481e+05
  -3.384836e+05   3.013006e+05
  -3.297724e+05  -9.425661e+04
  -9.536555e+04  -3.415065e+05
   4.693537e+04  -3.395139e+05
  -4.307314e+04  -2.122745e+05
  -1.680429e+05  -1.394625e+05
  -2.951546e+04  -1.607099e+05
   3.972415e+05  -1.535554e+05
   7.673333e+05   5.127415e+03
   6.850934e+05   2.825062e+05
   1.281193e+05   5.019482e+05
  -4.812434e+05   4.964750e+05
  -6.692745e+05   2.558264e+05
  -3.711449e+05  -4.812970e+04
   3.859466e+04  -1.863737e+05
   1.684386e+05  -7.786562e+04
  -3.751403e+03   1.075872e+05
  -1.960729e+05   1.095797e+05
  -1.952739e+05  -1.142317e+05
  -6.417420e+04  -3.018922e+05
   7.223467e+03  -1.968374e+05
  -5.241392e+04   9.636922e+04
  -1.457117e+05   1.992064e+05
  -1.338175e+05  -6.772154e+04
   3.994666e+04  -4.258685e+05
   2.991105e+05  -4.518675e+05
   4.473952e+05  -7.924846e+04
   2.958526e+05   3.306637e+05
  -1.145924e+05   4.016531e+05
  -4.378164e+05   1.192619e+05
  -3.095651e+05  -2.153843e+05
   2.245246e+05  -3.051312e+05
   6.629320e+05  -8.766763e+04
   5.395321e+05   2.612088e+05
  -6.261070e+04   4.712795e+05
  -5.800926e+05   3.733487e+05
  -5.614682e+05   4.896749e+04
  -1.199026e+05  -2.113487e+05
   2.321788e+05  -1.749039e+05
   1.415481e+05   7.674589e+04
  -2.448885e+05   2.045965e+05
  -4.733444e+05  -2.964701e+04
  -2.611830e+05  -4.728605e+05
   2.342404e+05  -6.873169e+05
   5.928830e+05  -3.788433e+05
   5.382386e+05   2.718429e+05
   1.585045e+05   7.281368e+05
  -2.331598e+05   5.956355e+05
  -3.906033e+05   2.072243e+04
  -2.793466e+05  -4.485763e+05
  -2.282621e+04  -4.304652e+05
   2.019608e+05  -8.569865e+04
   2.518756e+05   1.356925e+05
   1.232355e+05   5.862940e+04
  -5.257164e+03  -5.437368e+04
   5.388458e+04   7.846675e+04
   2.249628e+05   3.532869e+05
   1.898461e+05   4.318395e+05
  -2.006354e+05   1.988685e+05
  -6.286129e+05  -1.173261e+05
  -6.136255e+05  -2.707902e+05
  -1.142635e+05  -2.607231e+05
   3.735534e+05  -2.091260e+05
   4.053249e+05  -1.411102e+05
   1.047241e+05  -2.097920e+04
  -6.752588e+04   9.460648e+04
   5.470771e+04   1.076716e+05
   1.747250e+05   5.289580e+04
   3.253097e+03   5.728007e+04
  -3.228913e+05   1.076297e+05
  -4.160843e+05   2.223931e+04
  -1.152448e+05  -2.580622e+05
   3.482861e+05  -4.795376e+05
   6.151856e+05  -3.293844e+05
   5.154863e+05   1.542378e+05
   1.478056e+05   5.666557e+05
  -2.362164e+05   5.645878e+05
  -4.019365e+05   2.204584e+05
  -2.850631e+05  -9.792210e+04
  -4.341020e+04  -1.398752e+05
   7.952619e+04   1.958582e+02
  -9.262146e+03   4.809200e+04
  -1.620022e+05  -1.149203e+05
  -1.569610e+05  -3.120967e+05
   5.671947e+04  -2.692954e+05
   2.939487e+05   5.819775e+04
   3.058680e+05   3.933624e+05
   2.565462e+04   4.096738e+05
  -3.315870e+05   7.968569e+04
  -4.319789e+05  -2.994987e+05
  -1.476083e+05  -4.242931e+05
   2.720560e+05  -2.612325e+05
   4.268674e+05   3.290879e+03
   2.035073e+05   1.901273e+05
  -8.884929e+04   2.339155e+05
  -9.375377e+04   1.471527e+05
   1.508615e+05   8.137840e+03
   2.732417e+05  -3.521075e+04
   5.332190e+04   1.099188e+05
  -3.036399e+05   3.131507e+05
  -4.384723e+05   3.013119e+05
  -2.606137e+05  -6.344079e+03
   9.999461e+03  -3.340023e+05
   1.462461e+05  -3.419597e+05
   1.188548e+05  -4.180696e+04
   1.658385e+04   2.131946e+05
  -9.064135e+04   1.586960e+05
  -1.543086e+05  -8.860784e+04
  -1.181849e+05  -2.243078e+05
   2.000917e+04  -1.347440e+05
   1.588257e+05   2.201242e+04
   1.838499e+05   6.475979e+04
   9.814721e+04   1.702227e+03
   5.807882e+03  -2.659410e+04
  -2.737601e+04   5.721820e+04
  -3.972074e+04   1.757894e+05
  -8.990640e+04   1.829942e+05
  -1.551693e+05   2.258922e+04
  -1.454500e+05  -1.926251e+05
  -1.068202e+04  -2.686855e+05
   1.763937e+05  -1.225249e+05
   2.511455e+05   1.188027e+05
   1.032049e+05   2.406264e+05
  -1.772203e+05   1.586420e+05
  -3.333165e+05  -1.874919e+04
  -1.939943e+05  -1.357179e+05
   1.058938e+05  -1.390671e+05
   2.401030e+05  -7.444746e+04
   6.609447e+04  -6.549095e+03
  -1.882785e+05   9.906585e+03
  -1.899982e+05  -5.742422e+04
   9.313683e+04  -1.566914e+05
   3.534631e+05  -1.419346e+05
