
 $NMID
 id='ANONYMOUS ', fmtdat='(2E16.6)'
 volume=1.0
 tramp=1.0
 $END
  -2.714483e+07  -1.112408e+06
  -1.726864e+07  -1.384895e+07
   1.143450e+06  -1.717733e+07
   1.217866e+07  -1.044589e+07
   9.541351e+06  -3.743875e+05
   2.246959e+05   4.794292e+06
  -5.417492e+06   1.989031e+06
  -3.720594e+06  -4.444311e+06
   1.605400e+06  -7.111978e+06
   5.100043e+06  -2.960497e+06
   4.223268e+06   3.616299e+06
   3.934040e+05   5.609107e+06
  -2.640270e+06   1.137321e+06
  -1.957789e+06  -4.608719e+06
   1.726249e+06  -5.310204e+06
   4.486338e+06  -2.777494e+05
   3.109745e+06   5.411658e+06
  -1.503120e+06   6.642123e+06
  -5.306029e+06   3.019100e+06
  -5.274149e+06  -1.740148e+06
  -2.194903e+06  -3.953544e+06
   5.131917e+05  -3.134845e+06
   3.728134e+05  -1.673192e+06
  -1.688187e+06  -1.923290e+06
  -2.290696e+06  -3.661234e+06
   7.064960e+05  -4.444583e+06
   5.370484e+06  -2.501686e+06
   7.187139e+06   1.099051e+06
   3.932946e+06   3.500089e+06
  -1.482236e+06   2.979579e+06
  -3.915122e+06   4.050877e+05
  -1.527135e+06  -1.886493e+06
   2.519998e+06  -2.038873e+06
   3.951609e+06   1.416506e+05
   1.904193e+06   2.968373e+06
  -9.484583e+05   3.869036e+06
  -1.891909e+06   1.734020e+06
  -7.815809e+05  -1.377861e+06
   5.624442e+05  -1.994941e+06
   5.674266e+05   6.179811e+05
  -7.462705e+05   3.129927e+06
  -2.021150e+06   2.109502e+06
  -1.800612e+06  -1.456859e+06
   1.170146e+05  -3.210633e+06
   2.182332e+06  -8.817394e+05
   2.214010e+06   2.921102e+06
  -4.495245e+05   3.962328e+06
  -3.832790e+06   1.198059e+06
  -4.804202e+06  -2.570964e+06
  -2.100368e+06  -4.073086e+06
   2.153590e+06  -2.547213e+06
   4.282171e+06   2.638723e+05
   2.622123e+06   2.032420e+06
  -8.664178e+05   1.660340e+06
  -2.709339e+06  -6.110315e+04
  -1.511605e+06  -1.273017e+06
   8.414602e+05  -8.408988e+05
   1.553794e+06   5.413083e+05
   5.976864e+04   1.218784e+06
  -1.555241e+06   4.510845e+05
  -1.114283e+06  -8.865662e+05
   1.128133e+06  -1.354893e+06
   2.736340e+06  -3.028336e+05
   1.694856e+06   1.709236e+06
  -1.474660e+06   3.283292e+06
  -4.221965e+06   2.987885e+06
  -4.458066e+06   5.056792e+05
  -2.427195e+06  -2.685474e+06
  -1.413124e+05  -4.332636e+06
   8.174867e+05  -3.601228e+06
   6.822061e+05  -1.901812e+06
   7.507168e+05  -1.073432e+06
   1.653813e+06  -1.138342e+06
   2.676328e+06  -5.926805e+05
   2.650154e+06   1.200903e+06
   1.196961e+06   2.813900e+06
  -8.895209e+05   2.378232e+06
  -2.207076e+06  -7.694292e+04
  -1.723893e+06  -2.467589e+06
   3.613133e+05  -2.746395e+06
   2.523481e+06  -8.142860e+05
   3.035404e+06   1.619751e+06
   1.581727e+06   2.778322e+06
  -3.845013e+05   2.314498e+06
  -1.233229e+06   1.272227e+06
  -9.859968e+05   7.845727e+05
  -1.104260e+06   9.141395e+05
  -2.402283e+06   7.586771e+05
  -3.707288e+06  -4.232986e+05
  -3.064653e+06  -2.308792e+06
  -1.368273e+05  -3.685187e+06
   3.063679e+06  -3.438505e+06
   4.040816e+06  -1.499633e+06
   2.271216e+06   9.371646e+05
  -3.494560e+05   2.188319e+06
  -1.453259e+06   1.477210e+06
  -4.514239e+05  -2.302906e+05
   1.166287e+06  -1.071253e+06
   1.595369e+06  -2.585698e+05
   5.534107e+05   1.013072e+06
  -6.632067e+05   1.017514e+06
  -7.079027e+05  -2.983858e+05
   4.599965e+05  -1.127388e+06
   1.645154e+06   8.034503e+03
   1.561698e+06   2.342809e+06
  -8.934143e+04   3.568457e+06
  -2.345865e+06   2.295265e+06
  -3.612034e+06  -5.383210e+05
  -2.866436e+06  -2.697351e+06
  -6.321234e+05  -2.799456e+06
   1.315838e+06  -1.377627e+06
   1.561235e+06  -6.584159e+04
   4.539243e+05   5.153676e+04
  -3.320311e+05  -6.811467e+05
   2.684429e+05  -1.086018e+06
   1.497638e+06  -4.883988e+05
   1.728681e+06   6.034568e+05
   4.585061e+05   1.117904e+06
  -1.013183e+06   5.857890e+05
  -1.004909e+06  -3.975351e+05
   6.403989e+05  -7.914302e+05
   2.272336e+06  -8.585925e+04
   2.089236e+06   1.253146e+06
   7.290478e+03   2.145763e+06
  -2.193724e+06   1.765915e+06
  -2.612961e+06   3.043291e+05
  -1.079257e+06  -1.059468e+06
   7.733584e+05  -1.177828e+06
   1.210150e+06  -1.077967e+05
   5.105714e+04   8.724314e+05
  -1.353441e+06   6.141731e+05
  -1.590191e+06  -6.268588e+05
  -4.976065e+05  -1.496523e+06
   8.420088e+05  -1.095122e+06
   1.214915e+06   4.481910e+04
   4.069673e+05   6.359084e+05
  -6.085774e+05   8.244508e+04
  -6.099745e+05  -9.401014e+05
   6.012605e+05  -1.261871e+06
   1.871168e+06  -3.970237e+05
   1.816878e+06   1.029554e+06
   3.243951e+05   1.876779e+06
  -1.263623e+06   1.490338e+06
  -1.556701e+06   2.565348e+05
  -5.392296e+05  -7.589855e+05
   5.669168e+05  -7.889792e+05
   7.031573e+05  -5.361225e+04
  -1.117540e+04   5.423725e+05
  -6.245744e+05   4.082129e+05
  -4.577725e+05  -1.181238e+05
   2.338492e+05  -2.227948e+05
   5.745857e+05   3.818232e+05
  -2.825342e+04   1.050045e+06
  -1.218720e+06   8.606752e+05
  -1.914364e+06  -3.696481e+05
  -1.318586e+06  -1.796330e+06
   2.324344e+05  -2.285652e+06
   1.541089e+06  -1.451141e+06
   1.727429e+06   1.090809e+04
   1.029962e+06   9.895810e+05
   3.654429e+05   9.746119e+05
   2.499698e+05   4.362021e+05
   3.478089e+05   2.131488e+05
   4.243404e+04   5.585870e+05
  -7.468118e+05   8.686970e+05
  -1.392535e+06   4.124122e+05
  -1.139061e+06  -7.228048e+05
   1.340172e+05  -1.547014e+06
   1.631889e+06  -1.119895e+06
   2.163979e+06   4.324802e+05
   1.146293e+06   1.924518e+06
  -7.851181e+05   2.173251e+06
  -2.238201e+06   1.059573e+06
  -2.267575e+06  -4.434242e+05
  -1.144355e+06  -1.244575e+06
   5.459456e+04  -1.106524e+06
   5.292138e+05  -6.830112e+05
   3.783443e+05  -6.738135e+05
   2.589979e+05  -1.030740e+06
   5.888464e+05  -1.050894e+06
   1.112545e+06  -2.339331e+05
   1.185119e+06   1.041985e+06
   4.677184e+05   1.782485e+06
  -6.256203e+05   1.329476e+06
  -1.215929e+06   1.947381e+04
  -7.918818e+05  -1.116412e+06
   2.378964e+05  -1.278826e+06
   9.204511e+05  -5.323360e+05
   7.249252e+05   3.975658e+05
   5.233417e+04   8.522587e+05
  -2.804390e+05   7.518686e+05
   8.724968e+03   4.784011e+05
   3.558724e+05   3.691196e+05
   2.241163e+04   3.785715e+05
  -9.916262e+05   2.101294e+05
  -1.803082e+06  -2.890023e+05
  -1.488851e+06  -9.068474e+05
  -8.594441e+04  -1.227216e+06
   1.327965e+06  -9.920190e+05
   1.647791e+06  -3.371824e+05
   8.212754e+05   2.826851e+05
  -1.758261e+05   4.378703e+05
  -4.259827e+05   1.014066e+05
   3.531714e+04  -2.798832e+05
   4.771674e+05  -1.999474e+05
   4.204376e+05   3.302190e+05
   8.546591e+04   7.175486e+05
  -4.855265e+04   4.574999e+05
   1.452543e+05  -1.818436e+05
   3.715318e+05  -3.869853e+05
   2.798442e+05   2.050389e+05
  -2.156374e+05   9.647735e+05
  -8.481887e+05   9.533075e+05
  -1.110242e+06   4.960578e+04
  -6.173768e+05  -8.719286e+05
   4.062386e+05  -9.262579e+05
   1.085353e+06  -1.603387e+05
   6.532385e+05   5.918855e+05
  -6.303245e+05   6.225066e+05
  -1.544728e+06  -3.665042e+04
  -1.111625e+06  -7.864250e+05
   3.328731e+05  -1.033330e+06
   1.448540e+06  -6.203075e+05
   1.277903e+06   9.568309e+04
   1.894111e+05   5.170811e+05
  -5.969027e+05   3.085905e+05
  -3.114077e+05  -2.386273e+05
   6.213984e+05  -4.128927e+05
   1.094590e+06   1.993321e+05
   4.837062e+05   1.173276e+06
  -7.328295e+05   1.534863e+06
  -1.482847e+06   7.097300e+05
  -1.160242e+06  -7.922368e+05
  -1.339688e+05  -1.728044e+06
   7.304613e+05  -1.280710e+06
   8.982888e+05   1.021225e+05
   4.730535e+05   1.126908e+06
  -1.162273e+05   9.787515e+05
  -5.013878e+05   1.166137e+05
  -5.157696e+05  -3.870146e+05
  -2.421526e+05  -1.634412e+05
  -1.369980e+04   1.178271e+05
  -1.307367e+05  -2.225524e+05
  -4.153224e+05  -8.996293e+05
  -2.676952e+05  -1.048356e+06
   5.617577e+05  -3.813280e+05
   1.408251e+06   4.753340e+05
   1.299911e+06   8.214153e+05
   1.737614e+05   6.450244e+05
  -9.071607e+05   3.682873e+05
  -9.713505e+05   1.854645e+05
  -2.668993e+05  -4.511204e+03
   1.776287e+05  -2.009531e+05
  -6.483020e+04  -2.466244e+05
  -3.585501e+05  -1.566188e+05
  -1.446806e+03  -1.338435e+05
   7.502186e+05  -1.625124e+05
   9.755361e+05   7.380307e+04
   2.287748e+05   6.475422e+05
  -9.335816e+05   1.022017e+06
  -1.554891e+06   5.844491e+05
  -1.185804e+06  -5.110900e+05
  -1.740375e+05  -1.355836e+06
   7.379283e+05  -1.240511e+06
   1.005535e+06  -4.029760e+05
   6.271565e+05   2.997544e+05
   6.912567e+04   3.406334e+05
  -1.602659e+05  -2.906212e+03
   4.333257e+04  -8.556821e+04
   3.221709e+05   3.249414e+05
   2.509591e+05   7.709299e+05
  -2.121392e+05   6.131971e+05
  -6.596189e+05  -2.065815e+05
  -6.050171e+05  -9.909549e+05
   3.749563e+04  -9.659948e+05
   7.798457e+05  -1.115662e+05
   9.200583e+05   8.051510e+05
   2.270041e+05   1.034613e+06
  -7.118158e+05   5.420527e+05
  -1.004216e+06  -1.366077e+05
  -4.249848e+05  -5.281987e+05
   2.865131e+05  -5.406373e+05
   2.894071e+05  -3.136158e+05
  -3.218087e+05  -5.177724e+04
  -6.378900e+05   6.044947e+02
  -9.726131e+04  -2.783342e+05
   8.021360e+05  -6.255192e+05
   1.131171e+06  -5.349797e+05
   6.252939e+05   1.228845e+05
  -1.282098e+05   7.818865e+05
  -4.725319e+05   7.533277e+05
  -3.187522e+05   7.453200e+04
   1.276532e+04  -4.904236e+05
   2.573766e+05  -3.546818e+05
   3.319730e+05   2.296642e+05
   2.071744e+05   5.567845e+05
  -8.579392e+04   3.292031e+05
  -3.639034e+05  -9.053198e+04
  -4.115136e+05  -2.263316e+05
  -2.247888e+05  -5.011585e+04
  -1.257499e+04   8.083391e+04
   7.563489e+04  -8.440846e+04
   1.110565e+05  -3.845570e+05
   2.220313e+05  -4.302195e+05
   3.582916e+05  -5.060516e+04
   3.136944e+05   4.680988e+05
  -1.551087e+04   6.290616e+05
  -4.367478e+05   2.428194e+05
  -5.639363e+05  -3.403260e+05
  -1.780170e+05  -5.822296e+05
   4.685308e+05  -3.147580e+05
   7.832064e+05   1.390369e+05
   4.146873e+05   3.759051e+05
  -2.918584e+05   3.077433e+05
  -5.900654e+05   1.191431e+05
  -1.752298e+05  -4.462714e+03
   4.155332e+05   1.190174e+04
   4.160874e+05   1.632815e+05
  -2.402059e+05   3.210295e+05
  -8.275484e+05   2.251825e+05
