
 $NMID
 id='ANONYMOUS ', fmtdat='(2E16.6)'
 volume=1.0
 tramp=1.0
 $END
  -5.610078e+07   1.064893e+06
  -3.437095e+07  -3.438090e+07
   6.885163e+06  -3.824761e+07
   2.738235e+07  -1.488105e+07
   1.652068e+07   6.979296e+06
  -3.259706e+06   9.377426e+06
  -9.828802e+06  -1.227282e+06
  -2.791755e+06  -9.755441e+06
   6.159879e+06  -9.274908e+06
   9.594501e+06  -2.020054e+06
   7.009467e+06   6.032373e+06
   9.348013e+05   8.460703e+06
  -3.878037e+06   2.803330e+06
  -2.632189e+06  -5.257828e+06
   3.688143e+06  -6.450920e+06
   7.842473e+06   1.268677e+06
   4.532973e+06   1.007781e+07
  -3.600119e+06   1.176448e+07
  -9.936670e+06   6.044525e+06
  -1.078624e+07  -1.800204e+06
  -6.794729e+06  -7.295273e+06
  -9.284755e+05  -8.657623e+06
   2.834030e+06  -6.193728e+06
   1.987301e+06  -2.734904e+06
  -9.671483e+05  -1.991772e+06
  -3.344277e+05  -3.975629e+06
   5.126163e+06  -4.396022e+06
   9.422887e+06  -7.091981e+05
   7.030786e+06   3.895884e+06
   4.406621e+05   4.972208e+06
  -3.501096e+06   2.644380e+06
  -2.405110e+06   1.788398e+05
   4.742797e+05  -7.969389e+05
   2.069218e+06  -4.965347e+05
   2.111822e+06   1.256044e+06
   8.065435e+05   3.749579e+06
  -1.654959e+06   3.860659e+06
  -3.245796e+06   5.968830e+04
  -1.858352e+06  -3.545996e+06
   6.913086e+05  -2.028526e+06
   4.052068e+05   2.298218e+06
  -2.376991e+06   2.260130e+06
  -2.460373e+06  -3.157583e+06
   2.378910e+06  -6.163620e+06
   6.987988e+06  -1.139487e+06
   5.252508e+06   6.828472e+06
  -1.775352e+06   8.551199e+06
  -7.340359e+06   2.537060e+06
  -6.907190e+06  -4.313741e+06
  -1.846791e+06  -5.933441e+06
   3.415385e+06  -2.678253e+06
   5.173732e+06   1.496859e+06
   2.382047e+06   3.446632e+06
  -2.402515e+06   2.204495e+06
  -4.506532e+06  -8.746936e+05
  -1.958672e+06  -2.693420e+06
   1.691171e+06  -1.386300e+06
   1.708926e+06   1.006878e+06
  -1.361884e+06   9.100922e+05
  -2.510522e+06  -1.789059e+06
   6.165191e+05  -3.520296e+06
   4.652026e+06  -1.980778e+06
   5.318944e+06   1.315169e+06
   2.352223e+06   3.945814e+06
  -1.681082e+06   5.220872e+06
  -4.808629e+06   4.838342e+06
  -6.045251e+06   1.842117e+06
  -4.586713e+06  -2.997897e+06
  -1.043127e+06  -6.047954e+06
   1.804725e+06  -4.715187e+06
   1.778462e+06  -1.175368e+06
   1.567109e+05   3.367220e+05
  -1.323122e+05  -8.987052e+05
   1.446694e+06  -1.790992e+06
   2.699481e+06  -3.436466e+05
   2.009618e+06   1.784020e+06
   9.067899e+04   2.045967e+06
  -1.460285e+06   2.136710e+05
  -1.631661e+06  -1.979363e+06
  -5.035269e+04  -2.849252e+06
   2.664531e+06  -1.679426e+06
   4.415440e+06   1.062619e+06
   3.266663e+06   3.638542e+06
   5.880682e+04   4.200677e+06
  -2.214921e+06   2.758598e+06
  -2.222378e+06   1.167219e+06
  -1.823027e+06   6.766517e+05
  -2.891893e+06   4.783926e+05
  -4.273207e+06  -7.194438e+05
  -3.437432e+06  -2.685222e+06
  -1.592566e+05  -4.037269e+06
   3.092273e+06  -3.840881e+06
   4.038089e+06  -2.128222e+06
   2.597831e+06   3.509342e+05
   3.234822e+05   2.159817e+06
  -1.024967e+06   1.909237e+06
  -5.518212e+05  -1.603878e+04
   1.040636e+06  -1.294800e+06
   1.871917e+06  -4.155215e+05
   9.335750e+05   1.172305e+06
  -4.859627e+05   1.090890e+06
  -4.023399e+05  -3.905250e+05
   1.087224e+06  -6.692606e+05
   1.859091e+06   1.327158e+06
   6.082474e+05   3.490010e+06
  -1.642326e+06   3.349829e+06
  -3.134246e+06   1.030792e+06
  -3.222964e+06  -1.463541e+06
  -2.181206e+06  -2.694233e+06
  -4.336235e+05  -2.527263e+06
   1.193371e+06  -1.434670e+06
   1.532409e+06  -2.415334e+05
   4.831560e+05   4.137564e+04
  -3.560311e+05  -7.367247e+05
   4.032811e+05  -1.333375e+06
   1.888564e+06  -5.891898e+05
   2.018469e+06   8.740727e+05
   3.818428e+05   1.407391e+06
  -1.155006e+06   5.638502e+05
  -8.596174e+05  -4.494605e+05
   8.513648e+05  -4.908867e+05
   2.127726e+06   3.443578e+05
   1.674524e+06   1.335008e+06
  -2.645422e+05   1.911394e+06
  -2.257290e+06   1.610875e+06
  -2.717173e+06   2.760204e+05
  -1.208174e+06  -1.245100e+06
   8.960563e+05  -1.500834e+06
   1.550458e+06  -2.067489e+05
   2.191953e+05   1.068473e+06
  -1.488687e+06   7.392172e+05
  -1.693923e+06  -7.691093e+05
  -3.213041e+05  -1.629748e+06
   1.090373e+06  -9.495991e+05
   1.237923e+06   3.272537e+05
   2.288628e+05   7.808499e+05
  -7.964739e+05   5.810309e+04
  -7.377085e+05  -1.032897e+06
   5.496201e+05  -1.406559e+06
   1.965727e+06  -5.546026e+05
   2.011246e+06   1.013418e+06
   3.918746e+05   2.040700e+06
  -1.413968e+06   1.626271e+06
  -1.701705e+06   2.085745e+05
  -4.905743e+05  -8.587923e+05
   6.498390e+05  -7.889173e+05
   6.095582e+05  -7.681014e+04
  -1.307058e+05   3.353645e+05
  -4.693484e+05   1.799261e+05
  -8.260025e+04  -6.650600e+04
   4.672638e+05   1.001912e+05
   5.072043e+05   6.858973e+05
  -2.141484e+05   1.176134e+06
  -1.361235e+06   8.837244e+05
  -2.048659e+06  -3.982439e+05
  -1.452884e+06  -1.901620e+06
   1.987473e+05  -2.373619e+06
   1.578545e+06  -1.378054e+06
   1.644885e+06   1.320895e+05
   8.161782e+05   8.653118e+05
   2.969323e+05   6.002907e+05
   4.842210e+05   1.828024e+05
   6.443711e+05   3.068556e+05
   1.011896e+05   7.650468e+05
  -8.644130e+05   8.862123e+05
  -1.417537e+06   3.113488e+05
  -1.013438e+06  -7.027875e+05
   2.551698e+05  -1.414860e+06
   1.684962e+06  -1.045651e+06
   2.200857e+06   4.682134e+05
   1.112745e+06   2.062055e+06
  -9.972319e+05   2.334071e+06
  -2.508261e+06   1.015838e+06
  -2.305993e+06  -6.582324e+05
  -9.153392e+05  -1.316713e+06
   2.195553e+05  -9.070545e+05
   3.661891e+05  -4.746292e+05
   3.783648e+04  -7.349054e+05
   7.173829e+04  -1.300282e+06
   6.518762e+05  -1.285949e+06
   1.277137e+06  -3.289245e+05
   1.324765e+06   1.047714e+06
   5.619289e+05   1.853354e+06
  -5.972312e+05   1.413917e+06
  -1.260337e+06   1.239909e+03
  -8.014345e+05  -1.265932e+06
   3.907666e+05  -1.377912e+06
   1.162218e+06  -3.896177e+05
   8.094485e+05   7.093127e+05
  -1.315290e+05   1.078102e+06
  -5.492842e+05   7.730871e+05
  -9.429892e+04   4.001853e+05
   4.314295e+05   3.191232e+05
   6.438689e+04   3.723555e+05
  -1.136154e+06   2.122277e+05
  -2.041575e+06  -3.149099e+05
  -1.596376e+06  -1.015947e+06
   4.182200e+04  -1.425256e+06
   1.571028e+06  -1.140604e+06
   1.805760e+06  -2.736406e+05
   8.198774e+05   5.042274e+05
  -2.593160e+05   5.732165e+05
  -5.102433e+05   2.818957e+04
  -4.358613e+04  -4.259354e+05
   4.237211e+05  -2.600482e+05
   4.783718e+05   3.304626e+05
   2.727358e+05   6.982429e+05
   1.159806e+05   4.647256e+05
   1.343212e+05  -8.036671e+04
   2.599634e+05  -2.698103e+05
   2.685965e+05   2.286326e+05
  -1.221290e+05   9.604350e+05
  -8.735862e+05   1.057581e+06
  -1.355888e+06   2.014689e+05
  -8.679244e+05  -8.846940e+05
   3.936276e+05  -1.140946e+06
   1.241617e+06  -3.651904e+05
   7.275114e+05   5.481119e+05
  -6.899395e+05   6.385804e+05
  -1.551529e+06  -9.561558e+04
  -9.651531e+05  -8.499803e+05
   4.921757e+05  -9.591308e+05
   1.465730e+06  -4.482079e+05
   1.193130e+06   1.981678e+05
   1.227696e+05   4.998061e+05
  -6.397361e+05   2.584164e+05
  -3.884811e+05  -2.916057e+05
   5.557967e+05  -5.288328e+05
   1.162045e+06   4.756977e+04
   6.941469e+05   1.138821e+06
  -5.297403e+05   1.684755e+06
  -1.429972e+06   9.035057e+05
  -1.241740e+06  -7.178396e+05
  -2.226615e+05  -1.748522e+06
   7.132411e+05  -1.262982e+06
   9.062062e+05   1.814560e+05
   4.169092e+05   1.168985e+06
  -2.311145e+05   9.414760e+05
  -5.587847e+05   7.863281e+04
  -4.423813e+05  -3.630540e+05
  -1.408214e+05  -1.287356e+05
  -5.521914e+04   8.850108e+04
  -3.086248e+05  -2.974301e+05
  -5.223292e+05  -9.467796e+05
  -1.732207e+05  -1.053313e+06
   7.258994e+05  -3.934496e+05
   1.446999e+06   4.387425e+05
   1.240037e+06   8.083782e+05
   1.869087e+05   6.884071e+05
  -8.092007e+05   4.221221e+05
  -9.552968e+05   1.812548e+05
  -3.747987e+05  -5.935692e+04
   1.306239e+05  -2.248755e+05
   6.089885e+04  -1.904680e+05
  -2.302856e+05  -7.554611e+04
  -6.321919e+04  -1.270067e+05
   6.123814e+05  -2.508352e+05
   1.030817e+06  -1.571763e+04
   4.820492e+05   6.736663e+05
  -7.750627e+05   1.187209e+06
  -1.674953e+06   7.973450e+05
  -1.431004e+06  -3.771588e+05
  -3.077993e+05  -1.369333e+06
   7.359878e+05  -1.376223e+06
   1.019798e+06  -5.699774e+05
   6.419877e+05   1.981774e+05
   1.522374e+05   3.489411e+05
  -3.827767e+04   8.360608e+04
   9.166332e+04   3.292736e+03
   2.874345e+05   3.667855e+05
   2.446635e+05   7.905696e+05
  -1.554810e+05   6.773883e+05
  -6.633578e+05  -8.271496e+04
  -7.641874e+05  -8.952831e+05
  -1.732630e+05  -1.011746e+06
   7.114718e+05  -2.909556e+05
   1.041226e+06   6.536504e+05
   3.887435e+05   1.062818e+06
  -6.781530e+05   7.061298e+05
  -1.116562e+06  -3.746513e+04
  -5.567427e+05  -6.115794e+05
   2.670187e+05  -7.035786e+05
   3.918682e+05  -3.791505e+05
  -2.115951e+05   6.244157e+03
  -6.286943e+05   5.753280e+04
  -1.620996e+05  -3.046000e+05
   7.964860e+05  -6.806437e+05
   1.253847e+06  -5.365464e+05
   7.858189e+05   1.799257e+05
  -7.150719e+04   8.685784e+05
  -5.499913e+05   8.684091e+05
  -4.444261e+05   1.939287e+05
  -7.983251e+04  -4.551588e+05
   2.175277e+05  -4.502901e+05
   3.455399e+05   1.077532e+05
   2.678892e+05   5.597496e+05
  -3.183810e+04   4.469669e+05
  -3.856006e+05  -2.154087e+04
  -4.856858e+05  -2.839311e+05
  -2.421693e+05  -1.071684e+05
   5.375381e+04   1.685010e+05
   8.623270e+04   8.799530e+04
  -5.984217e+04  -3.251745e+05
  -2.498722e+04  -5.699876e+05
   2.853828e+05  -2.753561e+05
   4.967349e+05   3.228720e+05
   2.230646e+05   6.239561e+05
  -3.767600e+05   3.333502e+05
  -6.787933e+05  -2.359289e+05
  -2.789941e+05  -5.436427e+05
   4.980387e+05  -3.774554e+05
   8.864222e+05   3.621583e+04
   4.896978e+05   3.572187e+05
  -2.765634e+05   4.240277e+05
  -6.283264e+05   2.697862e+05
  -2.694609e+05   3.127279e+04
   3.027260e+05  -9.893331e+04
   3.864708e+05   1.799975e+04
  -1.309637e+05   2.679957e+05
  -6.771676e+05   2.848212e+05
