
 $NMID
 id='ANONYMOUS ', fmtdat='(2E16.6)'
 volume=1.0
 tramp=1.0
 $END
  -3.776416e+07  -3.448498e+05
  -2.332752e+07  -2.153525e+07
   3.467319e+06  -2.485761e+07
   1.771695e+07  -1.181151e+07
   1.188393e+07   2.490375e+06
  -1.152270e+06   6.395184e+06
  -6.916401e+06   6.825766e+05
  -3.232815e+06  -6.333611e+06
   3.279907e+06  -7.714985e+06
   6.663205e+06  -2.509801e+06
   5.206005e+06   4.452917e+06
   6.208165e+05   6.576560e+06
  -3.066243e+06   1.770933e+06
  -2.220073e+06  -4.725976e+06
   2.393391e+06  -5.605904e+06
   5.646867e+06   3.274970e+05
   3.577721e+06   7.068818e+06
  -2.276030e+06   8.447668e+06
  -6.979142e+06   4.112335e+06
  -7.304294e+06  -1.737751e+06
  -3.927095e+06  -5.197231e+06
  -1.343797e+04  -5.234715e+06
   1.374320e+06  -3.355311e+06
  -2.228230e+05  -2.105426e+06
  -1.790331e+06  -2.860708e+06
   2.147379e+05  -4.170555e+06
   5.130736e+06  -3.249941e+06
   7.913237e+06   3.058483e+05
   5.076955e+06   3.560892e+06
  -6.869580e+05   3.729802e+06
  -3.682529e+06   1.326623e+06
  -1.888543e+06  -1.025808e+06
   1.608449e+06  -1.568151e+06
   3.125498e+06  -1.942567e+05
   2.001488e+06   2.200391e+06
  -1.867015e+05   3.760975e+06
  -1.761458e+06   2.545374e+06
  -1.763026e+06  -8.116535e+05
  -3.970094e+05  -2.594212e+06
   6.522502e+05  -4.356016e+05
  -2.222858e+05   2.751657e+06
  -2.080492e+06   2.133343e+06
  -2.001624e+06  -2.068421e+06
   1.001043e+06  -4.241779e+06
   3.990434e+06  -9.096998e+05
   3.315467e+06   4.387038e+06
  -9.759951e+05   5.630796e+06
  -5.104378e+06   1.682482e+06
  -5.502871e+06  -3.152233e+06
  -1.969931e+06  -4.658234e+06
   2.556959e+06  -2.539039e+06
   4.499968e+06   6.951793e+05
   2.462632e+06   2.491566e+06
  -1.430018e+06   1.815324e+06
  -3.326310e+06  -3.702676e+05
  -1.639375e+06  -1.780998e+06
   1.148695e+06  -1.028938e+06
   1.572862e+06   6.907029e+05
  -4.751381e+05   1.042619e+06
  -1.844275e+06  -4.292081e+05
  -3.789709e+05  -1.847287e+06
   2.464128e+06  -1.520795e+06
   3.640034e+06   3.417121e+05
   1.892343e+06   2.523884e+06
  -1.503796e+06   3.967386e+06
  -4.328812e+06   3.676226e+06
  -4.973386e+06   1.046584e+06
  -3.235122e+06  -2.738966e+06
  -5.184936e+05  -4.899284e+06
   1.151289e+06  -3.934588e+06
   1.054425e+06  -1.558835e+06
   4.616136e+05  -5.144005e+05
   8.941189e+05  -1.065940e+06
   2.137549e+06  -1.100316e+06
   2.640635e+06   5.321691e+05
   1.536612e+06   2.335437e+06
  -4.468934e+05   2.213989e+06
  -1.863725e+06   8.005398e+04
  -1.683408e+06  -2.187750e+06
   1.564768e+05  -2.725579e+06
   2.515141e+06  -1.161300e+06
   3.523616e+06   1.341881e+06
   2.219339e+06   3.046480e+06
  -2.016485e+05   3.000575e+06
  -1.590436e+06   1.818000e+06
  -1.437347e+06   9.056475e+05
  -1.338897e+06   8.002902e+05
  -2.514627e+06   6.535338e+05
  -3.830293e+06  -4.870634e+05
  -3.153323e+06  -2.359400e+06
  -1.854777e+05  -3.723326e+06
   2.954150e+06  -3.544713e+06
   3.922950e+06  -1.758851e+06
   2.360612e+06   6.590274e+05
  -4.822864e+04   2.135081e+06
  -1.235500e+06   1.632873e+06
  -4.854799e+05  -1.365294e+05
   1.075912e+06  -1.147898e+06
   1.660429e+06  -3.296673e+05
   6.979473e+05   1.047442e+06
  -5.645849e+05   1.031195e+06
  -5.729793e+05  -3.120468e+05
   6.697365e+05  -9.152590e+05
   1.663800e+06   5.031767e+05
   1.161381e+06   2.691438e+06
  -6.411490e+05   3.364665e+06
  -2.539730e+06   1.760084e+06
  -3.356599e+06  -8.302081e+05
  -2.559296e+06  -2.575317e+06
  -5.797887e+05  -2.607500e+06
   1.215766e+06  -1.382798e+06
   1.510644e+06  -1.537177e+05
   4.541128e+05   4.072951e+04
  -3.409114e+05  -6.807993e+05
   3.033652e+05  -1.155272e+06
   1.605663e+06  -5.285261e+05
   1.799824e+06   6.747340e+05
   4.268219e+05   1.194172e+06
  -1.033684e+06   5.733354e+05
  -9.265642e+05  -3.913823e+05
   6.898682e+05  -6.587024e+05
   2.147571e+06   5.105345e+04
   1.887798e+06   1.217042e+06
  -6.624372e+04   1.993105e+06
  -2.134284e+06   1.687047e+06
  -2.579924e+06   3.183499e+05
  -1.112037e+06  -1.091650e+06
   7.903992e+05  -1.280982e+06
   1.311118e+06  -1.540348e+05
   1.237516e+05   9.280191e+05
  -1.364281e+06   6.626642e+05
  -1.594733e+06  -6.462211e+05
  -4.335391e+05  -1.499523e+06
   8.997225e+05  -1.016783e+06
   1.188012e+06   1.379064e+05
   3.331040e+05   6.675263e+05
  -6.642566e+05   7.623585e+04
  -6.549455e+05  -9.450739e+05
   5.503841e+05  -1.293765e+06
   1.855572e+06  -4.715775e+05
   1.858547e+06   9.747742e+05
   3.645288e+05   1.887752e+06
  -1.271151e+06   1.518294e+06
  -1.567926e+06   2.493233e+05
  -5.145367e+05  -7.700857e+05
   5.738373e+05  -7.745170e+05
   6.480069e+05  -7.215559e+04
  -4.658966e+04   4.457497e+05
  -5.383023e+05   3.195847e+05
  -3.020271e+05  -8.249408e+04
   3.101209e+05  -9.040564e+04
   5.331342e+05   4.812133e+05
  -8.786469e+04   1.068516e+06
  -1.230651e+06   8.607875e+05
  -1.920348e+06  -3.474947e+05
  -1.358251e+06  -1.774222e+06
   1.841033e+05  -2.262983e+06
   1.494383e+06  -1.404153e+06
   1.647685e+06   3.353661e+04
   9.344591e+05   8.978655e+05
   3.479439e+05   7.970351e+05
   3.443801e+05   3.263341e+05
   4.553511e+05   2.440050e+05
   6.828961e+04   6.243626e+05
  -7.613709e+05   8.603665e+05
  -1.357932e+06   3.802864e+05
  -1.069699e+06  -6.784228e+05
   1.548048e+05  -1.454159e+06
   1.592939e+06  -1.082190e+06
   2.126086e+06   4.065378e+05
   1.126414e+06   1.911188e+06
  -8.203980e+05   2.185428e+06
  -2.269235e+06   1.040067e+06
  -2.224986e+06  -4.857073e+05
  -1.040324e+06  -1.220814e+06
   9.942628e+04  -9.976389e+05
   4.392468e+05  -5.934279e+05
   2.277149e+05  -6.902430e+05
   1.698149e+05  -1.114850e+06
   5.875657e+05  -1.121434e+06
   1.145575e+06  -2.769393e+05
   1.221929e+06   1.003033e+06
   5.146896e+05   1.758148e+06
  -5.816104e+05   1.335986e+06
  -1.200515e+06   2.741654e+04
  -7.871884e+05  -1.134629e+06
   2.756161e+05  -1.284284e+06
   9.808210e+05  -4.711343e+05
   7.389709e+05   5.000374e+05
  -1.282861e+04   9.139667e+05
  -3.679401e+05   7.397092e+05
  -2.400913e+04   4.335611e+05
   3.814898e+05   3.363024e+05
   4.327109e+04   3.664108e+05
  -1.018757e+06   2.162806e+05
  -1.851481e+06  -2.711108e+05
  -1.501630e+06  -9.070816e+05
  -4.725240e+04  -1.268635e+06
   1.376481e+06  -1.037480e+06
   1.660171e+06  -3.230008e+05
   7.992846e+05   3.504569e+05
  -1.999569e+05   4.799488e+05
  -4.449497e+05   7.456307e+04
   2.318145e+03  -3.309538e+05
   4.420287e+05  -2.251342e+05
   4.361757e+05   3.169164e+05
   1.658723e+05   6.928139e+05
   2.271562e+04   4.514372e+05
   1.330868e+05  -1.396007e+05
   3.111755e+05  -3.378757e+05
   2.703534e+05   2.047327e+05
  -1.605447e+05   9.417317e+05
  -8.243899e+05   9.795240e+05
  -1.178045e+06   1.184016e+05
  -7.099283e+05  -8.494421e+05
   3.815630e+05  -9.908430e+05
   1.118446e+06  -2.477860e+05
   6.733698e+05   5.516398e+05
  -6.287904e+05   6.196882e+05
  -1.505968e+06  -3.819332e+04
  -1.034603e+06  -7.731848e+05
   3.711123e+05  -9.789466e+05
   1.405842e+06  -5.559102e+05
   1.210700e+06   1.146451e+05
   1.656289e+05   4.930852e+05
  -5.928686e+05   2.882057e+05
  -3.355410e+05  -2.499685e+05
   5.757007e+05  -4.564127e+05
   1.096892e+06   1.214406e+05
   5.689596e+05   1.125646e+06
  -6.163209e+05   1.565470e+06
  -1.416594e+06   7.868693e+05
  -1.172907e+06  -7.281581e+05
  -1.875851e+05  -1.689828e+06
   6.870739e+05  -1.249861e+06
   8.776700e+05   1.184287e+05
   4.530480e+05   1.106215e+06
  -1.441712e+05   9.380777e+05
  -5.082599e+05   1.045714e+05
  -4.791087e+05  -3.593882e+05
  -1.990728e+05  -1.407894e+05
  -2.747830e+04   1.028357e+05
  -1.982791e+05  -2.468239e+05
  -4.572079e+05  -8.902989e+05
  -2.377438e+05  -1.017497e+06
   6.058490e+05  -3.808632e+05
   1.392928e+06   4.303708e+05
   1.253319e+06   7.763329e+05
   1.821769e+05   6.426796e+05
  -8.409545e+05   3.930683e+05
  -9.368259e+05   1.921025e+05
  -3.009881e+05  -2.385988e+04
   1.523621e+05  -2.080426e+05
  -1.834369e+04  -2.154014e+05
  -3.025171e+05  -1.141104e+05
  -2.736088e+04  -1.285598e+05
   6.759195e+05  -2.047285e+05
   9.735847e+05   2.486963e+04
   3.294607e+05   6.414636e+05
  -8.361666e+05   1.074126e+06
  -1.555953e+06   6.706098e+05
  -1.258659e+06  -4.335003e+05
  -2.393007e+05  -1.324929e+06
   7.031962e+05  -1.270282e+06
   9.816552e+05  -4.704498e+05
   6.218961e+05   2.441410e+05
   1.040618e+05   3.352044e+05
  -1.099479e+05   3.487676e+04
   5.844581e+04  -4.855612e+04
   3.038074e+05   3.277578e+05
   2.518590e+05   7.547067e+05
  -1.773001e+05   6.256688e+05
  -6.483148e+05  -1.441715e+05
  -6.656321e+05  -9.219305e+05
  -5.762946e+04  -9.620210e+05
   7.339287e+05  -1.898473e+05
   9.559134e+05   7.145442e+05
   2.972354e+05   1.017680e+06
  -6.752049e+05   6.015142e+05
  -1.024671e+06  -8.279398e+04
  -4.707189e+05  -5.430147e+05
   2.666567e+05  -5.938158e+05
   3.184254e+05  -3.330803e+05
  -2.720001e+05  -2.185118e+04
  -6.182785e+05   3.137300e+04
  -1.231932e+05  -2.808871e+05
   7.712224e+05  -6.411639e+05
   1.141825e+06  -5.345681e+05
   6.719114e+05   1.360042e+05
  -9.370727e+04   7.974942e+05
  -4.819102e+05   7.832118e+05
  -3.600551e+05   1.212727e+05
  -3.066573e+04  -4.653282e+05
   2.318249e+05  -3.865146e+05
   3.334123e+05   1.719551e+05
   2.326692e+05   5.413739e+05
  -5.999144e+04   3.682708e+05
  -3.649922e+05  -5.679310e+04
  -4.315799e+05  -2.384227e+05
  -2.253653e+05  -6.826130e+04
   1.326942e+04   1.139956e+05
   7.393405e+04  -1.595683e+04
   3.559186e+04  -3.554280e+05
   1.165314e+05  -4.800075e+05
   3.232876e+05  -1.425887e+05
   3.850812e+05   3.979018e+05
   8.614864e+04   6.143458e+05
  -4.000226e+05   2.783499e+05
  -5.998286e+05  -2.849844e+05
  -2.209368e+05  -5.509951e+05
   4.643751e+05  -3.365840e+05
   8.060618e+05   8.653714e+04
   4.381798e+05   3.543283e+05
  -2.759017e+05   3.489525e+05
  -5.900962e+05   1.818380e+05
  -2.078582e+05   1.040071e+04
   3.625563e+05  -3.883054e+04
   3.980057e+05   9.645141e+04
  -1.862509e+05   2.968183e+05
  -7.450791e+05   2.557910e+05
