
 $NMID
 id='ANONYMOUS ', fmtdat='(2E16.6)'
 volume=1.0
 tramp=1.0
 $END
   4.186687e+07   1.861226e+06
   2.497107e+07   2.531098e+07
  -5.170791e+06   2.768978e+07
  -2.044105e+07   1.197674e+07
  -1.303147e+07  -3.799188e+06
   1.786899e+06  -7.080885e+06
   7.717378e+06  -1.156020e+05
   3.031037e+06   7.290392e+06
  -4.240530e+06   8.149778e+06
  -7.522771e+06   2.235975e+06
  -5.459823e+06  -5.117759e+06
  -3.552743e+05  -7.144013e+06
   3.380853e+06  -1.832544e+06
   2.100442e+06   5.117258e+06
  -2.989369e+06   5.854545e+06
  -6.203806e+06  -7.463879e+05
  -3.530614e+06  -7.976719e+06
   2.964505e+06  -9.176193e+06
   7.877766e+06  -4.231123e+06
   8.000319e+06   2.149463e+06
   4.250488e+06   5.857101e+06
  -6.266694e+04   5.909444e+06
  -1.749397e+06   3.862058e+06
  -1.881442e+05   2.369378e+06
   1.545551e+06   2.993817e+06
  -4.067285e+05   4.285639e+06
  -5.504020e+06   3.234487e+06
  -8.403887e+06  -6.068381e+05
  -5.359101e+06  -3.999985e+06
   7.406651e+05  -3.980659e+06
   3.845580e+06  -1.338221e+06
   1.937554e+06   9.951327e+05
  -1.635125e+06   1.388854e+06
  -3.108232e+06   2.067299e+04
  -1.937384e+06  -2.276670e+06
   2.812816e+05  -3.873462e+06
   1.931404e+06  -2.728727e+06
   1.969540e+06   7.796706e+05
   4.944283e+05   2.812994e+06
  -6.594321e+05   6.408447e+05
   3.249712e+05  -2.768066e+06
   2.335279e+06  -2.123499e+06
   2.060007e+06   2.414992e+06
  -1.433274e+06   4.673813e+06
  -4.628727e+06   8.345318e+05
  -3.539502e+06  -5.054018e+06
   1.378406e+06  -6.244953e+06
   5.708367e+06  -1.635056e+06
   5.776412e+06   3.737677e+06
   1.792456e+06   5.156874e+06
  -2.934350e+06   2.536895e+06
  -4.766298e+06  -1.089092e+06
  -2.434445e+06  -2.882212e+06
   1.723089e+06  -1.890392e+06
   3.624929e+06   6.201241e+05
   1.675016e+06   2.072263e+06
  -1.323116e+06   1.069713e+06
  -1.625864e+06  -8.546891e+05
   6.872645e+05  -1.066560e+06
   2.032890e+06   7.295529e+05
   1.959591e+05   2.215352e+06
  -2.953973e+06   1.570019e+06
  -4.040625e+06  -6.604541e+05
  -1.929289e+06  -2.930785e+06
   1.792665e+06  -4.225484e+06
   4.764070e+06  -3.747163e+06
   5.371102e+06  -9.353058e+05
   3.403660e+06   3.042938e+06
   3.543113e+05   5.280968e+06
  -1.505087e+06   4.161032e+06
  -1.308125e+06   1.530177e+06
  -4.975317e+05   3.783812e+05
  -8.574390e+05   9.988088e+05
  -2.173626e+06   1.090485e+06
  -2.697675e+06  -5.896516e+05
  -1.507222e+06  -2.432371e+06
   5.291666e+05  -2.237124e+06
   1.883986e+06   2.417450e+04
   1.605998e+06   2.352887e+06
  -2.951762e+05   2.839982e+06
  -2.694508e+06   1.134980e+06
  -3.706182e+06  -1.543432e+06
  -2.294602e+06  -3.358408e+06
   3.164282e+05  -3.275372e+06
   1.825519e+06  -1.951130e+06
   1.655636e+06  -9.189219e+05
   1.516445e+06  -7.504446e+05
   2.718659e+06  -5.148494e+05
   4.030937e+06   7.595327e+05
   3.192192e+06   2.686968e+06
  -2.714390e+04   3.935190e+06
  -3.303407e+06   3.558993e+06
  -4.197924e+06   1.649524e+06
  -2.442237e+06  -7.784669e+05
   1.266855e+05  -2.212225e+06
   1.346958e+06  -1.658147e+06
   5.023884e+05   1.519942e+05
  -1.180511e+06   1.149466e+06
  -1.776117e+06   2.615333e+05
  -7.006610e+05  -1.142994e+06
   6.369371e+05  -1.045322e+06
   5.554269e+05   3.762836e+05
  -8.204427e+05   8.906039e+05
  -1.756387e+06  -7.363939e+05
  -9.932683e+05  -3.005546e+06
   1.014907e+06  -3.496190e+06
   2.860729e+06  -1.594781e+06
   3.448049e+06   1.163160e+06
   2.459880e+06   2.867557e+06
   4.219469e+05   2.744962e+06
  -1.345872e+06   1.373302e+06
  -1.583251e+06   8.163518e+04
  -4.748040e+05  -6.904383e+04
   3.174080e+05   7.371857e+05
  -3.947545e+05   1.213005e+06
  -1.742466e+06   4.703544e+05
  -1.870644e+06  -8.332117e+05
  -3.723478e+05  -1.300781e+06
   1.128594e+06  -5.362287e+05
   9.329018e+05   4.745028e+05
  -7.875910e+05   6.250049e+05
  -2.240676e+06  -2.268170e+05
  -1.865678e+06  -1.406609e+06
   2.213487e+05  -2.066864e+06
   2.345855e+06  -1.620476e+06
   2.727558e+06  -1.731678e+05
   1.110606e+06   1.223112e+06
  -9.088285e+05   1.320659e+06
  -1.406999e+06   9.609956e+04
  -9.045873e+04  -9.906000e+05
   1.476334e+06  -6.218680e+05
   1.639598e+06   7.842692e+05
   3.486800e+05   1.610087e+06
  -1.027875e+06   1.000764e+06
  -1.241778e+06  -2.410179e+05
  -2.949698e+05  -7.344277e+05
   7.156602e+05  -3.995949e+04
   6.386362e+05   1.034443e+06
  -6.489402e+05   1.329932e+06
  -1.974780e+06   3.931528e+05
  -1.899478e+06  -1.129325e+06
  -2.735656e+05  -2.009371e+06
   1.433155e+06  -1.524108e+06
   1.668523e+06  -1.631462e+05
   4.885984e+05   8.462908e+05
  -6.548470e+05   7.759710e+05
  -6.732582e+05   3.521147e+04
   9.158806e+04  -4.480624e+05
   5.749628e+05  -2.775337e+05
   2.775692e+05   1.094000e+05
  -3.574893e+05   5.313027e+04
  -5.291519e+05  -5.640793e+05
   1.713070e+05  -1.127407e+06
   1.352547e+06  -8.292008e+05
   1.999261e+06   4.822291e+05
   1.324386e+06   1.946156e+06
  -3.279919e+05   2.362408e+06
  -1.654803e+06   1.370824e+06
  -1.717143e+06  -1.491247e+05
  -9.012460e+05  -9.911438e+05
  -3.007925e+05  -8.250539e+05
  -3.544452e+05  -3.361623e+05
  -4.885182e+05  -2.851282e+05
  -4.227435e+04  -6.739720e+05
   8.596743e+05  -8.572022e+05
   1.448962e+06  -3.055139e+05
   1.066131e+06   7.775193e+05
  -2.654948e+05   1.503365e+06
  -1.739940e+06   1.028095e+06
  -2.202788e+06  -5.595248e+05
  -1.059734e+06  -2.081437e+06
   1.008265e+06  -2.253254e+06
   2.461929e+06  -9.493259e+05
   2.305081e+06   6.633010e+05
   9.946114e+05   1.352468e+06
  -1.842138e+05   1.023994e+06
  -4.869846e+05   5.722484e+05
  -2.507147e+05   7.056193e+05
  -2.248487e+05   1.174392e+06
  -6.842356e+05   1.157937e+06
  -1.227297e+06   2.303329e+05
  -1.227899e+06  -1.122329e+06
  -4.388825e+05  -1.874808e+06
   6.868820e+05  -1.367829e+06
   1.261462e+06   4.638926e+04
   7.570102e+05   1.248106e+06
  -3.787637e+05   1.337963e+06
  -1.078774e+06   4.250435e+05
  -7.558952e+05  -5.936038e+05
   8.087822e+04  -9.784230e+05
   4.531973e+05  -7.584685e+05
   6.239115e+04  -4.475148e+05
  -3.837081e+05  -3.696096e+05
  -2.603783e+04  -3.846804e+05
   1.091468e+06  -1.664203e+05
   1.940911e+06   3.955379e+05
   1.525959e+06   1.048953e+06
  -3.599619e+04   1.349469e+06
  -1.521657e+06   1.017669e+06
  -1.771263e+06   2.329458e+05
  -8.188677e+05  -4.349944e+05
   2.431356e+05  -5.030058e+05
   4.788564e+05  -4.598862e+04
  -1.296016e+04   3.569734e+05
  -4.704599e+05   2.123170e+05
  -4.417001e+05  -3.572393e+05
  -1.462938e+05  -7.293914e+05
  -1.005309e+04  -4.707178e+05
  -1.491842e+05   1.289565e+05
  -3.395703e+05   3.216648e+05
  -2.697224e+05  -2.334742e+05
   2.185599e+05  -9.730042e+05
   9.232467e+05  -9.829160e+05
   1.257492e+06  -6.884651e+04
   7.116154e+05   9.284037e+05
  -4.549515e+05   1.030890e+06
  -1.194334e+06   2.107397e+05
  -6.756633e+05  -6.134154e+05
   7.008456e+05  -6.119654e+05
   1.574803e+06   1.380562e+05
   1.023238e+06   8.814366e+05
  -4.640163e+05   9.981605e+05
  -1.510151e+06   4.800972e+05
  -1.254259e+06  -2.055224e+05
  -1.366298e+05  -5.259682e+05
   6.426772e+05  -2.612919e+05
   3.430982e+05   2.851565e+05
  -6.224409e+05   4.501768e+05
  -1.142331e+06  -1.806463e+05
  -5.426267e+05  -1.205264e+06
   7.210708e+05  -1.607826e+06
   1.521851e+06  -7.508410e+05
   1.187213e+06   8.261608e+05
   9.963847e+04   1.779083e+06
  -7.949978e+05   1.262959e+06
  -9.130871e+05  -1.848868e+05
  -4.014066e+05  -1.189990e+06
   2.196230e+05  -9.714921e+05
   5.438652e+05  -7.576257e+04
   4.720437e+05   4.051478e+05
   1.900316e+05   1.587638e+05
   3.924375e+04  -1.042207e+05
   2.088874e+05   2.731305e+05
   4.332184e+05   9.613118e+05
   1.776711e+05   1.081370e+06
  -6.710797e+05   3.653315e+05
  -1.432879e+06  -5.324610e+05
  -1.257498e+06  -8.898107e+05
  -1.527966e+05  -6.870134e+05
   8.944749e+05  -3.616510e+05
   9.905491e+05  -1.422128e+05
   3.237778e+05   4.603380e+04
  -1.676724e+05   2.092317e+05
  -6.056346e+03   2.243144e+05
   2.966515e+05   1.339274e+05
   2.572696e+04   1.343255e+05
  -7.060716e+05   1.769097e+05
  -1.019660e+06  -7.753870e+04
  -3.271070e+05  -6.882899e+05
   9.240867e+05  -1.082538e+06
   1.674856e+06  -6.258469e+05
   1.307920e+06   5.147662e+05
   1.799933e+05   1.399066e+06
  -8.112630e+05   1.296760e+06
  -1.053723e+06   4.458442e+05
  -6.344961e+05  -2.849543e+05
  -9.531213e+04  -3.560560e+05
   1.049206e+05  -3.449301e+04
  -7.016649e+04   4.057135e+04
  -2.953582e+05  -3.659965e+05
  -2.164993e+05  -8.068185e+05
   2.180283e+05  -6.476969e+05
   6.668596e+05   1.803164e+05
   6.507086e+05   9.939901e+05
   1.971986e+04   1.009282e+06
  -7.697811e+05   1.670581e+05
  -9.628204e+05  -7.910647e+05
  -2.623381e+05  -1.081924e+06
   7.372025e+05  -6.007261e+05
   1.074236e+06   1.392427e+05
   4.717463e+05   6.015693e+05
  -3.106722e+05   6.181547e+05
  -3.611306e+05   3.363794e+05
   2.725243e+05   3.699908e+04
   6.467126e+05   8.010095e+02
   1.175832e+05   3.023466e+05
  -8.447576e+05   6.274894e+05
  -1.237922e+06   4.911375e+05
  -7.093499e+05  -1.853828e+05
   1.407149e+05  -8.345992e+05
   5.568064e+05  -8.008844e+05
   3.924139e+05  -1.174294e+05
   1.046562e+04   4.836763e+05
  -2.610182e+05   3.973112e+05
  -3.367201e+05  -1.897772e+05
  -2.151088e+05  -5.796734e+05
   7.846498e+04  -3.904613e+05
   3.786643e+05   7.563768e+04
   4.442223e+05   2.794900e+05
   2.341996e+05   8.987752e+04
  -1.433105e+04  -1.261820e+05
  -8.284689e+04  -2.444726e+03
  -4.583827e+04   3.608867e+05
  -1.275017e+05   5.016639e+05
  -3.360137e+05   1.468739e+05
  -3.907995e+05  -4.237523e+05
  -7.241360e+04  -6.425010e+05
   4.286293e+05  -2.728858e+05
   6.174355e+05   3.238969e+05
   2.048109e+05   5.846146e+05
  -5.078131e+05   3.292961e+05
  -8.444693e+05  -1.294755e+05
  -4.424185e+05  -3.945879e+05
   3.064422e+05  -3.575505e+05
   6.285953e+05  -1.673792e+05
   2.253939e+05  -3.075621e+03
  -3.696052e+05   2.528271e+04
  -4.047249e+05  -1.136845e+05
   2.049375e+05  -2.920699e+05
   7.810242e+05  -2.233621e+05
