
 $NMID
 id='ANONYMOUS ', fmtdat='(2E16.6)'
 volume=1.0
 tramp=1.0
 $END
  -3.329098e+07  -1.825097e+06
  -1.967509e+07  -1.993168e+07
   4.078841e+06  -2.175819e+07
   1.607791e+07  -9.671869e+06
   1.033698e+07   2.680062e+06
  -1.294076e+06   5.571881e+06
  -6.114612e+06   3.056124e+05
  -2.577665e+06  -5.709249e+06
   3.204460e+06  -6.651209e+06
   5.964944e+06  -1.932250e+06
   4.400333e+06   4.133170e+06
   2.784987e+05   5.812402e+06
  -2.775097e+06   1.429388e+06
  -1.768802e+06  -4.255740e+06
   2.329409e+06  -4.840754e+06
   4.957270e+06   5.152697e+05
   2.869405e+06   6.364921e+06
  -2.334903e+06   7.344873e+06
  -6.304287e+06   3.344878e+06
  -6.364719e+06  -1.818806e+06
  -3.254225e+06  -4.738413e+06
   2.032142e+05  -4.617960e+06
   1.355651e+06  -2.894100e+06
  -1.127490e+05  -1.841943e+06
  -1.479745e+06  -2.574631e+06
   3.390967e+05  -3.669705e+06
   4.648744e+06  -2.675500e+06
   6.968235e+06   5.753693e+05
   4.334233e+06   3.344444e+06
  -7.607191e+05   3.269225e+06
  -3.308525e+06   1.028532e+06
  -1.634803e+06  -9.805111e+05
   1.468892e+06  -1.328080e+06
   2.757687e+06  -6.345153e+04
   1.683150e+06   2.004278e+06
  -3.029414e+05   3.301688e+06
  -1.649500e+06   2.172885e+06
  -1.524347e+06  -7.895896e+05
  -2.456454e+05  -2.310347e+06
   6.022304e+05  -3.625099e+05
  -2.928933e+05   2.417999e+06
  -1.909961e+06   1.799976e+06
  -1.675443e+06  -1.901625e+06
   1.058047e+06  -3.694286e+06
   3.557776e+06  -6.329844e+05
   2.746284e+06   4.008048e+06
  -1.088947e+06   4.927774e+06
  -4.569379e+06   1.281444e+06
  -4.726659e+06  -2.991844e+06
  -1.553521e+06  -4.176377e+06
   2.350168e+06  -2.132764e+06
   3.931521e+06   7.878699e+05
   2.062488e+06   2.285323e+06
  -1.338474e+06   1.533654e+06
  -2.913773e+06  -4.648665e+05
  -1.364282e+06  -1.635041e+06
   1.058506e+06  -8.577212e+05
   1.354634e+06   6.708169e+05
  -4.634822e+05   8.926124e+05
  -1.600016e+06  -4.584212e+05
  -2.466178e+05  -1.641021e+06
   2.236621e+06  -1.234576e+06
   3.187705e+06   4.492057e+05
   1.563632e+06   2.297078e+06
  -1.474920e+06   3.437360e+06
  -3.949597e+06   3.076208e+06
  -4.421716e+06   7.342265e+05
  -2.747438e+06  -2.538084e+06
  -2.677935e+05  -4.335289e+06
   1.165879e+06  -3.413899e+06
   9.810916e+05  -1.323053e+06
   4.125260e+05  -4.353204e+05
   8.196840e+05  -9.158664e+05
   1.927593e+06  -9.001018e+05
   2.314429e+06   5.642186e+05
   1.271007e+06   2.117192e+06
  -4.762838e+05   1.936446e+06
  -1.645904e+06   1.819666e+03
  -1.401218e+06  -1.990453e+06
   2.415044e+05  -2.395537e+06
   2.261998e+06  -9.278755e+05
   3.055193e+06   1.317199e+06
   1.838325e+06   2.770276e+06
  -2.951481e+05   2.636181e+06
  -1.472206e+06   1.538870e+06
  -1.299288e+06   7.401587e+05
  -1.207064e+06   6.528426e+05
  -2.237810e+06   4.816096e+05
  -3.354273e+06  -5.709712e+05
  -2.688134e+06  -2.194379e+06
  -2.456134e+04  -3.285885e+06
   2.732908e+06  -3.013166e+06
   3.520749e+06  -1.403877e+06
   2.056062e+06   6.700714e+05
  -1.218051e+05   1.881273e+06
  -1.150840e+06   1.391586e+06
  -4.230209e+05  -1.416251e+05
   9.930337e+05  -9.717055e+05
   1.476858e+06  -2.247533e+05
   5.736560e+05   9.518715e+05
  -5.392959e+05   8.859676e+05
  -4.934828e+05  -2.986161e+05
   6.254954e+05  -7.798543e+05
   1.445001e+06   5.077874e+05
   9.178466e+05   2.411206e+06
  -6.916410e+05   2.932009e+06
  -2.297537e+06   1.450656e+06
  -2.918537e+06  -8.541016e+05
  -2.155224e+06  -2.358352e+06
  -4.146483e+05  -2.315438e+06
   1.120454e+06  -1.172425e+06
   1.335024e+06  -7.886067e+04
   3.974485e+05   5.298480e+04
  -2.748170e+05  -6.134860e+05
   3.123925e+05  -1.007183e+06
   1.436259e+06  -4.037807e+05
   1.559523e+06   6.653342e+05
   3.278788e+05   1.070253e+06
  -9.354605e+05   4.659931e+05
  -8.034172e+05  -3.813255e+05
   6.313939e+05  -5.567473e+05
   1.889278e+06   1.226387e+05
   1.617796e+06   1.140281e+06
  -1.314736e+05   1.752139e+06
  -1.941584e+06   1.406118e+06
  -2.283005e+06   1.833427e+05
  -9.366225e+05  -1.003966e+06
   7.464015e+05  -1.097946e+06
   1.161246e+06  -8.401764e+04
   7.272704e+04   8.240278e+05
  -1.228096e+06   5.322733e+05
  -1.380051e+06  -6.302206e+05
  -3.237580e+05  -1.336987e+06
   8.320164e+05  -8.600585e+05
   1.040974e+06   1.684506e+05
   2.664233e+05   6.025388e+05
  -5.910632e+05   4.318646e+04
  -5.445820e+05  -8.580484e+05
   5.317676e+05  -1.121751e+06
   1.652625e+06  -3.484736e+05
   1.601580e+06   9.272967e+05
   2.505014e+05   1.676359e+06
  -1.176670e+06   1.288785e+06
  -1.389287e+06   1.590514e+05
  -4.220597e+05  -6.987301e+05
   5.365090e+05  -6.603165e+05
   5.745226e+05  -3.777653e+04
  -5.740497e+04   3.929161e+05
  -4.865534e+05   2.633946e+05
  -2.644505e+05  -8.302366e+04
   2.749052e+05  -6.910531e+04
   4.515832e+05   4.416913e+05
  -1.155551e+05   9.369592e+05
  -1.114449e+06   7.132548e+05
  -1.678319e+06  -3.760622e+05
  -1.130891e+06  -1.612113e+06
   2.458676e+05  -1.985139e+06
   1.367583e+06  -1.179842e+06
   1.448127e+06   9.098296e+04
   7.876707e+05   8.238736e+05
   2.760336e+05   7.126342e+05
   2.915753e+05   2.987116e+05
   3.928266e+05   2.308184e+05
   3.840339e+04   5.513016e+05
  -7.000768e+05   7.292537e+05
  -1.207837e+06   2.865410e+05
  -9.168468e+05  -6.340548e+05
   1.881553e+05  -1.273508e+06
   1.440925e+06  -8.951249e+05
   1.856888e+06   4.352474e+05
   9.216205e+05   1.724653e+06
  -8.034536e+05   1.894756e+06
  -2.037128e+06   8.317115e+05
  -1.940827e+06  -5.108832e+05
  -8.697558e+05  -1.113789e+06
   1.250083e+05  -8.742377e+05
   4.081856e+05  -5.056650e+05
   2.252278e+05  -5.991509e+05
   1.904841e+05  -9.753571e+05
   5.590007e+05  -9.656964e+05
   1.019101e+06  -2.015366e+05
   1.038884e+06   9.283096e+05
   3.881387e+05   1.567169e+06
  -5.617673e+05   1.154854e+06
  -1.058523e+06  -2.057239e+04
  -6.514051e+05  -1.028666e+06
   2.905411e+05  -1.120924e+06
   8.818871e+05  -3.784951e+05
   6.329002e+05   4.680226e+05
  -4.504818e+04   8.050186e+05
  -3.519851e+05   6.384211e+05
  -3.795649e+04   3.807525e+05
   3.232588e+05   3.091477e+05
   2.502351e+04   3.234183e+05
  -9.044957e+05   1.534207e+05
  -1.620255e+06  -3.057709e+05
  -1.289119e+06  -8.539276e+05
   5.030370e+03  -1.119988e+06
   1.250565e+06  -8.636396e+05
   1.474196e+06  -2.226554e+05
   6.912937e+05   3.390862e+05
  -1.934579e+05   4.155820e+05
  -3.946319e+05   4.936399e+04
   1.345631e+04  -2.905369e+05
   3.963703e+05  -1.811079e+05
   3.717022e+05   2.946426e+05
   1.205882e+05   6.146152e+05
   3.548296e+03   3.974598e+05
   1.221135e+05  -1.177143e+05
   2.863087e+05  -2.859592e+05
   2.312202e+05   1.891983e+05
  -1.746642e+05   8.224172e+05
  -7.609101e+05   8.329894e+05
  -1.041591e+06   6.295936e+04
  -5.945777e+05  -7.727530e+05
   3.713944e+05  -8.586813e+05
   9.929320e+05  -1.779727e+05
   5.720282e+05   5.098519e+05
  -5.762823e+05   5.220776e+05
  -1.323766e+06  -8.956845e+04
  -8.815981e+05  -7.191530e+05
   3.632720e+05  -8.478755e+05
   1.258300e+06  -4.368140e+05
   1.061521e+06   1.462002e+05
   1.272603e+05   4.403645e+05
  -5.331420e+05   2.317299e+05
  -2.867924e+05  -2.326051e+05
   5.231200e+05  -3.808044e+05
   9.608358e+05   1.468304e+05
   4.595266e+05   1.010994e+06
  -5.994269e+05   1.354381e+06
  -1.274850e+06   6.399944e+05
  -1.004818e+06  -6.838198e+05
  -1.025726e+05  -1.493558e+06
   6.510049e+05  -1.074257e+06
   7.684370e+05   1.368516e+05
   3.579464e+05   9.908219e+05
  -1.620835e+05   8.211034e+05
  -4.517624e+05   7.370088e+04
  -4.083324e+05  -3.343945e+05
  -1.697313e+05  -1.319076e+05
  -2.839986e+04   8.949275e+04
  -1.663274e+05  -2.240299e+05
  -3.698158e+05  -8.003737e+05
  -1.709806e+05  -9.050117e+05
   5.479095e+05  -3.135026e+05
   1.209802e+06   4.303465e+05
   1.073928e+06   7.300340e+05
   1.368525e+05   5.722921e+05
  -7.540128e+05   3.143061e+05
  -8.315736e+05   1.342471e+05
  -2.645436e+05  -3.169179e+04
   1.417315e+05  -1.771091e+05
  -7.474618e+03  -1.904812e+05
  -2.615375e+05  -1.119331e+05
  -1.979736e+04  -1.139593e+05
   6.016386e+05  -1.548793e+05
   8.558697e+05   5.743063e+04
   2.670607e+05   5.756495e+05
  -7.746483e+05   9.139610e+05
  -1.393609e+06   5.335889e+05
  -1.091585e+06  -4.265772e+05
  -1.619164e+05  -1.174229e+06
   6.651489e+05  -1.092392e+06
   8.806057e+05  -3.784766e+05
   5.380926e+05   2.374492e+05
   7.968068e+04   2.986360e+05
  -9.728112e+04   2.638236e+04
   5.379500e+04  -4.061293e+04
   2.554943e+05   3.000463e+05
   1.938585e+05   6.739496e+05
  -1.789766e+05   5.442550e+05
  -5.649372e+05  -1.506615e+05
  -5.516195e+05  -8.353295e+05
  -1.564535e+04  -8.479854e+05
   6.519596e+05  -1.398545e+05
   8.142487e+05   6.634128e+05
   2.243824e+05   9.058991e+05
  -6.155661e+05   5.046212e+05
  -8.985976e+05  -1.099248e+05
  -3.951593e+05  -4.949281e+05
   2.556989e+05  -5.133158e+05
   2.927166e+05  -2.823073e+05
  -2.377261e+05  -2.978544e+04
  -5.449179e+05   4.891582e+03
  -9.833924e+04  -2.514243e+05
   7.023098e+05  -5.357521e+05
   1.025195e+06  -4.286876e+05
   5.870213e+05   1.440017e+05
  -1.115681e+05   6.983258e+05
  -4.528282e+05   6.721208e+05
  -3.210306e+05   9.441148e+04
  -9.773737e+03  -4.100071e+05
   2.176720e+05  -3.316107e+05
   2.863737e+05   1.632589e+05
   1.848662e+05   4.847666e+05
  -6.567729e+04   3.219236e+05
  -3.188268e+05  -6.328010e+04
  -3.714876e+05  -2.256944e+05
  -1.961161e+05  -6.851195e+04
   8.135720e+03   1.007616e+05
   6.662863e+04  -1.085679e+04
   4.439634e+04  -3.104235e+05
   1.189812e+05  -4.171620e+05
   2.883893e+05  -1.136582e+05
   3.238056e+05   3.631144e+05
   5.363700e+04   5.425459e+05
  -3.616981e+05   2.300573e+05
  -5.170914e+05  -2.721129e+05
  -1.741340e+05  -4.924633e+05
   4.209065e+05  -2.793735e+05
   7.059829e+05   1.052225e+05
   3.726090e+05   3.277005e+05
  -2.551870e+05   2.971067e+05
  -5.254378e+05   1.386418e+05
  -1.832951e+05   1.966532e+03
   3.197545e+05  -2.032803e+04
   3.458401e+05   9.956873e+04
  -1.750451e+05   2.536066e+05
  -6.645895e+05   1.967242e+05
