
 $NMID
 id='ANONYMOUS ', fmtdat='(2E16.6)'
 volume=1.0
 tramp=1.0
 $END
   4.575476e+07  -1.351318e+06
   2.888867e+07   2.640205e+07
  -4.129465e+06   3.083820e+07
  -2.164792e+07   1.379577e+07
  -1.412343e+07  -4.038682e+06
   1.843425e+06  -7.785274e+06
   8.254676e+06  -1.031599e+05
   3.297691e+06   7.788664e+06
  -4.342539e+06   8.600104e+06
  -7.934198e+06   2.534240e+06
  -6.130114e+06  -5.028979e+06
  -9.120139e+05  -7.419906e+06
   3.382751e+06  -2.286325e+06
   2.504271e+06   4.966680e+06
  -2.848962e+06   6.107204e+06
  -6.658834e+06  -5.649963e+05
  -4.217278e+06  -8.316357e+06
   2.620475e+06  -9.998085e+06
   8.164793e+06  -5.155851e+06
   8.857532e+06   1.571140e+06
   5.295962e+06   5.980188e+06
   5.712652e+05   6.677624e+06
  -1.851105e+06   4.627392e+06
  -6.241961e+05   2.458570e+06
   1.495725e+06   2.547619e+06
   6.084905e+04   4.137901e+06
  -5.120534e+06   3.839225e+06
  -8.616445e+06   2.657581e+05
  -6.008867e+06  -3.614297e+06
   1.449903e+05  -4.264455e+06
   3.601682e+06  -1.929827e+06
   2.103324e+06   5.063456e+05
  -1.170861e+06   1.263961e+06
  -2.727488e+06   3.328477e+05
  -2.077885e+06  -1.813351e+06
  -2.708440e+05  -3.781115e+06
   1.664063e+06  -3.140806e+06
   2.377001e+06   3.952419e+05
   1.066163e+06   2.968029e+06
  -6.213344e+05   1.102462e+06
  -5.632873e+04  -2.590176e+06
   2.196358e+06  -2.255924e+06
   2.281666e+06   2.499022e+06
  -1.456115e+06   5.145295e+06
  -5.251161e+06   1.168773e+06
  -4.294456e+06  -5.338309e+06
   1.142843e+06  -6.944097e+06
   6.039854e+06  -2.200339e+06
   6.238502e+06   3.547922e+06
   2.056294e+06   5.221381e+06
  -2.902998e+06   2.696452e+06
  -4.875195e+06  -9.459092e+05
  -2.531076e+06  -2.883354e+06
   1.809299e+06  -2.050503e+06
   3.876787e+06   4.966777e+05
   1.846948e+06   2.144816e+06
  -1.360919e+06   1.222666e+06
  -1.670632e+06  -8.026608e+05
   8.333633e+05  -1.037848e+06
   2.191473e+06   9.430132e+05
   5.689385e+04   2.582485e+06
  -3.356343e+06   1.835076e+06
  -4.413250e+06  -6.378953e+05
  -2.188986e+06  -3.098436e+06
   1.500017e+06  -4.564093e+06
   4.496536e+06  -4.282503e+06
   5.442408e+06  -1.493101e+06
   3.881728e+06   2.794328e+06
   8.477633e+05   5.414520e+06
  -1.352307e+06   4.346909e+06
  -1.353602e+06   1.462901e+06
  -3.623187e+05   1.722169e+05
  -4.779330e+05   9.947247e+05
  -1.849550e+06   1.407887e+06
  -2.683638e+06  -1.424477e+05
  -1.768387e+06  -2.107361e+06
   2.075210e+05  -2.166979e+06
   1.720845e+06  -1.496896e+05
   1.711672e+06   2.111841e+06
  -3.107157e+04   2.811175e+06
  -2.579359e+06   1.430629e+06
  -3.949247e+06  -1.167930e+06
  -2.741923e+06  -3.266594e+06
   1.652093e+04  -3.528285e+06
   1.811802e+06  -2.271128e+06
   1.756743e+06  -1.071503e+06
   1.548001e+06  -7.964979e+05
   2.701234e+06  -6.403423e+05
   4.081351e+06   5.188710e+05
   3.359926e+06   2.471495e+06
   2.417159e+05   3.903746e+06
  -2.992409e+06   3.764764e+06
  -3.989562e+06   1.996009e+06
  -2.491391e+06  -5.011945e+05
  -1.344314e+05  -2.165193e+06
   1.135018e+06  -1.780320e+06
   5.174820e+05   8.057419e+04
  -1.056120e+06   1.238907e+06
  -1.763299e+06   3.998304e+05
  -8.230194e+05  -1.096115e+06
   5.241384e+05  -1.075744e+06
   5.185700e+05   3.461928e+05
  -8.447135e+05   8.511135e+05
  -1.801357e+06  -8.166137e+05
  -1.017040e+06  -3.057003e+06
   1.010456e+06  -3.448268e+06
   2.816501e+06  -1.543875e+06
   3.382778e+06   1.055642e+06
   2.483443e+06   2.635551e+06
   5.641470e+05   2.608740e+06
  -1.202300e+06   1.441130e+06
  -1.536240e+06   2.145062e+05
  -4.730447e+05  -3.399298e+04
   3.636292e+05   7.082319e+05
  -3.263725e+05   1.252373e+06
  -1.735009e+06   5.930302e+05
  -1.931123e+06  -7.331662e+05
  -4.382570e+05  -1.293879e+06
   1.090655e+06  -5.963727e+05
   9.203323e+05   4.099352e+05
  -7.618240e+05   6.153675e+05
  -2.181116e+06  -1.407096e+05
  -1.849883e+06  -1.262224e+06
   1.216887e+05  -1.996113e+06
   2.193376e+06  -1.715500e+06
   2.670006e+06  -3.475719e+05
   1.187925e+06   1.150866e+06
  -8.195457e+05   1.403953e+06
  -1.423809e+06   2.041845e+05
  -1.821633e+05  -9.940769e+05
   1.422988e+06  -7.271728e+05
   1.671592e+06   6.795946e+05
   4.197214e+05   1.571676e+06
  -9.781176e+05   1.022997e+06
  -1.233554e+06  -1.986786e+05
  -3.083087e+05  -7.221503e+05
   7.278414e+05  -8.370614e+04
   7.150864e+05   9.828847e+05
  -5.357206e+05   1.367034e+06
  -1.918269e+06   5.430556e+05
  -1.963476e+06  -9.728161e+05
  -4.133155e+05  -1.971464e+06
   1.322377e+06  -1.607356e+06
   1.642749e+06  -2.632242e+05
   5.258777e+05   8.107698e+05
  -6.017444e+05   8.022067e+05
  -6.405324e+05   8.296449e+04
   7.886917e+04  -4.108458e+05
   5.181056e+05  -2.729848e+05
   2.177706e+05   7.992456e+04
  -3.835529e+05   2.376908e+04
  -5.440905e+05  -5.646305e+05
   1.214236e+05  -1.133395e+06
   1.288514e+06  -9.050145e+05
   2.007465e+06   3.410330e+05
   1.446704e+06   1.829165e+06
  -1.561571e+05   2.344111e+06
  -1.530728e+06   1.438259e+06
  -1.673952e+06  -5.029572e+04
  -9.116337e+05  -8.875318e+05
  -3.374573e+05  -7.245525e+05
  -4.067381e+05  -2.627815e+05
  -5.449237e+05  -2.604085e+05
  -9.663020e+04  -6.888037e+05
   8.008545e+05  -8.980185e+05
   1.398623e+06  -3.797805e+05
   1.073193e+06   6.841219e+05
  -1.777872e+05   1.464775e+06
  -1.638967e+06   1.109476e+06
  -2.195532e+06  -4.040518e+05
  -1.169986e+06  -1.984655e+06
   8.679576e+05  -2.295646e+06
   2.385498e+06  -1.086037e+06
   2.302951e+06   5.282517e+05
   1.025139e+06   1.266567e+06
  -1.383548e+05   9.803893e+05
  -4.108987e+05   5.575413e+05
  -1.418782e+05   7.157028e+05
  -1.099449e+05   1.206071e+06
  -6.007038e+05   1.215531e+06
  -1.210240e+06   3.231404e+05
  -1.297746e+06  -1.014710e+06
  -5.701483e+05  -1.813543e+06
   5.744804e+05  -1.396179e+06
   1.242864e+06  -3.648085e+04
   8.252232e+05   1.192880e+06
  -3.049572e+05   1.348933e+06
  -1.065019e+06   4.647971e+05
  -7.926199e+05  -5.798059e+05
   4.289100e+04  -9.983995e+05
   4.356089e+05  -7.753678e+05
   4.791254e+04  -4.287870e+05
  -4.118283e+05  -3.268447e+05
  -5.817855e+04  -3.727851e+05
   1.078464e+06  -2.365474e+05
   1.961493e+06   2.596165e+05
   1.578966e+06   9.397624e+05
   3.507171e+04   1.353393e+06
  -1.457563e+06   1.121141e+06
  -1.740663e+06   3.363702e+05
  -8.293857e+05  -4.061782e+05
   2.170654e+05  -5.299201e+05
   4.785190e+05  -6.532764e+04
   2.446404e+04   3.730569e+05
  -4.363535e+05   2.485058e+05
  -4.647642e+05  -3.192085e+05
  -2.223312e+05  -6.990319e+05
  -6.823538e+04  -4.599745e+05
  -1.353618e+05   1.194079e+05
  -2.920515e+05   3.178759e+05
  -2.775054e+05  -2.135137e+05
   1.326066e+05  -9.641659e+05
   8.395868e+05  -1.039458e+06
   1.263534e+06  -1.772615e+05
   7.985028e+05   8.606017e+05
  -3.726030e+05   1.072621e+06
  -1.177534e+06   3.198439e+05
  -7.131862e+05  -5.465119e+05
   6.531915e+05  -6.475375e+05
   1.548750e+06   3.873665e+04
   1.034933e+06   8.029054e+05
  -4.123234e+05   9.943473e+05
  -1.446051e+06   5.423633e+05
  -1.225428e+06  -1.333840e+05
  -1.578890e+05  -5.019541e+05
   6.174360e+05  -2.903370e+05
   3.670903e+05   2.640554e+05
  -5.668749e+05   5.004362e+05
  -1.138796e+06  -7.482675e+04
  -6.452865e+05  -1.134896e+06
   5.630039e+05  -1.643029e+06
   1.427157e+06  -8.670683e+05
   1.228260e+06   7.150333e+05
   2.312482e+05   1.734307e+06
  -6.890144e+05   1.284149e+06
  -9.058394e+05  -1.321876e+05
  -4.630188e+05  -1.142492e+06
   1.680823e+05  -9.580388e+05
   5.356745e+05  -1.045667e+05
   4.763809e+05   3.603301e+05
   1.797500e+05   1.369488e+05
   3.821815e+04  -9.973999e+04
   2.516131e+05   2.645947e+05
   5.053011e+05   9.174795e+05
   2.307233e+05   1.045515e+06
  -6.578036e+05   4.042984e+05
  -1.441700e+06  -4.179183e+05
  -1.278334e+06  -7.828097e+05
  -1.976568e+05  -6.678578e+05
   8.333593e+05  -4.218578e+05
   9.554617e+05  -2.047143e+05
   3.370858e+05   3.189617e+04
  -1.420720e+05   2.194070e+05
  -1.151568e+04   2.106155e+05
   2.777331e+05   9.794474e+04
   4.429955e+04   1.282383e+05
  -6.551526e+05   2.343533e+05
  -1.010126e+06   7.478070e+03
  -4.071367e+05  -6.540684e+05
   8.038106e+05  -1.146101e+06
   1.613168e+06  -7.588122e+05
   1.351860e+06   3.926029e+05
   2.916161e+05   1.356465e+06
  -7.047263e+05   1.343375e+06
  -1.001311e+06   5.336241e+05
  -6.411857e+05  -2.191076e+05
  -1.306587e+05  -3.425961e+05
   8.006932e+04  -5.458936e+04
  -7.390241e+04   2.998013e+04
  -3.075746e+05  -3.445976e+05
  -2.647307e+05  -7.768950e+05
   1.601323e+05  -6.577624e+05
   6.639316e+05   1.111617e+05
   7.281485e+05   9.113879e+05
   1.214681e+05   9.915970e+05
  -7.292012e+05   2.439364e+05
  -1.013033e+06  -6.831482e+05
  -3.553415e+05  -1.043476e+06
   6.739071e+05  -6.629943e+05
   1.076815e+06   4.742343e+04
   5.229648e+05   5.692376e+05
  -2.583601e+05   6.512834e+05
  -3.467604e+05   3.638518e+05
   2.505352e+05   8.676991e+03
   6.301402e+05  -5.192441e+04
   1.457998e+05   2.915571e+05
  -7.820407e+05   6.786594e+05
  -1.196327e+06   5.634388e+05
  -7.316929e+05  -1.423875e+05
   7.199129e+04  -8.387351e+05
   5.025031e+05  -8.386869e+05
   3.956274e+05  -1.608425e+05
   5.770257e+04   4.657869e+05
  -2.215499e+05   4.211269e+05
  -3.435643e+05  -1.428605e+05
  -2.589590e+05  -5.521470e+05
   4.134287e+04  -4.057612e+05
   3.783552e+05   3.717358e+04
   4.649464e+05   2.524239e+05
   2.377782e+05   8.133613e+04
  -3.351383e+04  -1.364410e+05
  -8.325158e+04  -2.491300e+04
   7.163135e+03   3.455157e+05
  -5.026016e+04   5.207906e+05
  -3.059342e+05   2.024832e+05
  -4.396793e+05  -3.635845e+05
  -1.527571e+05  -6.213414e+05
   3.903749e+05  -3.099610e+05
   6.433620e+05   2.576265e+05
   2.557078e+05   5.507866e+05
  -4.785993e+05   3.660783e+05
  -8.502072e+05  -5.275321e+04
  -4.708643e+05  -3.525310e+05
   2.725834e+05  -3.887773e+05
   6.086963e+05  -2.303429e+05
   2.352286e+05  -2.417291e+04
  -3.407274e+05   6.729229e+04
  -3.978139e+05  -6.030253e+04
   1.629340e+05  -2.901685e+05
   7.233163e+05  -2.799675e+05
