
 $NMID
 id='ANONYMOUS ', fmtdat='(2E16.6)'
 volume=1.0
 tramp=1.0
 $END
   5.656766e+07   1.154985e+05
   3.386871e+07   3.513126e+07
  -7.619328e+06   3.823317e+07
  -2.769683e+07   1.457427e+07
  -1.644641e+07  -7.106035e+06
   3.365173e+06  -9.326988e+06
   9.815651e+06   1.275218e+06
   2.729635e+06   9.780958e+06
  -6.223774e+06   9.302985e+06
  -9.654536e+06   1.962100e+06
  -7.005478e+06  -6.217802e+06
  -8.249009e+05  -8.615849e+06
   4.005303e+06  -2.761430e+06
   2.652379e+06   5.427198e+06
  -3.762087e+06   6.532355e+06
  -7.876358e+06  -1.362210e+06
  -4.432020e+06  -1.023254e+07
   3.810656e+06  -1.181636e+07
   1.014649e+07  -5.914431e+06
   1.085914e+07   2.066368e+06
   6.657920e+06   7.538726e+06
   6.794284e+05   8.715396e+06
  -2.969754e+06   6.078778e+06
  -1.897901e+06   2.654034e+06
   1.121669e+06   2.099989e+06
   3.011721e+05   4.169021e+06
  -5.383284e+06   4.444560e+06
  -9.686033e+06   5.456377e+05
  -7.085115e+06  -4.124909e+06
  -2.788538e+05  -5.102114e+06
   3.720575e+06  -2.624976e+06
   2.511500e+06  -4.429448e+04
  -5.532471e+05   9.567195e+05
  -2.257442e+06   5.420369e+05
  -2.229238e+06  -1.395888e+06
  -7.421331e+05  -3.942591e+06
   1.802040e+06  -3.886244e+06
   3.277624e+06   1.022276e+05
   1.736408e+06   3.671555e+06
  -8.033308e+05   1.955199e+06
  -3.844700e+05  -2.457983e+06
   2.447348e+06  -2.311422e+06
   2.443905e+06   3.202743e+06
  -2.456220e+06   6.135103e+06
  -6.986217e+06   9.849567e+05
  -5.124158e+06  -6.971318e+06
   1.941702e+06  -8.552646e+06
   7.456976e+06  -2.418233e+06
   6.961749e+06   4.454106e+06
   1.846167e+06   6.030728e+06
  -3.473837e+06   2.710695e+06
  -5.254873e+06  -1.523889e+06
  -2.418554e+06  -3.484412e+06
   2.426317e+06  -2.191693e+06
   4.534359e+06   9.326853e+05
   1.946706e+06   2.728756e+06
  -1.725252e+06   1.371488e+06
  -1.739655e+06  -1.024821e+06
   1.325465e+06  -9.038702e+05
   2.464020e+06   1.771839e+06
  -6.466345e+05   3.441411e+06
  -4.652308e+06   1.884059e+06
  -5.305779e+06  -1.375149e+06
  -2.312599e+06  -3.989948e+06
   1.802839e+06  -5.286198e+06
   5.011700e+06  -4.876799e+06
   6.215452e+06  -1.769764e+06
   4.613298e+06   3.164797e+06
   9.618705e+05   6.194846e+06
  -1.860933e+06   4.777916e+06
  -1.758081e+06   1.210901e+06
  -1.426906e+05  -2.548335e+05
   5.169430e+04   1.003473e+06
  -1.603023e+06   1.829267e+06
  -2.841159e+06   2.692079e+05
  -2.067262e+06  -1.927914e+06
  -5.131078e+04  -2.164903e+06
   1.557309e+06  -2.288929e+05
   1.703768e+06   2.069952e+06
   2.225283e+04   2.953035e+06
  -2.778958e+06   1.681380e+06
  -4.509443e+06  -1.182130e+06
  -3.253331e+06  -3.779927e+06
   3.448565e+04  -4.259814e+06
   2.294891e+06  -2.736919e+06
   2.248649e+06  -1.140119e+06
   1.840180e+06  -6.833701e+05
   2.954675e+06  -4.865258e+05
   4.375535e+06   7.556157e+05
   3.515350e+06   2.774654e+06
   1.439184e+05   4.155063e+06
  -3.214951e+06   3.941978e+06
  -4.198486e+06   2.159961e+06
  -2.687216e+06  -4.085622e+05
  -2.968611e+05  -2.257058e+06
   1.099183e+06  -1.963604e+06
   5.720958e+05   3.200821e+04
  -1.091896e+06   1.328742e+06
  -1.926068e+06   4.081597e+05
  -9.373818e+05  -1.217921e+06
   5.155918e+05  -1.128304e+06
   4.270801e+05   3.891961e+05
  -1.077031e+06   6.910292e+05
  -1.862098e+06  -1.315172e+06
  -6.311980e+05  -3.515967e+06
   1.616180e+06  -3.415871e+06
   3.156565e+06  -1.096854e+06
   3.315769e+06   1.457184e+06
   2.284346e+06   2.764260e+06
   4.631667e+05   2.619377e+06
  -1.243921e+06   1.481825e+06
  -1.591396e+06   2.389803e+05
  -4.980180e+05  -4.505472e+04
   3.632792e+05   7.599569e+05
  -4.209962e+05   1.359674e+06
  -1.936075e+06   5.865006e+05
  -2.059687e+06  -9.031750e+05
  -3.855641e+05  -1.437334e+06
   1.186606e+06  -5.763253e+05
   8.928116e+05   4.586517e+05
  -8.598777e+05   5.137795e+05
  -2.190824e+06  -3.329160e+05
  -1.746323e+06  -1.364217e+06
   2.549391e+05  -1.977276e+06
   2.326916e+06  -1.666203e+06
   2.801886e+06  -2.781799e+05
   1.233086e+06   1.283629e+06
  -9.335218e+05   1.528323e+06
  -1.588369e+06   1.939426e+05
  -2.090098e+05  -1.100176e+06
   1.537085e+06  -7.499120e+05
   1.738632e+06   7.942017e+05
   3.333200e+05   1.671605e+06
  -1.110682e+06   9.778593e+05
  -1.267395e+06  -3.269333e+05
  -2.388148e+05  -7.936246e+05
   8.129073e+05  -5.299224e+04
   7.506277e+05   1.068734e+06
  -5.784287e+05   1.447052e+06
  -2.033175e+06   5.581737e+05
  -2.067197e+06  -1.058516e+06
  -3.921005e+05  -2.103440e+06
   1.461039e+06  -1.665742e+06
   1.749563e+06  -2.099149e+05
   5.041958e+05   8.813347e+05
  -6.687308e+05   8.109074e+05
  -6.353907e+05   8.014002e+04
   1.227379e+05  -3.527421e+05
   4.855793e+05  -2.019331e+05
   1.061446e+05   5.875340e+04
  -4.598163e+05  -9.584905e+04
  -5.160372e+05  -6.919354e+05
   2.182469e+05  -1.202341e+06
   1.401902e+06  -9.047941e+05
   2.108605e+06   4.184341e+05
   1.487525e+06   1.967039e+06
  -2.143439e+05   2.449132e+06
  -1.629149e+06   1.423587e+06
  -1.699461e+06  -1.303375e+05
  -8.570720e+05  -8.943692e+05
  -3.223219e+05  -6.373516e+05
  -4.970473e+05  -2.107135e+05
  -6.471660e+05  -3.238043e+05
  -9.322891e+04  -7.824507e+05
   8.894520e+05  -9.095213e+05
   1.460844e+06  -3.236752e+05
   1.053362e+06   7.247315e+05
  -2.553982e+05   1.464339e+06
  -1.737937e+06   1.079632e+06
  -2.270490e+06  -4.872490e+05
  -1.143089e+06  -2.124799e+06
   1.029608e+06  -2.394666e+06
   2.578580e+06  -1.038041e+06
   2.372287e+06   6.747791e+05
   9.525623e+05   1.350645e+06
  -2.132479e+05   9.412852e+05
  -3.802866e+05   5.060253e+05
  -5.976342e+04   7.680616e+05
  -9.525205e+04   1.336341e+06
  -6.808480e+05   1.313565e+06
  -1.315274e+06   3.270865e+05
  -1.359794e+06  -1.089591e+06
  -5.700942e+05  -1.915852e+06
   6.240693e+05  -1.456675e+06
   1.299479e+06   1.661885e+03
   8.201962e+05   1.302402e+06
  -4.019982e+05   1.412855e+06
  -1.184536e+06   3.993316e+05
  -8.201225e+05  -7.216352e+05
   1.364024e+05  -1.096073e+06
   5.562009e+05  -7.874949e+05
   9.025424e+04  -4.136962e+05
  -4.432546e+05  -3.356473e+05
  -6.404515e+04  -3.866973e+05
   1.167258e+06  -2.122403e+05
   2.096297e+06   3.359921e+05
   1.638631e+06   1.050953e+06
  -4.626874e+04   1.458344e+06
  -1.618419e+06   1.159908e+06
  -1.856274e+06   2.772273e+05
  -8.386652e+05  -5.113237e+05
   2.694680e+05  -5.821826e+05
   5.205473e+05  -2.901048e+04
   3.534487e+04   4.356177e+05
  -4.430011e+05   2.668703e+05
  -4.908396e+05  -3.442556e+05
  -2.719183e+05  -7.294505e+05
  -1.105207e+05  -4.857499e+05
  -1.359759e+05   8.834840e+04
  -2.707449e+05   2.881400e+05
  -2.770349e+05  -2.352344e+05
   1.324177e+05  -9.958564e+05
   9.070459e+05  -1.085273e+06
   1.394519e+06  -1.896222e+05
   8.823133e+05   9.238377e+05
  -4.168759e+05   1.167992e+06
  -1.282946e+06   3.594965e+05
  -7.486122e+05  -5.724262e+05
   7.116067e+05  -6.557982e+05
   1.600707e+06   9.876967e+04
   1.001031e+06   8.717384e+05
  -4.996673e+05   9.884807e+05
  -1.508573e+06   4.686426e+05
  -1.233291e+06  -1.988054e+05
  -1.299196e+05  -5.152490e+05
   6.576442e+05  -2.668949e+05
   3.951806e+05   3.020731e+05
  -5.826289e+05   5.419271e+05
  -1.202598e+06  -6.121214e+04
  -7.058961e+05  -1.187065e+06
   5.657638e+05  -1.739505e+06
   1.488591e+06  -9.232257e+05
   1.280361e+06   7.504904e+05
   2.218655e+05   1.809245e+06
  -7.394901e+05   1.305328e+06
  -9.329679e+05  -1.854067e+05
  -4.300940e+05  -1.204671e+06
   2.334823e+05  -9.703607e+05
   5.734069e+05  -8.015837e+04
   4.609979e+05   3.746350e+05
   1.515467e+05   1.315280e+05
   5.410915e+04  -9.136568e+04
   3.068722e+05   3.103266e+05
   5.310463e+05   9.806174e+05
   1.816651e+05   1.085189e+06
  -7.429946e+05   3.989650e+05
  -1.493777e+06  -4.591022e+05
  -1.283401e+06  -8.360938e+05
  -1.897786e+05  -7.099859e+05
   8.436889e+05  -4.354829e+05
   9.881315e+05  -1.863800e+05
   3.798953e+05   6.298764e+04
  -1.385437e+05   2.325529e+05
  -5.499546e+04   1.951548e+05
   2.470844e+05   7.811586e+04
   6.223660e+04   1.338796e+05
  -6.432344e+05   2.584764e+05
  -1.065562e+06   7.992347e+03
  -4.833350e+05  -7.044644e+05
   8.166724e+05  -1.222630e+06
   1.733575e+06  -8.061358e+05
   1.470421e+06   4.074645e+05
   3.084843e+05   1.419501e+06
  -7.677794e+05   1.414103e+06
  -1.059923e+06   5.783266e+05
  -6.658426e+05  -2.115529e+05
  -1.522322e+05  -3.633433e+05
   4.882600e+04  -8.622641e+04
  -8.921808e+04  -7.872439e+02
  -2.966578e+05  -3.762429e+05
  -2.510244e+05  -8.161790e+05
   1.669624e+05  -6.984313e+05
   6.894328e+05   9.301607e+04
   7.833970e+05   9.368060e+05
   1.650958e+05   1.050784e+06
  -7.453370e+05   2.927758e+05
  -1.073961e+06  -6.890636e+05
  -3.907542e+05  -1.103134e+06
   7.093874e+05  -7.214357e+05
   1.151553e+06   4.955275e+04
   5.647408e+05   6.333775e+05
  -2.838179e+05   7.191030e+05
  -4.027814e+05   3.842513e+05
   2.261808e+05  -7.022224e+03
   6.522048e+05  -5.581807e+04
   1.628204e+05   3.159778e+05
  -8.264377e+05   6.993579e+05
  -1.290513e+06   5.478738e+05
  -8.016840e+05  -1.900237e+05
   8.127154e+04  -8.950268e+05
   5.699765e+05  -8.879432e+05
   4.574422e+05  -1.892853e+05
   7.828663e+04   4.754484e+05
  -2.308837e+05   4.615258e+05
  -3.604221e+05  -1.185194e+05
  -2.726920e+05  -5.808436e+05
   4.047246e+04  -4.577928e+05
   3.997192e+05   2.714796e+04
   4.956602e+05   2.939466e+05
   2.472053e+05   1.089126e+05
  -4.888420e+04  -1.721321e+05
  -8.244265e+04  -8.282489e+04
   5.476798e+04   3.450147e+05
   7.609767e+03   5.906020e+05
  -3.068172e+05   2.753160e+05
  -5.086001e+05  -3.481211e+05
  -2.176430e+05  -6.536792e+05
   3.960512e+05  -3.413530e+05
   6.988878e+05   2.542009e+05
   2.836231e+05   5.677013e+05
  -5.160148e+05   3.850034e+05
  -9.143165e+05  -4.771950e+04
  -5.022830e+05  -3.735330e+05
   2.913319e+05  -4.323792e+05
   6.530493e+05  -2.687991e+05
   2.750146e+05  -2.679385e+04
  -3.224728e+05   1.000450e+05
  -4.058258e+05  -2.552773e+04
   1.394361e+05  -2.831262e+05
   7.098313e+05  -2.953378e+05
