
 $NMID
 id='ANONYMOUS ', fmtdat='(2E16.6)'
 volume=1.0
 tramp=1.0
 $END
  -4.920974e+07   6.693048e+05
  -3.026994e+07  -2.934602e+07
   5.449389e+06  -3.313972e+07
   2.359627e+07  -1.386427e+07
   1.475380e+07   5.111658e+06
  -2.385983e+06   8.230147e+06
  -8.695805e+06  -4.017855e+05
  -3.038617e+06  -8.400188e+06
   4.958286e+06  -8.738773e+06
   8.452003e+06  -2.291005e+06
   6.381021e+06   5.412926e+06
   8.725817e+05   7.782484e+06
  -3.583899e+06   2.435824e+06
  -2.549688e+06  -5.083321e+06
   3.134218e+06  -6.193766e+06
   7.016375e+06   8.537851e+05
   4.237061e+06   8.922416e+06
  -3.038106e+06   1.054272e+07
  -8.811407e+06   5.360134e+06
  -9.497186e+06  -1.761349e+06
  -5.718671e+06  -6.513809e+06
  -5.668987e+05  -7.357127e+06
   2.265819e+06  -5.080101e+06
   1.068873e+06  -2.465305e+06
  -1.381678e+06  -2.345029e+06
  -1.690928e+05  -4.125697e+06
   5.175562e+06  -4.045869e+06
   8.941692e+06  -3.736316e+05
   6.349712e+06   3.774528e+06
   1.800812e+03   4.548107e+06
  -3.630731e+06   2.180647e+06
  -2.256924e+06  -3.079905e+05
   9.213473e+05  -1.174318e+06
   2.544158e+06  -4.389776e+05
   2.143014e+06   1.643842e+06
   4.538122e+05   3.826843e+06
  -1.710928e+06   3.388626e+06
  -2.695223e+06  -3.073871e+05
  -1.288835e+06  -3.216309e+06
   7.077280e+05  -1.396035e+06
   1.934951e+05   2.534951e+06
  -2.258483e+06   2.261585e+06
  -2.310137e+06  -2.724486e+06
   1.810659e+06  -5.430119e+06
   5.818000e+06  -1.058234e+06
   4.526924e+06   5.888314e+06
  -1.441297e+06   7.442315e+06
  -6.496139e+06   2.242189e+06
  -6.435101e+06  -3.836418e+06
  -1.964575e+06  -5.450937e+06
   3.069630e+06  -2.675961e+06
   4.956926e+06   1.131492e+06
   2.465653e+06   3.057226e+06
  -2.008965e+06   2.072486e+06
  -4.068429e+06  -6.509731e+05
  -1.859187e+06  -2.330040e+06
   1.478913e+06  -1.260605e+06
   1.678776e+06   8.686229e+05
  -9.915367e+05   9.678695e+05
  -2.245900e+06  -1.229847e+06
   2.129541e+05  -2.842561e+06
   3.785570e+06  -1.808396e+06
   4.674552e+06   9.053549e+05
   2.200437e+06   3.385896e+06
  -1.598240e+06   4.784905e+06
  -4.644626e+06   4.468920e+06
  -5.679453e+06   1.582726e+06
  -4.116019e+06  -2.910960e+06
  -8.839754e+05  -5.651845e+06
   1.515056e+06  -4.456566e+06
   1.470099e+06  -1.354286e+06
   2.640978e+05  -2.865422e+04
   2.795041e+05  -1.012912e+06
   1.754804e+06  -1.567664e+06
   2.735572e+06  -1.555586e+04
   1.880803e+06   2.027712e+06
  -1.002744e+05   2.160409e+06
  -1.650850e+06   1.933013e+05
  -1.709489e+06  -2.069980e+06
   5.901938e+02  -2.842385e+06
   2.632033e+06  -1.516876e+06
   4.125721e+06   1.162350e+06
   2.903497e+06   3.428933e+06
  -3.021002e+04   3.762687e+06
  -1.975623e+06   2.412682e+06
  -1.916038e+06   1.079292e+06
  -1.631922e+06   7.476114e+05
  -2.761608e+06   5.861426e+05
  -4.149201e+06  -5.874363e+05
  -3.392427e+06  -2.547583e+06
  -2.178059e+05  -3.958450e+06
   3.034043e+06  -3.807918e+06
   4.028291e+06  -2.054510e+06
   2.548704e+06   4.569763e+05
   2.007152e+05   2.186673e+06
  -1.109866e+06   1.840325e+06
  -5.352866e+05  -6.134269e+04
   1.056801e+06  -1.266177e+06
   1.805726e+06  -4.039483e+05
   8.594318e+05   1.130623e+06
  -5.123989e+05   1.089647e+06
  -4.819225e+05  -3.521547e+05
   9.101866e+05  -7.829742e+05
   1.794593e+06   9.808427e+05
   8.710886e+05   3.177141e+06
  -1.198296e+06   3.392747e+06
  -2.890541e+06   1.375166e+06
  -3.323611e+06  -1.169183e+06
  -2.403470e+06  -2.639339e+06
  -5.383465e+05  -2.585310e+06
   1.201197e+06  -1.450032e+06
   1.543895e+06  -2.285323e+05
   4.781814e+05   3.585634e+04
  -3.627792e+05  -7.190566e+05
   3.545079e+05  -1.279245e+06
   1.789737e+06  -5.884909e+05
   1.959871e+06   7.818608e+05
   4.181376e+05   1.330388e+06
  -1.112034e+06   5.871110e+05
  -9.035699e+05  -4.176660e+05
   7.836898e+05  -5.745754e+05
   2.161084e+06   1.964337e+05
   1.801754e+06   1.274355e+06
  -1.562426e+05   1.969460e+06
  -2.212397e+06   1.692156e+06
  -2.691937e+06   3.305620e+05
  -1.196623e+06  -1.184241e+06
   8.504858e+05  -1.438052e+06
   1.470089e+06  -2.010620e+05
   1.921555e+05   1.024201e+06
  -1.449355e+06   7.335631e+05
  -1.682173e+06  -7.081375e+05
  -3.909258e+05  -1.589441e+06
   1.010166e+06  -9.995125e+05
   1.232221e+06   2.370482e+05
   2.825094e+05   7.374406e+05
  -7.508006e+05   7.280943e+04
  -7.244133e+05  -1.003254e+06
   5.421908e+05  -1.386418e+06
   1.942035e+06  -5.508050e+05
   1.987749e+06   9.886421e+05
   4.089028e+05   2.000266e+06
  -1.354674e+06   1.618246e+06
  -1.664733e+06   2.477029e+05
  -5.161672e+05  -8.256974e+05
   6.165592e+05  -7.999784e+05
   6.329666e+05  -8.535894e+04
  -8.942607e+04   3.853741e+05
  -4.980495e+05   2.494639e+05
  -1.771846e+05  -6.620191e+04
   4.033288e+05   2.013150e+04
   5.282026e+05   6.018461e+05
  -1.514091e+05   1.146408e+06
  -1.314066e+06   9.009948e+05
  -2.027216e+06  -3.584887e+05
  -1.455433e+06  -1.857693e+06
   1.662177e+05  -2.362363e+06
   1.545219e+06  -1.427068e+06
   1.667429e+06   6.977865e+04
   8.900984e+05   8.757130e+05
   3.371692e+05   6.852141e+05
   4.395843e+05   2.433186e+05
   5.764188e+05   2.820558e+05
   9.495201e+04   7.165239e+05
  -8.218454e+05   8.964996e+05
  -1.405951e+06   3.623340e+05
  -1.060258e+06  -6.866111e+05
   1.958363e+05  -1.451449e+06
   1.654350e+06  -1.095838e+06
   2.204614e+06   4.210056e+05
   1.157351e+06   2.011728e+06
  -9.097344e+05   2.312119e+06
  -2.428089e+06   1.066798e+06
  -2.307390e+06  -5.659396e+05
  -9.953421e+05  -1.278070e+06
   1.568655e+05  -9.566727e+05
   3.914887e+05  -5.383830e+05
   1.092153e+05  -7.330263e+05
   1.018697e+05  -1.244728e+06
   6.215338e+05  -1.241701e+06
   1.236836e+06  -3.250218e+05
   1.312981e+06   1.028584e+06
   5.723187e+05   1.832895e+06
  -5.820203e+05   1.408502e+06
  -1.251822e+06   2.756728e+04
  -8.196916e+05  -1.217919e+06
   3.320315e+05  -1.359405e+06
   1.094350e+06  -4.392351e+05
   7.941468e+05   6.226739e+05
  -7.413669e+04   1.022288e+06
  -4.714487e+05   7.714856e+05
  -5.958490e+04   4.186639e+05
   4.215399e+05   3.263774e+05
   6.145468e+04   3.748652e+05
  -1.099732e+06   2.287879e+05
  -1.993289e+06  -2.789467e+05
  -1.589289e+06  -9.655535e+05
  -9.347787e+03  -1.377133e+06
   1.499013e+06  -1.128532e+06
   1.764378e+06  -3.182059e+05
   8.245024e+05   4.362414e+05
  -2.331830e+05   5.437886e+05
  -4.881064e+05   5.292189e+04
  -2.787930e+04  -3.930043e+05
   4.346990e+05  -2.555662e+05
   4.714864e+05   3.240569e+05
   2.413468e+05   7.053081e+05
   8.457955e+04   4.669962e+05
   1.326386e+05  -1.081279e+05
   2.791394e+05  -3.072794e+05
   2.755588e+05   2.181344e+05
  -1.272184e+05   9.689782e+05
  -8.531539e+05   1.050087e+06
  -1.300304e+06   1.824153e+05
  -8.249450e+05  -8.753928e+05
   3.831782e+05  -1.099020e+06
   1.206064e+06  -3.343109e+05
   7.226296e+05   5.488498e+05
  -6.656637e+05   6.470632e+05
  -1.553363e+06  -5.292654e+04
  -1.016815e+06  -8.140084e+05
   4.344222e+05  -9.835684e+05
   1.451253e+06  -5.177608e+05
   1.217000e+06   1.489448e+05
   1.490626e+05   5.008127e+05
  -6.244418e+05   2.817055e+05
  -3.743425e+05  -2.746220e+05
   5.668978e+05  -5.141572e+05
   1.153915e+06   6.523403e+04
   6.666690e+05   1.143536e+06
  -5.538551e+05   1.668265e+06
  -1.435405e+06   8.865463e+05
  -1.240356e+06  -7.171122e+05
  -2.333454e+05  -1.746173e+06
   6.951193e+05  -1.283943e+06
   9.072593e+05   1.460317e+05
   4.518635e+05   1.151980e+06
  -1.851266e+05   9.534265e+05
  -5.434958e+05   9.660390e+04
  -4.687271e+05  -3.592688e+05
  -1.692524e+05  -1.317346e+05
  -4.268477e+04   9.555572e+04
  -2.692175e+05  -2.797292e+05
  -5.135307e+05  -9.311399e+05
  -2.159321e+05  -1.048358e+06
   6.807168e+05  -3.997178e+05
   1.450138e+06   4.230651e+05
   1.272822e+06   7.885750e+05
   1.955487e+05   6.763860e+05
  -8.287432e+05   4.280357e+05
  -9.579104e+05   2.008863e+05
  -3.488027e+05  -4.256218e+04
   1.389317e+05  -2.234356e+05
   2.515189e+04  -2.017733e+05
  -2.659636e+05  -8.720961e+04
  -5.089525e+04  -1.297458e+05
   6.454489e+05  -2.455558e+05
   1.022238e+06  -1.131883e+04
   4.331850e+05   6.678230e+05
  -7.985750e+05   1.169013e+06
  -1.641444e+06   7.746419e+05
  -1.385782e+06  -3.917421e+05
  -3.009010e+05  -1.367658e+06
   7.169003e+05  -1.360066e+06
   1.013340e+06  -5.490968e+05
   6.467018e+05   2.119435e+05
   1.385592e+05   3.475140e+05
  -6.920421e+04   6.725791e+04
   7.741208e+04  -1.851688e+04
   3.020363e+05   3.510561e+05
   2.607613e+05   7.828954e+05
  -1.591078e+05   6.679567e+05
  -6.693583e+05  -1.009053e+05
  -7.467438e+05  -9.114325e+05
  -1.396757e+05  -1.006276e+06
   7.299282e+05  -2.632676e+05
   1.030943e+06   6.764996e+05
   3.690862e+05   1.056228e+06
  -6.799318e+05   6.814390e+05
  -1.095581e+06  -4.449884e+04
  -5.346958e+05  -5.865082e+05
   2.644369e+05  -6.711150e+05
   3.628834e+05  -3.681339e+05
  -2.405776e+05  -4.906621e+02
  -6.330892e+05   5.574927e+04
  -1.515265e+05  -2.979255e+05
   7.887999e+05  -6.837109e+05
   1.216989e+06  -5.567840e+05
   7.501175e+05   1.569063e+05
  -7.208438e+04   8.525590e+05
  -5.199090e+05   8.501726e+05
  -4.149980e+05   1.696488e+05
  -6.701844e+04  -4.661842e+05
   2.223578e+05  -4.333371e+05
   3.488239e+05   1.316784e+05
   2.640057e+05   5.572421e+05
  -4.042730e+04   4.216113e+05
  -3.837485e+05  -3.191324e+04
  -4.722125e+05  -2.638857e+05
  -2.387034e+05  -8.958717e+04
   3.812749e+04   1.486323e+05
   8.011382e+04   4.498785e+04
  -2.626885e+04  -3.445765e+05
   2.884759e+04  -5.445132e+05
   3.056668e+05  -2.288620e+05
   4.638388e+05   3.554399e+05
   1.772486e+05   6.299234e+05
  -3.888636e+05   3.209363e+05
  -6.600299e+05  -2.528745e+05
  -2.663374e+05  -5.522600e+05
   4.869686e+05  -3.713742e+05
   8.672180e+05   4.811756e+04
   4.797642e+05   3.558541e+05
  -2.766885e+05   4.022999e+05
  -6.201447e+05   2.441920e+05
  -2.476786e+05   2.471302e+04
   3.324787e+05  -8.129864e+04
   3.994055e+05   4.531194e+04
  -1.512334e+05   2.873283e+05
  -7.118835e+05   2.881747e+05
