
 $NMID
 id='ANONYMOUS ', fmtdat='(2E16.6)'
 volume=1.0
 tramp=1.0
 $END
  -6.329715e+07  -3.428504e+05
  -3.776947e+07  -3.963855e+07
   8.792721e+06  -4.286922e+07
   3.119526e+07  -1.605551e+07
   1.838503e+07   8.235825e+06
  -3.899377e+06   1.045047e+07
  -1.100617e+07  -1.604824e+06
  -2.907557e+06  -1.102463e+07
   7.129084e+06  -1.029593e+07
   1.083893e+07  -2.051038e+06
   7.760703e+06   6.982660e+06
   8.517770e+05   9.581939e+06
  -4.459848e+06   3.065468e+06
  -2.869743e+06  -6.012187e+06
   4.292069e+06  -7.198869e+06
   8.798819e+06   1.618304e+06
   4.858908e+06   1.147335e+07
  -4.355770e+06   1.317286e+07
  -1.136937e+07   6.556097e+06
  -1.212690e+07  -2.330909e+06
  -7.455566e+06  -8.432638e+06
  -7.807237e+05  -9.787776e+06
   3.372568e+06  -6.869414e+06
   2.267454e+06  -2.989336e+06
  -1.109666e+06  -2.274778e+06
  -3.030694e+05  -4.539942e+06
   5.929332e+06  -4.873283e+06
   1.070135e+07  -5.720949e+05
   7.854974e+06   4.593307e+06
   3.496304e+05   5.653559e+06
  -4.062686e+06   2.913328e+06
  -2.755677e+06   1.166486e+05
   5.567763e+05  -9.485609e+05
   2.391973e+06  -5.521481e+05
   2.401626e+06   1.487738e+06
   8.282319e+05   4.299641e+06
  -1.986143e+06   4.325474e+06
  -3.675129e+06  -5.273008e+04
  -1.984354e+06  -4.077127e+06
   8.663297e+05  -2.250806e+06
   4.184982e+05   2.645452e+06
  -2.733867e+06   2.512801e+06
  -2.694433e+06  -3.613559e+06
   2.831182e+06  -6.867220e+06
   7.886157e+06  -1.077318e+06
   5.723888e+06   7.840913e+06
  -2.231543e+06   9.581507e+06
  -8.347733e+06   2.665296e+06
  -7.697180e+06  -5.030240e+06
  -1.958645e+06  -6.732601e+06
   3.906231e+06  -2.951761e+06
   5.806269e+06   1.789216e+06
   2.617792e+06   3.927047e+06
  -2.752629e+06   2.421273e+06
  -5.055785e+06  -1.093858e+06
  -2.141386e+06  -3.077633e+06
   1.940881e+06  -1.518748e+06
   1.909254e+06   1.168552e+06
  -1.536118e+06   9.855020e+05
  -2.761477e+06  -2.061220e+06
   7.870628e+05  -3.914474e+06
   5.275733e+06  -2.091222e+06
   5.945173e+06   1.611129e+06
   2.548459e+06   4.498845e+06
  -2.031287e+06   5.862216e+06
  -5.564989e+06   5.367390e+06
  -6.891937e+06   1.935780e+06
  -5.114542e+06  -3.516149e+06
  -1.033000e+06  -6.870829e+06
   2.136893e+06  -5.282622e+06
   2.009434e+06  -1.291577e+06
   1.538678e+05   3.543678e+05
  -1.143228e+05  -1.057616e+06
   1.711051e+06  -2.011670e+06
   3.094963e+06  -3.200205e+05
   2.254982e+06   2.087267e+06
   5.943101e+04   2.343628e+06
  -1.674691e+06   2.257519e+05
  -1.824947e+06  -2.278398e+06
   8.494266e+02  -3.237924e+06
   3.065208e+06  -1.843133e+06
   4.980375e+06   1.315715e+06
   3.602432e+06   4.203335e+06
  -4.760108e+04   4.748074e+06
  -2.574665e+06   3.052051e+06
  -2.531682e+06   1.257215e+06
  -2.065801e+06   7.253499e+05
  -3.276854e+06   4.860436e+05
  -4.820923e+06  -8.981587e+05
  -3.839168e+06  -3.108127e+06
  -1.021985e+05  -4.577308e+06
   3.582225e+06  -4.295309e+06
   4.628765e+06  -2.333708e+06
   2.945984e+06   4.577598e+05
   3.199924e+05   2.467589e+06
  -1.209503e+06   2.148853e+06
  -6.276353e+05  -3.265384e+04
   1.208948e+06  -1.448925e+06
   2.129110e+06  -4.306266e+05
   1.029716e+06   1.350641e+06
  -5.740032e+05   1.230226e+06
  -4.512618e+05  -4.435262e+05
   1.228607e+06  -7.340584e+05
   2.058098e+06   1.525044e+06
   6.196002e+05   3.936488e+06
  -1.897526e+06   3.744480e+06
  -3.539516e+06   1.115802e+06
  -3.617662e+06  -1.697496e+06
  -2.435104e+06  -3.081657e+06
  -4.545190e+05  -2.873867e+06
   1.381445e+06  -1.607475e+06
   1.745618e+06  -2.450626e+05
   5.469668e+05   5.604836e+04
  -3.891944e+05  -8.415701e+05
   4.839522e+05  -1.499142e+06
   2.148872e+06  -6.259570e+05
   2.264478e+06   1.028921e+06
   4.033936e+05   1.597404e+06
  -1.317704e+06   6.161365e+05
  -9.675440e+05  -5.220660e+05
   9.665018e+05  -5.417426e+05
   2.401347e+06   4.202848e+05
   1.879354e+06   1.535412e+06
  -3.262804e+05   2.161229e+06
  -2.585002e+06   1.787635e+06
  -3.084425e+06   2.632807e+05
  -1.342864e+06  -1.433220e+06
   1.047048e+06  -1.679455e+06
   1.759090e+06  -1.993904e+05
   2.236211e+05   1.215943e+06
  -1.701912e+06   8.075666e+05
  -1.903260e+06  -9.023986e+05
  -3.351801e+05  -1.848848e+06
   1.247486e+06  -1.054669e+06
   1.392376e+06   3.900003e+05
   2.450014e+05   8.843544e+05
  -9.016244e+05   4.826036e+04
  -8.148206e+05  -1.186028e+06
   6.519447e+05  -1.584637e+06
   2.241078e+06  -5.901998e+05
   2.260752e+06   1.188902e+06
   4.042727e+05   2.320376e+06
  -1.632880e+06   1.814637e+06
  -1.930579e+06   2.043558e+05
  -5.396848e+05  -9.802312e+05
   7.499321e+05  -8.813376e+05
   6.940591e+05  -7.745621e+04
  -1.492585e+05   3.785690e+05
  -5.336571e+05   2.013262e+05
  -9.832904e+04  -7.104827e+04
   5.195099e+05   1.217659e+05
   5.586953e+05   7.817812e+05
  -2.635454e+05   1.325297e+06
  -1.558182e+06   9.753530e+05
  -2.314228e+06  -4.901153e+05
  -1.610394e+06  -2.183585e+06
   2.695005e+05  -2.687867e+06
   1.812777e+06  -1.535074e+06
   1.861927e+06   1.758342e+05
   9.153386e+05   9.933539e+05
   3.338979e+05   6.894753e+05
   5.476348e+05   2.233698e+05
   7.200082e+05   3.636656e+05
   9.688019e+04   8.680260e+05
  -9.948466e+05   9.876566e+05
  -1.611274e+06   3.290356e+05
  -1.139198e+06  -8.130222e+05
   3.104448e+05  -1.599829e+06
   1.927636e+06  -1.156179e+06
   2.486756e+06   5.702830e+05
   1.223284e+06   2.356081e+06
  -1.172725e+06   2.623505e+06
  -2.858455e+06   1.103151e+06
  -2.599093e+06  -7.854041e+05
  -1.016258e+06  -1.504411e+06
   2.593946e+05  -1.024310e+06
   4.220019e+05  -5.374003e+05
   6.136509e+04  -8.381934e+05
   1.116626e+05  -1.473327e+06
   7.655452e+05  -1.442674e+06
   1.453863e+06  -3.461681e+05
   1.481932e+06   1.214191e+06
   6.018752e+05   2.112664e+06
  -7.043269e+05   1.592318e+06
  -1.428453e+06  -2.161582e+04
  -8.835615e+05  -1.448249e+06
   4.675229e+05  -1.551719e+06
   1.319377e+06  -4.186049e+05
   8.987101e+05   8.164581e+05
  -1.701121e+05   1.214202e+06
  -6.337410e+05   8.618562e+05
  -1.113438e+05   4.512297e+05
   4.836853e+05   3.715291e+05
   6.609507e+04   4.243144e+05
  -1.290567e+06   2.179714e+05
  -2.306454e+06  -3.973333e+05
  -1.789136e+06  -1.181149e+06
   7.482020e+04  -1.610900e+06
   1.801678e+06  -1.259405e+06
   2.049601e+06  -2.761714e+05
   9.168127e+05   5.836466e+05
  -3.056754e+05   6.423175e+05
  -5.768136e+05   2.232190e+04
  -3.836535e+04  -4.834748e+05
   4.867998e+05  -2.877232e+05
   5.359706e+05   3.842201e+05
   2.950679e+05   8.003159e+05
   1.211688e+05   5.319739e+05
   1.520493e+05  -9.027311e+04
   2.989444e+05  -3.048833e+05
   3.004299e+05   2.636477e+05
  -1.565540e+05   1.088980e+06
  -1.011187e+06   1.182277e+06
  -1.541183e+06   1.981137e+05
  -9.653804e+05  -1.023169e+06
   4.707128e+05  -1.284615e+06
   1.416419e+06  -3.868535e+05
   8.152654e+05   6.363551e+05
  -7.932952e+05   7.107223e+05
  -1.756717e+06  -1.352728e+05
  -1.080190e+06  -9.775929e+05
   5.718246e+05  -1.077067e+06
   1.666877e+06  -4.841603e+05
   1.348799e+06   2.430981e+05
   1.314949e+05   5.680018e+05
  -7.286722e+05   2.815157e+05
  -4.334650e+05  -3.383963e+05
   6.426564e+05  -5.896611e+05
   1.318968e+06   7.766334e+04
   7.650916e+05   1.308083e+06
  -6.358064e+05   1.903127e+06
  -1.641847e+06   9.979353e+05
  -1.395877e+06  -8.384334e+05
  -2.201216e+05  -1.988258e+06
   8.311244e+05  -1.420228e+06
   1.022978e+06   2.210293e+05
   4.520047e+05   1.331618e+06
  -2.767760e+05   1.062000e+06
  -6.337710e+05   7.866506e+04
  -4.965852e+05  -4.185714e+05
  -1.592482e+05  -1.470989e+05
  -6.314534e+04   9.896714e+04
  -3.412206e+05  -3.451291e+05
  -5.734083e+05  -1.084357e+06
  -1.787967e+05  -1.195807e+06
   8.284429e+05  -4.301887e+05
   1.633418e+06   5.243509e+05
   1.392936e+06   9.378017e+05
   1.988457e+05   7.837539e+05
  -9.273250e+05   4.655347e+05
  -1.086720e+06   1.889770e+05
  -4.217180e+05  -7.525140e+04
   1.531041e+05  -2.532548e+05
   6.987459e+04  -2.133081e+05
  -2.628636e+05  -8.843664e+04
  -6.881513e+04  -1.464100e+05
   7.022299e+05  -2.750641e+05
   1.170286e+06   2.553303e+03
   5.312177e+05   7.768361e+05
  -9.049339e+05   1.333535e+06
  -1.916085e+06   8.698234e+05
  -1.615687e+06  -4.591433e+05
  -3.229631e+05  -1.560666e+06
   8.615658e+05  -1.546141e+06
   1.169544e+06  -6.260696e+05
   7.262472e+05   2.376538e+05
   1.652995e+05   3.998742e+05
  -4.794943e+04   9.531752e+04
   1.017058e+05   5.164125e+03
   3.191321e+05   4.199466e+05
   2.631405e+05   9.005785e+05
  -1.902218e+05   7.656963e+05
  -7.530383e+05  -1.071617e+05
  -8.505732e+05  -1.032923e+06
  -1.751834e+05  -1.153732e+06
   8.160887e+05  -3.164336e+05
   1.170537e+06   7.637568e+05
   4.195834e+05   1.214808e+06
  -7.849809e+05   7.874435e+05
  -1.266080e+06  -6.551256e+04
  -6.174617e+05  -7.048726e+05
   3.185147e+05  -7.916041e+05
   4.511292e+05  -4.203781e+05
  -2.424443e+05   4.669595e+03
  -7.151706e+05   5.360132e+04
  -1.771940e+05  -3.491792e+05
   9.164088e+05  -7.572247e+05
   1.430027e+06  -5.840072e+05
   8.850267e+05   2.202060e+05
  -9.874217e+04   9.837489e+05
  -6.402839e+05   9.723114e+05
  -5.081206e+05   2.083511e+05
  -8.201174e+04  -5.197048e+05
   2.568862e+05  -5.064008e+05
   3.920187e+05   1.300222e+05
   2.931103e+05   6.406177e+05
  -4.681317e+04   5.059041e+05
  -4.379077e+05  -3.248584e+04
  -5.438312e+05  -3.312655e+05
  -2.714948e+05  -1.254552e+05
   5.558131e+04   1.922069e+05
   9.297385e+04   9.945130e+04
  -6.113283e+04  -3.736473e+05
  -1.274176e+04  -6.496639e+05
   3.334750e+05  -3.058534e+05
   5.580602e+05   3.800232e+05
   2.391571e+05   7.159642e+05
  -4.355472e+05   3.713812e+05
  -7.661560e+05  -2.829284e+05
  -3.062637e+05  -6.237854e+05
   5.722980e+05  -4.179576e+05
   1.005270e+06   5.989256e+04
   5.484628e+05   4.153824e+05
  -3.234563e+05   4.748559e+05
  -7.196194e+05   2.923178e+05
  -3.056539e+05   2.856242e+04
   3.484247e+05  -1.075365e+05
   4.409451e+05   2.846607e+04
  -1.536230e+05   3.042122e+05
  -7.758847e+05   3.130155e+05
