
 $NMID
 id='ANONYMOUS ', fmtdat='(2E16.6)'
 volume=1.0
 tramp=1.0
 $END
   4.963323e+07   2.018626e+06
   2.873001e+07   3.173193e+07
  -7.721189e+06   3.328467e+07
  -2.478560e+07   1.218575e+07
  -1.442100e+07  -6.528383e+06
   3.123807e+06  -8.166658e+06
   8.696924e+06   1.234854e+06
   2.285675e+06   8.710854e+06
  -5.708164e+06   8.216104e+06
  -8.625898e+06   1.563324e+06
  -6.013451e+06  -5.765546e+06
  -4.118831e+05  -7.725019e+06
   3.675227e+06  -2.273762e+06
   2.182359e+06   5.025198e+06
  -3.546703e+06   5.789313e+06
  -6.943777e+06  -1.394551e+06
  -3.617904e+06  -9.187404e+06
   3.736747e+06  -1.032369e+07
   9.145547e+06  -4.850853e+06
   9.453252e+06   2.242252e+06
   5.507322e+06   6.849325e+06
   2.605671e+05   7.578596e+06
  -2.708078e+06   5.164845e+06
  -1.574827e+06   2.366166e+06
   9.942496e+05   2.112722e+06
   1.847479e+04   3.838292e+06
  -5.088987e+06   3.705245e+06
  -8.696546e+06   1.548260e+04
  -6.110496e+06  -3.983757e+06
   4.963677e+04  -4.514149e+06
   3.505243e+06  -2.092054e+06
   2.203215e+06   1.920354e+05
  -7.185956e+05   9.036408e+05
  -2.213421e+06   3.148454e+05
  -1.926261e+06  -1.500417e+06
  -3.723314e+05  -3.620143e+06
   1.796679e+06  -3.320619e+06
   2.793221e+06   2.929145e+05
   1.294226e+06   3.277496e+06
  -7.528795e+05   1.567787e+06
  -1.485315e+05  -2.302682e+06
   2.308792e+06  -2.007047e+06
   2.094317e+06   2.901806e+06
  -2.274695e+06   5.350371e+06
  -6.081362e+06   6.947255e+05
  -4.265005e+06  -6.244238e+06
   1.936088e+06  -7.439402e+06
   6.640663e+06  -1.879732e+06
   6.070152e+06   4.193486e+06
   1.495427e+06   5.467647e+06
  -3.201538e+06   2.357566e+06
  -4.712538e+06  -1.505939e+06
  -2.117727e+06  -3.203218e+06
   2.194141e+06  -1.910968e+06
   4.007849e+06   9.437405e+05
   1.672244e+06   2.476443e+06
  -1.564641e+06   1.170524e+06
  -1.553713e+06  -9.761460e+05
   1.153294e+06  -8.325298e+05
   2.165487e+06   1.539866e+06
  -5.473809e+05   2.973109e+06
  -4.066174e+06   1.561802e+06
  -4.646764e+06  -1.311398e+06
  -1.947538e+06  -3.574409e+06
   1.820918e+06  -4.621856e+06
   4.714008e+06  -4.123594e+06
   5.619795e+06  -1.290142e+06
   3.937147e+06   3.025232e+06
   5.873200e+05   5.571149e+06
  -1.815280e+06   4.238504e+06
  -1.603945e+06   1.107810e+06
  -1.968878e+05  -1.575465e+05
  -1.261532e+05   8.942555e+05
  -1.601936e+06   1.495189e+06
  -2.574430e+06   2.040881e+04
  -1.734644e+06  -1.908776e+06
   1.194399e+05  -1.992266e+06
   1.486374e+06  -1.120838e+05
   1.474487e+06   2.004035e+06
  -1.295958e+05   2.691994e+06
  -2.588130e+06   1.365114e+06
  -3.967766e+06  -1.284496e+06
  -2.713014e+06  -3.502015e+06
   2.067795e+05  -3.752071e+06
   2.115774e+06  -2.318149e+06
   2.009109e+06  -9.428369e+05
   1.664907e+06  -5.780633e+05
   2.692563e+06  -3.513945e+05
   3.934755e+06   8.421766e+05
   3.079684e+06   2.652239e+06
  -3.633141e+04   3.782161e+06
  -3.095909e+06   3.442921e+06
  -3.921189e+06   1.754658e+06
  -2.409671e+06  -5.221489e+05
  -1.293584e+05  -2.067943e+06
   1.113237e+06  -1.714440e+06
   5.153759e+05   6.544220e+04
  -1.058029e+06   1.155120e+06
  -1.760038e+06   2.913700e+05
  -7.865948e+05  -1.136126e+06
   5.309073e+05  -1.008633e+06
   4.031905e+05   3.698423e+05
  -9.743316e+05   6.366342e+05
  -1.659704e+06  -1.175986e+06
  -5.241865e+05  -3.179202e+06
   1.513348e+06  -3.108638e+06
   2.903786e+06  -9.803675e+05
   3.020986e+06   1.416160e+06
   2.024321e+06   2.643032e+06
   3.223528e+05   2.441127e+06
  -1.209701e+06   1.296203e+06
  -1.466992e+06   1.373985e+05
  -4.523906e+05  -6.340048e+04
   3.018619e+05   7.054651e+05
  -4.245645e+05   1.212767e+06
  -1.765947e+06   4.597732e+05
  -1.835926e+06  -8.847742e+05
  -3.096944e+05  -1.314038e+06
   1.098092e+06  -4.879086e+05
   8.123295e+05   4.513081e+05
  -7.941340e+05   4.592852e+05
  -2.006898e+06  -3.659130e+05
  -1.572766e+06  -1.321783e+06
   2.995427e+05  -1.820963e+06
   2.197387e+06  -1.440869e+06
   2.570621e+06  -1.417286e+05
   1.071388e+06   1.211879e+06
  -9.027178e+05   1.341384e+06
  -1.437509e+06   1.123098e+05
  -1.397988e+05  -9.990544e+05
   1.425302e+06  -6.182911e+05
   1.555539e+06   7.858533e+05
   2.532606e+05   1.539518e+06
  -1.042048e+06   8.679828e+05
  -1.153402e+06  -3.282402e+05
  -2.061550e+05  -7.297521e+05
   7.293897e+05  -2.386273e+04
   6.347965e+05   9.953054e+05
  -5.877089e+05   1.285584e+06
  -1.870808e+06   4.161477e+05
  -1.832091e+06  -1.051347e+06
  -2.697964e+05  -1.928136e+06
   1.393618e+06  -1.457716e+06
   1.603224e+06  -1.257715e+05
   4.336303e+05   8.233359e+05
  -6.386832e+05   7.193954e+05
  -5.935048e+05   4.617476e+04
   1.183182e+05  -3.344151e+05
   4.655863e+05  -1.796514e+05
   1.209516e+05   6.666743e+04
  -4.035549e+05  -8.065415e+04
  -4.512438e+05  -6.333734e+05
   2.350486e+05  -1.083064e+06
   1.308733e+06  -7.682717e+05
   1.900919e+06   4.666641e+05
   1.269791e+06   1.851356e+06
  -3.004327e+05   2.225508e+06
  -1.550564e+06   1.241510e+06
  -1.559739e+06  -1.839626e+05
  -7.607709e+05  -8.707937e+05
  -2.651025e+05  -6.291133e+05
  -4.216521e+05  -2.294724e+05
  -5.556692e+05  -3.104016e+05
  -4.943953e+04  -7.016571e+05
   8.439398e+05  -7.929443e+05
   1.348546e+06  -2.398028e+05
   9.391429e+05   7.123196e+05
  -2.903456e+05   1.339646e+06
  -1.632032e+06   9.191386e+05
  -2.053498e+06  -5.382400e+05
  -9.622537e+05  -1.981463e+06
   1.021954e+06  -2.139555e+06
   2.382951e+06  -8.510454e+05
   2.144932e+06   6.993310e+05
   8.353802e+05   1.275416e+06
  -2.254286e+05   8.717648e+05
  -3.863527e+05   4.602425e+05
  -1.127999e+05   6.890341e+05
  -1.531459e+05   1.194677e+06
  -6.691043e+05   1.156807e+06
  -1.202894e+06   2.399940e+05
  -1.188123e+06  -1.051153e+06
  -4.357184e+05  -1.770115e+06
   6.326180e+05  -1.300380e+06
   1.186253e+06   5.286469e+04
   6.985388e+05   1.213860e+06
  -4.128396e+05   1.271439e+06
  -1.084050e+06   3.322401e+05
  -7.192273e+05  -6.679396e+05
   1.516447e+05  -9.825220e+05
   5.194330e+05  -7.008146e+05
   9.294608e+04  -3.837391e+05
  -3.835820e+05  -3.291654e+05
  -3.773980e+04  -3.561299e+05
   1.065261e+06  -1.466411e+05
   1.884449e+06   3.897869e+05
   1.448574e+06   1.019537e+06
  -8.857620e+04   1.318486e+06
  -1.506781e+06   9.861804e+05
  -1.699477e+06   1.845358e+05
  -7.510108e+05  -4.846995e+05
   2.618876e+05  -5.117660e+05
   4.720209e+05  -1.191107e+04
   8.946782e+03   3.868093e+05
  -4.214027e+05   2.189929e+05
  -4.299428e+05  -3.357368e+05
  -2.013515e+05  -6.779231e+05
  -6.690848e+04  -4.460043e+05
  -1.311763e+05   8.267326e+04
  -2.705337e+05   2.593789e+05
  -2.431008e+05  -2.247499e+05
   1.720663e+05  -9.029807e+05
   8.709948e+05  -9.455024e+05
   1.259518e+06  -1.063232e+05
   7.472443e+05   8.767114e+05
  -4.278796e+05   1.032818e+06
  -1.172596e+06   2.601177e+05
  -6.539145e+05  -5.583665e+05
   6.743391e+05  -5.699575e+05
   1.462041e+06   1.536039e+05
   8.926471e+05   8.381510e+05
  -4.878273e+05   8.927619e+05
  -1.402709e+06   3.796875e+05
  -1.129444e+06  -2.270483e+05
  -1.025323e+05  -4.798470e+05
   6.104394e+05  -2.220742e+05
   3.437806e+05   2.867110e+05
  -5.590469e+05   4.605255e+05
  -1.089642e+06  -1.179102e+05
  -5.778465e+05  -1.115412e+06
   6.059722e+05  -1.552433e+06
   1.403236e+06  -7.649401e+05
   1.132430e+06   7.464813e+05
   1.192325e+05   1.662818e+06
  -7.341837e+05   1.164991e+06
  -8.469404e+05  -2.022866e+05
  -3.484187e+05  -1.118186e+06
   2.450756e+05  -8.834717e+05
   5.235282e+05  -5.358688e+04
   4.119749e+05   3.653867e+05
   1.414493e+05   1.312410e+05
   5.045005e+04  -8.489013e+04
   2.540222e+05   2.872102e+05
   4.368360e+05   9.142063e+05
   1.291290e+05   1.002755e+06
  -6.827708e+05   3.360928e+05
  -1.344542e+06  -4.858582e+05
  -1.144684e+06  -8.219903e+05
  -1.431609e+05  -6.539965e+05
   7.984857e+05  -3.565120e+05
   9.139845e+05  -1.289220e+05
   3.367679e+05   6.715774e+04
  -1.404164e+05   2.044789e+05
  -4.911401e+04   1.836444e+05
   2.321415e+05   9.091261e+04
   4.588257e+04   1.241235e+05
  -6.097832e+05   1.992705e+05
  -9.693403e+05  -4.408723e+04
  -3.915184e+05  -6.584349e+05
   8.099304e+05  -1.068041e+06
   1.607121e+06  -6.488335e+05
   1.305513e+06   4.423881e+05
   2.110896e+05   1.309081e+06
  -7.602785e+05   1.250225e+06
  -9.901536e+05   4.704398e+05
  -5.972253e+05  -2.299475e+05
  -1.171110e+05  -3.364304e+05
   5.708466e+04  -6.716160e+04
  -7.903886e+04   3.963137e+03
  -2.594043e+05  -3.537900e+05
  -1.966050e+05  -7.559531e+05
   1.855683e+05  -6.259772e+05
   6.246734e+05   1.243801e+05
   6.626602e+05   8.959120e+05
   8.972222e+04   9.614937e+05
  -6.975730e+05   2.200975e+05
  -9.412119e+05  -6.871733e+05
  -2.977115e+05  -1.021224e+06
   6.799327e+05  -6.157199e+05
   1.040568e+06   1.005065e+05
   4.803223e+05   5.938620e+05
  -2.887039e+05   6.316941e+05
  -3.745273e+05   3.310696e+05
   2.160378e+05   1.041411e+04
   5.991385e+05  -1.832761e+04
   1.304665e+05   2.927577e+05
  -7.857019e+05   6.006573e+05
  -1.194085e+06   4.493502e+05
  -7.132158e+05  -2.000396e+05
   1.155063e+05  -8.076810e+05
   5.506188e+05  -7.803915e+05
   4.137916e+05  -1.457968e+05
   4.286918e+04   4.400602e+05
  -2.326698e+05   4.037212e+05
  -3.216099e+05  -1.341433e+05
  -2.199199e+05  -5.419769e+05
   5.895773e+04  -4.062712e+05
   3.617854e+05   4.726254e+04
   4.361237e+05   2.837258e+05
   2.212817e+05   1.049750e+05
  -3.337357e+04  -1.508208e+05
  -7.416747e+04  -6.418475e+04
   1.977314e+04   3.203223e+05
  -3.685967e+04   5.246312e+05
  -2.949339e+05   2.183824e+05
  -4.325862e+05  -3.495780e+05
  -1.508878e+05  -6.039017e+05
   3.806184e+05  -2.868502e+05
   6.172630e+05   2.692568e+05
   2.262208e+05   5.331976e+05
  -4.849769e+05   3.257450e+05
  -8.242900e+05  -8.929525e+04
  -4.373379e+05  -3.634406e+05
   2.842045e+05  -3.733540e+05
   6.033949e+05  -2.063077e+05
   2.442951e+05  -1.141700e+04
  -3.073028e+05   6.661767e+04
  -3.706638e+05  -5.352506e+04
   1.499130e+05  -2.561331e+05
   6.744014e+05  -2.327615e+05
