
 $NMID
 id='ANONYMOUS ', fmtdat='(2E16.6)'
 volume=1.0
 tramp=1.0
 $END
   4.019462e+07   3.446848e+06
   2.273824e+07   2.467663e+07
  -5.814545e+06   2.588543e+07
  -1.944633e+07   1.101235e+07
  -1.206770e+07  -3.440792e+06
   1.692735e+06  -6.525330e+06
   7.140542e+06  -2.466611e+05
   2.904181e+06   6.746073e+06
  -3.838799e+06   7.797626e+06
  -7.082712e+06   2.180181e+06
  -5.241596e+06  -5.065123e+06
  -2.817863e+05  -7.044010e+06
   3.416994e+06  -1.714465e+06
   2.176002e+06   5.126691e+06
  -2.781603e+06   5.753357e+06
  -5.883364e+06  -7.374634e+05
  -3.276406e+06  -7.711150e+06
   3.017559e+06  -8.767969e+06
   7.745601e+06  -3.847758e+06
   7.703001e+06   2.439809e+06
   3.785303e+06   5.946697e+06
  -5.145450e+05   5.649195e+06
  -1.854087e+06   3.354726e+06
   1.290134e+05   2.009251e+06
   1.925333e+06   3.021117e+06
  -3.327978e+05   4.497322e+06
  -5.680230e+06   3.304972e+06
  -8.514901e+06  -7.189991e+05
  -5.257126e+06  -4.138069e+06
   9.719087e+05  -4.061957e+06
   4.095977e+06  -1.321646e+06
   2.107286e+06   1.207921e+06
  -1.682527e+06   1.755279e+06
  -3.379939e+06   2.313549e+05
  -2.178329e+06  -2.426697e+06
   3.092027e+05  -4.119416e+06
   2.095644e+06  -2.668795e+06
   1.942812e+06   1.081467e+06
   2.363989e+05   2.924630e+06
  -8.798414e+05   4.257426e+05
   2.712328e+05  -2.998172e+06
   2.290044e+06  -2.180860e+06
   1.954555e+06   2.297648e+06
  -1.379350e+06   4.319024e+06
  -4.270210e+06   5.268566e+05
  -3.120147e+06  -4.951395e+06
   1.511420e+06  -5.850613e+06
   5.555564e+06  -1.393226e+06
   5.630143e+06   3.655649e+06
   1.829005e+06   4.992514e+06
  -2.799806e+06   2.540002e+06
  -4.680628e+06  -9.300688e+05
  -2.457162e+06  -2.705057e+06
   1.598669e+06  -1.787766e+06
   3.465428e+06   6.054558e+05
   1.600805e+06   1.965492e+06
  -1.280375e+06   1.002494e+06
  -1.622459e+06  -7.883745e+05
   5.065435e+05  -1.001880e+06
   1.796643e+06   5.639308e+05
   1.828825e+05   1.848717e+06
  -2.694332e+06   1.305983e+06
  -3.747369e+06  -6.399788e+05
  -1.786008e+06  -2.779891e+06
   1.853547e+06  -4.155851e+06
   4.844649e+06  -3.732385e+06
   5.408874e+06  -8.486652e+05
   3.329641e+06   3.157118e+06
   2.854716e+05   5.283850e+06
  -1.415146e+06   4.085566e+06
  -1.121090e+06   1.561470e+06
  -4.226340e+05   5.790989e+05
  -9.790458e+05   1.221338e+06
  -2.390016e+06   1.176094e+06
  -2.890520e+06  -6.577347e+05
  -1.626641e+06  -2.586419e+06
   5.223146e+05  -2.405352e+06
   2.003718e+06  -7.773343e+04
   1.755707e+06   2.371593e+06
  -2.565365e+05   2.920288e+06
  -2.766387e+06   1.146466e+06
  -3.739509e+06  -1.628837e+06
  -2.205686e+06  -3.419147e+06
   4.333409e+05  -3.210801e+06
   1.845280e+06  -1.816302e+06
   1.581234e+06  -8.362202e+05
   1.432768e+06  -7.623381e+05
   2.675340e+06  -5.837269e+05
   4.037749e+06   6.762367e+05
   3.254684e+06   2.632940e+06
   5.734169e+04   3.966225e+06
  -3.280355e+06   3.673969e+06
  -4.269559e+06   1.747027e+06
  -2.527966e+06  -7.958932e+05
   1.170752e+05  -2.312853e+06
   1.392745e+06  -1.727254e+06
   5.253697e+05   1.642072e+05
  -1.192764e+06   1.194178e+06
  -1.783222e+06   2.828705e+05
  -6.993945e+05  -1.157733e+06
   6.335919e+05  -1.091460e+06
   5.923354e+05   3.259268e+05
  -7.062558e+05   9.101711e+05
  -1.662642e+06  -5.972306e+05
  -1.078005e+06  -2.831873e+06
   7.660055e+05  -3.457221e+06
   2.670227e+06  -1.745257e+06
   3.486807e+06   9.594844e+05
   2.646434e+06   2.774638e+06
   5.541584e+05   2.779986e+06
  -1.341509e+06   1.441662e+06
  -1.624376e+06   1.189532e+05
  -4.832158e+05  -5.898901e+04
   3.372435e+05   7.348665e+05
  -3.735363e+05   1.207814e+06
  -1.727403e+06   4.861957e+05
  -1.873208e+06  -7.889739e+05
  -3.996595e+05  -1.273858e+06
   1.111382e+06  -5.672139e+05
   9.670748e+05   4.331449e+05
  -7.342505e+05   6.624559e+05
  -2.253019e+06  -1.128024e+05
  -1.964195e+06  -1.325875e+06
   1.167080e+05  -2.099611e+06
   2.311855e+06  -1.723770e+06
   2.751878e+06  -2.524268e+05
   1.137388e+06   1.202392e+06
  -8.997099e+05   1.328871e+06
  -1.403945e+06   1.020073e+05
  -9.019087e+04  -9.995477e+05
   1.477751e+06  -6.528172e+05
   1.665616e+06   7.419025e+05
   4.075417e+05   1.594789e+06
  -9.756496e+05   1.037612e+06
  -1.238793e+06  -1.820272e+05
  -3.251028e+05  -7.048305e+05
   7.037747e+05  -4.579635e+04
   6.571754e+05   1.033455e+06
  -6.373736e+05   1.359491e+06
  -1.998283e+06   4.346202e+05
  -1.945956e+06  -1.108387e+06
  -3.177457e+05  -2.022842e+06
   1.407183e+06  -1.565305e+06
   1.671823e+06  -2.088009e+05
   5.184229e+05   8.293618e+05
  -6.317130e+05   7.998379e+05
  -6.914057e+05   6.445363e+04
   4.965919e+04  -4.623714e+05
   5.665350e+05  -3.319440e+05
   3.211970e+05   7.236946e+04
  -3.117964e+05   6.994991e+04
  -5.314375e+05  -5.252659e+05
   1.366165e+05  -1.121667e+06
   1.338490e+06  -8.665462e+05
   2.029434e+06   4.399254e+05
   1.381254e+06   1.939203e+06
  -2.724433e+05   2.403999e+06
  -1.628022e+06   1.445513e+06
  -1.744383e+06  -8.043139e+04
  -9.769109e+05  -9.702141e+05
  -3.726038e+05  -8.560068e+05
  -3.733939e+05  -3.758331e+05
  -4.692047e+05  -2.953763e+05
  -3.759855e+04  -6.714342e+05
   8.399068e+05  -8.837955e+05
   1.451537e+06  -3.589306e+05
   1.118696e+06   7.492019e+05
  -2.024643e+05   1.535169e+06
  -1.724860e+06   1.096860e+06
  -2.246515e+06  -5.026950e+05
  -1.128247e+06  -2.065407e+06
   9.517854e+05  -2.282987e+06
   2.442121e+06  -1.016568e+06
   2.336425e+06   5.875811e+05
   1.064541e+06   1.314318e+06
  -1.222211e+05   1.047068e+06
  -4.717730e+05   6.296935e+05
  -2.690841e+05   7.510073e+05
  -2.346183e+05   1.193256e+06
  -6.760677e+05   1.169749e+06
  -1.233361e+06   2.471278e+05
  -1.267706e+06  -1.114770e+06
  -4.874700e+05  -1.892427e+06
   6.659932e+05  -1.404572e+06
   1.275868e+06   1.122556e+04
   7.910146e+05   1.231459e+06
  -3.397318e+05   1.346235e+06
  -1.046912e+06   4.536303e+05
  -7.477687e+05  -5.602901e+05
   5.796523e+04  -9.579735e+05
   4.152046e+05  -7.556700e+05
   3.274055e+04  -4.532096e+05
  -3.991284e+05  -3.759396e+05
  -3.469291e+04  -3.949241e+05
   1.091014e+06  -1.876211e+05
   1.959047e+06   3.641994e+05
   1.560691e+06   1.019484e+06
  -3.623118e+03   1.340588e+06
  -1.506600e+06   1.042315e+06
  -1.770722e+06   2.809775e+05
  -8.230437e+05  -3.965891e+05
   2.374521e+05  -4.980053e+05
   4.703610e+05  -5.942084e+04
  -2.365558e+04   3.582788e+05
  -4.823740e+05   2.303782e+05
  -4.547152e+05  -3.551023e+05
  -1.561746e+05  -7.566808e+05
  -9.379130e+03  -4.932189e+05
  -1.390389e+05   1.455162e+05
  -3.336594e+05   3.575697e+05
  -2.790400e+05  -2.266721e+05
   2.012954e+05  -1.004344e+06
   9.161118e+05  -1.013481e+06
   1.267627e+06  -6.963032e+04
   7.268726e+05   9.447214e+05
  -4.530370e+05   1.042564e+06
  -1.212735e+06   2.166410e+05
  -7.026013e+05  -6.136205e+05
   6.894173e+05  -6.356719e+05
   1.597218e+06   8.764587e+04
   1.072712e+06   8.441576e+05
  -4.196096e+05   1.018897e+06
  -1.500582e+06   5.469970e+05
  -1.277211e+06  -1.532403e+05
  -1.623364e+05  -5.248406e+05
   6.355592e+05  -2.850679e+05
   3.446924e+05   2.817085e+05
  -6.354165e+05   4.718401e+05
  -1.173993e+06  -1.688133e+05
  -5.722783e+05  -1.230898e+06
   7.158718e+05  -1.661261e+06
   1.546241e+06  -7.969956e+05
   1.231022e+06   8.173005e+05
   1.456311e+05   1.810556e+06
  -7.685877e+05   1.309978e+06
  -9.242084e+05  -1.537566e+05
  -4.444569e+05  -1.186727e+06
   1.796285e+05  -9.847052e+05
   5.408929e+05  -9.086199e+04
   5.002500e+05   3.918452e+05
   2.100351e+05   1.482828e+05
   2.994864e+04  -1.055948e+05
   1.970943e+05   2.818657e+05
   4.550303e+05   9.690861e+05
   2.214565e+05   1.082566e+06
  -6.567382e+05   3.740785e+05
  -1.471357e+06  -5.039127e+05
  -1.310608e+06  -8.603693e+05
  -1.705195e+05  -6.905012e+05
   9.113650e+05  -3.994887e+05
   1.002474e+06  -1.765200e+05
   3.151813e+05   4.278517e+04
  -1.702633e+05   2.202268e+05
   1.747539e+04   2.206664e+05
   3.244819e+05   1.215573e+05
   2.509962e+04   1.422577e+05
  -7.325545e+05   2.067850e+05
  -1.041467e+06  -6.116072e+04
  -3.279647e+05  -7.116565e+05
   9.356356e+05  -1.128395e+06
   1.691930e+06  -6.557412e+05
   1.335301e+06   5.190800e+05
   2.121528e+05   1.427232e+06
  -7.980251e+05   1.329441e+06
  -1.071666e+06   4.682832e+05
  -6.614519e+05  -2.806298e+05
  -9.918715e+04  -3.660181e+05
   1.249091e+05  -4.252547e+04
  -5.692650e+04   4.638240e+04
  -3.098391e+05  -3.554525e+05
  -2.428932e+05  -8.100026e+05
   2.128937e+05  -6.639540e+05
   6.942818e+05   1.740874e+05
   6.862973e+05   1.013467e+06
   2.768401e+04   1.040939e+06
  -8.003143e+05   1.840650e+05
  -1.006085e+06  -7.992612e+05
  -2.822193e+05  -1.104148e+06
   7.495691e+05  -6.212038e+05
   1.094824e+06   1.287106e+05
   4.771463e+05   6.021438e+05
  -3.146549e+05   6.243957e+05
  -3.537254e+05   3.363132e+05
   2.935925e+05   2.340072e+04
   6.632183e+05  -1.466126e+04
   1.202241e+05   3.076030e+05
  -8.445382e+05   6.585713e+05
  -1.231153e+06   5.241149e+05
  -7.059996e+05  -1.774656e+05
   1.309982e+05  -8.496597e+05
   5.455038e+05  -8.122641e+05
   3.956523e+05  -1.080627e+05
   2.067510e+04   5.031953e+05
  -2.660394e+05   4.068652e+05
  -3.586647e+05  -1.946319e+05
  -2.303958e+05  -5.878171e+05
   8.428606e+04  -3.937744e+05
   3.917117e+05   7.349300e+04
   4.472556e+05   2.724487e+05
   2.333584e+05   8.077969e+04
  -3.752794e+03  -1.264617e+05
  -6.608335e+04   1.430417e+04
  -4.477009e+04   3.900924e+05
  -1.499647e+05   5.254621e+05
  -3.655510e+05   1.467425e+05
  -4.079840e+05  -4.494414e+05
  -7.246049e+04  -6.743995e+05
   4.412672e+05  -2.880819e+05
   6.369950e+05   3.308026e+05
   2.206000e+05   6.008505e+05
  -5.092293e+05   3.412914e+05
  -8.624274e+05  -1.251436e+05
  -4.564332e+05  -3.962515e+05
   3.131146e+05  -3.635869e+05
   6.447013e+05  -1.720281e+05
   2.240355e+05   2.484021e+03
  -3.954321e+05   3.839661e+04
  -4.314871e+05  -1.129091e+05
   2.034933e+05  -3.183529e+05
   8.054144e+05  -2.603522e+05
