
 $NMID
 id='ANONYMOUS ', fmtdat='(2E16.6)'
 volume=1.0
 tramp=1.0
 $END
  -2.502442e+07  -1.331026e+06
  -1.614408e+07  -1.173324e+07
   2.645871e+05  -1.535970e+07
   1.073324e+07  -1.069983e+07
   9.189993e+06  -1.620391e+06
   8.098181e+05   4.454436e+06
  -5.129260e+06   2.689718e+06
  -4.192295e+06  -3.931812e+06
   9.458037e+05  -7.351795e+06
   4.777149e+06  -3.391023e+06
   4.185760e+06   3.499106e+06
   4.131343e+05   5.633183e+06
  -2.663986e+06   1.010371e+06
  -2.087909e+06  -4.861423e+06
   1.490284e+06  -5.584401e+06
   4.326696e+06  -5.814990e+05
   3.200229e+06   5.107256e+06
  -1.239224e+06   6.417260e+06
  -5.013302e+06   2.858451e+06
  -4.900294e+06  -1.831620e+06
  -1.715850e+06  -3.774562e+06
   7.698108e+05  -2.576586e+06
   4.244288e+04  -1.108624e+06
  -2.410499e+06  -1.894496e+06
  -2.758866e+06  -4.162823e+06
   8.409558e+05  -4.902590e+06
   5.822907e+06  -2.514939e+06
   7.473533e+06   1.360461e+06
   3.841553e+06   3.688338e+06
  -1.863842e+06   2.964410e+06
  -4.313299e+06   1.686373e+05
  -1.570510e+06  -2.336929e+06
   2.990493e+06  -2.456606e+06
   4.569186e+06   1.642130e+05
   2.095876e+06   3.439052e+06
  -1.223587e+06   4.235479e+06
  -2.071334e+06   1.588325e+06
  -5.081498e+05  -1.717447e+06
   9.558023e+05  -1.955092e+06
   6.303429e+05   1.061087e+06
  -9.201963e+05   3.536271e+06
  -2.097655e+06   2.291694e+06
  -1.857254e+06  -1.293419e+06
  -2.437521e+05  -3.007828e+06
   1.620749e+06  -9.083134e+05
   1.949801e+06   2.559207e+06
  -2.595962e+05   3.588579e+06
  -3.607950e+06   1.127678e+06
  -4.908585e+06  -2.454491e+06
  -2.364491e+06  -4.086809e+06
   2.096357e+06  -2.761398e+06
   4.491266e+06   3.324302e+04
   2.894811e+06   1.936576e+06
  -6.816711e+05   1.713393e+06
  -2.652262e+06   8.649198e+04
  -1.575470e+06  -1.139861e+06
   7.728153e+05  -8.330780e+05
   1.662165e+06   4.899319e+05
   3.032588e+05   1.350733e+06
  -1.509278e+06   8.448915e+05
  -1.457954e+06  -5.251965e+05
   6.696006e+05  -1.358196e+06
   2.549189e+06  -5.965385e+05
   1.743370e+06   1.487087e+06
  -1.524514e+06   3.282882e+06
  -4.443805e+06   3.020923e+06
  -4.586537e+06   4.078630e+05
  -2.342842e+06  -2.835820e+06
  -7.562591e+04  -4.433436e+06
   6.824822e+05  -3.732216e+06
   5.314995e+05  -2.169270e+06
   8.697290e+05  -1.394066e+06
   2.038023e+06  -1.313963e+06
   3.083610e+06  -5.178179e+05
   2.895587e+06   1.488276e+06
   1.229924e+06   3.187871e+06
  -1.067370e+06   2.647852e+06
  -2.505365e+06  -8.286587e+04
  -1.926008e+06  -2.713668e+06
   4.071641e+05  -2.965929e+06
   2.702979e+06  -7.920327e+05
   3.108270e+06   1.797111e+06
   1.496383e+06   2.863562e+06
  -4.601329e+05   2.229018e+06
  -1.176778e+06   1.163870e+06
  -8.690812e+05   7.970589e+05
  -1.067841e+06   1.037961e+06
  -2.509697e+06   9.007684e+05
  -3.930664e+06  -3.538221e+05
  -3.296382e+06  -2.391325e+06
  -2.053004e+05  -3.932187e+06
   3.254869e+06  -3.712780e+06
   4.352474e+06  -1.597484e+06
   2.429433e+06   1.066791e+06
  -4.421955e+05   2.384412e+06
  -1.615780e+06   1.561533e+06
  -4.788553e+05  -2.752373e+05
   1.264931e+06  -1.146427e+06
   1.681339e+06  -2.804633e+05
   5.568227e+05   1.066130e+06
  -7.279884e+05   1.102366e+06
  -8.164879e+05  -2.945541e+05
   3.796153e+05  -1.291579e+06
   1.736330e+06  -2.172903e+05
   1.864442e+06   2.325670e+06
   2.022367e+05   3.881604e+06
  -2.367624e+06   2.708577e+06
  -3.968049e+06  -3.759076e+05
  -3.252049e+06  -2.862934e+06
  -7.650880e+05  -3.057565e+06
   1.418802e+06  -1.505964e+06
   1.693902e+06  -7.190847e+04
   4.875676e+05   4.966022e+04
  -3.668229e+05  -7.232980e+05
   2.538420e+05  -1.141182e+06
   1.554033e+06  -5.352707e+05
   1.834415e+06   5.852240e+05
   5.238138e+05   1.157378e+06
  -1.065124e+06   6.530818e+05
  -1.115926e+06  -4.042381e+05
   6.449332e+05  -9.115801e+05
   2.475812e+06  -1.988450e+05
   2.344695e+06   1.303812e+06
   8.828816e+04   2.354938e+06
  -2.332225e+06   1.971723e+06
  -2.805943e+06   3.777637e+05
  -1.164631e+06  -1.100783e+06
   8.009938e+05  -1.237581e+06
   1.256824e+06  -1.191772e+05
   4.275129e+04   9.150843e+05
  -1.434766e+06   6.676311e+05
  -1.714433e+06  -6.304391e+05
  -5.894858e+05  -1.588956e+06
   8.534995e+05  -1.219025e+06
   1.309274e+06  -1.462029e+04
   4.765621e+05   6.577985e+05
  -6.290299e+05   1.016483e+05
  -6.564939e+05  -9.942451e+05
   6.379487e+05  -1.354906e+06
   2.005264e+06  -4.375362e+05
   1.954706e+06   1.086818e+06
   3.717648e+05   2.001009e+06
  -1.320016e+06   1.612425e+06
  -1.657376e+06   3.102483e+05
  -6.026221e+05  -7.964532e+05
   5.875951e+05  -8.625667e+05
   7.743422e+05  -6.707584e+04
   1.695904e+04   6.177510e+05
  -6.906289e+05   4.886228e+05
  -5.549249e+05  -1.245637e+05
   2.109892e+05  -2.923379e+05
   6.361452e+05   3.563463e+05
   1.494903e+04   1.116091e+06
  -1.282391e+06   9.479522e+05
  -2.057453e+06  -3.635204e+05
  -1.436824e+06  -1.906126e+06
   2.177238e+05  -2.464145e+06
   1.636024e+06  -1.607504e+06
   1.880609e+06  -3.719869e+04
   1.164860e+06   1.069609e+06
   4.258892e+05   1.103969e+06
   2.449051e+05   5.078310e+05
   3.345886e+05   2.128821e+05
   4.525667e+04   5.729158e+05
  -7.750690e+05   9.494585e+05
  -1.494933e+06   4.859309e+05
  -1.264520e+06  -7.639402e+05
   9.837202e+04  -1.695287e+06
   1.737622e+06  -1.251197e+06
   2.343304e+06   4.251863e+05
   1.277686e+06   2.041599e+06
  -7.812845e+05   2.339198e+06
  -2.362390e+06   1.189572e+06
  -2.453614e+06  -4.084730e+05
  -1.293687e+06  -1.314020e+06
   1.330496e+04  -1.226963e+06
   5.836079e+05  -7.811039e+05
   4.496424e+05  -7.293349e+05
   2.929789e+05  -1.080630e+06
   6.114439e+05  -1.111222e+06
   1.175727e+06  -2.566298e+05
   1.279266e+06   1.107291e+06
   5.221096e+05   1.910763e+06
  -6.589941e+05   1.436870e+06
  -1.308559e+06   4.442709e+04
  -8.734989e+05  -1.171879e+06
   2.130539e+05  -1.371638e+06
   9.491084e+05  -6.114492e+05
   7.759664e+05   3.712957e+05
   9.725811e+04   8.856895e+05
  -2.500861e+05   8.130118e+05
   3.386845e+04   5.283998e+05
   3.805234e+05   4.012723e+05
   2.465193e+04   4.104679e+05
  -1.047498e+06   2.431638e+05
  -1.919896e+06  -2.793693e+05
  -1.609663e+06  -9.398837e+05
  -1.318585e+05  -1.295613e+06
   1.384366e+06  -1.072045e+06
   1.752793e+06  -4.015864e+05
   8.919142e+05   2.583083e+05
  -1.711564e+05   4.557556e+05
  -4.458490e+05   1.274970e+05
   4.634449e+04  -2.819778e+05
   5.212162e+05  -2.159603e+05
   4.518444e+05   3.503532e+05
   7.688765e+04   7.792388e+05
  -6.946395e+04   4.960706e+05
   1.547659e+05  -2.147137e+05
   4.111941e+05  -4.438691e+05
   3.080787e+05   2.132576e+05
  -2.304343e+05   1.049145e+06
  -8.982360e+05   1.030507e+06
  -1.164801e+06   4.820572e+04
  -6.453867e+05  -9.328392e+05
   4.271013e+05  -9.770923e+05
   1.149677e+06  -1.602436e+05
   7.062278e+05   6.362426e+05
  -6.623192e+05   6.815603e+05
  -1.670474e+06  -4.001425e+03
  -1.237990e+06  -8.208129e+05
   3.175751e+05  -1.133713e+06
   1.552561e+06  -7.221176e+05
   1.396331e+06   6.522903e+04
   2.240858e+05   5.582762e+05
  -6.337058e+05   3.514318e+05
  -3.290703e+05  -2.455186e+05
   6.760741e+05  -4.406412e+05
   1.178936e+06   2.201290e+05
   5.122991e+05   1.268020e+06
  -7.981134e+05   1.652468e+06
  -1.601617e+06   7.648486e+05
  -1.257391e+06  -8.489172e+05
  -1.613935e+05  -1.864999e+06
   7.705885e+05  -1.401194e+06
   9.719137e+05   8.302611e+04
   5.395289e+05   1.204369e+06
  -9.122268e+04   1.065802e+06
  -5.316083e+05   1.401658e+05
  -5.760585e+05  -4.128711e+05
  -2.803831e+05  -1.771204e+05
  -6.310758e+03   1.317825e+05
  -1.179562e+05  -2.287000e+05
  -4.484633e+05  -9.599868e+05
  -3.219417e+05  -1.128203e+06
   5.766260e+05  -4.191906e+05
   1.526406e+06   4.957392e+05
   1.429851e+06   8.677281e+05
   1.969010e+05   6.884700e+05
  -9.903067e+05   4.068847e+05
  -1.050173e+06   2.182794e+05
  -2.721927e+05   7.166421e+03
   1.959866e+05  -2.172410e+05
  -9.380385e+04  -2.731429e+05
  -4.106704e+05  -1.744422e+05
   5.315445e+03  -1.463618e+05
   8.303860e+05  -1.766733e+05
   1.049243e+06   7.686773e+04
   2.204378e+05   6.947626e+05
  -1.017610e+06   1.098383e+06
  -1.655882e+06   6.263223e+05
  -1.256048e+06  -5.545255e+05
  -1.915854e+05  -1.463020e+06
   7.782870e+05  -1.334659e+06
   1.080209e+06  -4.282550e+05
   6.824094e+05   3.288749e+05
   6.815055e+04   3.668220e+05
  -1.925141e+05  -1.240320e+04
   3.742812e+04  -1.063400e+05
   3.591445e+05   3.394498e+05
   2.856870e+05   8.268521e+05
  -2.279974e+05   6.579726e+05
  -7.177486e+05  -2.308025e+05
  -6.485869e+05  -1.077438e+06
   5.594740e+04  -1.040638e+06
   8.535683e+05  -1.077424e+05
   9.923968e+05   8.789939e+05
   2.389863e+05   1.112541e+06
  -7.671407e+05   5.744200e+05
  -1.072826e+06  -1.461963e+05
  -4.485421e+05  -5.526566e+05
   3.048557e+05  -5.656185e+05
   2.928487e+05  -3.337083e+05
  -3.660975e+05  -5.829631e+04
  -6.920208e+05   3.239897e+03
  -1.001094e+05  -2.960182e+05
   8.583635e+05  -6.824557e+05
   1.196221e+06  -5.972403e+05
   6.540870e+05   1.148057e+05
  -1.344013e+05   8.356145e+05
  -4.874724e+05   8.053623e+05
  -3.256174e+05   6.722838e+04
   1.896507e+04  -5.368824e+05
   2.790681e+05  -3.741595e+05
   3.620851e+05   2.611832e+05
   2.246565e+05   5.988805e+05
  -9.616428e+04   3.403885e+05
  -3.925874e+05  -1.022108e+05
  -4.375610e+05  -2.296839e+05
  -2.410207e+05  -4.187670e+04
  -2.287309e+04   7.501958e+04
   7.742846e+04  -1.184976e+05
   1.387569e+05  -4.282919e+05
   2.710530e+05  -4.502431e+05
   3.995199e+05  -2.770705e+04
   3.211150e+05   5.243330e+05
  -4.173922e+04   6.835468e+05
  -4.780849e+05   2.571524e+05
  -5.996205e+05  -3.750609e+05
  -1.878259e+05  -6.334909e+05
   4.975481e+05  -3.390348e+05
   8.351255e+05   1.531465e+05
   4.440654e+05   4.029515e+05
  -3.136831e+05   3.206514e+05
  -6.318087e+05   1.161500e+05
  -1.757550e+05  -7.910711e+03
   4.676721e+05   2.149642e+04
   4.586199e+05   1.911131e+05
  -2.703848e+05   3.603479e+05
  -9.146102e+05   2.501726e+05
