
 $NMID
 id='ANONYMOUS ', fmtdat='(2E16.6)'
 volume=1.0
 tramp=1.0
 $END
   4.243949e+07  -1.520433e+06
   2.696288e+07   2.381304e+07
  -3.325664e+06   2.834722e+07
  -1.963584e+07   1.331858e+07
  -1.312458e+07  -3.092976e+06
   1.407843e+06  -7.173275e+06
   7.597946e+06  -5.071786e+05
   3.392242e+06   7.036634e+06
  -3.653498e+06   8.245840e+06
  -7.282169e+06   2.676901e+06
  -5.856767e+06  -4.636711e+06
  -9.843923e+05  -7.039907e+06
   3.207265e+06  -2.162614e+06
   2.544241e+06   4.779743e+06
  -2.468218e+06   5.933878e+06
  -6.210963e+06  -3.215245e+05
  -4.120145e+06  -7.679492e+06
   2.255134e+06  -9.385705e+06
   7.564354e+06  -4.892211e+06
   8.267541e+06   1.463886e+06
   4.859417e+06   5.586052e+06
   4.359650e+05   6.102843e+06
  -1.614637e+06   4.105466e+06
  -2.196806e+05   2.229330e+06
   1.746971e+06   2.571055e+06
   1.151299e+05   4.163113e+06
  -5.019822e+06   3.784925e+06
  -8.347568e+06   2.889658e+05
  -5.737916e+06  -3.447819e+06
   2.595557e+05  -4.095459e+06
   3.612262e+06  -1.826133e+06
   2.086656e+06   6.580527e+05
  -1.258478e+06   1.479813e+06
  -2.880957e+06   4.295642e+05
  -2.155591e+06  -1.889657e+06
  -2.313511e+05  -3.799339e+06
   1.641636e+06  -2.962025e+06
   2.180680e+06   5.406711e+05
   8.620023e+05   2.838461e+06
  -6.660627e+05   8.536933e+05
  -6.373524e+04  -2.675149e+06
   2.064812e+06  -2.269379e+06
   2.205411e+06   2.254633e+06
  -1.167284e+06   4.757529e+06
  -4.697986e+06   1.116727e+06
  -3.974565e+06  -4.872436e+06
   9.506571e+05  -6.403233e+06
   5.605902e+06  -2.107592e+06
   6.004337e+06   3.211370e+06
   2.151952e+06   4.897614e+06
  -2.660646e+06   2.694085e+06
  -4.708111e+06  -6.908577e+05
  -2.560095e+06  -2.618009e+06
   1.592304e+06  -1.971538e+06
   3.639025e+06   3.543338e+05
   1.795968e+06   1.937344e+06
  -1.242334e+06   1.166395e+06
  -1.641599e+06  -6.985178e+05
   6.416934e+05  -1.025282e+06
   2.016362e+06   6.834475e+05
   2.031556e+05   2.230325e+06
  -2.942140e+06   1.726009e+06
  -4.068787e+06  -4.307070e+05
  -2.113322e+06  -2.798831e+06
   1.384742e+06  -4.360948e+06
   4.310632e+06  -4.175092e+06
   5.221023e+06  -1.464629e+06
   3.705146e+06   2.682100e+06
   8.634977e+05   5.185698e+06
  -1.140485e+06   4.189450e+06
  -1.156017e+06   1.514472e+06
  -3.542222e+05   3.378777e+05
  -5.984760e+05   1.087593e+06
  -1.939909e+06   1.382842e+06
  -2.705702e+06  -2.002244e+05
  -1.775855e+06  -2.148378e+06
   2.130596e+05  -2.212491e+06
   1.773369e+06  -2.052216e+05
   1.784596e+06   2.068927e+06
   1.897817e+04   2.779489e+06
  -2.516700e+06   1.408750e+06
  -3.824856e+06  -1.127595e+06
  -2.620194e+06  -3.115454e+06
   1.433181e+04  -3.320111e+06
   1.677089e+06  -2.122257e+06
   1.596087e+06  -1.031358e+06
   1.424189e+06  -8.312507e+05
   2.586635e+06  -7.275875e+05
   3.978075e+06   3.720672e+05
   3.345542e+06   2.306584e+06
   3.506220e+05   3.810130e+06
  -2.841028e+06   3.772244e+06
  -3.893895e+06   2.040358e+06
  -2.465218e+06  -4.801989e+05
  -1.412736e+05  -2.159371e+06
   1.117647e+06  -1.768876e+06
   5.114831e+05   8.623201e+04
  -1.021266e+06   1.240042e+06
  -1.705593e+06   4.268495e+05
  -8.057334e+05  -1.053338e+06
   5.007347e+05  -1.077820e+06
   5.475999e+05   3.039502e+05
  -7.286715e+05   8.858750e+05
  -1.732568e+06  -6.307209e+05
  -1.149044e+06  -2.837436e+06
   7.290051e+05  -3.395317e+06
   2.604834e+06  -1.703909e+06
   3.372565e+06   8.283350e+05
   2.600648e+06   2.492188e+06
   6.710094e+05   2.572647e+06
  -1.152402e+06   1.460247e+06
  -1.517639e+06   2.466380e+05
  -4.653753e+05  -2.000424e+04
   3.773368e+05   6.822161e+05
  -2.776741e+05   1.217234e+06
  -1.658653e+06   6.171703e+05
  -1.890743e+06  -6.452814e+05
  -4.707091e+05  -1.231165e+06
   1.041689e+06  -6.201910e+05
   9.323779e+05   3.637483e+05
  -7.001966e+05   6.517954e+05
  -2.153045e+06  -2.168575e+04
  -1.901650e+06  -1.160943e+06
   2.022498e+04  -1.984375e+06
   2.095250e+06  -1.775948e+06
   2.611118e+06  -4.290417e+05
   1.190161e+06   1.083447e+06
  -7.629533e+05   1.376370e+06
  -1.369174e+06   2.258183e+05
  -1.888748e+05  -9.622295e+05
   1.371576e+06  -7.467425e+05
   1.655590e+06   6.060222e+05
   4.769763e+05   1.516888e+06
  -9.020259e+05   1.045064e+06
  -1.209885e+06  -1.297549e+05
  -3.387953e+05  -6.813545e+05
   6.963919e+05  -1.010901e+05
   7.215622e+05   9.423634e+05
  -4.943560e+05   1.354119e+06
  -1.871492e+06   5.797569e+05
  -1.950742e+06  -9.042791e+05
  -4.595747e+05  -1.918065e+06
   1.242586e+06  -1.610111e+06
   1.596028e+06  -3.125767e+05
   5.459975e+05   7.708706e+05
  -5.592255e+05   8.075392e+05
  -6.384354e+05   1.042426e+05
   4.540677e+04  -4.224435e+05
   5.079724e+05  -3.133289e+05
   2.544791e+05   6.234471e+04
  -3.434737e+05   5.735901e+04
  -5.499350e+05  -5.081539e+05
   7.013006e+04  -1.103085e+06
   1.228940e+06  -9.272062e+05
   1.977538e+06   2.732215e+05
   1.470151e+06   1.752136e+06
  -8.374415e+04   2.310234e+06
  -1.456269e+06   1.474211e+06
  -1.655832e+06   1.989188e+04
  -9.532808e+05  -8.488923e+05
  -3.776050e+05  -7.361030e+05
  -3.976528e+05  -2.787457e+05
  -5.146219e+05  -2.417655e+05
  -1.044115e+05  -6.593344e+05
   7.503062e+05  -9.060028e+05
   1.361156e+06  -4.289026e+05
   1.093701e+06   6.369109e+05
  -1.110227e+05   1.458549e+06
  -1.572633e+06   1.152930e+06
  -2.174016e+06  -3.248078e+05
  -1.216753e+06  -1.905045e+06
   7.672794e+05  -2.269342e+06
   2.290251e+06  -1.142957e+06
   2.276816e+06   4.268730e+05
   1.071309e+06   1.199985e+06
  -8.116124e+04   9.838396e+05
  -3.942777e+05   5.892374e+05
  -1.507930e+05   7.179902e+05
  -9.686464e+04   1.175126e+06
  -5.557908e+05   1.194106e+06
  -1.171315e+06   3.431020e+05
  -1.299902e+06  -9.631683e+05
  -6.101671e+05  -1.767022e+06
   5.267903e+05  -1.389030e+06
   1.219732e+06  -7.665786e+04
   8.462795e+05   1.135877e+06
  -2.461029e+05   1.325245e+06
  -1.007024e+06   4.973167e+05
  -7.807717e+05  -5.199978e+05
   1.137294e+03  -9.578694e+05
   3.799068e+05  -7.665896e+05
   2.049235e+04  -4.277939e+05
  -4.118512e+05  -3.165387e+05
  -6.593141e+04  -3.680808e+05
   1.042604e+06  -2.628689e+05
   1.919938e+06   1.986916e+05
   1.573850e+06   8.691815e+05
   8.313091e+04   1.310194e+06
  -1.383924e+06   1.130163e+06
  -1.688518e+06   3.886264e+05
  -8.228299e+05  -3.526281e+05
   1.941841e+05  -5.138928e+05
   4.591349e+05  -8.370142e+04
   2.335262e+04   3.566377e+05
  -4.295789e+05   2.559836e+05
  -4.635179e+05  -3.018079e+05
  -2.255050e+05  -6.913208e+05
  -6.673338e+04  -4.571763e+05
  -1.267206e+05   1.321750e+05
  -2.836111e+05   3.383646e+05
  -2.808858e+05  -1.990198e+05
   1.078614e+05  -9.595168e+05
   7.958776e+05  -1.042007e+06
   1.223474e+06  -1.923702e+05
   7.918519e+05   8.313015e+05
  -3.419395e+05   1.050598e+06
  -1.144362e+06   3.288332e+05
  -7.161502e+05  -5.226511e+05
   6.180780e+05  -6.563165e+05
   1.525962e+06  -1.785836e+04
   1.058387e+06   7.463755e+05
  -3.562963e+05   9.950722e+05
  -1.400229e+06   5.978073e+05
  -1.217004e+06  -7.852130e+04
  -1.790872e+05  -4.889362e+05
   5.934935e+05  -3.095984e+05
   3.614005e+05   2.464666e+05
  -5.534018e+05   5.038478e+05
  -1.125267e+06  -5.333205e+04
  -6.553157e+05  -1.109654e+06
   5.262603e+05  -1.632933e+06
   1.391709e+06  -8.859860e+05
   1.230225e+06   6.750937e+05
   2.758967e+05   1.704576e+06
  -6.384102e+05   1.291537e+06
  -8.939682e+05  -9.358744e+04
  -4.977296e+05  -1.105590e+06
   1.222304e+05  -9.494312e+05
   5.180943e+05  -1.219586e+05
   4.894482e+05   3.391883e+05
   1.925707e+05   1.284715e+05
   2.937880e+04  -1.007445e+05
   2.372836e+05   2.526825e+05
   5.166169e+05   8.881206e+05
   2.704829e+05   1.019467e+06
  -6.206755e+05   4.127843e+05
  -1.433495e+06  -3.698506e+05
  -1.292635e+06  -7.290707e+05
  -2.139331e+05  -6.487323e+05
   8.193982e+05  -4.422326e+05
   9.370326e+05  -2.342625e+05
   3.213131e+05   1.950212e+04
  -1.382338e+05   2.206648e+05
   9.514182e+03   2.084654e+05
   2.922887e+05   9.010299e+04
   4.235413e+04   1.281076e+05
  -6.548649e+05   2.497451e+05
  -9.943937e+05   2.994340e+04
  -3.983206e+05  -6.392348e+05
   7.764988e+05  -1.147536e+06
   1.563329e+06  -7.767492e+05
   1.328590e+06   3.650028e+05
   3.190842e+05   1.332340e+06
  -6.565622e+05   1.335522e+06
  -9.753527e+05   5.429744e+05
  -6.421780e+05  -2.051993e+05
  -1.319801e+05  -3.361126e+05
   9.197524e+04  -5.314025e+04
  -6.392975e+04   3.840568e+04
  -3.162644e+05  -3.245510e+05
  -2.863665e+05  -7.555041e+05
   1.441909e+05  -6.501968e+05
   6.629582e+05   9.961689e+04
   7.369113e+05   8.901949e+05
   1.308459e+05   9.779943e+05
  -7.246127e+05   2.504258e+05
  -1.016182e+06  -6.594675e+05
  -3.684920e+05  -1.021248e+06
   6.525209e+05  -6.620214e+05
   1.057037e+06   2.513661e+04
   5.188950e+05   5.416931e+05
  -2.416970e+05   6.363857e+05
  -3.230934e+05   3.600852e+05
   2.599728e+05   1.430675e+03
   6.229255e+05  -6.691358e+04
   1.462897e+05   2.828819e+05
  -7.517746e+05   6.900922e+05
  -1.150092e+06   5.900150e+05
  -7.091346e+05  -1.173911e+05
   5.218263e+04  -8.237409e+05
   4.653961e+05  -8.299226e+05
   3.778851e+05  -1.555545e+05
   6.492338e+04   4.644465e+05
  -2.121792e+05   4.152712e+05
  -3.470599e+05  -1.415573e+05
  -2.677372e+05  -5.382079e+05
   3.711749e+04  -3.926823e+05
   3.750665e+05   3.154900e+04
   4.576822e+05   2.312425e+05
   2.333449e+05   6.777455e+04
  -2.789962e+04  -1.278813e+05
  -7.519836e+04  -6.155137e+03
   4.755190e+03   3.527804e+05
  -6.102611e+04   5.119213e+05
  -3.107042e+05   1.916129e+05
  -4.341762e+05  -3.649110e+05
  -1.489638e+05  -6.176454e+05
   3.840215e+05  -3.124171e+05
   6.363745e+05   2.472566e+05
   2.623452e+05   5.424334e+05
  -4.597574e+05   3.697558e+05
  -8.346937e+05  -3.780040e+04
  -4.697063e+05  -3.369493e+05
   2.620781e+05  -3.821310e+05
   5.951252e+05  -2.315913e+05
   2.238177e+05  -2.454901e+04
  -3.487127e+05   7.159671e+04
  -4.027846e+05  -5.883365e+04
   1.593149e+05  -3.007540e+05
   7.206102e+05  -3.001641e+05
