
 $NMID
 id='ANONYMOUS ', fmtdat='(2E16.6)'
 volume=1.0
 tramp=1.0
 $END
  -3.264026e+07   8.403342e+05
  -2.146156e+07  -1.706460e+07
   1.374374e+06  -2.153275e+07
   1.488594e+07  -1.186182e+07
   1.108778e+07   8.898389e+05
  -3.257927e+05   5.874967e+06
  -6.381923e+06   1.532297e+06
  -3.734238e+06  -5.490429e+06
   2.362677e+06  -7.656803e+06
   5.971205e+06  -2.940412e+06
   4.889105e+06   3.939006e+06
   6.613458e+05   6.128237e+06
  -2.833146e+06   1.568608e+06
  -2.204085e+06  -4.613595e+06
   1.970050e+06  -5.548372e+06
   5.148216e+06  -1.226770e+05
   3.562661e+06   6.185406e+06
  -1.674719e+06   7.639583e+06
  -6.033848e+06   3.774349e+06
  -6.336301e+06  -1.488181e+06
  -3.273178e+06  -4.401954e+06
  -2.140334e+04  -4.207495e+06
   7.420764e+05  -2.691409e+06
  -8.778106e+05  -2.131420e+06
  -1.933405e+06  -3.190978e+06
   3.955784e+05  -4.196644e+06
   5.066466e+06  -2.943409e+06
   7.469381e+06   4.719834e+05
   4.615044e+06   3.352723e+06
  -9.031845e+05   3.355163e+06
  -3.676880e+06   9.787403e+05
  -1.673193e+06  -1.330859e+06
   2.017819e+06  -1.705083e+06
   3.427261e+06   4.823599e+03
   1.864654e+06   2.513746e+06
  -5.358433e+05   3.718012e+06
  -1.730793e+06   2.153432e+06
  -1.279791e+06  -9.736849e+05
  -5.928834e+04  -2.230456e+06
   5.002867e+05   1.460624e+04
  -4.547104e+05   2.844196e+06
  -2.006097e+06   2.121857e+06
  -1.986617e+06  -1.753791e+06
   4.348400e+05  -3.860847e+06
   3.137518e+06  -1.127853e+06
   3.013425e+06   3.534741e+06
  -4.744405e+05   4.895454e+06
  -4.410998e+06   1.648248e+06
  -5.238162e+06  -2.712706e+06
  -2.123965e+06  -4.341591e+06
   2.335834e+06  -2.602667e+06
   4.427974e+06   4.229182e+05
   2.585593e+06   2.287006e+06
  -1.154746e+06   1.845994e+06
  -3.091413e+06  -1.253110e+05
  -1.656022e+06  -1.545250e+06
   9.810964e+05  -1.010716e+06
   1.589994e+06   6.092169e+05
  -2.411253e+05   1.199125e+06
  -1.815048e+06   1.920539e+04
  -8.411056e+05  -1.495001e+06
   1.808139e+06  -1.607984e+06
   3.274061e+06  -7.172666e+04
   1.890647e+06   2.099953e+06
  -1.374041e+06   3.624167e+06
  -4.132409e+06   3.364479e+06
  -4.623468e+06   8.871983e+05
  -2.870611e+06  -2.577772e+06
  -4.434008e+05  -4.565951e+06
   9.381096e+05  -3.800031e+06
   9.214140e+05  -1.728639e+06
   6.426896e+05  -7.015656e+05
   1.199551e+06  -1.002975e+06
   2.270150e+06  -8.439317e+05
   2.556258e+06   7.767038e+05
   1.364644e+06   2.473693e+06
  -6.234030e+05   2.244984e+06
  -1.995060e+06   1.163444e+04
  -1.700602e+06  -2.279364e+06
   2.130688e+05  -2.704426e+06
   2.455363e+06  -1.031533e+06
   3.264053e+06   1.369244e+06
   1.966837e+06   2.818312e+06
  -1.918500e+05   2.649669e+06
  -1.348183e+06   1.597402e+06
  -1.199625e+06   8.875017e+05
  -1.217947e+06   8.730691e+05
  -2.432037e+06   7.338897e+05
  -3.735356e+06  -3.952234e+05
  -3.105756e+06  -2.265987e+06
  -2.119922e+05  -3.657954e+06
   2.913169e+06  -3.480260e+06
   3.890417e+06  -1.657957e+06
   2.288384e+06   7.404331e+05
  -1.563358e+05   2.114608e+06
  -1.297029e+06   1.550674e+06
  -4.757625e+05  -1.667131e+05
   1.081053e+06  -1.119597e+06
   1.618496e+06  -3.327774e+05
   6.550970e+05   1.007467e+06
  -5.950946e+05   1.034167e+06
  -6.506416e+05  -2.986528e+05
   5.663813e+05  -1.041927e+06
   1.691634e+06   2.362175e+05
   1.396678e+06   2.527987e+06
  -3.679643e+05   3.488000e+06
  -2.457564e+06   2.030226e+06
  -3.470242e+06  -6.858178e+05
  -2.684352e+06  -2.611447e+06
  -6.071036e+05  -2.664530e+06
   1.234338e+06  -1.365403e+06
   1.512897e+06  -1.202131e+05
   4.506150e+05   4.434415e+04
  -3.483894e+05  -6.675229e+05
   2.552208e+05  -1.125494e+06
   1.532672e+06  -5.465176e+05
   1.780458e+06   6.019742e+05
   4.758073e+05   1.156185e+06
  -1.004443e+06   6.085343e+05
  -9.692661e+05  -3.706686e+05
   6.461974e+05  -7.237911e+05
   2.182927e+06  -3.483256e+04
   1.969637e+06   1.207795e+06
  -1.719230e+04   2.046621e+06
  -2.123722e+06   1.727392e+06
  -2.567850e+06   3.363228e+05
  -1.108165e+06  -1.056375e+06
   7.508147e+05  -1.242081e+06
   1.255728e+06  -1.607255e+05
   1.154584e+05   8.909616e+05
  -1.332671e+06   6.610829e+05
  -1.594027e+06  -6.080223e+05
  -4.837007e+05  -1.491194e+06
   8.613906e+05  -1.070901e+06
   1.210738e+06   7.492746e+04
   3.903877e+05   6.541128e+05
  -6.221366e+05   1.074934e+05
  -6.433172e+05  -9.034609e+05
   5.355487e+05  -1.259431e+06
   1.818500e+06  -4.565409e+05
   1.823891e+06   9.574852e+05
   3.685946e+05   1.854647e+06
  -1.235652e+06   1.509490e+06
  -1.553906e+06   2.693107e+05
  -5.412097e+05  -7.622891e+05
   5.548878e+05  -7.936131e+05
   6.733597e+05  -7.460562e+04
  -1.835959e+04   4.884587e+05
  -5.654747e+05   3.625065e+05
  -3.681426e+05  -9.817488e+04
   2.726807e+05  -1.547193e+05
   5.504999e+05   4.242153e+05
  -4.733725e+04   1.044845e+06
  -1.195266e+06   8.602879e+05
  -1.891328e+06  -3.291227e+05
  -1.340206e+06  -1.740978e+06
   1.823288e+05  -2.246022e+06
   1.491384e+06  -1.425398e+06
   1.672326e+06   1.407305e+04
   9.697038e+05   9.378494e+05
   3.401545e+05   8.775160e+05
   2.828051e+05   3.646116e+05
   3.966212e+05   2.088217e+05
   6.065537e+04   5.753054e+05
  -7.371807e+05   8.531270e+05
  -1.347053e+06   3.943614e+05
  -1.080894e+06  -6.852734e+05
   1.385888e+05  -1.475941e+06
   1.576781e+06  -1.094620e+06
   2.114737e+06   3.921534e+05
   1.145582e+06   1.878782e+06
  -7.605271e+05   2.165668e+06
  -2.214653e+06   1.070184e+06
  -2.232405e+06  -4.351889e+05
  -1.095014e+06  -1.217045e+06
   7.338172e+04  -1.046498e+06
   4.803714e+05  -6.272628e+05
   2.909797e+05  -6.622012e+05
   1.922889e+05  -1.054346e+06
   5.621615e+05  -1.080952e+06
   1.108385e+06  -2.696338e+05
   1.198137e+06   9.918833e+05
   5.057505e+05   1.738903e+06
  -5.787788e+05   1.321763e+06
  -1.193657e+06   3.960058e+04
  -7.974927e+05  -1.100518e+06
   2.355345e+05  -1.273333e+06
   9.369675e+05  -5.161143e+05
   7.375828e+05   4.292164e+05
   3.870907e+04   8.760121e+05
  -3.077544e+05   7.498689e+05
  -5.236489e+03   4.569574e+05
   3.606214e+05   3.437869e+05
   3.155893e+04   3.640717e+05
  -9.866599e+05   2.217313e+05
  -1.799431e+06  -2.512906e+05
  -1.486062e+06  -8.740529e+05
  -9.027849e+04  -1.232148e+06
   1.314057e+06  -1.022792e+06
   1.631971e+06  -3.500614e+05
   8.137139e+05   3.010953e+05
  -1.751242e+05   4.552454e+05
  -4.300540e+05   9.398930e+04
   1.575920e+04  -2.958355e+05
   4.543710e+05  -2.075607e+05
   4.237566e+05   3.168302e+05
   1.229242e+05   6.893307e+05
  -1.222591e+04   4.431671e+05
   1.402220e+05  -1.584788e+05
   3.364667e+05  -3.567151e+05
   2.679766e+05   1.965904e+05
  -1.812219e+05   9.323465e+05
  -8.076973e+05   9.560180e+05
  -1.112109e+06   1.001024e+05
  -6.563242e+05  -8.314008e+05
   3.714946e+05  -9.431881e+05
   1.074093e+06  -2.114407e+05
   6.555643e+05   5.580403e+05
  -6.161289e+05   6.198116e+05
  -1.508925e+06  -2.513247e+04
  -1.069494e+06  -7.665491e+05
   3.409567e+05  -1.002633e+06
   1.410553e+06  -5.951861e+05
   1.234204e+06   9.447005e+04
   1.804264e+05   5.000742e+05
  -5.855393e+05   3.042330e+05
  -3.234143e+05  -2.323301e+05
   5.818380e+05  -4.297155e+05
   1.075332e+06   1.476407e+05
   5.243248e+05   1.122330e+06
  -6.519471e+05   1.525788e+06
  -1.420376e+06   7.443688e+05
  -1.153949e+06  -7.411333e+05
  -1.705712e+05  -1.683339e+06
   6.911076e+05  -1.254814e+06
   8.801059e+05   9.925591e+04
   4.698200e+05   1.098699e+06
  -1.170408e+05   9.521323e+05
  -4.955938e+05   1.175572e+05
  -4.952040e+05  -3.661186e+05
  -2.213353e+05  -1.519898e+05
  -1.997975e+04   1.123499e+05
  -1.632732e+05  -2.207544e+05
  -4.388460e+05  -8.748646e+05
  -2.622384e+05  -1.022723e+06
   5.687610e+05  -3.883541e+05
   1.385542e+06   4.350493e+05
   1.268641e+06   7.812502e+05
   1.816822e+05   6.322013e+05
  -8.610040e+05   3.773103e+05
  -9.410517e+05   1.937658e+05
  -2.794167e+05  -6.256517e+03
   1.622520e+05  -2.018918e+05
  -4.284942e+04  -2.346274e+05
  -3.267870e+05  -1.366355e+05
  -1.382626e+04  -1.252606e+05
   7.016242e+05  -1.793963e+05
   9.573813e+05   3.949608e+04
   2.757530e+05   6.230861e+05
  -8.626609e+05   1.032724e+06
  -1.519585e+06   6.323322e+05
  -1.199106e+06  -4.505023e+05
  -2.119274e+05  -1.316247e+06
   6.951308e+05  -1.241106e+06
   9.689181e+05  -4.355165e+05
   6.137039e+05   2.639721e+05
   8.710970e+04   3.280030e+05
  -1.323813e+05   9.733333e+03
   5.164733e+04  -7.071144e+04
   3.143827e+05   3.190348e+05
   2.571265e+05   7.500450e+05
  -1.843663e+05   6.102576e+05
  -6.425251e+05  -1.690569e+05
  -6.291030e+05  -9.349720e+05
  -1.501663e+04  -9.433821e+05
   7.416962e+05  -1.483313e+05
   9.242080e+05   7.422208e+05
   2.640910e+05   1.004346e+06
  -6.745957e+05   5.644306e+05
  -9.952003e+05  -9.786557e+04
  -4.463061e+05  -5.165310e+05
   2.613524e+05  -5.564707e+05
   2.905290e+05  -3.247596e+05
  -2.947105e+05  -4.096920e+04
  -6.176216e+05   1.870850e+04
  -1.099695e+05  -2.719049e+05
   7.697093e+05  -6.307536e+05
   1.114649e+06  -5.430420e+05
   6.397385e+05   1.146306e+05
  -1.010819e+05   7.768177e+05
  -4.583075e+05   7.627331e+05
  -3.260448e+05   1.007185e+05
  -8.530824e+03  -4.693818e+05
   2.359465e+05  -3.634158e+05
   3.249656e+05   1.987787e+05
   2.201553e+05   5.379597e+05
  -6.600208e+04   3.395747e+05
  -3.575443e+05  -7.064271e+04
  -4.188509e+05  -2.214302e+05
  -2.245806e+05  -5.452677e+04
   2.965931e+03   9.093808e+04
   7.993741e+04  -5.553247e+04
   7.630081e+04  -3.612212e+05
   1.649741e+05  -4.376055e+05
   3.294294e+05  -8.907095e+04
   3.380392e+05   4.219736e+05
   3.300877e+04   6.046738e+05
  -4.091964e+05   2.557912e+05
  -5.697016e+05  -3.023758e+05
  -1.972933e+05  -5.547297e+05
   4.544116e+05  -3.247629e+05
   7.786981e+05   1.033354e+05
   4.216271e+05   3.545033e+05
  -2.734658e+05   3.232349e+05
  -5.751239e+05   1.511976e+05
  -1.855874e+05   6.760832e+03
   3.833423e+05  -9.866649e+03
   3.990875e+05   1.299465e+05
  -2.128828e+05   3.047865e+05
  -7.768978e+05   2.371661e+05
