
 $NMID
 id='ANONYMOUS ', fmtdat='(2E16.6)'
 volume=1.0
 tramp=1.0
 $END
  -3.092659e+07   9.927287e+05
  -2.057207e+07  -1.512220e+07
   4.983842e+05  -1.995534e+07
   1.341938e+07  -1.211138e+07
   1.060796e+07  -2.939327e+05
   2.190087e+05   5.432338e+06
  -5.953638e+06   2.100664e+06
  -4.069666e+06  -4.910374e+06
   1.671409e+06  -7.703378e+06
   5.550015e+06  -3.311927e+06
   4.873621e+06   3.693833e+06
   8.186644e+05   6.042449e+06
  -2.761706e+06   1.506555e+06
  -2.361827e+06  -4.699837e+06
   1.655357e+06  -5.717715e+06
   4.966132e+06  -4.338179e+05
   3.720889e+06   5.850805e+06
  -1.312242e+06   7.475839e+06
  -5.723613e+06   3.779677e+06
  -6.091325e+06  -1.429210e+06
  -2.991193e+06  -4.228431e+06
   1.376695e+05  -3.795233e+06
   4.768011e+05  -2.226906e+06
  -1.498982e+06  -2.012661e+06
  -2.424387e+06  -3.496668e+06
   3.744656e+05  -4.568868e+06
   5.350771e+06  -3.077638e+06
   7.681113e+06   5.119539e+05
   4.573645e+06   3.386507e+06
  -1.142663e+06   3.335148e+06
  -3.949146e+06   8.614490e+05
  -1.747130e+06  -1.643247e+06
   2.295249e+06  -2.101835e+06
   3.891990e+06  -1.226488e+05
   2.136454e+06   2.780868e+06
  -5.825320e+05   4.014389e+06
  -1.802643e+06   2.106946e+06
  -1.113009e+06  -1.204143e+06
   2.060777e+05  -2.215736e+06
   6.012886e+05   3.408971e+05
  -4.851024e+05   3.176917e+06
  -1.997363e+06   2.313414e+06
  -2.028824e+06  -1.560158e+06
   1.234082e+05  -3.641194e+06
   2.675084e+06  -1.120706e+06
   2.803438e+06   3.237356e+06
  -3.100437e+05   4.587182e+06
  -4.218147e+06   1.634115e+06
  -5.337187e+06  -2.522724e+06
  -2.401018e+06  -4.269977e+06
   2.199022e+06  -2.781904e+06
   4.538393e+06   1.361512e+05
   2.817094e+06   2.089211e+06
  -9.442009e+05   1.836373e+06
  -2.988110e+06   3.472257e+04
  -1.695250e+06  -1.361988e+06
   8.976435e+05  -9.810081e+05
   1.655979e+06   5.132019e+05
  -1.283903e+04   1.241200e+06
  -1.701291e+06   3.448043e+05
  -1.061704e+06  -1.133215e+06
   1.428011e+06  -1.568924e+06
   3.082627e+06  -3.419279e+05
   1.940708e+06   1.879850e+06
  -1.328648e+06   3.668638e+06
  -4.219919e+06   3.518742e+06
  -4.712839e+06   9.318820e+05
  -2.878466e+06  -2.635697e+06
  -5.069098e+05  -4.622514e+06
   7.197303e+05  -3.886519e+06
   7.116380e+05  -1.943477e+06
   6.708339e+05  -1.004063e+06
   1.466618e+06  -1.224996e+06
   2.591287e+06  -8.704934e+05
   2.790740e+06   9.322607e+05
   1.466156e+06   2.722896e+06
  -6.874226e+05   2.461060e+06
  -2.204779e+06   6.785924e+04
  -1.906789e+06  -2.399844e+06
   1.720239e+05  -2.860596e+06
   2.560785e+06  -1.073897e+06
   3.356551e+06   1.423968e+06
   1.970849e+06   2.840608e+06
  -1.958489e+05   2.592622e+06
  -1.278299e+06   1.543841e+06
  -1.090119e+06   9.199016e+05
  -1.160976e+06   9.926290e+05
  -2.487483e+06   9.002471e+05
  -3.910515e+06  -2.447738e+05
  -3.338156e+06  -2.238303e+06
  -3.609699e+05  -3.830188e+06
   2.960934e+06  -3.766389e+06
   4.075727e+06  -1.843838e+06
   2.423521e+06   7.737504e+05
  -1.676999e+05   2.267711e+06
  -1.366711e+06   1.646218e+06
  -4.865723e+05  -1.891943e+05
   1.126619e+06  -1.193754e+06
   1.657193e+06  -3.780232e+05
   6.693885e+05   1.024786e+06
  -6.072851e+05   1.093598e+06
  -7.187590e+05  -2.800142e+05
   4.774672e+05  -1.152491e+06
   1.735927e+06   4.136723e+04
   1.666843e+06   2.453160e+06
  -4.256507e+04   3.685472e+06
  -2.382075e+06   2.388838e+06
  -3.731754e+06  -4.431721e+05
  -3.046375e+06  -2.626136e+06
  -7.913265e+05  -2.828125e+06
   1.265476e+06  -1.502090e+06
   1.602469e+06  -1.753145e+05
   4.742161e+05   2.557573e+04
  -3.851617e+05  -6.890591e+05
   2.246147e+05  -1.162647e+06
   1.555065e+06  -6.054883e+05
   1.851164e+06   5.462150e+05
   5.337641e+05   1.157024e+06
  -1.026283e+06   6.627844e+05
  -1.046476e+06  -3.591756e+05
   6.397758e+05  -8.267677e+05
   2.331279e+06  -1.756929e+05
   2.188692e+06   1.185700e+06
   1.018289e+05   2.194315e+06
  -2.170180e+06   1.934901e+06
  -2.689883e+06   4.636929e+05
  -1.190199e+06  -1.047903e+06
   7.383088e+05  -1.293902e+06
   1.275317e+06  -1.951908e+05
   1.222125e+05   9.149185e+05
  -1.373286e+06   7.262420e+05
  -1.689538e+06  -5.678739e+05
  -5.842413e+05  -1.531185e+06
   8.321843e+05  -1.167570e+06
   1.262290e+06   3.793083e+03
   4.408905e+05   6.494415e+05
  -6.423801e+05   1.202505e+05
  -6.978566e+05  -9.426431e+05
   5.406019e+05  -1.350953e+06
   1.915707e+06  -5.348831e+05
   1.953859e+06   9.534771e+05
   4.520847e+05   1.933683e+06
  -1.231224e+06   1.626578e+06
  -1.606781e+06   3.517806e+05
  -5.967780e+05  -7.627121e+05
   5.477776e+05  -8.481153e+05
   7.131061e+05  -9.709882e+04
   5.444045e+03   5.414536e+05
  -6.084543e+05   4.329599e+05
  -4.415105e+05  -9.492415e+04
   2.555495e+05  -2.143670e+05
   6.121890e+05   3.917573e+05
   1.476169e+04   1.100151e+06
  -1.221843e+06   9.628762e+05
  -2.010857e+06  -2.718967e+05
  -1.479461e+06  -1.786453e+06
   1.032366e+05  -2.380731e+06
   1.511209e+06  -1.580041e+06
   1.776766e+06  -7.561827e+04
   1.097459e+06   9.520434e+05
   4.220881e+05   9.484168e+05
   3.033221e+05   4.076657e+05
   4.018920e+05   2.054511e+05
   8.453582e+04   5.937595e+05
  -7.318910e+05   9.429573e+05
  -1.417019e+06   4.965558e+05
  -1.204717e+06  -6.795743e+05
   6.240554e+04  -1.592760e+06
   1.625586e+06  -1.243572e+06
   2.262532e+06   3.242058e+05
   1.292814e+06   1.934016e+06
  -7.036268e+05   2.307015e+06
  -2.276065e+06   1.222069e+06
  -2.372459e+06  -3.473218e+05
  -1.231233e+06  -1.228316e+06
   1.117731e+04  -1.127443e+06
   4.930845e+05  -7.128443e+05
   3.169602e+05  -7.191555e+05
   1.857645e+05  -1.103206e+06
   5.502895e+05  -1.142771e+06
   1.149861e+06  -3.172638e+05
   1.297351e+06   1.005697e+06
   5.960686e+05   1.818490e+06
  -5.649303e+05   1.416357e+06
  -1.258469e+06   8.917811e+04
  -8.846918e+05  -1.121147e+06
   1.854865e+05  -1.345357e+06
   9.449584e+05  -5.915162e+05
   7.834566e+05   3.982567e+05
   8.789245e+04   9.012740e+05
  -2.723513e+05   7.976815e+05
   2.547193e+04   4.867696e+05
   3.955072e+05   3.544482e+05
   4.912947e+04   3.882575e+05
  -1.025574e+06   2.762595e+05
  -1.901625e+06  -1.935287e+05
  -1.601120e+06  -8.592865e+05
  -1.495016e+05  -1.282883e+06
   1.335449e+06  -1.118459e+06
   1.697630e+06  -4.389800e+05
   8.666110e+05   2.662553e+05
  -1.627238e+05   4.765582e+05
  -4.430492e+05   1.230958e+05
   1.060246e+04  -3.043806e+05
   4.748333e+05  -2.392344e+05
   4.587569e+05   3.157838e+05
   1.480471e+05   7.313442e+05
  -7.236514e+03   4.736383e+05
   1.395613e+05  -1.858754e+05
   3.514496e+05  -4.078975e+05
   2.998841e+05   1.978671e+05
  -1.574766e+05   1.006585e+06
  -8.214366e+05   1.043652e+06
  -1.165462e+06   1.336050e+05
  -7.126556e+05  -8.623016e+05
   3.617357e+05  -1.000620e+06
   1.123822e+06  -2.505554e+05
   7.152459e+05   5.678037e+05
  -6.202411e+05   6.812698e+05
  -1.597797e+06   4.576702e+04
  -1.179034e+06  -7.554728e+05
   3.004986e+05  -1.080353e+06
   1.462973e+06  -7.071432e+05
   1.317305e+06   3.605082e+04
   2.185721e+05   5.218333e+05
  -6.030891e+05   3.485808e+05
  -3.435248e+05  -2.325676e+05
   6.094887e+05  -4.727798e+05
   1.146037e+06   1.265007e+05
   5.875451e+05   1.176880e+06
  -6.455249e+05   1.638814e+06
  -1.481679e+06   8.368277e+05
  -1.250430e+06  -7.421318e+05
  -2.472788e+05  -1.776637e+06
   6.783187e+05  -1.362068e+06
   9.347926e+05   6.120185e+04
   5.483828e+05   1.140572e+06
  -7.519813e+04   1.014629e+06
  -5.169028e+05   1.463244e+05
  -5.471316e+05  -3.681374e+05
  -2.488938e+05  -1.525122e+05
  -1.181628e+04   1.200081e+05
  -1.663983e+05  -2.273258e+05
  -4.918938e+05  -9.078049e+05
  -3.276083e+05  -1.068187e+06
   5.738577e+05  -4.293201e+05
   1.484305e+06   4.050078e+05
   1.383019e+06   7.720282e+05
   2.185008e+05   6.597972e+05
  -9.045562e+05   4.366844e+05
  -9.902399e+05   2.469855e+05
  -2.871139e+05   6.700820e+03
   1.667447e+05  -2.194525e+05
  -6.799425e+04  -2.467857e+05
  -3.653769e+05  -1.344640e+05
  -1.529089e+04  -1.366013e+05
   7.500971e+05  -2.181618e+05
   1.015466e+06   1.015918e+04
   2.990306e+05   6.544914e+05
  -8.866108e+05   1.123203e+06
  -1.580199e+06   7.157714e+05
  -1.276048e+06  -4.425193e+05
  -2.714927e+05  -1.388917e+06
   6.879345e+05  -1.336435e+06
   1.013794e+06  -4.908289e+05
   6.648186e+05   2.628205e+05
   9.940751e+04   3.473454e+05
  -1.523845e+05   1.332629e+04
   4.568316e+04  -8.261275e+04
   3.483878e+05   3.213160e+05
   3.032335e+05   7.831798e+05
  -1.770501e+05   6.508064e+05
  -6.915541e+05  -1.627165e+05
  -6.963412e+05  -9.762626e+05
  -3.866016e+04  -1.001046e+06
   7.893735e+05  -1.771904e+05
   1.006262e+06   7.612067e+05
   3.105346e+05   1.055434e+06
  -6.978888e+05   6.164720e+05
  -1.054233e+06  -7.164643e+04
  -4.833002e+05  -5.271729e+05
   2.604416e+05  -5.904819e+05
   2.898945e+05  -3.482172e+05
  -3.234551e+05  -3.045461e+04
  -6.566863e+05   4.305982e+04
  -1.232453e+05  -2.834238e+05
   7.904314e+05  -6.973828e+05
   1.148665e+06  -6.192723e+05
   6.691029e+05   9.429746e+04
  -8.038109e+04   8.222723e+05
  -4.503506e+05   8.172181e+05
  -3.356296e+05   1.087886e+05
  -2.393695e+04  -5.022283e+05
   2.399569e+05  -3.899311e+05
   3.557177e+05   2.055613e+05
   2.520893e+05   5.621907e+05
  -6.266824e+04   3.557307e+05
  -3.820994e+05  -6.526980e+04
  -4.458898e+05  -2.145712e+05
  -2.373389e+05  -4.416206e+04
  -6.178772e+02   9.201912e+04
   7.639873e+04  -7.452001e+04
   7.616692e+04  -3.952770e+05
   1.780039e+05  -4.676225e+05
   3.567971e+05  -9.433244e+04
   3.671657e+05   4.482590e+05
   4.398478e+04   6.466293e+05
  -4.296201e+05   2.840999e+05
  -6.117946e+05  -3.068172e+05
  -2.269423e+05  -5.855095e+05
   4.674902e+05  -3.585508e+05
   8.253212e+05   8.669102e+04
   4.569420e+05   3.611792e+05
  -2.804415e+05   3.458425e+05
  -6.040048e+05   1.725212e+05
  -1.900051e+05   1.025803e+04
   4.169708e+05  -2.132829e+04
   4.341151e+05   1.304144e+05
  -2.191742e+05   3.385887e+05
  -8.254028e+05   2.842993e+05
