
 $NMID
 id='ANONYMOUS ', fmtdat='(2E16.6)'
 volume=1.0
 tramp=1.0
 $END
   3.420944e+07   5.539591e+04
   2.042701e+07   2.142518e+07
  -4.752084e+06   2.319045e+07
  -1.683426e+07   8.632005e+06
  -9.880435e+06  -4.503995e+06
   2.134056e+06  -5.632622e+06
   5.914326e+06   9.098057e+05
   1.526765e+06   5.942259e+06
  -3.852152e+06   5.499033e+06
  -5.827936e+06   1.078343e+06
  -4.187350e+06  -3.738617e+06
  -4.858471e+05  -5.139005e+06
   2.388042e+06  -1.673151e+06
   1.556735e+06   3.189000e+06
  -2.294717e+06   3.841649e+06
  -4.732906e+06  -8.786768e+05
  -2.622880e+06  -6.172260e+06
   2.333622e+06  -7.098234e+06
   6.120291e+06  -3.559464e+06
   6.559824e+06   1.220410e+06
   4.069642e+06   4.542563e+06
   4.518250e+05   5.319352e+06
  -1.845927e+06   3.741376e+06
  -1.281143e+06   1.585018e+06
   5.772830e+05   1.148837e+06
   2.090780e+05   2.397001e+06
  -3.123414e+06   2.652482e+06
  -5.726843e+06   3.779023e+05
  -4.248677e+06  -2.427357e+06
  -2.422424e+05  -3.051831e+06
   2.142809e+06  -1.616615e+06
   1.493617e+06  -1.175660e+05
  -2.320195e+05   4.890333e+05
  -1.222253e+06   3.317389e+05
  -1.294681e+06  -7.365575e+05
  -5.006680e+05  -2.281012e+06
   1.041182e+06  -2.350643e+06
   2.014697e+06  -5.518232e+03
   1.115466e+06   2.203357e+06
  -4.703962e+05   1.257910e+06
  -2.670112e+05  -1.386070e+06
   1.445062e+06  -1.342832e+06
   1.445465e+06   1.945902e+06
  -1.543457e+06   3.701360e+06
  -4.286044e+06   5.767977e+05
  -3.108911e+06  -4.239717e+06
   1.203209e+06  -5.181206e+06
   4.499599e+06  -1.454572e+06
   4.133476e+06   2.684674e+06
   1.046799e+06   3.596846e+06
  -2.085220e+06   1.573294e+06
  -3.092880e+06  -9.571460e+05
  -1.386592e+06  -2.098705e+06
   1.486798e+06  -1.295453e+06
   2.717591e+06   5.889353e+05
   1.147295e+06   1.656476e+06
  -1.044704e+06   8.192826e+05
  -1.015807e+06  -6.222032e+05
   8.406073e+05  -5.105781e+05
   1.477322e+06   1.139427e+06
  -4.598666e+05   2.126005e+06
  -2.871953e+06   1.119789e+06
  -3.203720e+06  -8.837307e+05
  -1.368285e+06  -2.427917e+06
   1.067619e+06  -3.156248e+06
   2.948151e+06  -2.905310e+06
   3.686052e+06  -1.075846e+06
   2.771839e+06   1.860790e+06
   5.866203e+05   3.678862e+06
  -1.139058e+06   2.824479e+06
  -1.078753e+06   6.668836e+05
  -5.845910e+04  -2.166365e+05
   1.101114e+05   5.661682e+05
  -8.753130e+05   1.109853e+06
  -1.648501e+06   2.200729e+05
  -1.229478e+06  -1.075344e+06
  -6.792988e+04  -1.238800e+06
   8.691460e+05  -1.392591e+05
   9.770062e+05   1.184989e+06
   2.314201e+04   1.718701e+06
  -1.623306e+06   1.008764e+06
  -2.678449e+06  -6.704737e+05
  -1.959385e+06  -2.240956e+06
   6.892885e+03  -2.561315e+06
   1.383144e+06  -1.655258e+06
   1.366616e+06  -6.768660e+05
   1.105513e+06  -3.820911e+05
   1.741538e+06  -2.614602e+05
   2.566432e+06   4.650206e+05
   2.051534e+06   1.639292e+06
   7.243846e+04   2.430192e+06
  -1.879931e+06   2.298214e+06
  -2.443263e+06   1.270619e+06
  -1.572924e+06  -2.172955e+05
  -1.967514e+05  -1.308382e+06
   6.231709e+05  -1.155889e+06
   3.361942e+05   1.004691e+04
  -6.318264e+05   7.783351e+05
  -1.132464e+06   2.391036e+05
  -5.588822e+05  -7.166658e+05
   2.945090e+05  -6.565159e+05
   2.326892e+05   2.327365e+05
  -6.587259e+05   3.782892e+05
  -1.091492e+06  -8.312414e+05
  -3.140536e+05  -2.101043e+06
   1.023374e+06  -1.973289e+06
   1.877872e+06  -5.698936e+05
   1.905682e+06   9.016743e+05
   1.285618e+06   1.614749e+06
   2.504280e+05   1.510603e+06
  -7.212502e+05   8.589552e+05
  -9.231135e+05   1.418831e+05
  -2.904363e+05  -2.718723e+04
   2.098502e+05   4.450900e+05
  -2.544576e+05   8.004015e+05
  -1.144426e+06   3.403799e+05
  -1.207821e+06  -5.430071e+05
  -2.165882e+05  -8.498917e+05
   6.977877e+05  -3.303072e+05
   5.103905e+05   2.721768e+05
  -5.119521e+05   2.821832e+05
  -1.265915e+06  -2.210712e+05
  -9.906307e+05  -8.030815e+05
   1.679306e+05  -1.137399e+06
   1.360271e+06  -9.531668e+05
   1.633187e+06  -1.515813e+05
   7.186856e+05   7.577978e+05
  -5.518476e+05   9.002158e+05
  -9.388268e+05   1.132588e+05
  -1.263733e+05  -6.483433e+05
   9.011117e+05  -4.369133e+05
   1.012557e+06   4.732170e+05
   1.803362e+05   9.787387e+05
  -6.603609e+05   5.582818e+05
  -7.370009e+05  -2.071844e+05
  -1.282009e+05  -4.690841e+05
   4.812511e+05  -2.760250e+04
   4.388512e+05   6.271140e+05
  -3.377090e+05   8.452587e+05
  -1.186617e+06   3.253930e+05
  -1.206329e+06  -6.200344e+05
  -2.246786e+05  -1.230422e+06
   8.605440e+05  -9.696304e+05
   1.023762e+06  -1.145013e+05
   2.880064e+05   5.183330e+05
  -3.949098e+05   4.690650e+05
  -3.648030e+05   4.528409e+04
   7.871183e+04  -1.951256e+05
   2.761013e+05  -1.044961e+05
   4.365125e+04   3.322609e+04
  -2.787577e+05  -7.159007e+04
  -2.952969e+05  -4.180391e+05
   1.389452e+05  -7.041413e+05
   8.237474e+05  -5.225574e+05
   1.229744e+06   2.506930e+05
   8.643064e+05   1.151739e+06
  -1.304641e+05   1.425781e+06
  -9.527407e+05   8.182619e+05
  -9.831009e+05  -8.710053e+04
  -4.844554e+05  -5.169908e+05
  -1.807607e+05  -3.537756e+05
  -2.982459e+05  -1.112957e+05
  -3.891028e+05  -1.936096e+05
  -5.507681e+04  -4.642770e+05
   5.249647e+05  -5.266061e+05
   8.509811e+05  -1.786587e+05
   6.035082e+05   4.237274e+05
  -1.591222e+05   8.438272e+05
  -1.015569e+06   6.181701e+05
  -1.318982e+06  -2.918169e+05
  -6.559508e+05  -1.244314e+06
   6.151421e+05  -1.395753e+06
   1.513800e+06  -5.934190e+05
   1.378125e+06   4.094988e+05
   5.383522e+05   7.916100e+05
  -1.352642e+05   5.371323e+05
  -2.154645e+05   2.823518e+05
  -2.093935e+04   4.476967e+05
  -4.993104e+04   7.879307e+05
  -4.018630e+05   7.719926e+05
  -7.723988e+05   1.907491e+05
  -7.928625e+05  -6.370088e+05
  -3.296299e+05  -1.117577e+06
   3.655180e+05  -8.479112e+05
   7.568719e+05   5.850022e+03
   4.731139e+05   7.660664e+05
  -2.448901e+05   8.244362e+05
  -7.010870e+05   2.221749e+05
  -4.789775e+05  -4.361637e+05
   9.067799e+04  -6.473738e+05
   3.381584e+05  -4.574396e+05
   5.884594e+04  -2.366199e+05
  -2.597695e+05  -1.937592e+05
  -3.792426e+04  -2.243684e+05
   6.854129e+05  -1.200940e+05
   1.227758e+06   2.023104e+05
   9.537522e+05   6.204308e+05
  -3.693793e+04   8.565853e+05
  -9.546622e+05   6.762529e+05
  -1.086636e+06   1.525696e+05
  -4.860846e+05  -3.101029e+05
   1.618720e+05  -3.439055e+05
   3.066232e+05  -1.200226e+04
   2.332108e+04   2.597434e+05
  -2.554264e+05   1.562410e+05
  -2.867013e+05  -2.013328e+05
  -1.643597e+05  -4.230194e+05
  -7.041077e+04  -2.822893e+05
  -7.905931e+04   4.606455e+04
  -1.532862e+05   1.606145e+05
  -1.597047e+05  -1.386538e+05
   7.569103e+04  -5.774672e+05
   5.311458e+05  -6.324188e+05
   8.216338e+05  -1.136081e+05
   5.213349e+05   5.391885e+05
  -2.445800e+05   6.871043e+05
  -7.529865e+05   2.148383e+05
  -4.363158e+05  -3.325537e+05
   4.181474e+05  -3.795492e+05
   9.298617e+05   6.524073e+04
   5.718994e+05   5.129552e+05
  -3.011022e+05   5.695082e+05
  -8.790169e+05   2.593017e+05
  -7.119776e+05  -1.245084e+05
  -7.061145e+04  -2.990645e+05
   3.849872e+05  -1.506739e+05
   2.323501e+05   1.789626e+05
  -3.366639e+05   3.181385e+05
  -7.009611e+05  -3.203653e+04
  -4.159858e+05  -6.894043e+05
   3.241100e+05  -1.014894e+06
   8.644026e+05  -5.403991e+05
   7.448206e+05   4.362070e+05
   1.273128e+05   1.052181e+06
  -4.329084e+05   7.548634e+05
  -5.418902e+05  -1.143813e+05
  -2.434270e+05  -7.031998e+05
   1.442452e+05  -5.614392e+05
   3.361151e+05  -4.311292e+04
   2.630104e+05   2.181656e+05
   8.270918e+04   7.556404e+04
   3.376869e+04  -5.163878e+04
   1.858574e+05   1.841824e+05
   3.104787e+05   5.731153e+05
   9.759534e+04   6.313804e+05
  -4.404991e+05   2.304277e+05
  -8.678083e+05  -2.695752e+05
  -7.398454e+05  -4.892768e+05
  -1.087084e+05  -4.149624e+05
   4.866089e+05  -2.524504e+05
   5.737492e+05  -1.048361e+05
   2.256979e+05   4.003981e+04
  -7.891734e+04   1.355966e+05
  -3.866852e+04   1.109182e+05
   1.369536e+05   4.274685e+04
   3.860933e+04   7.743994e+04
  -3.676347e+05   1.517885e+05
  -6.212155e+05   5.625497e+03
  -2.904823e+05  -4.111199e+05
   4.702317e+05  -7.147584e+05
   1.014404e+06  -4.730621e+05
   8.638326e+05   2.342641e+05
   1.809699e+05   8.256286e+05
  -4.499208e+05   8.252316e+05
  -6.175869e+05   3.404129e+05
  -3.864165e+05  -1.201648e+05
  -9.119655e+04  -2.116436e+05
   2.260975e+04  -5.361436e+04
  -5.437496e+04  -4.777162e+03
  -1.695881e+05  -2.215513e+05
  -1.429444e+05  -4.757800e+05
   9.633419e+04  -4.079532e+05
   3.999017e+05   5.038172e+04
   4.591870e+05   5.415812e+05
   1.026003e+05   6.122986e+05
  -4.300273e+05   1.758923e+05
  -6.267679e+05  -3.961117e+05
  -2.311287e+05  -6.427538e+05
   4.122048e+05  -4.243591e+05
   6.736325e+05   2.743456e+04
   3.324454e+05   3.731794e+05
  -1.657040e+05   4.243600e+05
  -2.397853e+05   2.252952e+05
   1.260042e+05  -5.740642e+03
   3.783580e+05  -3.298668e+04
   9.669362e+04   1.850691e+05
  -4.817829e+05   4.061141e+05
  -7.570471e+05   3.145315e+05
  -4.727485e+05  -1.151081e+05
   4.711846e+04  -5.234669e+05
   3.371633e+05  -5.195540e+05
   2.718275e+05  -1.144992e+05
   4.819954e+04   2.744285e+05
  -1.333888e+05   2.716908e+05
  -2.092017e+05  -6.419780e+04
  -1.593891e+05  -3.381670e+05
   2.205327e+04  -2.711311e+05
   2.328687e+05   1.372597e+04
   2.906121e+05   1.747871e+05
   1.442258e+05   6.668016e+04
  -3.124567e+04  -1.040511e+05
  -4.866433e+04  -5.646094e+04
   3.857108e+04   1.972133e+05
   1.461768e+04   3.488420e+05
  -1.749252e+05   1.692807e+05
  -3.024410e+05  -1.963847e+05
  -1.355425e+05  -3.793467e+05
   2.279989e+05  -2.010635e+05
   4.101754e+05   1.445873e+05
   1.675460e+05   3.284828e+05
  -3.021197e+05   2.250041e+05
  -5.354112e+05  -2.546650e+04
  -2.940011e+05  -2.174325e+05
   1.694960e+05  -2.556208e+05
   3.814683e+05  -1.612470e+05
   1.641382e+05  -1.666565e+04
  -1.819392e+05   6.193719e+04
  -2.337584e+05  -9.372012e+03
   7.690934e+04  -1.611423e+05
   4.059291e+05  -1.715889e+05
