
 $NMID
 id='ANONYMOUS ', fmtdat='(2E16.6)'
 volume=1.0
 tramp=1.0
 $END
   2.163035e+07   1.208926e+06
   1.378771e+07   1.055358e+07
  -5.777942e+05   1.340243e+07
  -9.468341e+06   8.841908e+06
  -7.800914e+06   9.615884e+05
  -4.894958e+05  -3.830563e+06
   4.386180e+06  -2.034980e+06
   3.361745e+06   3.454916e+06
  -1.005245e+06   6.090836e+06
  -4.109740e+06   2.700985e+06
  -3.512278e+06  -2.991576e+06
  -3.202158e+05  -4.729152e+06
   2.239278e+06  -8.762491e+05
   1.704788e+06   4.017981e+06
  -1.335018e+06   4.603035e+06
  -3.676386e+06   3.808288e+05
  -2.635199e+06  -4.389636e+06
   1.148997e+06  -5.445549e+06
   4.312869e+06  -2.419929e+06
   4.219563e+06   1.542968e+06
   1.558439e+06   3.241977e+06
  -5.979321e+05   2.327384e+06
  -1.478935e+05   1.084626e+06
   1.811132e+06   1.593368e+06
   2.179426e+06   3.355694e+06
  -6.776958e+05   3.988884e+06
  -4.773941e+06   2.096445e+06
  -6.199204e+06  -1.092001e+06
  -3.244342e+06  -3.063090e+06
   1.468871e+06  -2.497130e+06
   3.516887e+06  -2.018552e+05
   1.308683e+06   1.840308e+06
  -2.378946e+06   1.944477e+06
  -3.663886e+06  -1.356131e+05
  -1.704103e+06  -2.760805e+06
   9.586823e+05  -3.457545e+06
   1.700194e+06  -1.372490e+06
   5.066371e+05   1.355279e+06
  -6.997802e+05   1.659866e+06
  -5.179159e+05  -7.666863e+05
   7.285918e+05  -2.856352e+06
   1.746189e+06  -1.867036e+06
   1.535821e+06   1.139616e+06
   8.555335e+04   2.577463e+06
  -1.524409e+06   7.358029e+05
  -1.694368e+06  -2.267164e+06
   2.956175e+05  -3.115579e+06
   3.101676e+06  -9.472856e+05
   4.081875e+06   2.113062e+06
   1.895347e+06   3.433608e+06
  -1.783898e+06   2.249917e+06
  -3.709118e+06  -1.066129e+05
  -2.345493e+06  -1.660248e+06
   6.304604e+05  -1.418384e+06
   2.242018e+06  -1.921317e+04
   1.298786e+06   1.000630e+06
  -6.720057e+05   6.979425e+05
  -1.363077e+06  -4.302942e+05
  -1.837750e+05  -1.093281e+06
   1.275552e+06  -5.912392e+05
   1.117321e+06   5.416082e+05
  -6.981874e+05   1.126702e+06
  -2.190920e+06   4.028234e+05
  -1.439783e+06  -1.318911e+06
   1.280913e+06  -2.753705e+06
   3.683375e+06  -2.515939e+06
   3.821878e+06  -3.544529e+05
   1.984650e+06   2.352151e+06
   6.644645e+04   3.699064e+06
  -6.242070e+05   3.093480e+06
  -4.925566e+05   1.741413e+06
  -6.957942e+05   1.079421e+06
  -1.604781e+06   1.054475e+06
  -2.478951e+06   4.530882e+05
  -2.363792e+06  -1.174856e+06
  -1.020100e+06  -2.576477e+06
   8.503925e+05  -2.148270e+06
   2.020125e+06   7.072769e+04
   1.555952e+06   2.213140e+06
  -3.357418e+05   2.429376e+06
  -2.224034e+06   6.652923e+05
  -2.588192e+06  -1.470734e+06
  -1.272044e+06  -2.390507e+06
   3.765079e+05  -1.897531e+06
   1.012620e+06  -1.002631e+06
   7.668330e+05  -6.596902e+05
   9.090959e+05  -8.315570e+05
   2.078597e+06  -7.085608e+05
   3.236175e+06   3.281655e+05
   2.696102e+06   1.994172e+06
   1.427111e+05   3.233136e+06
  -2.689491e+06   3.032859e+06
  -3.573096e+06   1.304080e+06
  -1.995311e+06  -8.655945e+05
   3.501674e+05  -1.948237e+06
   1.315863e+06  -1.285749e+06
   3.946704e+05   2.194610e+05
  -1.037512e+06   9.391888e+05
  -1.388922e+06   2.249785e+05
  -4.640861e+05  -8.828275e+05
   5.954373e+05  -9.010721e+05
   6.538830e+05   2.489085e+05
  -3.428511e+05   1.035010e+06
  -1.428209e+06   1.137202e+05
  -1.470535e+06  -1.959444e+06
  -7.867549e+04  -3.166563e+06
   1.984555e+06  -2.149266e+06
   3.227839e+06   3.700283e+05
   2.615376e+06   2.362973e+06
   5.986692e+05   2.495911e+06
  -1.166223e+06   1.225615e+06
  -1.385990e+06   5.495369e+04
  -3.999968e+05  -4.347349e+04
   2.964115e+05   5.963349e+05
  -2.206409e+05   9.417332e+05
  -1.290694e+06   4.315466e+05
  -1.508580e+06  -5.016152e+05
  -4.181284e+05  -9.616647e+05
   8.808861e+05  -5.266247e+05
   9.044532e+05   3.393084e+05
  -5.413509e+05   7.289060e+05
  -2.020364e+06   1.295049e+05
  -1.893275e+06  -1.084628e+06
  -4.649337e+04  -1.917661e+06
   1.923508e+06  -1.592010e+06
   2.302814e+06  -2.897111e+05
   9.510059e+05   9.159418e+05
  -6.687255e+05   1.020423e+06
  -1.043078e+06   9.305868e+04
  -3.572728e+04  -7.570751e+05
   1.183799e+06  -5.419301e+05
   1.402809e+06   5.326400e+05
   4.651053e+05   1.309061e+06
  -7.157320e+05   9.860214e+05
  -1.071935e+06  -7.430012e+03
  -3.787195e+05  -5.465306e+05
   5.223130e+05  -7.779683e+04
   5.353133e+05   8.214389e+05
  -5.290396e+05   1.109991e+06
  -1.647579e+06   3.508767e+05
  -1.600113e+06  -9.017449e+05
  -2.936628e+05  -1.646482e+06
   1.096850e+06  -1.316187e+06
   1.364158e+06  -2.411905e+05
   4.862454e+05   6.594428e+05
  -4.893936e+05   7.020449e+05
  -6.303111e+05   5.133194e+04
  -5.665709e+03  -4.967498e+05
   5.613761e+05  -3.863413e+05
   4.381343e+05   1.026511e+05
  -1.833130e+05   2.241815e+05
  -5.147630e+05  -3.079926e+05
   2.973680e+03  -9.180254e+05
   1.061389e+06  -7.677835e+05
   1.686452e+06   3.124191e+05
   1.168380e+06   1.573657e+06
  -1.930720e+05   2.018683e+06
  -1.350646e+06   1.301952e+06
  -1.535816e+06   1.354364e+04
  -9.381973e+05  -8.776911e+05
  -3.394407e+05  -8.913900e+05
  -2.068925e+05  -4.077352e+05
  -2.838586e+05  -1.808679e+05
  -3.492616e+04  -4.775571e+05
   6.454786e+05  -7.722288e+05
   1.227402e+06  -3.834219e+05
   1.024635e+06   6.326944e+05
  -9.642188e+04   1.381117e+06
  -1.432169e+06   1.009193e+06
  -1.916090e+06  -3.648892e+05
  -1.030538e+06  -1.684315e+06
   6.632925e+05  -1.914925e+06
   1.951496e+06  -9.557590e+05
   2.006289e+06   3.587648e+05
   1.040951e+06   1.086052e+06
  -2.495400e+04   9.957050e+05
  -4.757758e+05   6.274843e+05
  -3.593515e+05   5.970826e+05
  -2.399425e+05   8.935508e+05
  -5.105984e+05   9.145955e+05
  -9.705298e+05   2.057769e+05
  -1.045175e+06  -9.149684e+05
  -4.184254e+05  -1.570010e+06
   5.476209e+05  -1.174955e+06
   1.072769e+06  -2.708712e+04
   7.071991e+05   9.705373e+05
  -1.895248e+05   1.124616e+06
  -7.898483e+05   4.879865e+05
  -6.351465e+05  -3.214220e+05
  -6.600483e+04  -7.338871e+05
   2.205838e+05  -6.638341e+05
  -2.044764e+04  -4.293153e+05
  -3.118708e+05  -3.291822e+05
  -1.907529e+04  -3.359848e+05
   8.645671e+05  -1.917946e+05
   1.578614e+06   2.428792e+05
   1.315035e+06   7.841963e+05
   9.394901e+04   1.068487e+06
  -1.149757e+06   8.734939e+05
  -1.443044e+06   3.143999e+05
  -7.276016e+05  -2.258547e+05
   1.466941e+05  -3.769727e+05
   3.688447e+05  -9.829559e+04
  -3.710520e+04   2.365220e+05
  -4.261361e+05   1.758979e+05
  -3.698415e+05  -2.898914e+05
  -6.525833e+04  -6.380241e+05
   5.360006e+04  -4.062593e+05
  -1.274266e+05   1.706921e+05
  -3.346734e+05   3.561092e+05
  -2.500370e+05  -1.775440e+05
   1.919196e+05  -8.570901e+05
   7.430987e+05  -8.413105e+05
   9.635031e+05  -3.704040e+04
   5.318148e+05   7.687784e+05
  -3.559950e+05   8.052585e+05
  -9.486147e+05   1.312463e+05
  -5.768591e+05  -5.237939e+05
   5.488890e+05  -5.539484e+05
   1.367200e+06   1.652534e+04
   1.001835e+06   6.819644e+05
  -2.734204e+05   9.223998e+05
  -1.275513e+06   5.739891e+05
  -1.138644e+06  -6.630728e+04
  -1.771697e+05  -4.574636e+05
   5.223842e+05  -2.813969e+05
   2.705589e+05   2.052901e+05
  -5.538254e+05   3.608873e+05
  -9.663643e+05  -1.820178e+05
  -4.193542e+05  -1.040219e+06
   6.563139e+05  -1.353587e+06
   1.314166e+06  -6.232939e+05
   1.026933e+06   7.002251e+05
   1.233728e+05   1.528395e+06
  -6.390380e+05   1.141029e+06
  -7.949177e+05  -7.743141e+04
  -4.313346e+05  -9.905967e+05
   8.599281e+04  -8.697636e+05
   4.380544e+05  -1.095518e+05
   4.658741e+05   3.404559e+05
   2.244016e+05   1.450803e+05
   7.556449e+03  -1.065607e+05
   1.018069e+05   1.913489e+05
   3.648502e+05   7.906576e+05
   2.524463e+05   9.252855e+05
  -4.810774e+05   3.393253e+05
  -1.247571e+06  -4.142805e+05
  -1.162184e+06  -7.187441e+05
  -1.570217e+05  -5.664553e+05
   8.094114e+05  -3.289284e+05
   8.602025e+05  -1.716683e+05
   2.268821e+05  -1.615820e+03
  -1.600090e+05   1.776138e+05
   7.020070e+04   2.216165e+05
   3.300828e+05   1.418843e+05
  -2.901393e+03   1.196098e+05
  -6.755314e+05   1.430041e+05
  -8.605469e+05  -6.637202e+04
  -1.857421e+05  -5.717342e+05
   8.341456e+05  -8.991995e+05
   1.364504e+06  -5.098127e+05
   1.034313e+06   4.574290e+05
   1.524670e+05   1.199448e+06
  -6.459376e+05   1.092471e+06
  -8.878062e+05   3.499052e+05
  -5.571369e+05  -2.696370e+05
  -5.659492e+04  -3.011608e+05
   1.529127e+05   7.679359e+03
  -3.296803e+04   8.314397e+04
  -2.901940e+05  -2.816624e+05
  -2.281091e+05  -6.792254e+05
   1.887786e+05  -5.396265e+05
   5.863326e+05   1.886670e+05
   5.302997e+05   8.826039e+05
  -4.437759e+04   8.536464e+05
  -6.970518e+05   8.988273e+04
  -8.116298e+05  -7.201815e+05
  -1.946095e+05  -9.135955e+05
   6.306955e+05  -4.716247e+05
   8.816887e+05   1.230674e+05
   3.683721e+05   4.588307e+05
  -2.528702e+05   4.673068e+05
  -2.459996e+05   2.734372e+05
   2.950985e+05   4.750304e+04
   5.661506e+05  -3.871034e+02
   8.246012e+04   2.441314e+05
  -7.068235e+05   5.550983e+05
  -9.876388e+05   4.806948e+05
  -5.406779e+05  -1.009061e+05
   1.134358e+05  -6.865360e+05
   4.075423e+05  -6.602049e+05
   2.721970e+05  -5.721146e+04
  -1.528008e+04   4.381359e+05
  -2.295389e+05   3.082466e+05
  -2.955093e+05  -2.113627e+05
  -1.823258e+05  -4.918575e+05
   7.913714e+04  -2.827142e+05
   3.216661e+05   8.354581e+04
   3.593395e+05   1.932778e+05
   1.974941e+05   3.813126e+04
   1.685866e+04  -6.486795e+04
  -6.405176e+04   8.967500e+04
  -1.094539e+05   3.477585e+05
  -2.154534e+05   3.729070e+05
  -3.249281e+05   2.911703e+04
  -2.669922e+05  -4.260152e+05
   2.922673e+04  -5.596150e+05
   3.908337e+05  -2.110573e+05
   4.930730e+05   3.070815e+05
   1.536513e+05   5.184240e+05
  -4.107224e+05   2.765815e+05
  -6.867801e+05  -1.270275e+05
  -3.637835e+05  -3.321267e+05
   2.585183e+05  -2.649823e+05
   5.197425e+05  -9.676319e+04
   1.476014e+05   6.482279e+03
  -3.784631e+05  -1.593627e+04
  -3.733409e+05  -1.535731e+05
   2.191557e+05  -2.913738e+05
   7.443726e+05  -2.015758e+05
