
 $NMID
 id='ANONYMOUS ', fmtdat='(2E16.6)'
 volume=1.0
 tramp=1.0
 $END
  -2.933306e+07  -8.508082e+05
  -1.816362e+07  -1.571694e+07
   2.005765e+06  -1.870903e+07
   1.322795e+07  -1.021185e+07
   9.578354e+06   5.793420e+05
  -2.654976e+05   4.962970e+06
  -5.474911e+06   1.438934e+06
  -3.302133e+06  -4.712719e+06
   1.961801e+06  -6.817176e+06
   5.236120e+06  -2.641168e+06
   4.345874e+06   3.656098e+06
   5.222444e+05   5.617413e+06
  -2.646570e+06   1.326997e+06
  -2.038560e+06  -4.342919e+06
   1.745286e+06  -5.091437e+06
   4.575308e+06  -7.878786e+04
   3.106736e+06   5.624778e+06
  -1.644846e+06   6.862369e+06
  -5.577282e+06   3.238443e+06
  -5.715856e+06  -1.645527e+06
  -2.683646e+06  -4.221155e+06
   3.674701e+05  -3.734898e+06
   7.790474e+05  -2.101803e+06
  -1.109089e+06  -1.725679e+06
  -2.127642e+06  -3.068536e+06
   3.605889e+05  -4.135640e+06
   4.955824e+06  -2.766443e+06
   7.095660e+06   6.263923e+05
   4.181692e+06   3.294168e+06
  -1.093475e+06   3.156942e+06
  -3.654029e+06   8.177846e+05
  -1.670447e+06  -1.459176e+06
   1.964648e+06  -1.879507e+06
   3.452567e+06  -1.430797e+05
   1.954367e+06   2.479236e+06
  -5.179515e+05   3.676978e+06
  -1.745899e+06   1.972363e+06
  -1.153839e+06  -1.145849e+06
   1.845456e+05  -2.167793e+06
   6.538350e+05   2.029247e+05
  -4.120536e+05   2.865958e+06
  -1.869718e+06   2.038623e+06
  -1.756242e+06  -1.553011e+06
   4.136492e+05  -3.320291e+06
   2.666694e+06  -7.645514e+05
   2.436932e+06   3.284467e+06
  -6.274809e+05   4.285427e+06
  -4.054940e+06   1.302121e+06
  -4.785498e+06  -2.550816e+06
  -1.989632e+06  -3.972954e+06
   2.101562e+06  -2.416943e+06
   4.077974e+06   3.074839e+05
   2.427460e+06   1.993773e+06
  -9.813344e+05   1.595691e+06
  -2.742480e+06  -1.421500e+05
  -1.461175e+06  -1.345345e+06
   8.911487e+05  -8.549615e+05
   1.469949e+06   5.234408e+05
  -8.856490e+04   1.043539e+06
  -1.489010e+06   1.332280e+05
  -7.424785e+05  -1.090020e+06
   1.507851e+06  -1.264973e+06
   2.836449e+06  -6.303156e+04
   1.647980e+06   1.864426e+06
  -1.362372e+06   3.362769e+06
  -3.980563e+06   3.150420e+06
  -4.398338e+06   7.414085e+05
  -2.629826e+06  -2.539871e+06
  -3.343645e+05  -4.295480e+06
   8.182970e+05  -3.499434e+06
   6.990151e+05  -1.658596e+06
   5.370661e+05  -8.532680e+05
   1.254709e+06  -1.141201e+06
   2.348982e+06  -8.410899e+05
   2.566315e+06   8.273667e+05
   1.349100e+06   2.471718e+06
  -6.096317e+05   2.231703e+06
  -1.967285e+06   6.226356e+04
  -1.688017e+06  -2.175460e+06
   1.973779e+05  -2.598095e+06
   2.373640e+06  -9.512693e+05
   3.085728e+06   1.383537e+06
   1.762091e+06   2.711631e+06
  -2.875123e+05   2.439695e+06
  -1.291512e+06   1.393793e+06
  -1.074371e+06   7.733354e+05
  -1.089648e+06   8.308354e+05
  -2.271821e+06   7.288658e+05
  -3.535326e+06  -3.358716e+05
  -2.967279e+06  -2.117739e+06
  -2.356480e+05  -3.478374e+06
   2.763293e+06  -3.355250e+06
   3.738493e+06  -1.611092e+06
   2.209851e+06   7.327079e+05
  -1.641251e+05   2.068840e+06
  -1.263519e+06   1.495238e+06
  -4.483414e+05  -1.747882e+05
   1.043485e+06  -1.069503e+06
   1.521024e+06  -3.031383e+05
   5.937011e+05   9.607668e+05
  -5.642477e+05   9.844869e+05
  -6.242345e+05  -2.583489e+05
   4.631735e+05  -9.817968e+05
   1.518449e+06   1.420092e+05
   1.361757e+06   2.257625e+06
  -1.736518e+05   3.246334e+06
  -2.177940e+06   2.015217e+06
  -3.299178e+06  -4.993729e+05
  -2.663749e+06  -2.398998e+06
  -6.600678e+05  -2.545014e+06
   1.167606e+06  -1.337430e+06
   1.454519e+06  -1.357713e+05
   4.288368e+05   3.313273e+04
  -3.322596e+05  -6.326641e+05
   2.425734e+05  -1.049555e+06
   1.436627e+06  -5.029166e+05
   1.659988e+06   5.542615e+05
   4.420761e+05   1.063871e+06
  -9.444213e+05   5.698112e+05
  -9.274417e+05  -3.413025e+05
   5.907129e+05  -7.101881e+05
   2.081160e+06  -9.839670e+04
   1.927682e+06   1.098964e+06
   4.565713e+04   1.958523e+06
  -1.991760e+06   1.691950e+06
  -2.438332e+06   3.590881e+05
  -1.050382e+06  -9.824589e+05
   7.108369e+05  -1.161602e+06
   1.173588e+06  -1.406883e+05
   9.123153e+04   8.435647e+05
  -1.264391e+06   6.274710e+05
  -1.510878e+06  -5.566642e+05
  -4.824959e+05  -1.390859e+06
   7.788689e+05  -1.018798e+06
   1.127020e+06   4.269187e+04
   3.699164e+05   5.934726e+05
  -5.896201e+05   8.626740e+04
  -6.125855e+05  -8.740311e+05
   5.183207e+05  -1.216687e+06
   1.749501e+06  -4.476323e+05
   1.752798e+06   9.061746e+05
   3.654510e+05   1.763149e+06
  -1.155199e+06   1.442183e+06
  -1.460331e+06   2.769703e+05
  -5.162501e+05  -7.019922e+05
   5.147190e+05  -7.501194e+05
   6.414699e+05  -7.820475e+04
  -2.904235e+03   4.738462e+05
  -5.407113e+05   3.743214e+05
  -3.811911e+05  -7.628377e+04
   2.319636e+05  -1.636309e+05
   5.285522e+05   3.766081e+05
  -2.230910e+04   9.905427e+05
  -1.128578e+06   8.393085e+05
  -1.813137e+06  -2.920405e+05
  -1.300610e+06  -1.650939e+06
   1.423678e+05  -2.150335e+06
   1.392609e+06  -1.389884e+06
   1.594684e+06  -3.097026e+04
   9.661712e+05   8.652087e+05
   3.746454e+05   8.431543e+05
   2.872087e+05   3.717346e+05
   3.683233e+05   2.101717e+05
   5.867076e+04   5.493083e+05
  -6.847812e+05   8.319452e+05
  -1.284733e+06   4.142749e+05
  -1.068289e+06  -6.303506e+05
   8.766666e+04  -1.424024e+06
   1.489978e+06  -1.083789e+06
   2.034261e+06   3.403541e+05
   1.120144e+06   1.774744e+06
  -6.970077e+05   2.065019e+06
  -2.087465e+06   1.043422e+06
  -2.125162e+06  -3.718491e+05
  -1.072177e+06  -1.125663e+06
   3.164471e+04  -1.000173e+06
   4.423261e+05  -6.302897e+05
   2.867843e+05  -6.595323e+05
   1.920496e+05  -1.011627e+06
   5.317505e+05  -1.027866e+06
   1.054888e+06  -2.607600e+05
   1.156253e+06   9.388063e+05
   5.028525e+05   1.658975e+06
  -5.397839e+05   1.271144e+06
  -1.137917e+06   5.268003e+04
  -7.696644e+05  -1.035979e+06
   2.052760e+05  -1.207674e+06
   8.691223e+05  -4.977536e+05
   6.893782e+05   3.928305e+05
   4.323709e+04   8.172780e+05
  -2.749199e+05   7.035401e+05
   1.180880e+04   4.313871e+05
   3.553772e+05   3.282633e+05
   3.894221e+04   3.525995e+05
  -9.371836e+05   2.228940e+05
  -1.721186e+06  -2.234190e+05
  -1.427288e+06  -8.162822e+05
  -9.496394e+04  -1.163756e+06
   1.244160e+06  -9.788145e+05
   1.544241e+06  -3.525227e+05
   7.667182e+05   2.676241e+05
  -1.658062e+05   4.293560e+05
  -4.028272e+05   9.526441e+04
   1.795375e+04  -2.844512e+05
   4.328407e+05  -2.114757e+05
   4.101559e+05   2.962154e+05
   1.287194e+05   6.693973e+05
  -8.458227e+03   4.342400e+05
   1.247048e+05  -1.606153e+05
   3.148809e+05  -3.601531e+05
   2.651597e+05   1.850387e+05
  -1.572592e+05   9.084917e+05
  -7.670929e+05   9.288366e+05
  -1.071740e+06   9.419184e+04
  -6.368905e+05  -8.029409e+05
   3.544982e+05  -9.058468e+05
   1.034407e+06  -2.067767e+05
   6.391111e+05   5.272205e+05
  -5.762268e+05   6.003167e+05
  -1.439538e+06   6.660796e+03
  -1.038726e+06  -7.013326e+05
   2.966434e+05  -9.580699e+05
   1.326760e+06  -5.999505e+05
   1.178881e+06   5.980102e+04
   1.843673e+05   4.712642e+05
  -5.506512e+05   2.981904e+05
  -3.065388e+05  -2.223263e+05
   5.608393e+05  -4.225099e+05
   1.040567e+06   1.324988e+05
   5.178930e+05   1.080183e+06
  -6.112962e+05   1.480673e+06
  -1.358333e+06   7.366684e+05
  -1.119870e+06  -6.938582e+05
  -1.911801e+05  -1.611667e+06
   6.370413e+05  -1.214733e+06
   8.387794e+05   7.775077e+04
   4.675231e+05   1.039007e+06
  -9.176953e+04   9.068793e+05
  -4.701716e+05   1.174964e+05
  -4.836598e+05  -3.386026e+05
  -2.180945e+05  -1.365677e+05
  -1.374181e+04   1.048227e+05
  -1.507750e+05  -2.193555e+05
  -4.286320e+05  -8.351011e+05
  -2.695853e+05  -9.659440e+05
   5.342316e+05  -3.694004e+05
   1.333818e+06   3.944924e+05
   1.229593e+06   7.203855e+05
   1.827928e+05   6.019082e+05
  -8.219609e+05   3.825839e+05
  -8.969075e+05   2.036168e+05
  -2.618223e+05  -6.775606e+03
   1.534848e+05  -1.976805e+05
  -5.289974e+04  -2.159039e+05
  -3.242248e+05  -1.192635e+05
  -1.429255e+04  -1.258207e+05
   6.779745e+05  -1.918959e+05
   9.219127e+05   2.738645e+04
   2.675499e+05   6.080554e+05
  -8.212313e+05   1.009793e+06
  -1.453771e+06   6.191540e+05
  -1.159164e+06  -4.283158e+05
  -2.230993e+05  -1.264124e+06
   6.524386e+05  -1.198046e+06
   9.316747e+05  -4.298490e+05
   5.993292e+05   2.460128e+05
   8.633556e+04   3.191315e+05
  -1.355926e+05   1.824836e+04
   4.136024e+04  -6.736214e+04
   3.044020e+05   2.971685e+05
   2.567917e+05   7.129264e+05
  -1.726143e+05   5.887802e+05
  -6.258108e+05  -1.547659e+05
  -6.201375e+05  -8.963575e+05
  -2.305059e+04  -9.145116e+05
   7.196665e+05  -1.555062e+05
   9.044474e+05   7.042902e+05
   2.655941e+05   9.660451e+05
  -6.468609e+05   5.512782e+05
  -9.587527e+05  -8.553009e+04
  -4.280993e+05  -4.944745e+05
   2.525234e+05  -5.358627e+05
   2.759504e+05  -3.070303e+05
  -2.883043e+05  -2.643770e+04
  -5.950038e+05   2.892975e+04
  -1.074947e+05  -2.619951e+05
   7.286324e+05  -6.160639e+05
   1.053923e+06  -5.305844e+05
   6.066648e+05   1.077448e+05
  -8.973924e+04   7.463734e+05
  -4.307905e+05   7.301800e+05
  -3.157894e+05   9.180208e+04
  -1.752196e+04  -4.556009e+05
   2.262475e+05  -3.530844e+05
   3.224963e+05   1.872071e+05
   2.189460e+05   5.146496e+05
  -6.597375e+04   3.273853e+05
  -3.472018e+05  -6.407847e+04
  -3.988991e+05  -2.081681e+05
  -2.115558e+05  -4.794209e+04
  -2.952456e+03   8.991646e+04
   6.358312e+04  -5.709304e+04
   6.592554e+04  -3.593465e+05
   1.640003e+05  -4.351899e+05
   3.296502e+05  -9.170222e+04
   3.370021e+05   4.123477e+05
   3.836167e+04   5.938040e+05
  -3.940206e+05   2.545050e+05
  -5.554621e+05  -2.886942e+05
  -1.994690e+05  -5.349253e+05
   4.327017e+05  -3.157980e+05
   7.517460e+05   9.400861e+04
   4.092321e+05   3.370241e+05
  -2.639239e+05   3.124463e+05
  -5.562363e+05   1.491115e+05
  -1.774876e+05   3.207055e+03
   3.757758e+05  -2.096382e+04
   3.936044e+05   1.180831e+05
  -1.969480e+05   3.030830e+05
  -7.453426e+05   2.491934e+05
