
 $NMID
 id='ANONYMOUS ', fmtdat='(2E16.6)'
 volume=1.0
 tramp=1.0
 $END
  -5.865702e+07  -5.170707e+05
  -3.483044e+07  -3.712588e+07
   8.479977e+06  -3.982717e+07
   2.912334e+07  -1.454164e+07
   1.696757e+07   7.994772e+06
  -3.785480e+06   9.683773e+06
  -1.019433e+07  -1.719172e+06
  -2.492902e+06  -1.029100e+07
   6.790490e+06  -9.362219e+06
   1.006117e+07  -1.713113e+06
   7.097222e+06   6.478612e+06
   7.243430e+05   8.788537e+06
  -4.095763e+06   2.824249e+06
  -2.554017e+06  -5.462633e+06
   4.052975e+06  -6.511016e+06
   8.119348e+06   1.612548e+06
   4.380809e+06   1.064150e+07
  -4.134202e+06   1.213490e+07
  -1.054340e+07   6.009616e+06
  -1.121574e+07  -2.164280e+06
  -6.936872e+06  -7.809654e+06
  -7.569127e+05  -9.132572e+06
   3.203930e+06  -6.456513e+06
   2.300557e+06  -2.765553e+06
  -8.536090e+05  -1.967952e+06
  -2.744284e+05  -4.030987e+06
   5.337252e+06  -4.417534e+06
   9.728368e+06  -5.308905e+05
   7.200030e+06   4.198402e+06
   4.001801e+05   5.177820e+06
  -3.619654e+06   2.703300e+06
  -2.499213e+06   2.190702e+05
   3.974216e+05  -7.308158e+05
   2.020969e+06  -4.771278e+05
   2.123753e+06   1.251446e+06
   8.016163e+05   3.835176e+06
  -1.789162e+06   3.992689e+06
  -3.436788e+06   3.875227e+04
  -1.911938e+06  -3.747495e+06
   7.725578e+05  -2.183645e+06
   4.039416e+05   2.307088e+06
  -2.506714e+06   2.235694e+06
  -2.442380e+06  -3.377775e+06
   2.729159e+06  -6.354883e+06
   7.400451e+06  -9.586627e+05
   5.296368e+06   7.316560e+06
  -2.139417e+06   8.890152e+06
  -7.733315e+06   2.427736e+06
  -7.007952e+06  -4.693171e+06
  -1.684606e+06  -6.192544e+06
   3.623229e+06  -2.627970e+06
   5.265655e+06   1.745782e+06
   2.306807e+06   3.653778e+06
  -2.591779e+06   2.198212e+06
  -4.653383e+06  -1.070068e+06
  -1.935079e+06  -2.874557e+06
   1.807292e+06  -1.387489e+06
   1.716334e+06   1.100549e+06
  -1.488009e+06   8.671313e+05
  -2.549485e+06  -2.015600e+06
   8.272141e+05  -3.701518e+06
   4.981175e+06  -1.905602e+06
   5.509186e+06   1.586672e+06
   2.307919e+06   4.205814e+06
  -1.881349e+06   5.365213e+06
  -5.072858e+06   4.876153e+06
  -6.293001e+06   1.761369e+06
  -4.691288e+06  -3.207602e+06
  -9.255037e+05  -6.277675e+06
   2.031930e+06  -4.802574e+06
   1.903242e+06  -1.104042e+06
   1.178240e+05   4.211362e+05
  -2.013759e+05  -9.064661e+05
   1.461986e+06  -1.841865e+06
   2.760202e+06  -3.492258e+05
   2.034003e+06   1.821671e+06
   8.267007e+04   2.066843e+06
  -1.452186e+06   1.888351e+05
  -1.595198e+06  -2.037178e+06
   1.319076e+04  -2.906077e+06
   2.769846e+06  -1.673963e+06
   4.534402e+06   1.186194e+06
   3.303166e+06   3.848202e+06
  -4.474304e+04   4.377099e+06
  -2.390677e+06   2.818872e+06
  -2.363238e+06   1.140394e+06
  -1.914096e+06   6.202802e+05
  -2.983420e+06   3.835364e+05
  -4.356685e+06  -8.783669e+05
  -3.436060e+06  -2.857359e+06
  -4.021032e+04  -4.131827e+06
   3.265405e+06  -3.835680e+06
   4.173932e+06  -2.076358e+06
   2.650202e+06   4.047360e+05
   2.993347e+05   2.206079e+06
  -1.077893e+06   1.934856e+06
  -5.660217e+05  -2.128491e+04
   1.091405e+06  -1.297464e+06
   1.931557e+06  -3.742757e+05
   9.344273e+05   1.229374e+06
  -5.175340e+05   1.098916e+06
  -3.805584e+05  -4.141353e+05
   1.159780e+06  -6.227177e+05
   1.861758e+06   1.477699e+06
   4.614574e+05   3.630518e+06
  -1.855388e+06   3.346398e+06
  -3.262104e+06   8.860352e+05
  -3.214413e+06  -1.636206e+06
  -2.101532e+06  -2.807406e+06
  -3.540080e+05  -2.570392e+06
   1.251564e+06  -1.426904e+06
   1.565262e+06  -2.088177e+05
   4.920352e+05   5.611202e+04
  -3.409454e+05  -7.633130e+05
   4.582220e+05  -1.357270e+06
   1.960142e+06  -5.471109e+05
   2.042159e+06   9.650134e+05
   3.414527e+05   1.458392e+06
  -1.199494e+06   5.368343e+05
  -8.525810e+05  -4.862038e+05
   8.928059e+05  -4.570385e+05
   2.146776e+06   4.385031e+05
   1.641004e+06   1.413795e+06
  -3.418794e+05   1.924245e+06
  -2.349255e+06   1.562146e+06
  -2.778752e+06   1.968351e+05
  -1.198379e+06  -1.313330e+06
   9.638146e+05  -1.516926e+06
   1.601826e+06  -1.685424e+05
   1.993770e+05   1.104036e+06
  -1.544318e+06   7.133192e+05
  -1.705494e+06  -8.415996e+05
  -2.679913e+05  -1.674800e+06
   1.151174e+06  -9.250319e+05
   1.250336e+06   3.855324e+05
   1.993559e+05   8.086166e+05
  -8.220159e+05   3.289976e+04
  -7.254678e+05  -1.078773e+06
   5.998956e+05  -1.422110e+06
   2.022442e+06  -5.125327e+05
   2.026049e+06   1.091824e+06
   3.401680e+05   2.097186e+06
  -1.496193e+06   1.619001e+06
  -1.745453e+06   1.581534e+05
  -4.704565e+05  -8.936035e+05
   6.893517e+05  -7.826355e+05
   6.171665e+05  -6.096547e+04
  -1.498300e+05   3.257894e+05
  -4.747287e+05   1.562576e+05
  -6.175540e+04  -6.747776e+04
   4.851180e+05   1.336440e+05
   4.916614e+05   7.299410e+05
  -2.638855e+05   1.197223e+06
  -1.419987e+06   8.590077e+05
  -2.079852e+06  -4.693767e+05
  -1.427687e+06  -1.985136e+06
   2.726233e+05  -2.414112e+06
   1.650038e+06  -1.350445e+06
   1.665348e+06   1.906822e+05
   7.931630e+05   8.984078e+05
   2.808259e+05   5.997909e+05
   5.000971e+05   1.874769e+05
   6.622852e+05   3.373399e+05
   8.268219e+04   7.930498e+05
  -9.131698e+05   8.766625e+05
  -1.453709e+06   2.682416e+05
  -1.003494e+06  -7.451853e+05
   3.092346e+05  -1.425171e+06
   1.749580e+06  -1.008802e+06
   2.227448e+06   5.455237e+05
   1.067559e+06   2.139591e+06
  -1.097408e+06   2.353126e+06
  -2.597685e+06   9.547555e+05
  -2.328323e+06  -7.514194e+05
  -8.790469e+05  -1.371243e+06
   2.596352e+05  -9.054379e+05
   3.781257e+05  -4.608504e+05
   4.262939e+04  -7.503206e+05
   1.026901e+05  -1.335635e+06
   7.059965e+05  -1.301311e+06
   1.318509e+06  -3.008170e+05
   1.323681e+06   1.106859e+06
   5.204233e+05   1.906892e+06
  -6.492538e+05   1.425119e+06
  -1.284803e+06  -3.813019e+04
  -7.773065e+05  -1.320603e+06
   4.478683e+05  -1.395385e+06
   1.207319e+06  -3.531336e+05
   8.062888e+05   7.633193e+05
  -1.768181e+05   1.105010e+06
  -5.969852e+05   7.707420e+05
  -1.135225e+05   3.999692e+05
   4.335808e+05   3.353217e+05
   5.650661e+04   3.807185e+05
  -1.170528e+06   1.813890e+05
  -2.080897e+06  -3.843119e+05
  -1.599216e+06  -1.088437e+06
   9.315183e+04  -1.459507e+06
   1.646666e+06  -1.120526e+06
   1.854186e+06  -2.199448e+05
   8.185258e+05   5.499276e+05
  -2.860040e+05   5.826395e+05
  -5.245723e+05   9.121180e+03
  -3.555269e+04  -4.428837e+05
   4.362771e+05  -2.552573e+05
   4.799973e+05   3.508577e+05
   2.665809e+05   7.181114e+05
   1.128304e+05   4.770625e+05
   1.384611e+05  -7.229726e+04
   2.666707e+05  -2.604273e+05
   2.657933e+05   2.423270e+05
  -1.485343e+05   9.737426e+05
  -9.228506e+05   1.055225e+06
  -1.399511e+06   1.714924e+05
  -8.698364e+05  -9.278129e+05
   4.349304e+05  -1.160722e+06
   1.283397e+06  -3.447582e+05
   7.278144e+05   5.776039e+05
  -7.247145e+05   6.297108e+05
  -1.576282e+06  -1.475491e+05
  -9.483939e+05  -8.974973e+05
   5.384619e+05  -9.569069e+05
   1.505860e+06  -4.022903e+05
   1.203395e+06   2.433316e+05
   1.061681e+05   5.112933e+05
  -6.610450e+05   2.407054e+05
  -3.904647e+05  -3.115293e+05
   5.783128e+05  -5.275683e+05
   1.184907e+06   7.564999e+04
   6.831941e+05   1.178414e+06
  -5.794456e+05   1.706765e+06
  -1.480007e+06   8.866193e+05
  -1.246380e+06  -7.642358e+05
  -1.783198e+05  -1.787333e+06
   7.631776e+05  -1.262658e+06
   9.169638e+05   2.164934e+05
   3.856069e+05   1.204433e+06
  -2.700030e+05   9.487829e+05
  -5.740785e+05   6.081956e+04
  -4.351633e+05  -3.814956e+05
  -1.339019e+05  -1.332255e+05
  -6.104563e+04   8.671647e+04
  -3.145143e+05  -3.164027e+05
  -5.084722e+05  -9.820043e+05
  -1.391613e+05  -1.077159e+06
   7.595154e+05  -3.786959e+05
   1.461298e+06   4.884501e+05
   1.234106e+06   8.594373e+05
   1.699420e+05   7.086103e+05
  -8.310498e+05   4.081040e+05
  -9.767481e+05   1.552400e+05
  -3.853700e+05  -7.494593e+04
   1.371987e+05  -2.262435e+05
   7.443565e+04  -1.887354e+05
  -2.252121e+05  -7.930908e+04
  -6.377599e+04  -1.309305e+05
   6.234869e+05  -2.416572e+05
   1.052571e+06   1.058420e+04
   4.837533e+05   7.020147e+05
  -8.164197e+05   1.193788e+06
  -1.735508e+06   7.718655e+05
  -1.458290e+06  -4.203992e+05
  -2.788806e+05  -1.403762e+06
   7.909009e+05  -1.385475e+06
   1.056164e+06  -5.580407e+05
   6.482342e+05   2.157332e+05
   1.487612e+05   3.603167e+05
  -3.504287e+04   8.880031e+04
   9.565595e+04   1.103900e+04
   2.793788e+05   3.841993e+05
   2.245344e+05   8.129493e+05
  -1.758386e+05   6.881070e+05
  -6.728886e+05  -9.763514e+04
  -7.592057e+05  -9.292995e+05
  -1.569551e+05  -1.037621e+06
   7.294001e+05  -2.843304e+05
   1.046541e+06   6.887351e+05
   3.720537e+05   1.095140e+06
  -7.099975e+05   7.069388e+05
  -1.141356e+06  -6.686409e+04
  -5.549487e+05  -6.440345e+05
   2.923563e+05  -7.167185e+05
   4.159683e+05  -3.772481e+05
  -2.096541e+05   3.309570e+03
  -6.411336e+05   4.255767e+04
  -1.591871e+05  -3.164366e+05
   8.309485e+05  -6.714391e+05
   1.298849e+06  -5.077860e+05
   8.027965e+05   2.103175e+05
  -9.619599e+04   8.864868e+05
  -5.904378e+05   8.731072e+05
  -4.651827e+05   1.901131e+05
  -7.251862e+04  -4.638508e+05
   2.330424e+05  -4.568843e+05
   3.493160e+05   1.135437e+05
   2.589022e+05   5.780065e+05
  -4.324832e+04   4.603572e+05
  -3.930236e+05  -2.991554e+04
  -4.895301e+05  -3.069211e+05
  -2.440267e+05  -1.195276e+05
   5.301843e+04   1.779727e+05
   8.534616e+04   1.015388e+05
  -6.040673e+04  -3.297862e+05
  -2.129361e+04  -5.887996e+05
   2.951978e+05  -2.838784e+05
   5.058739e+05   3.360653e+05
   2.210145e+05   6.418584e+05
  -3.904212e+05   3.328048e+05
  -6.900056e+05  -2.552339e+05
  -2.729432e+05  -5.597778e+05
   5.199884e+05  -3.723278e+05
   9.067070e+05   5.837523e+04
   4.915691e+05   3.774881e+05
  -2.936693e+05   4.294237e+05
  -6.498980e+05   2.635761e+05
  -2.803330e+05   2.543916e+04
   3.051004e+05  -9.769133e+04
   3.913543e+05   2.209224e+04
  -1.353697e+05   2.660297e+05
  -6.896518e+05   2.727775e+05
