
 $NMID
 id='ANONYMOUS ', fmtdat='(2E16.6)'
 volume=1.0
 tramp=1.0
 $END
  -1.862289e+07   5.232024e+05
  -1.277316e+07  -8.280197e+06
  -4.391902e+05  -1.178015e+07
   7.792606e+06  -8.227552e+06
   6.838755e+06  -1.134053e+06
   6.037624e+05   3.371930e+06
  -3.780559e+06   1.919342e+06
  -3.066760e+06  -2.906915e+06
   6.634212e+05  -5.310243e+06
   3.464615e+06  -2.510220e+06
   3.158267e+06   2.361700e+06
   5.086416e+05   3.992622e+06
  -1.826328e+06   8.683176e+05
  -1.589623e+06  -3.313090e+06
   9.739108e+05  -3.983193e+06
   3.173841e+06  -5.067730e+05
   2.508778e+06   3.638559e+06
  -6.798465e+05   4.753270e+06
  -3.534817e+06   2.350795e+06
  -3.685340e+06  -1.006561e+06
  -1.581794e+06  -2.598831e+06
   2.498828e+05  -2.023816e+06
   3.208681e+03  -1.057385e+06
  -1.536556e+06  -1.394868e+06
  -1.872276e+06  -2.758299e+06
   4.364373e+05  -3.336905e+06
   3.886857e+06  -1.939624e+06
   5.229598e+06   6.262893e+05
   2.884972e+06   2.389554e+06
  -1.068200e+06   2.123846e+06
  -2.879887e+06   3.068178e+05
  -1.115581e+06  -1.446656e+06
   1.937370e+06  -1.633387e+06
   3.034005e+06   3.740384e+04
   1.476378e+06   2.229766e+06
  -6.681982e+05   2.883732e+06
  -1.320188e+06   1.235405e+06
  -4.686121e+05  -1.030187e+06
   4.523084e+05  -1.374796e+06
   3.884458e+05   5.808991e+05
  -5.241788e+05   2.377741e+06
  -1.408036e+06   1.637486e+06
  -1.384590e+06  -9.170839e+05
  -1.998666e+05  -2.273678e+06
   1.328339e+06  -8.050506e+05
   1.654899e+06   1.829767e+06
  -4.191072e+04   2.739338e+06
  -2.595506e+06   1.015578e+06
  -3.580659e+06  -1.613518e+06
  -1.750924e+06  -2.860831e+06
   1.443065e+06  -1.984648e+06
   3.168151e+06  -3.464520e+04
   2.058742e+06   1.348280e+06
  -4.944031e+05   1.262439e+06
  -1.934495e+06   1.244587e+05
  -1.169158e+06  -8.093020e+05
   5.412651e+05  -6.399605e+05
   1.174041e+06   3.209659e+05
   1.573449e+05   9.466058e+05
  -1.130121e+06   5.274021e+05
  -1.000395e+06  -5.101538e+05
   5.905518e+05  -1.077245e+06
   1.914478e+06  -4.547323e+05
   1.325119e+06   1.079490e+06
  -9.359525e+05   2.392180e+06
  -2.970489e+06   2.279553e+06
  -3.187771e+06   4.876441e+05
  -1.787264e+06  -1.856627e+06
  -2.377947e+05  -3.107922e+06
   4.093143e+05  -2.664052e+06
   3.948609e+05  -1.497170e+06
   5.783408e+05  -8.900800e+05
   1.291450e+06  -8.848612e+05
   2.015088e+06  -4.465460e+05
   1.982147e+06   8.842121e+05
   9.247374e+05   2.092512e+06
  -6.387357e+05   1.799543e+06
  -1.679344e+06  -1.062467e+04
  -1.363343e+06  -1.803963e+06
   1.943233e+05  -2.041945e+06
   1.825244e+06  -6.485603e+05
   2.228758e+06   1.104463e+06
   1.197245e+06   1.934017e+06
  -1.950891e+05   1.624445e+06
  -7.925605e+05   9.266134e+05
  -6.320386e+05   6.198594e+05
  -7.550560e+05   7.443572e+05
  -1.739271e+06   6.717816e+05
  -2.747086e+06  -1.598463e+05
  -2.346253e+06  -1.583756e+06
  -2.346628e+05  -2.716859e+06
   2.150696e+06  -2.642565e+06
   2.942100e+06  -1.221321e+06
   1.693168e+06   6.442861e+05
  -2.212269e+05   1.628955e+06
  -1.045009e+06   1.117478e+06
  -3.341454e+05  -1.657494e+05
   8.333563e+05  -8.226390e+05
   1.159832e+06  -2.436911e+05
   4.287167e+05   7.188875e+05
  -4.666145e+05   7.721215e+05
  -5.549893e+05  -1.985260e+05
   2.780029e+05  -8.907520e+05
   1.236868e+06  -1.259591e+05
   1.315297e+06   1.644012e+06
   1.369706e+05   2.697399e+06
  -1.645858e+06   1.871201e+06
  -2.743040e+06  -2.321890e+05
  -2.262288e+06  -1.919454e+06
  -5.728956e+05  -2.078578e+06
   9.363972e+05  -1.064911e+06
   1.157080e+06  -9.299661e+04
   3.375229e+05   2.259182e+04
  -2.701963e+05  -4.918296e+05
   1.504750e+05  -8.062319e+05
   1.074210e+06  -4.166310e+05
   1.295818e+06   3.694162e+05
   3.887362e+05   8.015291e+05
  -7.264866e+05   4.743326e+05
  -7.701105e+05  -2.612095e+05
   4.432799e+05  -6.313098e+05
   1.703211e+06  -1.632386e+05
   1.621424e+06   8.630229e+05
   9.008219e+04   1.613516e+06
  -1.569976e+06   1.398976e+06
  -1.927733e+06   3.201954e+05
  -8.356338e+05  -7.382508e+05
   5.220208e+05  -8.874508e+05
   8.760693e+05  -1.227409e+05
   6.245090e+04   6.335350e+05
  -9.759693e+05   4.992626e+05
  -1.201402e+06  -4.017848e+05
  -4.336533e+05  -1.091914e+06
   5.778119e+05  -8.558856e+05
   9.090872e+05  -2.407454e+04
   3.366721e+05   4.545580e+05
  -4.405281e+05   8.711351e+04
  -4.813190e+05  -6.710646e+05
   4.036782e+05  -9.509822e+05
   1.370207e+06  -3.535077e+05
   1.376358e+06   7.001657e+05
   3.056096e+05   1.374622e+06
  -8.776615e+05   1.147565e+06
  -1.141849e+06   2.497951e+05
  -4.314883e+05  -5.414101e+05
   3.901317e+05  -6.078301e+05
   5.257954e+05  -6.093805e+04
   1.290668e+04   4.174692e+05
  -4.632934e+05   3.348227e+05
  -3.640799e+05  -8.186292e+04
   1.595934e+05  -1.958395e+05
   4.500590e+05   2.487582e+05
   2.794436e+04   7.787009e+05
  -8.684853e+05   6.839649e+05
  -1.430074e+06  -2.044855e+05
  -1.037785e+06  -1.282219e+06
   9.385670e+04  -1.702649e+06
   1.095255e+06  -1.137244e+06
   1.291777e+06  -5.673007e+04
   8.094167e+05   7.108486e+05
   3.022494e+05   7.334717e+05
   1.837485e+05   3.249301e+05
   2.519908e+05   1.358123e+05
   5.183372e+04   4.017292e+05
  -5.184659e+05   6.733788e+05
  -1.021937e+06   3.612316e+05
  -8.788460e+05  -5.013008e+05
   4.176651e+04  -1.164704e+06
   1.173421e+06  -8.947274e+05
   1.623285e+06   2.439530e+05
   9.237010e+05   1.385004e+06
  -4.943029e+05   1.639029e+06
  -1.614367e+06   8.730117e+05
  -1.703843e+06  -2.390486e+05
  -9.078418e+05  -8.864669e+05
  -2.833028e+03  -8.386972e+05
   3.825987e+05  -5.344918e+05
   2.752031e+05  -5.046029e+05
   1.619481e+05  -7.575717e+05
   3.937771e+05  -7.905308e+05
   8.087529e+05  -2.104954e+05
   9.101526e+05   7.310383e+05
   4.058603e+05   1.304011e+06
  -4.192606e+05   1.005419e+06
  -9.017037e+05   5.835364e+04
  -6.299567e+05  -7.947759e+05
   1.225982e+05  -9.569628e+05
   6.559160e+05  -4.400217e+05
   5.543254e+05   2.522721e+05
   8.257779e+04   6.234482e+05
  -1.677546e+05   5.729019e+05
   2.706694e+04   3.616306e+05
   2.725030e+05   2.633685e+05
   2.750004e+04   2.802879e+05
  -7.224301e+05   1.933487e+05
  -1.338837e+06  -1.464699e+05
  -1.135126e+06  -6.150275e+05
  -1.170092e+05  -9.016853e+05
   9.375448e+05  -7.805077e+05
   1.206639e+06  -3.141987e+05
   6.248911e+05   1.700187e+05
  -1.085433e+05   3.261046e+05
  -3.101821e+05   9.572951e+04
   1.794591e+04  -1.999935e+05
   3.495666e+05  -1.609806e+05
   3.209957e+05   2.298523e+05
   7.806048e+04   5.281041e+05
  -2.893327e+04   3.383983e+05
   1.041986e+05  -1.455394e+05
   2.711466e+05  -3.049366e+05
   2.164467e+05   1.416803e+05
  -1.318851e+05   7.235348e+05
  -5.944571e+05   7.334738e+05
  -8.080882e+05   7.203010e+04
  -4.763029e+05  -6.216439e+05
   2.666048e+05  -6.913023e+05
   7.893922e+05  -1.489237e+05
   5.015354e+05   4.184673e+05
  -4.437012e+05   4.850851e+05
  -1.150864e+06   2.957311e+04
  -8.630665e+05  -5.457290e+05
   2.046106e+05  -7.870575e+05
   1.058190e+06  -5.210934e+05
   9.602564e+05   2.301155e+04
   1.620206e+05   3.802164e+05
  -4.319619e+05   2.536746e+05
  -2.367843e+05  -1.624412e+05
   4.491911e+05  -3.212006e+05
   8.145420e+05   1.171712e+05
   3.884975e+05   8.537021e+05
  -4.998561e+05   1.155023e+06
  -1.077358e+06   5.678391e+05
  -8.845512e+05  -5.514206e+05
  -1.551579e+05  -1.277746e+06
   5.001486e+05  -9.784337e+05
   6.727404e+05   4.043065e+04
   3.946970e+05   8.205908e+05
  -4.712969e+04   7.362124e+05
  -3.665743e+05   1.072559e+05
  -4.005001e+05  -2.726827e+05
  -1.905146e+05  -1.170039e+05
  -4.462235e+03   9.044920e+04
  -9.689159e+04  -1.535983e+05
  -3.352289e+05  -6.501566e+05
  -2.405117e+05  -7.719906e+05
   3.956127e+05  -3.055594e+05
   1.061054e+06   3.059654e+05
   9.981921e+05   5.677318e+05
   1.517325e+05   4.711350e+05
  -6.661083e+05   3.005818e+05
  -7.169464e+05   1.715104e+05
  -1.939550e+05   1.090452e+04
   1.272065e+05  -1.534022e+05
  -6.240373e+04  -1.865624e+05
  -2.774248e+05  -1.108575e+05
  -2.314892e+03  -9.870860e+04
   5.580137e+05  -1.395196e+05
   7.234635e+05   2.481958e+04
   1.795676e+05   4.674305e+05
  -6.642427e+05   7.805850e+05
  -1.125695e+06   4.794763e+05
  -8.839698e+05  -3.414672e+05
  -1.695373e+05  -9.990664e+05
   5.033381e+05  -9.409309e+05
   7.299480e+05  -3.259410e+05
   4.741248e+05   2.063533e+05
   5.895477e+04   2.489418e+05
  -1.241550e+05  -3.555839e+03
   2.839175e+04  -7.082147e+04
   2.535443e+05   2.289580e+05
   2.140650e+05   5.637929e+05
  -1.383647e+05   4.589148e+05
  -4.951940e+05  -1.373612e+05
  -4.739582e+05  -7.181412e+05
   4.821275e+03  -7.132585e+05
   5.763418e+05  -9.908153e+04
   7.027820e+05   5.727152e+05
   1.965817e+05   7.569997e+05
  -5.092642e+05   4.184066e+05
  -7.437210e+05  -6.993434e+04
  -3.289746e+05  -3.711517e+05
   1.922707e+05  -4.029836e+05
   1.976855e+05  -2.417677e+05
  -2.458730e+05  -3.256772e+04
  -4.738000e+05   1.934970e+04
  -7.903266e+04  -2.009820e+05
   5.741593e+05  -4.899545e+05
   8.161976e+05  -4.393378e+05
   4.618392e+05   6.360418e+04
  -6.963830e+04   5.802379e+05
  -3.189977e+05   5.719962e+05
  -2.254780e+05   6.253128e+04
  -1.878170e+03  -3.652814e+05
   1.794114e+05  -2.668430e+05
   2.517830e+05   1.655463e+05
   1.701911e+05   4.055987e+05
  -5.301510e+04   2.404918e+05
  -2.712987e+05  -5.799710e+04
  -3.110457e+05  -1.495830e+05
  -1.690863e+05  -2.610470e+04
  -8.403426e+03   5.460823e+04
   5.608265e+04  -7.479899e+04
   7.954311e+04  -2.897364e+05
   1.607235e+05  -3.154442e+05
   2.642806e+05  -3.664616e+04
   2.369524e+05   3.415010e+05
  -2.572171e+03   4.640706e+05
  -3.178697e+05   1.897416e+05
  -4.230778e+05  -2.369319e+05
  -1.464456e+05  -4.269789e+05
   3.347805e+05  -2.475595e+05
   5.798391e+05   7.977605e+04
   3.170785e+05   2.647697e+05
  -2.049925e+05   2.324871e+05
  -4.297855e+05   1.017354e+05
  -1.247486e+05   2.655921e+03
   3.133570e+05   2.561601e+03
   3.138918e+05   1.153648e+05
  -1.743961e+05   2.478060e+05
  -6.145620e+05   1.900514e+05
