
 $NMID
 id='ANONYMOUS ', fmtdat='(2E16.6)'
 volume=1.0
 tramp=1.0
 $END
  -5.973311e+07   1.596909e+05
  -3.629272e+07  -3.705653e+07
   7.733070e+06  -4.070174e+07
   2.953197e+07  -1.568453e+07
   1.779403e+07   7.555443e+06
  -3.530931e+06   1.004919e+07
  -1.063614e+07  -1.352746e+06
  -2.972856e+06  -1.055620e+07
   6.777663e+06  -1.001589e+07
   1.039272e+07  -2.092083e+06
   7.383040e+06   6.623914e+06
   7.758770e+05   9.112795e+06
  -4.205861e+06   2.867233e+06
  -2.643876e+06  -5.806699e+06
   4.152192e+06  -6.950756e+06
   8.430324e+06   1.459727e+06
   4.701998e+06   1.089465e+07
  -4.053689e+06   1.255570e+07
  -1.071668e+07   6.271783e+06
  -1.142471e+07  -2.136091e+06
  -7.042959e+06  -7.844054e+06
  -8.576997e+05  -9.125805e+06
   2.982279e+06  -6.532912e+06
   2.031771e+06  -3.065689e+06
  -9.633000e+05  -2.401323e+06
  -1.031759e+05  -4.347779e+06
   5.728473e+06  -4.468338e+06
   1.013207e+07  -3.749774e+05
   7.371297e+06   4.388688e+06
   2.545781e+05   5.242916e+06
  -3.857925e+06   2.582942e+06
  -2.476875e+06   1.242421e+04
   7.473567e+05  -8.138113e+05
   2.368450e+06  -3.120890e+05
   2.155189e+06   1.557419e+06
   6.117153e+05   4.054296e+06
  -1.877618e+06   4.021030e+06
  -3.332971e+06  -2.490012e+04
  -1.821488e+06  -3.742947e+06
   6.946097e+05  -2.042868e+06
   2.284864e+05   2.525038e+06
  -2.676600e+06   2.386118e+06
  -2.612020e+06  -3.432459e+06
   2.585228e+06  -6.603252e+06
   7.414675e+06  -1.190214e+06
   5.493171e+06   7.322932e+06
  -1.994176e+06   9.102511e+06
  -7.881777e+06   2.572666e+06
  -7.357531e+06  -4.817623e+06
  -1.882019e+06  -6.492709e+06
   3.781291e+06  -2.846985e+06
   5.622040e+06   1.747818e+06
   2.551084e+06   3.810717e+06
  -2.610764e+06   2.358697e+06
  -4.838894e+06  -1.012699e+06
  -2.077431e+06  -2.928454e+06
   1.836058e+06  -1.456798e+06
   1.844133e+06   1.143189e+06
  -1.467476e+06   1.032002e+06
  -2.739147e+06  -1.888292e+06
   5.863740e+05  -3.771344e+06
   4.946353e+06  -2.123542e+06
   5.710554e+06   1.437214e+06
   2.490725e+06   4.261149e+06
  -1.952231e+06   5.549751e+06
  -5.348159e+06   5.020128e+06
  -6.543204e+06   1.764393e+06
  -4.788177e+06  -3.351197e+06
  -9.197149e+05  -6.525873e+06
   2.064629e+06  -5.078462e+06
   1.973505e+06  -1.314714e+06
   2.675036e+05   3.221054e+05
   1.473858e+04  -9.104947e+05
   1.675671e+06  -1.762176e+06
   2.889397e+06  -1.672355e+05
   2.019268e+06   2.062756e+06
  -6.897346e+04   2.212615e+06
  -1.639243e+06   1.095129e+05
  -1.679313e+06  -2.277718e+06
   9.016091e+04  -3.097450e+06
   2.940031e+06  -1.679836e+06
   4.682686e+06   1.316634e+06
   3.370242e+06   3.989116e+06
  -4.148638e+04   4.472533e+06
  -2.408895e+06   2.894712e+06
  -2.393241e+06   1.229435e+06
  -1.999603e+06   7.169219e+05
  -3.180318e+06   4.418794e+05
  -4.639585e+06  -9.275995e+05
  -3.651867e+06  -3.053214e+06
  -1.516836e+04  -4.413773e+06
   3.537412e+06  -4.055608e+06
   4.488318e+06  -2.119373e+06
   2.781248e+06   5.167414e+05
   2.172028e+05   2.347670e+06
  -1.209510e+06   1.998118e+06
  -5.851389e+05  -5.026601e+04
   1.194704e+06  -1.353121e+06
   2.045745e+06  -3.773131e+05
   9.568606e+05   1.296469e+06
  -5.883231e+05   1.158590e+06
  -4.463229e+05  -4.594970e+05
   1.211868e+06  -7.477241e+05
   2.042124e+06   1.448864e+06
   6.339103e+05   3.839868e+06
  -1.868622e+06   3.700457e+06
  -3.506191e+06   1.111768e+06
  -3.545071e+06  -1.712289e+06
  -2.314733e+06  -3.088215e+06
  -3.615427e+05  -2.818343e+06
   1.375657e+06  -1.511414e+06
   1.682720e+06  -1.856927e+05
   5.254178e+05   6.529475e+04
  -3.591967e+05  -8.196988e+05
   4.805378e+05  -1.437504e+06
   2.069148e+06  -5.775450e+05
   2.172110e+06   1.016920e+06
   3.752032e+05   1.547597e+06
  -1.286113e+06   5.750190e+05
  -9.343659e+05  -5.380594e+05
   9.613250e+05  -5.317613e+05
   2.352968e+06   4.539730e+05
   1.807905e+06   1.557038e+06
  -3.714959e+05   2.114585e+06
  -2.552130e+06   1.680357e+06
  -2.987560e+06   1.904054e+05
  -1.272086e+06  -1.400449e+06
   1.024187e+06  -1.593421e+06
   1.683367e+06  -1.705738e+05
   1.930282e+05   1.160670e+06
  -1.651100e+06   7.444753e+05
  -1.825360e+06  -9.047676e+05
  -2.974415e+05  -1.803381e+06
   1.231705e+06  -1.014720e+06
   1.357046e+06   3.968347e+05
   2.334647e+05   8.683393e+05
  -8.682618e+05   3.958076e+04
  -7.619654e+05  -1.154756e+06
   6.606549e+05  -1.508817e+06
   2.167622e+06  -5.181688e+05
   2.149756e+06   1.190697e+06
   3.449322e+05   2.242414e+06
  -1.606121e+06   1.721459e+06
  -1.868893e+06   1.642920e+05
  -5.072198e+05  -9.601215e+05
   7.435532e+05  -8.402477e+05
   6.758894e+05  -4.943492e+04
  -1.639631e+05   3.819810e+05
  -5.461289e+05   1.815643e+05
  -1.076390e+05  -1.015379e+05
   5.129046e+05   9.713780e+04
   5.483612e+05   7.601402e+05
  -2.677950e+05   1.284441e+06
  -1.522528e+06   9.171155e+05
  -2.224171e+06  -5.174653e+05
  -1.508649e+06  -2.136309e+06
   3.191884e+05  -2.587769e+06
   1.793698e+06  -1.448259e+06
   1.809627e+06   2.144988e+05
   8.624875e+05   1.003351e+06
   2.824574e+05   6.962629e+05
   4.956879e+05   2.229202e+05
   6.821294e+05   3.425843e+05
   8.669278e+04   8.285098e+05
  -9.785071e+05   9.407599e+05
  -1.573230e+06   2.880940e+05
  -1.088340e+06  -8.228811e+05
   3.414240e+05  -1.555990e+06
   1.895475e+06  -1.081512e+06
   2.394198e+06   6.057490e+05
   1.139863e+06   2.305233e+06
  -1.175554e+06   2.519524e+06
  -2.783148e+06   1.021677e+06
  -2.510226e+06  -8.090289e+05
  -9.631104e+05  -1.493282e+06
   2.825469e+05  -1.006055e+06
   4.436170e+05  -5.074051e+05
   8.989089e+04  -7.817249e+05
   1.313438e+05  -1.396870e+06
   7.546191e+05  -1.371771e+06
   1.400517e+06  -3.084293e+05
   1.399356e+06   1.199330e+06
   5.333557e+05   2.048340e+06
  -7.143317e+05   1.518106e+06
  -1.381123e+06  -5.083318e+04
  -8.313240e+05  -1.415017e+06
   4.749764e+05  -1.497285e+06
   1.286433e+06  -3.980525e+05
   8.697603e+05   7.911463e+05
  -1.683572e+05   1.174520e+06
  -6.202220e+05   8.380433e+05
  -1.197649e+05   4.449382e+05
   4.523549e+05   3.671594e+05
   5.197806e+04   4.091741e+05
  -1.247230e+06   1.914547e+05
  -2.213941e+06  -4.196180e+05
  -1.706785e+06  -1.172324e+06
   9.022848e+04  -1.557991e+06
   1.751439e+06  -1.187634e+06
   1.987385e+06  -2.331247e+05
   8.897464e+05   5.769260e+05
  -2.970955e+05   6.145772e+05
  -5.603574e+05   1.759940e+04
  -3.349191e+04  -4.561760e+05
   4.751544e+05  -2.602737e+05
   5.068538e+05   3.797486e+05
   2.571531e+05   7.678564e+05
   9.804885e+04   5.048324e+05
   1.571282e+05  -8.756015e+04
   3.102220e+05  -2.850692e+05
   2.873694e+05   2.618296e+05
  -1.810087e+05   1.043489e+06
  -9.974184e+05   1.117995e+06
  -1.474212e+06   1.674168e+05
  -9.002387e+05  -9.934666e+05
   4.701604e+05  -1.221695e+06
   1.357379e+06  -3.438398e+05
   7.672680e+05   6.310977e+05
  -7.803162e+05   6.726447e+05
  -1.700376e+06  -1.690622e+05
  -1.033233e+06  -9.792772e+05
   5.770184e+05  -1.043702e+06
   1.636152e+06  -4.380126e+05
   1.310660e+06   2.688371e+05
   1.154222e+05   5.583983e+05
  -7.136632e+05   2.604624e+05
  -4.120365e+05  -3.297813e+05
   6.300295e+05  -5.455069e+05
   1.260140e+06   1.078751e+05
   6.976685e+05   1.269431e+06
  -6.575867e+05   1.804497e+06
  -1.599635e+06   9.143679e+05
  -1.321496e+06  -8.410904e+05
  -1.638170e+05  -1.921117e+06
   8.395929e+05  -1.353914e+06
   9.901648e+05   2.339080e+05
   4.115511e+05   1.301480e+06
  -2.907685e+05   1.031366e+06
  -6.156022e+05   6.716862e+04
  -4.720380e+05  -4.233375e+05
  -1.523588e+05  -1.553266e+05
  -6.385889e+04   9.855396e+04
  -3.199718e+05  -3.254419e+05
  -5.280275e+05  -1.052625e+06
  -1.490524e+05  -1.168027e+06
   8.037280e+05  -4.084054e+05
   1.563444e+06   5.445307e+05
   1.327093e+06   9.452047e+05
   1.766839e+05   7.600919e+05
  -9.082319e+05   4.188672e+05
  -1.056851e+06   1.562005e+05
  -4.057309e+05  -7.223086e+04
   1.543285e+05  -2.367303e+05
   7.138761e+04  -2.164877e+05
  -2.518011e+05  -1.049353e+05
  -6.004346e+04  -1.390829e+05
   6.852393e+05  -2.354837e+05
   1.123175e+06   2.981617e+04
   4.867071e+05   7.439860e+05
  -9.014039e+05   1.249761e+06
  -1.853132e+06   7.961865e+05
  -1.531702e+06  -4.695901e+05
  -2.709628e+05  -1.506881e+06
   8.598740e+05  -1.469688e+06
   1.133216e+06  -5.721499e+05
   6.889071e+05   2.503489e+05
   1.475933e+05   3.843074e+05
  -4.741937e+04   7.824770e+04
   1.028906e+05  -8.717727e+01
   3.035456e+05   4.146949e+05
   2.350410e+05   8.772853e+05
  -1.998707e+05   7.293382e+05
  -7.166425e+05  -1.266142e+05
  -7.844398e+05  -1.011669e+06
  -1.365555e+05  -1.102512e+06
   7.864446e+05  -2.739658e+05
   1.097792e+06   7.639312e+05
   3.724647e+05   1.171797e+06
  -7.671051e+05   7.337719e+05
  -1.211144e+06  -8.902097e+04
  -5.814670e+05  -6.830986e+05
   3.154346e+05  -7.500228e+05
   4.371932e+05  -4.010147e+05
  -2.349298e+05  -1.192574e+04
  -6.893032e+05   3.192155e+04
  -1.624307e+05  -3.359712e+05
   9.005772e+05  -7.081647e+05
   1.391943e+06  -5.404064e+05
   8.484384e+05   2.193967e+05
  -1.146761e+05   9.414042e+05
  -6.304094e+05   9.264753e+05
  -4.821197e+05   1.939761e+05
  -6.047973e+04  -4.992467e+05
   2.549513e+05  -4.767987e+05
   3.664299e+05   1.392087e+05
   2.660968e+05   6.219964e+05
  -5.066068e+04   4.792392e+05
  -4.167622e+05  -4.310753e+04
  -5.194655e+05  -3.252895e+05
  -2.632417e+05  -1.240105e+05
   5.299666e+04   1.785441e+05
   1.001374e+05   9.023297e+04
  -3.851389e+04  -3.526045e+05
   3.061308e+03  -6.042143e+05
   3.160099e+05  -2.728968e+05
   5.121353e+05   3.732496e+05
   2.038900e+05   6.805501e+05
  -4.258814e+05   3.406457e+05
  -7.218024e+05  -2.876010e+05
  -2.743871e+05  -6.047883e+05
   5.575655e+05  -3.904324e+05
   9.590225e+05   7.829610e+04
   5.161976e+05   4.099836e+05
  -3.160622e+05   4.456209e+05
  -6.901066e+05   2.622064e+05
  -2.895965e+05   2.599485e+04
   3.361382e+05  -8.249299e+04
   4.162096e+05   4.645647e+04
  -1.645371e+05   2.847079e+05
  -7.599940e+05   2.705847e+05
