
 $NMID
 id='ANONYMOUS ', fmtdat='(2E16.6)'
 volume=1.0
 tramp=1.0
 $END
   4.082859e+07   1.309043e+06
   2.485359e+07   2.350145e+07
  -4.045151e+06   2.668793e+07
  -1.930744e+07   1.272675e+07
  -1.296102e+07  -2.577027e+06
   1.202335e+06  -6.920441e+06
   7.563145e+06  -8.438082e+05
   3.595339e+06   6.894565e+06
  -3.579223e+06   8.532401e+06
  -7.306339e+06   2.767898e+06
  -5.616887e+06  -4.991212e+06
  -5.272932e+05  -7.270425e+06
   3.424207e+06  -1.828988e+06
   2.363240e+06   5.357332e+06
  -2.704241e+06   6.224737e+06
  -6.169598e+06  -3.859341e+05
  -3.811423e+06  -7.772934e+06
   2.614386e+06  -9.182840e+06
   7.681177e+06  -4.312958e+06
   7.867458e+06   2.113157e+06
   4.033890e+06   5.739352e+06
  -1.829082e+05   5.556780e+06
  -1.454268e+06   3.475256e+06
   4.533093e+05   2.347832e+06
   2.046410e+06   3.397891e+06
  -4.097478e+05   4.747825e+06
  -5.896799e+06   3.436682e+06
  -8.801395e+06  -6.410006e+05
  -5.463382e+06  -4.112518e+06
   9.852578e+05  -4.068789e+06
   4.221346e+06  -1.267027e+06
   2.050047e+06   1.340312e+06
  -1.998395e+06   1.816139e+06
  -3.668961e+06   1.005017e+05
  -2.198932e+06  -2.651736e+06
   4.136197e+05  -4.258949e+06
   2.062040e+06  -2.701174e+06
   1.809586e+06   1.047206e+06
   2.337409e+05   2.836086e+06
  -7.323675e+05   3.019198e+05
   3.941076e+05  -3.164106e+06
   2.381318e+06  -2.360526e+06
   2.181421e+06   2.272479e+06
  -1.070541e+06   4.591243e+06
  -4.218907e+06   9.366880e+05
  -3.463950e+06  -4.774807e+06
   1.132016e+06  -6.053459e+06
   5.582248e+06  -1.710382e+06
   6.026331e+06   3.573759e+06
   2.147946e+06   5.198232e+06
  -2.869243e+06   2.812859e+06
  -5.025543e+06  -8.047254e+05
  -2.753654e+06  -2.783928e+06
   1.555884e+06  -1.991374e+06
   3.641095e+06   4.350848e+05
   1.790963e+06   1.957474e+06
  -1.265651e+06   1.104926e+06
  -1.756779e+06  -7.862139e+05
   4.675089e+05  -1.194566e+06
   2.021787e+06   3.753768e+05
   5.106693e+05   1.929666e+06
  -2.588526e+06   1.635124e+06
  -3.948004e+06  -3.537981e+05
  -2.049205e+06  -2.750674e+06
   1.774200e+06  -4.331782e+06
   4.942930e+06  -3.944705e+06
   5.547978e+06  -9.880831e+05
   3.459313e+06   3.148981e+06
   4.211135e+05   5.444351e+06
  -1.323830e+06   4.359625e+06
  -1.158476e+06   1.794433e+06
  -5.788308e+05   6.655239e+05
  -1.157947e+06   1.197992e+06
  -2.525533e+06   1.113446e+06
  -2.971109e+06  -7.665798e+05
  -1.629686e+06  -2.746868e+06
   6.231921e+05  -2.516597e+06
   2.161655e+06  -2.632070e+04
   1.861446e+06   2.549315e+06
  -2.664969e+05   3.075514e+06
  -2.863313e+06   1.200745e+06
  -3.867072e+06  -1.633266e+06
  -2.334993e+06  -3.438932e+06
   3.203943e+05  -3.267248e+06
   1.772944e+06  -1.927257e+06
   1.565277e+06  -9.717533e+05
   1.487868e+06  -8.942819e+05
   2.831897e+06  -7.031454e+05
   4.291329e+06   6.177354e+05
   3.494807e+06   2.718503e+06
   1.247098e+05   4.198568e+06
  -3.424446e+06   3.921432e+06
  -4.482387e+06   1.861083e+06
  -2.635272e+06  -8.384246e+05
   1.484333e+05  -2.417217e+06
   1.463753e+06  -1.791296e+06
   5.390545e+05   1.795748e+05
  -1.252630e+06   1.260162e+06
  -1.869051e+06   3.258318e+05
  -7.416399e+05  -1.190342e+06
   6.743237e+05  -1.149383e+06
   6.621281e+05   3.613779e+05
  -7.392008e+05   1.053643e+06
  -1.862863e+06  -5.196064e+05
  -1.321370e+06  -3.001758e+06
   6.998586e+05  -3.816178e+06
   2.868393e+06  -2.022851e+06
   3.812540e+06   9.561977e+05
   2.886502e+06   2.977887e+06
   6.098380e+05   2.985889e+06
  -1.416774e+06   1.534734e+06
  -1.716126e+06   1.280594e+05
  -5.115263e+05  -5.695484e+04
   3.690585e+05   7.751738e+05
  -3.603809e+05   1.285450e+06
  -1.804384e+06   5.563212e+05
  -2.004529e+06  -7.863854e+05
  -4.619933e+05  -1.342976e+06
   1.174505e+06  -6.272787e+05
   1.050095e+06   4.616998e+05
  -7.838034e+05   7.509880e+05
  -2.442805e+06  -7.888166e+04
  -2.138644e+06  -1.417767e+06
   1.032170e+05  -2.272799e+06
   2.452499e+06  -1.872926e+06
   2.922875e+06  -3.040730e+05
   1.226738e+06   1.248984e+06
  -9.152739e+05   1.411697e+06
  -1.465479e+06   1.390480e+05
  -1.082451e+05  -1.040258e+06
   1.551083e+06  -7.114071e+05
   1.785095e+06   7.585887e+05
   4.690175e+05   1.699961e+06
  -1.026088e+06   1.141508e+06
  -1.341611e+06  -1.644333e+05
  -3.741280e+05  -7.543593e+05
   7.418072e+05  -7.293051e+04
   7.118657e+05   1.079321e+06
  -6.564051e+05   1.443287e+06
  -2.106251e+06   4.814733e+05
  -2.070164e+06  -1.147278e+06
  -3.658387e+05  -2.135638e+06
   1.464074e+06  -1.682294e+06
   1.772115e+06  -2.504499e+05
   5.687237e+05   8.772609e+05
  -6.620839e+05   8.642357e+05
  -7.415727e+05   6.502523e+04
   5.596017e+04  -5.179128e+05
   6.283140e+05  -3.642227e+05
   3.650052e+05   1.051643e+05
  -3.390986e+05   1.176227e+05
  -5.986073e+05  -5.374210e+05
   1.111806e+05  -1.200863e+06
   1.404398e+06  -9.460531e+05
   2.158800e+06   4.352403e+05
   1.489629e+06   2.033583e+06
  -2.620758e+05   2.553457e+06
  -1.722512e+06   1.561593e+06
  -1.871614e+06  -6.761035e+04
  -1.052115e+06  -1.047147e+06
  -3.796529e+05  -9.358274e+05
  -3.665336e+05  -3.937128e+05
  -4.909863e+05  -2.798336e+05
  -5.993492e+04  -6.952110e+05
   8.743552e+05  -9.567655e+05
   1.545968e+06  -4.067607e+05
   1.204943e+06   7.947844e+05
  -2.008560e+05   1.653215e+06
  -1.826159e+06   1.194847e+06
  -2.397066e+06  -5.066133e+05
  -1.235027e+06  -2.181805e+06
   9.647890e+05  -2.446932e+06
   2.576593e+06  -1.130097e+06
   2.507457e+06   5.865688e+05
   1.166042e+06   1.402485e+06
  -1.249981e+05   1.141560e+06
  -5.225230e+05   6.756240e+05
  -2.960939e+05   7.717418e+05
  -2.293975e+05   1.240655e+06
  -6.862924e+05   1.241584e+06
  -1.292862e+06   2.817729e+05
  -1.352118e+06  -1.163350e+06
  -5.369019e+05  -1.998435e+06
   6.909670e+05  -1.494456e+06
   1.357660e+06  -4.960254e+03
   8.656120e+05   1.293383e+06
  -3.311234e+05   1.442435e+06
  -1.106236e+06   5.214293e+05
  -8.210011e+05  -5.624826e+05
   2.260665e+04  -1.020659e+06
   4.158830e+05  -8.288816e+05
   3.046315e+04  -4.960066e+05
  -4.194773e+05  -3.927727e+05
  -3.794474e+04  -4.164446e+05
   1.149540e+06  -2.221128e+05
   2.075690e+06   3.469797e+05
   1.673626e+06   1.054350e+06
   3.348806e+04   1.425491e+06
  -1.566559e+06   1.134718e+06
  -1.877729e+06   3.326714e+05
  -8.980919e+05  -4.005997e+05
   2.315823e+05  -5.304600e+05
   5.004162e+05  -7.940703e+04
  -1.488286e+04   3.650786e+05
  -5.091793e+05   2.409873e+05
  -4.831380e+05  -3.687080e+05
  -1.598237e+05  -7.894059e+05
  -4.656696e+03  -5.109975e+05
  -1.549613e+05   1.618387e+05
  -3.679781e+05   3.830980e+05
  -3.025230e+05  -2.367084e+05
   2.095182e+05  -1.063390e+06
   9.544202e+05  -1.084110e+06
   1.320782e+06  -9.786355e+04
   7.684366e+05   9.770270e+05
  -4.551219e+05   1.099632e+06
  -1.261868e+06   2.421770e+05
  -7.452884e+05  -6.429187e+05
   7.224254e+05  -6.868220e+05
   1.704868e+06   7.358613e+04
   1.164305e+06   8.956337e+05
  -4.323617e+05   1.105896e+06
  -1.604576e+06   6.091672e+05
  -1.374784e+06  -1.509208e+05
  -1.807424e+05  -5.636650e+05
   6.754816e+05  -3.163596e+05
   3.694280e+05   2.871542e+05
  -6.666298e+05   4.960940e+05
  -1.234988e+06  -1.724115e+05
  -6.049449e+05  -1.289851e+06
   7.467869e+05  -1.748984e+06
   1.625621e+06  -8.462829e+05
   1.306589e+06   8.562185e+05
   1.682985e+05   1.916974e+06
  -8.079534e+05   1.401381e+06
  -9.912538e+05  -1.489061e+05
  -4.918296e+05  -1.260871e+06
   1.772745e+05  -1.062142e+06
   5.745147e+05  -1.094921e+05
   5.393144e+05   4.198348e+05
   2.288467e+05   1.665791e+05
   3.079412e+04  -1.178886e+05
   2.074785e+05   2.787610e+05
   4.907300e+05   1.015575e+06
   2.523663e+05   1.157934e+06
  -6.841610e+05   4.172625e+05
  -1.565493e+06  -5.215333e+05
  -1.406029e+06  -9.089795e+05
  -1.910074e+05  -7.293300e+05
   9.679004e+05  -4.223751e+05
   1.066708e+06  -1.965338e+05
   3.334878e+05   3.000019e+04
  -1.803353e+05   2.305017e+05
   2.403070e+04   2.484433e+05
   3.483323e+05   1.418500e+05
   2.396220e+04   1.465930e+05
  -7.792249e+05   2.103761e+05
  -1.098479e+06  -5.610961e+04
  -3.420338e+05  -7.318158e+05
   9.816734e+05  -1.186493e+06
   1.769454e+06  -7.105795e+05
   1.399537e+06   5.279013e+05
   2.321835e+05   1.505148e+06
  -8.253256e+05   1.414103e+06
  -1.121439e+06   4.996460e+05
  -6.977201e+05  -2.974065e+05
  -1.047836e+05  -3.813700e+05
   1.331606e+05  -3.100795e+04
  -6.437205e+04   5.963823e+04
  -3.390809e+05  -3.755685e+05
  -2.685535e+05  -8.594172e+05
   2.186831e+05  -7.003416e+05
   7.305655e+05   1.862471e+05
   7.223193e+05   1.065418e+06
   2.964793e+04   1.087548e+06
  -8.397523e+05   1.863939e+05
  -1.058267e+06  -8.408445e+05
  -3.030055e+05  -1.157357e+06
   7.803827e+05  -6.551888e+05
   1.151275e+06   1.233553e+05
   5.124309e+05   6.200779e+05
  -3.164980e+05   6.558769e+05
  -3.614361e+05   3.659976e+05
   3.147277e+05   3.500113e+04
   7.015961e+05  -1.770927e+04
   1.289821e+05   3.191188e+05
  -8.884817e+05   7.051323e+05
  -1.297588e+06   5.797798e+05
  -7.476606e+05  -1.652060e+05
   1.278057e+05  -8.954404e+05
   5.583671e+05  -8.689117e+05
   4.020952e+05  -1.216699e+05
   1.798793e+04   5.299182e+05
  -2.737930e+05   4.262104e+05
  -3.725944e+05  -2.103488e+05
  -2.472742e+05  -6.182330e+05
   7.958819e+04  -4.079546e+05
   4.105739e+05   7.711991e+04
   4.787444e+05   2.759419e+05
   2.527505e+05   7.866148e+04
  -8.294817e+03  -1.235181e+05
  -8.385395e+04   2.773966e+04
  -5.978166e+04   4.052913e+05
  -1.587972e+05   5.313085e+05
  -3.736868e+05   1.392336e+05
  -4.147893e+05  -4.685845e+05
  -6.793598e+04  -6.976421e+05
   4.632047e+05  -3.001269e+05
   6.652188e+05   3.430592e+05
   2.310140e+05   6.315002e+05
  -5.316306e+05   3.666813e+05
  -9.041238e+05  -1.228769e+05
  -4.833383e+05  -4.124044e+05
   3.211990e+05  -3.813390e+05
   6.697073e+05  -1.827629e+05
   2.294205e+05  -4.958141e+03
  -4.187079e+05   2.815912e+04
  -4.502346e+05  -1.279302e+05
   2.250516e+05  -3.351936e+05
   8.595762e+05  -2.685043e+05
