
 $NMID
 id='ANONYMOUS ', fmtdat='(2E16.6)'
 volume=1.0
 tramp=1.0
 $END
   5.423060e+07   1.572760e+06
   3.169147e+07   3.429204e+07
  -8.054767e+06   3.638870e+07
  -2.683566e+07   1.355145e+07
  -1.572232e+07  -6.940472e+06
   3.319166e+06  -8.888074e+06
   9.435885e+06   1.271011e+06
   2.556609e+06   9.429521e+06
  -6.096158e+06   8.964878e+06
  -9.342146e+06   1.793540e+06
  -6.628144e+06  -6.181143e+06
  -5.782583e+05  -8.390711e+06
   3.961198e+06  -2.535932e+06
   2.459092e+06   5.416444e+06
  -3.763503e+06   6.331253e+06
  -7.571572e+06  -1.431402e+06
  -4.069982e+06  -9.957716e+06
   3.921405e+06  -1.130770e+07
   9.906449e+06  -5.434002e+06
   1.036477e+07   2.303290e+06
   6.124605e+06   7.415014e+06
   3.774215e+05   8.295001e+06
  -2.917631e+06   5.665880e+06
  -1.695402e+06   2.549701e+06
   1.148419e+06   2.238039e+06
   1.208356e+05   4.182513e+06
  -5.474987e+06   4.152895e+06
  -9.484875e+06   1.831441e+05
  -6.730134e+06  -4.240569e+06
  -2.404212e+04  -4.936265e+06
   3.786545e+06  -2.361246e+06
   2.430509e+06   1.589930e+05
  -7.213750e+05   1.016791e+06
  -2.387867e+06   4.308489e+05
  -2.161190e+06  -1.563752e+06
  -5.158381e+05  -3.942584e+06
   1.899049e+06  -3.671081e+06
   3.080743e+06   2.752092e+05
   1.472429e+06   3.578276e+06
  -8.292267e+05   1.740415e+06
  -2.373802e+05  -2.508008e+06
   2.466767e+06  -2.228301e+06
   2.311364e+06   3.125730e+06
  -2.427062e+06   5.843162e+06
  -6.636665e+06   8.052042e+05
  -4.724952e+06  -6.777293e+06
   2.035020e+06  -8.142201e+06
   7.227058e+06  -2.138341e+06
   6.672336e+06   4.474442e+06
   1.709964e+06   5.915497e+06
  -3.434444e+06   2.605157e+06
  -5.131155e+06  -1.557601e+06
  -2.340899e+06  -3.429063e+06
   2.358707e+06  -2.088140e+06
   4.364824e+06   9.770369e+05
   1.842928e+06   2.662439e+06
  -1.688689e+06   1.286774e+06
  -1.696047e+06  -1.029755e+06
   1.242541e+06  -8.933392e+05
   2.348603e+06   1.663614e+06
  -5.977880e+05   3.229535e+06
  -4.425789e+06   1.727277e+06
  -5.068774e+06  -1.377998e+06
  -2.162751e+06  -3.867907e+06
   1.904270e+06  -5.077852e+06
   5.059363e+06  -4.597521e+06
   6.110531e+06  -1.516859e+06
   4.359494e+06   3.233565e+06
   7.449253e+05   6.062781e+06
  -1.897830e+06   4.631985e+06
  -1.705897e+06   1.215264e+06
  -1.829485e+05  -1.613665e+05
  -9.923458e+04   1.008686e+06
  -1.720939e+06   1.690789e+06
  -2.822986e+06   8.926166e+04
  -1.947462e+06  -2.037906e+06
   7.250032e+04  -2.174245e+06
   1.605723e+06  -1.659896e+05
   1.647714e+06   2.135727e+06
  -7.991349e+04   2.929160e+06
  -2.793027e+06   1.543118e+06
  -4.357237e+06  -1.322425e+06
  -3.026724e+06  -3.774909e+06
   1.650535e+05  -4.102816e+06
   2.277238e+06  -2.564491e+06
   2.177551e+06  -1.055307e+06
   1.798122e+06  -6.526573e+05
   2.917620e+06  -4.311619e+05
   4.294335e+06   8.384840e+05
   3.402091e+06   2.820144e+06
   3.882443e+04   4.111471e+06
  -3.292746e+06   3.811983e+06
  -4.227782e+06   1.999217e+06
  -2.637676e+06  -5.132136e+05
  -1.918373e+05  -2.251794e+06
   1.170766e+06  -1.894049e+06
   5.607073e+05   6.047253e+04
  -1.126962e+06   1.278350e+06
  -1.906104e+06   3.482317e+05
  -8.762360e+05  -1.222252e+06
   5.529630e+05  -1.104006e+06
   4.368993e+05   3.920657e+05
  -1.046052e+06   6.947316e+05
  -1.808856e+06  -1.261478e+06
  -6.105742e+05  -3.436164e+06
   1.585352e+06  -3.378154e+06
   3.116706e+06  -1.103094e+06
   3.292055e+06   1.469484e+06
   2.250620e+06   2.809569e+06
   4.078381e+05   2.636608e+06
  -1.282790e+06   1.438160e+06
  -1.590317e+06   1.854252e+05
  -4.922178e+05  -5.794612e+04
   3.409234e+05   7.608576e+05
  -4.421840e+05   1.325015e+06
  -1.912513e+06   5.295218e+05
  -2.006950e+06  -9.295789e+05
  -3.543928e+05  -1.419259e+06
   1.184450e+06  -5.458999e+05
   8.868634e+05   4.749788e+05
  -8.541481e+05   5.109628e+05
  -2.181988e+06  -3.564730e+05
  -1.731843e+06  -1.396246e+06
   2.849010e+05  -1.977461e+06
   2.352136e+06  -1.609995e+06
   2.786639e+06  -2.089321e+05
   1.186179e+06   1.294179e+06
  -9.568764e+05   1.474792e+06
  -1.560648e+06   1.476815e+05
  -1.695746e+05  -1.085135e+06
   1.537518e+06  -6.993188e+05
   1.702745e+06   8.229620e+05
   3.027062e+05   1.662317e+06
  -1.112226e+06   9.561144e+05
  -1.251930e+06  -3.367843e+05
  -2.309967e+05  -7.857243e+05
   7.964103e+05  -3.491084e+04
   7.110605e+05   1.074428e+06
  -6.144731e+05   1.414110e+06
  -2.028716e+06   4.934698e+05
  -2.015751e+06  -1.104910e+06
  -3.332369e+05  -2.090160e+06
   1.483847e+06  -1.611313e+06
   1.735609e+06  -1.689736e+05
   4.834897e+05   8.824362e+05
  -6.794210e+05   7.903084e+05
  -6.404737e+05   6.212866e+04
   1.230451e+05  -3.624447e+05
   4.993922e+05  -2.040444e+05
   1.299830e+05   6.587771e+04
  -4.397000e+05  -8.368150e+04
  -5.014871e+05  -6.802033e+05
   2.339156e+05  -1.182088e+06
   1.406924e+06  -8.634830e+05
   2.077288e+06   4.665814e+05
   1.421075e+06   1.985797e+06
  -2.766298e+05   2.424284e+06
  -1.653714e+06   1.380410e+06
  -1.693336e+06  -1.640600e+05
  -8.446409e+05  -9.206676e+05
  -3.080709e+05  -6.686477e+05
  -4.716884e+05  -2.390641e+05
  -6.149468e+05  -3.307138e+05
  -6.949465e+04  -7.658665e+05
   8.993181e+05  -8.813080e+05
   1.459615e+06  -2.921625e+05
   1.037977e+06   7.492433e+05
  -2.829110e+05   1.459591e+06
  -1.752133e+06   1.035383e+06
  -2.243413e+06  -5.389705e+05
  -1.086460e+06  -2.132336e+06
   1.068525e+06  -2.345302e+06
   2.571806e+06  -9.718600e+05
   2.340664e+06   7.153152e+05
   9.299747e+05   1.362951e+06
  -2.247723e+05   9.454451e+05
  -4.030957e+05   5.078144e+05
  -1.023922e+05   7.569482e+05
  -1.404406e+05   1.307204e+06
  -7.048503e+05   1.273168e+06
  -1.304483e+06   2.862815e+05
  -1.315374e+06  -1.116876e+06
  -5.126761e+05  -1.914471e+06
   6.588510e+05  -1.427168e+06
   1.289336e+06   3.270553e+04
   7.829845e+05   1.305322e+06
  -4.241161e+05   1.388707e+06
  -1.171599e+06   3.783718e+05
  -7.926930e+05  -7.160640e+05
   1.494357e+05  -1.071449e+06
   5.539009e+05  -7.686971e+05
   9.311412e+04  -4.150873e+05
  -4.269176e+05  -3.482904e+05
  -5.094388e+04  -3.865312e+05
   1.156112e+06  -1.820865e+05
   2.059789e+06   3.841862e+05
   1.596201e+06   1.078287e+06
  -7.286115e+04   1.435714e+06
  -1.621084e+06   1.103423e+06
  -1.842300e+06   2.342795e+05
  -8.221863e+05  -5.139286e+05
   2.762938e+05  -5.630180e+05
   5.127744e+05  -2.121437e+04
   1.906405e+04   4.236552e+05
  -4.509951e+05   2.499131e+05
  -4.755130e+05  -3.545751e+05
  -2.388573e+05  -7.331605e+05
  -8.616763e+04  -4.848909e+05
  -1.385971e+05   9.153555e+04
  -2.847084e+05   2.876188e+05
  -2.703501e+05  -2.393113e+05
   1.634047e+05  -9.870794e+05
   9.272033e+05  -1.049271e+06
   1.373823e+06  -1.436509e+05
   8.366984e+05   9.392528e+05
  -4.441153e+05   1.136017e+06
  -1.273370e+06   3.114073e+05
  -7.248514e+05  -5.909987e+05
   7.199994e+05  -6.334975e+05
   1.589372e+06   1.342219e+05
   9.843149e+05   8.881778e+05
  -5.108143e+05   9.763894e+05
  -1.511568e+06   4.404769e+05
  -1.227967e+06  -2.217010e+05
  -1.209561e+05  -5.171630e+05
   6.579014e+05  -2.526827e+05
   3.802118e+05   3.063096e+05
  -5.972903e+05   5.159905e+05
  -1.189310e+06  -1.014970e+05
  -6.573809e+05  -1.200113e+06
   6.201862e+05  -1.704755e+06
   1.506881e+06  -8.671100e+05
   1.248705e+06   7.835738e+05
   1.691121e+05   1.803391e+06
  -7.695254e+05   1.280977e+06
  -9.229851e+05  -2.021746e+05
  -4.016723e+05  -1.206155e+06
   2.485206e+05  -9.622436e+05
   5.683461e+05  -6.820797e+04
   4.542162e+05   3.860692e+05
   1.544903e+05   1.373541e+05
   5.326304e+04  -9.174376e+04
   2.851031e+05   3.104803e+05
   4.962237e+05   9.849728e+05
   1.602238e+05   1.083859e+06
  -7.373495e+05   3.778743e+05
  -1.471409e+06  -4.965315e+05
  -1.259747e+06  -8.648824e+05
  -1.701463e+05  -7.078211e+05
   8.568478e+05  -4.078773e+05
   9.886397e+05  -1.608526e+05
   3.688139e+05   6.796824e+04
  -1.468762e+05   2.260214e+05
  -5.089558e+04   1.971159e+05
   2.525759e+05   9.000826e+04
   5.413841e+04   1.349687e+05
  -6.557058e+05   2.342693e+05
  -1.055821e+06  -2.489965e+04
  -4.452551e+05  -7.101425e+05
   8.536072e+05  -1.183429e+06
   1.735310e+06  -7.436862e+05
   1.434554e+06   4.508450e+05
   2.618214e+05   1.418235e+06
  -7.988139e+05   1.377629e+06
  -1.067164e+06   5.368600e+05
  -6.555579e+05  -2.342270e+05
  -1.364476e+05  -3.643228e+05
   5.906742e+04  -7.802936e+04
  -8.557701e+04   3.407304e+03
  -2.882071e+05  -3.787903e+05
  -2.297397e+05  -8.166783e+05
   1.873339e+05  -6.857691e+05
   6.827241e+05   1.185075e+05
   7.441759e+05   9.576428e+05
   1.231388e+05   1.045389e+06
  -7.529497e+05   2.596438e+05
  -1.041896e+06  -7.226121e+05
  -3.496559e+05  -1.104509e+06
   7.255324e+05  -6.880649e+05
   1.135854e+06   8.481567e+04
   5.367522e+05   6.378020e+05
  -3.011782e+05   6.965096e+05
  -4.027610e+05   3.677658e+05
   2.327799e+05   3.146899e+03
   6.505680e+05  -3.510034e+04
   1.495119e+05   3.163076e+05
  -8.397509e+05   6.709781e+05
  -1.288625e+06   5.128669e+05
  -7.814439e+05  -2.045619e+05
   1.070006e+05  -8.818837e+05
   5.833344e+05  -8.609905e+05
   4.504723e+05  -1.687375e+05
   5.928557e+04   4.770706e+05
  -2.437411e+05   4.463668e+05
  -3.541798e+05  -1.355061e+05
  -2.523814e+05  -5.841603e+05
   5.518223e+04  -4.458214e+05
   3.951463e+05   4.182698e+04
   4.805686e+05   3.004810e+05
   2.420987e+05   1.104380e+05
  -3.988854e+04  -1.660189e+05
  -7.970778e+04  -7.221645e+04
   3.355937e+04   3.482067e+05
  -2.427238e+04   5.769755e+05
  -3.165384e+05   2.500285e+05
  -4.837528e+05  -3.687081e+05
  -1.831969e+05  -6.552497e+05
   4.064450e+05  -3.229997e+05
   6.803086e+05   2.773857e+05
   2.606012e+05   5.741720e+05
  -5.206086e+05   3.656507e+05
  -9.005829e+05  -7.733055e+04
  -4.848612e+05  -3.851995e+05
   3.013193e+05  -4.144891e+05
   6.531108e+05  -2.404639e+05
   2.674479e+05  -1.751891e+04
  -3.308796e+05   8.325662e+04
  -4.046642e+05  -4.591630e+04
   1.536605e+05  -2.815321e+05
   7.238718e+05  -2.712927e+05
