
 $NMID
 id='ANONYMOUS ', fmtdat='(2E16.6)'
 volume=1.0
 tramp=1.0
 $END
   4.197357e+07  -2.562606e+06
   2.752994e+07   2.325935e+07
  -2.682221e+06   2.850242e+07
  -1.957044e+07   1.357522e+07
  -1.335239e+07  -3.149972e+06
   1.387711e+06  -7.329264e+06
   7.760968e+06  -4.752286e+05
   3.430848e+06   7.162441e+06
  -3.768662e+06   8.273284e+06
  -7.342812e+06   2.670055e+06
  -5.812347e+06  -4.533742e+06
  -9.817293e+05  -6.899298e+06
   3.101003e+06  -2.156373e+06
   2.424108e+06   4.658958e+06
  -2.518103e+06   5.845484e+06
  -6.217333e+06  -2.918525e+05
  -4.157975e+06  -7.583053e+06
   2.133238e+06  -9.321332e+06
   7.376464e+06  -4.954266e+06
   8.145675e+06   1.238423e+06
   4.958228e+06   5.318252e+06
   7.067331e+05   6.019292e+06
  -1.458196e+06   4.268291e+06
  -3.761326e+05   2.409001e+06
   1.452018e+06   2.515157e+06
   3.823677e+04   3.914572e+06
  -4.773969e+06   3.602431e+06
  -8.022552e+06   3.214514e+05
  -5.613053e+06  -3.270103e+06
   1.315501e+05  -3.914234e+06
   3.367203e+06  -1.756962e+06
   1.905313e+06   5.340426e+05
  -1.237336e+06   1.209445e+06
  -2.654172e+06   2.489527e+05
  -1.910999e+06  -1.780530e+06
  -1.871001e+05  -3.532237e+06
   1.501244e+06  -2.875764e+06
   2.093952e+06   3.554036e+05
   9.710925e+05   2.662986e+06
  -4.884837e+05   9.315927e+05
   2.977689e+03  -2.460632e+06
   2.039078e+06  -2.163065e+06
   2.212461e+06   2.255530e+06
  -1.128151e+06   4.838240e+06
  -4.737968e+06   1.307717e+06
  -4.118305e+06  -4.740507e+06
   7.961705e+05  -6.429333e+06
   5.498550e+06  -2.202082e+06
   5.915562e+06   3.151286e+06
   2.075204e+06   4.855377e+06
  -2.671430e+06   2.624332e+06
  -4.639202e+06  -7.666314e+05
  -2.481084e+06  -2.664836e+06
   1.622833e+06  -1.997288e+06
   3.637355e+06   3.422589e+05
   1.797170e+06   1.951509e+06
  -1.230715e+06   1.183297e+06
  -1.604664e+06  -7.256712e+05
   7.295622e+05  -1.063185e+06
   2.124919e+06   7.394974e+05
   2.500980e+05   2.392960e+06
  -2.980452e+06   1.864147e+06
  -4.123507e+06  -4.050993e+05
  -2.145951e+06  -2.791857e+06
   1.307144e+06  -4.251080e+06
   4.134079e+06  -4.026988e+06
   5.026103e+06  -1.452186e+06
   3.612697e+06   2.529875e+06
   8.621799e+05   5.019517e+06
  -1.167717e+06   4.114537e+06
  -1.247815e+06   1.461516e+06
  -4.132042e+05   2.027582e+05
  -5.277701e+05   8.985264e+05
  -1.755612e+06   1.263190e+06
  -2.497716e+06  -1.756067e+05
  -1.630469e+06  -2.008343e+06
   2.352373e+05  -2.049441e+06
   1.664852e+06  -1.224274e+05
   1.638028e+06   2.018851e+06
  -2.065110e+04   2.655196e+06
  -2.403550e+06   1.346297e+06
  -3.675052e+06  -1.055141e+06
  -2.576034e+06  -2.979409e+06
  -5.397669e+04  -3.241294e+06
   1.602259e+06  -2.127776e+06
   1.582261e+06  -1.050307e+06
   1.431577e+06  -8.035731e+05
   2.539648e+06  -6.645985e+05
   3.856474e+06   4.176956e+05
   3.203921e+06   2.280907e+06
   2.787656e+05   3.683820e+06
  -2.785580e+06   3.582691e+06
  -3.746279e+06   1.901376e+06
  -2.337729e+06  -4.713597e+05
  -1.158689e+05  -2.035931e+06
   1.072062e+06  -1.667022e+06
   4.860762e+05   8.134645e+04
  -9.904751e+05   1.176015e+06
  -1.658051e+06   3.991619e+05
  -7.811933e+05  -1.017261e+06
   4.990807e+05  -1.022850e+06
   5.209430e+05   3.289317e+05
  -7.763445e+05   8.647760e+05
  -1.753089e+06  -6.806936e+05
  -1.079702e+06  -2.865690e+06
   8.588974e+05  -3.344918e+06
   2.660846e+06  -1.579011e+06
   3.266081e+06   9.395165e+05
   2.412005e+06   2.501452e+06
   5.604903e+05   2.489216e+06
  -1.131103e+06   1.370040e+06
  -1.452185e+06   2.061555e+05
  -4.472458e+05  -2.904811e+04
   3.550720e+05   6.658507e+05
  -2.812360e+05   1.187638e+06
  -1.621341e+06   5.908643e+05
  -1.840677e+06  -6.556313e+05
  -4.453588e+05  -1.218664e+06
   1.025667e+06  -5.897257e+05
   8.931553e+05   3.795118e+05
  -7.101950e+05   6.160356e+05
  -2.090091e+06  -9.073451e+04
  -1.792187e+06  -1.186282e+06
   8.817765e+04  -1.916043e+06
   2.066425e+06  -1.660095e+06
   2.527826e+06  -3.595422e+05
   1.139010e+06   1.070771e+06
  -7.498361e+05   1.331402e+06
  -1.333256e+06   2.132731e+05
  -1.826291e+05  -9.301683e+05
   1.334410e+06  -7.053329e+05
   1.595738e+06   6.188427e+05
   4.275513e+05   1.490511e+06
  -9.138373e+05   9.994176e+05
  -1.186080e+06  -1.617117e+05
  -3.174813e+05  -6.855363e+05
   6.812080e+05  -1.007502e+05
   6.892267e+05   9.121146e+05
  -4.870772e+05   1.293471e+06
  -1.801946e+06   5.323746e+05
  -1.862728e+06  -8.962358e+05
  -4.141856e+05  -1.856954e+06
   1.228837e+06  -1.537247e+06
   1.553889e+06  -2.708834e+05
   5.143504e+05   7.658479e+05
  -5.609352e+05   7.744100e+05
  -6.156801e+05   8.191149e+04
   6.668541e+04  -4.074216e+05
   5.020243e+05  -2.747006e+05
   2.264726e+05   8.528169e+04
  -3.582388e+05   4.995451e+04
  -5.322994e+05  -5.143769e+05
   8.967008e+04  -1.072767e+06
   1.202725e+06  -8.736923e+05
   1.900195e+06   2.965097e+05
   1.386650e+06   1.709825e+06
  -1.250946e+05   2.219617e+06
  -1.440698e+06   1.384198e+06
  -1.597488e+06  -2.991772e+04
  -8.782564e+05  -8.497015e+05
  -3.148516e+05  -7.076222e+05
  -3.649960e+05  -2.502725e+05
  -5.050735e+05  -2.245562e+05
  -1.010519e+05  -6.359773e+05
   7.426525e+05  -8.589044e+05
   1.320440e+06  -3.786035e+05
   1.026360e+06   6.416172e+05
  -1.524208e+05   1.398715e+06
  -1.540334e+06   1.072685e+06
  -2.083953e+06  -3.576464e+05
  -1.136986e+06  -1.864228e+06
   7.823409e+05  -2.185905e+06
   2.239774e+06  -1.066482e+06
   2.196865e+06   4.662727e+05
   1.000530e+06   1.197327e+06
  -1.200463e+05   9.489276e+05
  -4.010217e+05   5.382131e+05
  -1.444615e+05   6.645061e+05
  -9.393359e+04   1.123878e+06
  -5.469070e+05   1.148577e+06
  -1.132908e+06   3.190268e+05
  -1.233843e+06  -9.449738e+05
  -5.561979e+05  -1.708315e+06
   5.302379e+05  -1.325396e+06
   1.178004e+06  -5.006187e+04
   8.003455e+05   1.114929e+06
  -2.638642e+05   1.283322e+06
  -9.977331e+05   4.690036e+05
  -7.644869e+05  -5.210003e+05
   1.173443e+04  -9.415083e+05
   3.889923e+05  -7.492965e+05
   3.868191e+04  -4.164540e+05
  -3.860570e+05  -3.060646e+05
  -5.519009e+04  -3.507305e+05
   1.011262e+06  -2.392384e+05
   1.848749e+06   2.166219e+05
   1.504935e+06   8.653697e+05
   6.273799e+04   1.277227e+06
  -1.351719e+06   1.078972e+06
  -1.642553e+06   3.458011e+05
  -8.003846e+05  -3.645403e+05
   1.906960e+05  -4.997158e+05
   4.508198e+05  -7.387706e+04
   2.633440e+04   3.409474e+05
  -4.132894e+05   2.323726e+05
  -4.395375e+05  -2.971938e+05
  -2.040460e+05  -6.547957e+05
  -5.887440e+04  -4.290321e+05
  -1.315178e+05   1.193793e+05
  -2.839670e+05   3.071684e+05
  -2.653881e+05  -1.967814e+05
   1.221486e+05  -9.100703e+05
   7.788961e+05  -9.881666e+05
   1.174288e+06  -1.816343e+05
   7.505781e+05   7.972417e+05
  -3.351854e+05   1.007070e+06
  -1.095964e+06   3.076652e+05
  -6.748599e+05  -5.119086e+05
   6.098852e+05  -6.212472e+05
   1.471437e+06   1.951918e+04
   9.999916e+05   7.542691e+05
  -3.757026e+05   9.572878e+05
  -1.372566e+06   5.386121e+05
  -1.172944e+06  -1.121793e+05
  -1.579103e+05  -4.785508e+05
   5.827452e+05  -2.866281e+05
   3.489364e+05   2.404227e+05
  -5.320122e+05   4.708053e+05
  -1.071117e+06  -6.646850e+04
  -6.086281e+05  -1.064490e+06
   5.259475e+05  -1.546778e+06
   1.342113e+06  -8.211832e+05
   1.163673e+06   6.692018e+05
   2.299433e+05   1.638720e+06
  -6.440067e+05   1.224929e+06
  -8.632390e+05  -1.117439e+05
  -4.552891e+05  -1.079108e+06
   1.441845e+05  -9.177224e+05
   5.047514e+05  -1.095167e+05
   4.592522e+05   3.414944e+05
   1.773342e+05   1.344264e+05
   3.423501e+04  -9.873124e+04
   2.332511e+05   2.365811e+05
   4.834253e+05   8.588661e+05
   2.348838e+05   9.941414e+05
  -6.097969e+05   3.958863e+05
  -1.368138e+06  -3.843558e+05
  -1.223366e+06  -7.345417e+05
  -1.944123e+05  -6.283003e+05
   7.909590e+05  -4.001162e+05
   9.058486e+05  -2.025530e+05
   3.153480e+05   1.929022e+04
  -1.352277e+05   2.062332e+05
  -3.811091e+03   2.086003e+05
   2.691876e+05   1.001899e+05
   3.947542e+04   1.186135e+05
  -6.242196e+05   2.172217e+05
  -9.512738e+05   1.338824e+04
  -3.774570e+05  -6.047556e+05
   7.556473e+05  -1.078106e+06
   1.507551e+06  -7.262364e+05
   1.265097e+06   3.587275e+05
   2.810233e+05   1.277971e+06
  -6.505706e+05   1.272186e+06
  -9.368636e+05   5.056755e+05
  -6.052295e+05  -2.072585e+05
  -1.226357e+05  -3.195650e+05
   7.941302e+04  -4.210613e+04
  -7.031721e+04   3.674410e+04
  -2.990775e+05  -3.226517e+05
  -2.601410e+05  -7.337447e+05
   1.464964e+05  -6.197503e+05
   6.260416e+05   1.065981e+05
   6.857949e+05   8.577965e+05
   1.128684e+05   9.286435e+05
  -6.869915e+05   2.239555e+05
  -9.536657e+05  -6.438826e+05
  -3.374582e+05  -9.784756e+05
   6.287351e+05  -6.232872e+05
   1.010776e+06   3.667499e+04
   4.966199e+05   5.241772e+05
  -2.331986e+05   6.090794e+05
  -3.160850e+05   3.489433e+05
   2.423786e+05   1.467271e+04
   5.954315e+05  -5.095905e+04
   1.377978e+05   2.708618e+05
  -7.340645e+05   6.474504e+05
  -1.122287e+06   5.506767e+05
  -6.877527e+05  -1.182361e+05
   6.080165e+04  -7.888289e+05
   4.595107e+05  -7.962595e+05
   3.608230e+05  -1.536737e+05
   5.146670e+04   4.398617e+05
  -2.049460e+05   3.936899e+05
  -3.212777e+05  -1.397730e+05
  -2.469670e+05  -5.188437e+05
   3.411857e+04  -3.755933e+05
   3.552282e+05   3.536048e+04
   4.412426e+05   2.285866e+05
   2.275861e+05   7.071987e+04
  -3.253536e+04  -1.207672e+05
  -8.571523e+04  -1.136595e+04
  -3.468590e+03   3.246147e+05
  -5.309773e+04   4.755072e+05
  -2.839505e+05   1.774055e+05
  -4.027576e+05  -3.428706e+05
  -1.350105e+05  -5.786545e+05
   3.676726e+05  -2.893184e+05
   6.010361e+05   2.404937e+05
   2.396026e+05   5.184693e+05
  -4.461969e+05   3.489154e+05
  -7.963564e+05  -4.452984e+04
  -4.445239e+05  -3.283233e+05
   2.513433e+05  -3.634433e+05
   5.670433e+05  -2.160495e+05
   2.155352e+05  -2.645505e+04
  -3.256208e+05   5.537597e+04
  -3.742103e+05  -6.424636e+04
   1.612035e+05  -2.759665e+05
   6.912241e+05  -2.623170e+05
