
 $NMID
 id='ANONYMOUS ', fmtdat='(2E16.6)'
 volume=1.0
 tramp=1.0
 $END
   5.828253e+07   1.651360e+06
   3.374420e+07   3.752637e+07
  -9.257606e+06   3.929566e+07
  -2.907899e+07   1.380968e+07
  -1.653798e+07  -8.228791e+06
   3.948633e+06  -9.469443e+06
   9.987475e+06   1.895466e+06
   2.250699e+06   1.017851e+07
  -6.834070e+06   9.096863e+06
  -9.945231e+06   1.510471e+06
  -6.939686e+06  -6.536192e+06
  -6.028287e+05  -8.732786e+06
   4.125899e+06  -2.751611e+06
   2.501863e+06   5.438491e+06
  -4.069647e+06   6.371987e+06
  -7.991970e+06  -1.737828e+06
  -4.156789e+06  -1.061216e+07
   4.305627e+06  -1.195151e+07
   1.057649e+07  -5.778055e+06
   1.112304e+07   2.360610e+06
   6.754655e+06   7.926408e+06
   5.380766e+05   9.121451e+06
  -3.361075e+06   6.315099e+06
  -2.327498e+06   2.597267e+06
   9.022708e+05   1.888575e+06
   2.927741e+05   4.027936e+06
  -5.357323e+06   4.388134e+06
  -9.709941e+06   4.418752e+05
  -7.122982e+06  -4.281894e+06
  -3.241211e+05  -5.208991e+06
   3.669579e+06  -2.699514e+06
   2.557775e+06  -1.908228e+05
  -3.361179e+05   7.959633e+05
  -2.015670e+06   5.468289e+05
  -2.167677e+06  -1.238583e+06
  -8.042086e+05  -3.862052e+06
   1.853343e+06  -3.969407e+06
   3.468168e+06   5.176208e+04
   1.841681e+06   3.811091e+06
  -8.686596e+05   2.169079e+06
  -4.362521e+05  -2.323976e+06
   2.489529e+06  -2.198396e+06
   2.352529e+06   3.378496e+06
  -2.830323e+06   6.215763e+06
  -7.359111e+06   7.605270e+05
  -5.102468e+06  -7.381569e+06
   2.305973e+06  -8.770001e+06
   7.724625e+06  -2.270104e+06
   6.876998e+06   4.738823e+06
   1.590855e+06   6.129416e+06
  -3.599150e+06   2.550580e+06
  -5.167402e+06  -1.771765e+06
  -2.224380e+06  -3.615218e+06
   2.596070e+06  -2.116829e+06
   4.582511e+06   1.135991e+06
   1.859960e+06   2.870745e+06
  -1.815536e+06   1.341779e+06
  -1.680534e+06  -1.098930e+06
   1.469132e+06  -8.008604e+05
   2.440523e+06   2.044938e+06
  -9.316414e+05   3.609868e+06
  -4.973096e+06   1.750523e+06
  -5.401911e+06  -1.681131e+06
  -2.198784e+06  -4.200193e+06
   1.940182e+06  -5.310465e+06
   5.096922e+06  -4.809773e+06
   6.288311e+06  -1.685412e+06
   4.639824e+06   3.261786e+06
   8.506134e+05   6.256551e+06
  -2.061660e+06   4.718887e+06
  -1.861220e+06   1.045116e+06
  -5.817363e+04  -4.010611e+05
   2.173594e+05   9.654859e+05
  -1.488397e+06   1.876048e+06
  -2.792308e+06   3.498663e+05
  -2.055780e+06  -1.830688e+06
  -9.784105e+04  -2.081902e+06
   1.445201e+06  -2.159176e+05
   1.595862e+06   2.011617e+06
  -1.700139e+04   2.892632e+06
  -2.776548e+06   1.653809e+06
  -4.515308e+06  -1.227071e+06
  -3.242050e+06  -3.879479e+06
   1.171919e+05  -4.358209e+06
   2.429488e+06  -2.757961e+06
   2.360053e+06  -1.081654e+06
   1.888981e+06  -5.841166e+05
   2.944638e+06  -3.579379e+05
   4.302929e+06   8.946993e+05
   3.386590e+06   2.845928e+06
   2.413695e+04   4.092107e+06
  -3.249539e+06   3.795594e+06
  -4.156378e+06   2.055931e+06
  -2.646923e+06  -4.120178e+05
  -2.992856e+05  -2.209516e+06
   1.082662e+06  -1.932705e+06
   5.689222e+05   2.465945e+04
  -1.089278e+06   1.289524e+06
  -1.919616e+06   3.590554e+05
  -9.196353e+05  -1.233018e+06
   5.153446e+05  -1.094314e+06
   3.715694e+05   3.992843e+05
  -1.134045e+06   5.895309e+05
  -1.792553e+06  -1.478366e+06
  -4.059216e+05  -3.562518e+06
   1.837586e+06  -3.250075e+06
   3.184282e+06  -8.385221e+05
   3.142701e+06   1.610622e+06
   2.074934e+06   2.753174e+06
   3.584760e+05   2.535142e+06
  -1.240938e+06   1.416500e+06
  -1.555769e+06   2.076662e+05
  -4.873630e+05  -5.691491e+04
   3.350175e+05   7.570492e+05
  -4.646528e+05   1.339324e+06
  -1.946438e+06   5.257567e+05
  -2.011761e+06  -9.691726e+05
  -3.252794e+05  -1.442508e+06
   1.187898e+06  -5.251157e+05
   8.412132e+05   4.767381e+05
  -8.734100e+05   4.427486e+05
  -2.107525e+06  -4.314591e+05
  -1.618433e+06  -1.384652e+06
   3.317108e+05  -1.892849e+06
   2.320424e+06  -1.541662e+06
   2.749745e+06  -1.890011e+05
   1.178641e+06   1.306530e+06
  -9.680476e+05   1.497624e+06
  -1.591030e+06   1.530450e+05
  -1.898154e+05  -1.100476e+06
   1.534596e+06  -7.005228e+05
   1.682617e+06   8.388250e+05
   2.580931e+05   1.651800e+06
  -1.135828e+06   9.045350e+05
  -1.226696e+06  -3.848942e+05
  -1.902271e+05  -7.946983e+05
   8.140363e+05  -2.495607e+04
   7.149251e+05   1.073630e+06
  -5.996697e+05   1.410264e+06
  -2.008612e+06   5.035979e+05
  -2.006388e+06  -1.089079e+06
  -3.295438e+05  -2.079316e+06
   1.487791e+06  -1.596379e+06
   1.726449e+06  -1.495004e+05
   4.607824e+05   8.835561e+05
  -6.834623e+05   7.710367e+05
  -6.114987e+05   6.342872e+04
   1.411438e+05  -3.171488e+05
   4.606370e+05  -1.594921e+05
   6.149527e+04   5.219925e+04
  -4.686832e+05  -1.428029e+05
  -4.743379e+05  -7.213568e+05
   2.673164e+05  -1.178247e+06
   1.407309e+06  -8.442404e+05
   2.057868e+06   4.708026e+05
   1.408689e+06   1.971119e+06
  -2.743334e+05   2.390833e+06
  -1.631238e+06   1.333769e+06
  -1.642985e+06  -1.871386e+05
  -7.879940e+05  -8.807463e+05
  -2.914066e+05  -5.891467e+05
  -5.056629e+05  -1.933465e+05
  -6.532755e+05  -3.458343e+05
  -7.402053e+04  -7.880344e+05
   9.052098e+05  -8.627692e+05
   1.434963e+06  -2.635404e+05
   9.929763e+05   7.328228e+05
  -3.021183e+05   1.405002e+06
  -1.729385e+06   9.953057e+05
  -2.203123e+06  -5.425229e+05
  -1.050141e+06  -2.117639e+06
   1.094584e+06  -2.321225e+06
   2.571273e+06  -9.330722e+05
   2.296027e+06   7.475826e+05
   8.653209e+05   1.349356e+06
  -2.507391e+05   8.887366e+05
  -3.657383e+05   4.610525e+05
  -4.320450e+04   7.558131e+05
  -1.116879e+05   1.330282e+06
  -7.087233e+05   1.286305e+06
  -1.309571e+06   2.912192e+05
  -1.309966e+06  -1.101560e+06
  -5.118041e+05  -1.891558e+06
   6.464824e+05  -1.411644e+06
   1.271195e+06   4.025158e+04
   7.630215e+05   1.308628e+06
  -4.485713e+05   1.375540e+06
  -1.190970e+06   3.389896e+05
  -7.862610e+05  -7.606711e+05
   1.850484e+05  -1.087767e+06
   5.934479e+05  -7.524999e+05
   1.101969e+05  -3.915097e+05
  -4.311810e+05  -3.346075e+05
  -5.621940e+04  -3.783001e+05
   1.159316e+06  -1.735022e+05
   2.059505e+06   3.904917e+05
   1.578662e+06   1.082708e+06
  -1.010762e+05   1.440742e+06
  -1.637217e+06   1.099757e+06
  -1.833697e+06   2.103343e+05
  -8.014800e+05  -5.458567e+05
   2.888771e+05  -5.740295e+05
   5.168276e+05  -5.218512e+03
   2.988048e+04   4.419411e+05
  -4.338172e+05   2.546092e+05
  -4.750627e+05  -3.496529e+05
  -2.650949e+05  -7.177095e+05
  -1.119482e+05  -4.784017e+05
  -1.331400e+05   7.137858e+04
  -2.590731e+05   2.612981e+05
  -2.620888e+05  -2.395201e+05
   1.467235e+05  -9.670958e+05
   9.178791e+05  -1.043573e+06
   1.392178e+06  -1.606707e+05
   8.612368e+05   9.281579e+05
  -4.390335e+05   1.150128e+06
  -1.278810e+06   3.357138e+05
  -7.219890e+05  -5.745896e+05
   7.184812e+05  -6.206310e+05
   1.557723e+06   1.474630e+05
   9.349736e+05   8.835596e+05
  -5.314348e+05   9.403523e+05
  -1.484170e+06   3.957931e+05
  -1.186599e+06  -2.388169e+05
  -1.050986e+05  -5.035073e+05
   6.527595e+05  -2.360016e+05
   3.847263e+05   3.117399e+05
  -5.766768e+05   5.249184e+05
  -1.178740e+06  -7.727386e+04
  -6.778792e+05  -1.174380e+06
   5.790167e+05  -1.697214e+06
   1.472221e+06  -8.795877e+05
   1.236264e+06   7.597308e+05
   1.751468e+05   1.772403e+06
  -7.552605e+05   1.249758e+06
  -9.044743e+05  -2.154621e+05
  -3.791315e+05  -1.190368e+06
   2.669350e+05  -9.344342e+05
   5.671050e+05  -5.758415e+04
   4.310302e+05   3.749514e+05
   1.332526e+05   1.279982e+05
   5.960384e+04  -8.407376e+04
   3.092311e+05   3.203560e+05
   5.014638e+05   9.764435e+05
   1.364183e+05   1.062672e+06
  -7.532215e+05   3.682991e+05
  -1.447525e+06  -4.855225e+05
  -1.221079e+06  -8.489787e+05
  -1.662583e+05  -7.020984e+05
   8.242031e+05  -4.073510e+05
   9.665300e+05  -1.536744e+05
   3.798587e+05   7.868368e+04
  -1.365878e+05   2.256891e+05
  -7.233134e+04   1.817377e+05
   2.252545e+05   7.339885e+04
   6.366611e+04   1.319034e+05
  -6.197864e+05   2.444429e+05
  -1.045378e+06  -1.266048e+04
  -4.787093e+05  -7.046450e+05
   8.140501e+05  -1.187790e+06
   1.726629e+06  -7.595431e+05
   1.449272e+06   4.253401e+05
   2.754062e+05   1.394504e+06
  -7.885573e+05   1.371546e+06
  -1.051897e+06   5.520683e+05
  -6.453403e+05  -2.138874e+05
  -1.471794e+05  -3.598520e+05
   3.733254e+04  -9.287845e+04
  -9.159392e+04  -1.322971e+04
  -2.745692e+05  -3.793199e+05
  -2.210182e+05  -8.046084e+05
   1.765442e+05  -6.834031e+05
   6.705859e+05   9.652249e+04
   7.552545e+05   9.256418e+05
   1.541028e+05   1.035131e+06
  -7.283977e+05   2.844405e+05
  -1.041631e+06  -6.859854e+05
  -3.673770e+05  -1.090237e+06
   7.090162e+05  -7.013536e+05
   1.133841e+06   7.048078e+04
   5.464697e+05   6.430503e+05
  -2.957033e+05   7.107661e+05
  -4.148851e+05   3.696825e+05
   2.090608e+05  -7.555540e+03
   6.366177e+05  -4.240927e+04
   1.567258e+05   3.158048e+05
  -8.248010e+05   6.645436e+05
  -1.286456e+06   4.972540e+05
  -7.931018e+05  -2.148838e+05
   9.865910e+04  -8.798566e+05
   5.895347e+05  -8.614810e+05
   4.655800e+05  -1.838283e+05
   7.329672e+04   4.623722e+05
  -2.342451e+05   4.540196e+05
  -3.502555e+05  -1.124458e+05
  -2.561111e+05  -5.744729e+05
   4.717093e+04  -4.582034e+05
   3.916416e+05   3.029126e+04
   4.825478e+05   3.071037e+05
   2.394028e+05   1.193741e+05
  -4.945118e+04  -1.790964e+05
  -7.804400e+04  -1.018214e+05
   6.268128e+04   3.324869e+05
   1.679597e+04   5.926595e+05
  -3.003125e+05   2.846455e+05
  -5.068120e+05  -3.389646e+05
  -2.197866e+05  -6.442257e+05
   3.896460e+05  -3.318550e+05
   6.872314e+05   2.567283e+05
   2.717803e+05   5.577260e+05
  -5.173240e+05   3.674288e+05
  -9.016991e+05  -6.159948e+04
  -4.873750e+05  -3.765810e+05
   2.951502e+05  -4.259997e+05
   6.491660e+05  -2.598259e+05
   2.792601e+05  -2.168138e+04
  -3.055825e+05   1.012706e+05
  -3.925706e+05  -2.025896e+04
   1.316076e+05  -2.670145e+05
   6.841653e+05  -2.754730e+05
