
 $NMID
 id='ANONYMOUS ', fmtdat='(2E16.6)'
 volume=1.0
 tramp=1.0
 $END
   1.623203e+07   1.820076e+06
   8.468519e+06   1.121872e+07
  -3.663021e+06   1.075953e+07
  -8.608421e+06   3.181208e+06
  -4.481344e+06  -2.891331e+06
   1.471003e+06  -2.981405e+06
   3.066328e+06   4.684250e+05
   6.904595e+05   3.048080e+06
  -2.068384e+06   2.783807e+06
  -3.007131e+06   3.296925e+05
  -1.947155e+06  -2.294559e+06
   1.766381e+05  -2.845269e+06
   1.607039e+06  -7.310829e+05
   9.090066e+05   1.824879e+06
  -1.178049e+06   1.899541e+06
  -2.187814e+06  -6.475858e+05
  -8.180345e+05  -3.050087e+06
   1.649271e+06  -3.037445e+06
   3.150041e+06  -1.020224e+06
   2.923022e+06   1.219371e+06
   1.469761e+06   2.513033e+06
  -2.892625e+05   2.553863e+06
  -1.262087e+06   1.568298e+06
  -7.891458e+05   4.902928e+05
   2.730728e+05   4.187915e+05
   1.127794e+05   1.179862e+06
  -1.623310e+06   1.293744e+06
  -2.978073e+06   2.949178e+03
  -2.158231e+06  -1.549501e+06
   4.286065e+04  -1.863401e+06
   1.376771e+06  -9.633113e+05
   9.807545e+05   2.899489e+04
  -9.254309e+04   4.145931e+05
  -6.713176e+05   1.692421e+05
  -5.290303e+05  -5.640539e+05
   9.924688e+04  -1.261747e+06
   8.406329e+05  -9.806614e+05
   1.041501e+06   3.669065e+05
   3.761154e+05   1.294559e+06
  -3.626926e+05   5.653416e+05
  -1.166733e+05  -7.459069e+05
   7.250021e+05  -5.472613e+05
   6.151538e+05   1.078352e+06
  -8.424408e+05   1.719468e+06
  -2.017258e+06   6.727787e+04
  -1.323566e+06  -2.113918e+06
   7.029509e+05  -2.335597e+06
   2.138540e+06  -5.072353e+05
   1.867092e+06   1.355476e+06
   3.751833e+05   1.717836e+06
  -1.098231e+06   7.370293e+05
  -1.508330e+06  -5.560976e+05
  -5.656791e+05  -1.206313e+06
   8.967404e+05  -7.460273e+05
   1.430259e+06   3.973659e+05
   5.306087e+05   1.031359e+06
  -6.010022e+05   4.887611e+05
  -5.465643e+05  -3.942565e+05
   4.089590e+05  -3.386810e+05
   7.202066e+05   5.705181e+05
  -2.256300e+05   1.037803e+06
  -1.350384e+06   4.117324e+05
  -1.430260e+06  -6.087725e+05
  -4.779674e+05  -1.205257e+06
   7.129953e+05  -1.339046e+06
   1.564064e+06  -1.109638e+06
   1.784998e+06  -2.533606e+05
   1.177234e+06   1.074247e+06
   2.398613e+04   1.837349e+06
  -7.761468e+05   1.298670e+06
  -6.216049e+05   1.741258e+05
  -9.645698e+03  -2.296065e+05
   1.120614e+05   2.524718e+05
  -4.092725e+05   5.894900e+05
  -8.552907e+05   1.217123e+05
  -6.624726e+05  -6.137822e+05
  -1.423952e+04  -7.454118e+05
   5.317245e+05  -1.341262e+05
   5.560691e+05   6.401180e+05
  -3.600349e+04   9.267458e+05
  -8.926018e+05   4.579417e+05
  -1.288544e+06  -4.904393e+05
  -7.711575e+05  -1.224100e+06
   2.168063e+05  -1.204065e+06
   7.740709e+05  -6.219255e+05
   6.539190e+05  -1.533764e+05
   4.878288e+05  -9.466498e+04
   7.742007e+05  -7.626169e+04
   1.135137e+06   2.854009e+05
   8.835152e+05   8.349226e+05
  -2.135014e+04   1.150365e+06
  -9.344604e+05   1.031775e+06
  -1.238052e+06   5.286722e+05
  -8.265388e+05  -1.789455e+05
  -7.476867e+04  -6.998371e+05
   4.215498e+05  -5.982351e+05
   2.625440e+05   2.549694e+04
  -3.259746e+05   4.337310e+05
  -6.357045e+05   1.304476e+05
  -3.008559e+05  -4.205744e+05
   2.073374e+05  -4.302188e+05
   2.128678e+05   5.822479e+04
  -2.323689e+05   2.300143e+05
  -4.555292e+05  -2.979525e+05
  -1.008867e+05  -9.260433e+05
   4.905211e+05  -9.030910e+05
   8.444831e+05  -2.371329e+05
   8.462222e+05   4.853769e+05
   5.742621e+05   8.241104e+05
   9.025340e+04   7.323723e+05
  -3.874146e+05   3.704336e+05
  -4.824578e+05   1.108324e+04
  -1.462200e+05  -4.629194e+04
   1.252565e+05   2.146622e+05
  -1.032221e+05   4.047315e+05
  -5.696819e+05   1.807431e+05
  -6.385674e+05  -2.721161e+05
  -1.627128e+05  -4.676148e+05
   3.305413e+05  -2.519800e+05
   3.196309e+05   5.867590e+04
  -1.330757e+05   1.326154e+05
  -5.345918e+05  -5.464298e+04
  -4.749789e+05  -3.389953e+05
   5.390506e+04  -5.331782e+05
   6.569863e+05  -4.474820e+05
   8.129152e+05  -3.062916e+04
   3.471729e+05   4.204022e+05
  -3.083570e+05   4.561565e+05
  -5.018920e+05   3.068949e+04
  -7.808334e+04  -3.524338e+05
   4.502627e+05  -2.321787e+05
   5.140273e+05   2.373760e+05
   1.018749e+05   5.084373e+05
  -3.318699e+05   3.175503e+05
  -4.077420e+05  -7.190047e+04
  -1.356120e+05  -2.499038e+05
   1.822280e+05  -8.465758e+04
   2.179546e+05   2.251197e+05
  -1.144202e+05   3.615631e+05
  -5.215377e+05   1.420794e+05
  -5.496517e+05  -3.035703e+05
  -8.430211e+04  -5.952362e+05
   4.491311e+05  -4.559625e+05
   5.396285e+05  -2.063524e+04
   1.760274e+05   3.037168e+05
  -1.945430e+05   2.839417e+05
  -2.379920e+05   5.918541e+04
  -5.295878e+04  -1.025587e+05
   7.962275e+04  -1.073398e+05
   4.964387e+04  -5.256676e+04
  -4.831616e+04  -6.100918e+04
  -6.782788e+04  -1.635004e+05
   8.470064e+04  -2.659781e+05
   3.648643e+05  -1.923979e+05
   5.386775e+05   1.419666e+05
   3.580271e+05   5.493443e+05
  -1.157496e+05   6.754000e+05
  -4.940668e+05   3.796328e+05
  -4.860048e+05  -7.420735e+04
  -2.298083e+05  -3.083376e+05
  -6.745543e+04  -2.418459e+05
  -9.445029e+04  -1.023679e+05
  -1.107661e+05  -8.920347e+04
   3.658969e+04  -1.650285e+05
   2.536726e+05  -1.714632e+05
   3.476264e+05  -2.672823e+04
   2.202226e+05   2.068613e+05
  -9.799904e+04   3.557991e+05
  -4.533368e+05   2.353665e+05
  -5.818515e+05  -1.653640e+05
  -2.901117e+05  -5.723923e+05
   2.816148e+05  -6.249861e+05
   6.996021e+05  -2.573987e+05
   6.557767e+05   2.024051e+05
   2.802814e+05   3.888799e+05
  -4.810409e+04   2.829271e+05
  -1.283005e+05   1.595781e+05
  -7.363415e+04   2.142966e+05
  -8.556658e+04   3.507676e+05
  -2.179563e+05   3.318333e+05
  -3.584846e+05   5.630534e+04
  -3.489166e+05  -3.284051e+05
  -1.228816e+05  -5.407724e+05
   1.995455e+05  -3.985867e+05
   3.632927e+05   4.026092e+03
   2.131625e+05   3.488528e+05
  -1.112084e+05   3.741827e+05
  -2.962165e+05   1.155009e+05
  -1.938891e+05  -1.631474e+05
   2.981977e+04  -2.605747e+05
   1.158380e+05  -2.041775e+05
   1.384705e+04  -1.353937e+05
  -8.606946e+04  -1.176969e+05
   1.372687e+04  -1.005756e+05
   2.940901e+05  -1.741131e+04
   5.119610e+05   1.360690e+05
   4.139766e+05   2.958016e+05
   1.373258e+02   3.631587e+05
  -4.210160e+05   2.712045e+05
  -5.061511e+05   6.253419e+04
  -2.339877e+05  -1.130373e+05
   7.437845e+04  -1.266161e+05
   1.248805e+05  -5.042572e+03
  -3.944386e+04   9.095287e+04
  -1.605990e+05   3.611078e+04
  -1.124078e+05  -1.247774e+05
  -5.682485e+03  -2.223095e+05
   1.772525e+04  -1.445656e+05
  -3.928303e+04   2.880247e+04
  -8.141498e+04   9.459422e+04
  -4.268683e+04  -4.576164e+04
   8.342497e+04  -2.429192e+05
   2.447294e+05  -2.435463e+05
   3.137367e+05   5.789654e+03
   1.655991e+05   2.646368e+05
  -1.413142e+05   2.638408e+05
  -3.313397e+05   1.947141e+04
  -1.768202e+05  -1.932984e+05
   2.093361e+05  -1.598524e+05
   4.462995e+05   6.268913e+04
   2.826449e+05   2.557082e+05
  -1.363163e+05   2.722635e+05
  -4.269925e+05   1.282869e+05
  -3.547237e+05  -5.746526e+04
  -4.160524e+04  -1.502128e+05
   1.793962e+05  -8.145890e+04
   9.549628e+04   7.294123e+04
  -1.801945e+05   1.186310e+05
  -3.221601e+05  -6.745307e+04
  -1.301606e+05  -3.569568e+05
   2.479262e+05  -4.492445e+05
   4.622865e+05  -1.808292e+05
   3.273326e+05   2.673506e+05
  -5.554559e+03   5.161395e+05
  -2.444782e+05   3.541400e+05
  -2.528460e+05  -5.342132e+04
  -1.095996e+05  -3.319784e+05
   4.697295e+04  -2.730781e+05
   1.386205e+05  -2.460114e+04
   1.408582e+05   1.117247e+05
   7.128572e+04   4.195563e+04
   9.545756e+03  -3.557663e+04
   3.730895e+04   7.402586e+04
   1.083432e+05   2.791121e+05
   5.765593e+04   3.148913e+05
  -1.785876e+05   9.645802e+04
  -4.074570e+05  -1.732709e+05
  -3.598159e+05  -2.685416e+05
  -3.012798e+04  -1.906817e+05
   2.755855e+05  -8.789568e+04
   2.860243e+05  -3.149915e+04
   7.548501e+04   1.475211e+04
  -6.072709e+04   6.203552e+04
   5.879331e+03   6.827908e+04
   9.718335e+04   3.856880e+04
   2.150256e+03   3.161999e+04
  -2.167934e+05   3.764450e+04
  -2.859366e+05  -3.765523e+04
  -5.848769e+04  -2.035125e+05
   2.992112e+05  -2.914741e+05
   4.806104e+05  -1.364594e+05
   3.442483e+05   1.860422e+05
   1.976049e+04   4.045846e+05
  -2.456269e+05   3.426819e+05
  -3.008971e+05   9.705869e+04
  -1.764257e+05  -9.215324e+04
  -1.788682e+04  -9.716095e+04
   4.369859e+04  -2.420653e+03
  -1.046723e+04   1.903446e+04
  -8.428221e+04  -9.703527e+04
  -6.272922e+04  -2.268931e+05
   6.901211e+04  -1.829649e+05
   1.948654e+05   6.368173e+04
   1.699278e+05   3.057535e+05
  -2.700093e+04   2.961473e+05
  -2.402034e+05   2.407589e+04
  -2.621230e+05  -2.605246e+05
  -4.348397e+04  -3.157422e+05
   2.264655e+05  -1.446280e+05
   2.929853e+05   6.436955e+04
   1.104644e+05   1.645514e+05
  -9.605466e+04   1.512094e+05
  -8.865746e+04   8.583134e+04
   9.487399e+04   2.331556e+04
   1.852677e+05   1.514995e+04
   1.943209e+04   8.615336e+04
  -2.515624e+05   1.671998e+05
  -3.458166e+05   1.277984e+05
  -1.813004e+05  -5.874740e+04
   5.835510e+04  -2.322109e+05
   1.620642e+05  -2.081194e+05
   1.006922e+05  -8.768360e+03
  -1.412653e+04   1.468145e+05
  -8.718878e+04   9.844966e+04
  -9.603372e+04  -7.538146e+04
  -4.799610e+04  -1.698331e+05
   3.705886e+04  -9.783314e+04
   1.090067e+05   3.425306e+04
   1.155847e+05   7.969795e+04
   6.240663e+04   2.265390e+04
   6.989241e+03  -2.637343e+04
  -1.717225e+04   2.047026e+04
  -3.583751e+04   1.173132e+05
  -7.816388e+04   1.343659e+05
  -1.164598e+05   1.234898e+04
  -9.013876e+04  -1.515817e+05
   1.662780e+04  -1.940545e+05
   1.362142e+05  -6.358243e+04
   1.612512e+05   1.158666e+05
   4.106917e+04   1.760730e+05
  -1.457242e+05   7.983421e+04
  -2.307120e+05  -6.037385e+04
  -1.155398e+05  -1.218493e+05
   9.715999e+04  -8.762886e+04
   1.851633e+05  -2.311937e+04
   5.615975e+04   1.153704e+04
  -1.266815e+05  -2.633725e+03
  -1.279237e+05  -5.376384e+04
   7.280825e+04  -9.576364e+04
   2.499038e+05  -5.678463e+04
