
 $NMID
 id='ANONYMOUS ', fmtdat='(2E16.6)'
 volume=1.0
 tramp=1.0
 $END
   1.877123e+07  -9.511779e+05
   1.393258e+07   6.941802e+06
   1.899280e+06   1.177306e+07
  -7.511215e+06   9.947327e+06
  -7.806454e+06   2.562293e+06
  -1.345467e+06  -3.678940e+06
   4.242287e+06  -2.920896e+06
   4.074508e+06   2.965066e+06
  -2.331609e+05   6.444704e+06
  -3.759891e+06   3.332001e+06
  -3.535384e+06  -2.561333e+06
  -5.416479e+05  -4.530457e+06
   2.044195e+06  -8.254833e+05
   1.795438e+06   4.040373e+06
  -9.998196e+05   4.827666e+06
  -3.526104e+06   8.959317e+05
  -2.982670e+06  -3.848900e+06
   4.728397e+05  -5.209458e+06
   3.652713e+06  -2.550986e+06
   3.730534e+06   1.127979e+06
   1.341410e+06   2.590186e+06
  -3.555789e+05   1.629040e+06
   5.142924e+05   7.497321e+05
   2.436595e+06   1.815270e+06
   2.358835e+06   3.784177e+06
  -8.217619e+05   4.151994e+06
  -4.842007e+06   1.993176e+06
  -6.065168e+06  -1.117448e+06
  -3.064862e+06  -2.870612e+06
   1.593447e+06  -2.228778e+06
   3.551872e+06   5.796104e+04
   1.122572e+06   2.098481e+06
  -2.810561e+06   2.061756e+06
  -4.014350e+06  -3.177549e+05
  -1.656438e+06  -3.058850e+06
   1.187417e+06  -3.500874e+06
   1.624429e+06  -1.166455e+06
   1.248398e+05   1.402662e+06
  -8.969524e+05   1.361766e+06
  -3.334904e+05  -1.117891e+06
   9.317614e+05  -3.007842e+06
   1.741237e+06  -1.979225e+06
   1.663399e+06   9.050566e+05
   6.328459e+05   2.489207e+06
  -9.557393e+05   1.121534e+06
  -1.712867e+06  -1.620025e+06
  -2.496275e+05  -2.778201e+06
   2.680204e+06  -1.127939e+06
   4.155613e+06   1.771723e+06
   2.196668e+06   3.343301e+06
  -1.663883e+06   2.450751e+06
  -3.854026e+06   1.600061e+05
  -2.606202e+06  -1.542538e+06
   4.062004e+05  -1.536629e+06
   2.175497e+06  -2.876241e+05
   1.419158e+06   8.153215e+05
  -5.447605e+05   7.331814e+05
  -1.443905e+06  -3.615633e+05
  -3.608046e+05  -1.286225e+06
   1.374117e+06  -9.882988e+05
   1.591701e+06   3.513618e+05
  -2.220059e+05   1.374856e+06
  -2.078338e+06   8.496993e+05
  -1.607000e+06  -1.025177e+06
   1.126605e+06  -2.660972e+06
   3.595133e+06  -2.484260e+06
   3.681085e+06  -3.720063e+05
   1.852747e+06   2.224605e+06
   1.338810e+05   3.573958e+06
  -4.022184e+05   3.170369e+06
  -4.081453e+05   1.997757e+06
  -8.933820e+05   1.267479e+06
  -1.903677e+06   1.015918e+06
  -2.645005e+06   2.612568e+05
  -2.358937e+06  -1.386049e+06
  -9.174193e+05  -2.744143e+06
   1.009053e+06  -2.220860e+06
   2.182028e+06   1.412935e+05
   1.627281e+06   2.358756e+06
  -3.632963e+05   2.495746e+06
  -2.229072e+06   6.246844e+05
  -2.503501e+06  -1.466528e+06
  -1.211111e+06  -2.241058e+06
   2.805971e+05  -1.712879e+06
   8.061627e+05  -9.462979e+05
   6.058541e+05  -7.441330e+05
   8.648732e+05  -9.644935e+05
   2.119403e+06  -8.396655e+05
   3.332609e+06   2.191844e+05
   2.821301e+06   1.969678e+06
   2.153498e+05   3.326196e+06
  -2.732606e+06   3.151887e+06
  -3.664305e+06   1.328028e+06
  -2.007910e+06  -9.268139e+05
   4.272511e+05  -1.990427e+06
   1.378180e+06  -1.271600e+06
   3.860860e+05   2.439151e+05
  -1.069779e+06   9.562587e+05
  -1.400393e+06   2.538557e+05
  -4.599143e+05  -8.668165e+05
   6.273464e+05  -9.255405e+05
   7.319393e+05   2.633862e+05
  -3.002956e+05   1.190964e+06
  -1.563262e+06   3.205238e+05
  -1.768344e+06  -1.953572e+06
  -3.026731e+05  -3.449750e+06
   2.039900e+06  -2.488720e+06
   3.492719e+06   2.568403e+05
   2.846235e+06   2.484478e+06
   6.616835e+05   2.646378e+06
  -1.212044e+06   1.277578e+06
  -1.435864e+06   5.079150e+04
  -4.134100e+05  -3.933862e+04
   3.185108e+05   6.098610e+05
  -1.821589e+05   9.651809e+05
  -1.284794e+06   4.844352e+05
  -1.565463e+06  -4.480266e+05
  -4.805865e+05  -9.682687e+05
   8.969230e+05  -5.751780e+05
   9.714506e+05   3.470370e+05
  -5.513865e+05   8.225175e+05
  -2.158065e+06   2.054736e+05
  -2.049017e+06  -1.128330e+06
  -9.022262e+04  -2.051235e+06
   1.990472e+06  -1.711172e+06
   2.388575e+06  -3.437874e+05
   1.002192e+06   9.105443e+05
  -6.448175e+05   1.042355e+06
  -1.037148e+06   1.239059e+05
  -4.082792e+04  -7.524984e+05
   1.202109e+06  -5.757291e+05
   1.468980e+06   5.119219e+05
   5.347741e+05   1.357122e+06
  -7.143168e+05   1.075867e+06
  -1.137932e+06   4.335085e+04
  -4.360271e+05  -5.613887e+05
   5.226429e+05  -1.060435e+05
   5.610530e+05   8.286733e+05
  -5.325775e+05   1.143489e+06
  -1.690823e+06   3.755201e+05
  -1.656094e+06  -9.071856e+05
  -3.320265e+05  -1.688711e+06
   1.098313e+06  -1.382236e+06
   1.406007e+06  -2.862978e+05
   5.296766e+05   6.735026e+05
  -4.915534e+05   7.456891e+05
  -6.676856e+05   5.152360e+04
  -1.196949e+04  -5.541849e+05
   6.179608e+05  -4.280519e+05
   5.024561e+05   1.364196e+05
  -1.831560e+05   2.952855e+05
  -5.729494e+05  -2.809572e+05
  -4.236533e+04  -9.561299e+05
   1.077523e+06  -8.232499e+05
   1.749246e+06   2.898239e+05
   1.231086e+06   1.603238e+06
  -1.726629e+05   2.095463e+06
  -1.393510e+06   1.388377e+06
  -1.622250e+06   4.304387e+04
  -1.007751e+06  -9.358831e+05
  -3.455127e+05  -9.783543e+05
  -1.719983e+05  -4.367136e+05
  -2.682296e+05  -1.501254e+05
  -5.122898e+04  -4.668930e+05
   6.468941e+05  -8.209214e+05
   1.279972e+06  -4.311125e+05
   1.091738e+06   6.585458e+05
  -7.708678e+04   1.468304e+06
  -1.479980e+06   1.085515e+06
  -2.002388e+06  -3.481186e+05
  -1.112505e+06  -1.729422e+06
   6.278432e+05  -2.003235e+06
   1.993349e+06  -1.049358e+06
   2.110213e+06   3.181298e+05
   1.135063e+06   1.128433e+06
  -7.530663e+03   1.077444e+06
  -5.249848e+05   6.748735e+05
  -4.056249e+05   5.938339e+05
  -2.417424e+05   8.870760e+05
  -4.948920e+05   9.362218e+05
  -9.820345e+05   2.280769e+05
  -1.085496e+06  -9.297481e+05
  -4.507389e+05  -1.616842e+06
   5.532953e+05  -1.220545e+06
   1.115115e+06  -4.803998e+04
   7.611443e+05   9.839834e+05
  -1.560858e+05   1.175434e+06
  -7.983541e+05   5.563887e+05
  -6.804542e+05  -2.810611e+05
  -1.192662e+05  -7.506254e+05
   1.857971e+05  -7.138415e+05
  -3.388433e+04  -4.656901e+05
  -3.162057e+05  -3.398406e+05
  -1.849693e+04  -3.477663e+05
   8.811118e+05  -2.223772e+05
   1.622256e+06   2.109460e+05
   1.377479e+06   7.789868e+05
   1.436530e+05   1.098743e+06
  -1.146155e+06   9.266844e+05
  -1.486856e+06   3.672054e+05
  -7.796932e+05  -1.982821e+05
   1.270647e+05  -3.846030e+05
   3.785771e+05  -1.232195e+05
  -3.437295e+04   2.224999e+05
  -4.444808e+05   1.771528e+05
  -3.822703e+05  -2.931972e+05
  -5.106316e+04  -6.527960e+05
   7.100448e+04  -4.109618e+05
  -1.399189e+05   1.917757e+05
  -3.677428e+05   3.823200e+05
  -2.665265e+05  -1.796080e+05
   2.010926e+05  -8.900592e+05
   7.529531e+05  -8.765215e+05
   9.619616e+05  -5.125885e+04
   5.342699e+05   7.741523e+05
  -3.458469e+05   8.167718e+05
  -9.524210e+05   1.354831e+05
  -5.959358e+05  -5.388692e+05
   5.567707e+05  -5.877629e+05
   1.430628e+06  -8.530880e+03
   1.077835e+06   7.018866e+05
  -2.588406e+05   9.878538e+05
  -1.334748e+06   6.387808e+05
  -1.207842e+06  -4.789976e+04
  -1.979754e+05  -4.824692e+05
   5.400070e+05  -3.102108e+05
   2.794574e+05   1.980152e+05
  -5.725527e+05   3.641049e+05
  -9.905505e+05  -1.913262e+05
  -4.218242e+05  -1.068113e+06
   6.814369e+05  -1.386295e+06
   1.354966e+06  -6.387952e+05
   1.064610e+06   7.205102e+05
   1.389274e+05   1.583860e+06
  -6.555903e+05   1.199956e+06
  -8.357282e+05  -5.973778e+04
  -4.734880e+05  -1.027163e+06
   6.665875e+04  -9.225338e+05
   4.513862e+05  -1.294167e+05
   4.981283e+05   3.579554e+05
   2.462989e+05   1.607999e+05
   3.547753e+03  -1.182589e+05
   9.200800e+04   1.749949e+05
   3.811464e+05   8.060884e+05
   2.878627e+05   9.691233e+05
  -4.758664e+05   3.716398e+05
  -1.299572e+06  -4.177568e+05
  -1.228771e+06  -7.412659e+05
  -1.729572e+05  -5.825219e+05
   8.486330e+05  -3.392975e+05
   8.978134e+05  -1.896387e+05
   2.272981e+05  -2.002919e+04
  -1.688253e+05   1.807248e+05
   8.770512e+04   2.472545e+05
   3.563279e+05   1.640073e+05
  -9.772641e+03   1.208970e+05
  -7.137084e+05   1.361101e+05
  -8.849505e+05  -6.508333e+04
  -1.711644e+05  -5.711767e+05
   8.660784e+05  -9.159247e+05
   1.385504e+06  -5.321085e+05
   1.043737e+06   4.617969e+05
   1.587881e+05   1.237576e+06
  -6.494792e+05   1.131107e+06
  -9.070735e+05   3.566709e+05
  -5.751641e+05  -2.858220e+05
  -5.313777e+04  -3.060133e+05
   1.684141e+05   2.649665e+04
  -3.409778e+04   1.022592e+05
  -3.142155e+05  -2.875353e+05
  -2.492832e+05  -7.038920e+05
   1.921749e+05  -5.531065e+05
   6.042796e+05   2.046761e+05
   5.372706e+05   9.139595e+05
  -5.842520e+04   8.692281e+05
  -7.209940e+05   7.474065e+04
  -8.291707e+05  -7.508304e+05
  -1.966264e+05  -9.346811e+05
   6.435123e+05  -4.769143e+05
   8.997098e+05   1.207587e+05
   3.802048e+05   4.531362e+05
  -2.475267e+05   4.687726e+05
  -2.350304e+05   2.882873e+05
   3.180191e+05   6.173279e+04
   5.875226e+05   1.608157e+02
   8.303683e+04   2.452846e+05
  -7.268346e+05   5.810511e+05
  -1.008737e+06   5.238752e+05
  -5.496082e+05  -7.850857e+04
   1.099051e+05  -7.025064e+05
   3.978958e+05  -6.857008e+05
   2.580153e+05  -5.787946e+04
  -2.476896e+04   4.546765e+05
  -2.331213e+05   3.094011e+05
  -2.998905e+05  -2.311598e+05
  -1.891916e+05  -5.058036e+05
   7.657378e+04  -2.768907e+05
   3.286433e+05   9.008159e+04
   3.725914e+05   1.839319e+05
   2.088315e+05   2.862196e+04
   1.832685e+04  -5.160588e+04
  -7.778185e+04   1.171504e+05
  -1.360501e+05   3.585618e+05
  -2.404863e+05   3.549338e+05
  -3.304475e+05   3.544778e+02
  -2.495768e+05  -4.452920e+05
   5.393687e+04  -5.664174e+05
   4.056727e+05  -2.091564e+05
   4.958151e+05   3.183404e+05
   1.512663e+05   5.360332e+05
  -4.163697e+05   2.883239e+05
  -6.972347e+05  -1.286271e+05
  -3.729803e+05  -3.383951e+05
   2.592227e+05  -2.639349e+05
   5.245425e+05  -9.157413e+04
   1.393477e+05   2.058377e+03
  -4.008896e+05  -3.458796e+04
  -3.840597e+05  -1.762050e+05
   2.429523e+05  -3.051631e+05
   7.886748e+05  -2.007367e+05
