
 $NMID
 id='ANONYMOUS ', fmtdat='(2E16.6)'
 volume=1.0
 tramp=1.0
 $END
   2.486521e+07  -1.766894e+06
   1.836721e+07   1.001213e+07
   1.930111e+06   1.604945e+07
  -1.032808e+07   1.228616e+07
  -9.981395e+06   2.286949e+06
  -1.263593e+06  -4.840925e+06
   5.481903e+06  -3.115982e+06
   4.725163e+06   4.054982e+06
  -7.528312e+05   7.812436e+06
  -4.889456e+06   3.839426e+06
  -4.438313e+06  -3.204260e+06
  -7.139345e+05  -5.565713e+06
   2.481372e+06  -1.148279e+06
   2.145503e+06   4.766745e+06
  -1.380924e+06   5.767815e+06
  -4.493391e+06   9.196862e+05
  -3.684899e+06  -4.965016e+06
   7.091144e+05  -6.641575e+06
   4.700206e+06  -3.353620e+06
   4.918494e+06   1.237839e+06
   2.094903e+06   3.288128e+06
  -1.653831e+05   2.449821e+06
   4.205524e+05   1.402199e+06
   2.449554e+06   2.286689e+06
   2.545867e+06   4.268830e+06
  -8.839857e+05   4.755244e+06
  -5.584445e+06   2.480922e+06
  -7.249717e+06  -1.106752e+06
  -3.881610e+06  -3.341314e+06
   1.625720e+06  -2.754651e+06
   4.043184e+06  -1.373078e+05
   1.343991e+06   2.212983e+06
  -3.091495e+06   2.208400e+06
  -4.457224e+06  -3.659513e+05
  -1.896359e+06  -3.385599e+06
   1.221102e+06  -4.019772e+06
   1.831887e+06  -1.567676e+06
   3.693597e+05   1.432379e+06
  -7.662869e+05   1.695173e+06
  -3.422516e+05  -1.020753e+06
   9.990107e+05  -3.382975e+06
   2.074519e+06  -2.313791e+06
   2.032181e+06   1.231004e+06
   5.374044e+05   3.255735e+06
  -1.622416e+06   1.418107e+06
  -2.377776e+06  -2.250684e+06
  -2.191983e+05  -3.744132e+06
   3.471010e+06  -1.502675e+06
   5.078268e+06   2.233701e+06
   2.541863e+06   4.106492e+06
  -2.083006e+06   2.878360e+06
  -4.603039e+06   4.709517e+04
  -3.024670e+06  -1.966227e+06
   6.334099e+05  -1.872387e+06
   2.738255e+06  -2.693853e+05
   1.721163e+06   1.098862e+06
  -7.171064e+05   9.232667e+05
  -1.702988e+06  -4.761151e+05
  -2.556372e+05  -1.493436e+06
   1.749309e+06  -9.227059e+05
   1.717689e+06   7.305686e+05
  -6.278969e+05   1.731884e+06
  -2.728424e+06   8.532632e+05
  -1.975521e+06  -1.427739e+06
   1.313992e+06  -3.297796e+06
   4.227189e+06  -3.073301e+06
   4.428170e+06  -5.795397e+05
   2.375142e+06   2.592676e+06
   2.601854e+05   4.323540e+06
  -5.721320e+05   3.823447e+06
  -6.186188e+05   2.266914e+06
  -1.013374e+06   1.308695e+06
  -2.038467e+06   1.108936e+06
  -2.926182e+06   3.880691e+05
  -2.710080e+06  -1.464871e+06
  -1.114506e+06  -3.074104e+06
   1.091542e+06  -2.522595e+06
   2.452638e+06   1.627979e+05
   1.857899e+06   2.705117e+06
  -3.938896e+05   2.903953e+06
  -2.595703e+06   8.059111e+05
  -3.038093e+06  -1.637756e+06
  -1.588923e+06  -2.674409e+06
   2.548369e+05  -2.182332e+06
   1.019943e+06  -1.271979e+06
   8.338829e+05  -9.261358e+05
   1.093801e+06  -1.104946e+06
   2.528999e+06  -9.419002e+05
   3.941658e+06   2.987362e+05
   3.315804e+06   2.343991e+06
   2.367323e+05   3.908270e+06
  -3.196548e+06   3.691393e+06
  -4.260184e+06   1.586479e+06
  -2.352963e+06  -1.023503e+06
   4.400337e+05  -2.296696e+06
   1.558157e+06  -1.507689e+06
   4.537557e+05   2.613328e+05
  -1.233291e+06   1.126206e+06
  -1.656760e+06   3.079472e+05
  -5.725061e+05  -1.020720e+06
   7.153626e+05  -1.076777e+06
   8.186990e+05   3.266944e+05
  -4.325091e+05   1.346681e+06
  -1.868499e+06   2.265024e+05
  -1.965073e+06  -2.424793e+06
  -1.601615e+05  -4.022522e+06
   2.498225e+06  -2.763000e+06
   4.038980e+06   4.281707e+05
   3.222289e+06   2.923102e+06
   7.254813e+05   3.058691e+06
  -1.405053e+06   1.481977e+06
  -1.664635e+06   6.750122e+04
  -4.837396e+05  -4.685759e+04
   3.698670e+05   7.169887e+05
  -2.280129e+05   1.150141e+06
  -1.537210e+06   5.728954e+05
  -1.853805e+06  -5.546772e+05
  -5.500437e+05  -1.161308e+06
   1.062355e+06  -6.630662e+05
   1.112871e+06   4.185558e+05
  -6.755531e+05   9.248987e+05
  -2.505127e+06   1.754481e+05
  -2.333674e+06  -1.343642e+06
  -5.746938e+04  -2.367488e+06
   2.337314e+06  -1.961966e+06
   2.792955e+06  -3.827397e+05
   1.177116e+06   1.083180e+06
  -7.638692e+05   1.244787e+06
  -1.241425e+06   1.542893e+05
  -6.394450e+04  -8.929618e+05
   1.414215e+06  -6.772950e+05
   1.719128e+06   6.185628e+05
   5.969134e+05   1.599827e+06
  -8.671521e+05   1.236103e+06
  -1.331727e+06   1.344300e+04
  -4.873170e+05  -6.743690e+05
   6.288205e+05  -1.203180e+05
   6.618163e+05   9.754960e+05
  -6.196876e+05   1.340804e+06
  -1.976894e+06   4.433911e+05
  -1.940745e+06  -1.061604e+06
  -3.849544e+05  -1.983066e+06
   1.300537e+06  -1.617953e+06
   1.653994e+06  -3.214485e+05
   6.085429e+05   7.983119e+05
  -5.854516e+05   8.655785e+05
  -7.664501e+05   5.619180e+04
   6.714350e+03  -6.247974e+05
   7.097920e+05  -4.662264e+05
   5.426375e+05   1.640146e+05
  -2.463393e+05   3.123418e+05
  -6.634028e+05  -3.646866e+05
  -2.517084e+04  -1.129849e+06
   1.274292e+06  -9.555076e+05
   2.048074e+06   3.499387e+05
   1.437502e+06   1.882589e+06
  -2.100282e+05   2.445640e+06
  -1.636154e+06   1.598873e+06
  -1.881413e+06   2.466883e+04
  -1.141374e+06  -1.086639e+06
  -3.812401e+05  -1.102378e+06
  -2.173141e+05  -4.781788e+05
  -3.442900e+05  -1.811133e+05
  -6.640965e+04  -5.646915e+05
   7.707791e+05  -9.549611e+05
   1.497207e+06  -4.823887e+05
   1.252198e+06   7.743874e+05
  -1.153517e+05   1.696386e+06
  -1.736803e+06   1.245865e+06
  -2.332071e+06  -4.221224e+05
  -1.281387e+06  -2.035089e+06
   7.638572e+05  -2.347341e+06
   2.355892e+06  -1.207562e+06
   2.461082e+06   4.066358e+05
   1.289974e+06   1.332552e+06
  -3.735142e+04   1.235446e+06
  -6.020654e+05   7.564947e+05
  -4.387724e+05   6.883100e+05
  -2.624339e+05   1.055590e+06
  -5.845045e+05   1.112027e+06
  -1.159843e+06   2.717662e+05
  -1.271496e+06  -1.087221e+06
  -5.246281e+05  -1.890019e+06
   6.475193e+05  -1.424683e+06
   1.302714e+06  -4.710747e+04
   8.825387e+05   1.165758e+06
  -2.040707e+05   1.379852e+06
  -9.609664e+05   6.311473e+05
  -8.044654e+05  -3.632660e+05
  -1.182116e+05  -9.015290e+05
   2.492501e+05  -8.364080e+05
  -2.391198e+04  -5.356189e+05
  -3.727806e+05  -3.909770e+05
  -2.347639e+04  -4.034578e+05
   1.042155e+06  -2.555524e+05
   1.911979e+06   2.550921e+05
   1.610744e+06   9.254951e+05
   1.495504e+05   1.302668e+06
  -1.363033e+06   1.090479e+06
  -1.750349e+06   4.132103e+05
  -9.096506e+05  -2.595616e+05
   1.569068e+05  -4.625419e+05
   4.516548e+05  -1.345206e+05
  -3.043527e+04   2.728740e+05
  -5.116487e+05   2.086569e+05
  -4.490495e+05  -3.427187e+05
  -7.458198e+04  -7.545307e+05
   6.776765e+04  -4.754789e+05
  -1.648687e+05   2.112296e+05
  -4.208604e+05   4.277496e+05
  -3.080991e+05  -2.137530e+05
   2.303842e+05  -1.032224e+06
   8.830937e+05  -1.026155e+06
   1.143060e+06  -7.345130e+04
   6.431608e+05   9.013302e+05
  -4.028460e+05   9.705666e+05
  -1.122076e+06   1.757160e+05
  -6.968601e+05  -6.250872e+05
   6.578926e+05  -6.829144e+05
   1.666496e+06   5.964276e+03
   1.234926e+06   8.334864e+05
  -3.262215e+05   1.142696e+06
  -1.562373e+06   7.161401e+05
  -1.397877e+06  -7.645352e+04
  -2.196462e+05  -5.620815e+05
   6.358463e+05  -3.526455e+05
   3.328746e+05   2.365371e+05
  -6.596240e+05   4.308057e+05
  -1.155617e+06  -2.120766e+05
  -5.052333e+05  -1.238202e+06
   7.780300e+05  -1.620632e+06
   1.571796e+06  -7.537083e+05
   1.241163e+06   8.362019e+05
   1.606723e+05   1.844431e+06
  -7.694884e+05   1.389536e+06
  -9.742605e+05  -8.353645e+04
  -5.386390e+05  -1.203866e+06
   9.680966e+04  -1.070979e+06
   5.328736e+05  -1.444073e+05
   5.688525e+05   4.186843e+05
   2.740239e+05   1.868842e+05
   9.847258e+03  -1.351981e+05
   1.260993e+05   2.090259e+05
   4.501822e+05   9.435756e+05
   3.183665e+05   1.131731e+06
  -5.734457e+05   4.333761e+05
  -1.512698e+06  -4.903346e+05
  -1.418050e+06  -8.705548e+05
  -1.994305e+05  -6.833776e+05
   9.783560e+05  -3.929905e+05
   1.044303e+06  -2.137777e+05
   2.770825e+05  -1.783167e+04
  -1.921985e+05   2.108402e+05
   8.600373e+04   2.845872e+05
   3.983493e+05   1.869712e+05
  -5.807626e+03   1.387842e+05
  -8.151265e+05   1.603978e+05
  -1.033478e+06  -7.129043e+04
  -2.226567e+05  -6.640060e+05
   9.941243e+05  -1.074526e+06
   1.624673e+06  -6.344610e+05
   1.234985e+06   5.258153e+05
   1.907770e+05   1.440105e+06
  -7.608296e+05   1.326043e+06
  -1.056413e+06   4.267797e+05
  -6.670028e+05  -3.254650e+05
  -6.867714e+04  -3.558209e+05
   1.812598e+05   2.497066e+04
  -4.711134e+04   1.101486e+05
  -3.606581e+05  -3.417887e+05
  -2.848725e+05  -8.228729e+05
   2.202033e+05  -6.480020e+05
   6.998311e+05   2.290443e+05
   6.340815e+05   1.054027e+06
  -5.065394e+04   1.012047e+06
  -8.289041e+05   9.992232e+04
  -9.698314e+05  -8.609677e+05
  -2.401216e+05  -1.088992e+06
   7.455052e+05  -5.673760e+05
   1.056206e+06   1.341202e+05
   4.547599e+05   5.363831e+05
  -2.862687e+05   5.607120e+05
  -2.851739e+05   3.425727e+05
   3.568673e+05   6.975998e+04
   6.816260e+05  -1.683738e+03
   1.023146e+05   2.876190e+05
  -8.480667e+05   6.768695e+05
  -1.190285e+06   6.050022e+05
  -6.570519e+05  -9.830447e+04
   1.250799e+05  -8.248452e+05
   4.738387e+05  -8.087461e+05
   3.118703e+05  -8.053037e+04
  -2.268739e+04   5.234663e+05
  -2.674238e+05   3.678819e+05
  -3.466389e+05  -2.577900e+05
  -2.231912e+05  -5.890469e+05
   8.314803e+04  -3.332249e+05
   3.828445e+05   9.931994e+04
   4.411803e+05   2.213552e+05
   2.456584e+05   4.048862e+04
   1.306422e+04  -6.806739e+04
  -9.549557e+04   1.176124e+05
  -1.436073e+05   4.068974e+05
  -2.534427e+05   4.218154e+05
  -3.727210e+05   2.079581e+04
  -3.042568e+05  -5.010875e+05
   4.131276e+04  -6.538884e+05
   4.654487e+05  -2.491616e+05
   5.850946e+05   3.606357e+05
   1.823955e+05   6.188266e+05
  -4.884622e+05   3.398237e+05
  -8.195268e+05  -1.416482e+05
  -4.393082e+05  -3.929503e+05
   2.997056e+05  -3.174256e+05
   6.123198e+05  -1.196963e+05
   1.715237e+05  -2.155160e+03
  -4.521989e+05  -3.319099e+04
  -4.399071e+05  -1.926813e+05
   2.740646e+05  -3.457997e+05
   9.019232e+05  -2.318526e+05
