
 $NMID
 id='ANONYMOUS ', fmtdat='(2E16.6)'
 volume=1.0
 tramp=1.0
 $END
   2.382934e+07   2.201463e+06
   1.431391e+07   1.239962e+07
  -1.579306e+06   1.457809e+07
  -1.059114e+07   8.871765e+06
  -8.109839e+06   5.080044e+05
  -2.082350e+05  -4.037297e+06
   4.624825e+06  -1.863325e+06
   3.298517e+06   3.762108e+06
  -1.271583e+06   6.291815e+06
  -4.418412e+06   2.640243e+06
  -3.700312e+06  -3.321529e+06
  -2.602216e+05  -5.083207e+06
   2.464371e+06  -9.342012e+05
   1.817330e+06   4.265080e+06
  -1.483944e+06   4.803726e+06
  -3.908672e+06   2.352890e+05
  -2.655887e+06  -4.803373e+06
   1.442901e+06  -5.806111e+06
   4.782341e+06  -2.481724e+06
   4.620653e+06   1.813241e+06
   1.680884e+06   3.691877e+06
  -7.875795e+05   2.698213e+06
  -4.235247e+05   1.192568e+06
   1.747453e+06   1.523877e+06
   2.339588e+06   3.380086e+06
  -6.166079e+05   4.216964e+06
  -5.061151e+06   2.321289e+06
  -6.671806e+06  -1.123804e+06
  -3.522483e+06  -3.338686e+06
   1.544558e+06  -2.790945e+06
   3.778373e+06  -3.375340e+05
   1.510338e+06   1.887567e+06
  -2.355793e+06   2.102541e+06
  -3.801796e+06  -1.071596e+04
  -1.880911e+06  -2.825487e+06
   9.163118e+05  -3.694500e+06
   1.851155e+06  -1.530383e+06
   6.845521e+05   1.473979e+06
  -7.022399e+05   1.905235e+06
  -6.646302e+05  -7.096191e+05
   6.637814e+05  -3.020090e+06
   1.831900e+06  -1.962711e+06
   1.570529e+06   1.273861e+06
  -9.362362e+04   2.719047e+06
  -1.778051e+06   5.966782e+05
  -1.748494e+06  -2.631824e+06
   5.165842e+05  -3.384725e+06
   3.426596e+06  -9.268663e+05
   4.306163e+06   2.329225e+06
   1.931869e+06   3.641060e+06
  -1.906213e+06   2.326445e+06
  -3.873342e+06  -1.645264e+05
  -2.399582e+06  -1.765561e+06
   7.381525e+05  -1.448107e+06
   2.386224e+06   7.097946e+04
   1.321765e+06   1.115083e+06
  -7.591899e+05   7.230730e+05
  -1.418799e+06  -4.674959e+05
  -1.574606e+05  -1.077590e+06
   1.277497e+06  -5.065295e+05
   1.003052e+06   5.883416e+05
  -8.770452e+05   1.067021e+06
  -2.318456e+06   2.754150e+05
  -1.451096e+06  -1.477135e+06
   1.403652e+06  -2.955031e+06
   3.932245e+06  -2.708109e+06
   4.112342e+06  -3.865826e+05
   2.163299e+06   2.548110e+06
   5.951027e+04   3.974760e+06
  -7.128718e+05   3.243873e+06
  -5.100943e+05   1.752008e+06
  -6.349446e+05   1.107069e+06
  -1.594085e+06   1.186393e+06
  -2.600525e+06   5.955518e+05
  -2.557683e+06  -1.156143e+06
  -1.164797e+06  -2.692626e+06
   8.276941e+05  -2.291706e+06
   2.108581e+06   1.699586e+04
   1.668381e+06   2.290295e+06
  -3.234280e+05   2.573224e+06
  -2.369626e+06   7.407900e+05
  -2.798156e+06  -1.558374e+06
  -1.376382e+06  -2.595098e+06
   4.415410e+05  -2.075917e+06
   1.147432e+06  -1.069964e+06
   8.549333e+05  -6.595744e+05
   9.597483e+05  -8.419907e+05
   2.178461e+06  -7.329084e+05
   3.403446e+06   3.469777e+05
   2.841768e+06   2.094594e+06
   1.650582e+05   3.402826e+06
  -2.809725e+06   3.218010e+06
  -3.760978e+06   1.420684e+06
  -2.136585e+06  -8.852580e+05
   3.258841e+05  -2.074516e+06
   1.374514e+06  -1.391391e+06
   4.301744e+05   2.268009e+05
  -1.087058e+06   1.009035e+06
  -1.474835e+06   2.403660e+05
  -5.008903e+05  -9.465515e+05
   6.185133e+05  -9.610105e+05
   6.771796e+05   2.488166e+05
  -3.554775e+05   1.050222e+06
  -1.454078e+06   7.806945e+04
  -1.479538e+06  -2.043690e+06
  -6.267463e+04  -3.249049e+06
   2.038546e+06  -2.193990e+06
   3.333968e+06   3.769219e+05
   2.736774e+06   2.426863e+06
   6.534493e+05   2.593825e+06
  -1.209450e+06   1.301244e+06
  -1.458511e+06   7.542785e+04
  -4.205221e+05  -4.377297e+04
   3.156029e+05   6.270105e+05
  -2.384756e+05   9.952039e+05
  -1.370410e+06   4.521054e+05
  -1.588327e+06  -5.371321e+05
  -4.318550e+05  -1.016638e+06
   9.273274e+05  -5.562290e+05
   9.487512e+05   3.449691e+05
  -5.544984e+05   7.537611e+05
  -2.095803e+06   1.476450e+05
  -1.978865e+06  -1.105888e+06
  -6.651606e+04  -1.992270e+06
   1.999462e+06  -1.678995e+06
   2.415394e+06  -3.176073e+05
   1.001453e+06   9.660436e+05
  -7.120504e+05   1.082993e+06
  -1.110861e+06   9.461907e+04
  -4.168215e+04  -8.099202e+05
   1.248603e+06  -5.785036e+05
   1.475108e+06   5.569887e+05
   4.866738e+05   1.368578e+06
  -7.476949e+05   1.025952e+06
  -1.116362e+06  -1.113121e+04
  -3.903832e+05  -5.715630e+05
   5.550429e+05  -8.123128e+04
   5.732310e+05   8.642805e+05
  -5.461500e+05   1.177839e+06
  -1.733868e+06   3.868004e+05
  -1.694263e+06  -9.378673e+05
  -3.183200e+05  -1.733057e+06
   1.150561e+06  -1.388460e+06
   1.432477e+06  -2.551870e+05
   5.090694e+05   6.919331e+05
  -5.125368e+05   7.388136e+05
  -6.610428e+05   6.281214e+04
  -1.606509e+04  -5.119412e+05
   5.711755e+05  -4.113383e+05
   4.516010e+05   8.596556e+04
  -1.831174e+05   2.176153e+05
  -5.276474e+05  -3.237298e+05
   4.713441e+03  -9.581656e+05
   1.110129e+06  -8.101290e+05
   1.774274e+06   3.175453e+05
   1.239903e+06   1.647732e+06
  -1.873278e+05   2.122323e+06
  -1.404025e+06   1.372347e+06
  -1.602283e+06   2.569308e+04
  -9.869615e+05  -9.001224e+05
  -3.737907e+05  -9.159759e+05
  -2.371407e+05  -4.250718e+05
  -3.054038e+05  -1.999295e+05
  -3.555776e+04  -5.073631e+05
   6.724140e+05  -8.100875e+05
   1.277563e+06  -4.095320e+05
   1.075139e+06   6.460912e+05
  -8.646974e+04   1.438051e+06
  -1.489381e+06   1.066795e+06
  -2.011549e+06  -3.669013e+05
  -1.090086e+06  -1.760195e+06
   6.911383e+05  -2.012186e+06
   2.045702e+06  -1.008293e+06
   2.100645e+06   3.678103e+05
   1.090551e+06   1.124436e+06
  -1.582781e+04   1.031778e+06
  -4.802031e+05   6.609999e+05
  -3.624874e+05   6.435674e+05
  -2.478029e+05   9.547179e+05
  -5.384924e+05   9.688546e+05
  -1.024975e+06   2.213331e+05
  -1.108488e+06  -9.557001e+05
  -4.530812e+05  -1.648774e+06
   5.664396e+05  -1.241057e+06
   1.126214e+06  -3.566963e+04
   7.455058e+05   1.016998e+06
  -1.975255e+05   1.178984e+06
  -8.270986e+05   5.055978e+05
  -6.607597e+05  -3.444108e+05
  -6.189657e+04  -7.699048e+05
   2.348928e+05  -6.897459e+05
  -2.413482e+04  -4.440965e+05
  -3.333490e+05  -3.428256e+05
  -2.447744e+04  -3.524663e+05
   9.086772e+05  -2.036962e+05
   1.663357e+06   2.491434e+05
   1.385637e+06   8.176618e+05
   9.755624e+04   1.122142e+06
  -1.210874e+06   9.229068e+05
  -1.513877e+06   3.344978e+05
  -7.577290e+05  -2.379521e+05
   1.576720e+05  -3.978804e+05
   3.858008e+05  -1.010794e+05
  -3.960169e+04   2.546447e+05
  -4.453192e+05   1.906190e+05
  -3.912685e+05  -3.028505e+05
  -7.985492e+04  -6.734269e+05
   4.804516e+04  -4.320057e+05
  -1.278664e+05   1.769243e+05
  -3.396856e+05   3.768581e+05
  -2.625736e+05  -1.827080e+05
   1.895879e+05  -9.021299e+05
   7.747443e+05  -8.914541e+05
   1.022076e+06  -4.507749e+04
   5.719117e+05   8.094344e+05
  -3.725202e+05   8.544590e+05
  -1.004616e+06   1.470401e+05
  -6.126496e+05  -5.452084e+05
   5.731407e+05  -5.835692e+05
   1.431311e+06   8.107741e+03
   1.048995e+06   7.033597e+05
  -2.812962e+05   9.612344e+05
  -1.326939e+06   6.064878e+05
  -1.188239e+06  -6.007686e+04
  -1.881440e+05  -4.754192e+05
   5.453308e+05  -2.967523e+05
   2.866484e+05   2.171983e+05
  -5.791559e+05   3.893339e+05
  -1.022072e+06  -1.797586e+05
  -4.563750e+05  -1.092839e+06
   6.752919e+05  -1.435881e+06
   1.377168e+06  -6.719632e+05
   1.087153e+06   7.259809e+05
   1.440143e+05   1.604639e+06
  -6.592200e+05   1.201474e+06
  -8.316976e+05  -7.704111e+04
  -4.577757e+05  -1.034329e+06
   8.479142e+04  -9.081481e+05
   4.588858e+05  -1.160812e+05
   4.901449e+05   3.497558e+05
   2.348127e+05   1.460218e+05
   7.598180e+03  -1.095528e+05
   1.116660e+05   2.076875e+05
   3.911089e+05   8.309718e+05
   2.692996e+05   9.655204e+05
  -5.071478e+05   3.550857e+05
  -1.313867e+06  -4.241227e+05
  -1.223019e+06  -7.415093e+05
  -1.684656e+05  -5.940750e+05
   8.444016e+05  -3.562263e+05
   8.997175e+05  -1.876320e+05
   2.393406e+05   1.403671e+03
  -1.658449e+05   1.897221e+05
   7.315501e+04   2.258621e+05
   3.460620e+05   1.391107e+05
   5.207428e+02   1.270424e+05
  -7.054019e+05   1.628940e+05
  -9.074751e+05  -6.108025e+04
  -2.066443e+05  -6.066177e+05
   8.674068e+05  -9.599173e+05
   1.436740e+06  -5.487658e+05
   1.099869e+06   4.744246e+05
   1.736406e+05   1.260731e+06
  -6.718960e+05   1.155066e+06
  -9.332807e+05   3.793497e+05
  -5.902271e+05  -2.749907e+05
  -6.454135e+04  -3.181035e+05
   1.592477e+05   1.371125e+02
  -3.249719e+04   8.323625e+04
  -3.044211e+05  -2.929543e+05
  -2.444084e+05  -7.108070e+05
   1.936344e+05  -5.715223e+05
   6.206891e+05   1.890260e+05
   5.715736e+05   9.231842e+05
  -3.439850e+04   9.036026e+05
  -7.337462e+05   1.076777e+05
  -8.654391e+05  -7.475172e+05
  -2.157508e+05  -9.620941e+05
   6.612763e+05  -5.058205e+05
   9.319326e+05   1.219016e+05
   3.917485e+05   4.844441e+05
  -2.653662e+05   4.978227e+05
  -2.607660e+05   2.879422e+05
   3.080138e+05   4.231149e+04
   5.949021e+05  -7.281556e+03
   8.963965e+04   2.579722e+05
  -7.379973e+05   5.898101e+05
  -1.035341e+06   5.085442e+05
  -5.708468e+05  -1.080415e+05
   1.142224e+05  -7.252116e+05
   4.276917e+05  -6.967037e+05
   2.923413e+05  -6.201202e+04
  -8.466732e+03   4.612140e+05
  -2.397303e+05   3.291976e+05
  -3.157053e+05  -2.158089e+05
  -1.970563e+05  -5.160923e+05
   8.258690e+04  -3.023274e+05
   3.408031e+05   8.349468e+04
   3.788846e+05   2.037485e+05
   2.060922e+05   4.062841e+04
   1.775550e+04  -7.291343e+04
  -6.139562e+04   8.896068e+04
  -1.047929e+05   3.690531e+05
  -2.196096e+05   4.047064e+05
  -3.451944e+05   4.230064e+04
  -2.935458e+05  -4.457018e+05
   1.853361e+04  -5.941740e+05
   4.089173e+05  -2.291675e+05
   5.262406e+05   3.181121e+05
   1.697938e+05   5.441237e+05
  -4.310590e+05   2.944650e+05
  -7.274767e+05  -1.274040e+05
  -3.871093e+05  -3.469374e+05
   2.720284e+05  -2.840616e+05
   5.500598e+05  -1.091548e+05
   1.587397e+05   7.529787e+03
  -3.971235e+05  -6.635238e+03
  -3.964222e+05  -1.526680e+05
   2.224452e+05  -3.092157e+05
   7.761400e+05  -2.240608e+05
