
 $NMID
 id='ANONYMOUS ', fmtdat='(2E16.6)'
 volume=1.0
 tramp=1.0
 $END
  -4.115834e+07   1.149271e+06
  -2.673981e+07  -2.272701e+07
   2.643207e+06  -2.762376e+07
   1.931799e+07  -1.375907e+07
   1.355835e+07   2.451531e+06
  -1.042119e+06   7.262941e+06
  -7.852778e+06   9.325816e+05
  -3.815527e+06  -7.091319e+06
   3.604660e+06  -8.730993e+06
   7.430990e+06  -2.950820e+06
   5.789548e+06   4.761412e+06
   7.617432e+05   7.158907e+06
  -3.253450e+06   1.970465e+06
  -2.365497e+06  -5.156631e+06
   2.660797e+06  -6.229452e+06
   6.300155e+06   2.193408e+05
   4.132531e+06   7.703549e+06
  -2.267421e+06   9.365536e+06
  -7.484160e+06   4.723727e+06
  -7.961472e+06  -1.609903e+06
  -4.463047e+06  -5.396613e+06
  -3.587134e+05  -5.618266e+06
   1.212536e+06  -3.856330e+06
  -2.442662e+05  -2.615832e+06
  -1.739120e+06  -3.269492e+06
   3.699296e+05  -4.457353e+06
   5.518340e+06  -3.410925e+06
   8.487126e+06   3.291802e+05
   5.501697e+06   3.750001e+06
  -6.635775e+05   3.900471e+06
  -3.860265e+06   1.333622e+06
  -1.866372e+06  -1.081946e+06
   1.888082e+06  -1.495073e+06
   3.353770e+06   1.815954e+04
   1.989653e+06   2.424100e+06
  -2.951088e+05   3.952602e+06
  -1.803718e+06   2.726244e+06
  -1.795404e+06  -7.141520e+05
  -5.120711e+05  -2.644490e+06
   5.010343e+05  -4.821367e+05
  -3.734850e+05   2.897467e+06
  -2.311292e+06   2.308968e+06
  -2.280280e+06  -2.257761e+06
   9.579318e+05  -4.808056e+06
   4.377571e+06  -1.300285e+06
   3.853602e+06   4.631491e+06
  -8.232448e+05   6.254166e+06
  -5.515749e+06   2.012945e+06
  -6.085428e+06  -3.405335e+06
  -2.192336e+06  -5.161481e+06
   2.846389e+06  -2.815588e+06
   5.001629e+06   7.980872e+05
   2.745399e+06   2.804482e+06
  -1.564978e+06   2.077168e+06
  -3.697014e+06  -3.372461e+05
  -1.867305e+06  -1.951306e+06
   1.236186e+06  -1.168342e+06
   1.739392e+06   7.804791e+05
  -5.758164e+05   1.243497e+06
  -2.194059e+06  -4.430468e+05
  -5.814917e+05  -2.181733e+06
   2.689862e+06  -1.898246e+06
   4.112112e+06   2.515165e+05
   2.195149e+06   2.755442e+06
  -1.575430e+06   4.320702e+06
  -4.661039e+06   3.966425e+06
  -5.348960e+06   1.161877e+06
  -3.501310e+06  -2.887780e+06
  -5.961211e+05  -5.291936e+06
   1.261965e+06  -4.354519e+06
   1.253857e+06  -1.765116e+06
   6.317939e+05  -4.948994e+05
   1.014069e+06  -9.913398e+05
   2.253908e+06  -1.051383e+06
   2.739893e+06   6.337406e+05
   1.537822e+06   2.513035e+06
  -5.644887e+05   2.321416e+06
  -2.007780e+06  -1.908791e+04
  -1.742777e+06  -2.433594e+06
   2.259663e+05  -2.936565e+06
   2.700951e+06  -1.222505e+06
   3.773026e+06   1.431134e+06
   2.428952e+06   3.241127e+06
  -1.319888e+05   3.241732e+06
  -1.659587e+06   2.035409e+06
  -1.564403e+06   1.059592e+06
  -1.504057e+06   9.004820e+05
  -2.786328e+06   6.922773e+05
  -4.196524e+06  -5.781136e+05
  -3.418199e+06  -2.621825e+06
  -1.421086e+05  -4.068059e+06
   3.276443e+06  -3.801853e+06
   4.271379e+06  -1.827746e+06
   2.512648e+06   7.460407e+05
  -1.035220e+05   2.272381e+06
  -1.349289e+06   1.718295e+06
  -5.086173e+05  -1.511874e+05
   1.182623e+06  -1.217020e+06
   1.807846e+06  -3.434763e+05
   7.513448e+05   1.128599e+06
  -6.337716e+05   1.096824e+06
  -6.235917e+05  -3.805472e+05
   7.945781e+05  -1.032796e+06
   1.915210e+06   5.780158e+05
   1.294247e+06   3.050921e+06
  -8.064640e+05   3.785872e+06
  -2.924105e+06   1.919933e+06
  -3.719421e+06  -1.023839e+06
  -2.727901e+06  -2.929815e+06
  -5.461895e+05  -2.875313e+06
   1.354921e+06  -1.470061e+06
   1.637531e+06  -1.299055e+05
   4.939317e+05   5.278361e+04
  -3.602350e+05  -7.494984e+05
   3.390471e+05  -1.265802e+06
   1.758443e+06  -5.710599e+05
   1.971685e+06   7.568297e+05
   4.605896e+05   1.321015e+06
  -1.144439e+06   6.120285e+05
  -1.005041e+06  -4.622363e+05
   7.955138e+05  -7.184052e+05
   2.378306e+06   1.220558e+05
   2.035875e+06   1.409280e+06
  -1.415011e+05   2.195439e+06
  -2.383487e+06   1.794303e+06
  -2.826239e+06   2.938376e+05
  -1.203436e+06  -1.208136e+06
   8.669594e+05  -1.390596e+06
   1.427732e+06  -1.654593e+05
   1.297097e+05   1.002446e+06
  -1.495081e+06   7.020026e+05
  -1.737121e+06  -7.357772e+05
  -4.472064e+05  -1.662238e+06
   1.019732e+06  -1.107860e+06
   1.316709e+06   1.786737e+05
   3.583938e+05   7.519444e+05
  -7.298558e+05   8.232023e+04
  -7.001471e+05  -1.037426e+06
   6.199787e+05  -1.395209e+06
   2.024129e+06  -4.783954e+05
   2.004537e+06   1.092561e+06
   3.662914e+05   2.064256e+06
  -1.413253e+06   1.639603e+06
  -1.721769e+06   2.463055e+05
  -5.509489e+05  -8.571418e+05
   6.453256e+05  -8.380877e+05
   7.062853e+05  -5.523576e+04
  -7.991778e+04   4.942936e+05
  -6.138421e+05   3.214291e+05
  -3.214309e+05  -1.287932e+05
   3.691645e+05  -1.092721e+05
   5.956743e+05   5.453750e+05
  -1.120449e+05   1.180561e+06
  -1.362928e+06   9.219665e+05
  -2.090773e+06  -4.146013e+05
  -1.449161e+06  -1.958632e+06
   2.479554e+05  -2.463103e+06
   1.671109e+06  -1.499271e+06
   1.807249e+06   8.375165e+04
   9.869017e+05   1.019604e+06
   3.290372e+05   8.820581e+05
   3.481176e+05   3.436064e+05
   5.006011e+05   2.530637e+05
   7.718595e+04   6.794652e+05
  -8.509551e+05   9.309103e+05
  -1.500220e+06   3.840410e+05
  -1.149187e+06  -7.768247e+05
   2.157016e+05  -1.593170e+06
   1.771456e+06  -1.146938e+06
   2.314058e+06   4.921824e+05
   1.194578e+06   2.116753e+06
  -9.359205e+05   2.384031e+06
  -2.506901e+06   1.102718e+06
  -2.434817e+06  -5.816921e+05
  -1.110800e+06  -1.377010e+06
   1.501320e+05  -1.099204e+06
   5.103176e+05  -6.224009e+05
   2.583047e+05  -7.197139e+05
   1.886822e+05  -1.198415e+06
   6.489769e+05  -1.216277e+06
   1.249904e+06  -2.888744e+05
   1.310649e+06   1.112587e+06
   5.257128e+05   1.923804e+06
  -6.598264e+05   1.442123e+06
  -1.312659e+06   4.502167e+03
  -8.442839e+05  -1.257394e+06
   3.243533e+05  -1.408351e+06
   1.095095e+06  -5.099556e+05
   8.209942e+05   5.582316e+05
  -1.818584e+04   1.013826e+06
  -4.191541e+05   8.210262e+05
  -4.374241e+04   4.807604e+05
   4.046026e+05   3.696678e+05
   3.817333e+04   3.974935e+05
  -1.117821e+06   2.236450e+05
  -2.017846e+06  -3.207878e+05
  -1.626775e+06  -1.017917e+06
  -3.670983e+04  -1.397544e+06
   1.516343e+06  -1.120217e+06
   1.825876e+06  -3.253065e+05
   8.823491e+05   4.031231e+05
  -2.189721e+05   5.267575e+05
  -4.940425e+05   7.730624e+04
  -2.231753e+03  -3.554349e+05
   4.824874e+05  -2.310535e+05
   4.688186e+05   3.514970e+05
   1.638702e+05   7.444178e+05
   1.546641e+04   4.795511e+05
   1.570560e+05  -1.477448e+05
   3.570453e+05  -3.513054e+05
   2.921793e+05   2.311841e+05
  -1.977746e+05   1.016331e+06
  -9.149866e+05   1.051993e+06
  -1.277478e+06   1.221273e+05
  -7.568785e+05  -9.234661e+05
   4.223850e+05  -1.072450e+06
   1.210513e+06  -2.577213e+05
   7.184514e+05   6.118410e+05
  -7.001835e+05   6.663001e+05
  -1.647726e+06  -7.767757e+04
  -1.115110e+06  -8.813914e+05
   4.356931e+05  -1.072450e+06
   1.562265e+06  -5.733635e+05
   1.326739e+06   1.619732e+05
   1.670649e+05   5.476283e+05
  -6.584496e+05   3.035111e+05
  -3.650035e+05  -2.748178e+05
   6.293444e+05  -4.794255e+05
   1.181979e+06   1.525391e+05
   5.921590e+05   1.224535e+06
  -6.967143e+05   1.677658e+06
  -1.548576e+06   8.214046e+05
  -1.256875e+06  -8.157260e+05
  -1.662805e+05  -1.841562e+06
   7.813786e+05  -1.346065e+06
   9.617475e+05   1.502079e+05
   4.709887e+05   1.223235e+06
  -1.837927e+05   1.029748e+06
  -5.607974e+05   1.064126e+05
  -5.118180e+05  -4.098204e+05
  -2.103632e+05  -1.667324e+05
  -3.513650e+04   1.148525e+05
  -2.177236e+05  -2.597809e+05
  -4.820822e+05  -9.740528e+05
  -2.348054e+05  -1.124128e+06
   6.703537e+05  -4.148283e+05
   1.507069e+06   4.998262e+05
   1.347773e+06   8.824238e+05
   1.870603e+05   7.050087e+05
  -9.222490e+05   4.009115e+05
  -1.027376e+06   1.857333e+05
  -3.331513e+05  -2.461018e+04
   1.690091e+05  -2.195935e+05
  -9.449154e+03  -2.456986e+05
  -3.199291e+05  -1.421035e+05
  -2.652752e+04  -1.358269e+05
   7.345159e+05  -1.961738e+05
   1.054862e+06   4.550466e+04
   3.477725e+05   6.870890e+05
  -9.237945e+05   1.139911e+06
  -1.697311e+06   7.056834e+05
  -1.353566e+06  -4.822226e+05
  -2.311723e+05  -1.440768e+06
   7.867957e+05  -1.370137e+06
   1.068948e+06  -4.919669e+05
   6.645016e+05   2.796640e+05
   1.066484e+05   3.615095e+05
  -1.129333e+05   2.574279e+04
   7.266152e+04  -5.510259e+04
   3.269683e+05   3.682103e+05
   2.582583e+05   8.304304e+05
  -2.029379e+05   6.742175e+05
  -6.937893e+05  -1.719832e+05
  -6.971839e+05  -1.008430e+06
  -4.475401e+04  -1.034030e+06
   7.902251e+05  -1.848579e+05
   1.014158e+06   7.919036e+05
   3.031959e+05   1.104563e+06
  -7.375562e+05   6.384048e+05
  -1.108769e+06  -1.051152e+05
  -5.083933e+05  -5.935385e+05
   2.916796e+05  -6.410243e+05
   3.507330e+05  -3.647618e+05
  -2.908587e+05  -3.922079e+04
  -6.707823e+05   1.891677e+04
  -1.302716e+05  -3.042902e+05
   8.525501e+05  -6.810484e+05
   1.259686e+06  -5.661605e+05
   7.357621e+05   1.515711e+05
  -1.139238e+05   8.639183e+05
  -5.356974e+05   8.503450e+05
  -3.866866e+05   1.348764e+05
  -1.987078e+04  -5.006839e+05
   2.541278e+05  -4.135190e+05
   3.496738e+05   1.938554e+05
   2.415043e+05   5.914346e+05
  -6.421148e+04   3.966913e+05
  -3.913615e+05  -6.856598e+04
  -4.705252e+05  -2.647709e+05
  -2.491875e+05  -7.881212e+04
   1.942902e+04   1.197252e+05
   9.551635e+04  -1.550311e+04
   5.135908e+04  -3.724607e+05
   1.256377e+05  -5.013037e+05
   3.371006e+05  -1.430819e+05
   3.996669e+05   4.274330e+05
   8.020587e+04   6.526650e+05
  -4.354030e+05   2.896964e+05
  -6.397829e+05  -3.153036e+05
  -2.252375e+05  -5.980593e+05
   5.098970e+05  -3.590017e+05
   8.697105e+05   1.046661e+05
   4.685820e+05   3.909185e+05
  -2.997454e+05   3.736076e+05
  -6.360762e+05   1.883187e+05
  -2.246797e+05   1.442785e+04
   3.867180e+05  -2.487204e+04
   4.197605e+05   1.164717e+05
  -2.142130e+05   3.100283e+05
  -8.134930e+05   2.490246e+05
