
 $NMID
 id='ANONYMOUS ', fmtdat='(2E16.6)'
 volume=1.0
 tramp=1.0
 $END
   3.042935e+07   1.242277e+06
   1.933828e+07   1.605852e+07
  -1.626091e+06   1.954035e+07
  -1.401852e+07   1.128003e+07
  -1.067004e+07  -1.755661e+05
   2.939092e+04  -5.411957e+06
   6.123709e+06  -1.827705e+06
   3.850080e+06   5.155972e+06
  -2.146913e+06   7.697788e+06
  -5.773484e+06   3.013101e+06
  -4.572722e+06  -4.037757e+06
  -3.384323e+05  -6.098813e+06
   2.863085e+06  -1.240629e+06
   1.981989e+06   4.967429e+06
  -2.082382e+06   5.681332e+06
  -4.992850e+06   1.402874e+05
  -3.322131e+06  -6.069496e+06
   1.793110e+06  -7.342279e+06
   5.911493e+06  -3.329072e+06
   5.864961e+06   1.874790e+06
   2.558437e+06   4.350221e+06
  -4.312827e+05   3.604637e+06
  -4.949310e+05   2.079155e+06
   1.536254e+06   2.204864e+06
   2.215731e+06   3.870806e+06
  -8.219794e+05   4.642632e+06
  -5.712245e+06   2.605266e+06
  -7.679540e+06  -1.222287e+06
  -4.250224e+06  -3.785229e+06
   1.511709e+06  -3.187984e+06
   4.093045e+06  -4.306565e+05
   1.571432e+06   1.907172e+06
  -2.632904e+06   1.971016e+06
  -4.054919e+06  -2.617286e+05
  -1.909605e+06  -3.082926e+06
   1.007580e+06  -4.018129e+06
   1.987795e+06  -1.902242e+06
   8.997310e+05   1.342540e+06
  -4.800714e+05   2.138349e+06
  -5.382228e+05  -5.096039e+05
   8.274813e+05  -3.221435e+06
   2.217809e+06  -2.195185e+06
   1.935451e+06   1.682374e+06
  -2.971789e+05   3.621270e+06
  -2.623974e+06   9.824541e+05
  -2.523423e+06  -3.337469e+06
   5.795427e+05  -4.493906e+06
   4.282792e+06  -1.312312e+06
   5.180832e+06   2.926218e+06
   2.131387e+06   4.492746e+06
  -2.428205e+06   2.666355e+06
  -4.604952e+06  -4.607356e+05
  -2.727524e+06  -2.312639e+06
   1.050728e+06  -1.787083e+06
   2.988645e+06   1.614640e+05
   1.611376e+06   1.465591e+06
  -9.594483e+05   9.104505e+05
  -1.644653e+06  -6.439461e+05
   6.820613e+04  -1.297976e+06
   1.760238e+06  -3.129034e+05
   1.096474e+06   1.165296e+06
  -1.436958e+06   1.510993e+06
  -3.094233e+06   1.983100e+05
  -1.832002e+06  -1.979016e+06
   1.623273e+06  -3.558553e+06
   4.549344e+06  -3.172796e+06
   4.803710e+06  -5.257130e+05
   2.632157e+06   2.885948e+06
   1.164690e+05   4.674958e+06
  -1.002580e+06   3.873814e+06
  -8.507858e+05   1.971447e+06
  -8.115903e+05   1.022184e+06
  -1.680553e+06   1.114363e+06
  -2.758333e+06   6.019604e+05
  -2.748458e+06  -1.255358e+06
  -1.214114e+06  -2.938700e+06
   9.615532e+05  -2.452507e+06
   2.285365e+06   1.463273e+05
   1.737184e+06   2.637887e+06
  -4.368968e+05   2.895346e+06
  -2.687297e+06   8.433560e+05
  -3.239926e+06  -1.740202e+06
  -1.715601e+06  -3.002853e+06
   4.058391e+05  -2.543632e+06
   1.368187e+06  -1.423252e+06
   1.130885e+06  -8.539409e+05
   1.243314e+06  -9.395293e+05
   2.603250e+06  -7.303811e+05
   3.958048e+06   5.579129e+05
   3.212966e+06   2.546744e+06
   4.916641e+04   3.929857e+06
  -3.337078e+06   3.582889e+06
  -4.309975e+06   1.512166e+06
  -2.385553e+06  -1.017025e+06
   3.942142e+05  -2.292988e+06
   1.546927e+06  -1.537518e+06
   4.709046e+05   2.450835e+05
  -1.256692e+06   1.111247e+06
  -1.710924e+06   2.393899e+05
  -5.803787e+05  -1.091831e+06
   7.223372e+05  -1.055574e+06
   7.240014e+05   3.528077e+05
  -5.708347e+05   1.166777e+06
  -1.786229e+06  -1.333006e+05
  -1.554485e+06  -2.616627e+06
   2.953280e+05  -3.795927e+06
   2.624273e+06  -2.304953e+06
   3.805959e+06   7.346384e+05
   2.917973e+06   2.950888e+06
   5.730272e+05   2.971053e+06
  -1.423127e+06   1.423381e+06
  -1.648745e+06   3.536509e+04
  -4.799313e+05  -6.589261e+04
   3.342603e+05   7.353634e+05
  -3.206953e+05   1.161351e+06
  -1.623867e+06   4.869512e+05
  -1.836008e+06  -7.024427e+05
  -4.509038e+05  -1.217975e+06
   1.103352e+06  -5.909243e+05
   1.046462e+06   4.605234e+05
  -7.227373e+05   8.099336e+05
  -2.413687e+06  -2.027262e+03
  -2.156177e+06  -1.401988e+06
   7.507528e+04  -2.266439e+06
   2.382226e+06  -1.800622e+06
   2.783121e+06  -2.478345e+05
   1.122878e+06   1.161720e+06
  -8.549570e+05   1.246321e+06
  -1.302891e+06   9.065075e+04
  -4.115542e+04  -9.348402e+05
   1.458648e+06  -6.211950e+05
   1.675526e+06   7.176825e+05
   4.743261e+05   1.611572e+06
  -9.433005e+05   1.130440e+06
  -1.292709e+06  -1.019779e+05
  -4.020551e+05  -6.999468e+05
   6.632599e+05  -7.182461e+04
   6.317129e+05   1.019532e+06
  -6.672885e+05   1.331112e+06
  -1.998435e+06   3.807085e+05
  -1.908554e+06  -1.137652e+06
  -2.976222e+05  -2.006571e+06
   1.387700e+06  -1.553576e+06
   1.664815e+06  -2.261097e+05
   5.457183e+05   8.269933e+05
  -6.306376e+05   8.199038e+05
  -7.404281e+05   3.320151e+04
   4.115042e+04  -5.670065e+05
   6.716969e+05  -3.983161e+05
   4.594670e+05   1.447453e+05
  -2.757636e+05   2.175010e+05
  -6.026753e+05  -4.394908e+05
   6.620361e+04  -1.124553e+06
   1.323546e+06  -8.839322e+05
   2.027913e+06   4.436351e+05
   1.357926e+06   1.943977e+06
  -3.065741e+05   2.419212e+06
  -1.677384e+06   1.489174e+06
  -1.826328e+06  -6.977616e+04
  -1.045809e+06  -1.073095e+06
  -3.462549e+05  -1.019193e+06
  -2.617560e+05  -4.466406e+05
  -3.846147e+05  -2.336483e+05
  -4.000782e+04  -6.041734e+05
   8.205029e+05  -9.045910e+05
   1.490684e+06  -3.950893e+05
   1.180147e+06   7.973070e+05
  -1.940060e+05   1.630471e+06
  -1.765170e+06   1.139413e+06
  -2.284675e+06  -5.195342e+05
  -1.161812e+06  -2.081654e+06
   9.034119e+05  -2.296501e+06
   2.419989e+06  -1.062833e+06
   2.397092e+06   5.472465e+05
   1.163616e+06   1.361229e+06
  -1.047442e+05   1.161996e+06
  -5.745184e+05   6.914663e+05
  -3.966053e+05   6.986694e+05
  -2.850773e+05   1.096837e+06
  -6.518801e+05   1.112775e+06
  -1.193451e+06   2.262561e+05
  -1.235030e+06  -1.134565e+06
  -4.525013e+05  -1.904084e+06
   6.970637e+05  -1.395317e+06
   1.292446e+06   1.450684e+04
   8.117091e+05   1.215106e+06
  -2.958485e+05   1.358381e+06
  -1.009779e+06   5.346967e+05
  -7.704722e+05  -4.597675e+05
  -2.526153e+04  -9.239228e+05
   3.356406e+05  -7.971908e+05
   1.339896e+04  -5.043660e+05
  -3.704680e+05  -3.949961e+05
  -1.643290e+04  -3.998057e+05
   1.065446e+06  -1.993247e+05
   1.918679e+06   3.515367e+05
   1.561944e+06   1.007182e+06
   5.290961e+04   1.319685e+06
  -1.447370e+06   1.029721e+06
  -1.767205e+06   3.099407e+05
  -8.676518e+05  -3.378115e+05
   2.003163e+05  -4.700536e+05
   4.615117e+05  -9.310879e+04
  -3.544690e+04   3.022663e+05
  -5.047800e+05   2.006071e+05
  -4.393920e+05  -3.594302e+05
  -8.237079e+04  -7.553221e+05
   5.332693e+04  -4.789177e+05
  -1.605652e+05   1.819053e+05
  -4.005938e+05   3.895512e+05
  -2.920799e+05  -2.263293e+05
   2.481363e+05  -1.013652e+06
   9.241680e+05  -9.949325e+05
   1.190506e+06  -3.900354e+04
   6.470159e+05   9.349646e+05
  -4.495040e+05   9.839837e+05
  -1.158713e+06   1.575070e+05
  -6.788443e+05  -6.400466e+05
   6.883507e+05  -6.441012e+05
   1.636700e+06   8.587020e+04
   1.147322e+06   8.721190e+05
  -3.938234e+05   1.084411e+06
  -1.557420e+06   6.053893e+05
  -1.348199e+06  -1.464610e+05
  -1.810837e+05  -5.537847e+05
   6.455738e+05  -3.076325e+05
   3.298333e+05   2.634823e+05
  -6.626545e+05   4.259862e+05
  -1.154412e+06  -2.302561e+05
  -4.922472e+05  -1.248405e+06
   8.018472e+05  -1.609096e+06
   1.581333e+06  -7.210494e+05
   1.209468e+06   8.644074e+05
   9.957753e+04   1.832510e+06
  -8.090432e+05   1.334062e+06
  -9.514097e+05  -1.385350e+05
  -4.667959e+05  -1.211563e+06
   1.597221e+05  -1.034625e+06
   5.397488e+05  -1.086492e+05
   5.300215e+05   4.252239e+05
   2.441053e+05   1.808828e+05
   2.155157e+04  -1.234172e+05
   1.463605e+05   2.395260e+05
   4.227793e+05   9.648950e+05
   2.472551e+05   1.121030e+06
  -6.166127e+05   3.933672e+05
  -1.479466e+06  -5.398313e+05
  -1.349065e+06  -9.075666e+05
  -1.681483e+05  -6.905554e+05
   9.628556e+05  -3.652297e+05
   1.033073e+06  -1.682744e+05
   2.914233e+05   1.278672e+04
  -1.900239e+05   2.077900e+05
   5.170926e+04   2.626024e+05
   3.647311e+05   1.743037e+05
   1.993100e+03   1.399151e+05
  -7.874816e+05   1.531223e+05
  -1.032570e+06  -9.821641e+04
  -2.418484e+05  -6.868760e+05
   1.002389e+06  -1.062511e+06
   1.665346e+06  -5.927496e+05
   1.254091e+06   5.586363e+05
   1.554881e+05   1.437927e+06
  -8.125039e+05   1.302374e+06
  -1.072744e+06   4.103855e+05
  -6.542299e+05  -3.279864e+05
  -6.959372e+04  -3.612252e+05
   1.590270e+05   5.154202e+03
  -5.414632e+04   8.487965e+04
  -3.310570e+05  -3.572220e+05
  -2.440759e+05  -8.255174e+05
   2.367446e+05  -6.463270e+05
   6.897395e+05   2.292847e+05
   6.205952e+05   1.055970e+06
  -5.176623e+04   1.019048e+06
  -8.193143e+05   1.060257e+05
  -9.553192e+05  -8.651079e+05
  -2.228848e+05  -1.099368e+06
   7.621463e+05  -5.641236e+05
   1.064582e+06   1.630544e+05
   4.467370e+05   5.734135e+05
  -3.127286e+05   5.752744e+05
  -3.207498e+05   3.315487e+05
   3.299674e+05   6.311821e+04
   6.733585e+05   1.365801e+04
   1.003681e+05   2.973559e+05
  -8.653248e+05   6.433040e+05
  -1.221510e+06   5.381777e+05
  -6.712430e+05  -1.470541e+05
   1.516580e+05  -8.286204e+05
   5.236715e+05  -7.945056e+05
   3.446786e+05  -8.175128e+04
  -2.212699e+04   5.138924e+05
  -2.770534e+05   3.737212e+05
  -3.424250e+05  -2.439104e+05
  -2.078829e+05  -5.939851e+05
   9.307819e+04  -3.526347e+05
   3.822925e+05   1.009486e+05
   4.360853e+05   2.531568e+05
   2.394544e+05   6.276205e+04
   8.557076e+03  -8.932605e+04
  -8.825129e+04   7.588216e+04
  -1.187268e+05   3.951381e+05
  -2.265644e+05   4.515547e+05
  -3.693469e+05   5.647389e+04
  -3.270625e+05  -4.894554e+05
   1.822517e+04  -6.584514e+05
   4.626996e+05  -2.492202e+05
   5.924154e+05   3.659263e+05
   1.778559e+05   6.161591e+05
  -5.053081e+05   3.252916e+05
  -8.296239e+05  -1.594539e+05
  -4.330853e+05  -4.064645e+05
   3.134687e+05  -3.250448e+05
   6.264891e+05  -1.206546e+05
   1.906442e+05   4.528760e+03
  -4.289822e+05  -2.034520e+04
  -4.297231e+05  -1.759053e+05
   2.578018e+05  -3.263817e+05
   8.709715e+05  -2.145659e+05
