
 $NMID
 id='ANONYMOUS ', fmtdat='(2E16.6)'
 volume=1.0
 tramp=1.0
 $END
  -3.280523e+07  -9.045082e+05
  -2.049632e+07  -1.736092e+07
   2.007107e+06  -2.091941e+07
   1.476216e+07  -1.169811e+07
   1.088606e+07   4.225393e+05
  -1.769138e+05   5.609122e+06
  -6.210917e+06   1.771748e+06
  -3.859830e+06  -5.290793e+06
   2.136481e+06  -7.817459e+06
   5.914117e+06  -3.085371e+06
   4.916531e+06   4.128882e+06
   5.780262e+05   6.372088e+06
  -2.996957e+06   1.471530e+06
  -2.302772e+06  -4.982322e+06
   1.968159e+06  -5.833081e+06
   5.177462e+06  -1.468409e+05
   3.544906e+06   6.329567e+06
  -1.814937e+06   7.746590e+06
  -6.258305e+06   3.645133e+06
  -6.391541e+06  -1.866722e+06
  -2.952873e+06  -4.715652e+06
   4.283827e+05  -4.104177e+06
   7.807080e+05  -2.300886e+06
  -1.386728e+06  -2.011540e+06
  -2.446071e+06  -3.611982e+06
   4.818470e+05  -4.756166e+06
   5.704418e+06  -3.085494e+06
   8.066582e+06   7.995286e+05
   4.696366e+06   3.769587e+06
  -1.315347e+06   3.540113e+06
  -4.195468e+06   8.417735e+05
  -1.859875e+06  -1.743600e+06
   2.351609e+06  -2.162460e+06
   4.023394e+06  -9.741444e+04
   2.202726e+06   2.917489e+06
  -6.793564e+05   4.209195e+06
  -2.005251e+06   2.186893e+06
  -1.225589e+06  -1.342372e+06
   2.842387e+05  -2.415444e+06
   7.148806e+05   3.189397e+05
  -5.401278e+05   3.305701e+06
  -2.152218e+06   2.330919e+06
  -2.009409e+06  -1.738358e+06
   3.926850e+05  -3.751849e+06
   2.919707e+06  -9.108239e+05
   2.732705e+06   3.636210e+06
  -6.546484e+05   4.797369e+06
  -4.547401e+06   1.469787e+06
  -5.441828e+06  -2.887711e+06
  -2.290802e+06  -4.528926e+06
   2.393774e+06  -2.776823e+06
   4.676077e+06   3.332826e+05
   2.802838e+06   2.270435e+06
  -1.086122e+06   1.831553e+06
  -3.108353e+06  -1.355603e+05
  -1.675142e+06  -1.509230e+06
   9.981548e+05  -9.713607e+05
   1.688492e+06   5.963705e+05
  -6.854051e+04   1.227409e+06
  -1.711614e+06   2.243441e+05
  -9.328938e+05  -1.198342e+06
   1.625644e+06  -1.467700e+06
   3.202115e+06  -1.337600e+05
   1.888647e+06   2.078686e+06
  -1.561617e+06   3.799788e+06
  -4.560681e+06   3.543905e+06
  -4.998688e+06   7.984321e+05
  -2.942999e+06  -2.904636e+06
  -3.462360e+05  -4.879222e+06
   9.225822e+05  -3.996859e+06
   7.912844e+05  -1.938361e+06
   6.597817e+05  -1.013525e+06
   1.509497e+06  -1.288982e+06
   2.731035e+06  -8.987056e+05
   2.925671e+06   1.016949e+06
   1.496931e+06   2.874904e+06
  -7.513383e+05   2.561763e+06
  -2.283429e+06   4.012683e+04
  -1.923776e+06  -2.530650e+06
   2.568778e+05  -2.979308e+06
   2.722418e+06  -1.052340e+06
   3.489900e+06   1.614222e+06
   1.965150e+06   3.084747e+06
  -3.395532e+05   2.740057e+06
  -1.447206e+06   1.559090e+06
  -1.198166e+06   8.843317e+05
  -1.239568e+06   9.636978e+05
  -2.606079e+06   8.368258e+05
  -4.049538e+06  -3.953801e+05
  -3.390654e+06  -2.440710e+06
  -2.499787e+05  -3.991216e+06
   3.196276e+06  -3.827294e+06
   4.304116e+06  -1.806900e+06
   2.519740e+06   8.727792e+05
  -2.245876e+05   2.371437e+06
  -1.472407e+06   1.692665e+06
  -5.092952e+05  -2.095607e+05
   1.208883e+06  -1.214692e+06
   1.741540e+06  -3.367926e+05
   6.665819e+05   1.099947e+06
  -6.606880e+05   1.124699e+06
  -7.273367e+05  -3.019456e+05
   5.251618e+05  -1.148186e+06
   1.754593e+06   1.297430e+05
   1.593953e+06   2.581891e+06
  -1.768360e+05   3.758471e+06
  -2.509972e+06   2.351500e+06
  -3.814474e+06  -5.738780e+05
  -3.068193e+06  -2.786908e+06
  -7.440420e+05  -2.942924e+06
   1.355769e+06  -1.526666e+06
   1.672986e+06  -1.398816e+05
   4.920751e+05   4.124786e+04
  -3.778140e+05  -7.279487e+05
   2.789515e+05  -1.199536e+06
   1.642579e+06  -5.702172e+05
   1.900100e+06   6.370801e+05
   5.074350e+05   1.218920e+06
  -1.085922e+06   6.517470e+05
  -1.069824e+06  -3.986944e+05
   6.809070e+05  -8.244824e+05
   2.403750e+06  -1.103888e+05
   2.223372e+06   1.279838e+06
   4.450244e+04   2.263554e+06
  -2.302744e+06   1.937691e+06
  -2.804418e+06   3.979208e+05
  -1.199652e+06  -1.130319e+06
   8.181272e+05  -1.322753e+06
   1.339346e+06  -1.546755e+05
   9.638024e+04   9.629197e+05
  -1.452993e+06   7.107923e+05
  -1.732611e+06  -6.451491e+05
  -5.525219e+05  -1.601364e+06
   8.970443e+05  -1.174282e+06
   1.299033e+06   4.765585e+04
   4.291341e+05   6.828976e+05
  -6.728203e+05   9.850214e+04
  -6.955451e+05  -1.004676e+06
   6.043172e+05  -1.390311e+06
   2.010257e+06  -4.987008e+05
   2.003296e+06   1.052742e+06
   4.077854e+05   2.024651e+06
  -1.332664e+06   1.648332e+06
  -1.678018e+06   3.115160e+05
  -5.919366e+05  -8.087851e+05
   5.946236e+05  -8.605535e+05
   7.412915e+05  -8.390249e+04
  -4.955451e+03   5.528196e+05
  -6.318039e+05   4.321889e+05
  -4.490130e+05  -9.621587e+04
   2.642221e+05  -1.992353e+05
   6.106711e+05   4.281453e+05
  -2.547397e+04   1.137147e+06
  -1.299165e+06   9.581177e+05
  -2.079325e+06  -3.462679e+05
  -1.481174e+06  -1.903151e+06
   1.790981e+05  -2.469192e+06
   1.611480e+06  -1.591615e+06
   1.838626e+06  -2.704634e+04
   1.110444e+06   1.008797e+06
   4.225313e+05   9.853831e+05
   3.171111e+05   4.349500e+05
   4.136411e+05   2.378418e+05
   6.389215e+04   6.248380e+05
  -7.897303e+05   9.525466e+05
  -1.480822e+06   4.705111e+05
  -1.227602e+06  -7.348300e+05
   1.088776e+05  -1.642666e+06
   1.720535e+06  -1.238690e+06
   2.336457e+06   4.043897e+05
   1.278514e+06   2.045178e+06
  -8.075600e+05   2.367622e+06
  -2.400318e+06   1.190015e+06
  -2.443185e+06  -4.354581e+05
  -1.233502e+06  -1.302840e+06
   4.058709e+04  -1.158548e+06
   5.209376e+05  -7.265208e+05
   3.447055e+05  -7.505752e+05
   2.308886e+05  -1.151456e+06
   6.141581e+05  -1.171796e+06
   1.208841e+06  -2.913852e+05
   1.318916e+06   1.086192e+06
   5.645014e+05   1.908381e+06
  -6.297563e+05   1.455294e+06
  -1.308040e+06   5.373178e+04
  -8.794460e+05  -1.192107e+06
   2.385777e+05  -1.386290e+06
   9.971283e+05  -5.738457e+05
   7.911003e+05   4.456943e+05
   5.252199e+04   9.352532e+05
  -3.122558e+05   8.097765e+05
   1.292628e+04   5.000755e+05
   4.033012e+05   3.808909e+05
   4.073938e+04   4.055212e+05
  -1.074844e+06   2.512359e+05
  -1.970646e+06  -2.656357e+05
  -1.633684e+06  -9.442174e+05
  -1.075259e+05  -1.334311e+06
   1.428349e+06  -1.115114e+06
   1.774441e+06  -3.984986e+05
   8.827261e+05   3.060944e+05
  -1.894891e+05   4.892680e+05
  -4.621492e+05   1.100323e+05
   2.364729e+04  -3.214147e+05
   5.005431e+05  -2.375146e+05
   4.677860e+05   3.430612e+05
   1.368987e+05   7.693653e+05
  -1.809130e+04   4.972846e+05
   1.461519e+05  -1.869348e+05
   3.696396e+05  -4.144287e+05
   3.040998e+05   2.140318e+05
  -1.905431e+05   1.042706e+06
  -8.867793e+05   1.059671e+06
  -1.223477e+06   9.864607e+04
  -7.187942e+05  -9.246868e+05
   4.120796e+05  -1.032232e+06
   1.183788e+06  -2.255994e+05
   7.284245e+05   6.115814e+05
  -6.650108e+05   6.865683e+05
  -1.656370e+06  -6.811403e+02
  -1.195242e+06  -8.138170e+05
   3.438154e+05  -1.104153e+06
   1.531852e+06  -6.863756e+05
   1.359507e+06   7.485843e+04
   2.106774e+05   5.447254e+05
  -6.346839e+05   3.412572e+05
  -3.491597e+05  -2.552150e+05
   6.488132e+05  -4.774512e+05
   1.191957e+06   1.639109e+05
   5.807706e+05   1.244795e+06
  -7.185588e+05   1.691542e+06
  -1.567173e+06   8.307339e+05
  -1.279677e+06  -8.076162e+05
  -2.057286e+05  -1.853519e+06
   7.422135e+05  -1.393076e+06
   9.649062e+05   9.273739e+04
   5.326842e+05   1.197700e+06
  -1.086506e+05   1.045011e+06
  -5.401555e+05   1.337269e+05
  -5.560199e+05  -3.945168e+05
  -2.528165e+05  -1.609198e+05
  -1.555104e+04   1.219486e+05
  -1.669404e+05  -2.488321e+05
  -4.841808e+05  -9.608340e+05
  -3.063991e+05  -1.113977e+06
   6.116274e+05  -4.226536e+05
   1.529753e+06   4.640174e+05
   1.411019e+06   8.385308e+05
   2.060159e+05   6.920677e+05
  -9.507850e+05   4.312810e+05
  -1.033693e+06   2.277593e+05
  -2.982171e+05  -6.615062e+03
   1.792289e+05  -2.249917e+05
  -6.272498e+04  -2.520517e+05
  -3.752956e+05  -1.436101e+05
  -1.344344e+04  -1.442646e+05
   7.846470e+05  -2.113786e+05
   1.057359e+06   4.031893e+04
   2.954473e+05   6.974882e+05
  -9.550637e+05   1.148428e+06
  -1.670206e+06   6.962797e+05
  -1.320689e+06  -5.024575e+05
  -2.433777e+05  -1.453644e+06
   7.574717e+05  -1.368908e+06
   1.072252e+06  -4.824802e+05
   6.859127e+05   2.903591e+05
   9.442215e+04   3.664018e+05
  -1.590492e+05   1.575707e+04
   4.750904e+04  -8.065331e+04
   3.496410e+05   3.430009e+05
   2.907694e+05   8.212716e+05
  -2.037909e+05   6.732677e+05
  -7.171589e+05  -1.864327e+05
  -7.006452e+05  -1.036698e+06
  -1.366669e+04  -1.048143e+06
   8.290607e+05  -1.670951e+05
   1.029608e+06   8.201056e+05
   2.936489e+05   1.110283e+06
  -7.471675e+05   6.237255e+05
  -1.097341e+06  -1.071421e+05
  -4.855496e+05  -5.675151e+05
   2.929852e+05  -6.089843e+05
   3.154300e+05  -3.502612e+05
  -3.343835e+05  -3.568973e+04
  -6.842320e+05   2.704637e+04
  -1.199481e+05  -3.005100e+05
   8.420459e+05  -7.015778e+05
   1.212030e+06  -6.041974e+05
   6.924733e+05   1.245141e+05
  -1.093810e+05   8.543965e+05
  -4.968443e+05   8.339657e+05
  -3.583780e+05   1.008920e+05
  -1.345121e+04  -5.242598e+05
   2.629518e+05  -4.009147e+05
   3.677451e+05   2.214812e+05
   2.462186e+05   5.927319e+05
  -7.861098e+04   3.716170e+05
  -3.974043e+05  -7.818165e+04
  -4.556089e+05  -2.395333e+05
  -2.431029e+05  -5.458932e+04
  -5.177406e+03   9.975042e+04
   7.521562e+04  -7.099169e+04
   8.468000e+04  -4.128208e+05
   1.982020e+05  -4.919518e+05
   3.796064e+05  -9.491824e+04
   3.770114e+05   4.793320e+05
   3.201362e+04   6.806810e+05
  -4.559464e+05   2.862638e+05
  -6.318727e+05  -3.381103e+05
  -2.218619e+05  -6.167956e+05
   4.982623e+05  -3.584479e+05
   8.594407e+05   1.156468e+05
   4.656502e+05   3.903111e+05
  -3.049443e+05   3.535372e+05
  -6.378768e+05   1.630789e+05
  -2.006924e+05   2.344516e+03
   4.347923e+05  -1.651246e+04
   4.511988e+05   1.437275e+05
  -2.328879e+05   3.476967e+05
  -8.633485e+05   2.776304e+05
