
 $NMID
 id='ANONYMOUS ', fmtdat='(2E16.6)'
 volume=1.0
 tramp=1.0
 $END
  -3.609979e+07  -1.512610e+06
  -2.198488e+07  -2.080356e+07
   3.567090e+06  -2.358514e+07
   1.719811e+07  -1.138871e+07
   1.166632e+07   2.165214e+06
  -9.991570e+05   6.185991e+06
  -6.816723e+06   8.447579e+05
  -3.298637e+06  -6.176608e+06
   3.209458e+06  -7.737919e+06
   6.571518e+06  -2.518689e+06
   4.975213e+06   4.520773e+06
   3.758822e+05   6.533876e+06
  -3.083744e+06   1.562188e+06
  -2.042608e+06  -4.908512e+06
   2.492149e+06  -5.635631e+06
   5.530403e+06   3.424932e+05
   3.371189e+06   6.966503e+06
  -2.381942e+06   8.183738e+06
  -6.861866e+06   3.765825e+06
  -6.932919e+06  -1.974534e+06
  -3.456341e+06  -5.101783e+06
   2.260254e+05  -4.824659e+06
   1.206613e+06  -3.013009e+06
  -5.394390e+05  -2.196408e+06
  -1.830440e+06  -3.245978e+06
   5.197448e+05  -4.337532e+06
   5.437619e+06  -2.947629e+06
   7.914914e+06   7.890503e+05
   4.798911e+06   3.792413e+06
  -1.022095e+06   3.583014e+06
  -3.861183e+06   9.752515e+05
  -1.772657e+06  -1.335642e+06
   1.974089e+06  -1.635039e+06
   3.426209e+06   4.226966e+04
   1.920024e+06   2.536200e+06
  -5.350667e+05   3.860485e+06
  -1.906860e+06   2.339896e+06
  -1.504964e+06  -1.004165e+06
  -8.860278e+04  -2.487905e+06
   6.192508e+05  -1.543422e+05
  -4.862283e+05   2.900775e+06
  -2.207671e+06   2.115705e+06
  -1.958390e+06  -2.038110e+06
   9.172194e+05  -4.102880e+06
   3.674955e+06  -8.587629e+05
   3.027887e+06   4.216033e+06
  -1.009072e+06   5.354452e+06
  -4.971116e+06   1.470318e+06
  -5.393744e+06  -3.274687e+06
  -1.912530e+06  -4.727455e+06
   2.625455e+06  -2.538114e+06
   4.571207e+06   7.650937e+05
   2.504311e+06   2.546390e+06
  -1.387544e+06   1.798836e+06
  -3.264652e+06  -3.998621e+05
  -1.610117e+06  -1.757530e+06
   1.133656e+06  -9.799511e+05
   1.595012e+06   7.309500e+05
  -3.979291e+05   1.124235e+06
  -1.846818e+06  -2.709567e+05
  -5.529886e+05  -1.699899e+06
   2.242379e+06  -1.489210e+06
   3.531153e+06   2.821085e+05
   1.839169e+06   2.451459e+06
  -1.660911e+06   3.854883e+06
  -4.540069e+06   3.450667e+06
  -5.005525e+06   7.731746e+05
  -3.022239e+06  -2.893887e+06
  -2.766751e+05  -4.902418e+06
   1.232512e+06  -3.937833e+06
   1.062928e+06  -1.672256e+06
   5.947176e+05  -6.459786e+05
   1.162588e+06  -1.049851e+06
   2.361717e+06  -8.962818e+05
   2.672694e+06   8.229494e+05
   1.384284e+06   2.572901e+06
  -6.666270e+05   2.285707e+06
  -2.004264e+06  -4.486039e+04
  -1.648381e+06  -2.391610e+06
   3.186580e+05  -2.797340e+06
   2.621178e+06  -1.010296e+06
   3.439788e+06   1.565819e+06
   2.017874e+06   3.123984e+06
  -3.375870e+05   2.897395e+06
  -1.589992e+06   1.687637e+06
  -1.392645e+06   8.680144e+05
  -1.354126e+06   8.140469e+05
  -2.591264e+06   6.101655e+05
  -3.898902e+06  -6.250562e+05
  -3.138632e+06  -2.533105e+06
  -3.886216e+04  -3.830731e+06
   3.201647e+06  -3.507375e+06
   4.126857e+06  -1.590781e+06
   2.370682e+06   8.364354e+05
  -2.113456e+05   2.197643e+06
  -1.383584e+06   1.584724e+06
  -4.810845e+05  -1.818293e+05
   1.171980e+06  -1.117162e+06
   1.702229e+06  -2.606144e+05
   6.427779e+05   1.089687e+06
  -6.453197e+05   1.031899e+06
  -6.131264e+05  -3.461078e+05
   6.803219e+05  -9.811892e+05
   1.712210e+06   4.531745e+05
   1.213563e+06   2.744455e+06
  -6.541758e+05   3.519088e+06
  -2.656817e+06   1.864225e+06
  -3.505843e+06  -9.178962e+05
  -2.613199e+06  -2.795035e+06
  -5.034748e+05  -2.760234e+06
   1.330441e+06  -1.372849e+06
   1.570974e+06  -7.631042e+04
   4.656625e+05   6.175130e+04
  -3.227348e+05  -7.140005e+05
   3.445695e+05  -1.161918e+06
   1.644211e+06  -4.774745e+05
   1.812515e+06   7.418905e+05
   4.052535e+05   1.227490e+06
  -1.081955e+06   5.545762e+05
  -9.590330e+05  -4.441252e+05
   7.296826e+05  -6.889761e+05
   2.249400e+06   1.046776e+05
   1.949123e+06   1.344175e+06
  -1.319177e+05   2.093637e+06
  -2.281686e+06   1.674628e+06
  -2.677518e+06   2.250155e+05
  -1.096863e+06  -1.156606e+06
   8.536855e+05  -1.263246e+06
   1.327814e+06  -1.013649e+05
   7.554204e+04   9.427400e+05
  -1.425553e+06   6.183858e+05
  -1.617625e+06  -7.211015e+05
  -4.061466e+05  -1.562914e+06
   9.538692e+05  -1.035606e+06
   1.229158e+06   1.645496e+05
   3.376352e+05   6.951472e+05
  -6.734457e+05   5.667454e+04
  -6.272086e+05  -9.959123e+05
   6.284530e+05  -1.301714e+06
   1.930676e+06  -3.952540e+05
   1.864514e+06   1.087255e+06
   2.939200e+05   1.953889e+06
  -1.363774e+06   1.508818e+06
  -1.621651e+06   1.998044e+05
  -5.072818e+05  -8.106103e+05
   6.194265e+05  -7.795593e+05
   6.832550e+05  -4.209331e+04
  -6.078795e+04   4.839942e+05
  -5.934479e+05   3.274830e+05
  -3.466413e+05  -1.131414e+05
   3.096338e+05  -1.192884e+05
   5.466512e+05   4.923260e+05
  -1.147271e+05   1.095819e+06
  -1.297670e+06   8.409035e+05
  -1.962939e+06  -4.363605e+05
  -1.320894e+06  -1.883438e+06
   2.888689e+05  -2.328036e+06
   1.606738e+06  -1.399862e+06
   1.717641e+06   9.459593e+04
   9.492513e+05   9.879591e+05
   3.250330e+05   8.805414e+05
   3.134439e+05   3.732431e+05
   4.338834e+05   2.560002e+05
   4.330907e+04   6.280693e+05
  -8.136228e+05   8.608342e+05
  -1.424253e+06   3.474239e+05
  -1.092804e+06  -7.540996e+05
   2.132815e+05  -1.517549e+06
   1.694201e+06  -1.062813e+06
   2.183855e+06   5.078831e+05
   1.092421e+06   2.016225e+06
  -9.187404e+05   2.218859e+06
  -2.370262e+06   9.917055e+05
  -2.286524e+06  -5.758773e+05
  -1.050992e+06  -1.307859e+06
   1.336698e+05  -1.053942e+06
   5.021380e+05  -6.137104e+05
   2.986897e+05  -6.915282e+05
   2.363085e+05  -1.116486e+06
   6.449906e+05  -1.114837e+06
   1.180296e+06  -2.322678e+05
   1.209597e+06   1.088086e+06
   4.503281e+05   1.834963e+06
  -6.609305e+05   1.350576e+06
  -1.241405e+06  -2.018254e+04
  -7.698682e+05  -1.194438e+06
   3.228325e+05  -1.312929e+06
   1.015678e+06  -4.664595e+05
   7.433695e+05   5.164197e+05
  -2.850129e+04   9.282990e+05
  -3.854074e+05   7.551277e+05
  -3.482849e+04   4.586013e+05
   3.724371e+05   3.681381e+05
   2.496300e+04   3.814051e+05
  -1.050686e+06   1.839699e+05
  -1.884298e+06  -3.519343e+05
  -1.509446e+06  -9.909778e+05
  -1.209312e+04  -1.300041e+06
   1.443203e+06  -1.007151e+06
   1.720053e+06  -2.738603e+05
   8.187117e+05   3.751274e+05
  -2.161715e+05   4.772729e+05
  -4.576452e+05   6.768305e+04
   2.087019e+04  -3.264247e+05
   4.716039e+05  -2.073525e+05
   4.328079e+05   3.455869e+05
   1.231808e+05   7.227368e+05
  -1.210320e+04   4.642801e+05
   1.474070e+05  -1.491208e+05
   3.511702e+05  -3.461756e+05
   2.734655e+05   2.218646e+05
  -2.161215e+05   9.678767e+05
  -8.916395e+05   9.703553e+05
  -1.198151e+06   6.277536e+04
  -6.747244e+05  -9.037990e+05
   4.341440e+05  -9.889155e+05
   1.149428e+06  -1.921627e+05
   6.659636e+05   6.031692e+05
  -6.717758e+05   6.152922e+05
  -1.560037e+06  -9.768892e+04
  -1.055706e+06  -8.425980e+05
   4.120839e+05  -1.010133e+06
   1.483240e+06  -5.339733e+05
   1.260998e+06   1.622243e+05
   1.569091e+05   5.214674e+05
  -6.237002e+05   2.793627e+05
  -3.305141e+05  -2.663888e+05
   6.202232e+05  -4.352560e+05
   1.121450e+06   1.865197e+05
   5.196501e+05   1.189636e+06
  -7.225868e+05   1.576476e+06
  -1.502650e+06   7.344211e+05
  -1.174710e+06  -8.103260e+05
  -1.139061e+05  -1.755377e+06
   7.676535e+05  -1.267563e+06
   9.057503e+05   1.520873e+05
   4.289509e+05   1.163103e+06
  -1.789452e+05   9.726245e+05
  -5.265054e+05   9.177396e+04
  -4.880533e+05  -3.971772e+05
  -2.096317e+05  -1.603329e+05
  -2.935985e+04   1.092907e+05
  -1.788435e+05  -2.526744e+05
  -4.261735e+05  -9.350907e+05
  -2.125084e+05  -1.066441e+06
   6.274692e+05  -3.714607e+05
   1.420620e+06   5.083256e+05
   1.271628e+06   8.608922e+05
   1.611124e+05   6.692995e+05
  -8.969993e+05   3.638614e+05
  -9.809567e+05   1.591628e+05
  -3.014375e+05  -2.955540e+04
   1.709240e+05  -2.055910e+05
  -2.118474e+04  -2.326042e+05
  -3.197043e+05  -1.424000e+05
  -1.647806e+04  -1.337620e+05
   7.211739e+05  -1.712634e+05
   1.000455e+06   7.511385e+04
   2.892760e+05   6.704495e+05
  -9.246215e+05   1.057328e+06
  -1.624382e+06   6.100687e+05
  -1.258396e+06  -5.107817e+05
  -1.783711e+05  -1.379065e+06
   7.801948e+05  -1.273023e+06
   1.032355e+06  -4.292833e+05
   6.303583e+05   2.895391e+05
   8.535919e+04   3.491874e+05
  -1.257102e+05   1.993182e+04
   5.989133e+04  -5.788152e+04
   3.053573e+05   3.493571e+05
   2.298318e+05   7.912307e+05
  -2.147605e+05   6.331286e+05
  -6.625448e+05  -1.895491e+05
  -6.322824e+05  -9.899216e+05
   1.457348e+03  -9.900547e+05
   7.714720e+05  -1.458232e+05
   9.445860e+05   7.938052e+05
   2.490722e+05   1.060923e+06
  -7.251005e+05   5.774188e+05
  -1.045002e+06  -1.369177e+05
  -4.534463e+05  -5.715753e+05
   2.999752e+05  -5.873490e+05
   3.325467e+05  -3.274161e+05
  -2.906846e+05  -4.258902e+04
  -6.418200e+05   2.087649e+02
  -1.098307e+05  -2.922659e+05
   8.260372e+05  -6.259609e+05
   1.193997e+06  -5.079975e+05
   6.758590e+05   1.601975e+05
  -1.348485e+05   8.125678e+05
  -5.225003e+05   7.814909e+05
  -3.630108e+05   1.013038e+05
  -1.827605e+03  -4.850006e+05
   2.585595e+05  -3.802358e+05
   3.340509e+05   2.043591e+05
   2.120308e+05   5.693661e+05
  -8.057141e+04   3.660960e+05
  -3.720946e+05  -8.086815e+04
  -4.310435e+05  -2.580546e+05
  -2.302659e+05  -7.424213e+04
   4.267097e+03   1.084001e+05
   8.026781e+04  -3.090549e+04
   7.058902e+04  -3.688425e+05
   1.627778e+05  -4.727767e+05
   3.432298e+05  -1.097664e+05
   3.604114e+05   4.391469e+05
   3.903641e+04   6.354008e+05
  -4.304179e+05   2.609669e+05
  -5.956281e+05  -3.287936e+05
  -1.944557e+05  -5.820799e+05
   4.912997e+05  -3.234523e+05
   8.190593e+05   1.320337e+05
   4.310795e+05   3.861066e+05
  -2.996984e+05   3.378771e+05
  -6.120297e+05   1.490560e+05
  -2.055933e+05   5.449191e+02
   3.861496e+05  -1.098811e+04
   4.079580e+05   1.322227e+05
  -2.179204e+05   3.024351e+05
  -7.968633e+05   2.238009e+05
