
 $NMID
 id='ANONYMOUS ', fmtdat='(2E16.6)'
 volume=1.0
 tramp=1.0
 $END
   6.002953e+07   3.121473e+05
   3.558678e+07   3.796949e+07
  -8.707648e+06   4.072633e+07
  -2.967918e+07   1.476675e+07
  -1.717759e+07  -8.240630e+06
   3.916719e+06  -9.839354e+06
   1.031548e+07   1.822113e+06
   2.463762e+06   1.045081e+07
  -6.893448e+06   9.432456e+06
  -1.019846e+07   1.706428e+06
  -7.258848e+06  -6.549892e+06
  -8.132266e+05  -8.920673e+06
   4.155611e+06  -2.930463e+06
   2.662842e+06   5.470075e+06
  -4.058919e+06   6.572773e+06
  -8.246922e+06  -1.643485e+06
  -4.484639e+06  -1.081588e+07
   4.174275e+06  -1.236860e+07
   1.073892e+07  -6.183228e+06
   1.149788e+07   2.145163e+06
   7.172115e+06   7.984483e+06
   8.030335e+05   9.411318e+06
  -3.345346e+06   6.632012e+06
  -2.437347e+06   2.719859e+06
   8.899612e+05   1.835184e+06
   4.107903e+05   4.042812e+06
  -5.311552e+06   4.609596e+06
  -9.881797e+06   7.141863e+05
  -7.402014e+06  -4.189662e+06
  -5.112289e+05  -5.324600e+06
   3.629982e+06  -2.882211e+06
   2.604397e+06  -3.249409e+05
  -2.533283e+05   7.536200e+05
  -1.952425e+06   6.062408e+05
  -2.214192e+06  -1.144197e+06
  -9.533971e+05  -3.874768e+06
   1.776784e+06  -4.127436e+06
   3.592553e+06  -8.173645e+04
   2.034792e+06   3.863014e+06
  -8.272872e+05   2.310102e+06
  -5.252131e+05  -2.303338e+06
   2.486657e+06  -2.277840e+06
   2.476938e+06   3.430534e+06
  -2.811289e+06   6.461016e+06
  -7.604549e+06   9.453274e+05
  -5.435302e+06  -7.495126e+06
   2.188111e+06  -9.089892e+06
   7.890206e+06  -2.512589e+06
   7.131504e+06   4.712359e+06
   1.726479e+06   6.236672e+06
  -3.635854e+06   2.659149e+06
  -5.297588e+06  -1.733139e+06
  -2.316468e+06  -3.666037e+06
   2.638572e+06  -2.218312e+06
   4.726184e+06   1.081308e+06
   1.959726e+06   2.917280e+06
  -1.838607e+06   1.416342e+06
  -1.728191e+06  -1.095152e+06
   1.524923e+06  -8.334870e+05
   2.554037e+06   2.099772e+06
  -9.239896e+05   3.775424e+06
  -5.123206e+06   1.907288e+06
  -5.598841e+06  -1.642901e+06
  -2.340084e+06  -4.284390e+06
   1.856398e+06  -5.479814e+06
   5.071811e+06  -5.033393e+06
   6.376991e+06  -1.883915e+06
   4.836399e+06   3.208154e+06
   1.023670e+06   6.368083e+06
  -2.024379e+06   4.856983e+06
  -1.906314e+06   1.070528e+06
  -5.126827e+04  -4.606397e+05
   3.047229e+05   9.535612e+05
  -1.415610e+06   1.964179e+06
  -2.809742e+06   4.663105e+05
  -2.138888e+06  -1.767641e+06
  -1.745224e+05  -2.084944e+06
   1.426919e+06  -2.533530e+05
   1.646018e+06   1.984536e+06
   5.482841e+04   2.926037e+06
  -2.775531e+06   1.758826e+06
  -4.637250e+06  -1.124920e+06
  -3.420283e+06  -3.882703e+06
   7.778669e+03  -4.476727e+06
   2.431991e+06  -2.896037e+06
   2.409496e+06  -1.159797e+06
   1.926539e+06  -6.216547e+05
   2.989549e+06  -4.106414e+05
   4.389727e+06   8.295016e+05
   3.494293e+06   2.823587e+06
   1.061568e+05   4.149133e+06
  -3.210354e+06   3.914867e+06
  -4.158290e+06   2.182303e+06
  -2.692882e+06  -3.414590e+05
  -3.705471e+05  -2.223119e+06
   1.038595e+06  -1.988692e+06
   5.782431e+05   5.317026e+03
  -1.070247e+06   1.332341e+06
  -1.943100e+06   4.073864e+05
  -9.686065e+05  -1.232661e+06
   4.926890e+05  -1.117966e+06
   3.722075e+05   4.014873e+05
  -1.161010e+06   6.037012e+05
  -1.855379e+06  -1.508542e+06
  -4.489771e+05  -3.641506e+06
   1.854517e+06  -3.320433e+06
   3.238823e+06  -8.653447e+05
   3.197855e+06   1.604279e+06
   2.124672e+06   2.746229e+06
   4.024663e+05   2.546361e+06
  -1.222051e+06   1.457355e+06
  -1.566593e+06   2.464930e+05
  -4.947876e+05  -4.757161e+04
   3.544651e+05   7.607493e+05
  -4.476363e+05   1.372846e+06
  -1.971616e+06   5.748762e+05
  -2.064603e+06  -9.495376e+05
  -3.552456e+05  -1.463173e+06
   1.196092e+06  -5.536408e+05
   8.542963e+05   4.683619e+05
  -8.838378e+05   4.541413e+05
  -2.135417e+06  -4.124054e+05
  -1.647447e+06  -1.373574e+06
   3.101949e+05  -1.912272e+06
   2.318931e+06  -1.597662e+06
   2.779930e+06  -2.436653e+05
   1.222472e+06   1.304243e+06
  -9.525642e+05   1.545384e+06
  -1.617651e+06   1.909361e+05
  -2.204976e+05  -1.115272e+06
   1.542142e+06  -7.431850e+05
   1.721688e+06   8.202316e+05
   2.868198e+05   1.670624e+06
  -1.140778e+06   9.320331e+05
  -1.249719e+06  -3.759256e+05
  -2.016345e+05  -8.060184e+05
   8.296126e+05  -4.099318e+04
   7.487294e+05   1.074302e+06
  -5.762098e+05   1.442342e+06
  -2.023396e+06   5.543275e+05
  -2.056432e+06  -1.060475e+06
  -3.766977e+05  -2.101305e+06
   1.478023e+06  -1.648325e+06
   1.747964e+06  -1.834177e+05
   4.815059e+05   8.882311e+05
  -6.790977e+05   7.930041e+05
  -6.132248e+05   7.632348e+04
   1.421352e+05  -3.160952e+05
   4.578457e+05  -1.606894e+05
   4.871405e+04   5.155101e+04
  -4.870068e+05  -1.463047e+05
  -4.924339e+05  -7.318419e+05
   2.538131e+05  -1.201896e+06
   1.411494e+06  -8.821935e+05
   2.094474e+06   4.365063e+05
   1.467666e+06   1.968515e+06
  -2.293534e+05   2.425164e+06
  -1.624894e+06   1.377161e+06
  -1.661874e+06  -1.624066e+05
  -8.048195e+05  -8.714255e+05
  -3.014426e+05  -5.760636e+05
  -5.224459e+05  -1.748687e+05
  -6.787424e+05  -3.389741e+05
  -9.334738e+04  -8.026470e+05
   9.026807e+05  -8.908810e+05
   1.446865e+06  -2.904508e+05
   1.013045e+06   7.214355e+05
  -2.834785e+05   1.421672e+06
  -1.731249e+06   1.036983e+06
  -2.239038e+06  -5.069616e+05
  -1.101881e+06  -2.125635e+06
   1.068763e+06  -2.374682e+06
   2.591508e+06  -9.926054e+05
   2.337879e+06   7.192200e+05
   8.924689e+05   1.351131e+06
  -2.435376e+05   8.964949e+05
  -3.556780e+05   4.643899e+05
  -1.585661e+04   7.653959e+05
  -7.870840e+04   1.356079e+06
  -6.927062e+05   1.323145e+06
  -1.323856e+06   3.241267e+05
  -1.350753e+06  -1.087658e+06
  -5.578395e+05  -1.904333e+06
   6.246817e+05  -1.442468e+06
   1.287504e+06   1.657741e+04
   7.977048e+05   1.313652e+06
  -4.321133e+05   1.403632e+06
  -1.207190e+06   3.615172e+05
  -8.142742e+05  -7.650724e+05
   1.718252e+05  -1.112610e+06
   5.953940e+05  -7.742977e+05
   1.081230e+05  -3.954416e+05
  -4.449231e+05  -3.276089e+05
  -6.570290e+04  -3.808562e+05
   1.173969e+06  -1.986172e+05
   2.098507e+06   3.546558e+05
   1.621310e+06   1.067485e+06
  -7.814131e+04   1.466444e+06
  -1.642116e+06   1.150182e+06
  -1.855779e+06   2.464624e+05
  -8.217872e+05  -5.446666e+05
   2.833722e+05  -5.913799e+05
   5.258855e+05  -1.292773e+04
   4.248904e+04   4.512702e+05
  -4.312518e+05   2.677544e+05
  -4.891577e+05  -3.439604e+05
  -2.888345e+05  -7.186562e+05
  -1.286770e+05  -4.808426e+05
  -1.333059e+05   7.082838e+04
  -2.532032e+05   2.641279e+05
  -2.692579e+05  -2.379962e+05
   1.260902e+05  -9.797584e+05
   9.080648e+05  -1.076696e+06
   1.412666e+06  -1.963383e+05
   8.980574e+05   9.207501e+05
  -4.199694e+05   1.179129e+06
  -1.291024e+06   3.726319e+05
  -7.434988e+05  -5.648080e+05
   7.164300e+05  -6.421518e+05
   1.577988e+06   1.211386e+05
   9.569528e+05   8.782002e+05
  -5.254160e+05   9.588093e+05
  -1.494111e+06   4.223418e+05
  -1.201372e+06  -2.227758e+05
  -1.133577e+05  -5.066113e+05
   6.571407e+05  -2.494934e+05
   3.981067e+05   3.092885e+05
  -5.696911e+05   5.458026e+05
  -1.194766e+06  -4.922849e+04
  -7.157121e+05  -1.171598e+06
   5.440078e+05  -1.731407e+06
   1.468147e+06  -9.246359e+05
   1.267033e+06   7.408126e+05
   2.147737e+05   1.788513e+06
  -7.387084e+05   1.277123e+06
  -9.191341e+05  -2.032708e+05
  -4.043375e+05  -1.197802e+06
   2.563019e+05  -9.488852e+05
   5.744992e+05  -6.802737e+04
   4.400413e+05   3.701458e+05
   1.331524e+05   1.260139e+05
   6.034644e+04  -8.523712e+04
   3.258929e+05   3.197679e+05
   5.300617e+05   9.785511e+05
   1.548847e+05   1.072205e+06
  -7.604065e+05   3.881473e+05
  -1.473853e+06  -4.612057e+05
  -1.248370e+06  -8.343704e+05
  -1.823529e+05  -7.080568e+05
   8.212579e+05  -4.292301e+05
   9.734306e+05  -1.737819e+05
   3.898589e+05   7.371428e+04
  -1.317989e+05   2.314354e+05
  -7.465010e+04   1.836198e+05
   2.238378e+05   6.742637e+04
   6.921041e+04   1.315256e+05
  -6.160933e+05   2.617093e+05
  -1.058569e+06   1.108708e+04
  -5.072399e+05  -7.027044e+05
   7.930423e+05  -1.221823e+06
   1.734082e+06  -8.098232e+05
   1.481777e+06   3.955908e+05
   3.104832e+05   1.404093e+06
  -7.698029e+05   1.406764e+06
  -1.052290e+06   5.847786e+05
  -6.565002e+05  -1.998022e+05
  -1.589200e+05  -3.607900e+05
   3.087664e+04  -9.725647e+04
  -9.512772e+04  -1.471963e+04
  -2.837731e+05  -3.798799e+05
  -2.388270e+05  -8.098191e+05
   1.627681e+05  -6.963516e+05
   6.792144e+05   7.989270e+04
   7.868593e+05   9.166160e+05
   1.839999e+05   1.044003e+06
  -7.272689e+05   3.080439e+05
  -1.069975e+06  -6.669089e+05
  -3.987015e+05  -1.095169e+06
   7.010108e+05  -7.286927e+05
   1.151219e+06   4.499014e+04
   5.702346e+05   6.419262e+05
  -2.835872e+05   7.302470e+05
  -4.157735e+05   3.847122e+05
   2.067032e+05  -1.331213e+04
   6.420459e+05  -5.728603e+04
   1.671185e+05   3.168538e+05
  -8.203807e+05   6.897390e+05
  -1.295401e+06   5.281945e+05
  -8.122109e+05  -2.032122e+05
   8.012335e+04  -8.942765e+05
   5.816016e+05  -8.869568e+05
   4.712112e+05  -1.999870e+05
   8.635590e+04   4.641466e+05
  -2.260013e+05   4.668783e+05
  -3.561073e+05  -1.022028e+05
  -2.723040e+05  -5.755379e+05
   3.617423e+04  -4.682572e+05
   3.969324e+05   2.032270e+04
   4.968115e+05   3.028986e+05
   2.452522e+05   1.181090e+05
  -5.641127e+04  -1.830589e+05
  -8.214348e+04  -1.078907e+05
   7.595626e+04   3.317458e+05
   3.851048e+04   6.027735e+05
  -2.941428e+05   3.016707e+05
  -5.250370e+05  -3.263927e+05
  -2.436311e+05  -6.455288e+05
   3.847090e+05  -3.461005e+05
   7.034459e+05   2.416753e+05
   2.891310e+05   5.565265e+05
  -5.166139e+05   3.839328e+05
  -9.160288e+05  -4.040846e+04
  -5.026744e+05  -3.701404e+05
   2.889316e+05  -4.406413e+05
   6.518424e+05  -2.810902e+05
   2.852480e+05  -2.915265e+04
  -3.020889e+05   1.118928e+05
  -3.953416e+05  -7.537642e+03
   1.240040e+05  -2.698778e+05
   6.802395e+05  -2.931673e+05
