
 $NMID
 id='ANONYMOUS ', fmtdat='(2E16.6)'
 volume=1.0
 tramp=1.0
 $END
   2.057472e+07  -8.248862e+04
   1.410253e+07   8.208534e+06
   1.092478e+06   1.243213e+07
  -8.063875e+06   1.000034e+07
  -7.799920e+06   2.492085e+06
  -1.237932e+06  -3.693550e+06
   4.222579e+06  -2.948960e+06
   4.093631e+06   2.982399e+06
  -1.589991e+05   6.579115e+06
  -3.844495e+06   3.401555e+06
  -3.772106e+06  -2.767065e+06
  -6.267560e+05  -4.864939e+06
   2.257121e+06  -9.320039e+05
   2.075155e+06   4.243328e+06
  -9.320550e+05   5.055032e+06
  -3.656704e+06   8.716317e+05
  -3.073171e+06  -4.118008e+06
   6.222415e+05  -5.510180e+06
   4.038297e+06  -2.643239e+06
   4.119929e+06   1.372366e+06
   1.427072e+06   3.049536e+06
  -6.284259e+05   1.954200e+06
   2.327838e+05   7.015175e+05
   2.540123e+06   1.576188e+06
   2.768487e+06   3.767314e+06
  -6.101198e+05   4.495591e+06
  -5.146002e+06   2.407733e+06
  -6.642460e+06  -9.883274e+05
  -3.427712e+06  -3.096331e+06
   1.664359e+06  -2.606634e+06
   3.899961e+06  -1.911098e+05
   1.447294e+06   2.179023e+06
  -2.747377e+06   2.432037e+06
  -4.269020e+06   2.071610e+03
  -2.025593e+06  -3.134188e+06
   1.036006e+06  -3.880915e+06
   1.796908e+06  -1.378182e+06
   3.499814e+05   1.610185e+06
  -9.321563e+05   1.678358e+06
  -5.859702e+05  -1.119738e+06
   7.570686e+05  -3.289682e+06
   1.762337e+06  -2.162495e+06
   1.708744e+06   9.534675e+05
   5.530534e+05   2.515637e+06
  -1.072751e+06   9.235191e+05
  -1.699637e+06  -1.910973e+06
  -7.232906e+04  -2.936491e+06
   2.942707e+06  -1.124342e+06
   4.416789e+06   1.843161e+06
   2.364953e+06   3.451974e+06
  -1.673317e+06   2.597815e+06
  -4.009606e+06   2.783714e+05
  -2.739694e+06  -1.515945e+06
   4.190656e+05  -1.557696e+06
   2.272208e+06  -2.792095e+05
   1.460313e+06   8.501490e+05
  -5.924384e+05   7.588640e+05
  -1.519611e+06  -3.296417e+05
  -4.382375e+05  -1.243206e+06
   1.277137e+06  -1.006212e+06
   1.493505e+06   2.320279e+05
  -2.807503e+05   1.246995e+06
  -2.105541e+06   7.996465e+05
  -1.619198e+06  -1.095346e+06
   1.192488e+06  -2.901451e+06
   3.817674e+06  -2.810816e+06
   4.001028e+06  -5.013141e+05
   2.097983e+06   2.412012e+06
   2.269043e+05   3.873206e+06
  -3.607798e+05   3.335947e+06
  -3.074462e+05   2.049387e+06
  -7.782037e+05   1.397155e+06
  -1.912606e+06   1.283288e+06
  -2.840728e+06   5.141447e+05
  -2.669229e+06  -1.320773e+06
  -1.193418e+06  -2.891034e+06
   9.141544e+05  -2.459102e+06
   2.320135e+06  -1.527955e+04
   1.871163e+06   2.398891e+06
  -2.573896e+05   2.689597e+06
  -2.388445e+06   7.819996e+05
  -2.789877e+06  -1.506605e+06
  -1.373470e+06  -2.441589e+06
   3.263881e+05  -1.896881e+06
   9.252676e+05  -1.009083e+06
   6.560286e+05  -7.448402e+05
   8.672459e+05  -1.011976e+06
   2.193883e+06  -9.564804e+05
   3.531898e+06   1.094535e+05
   3.068709e+06   1.977168e+06
   3.714541e+05   3.519735e+06
  -2.763020e+06   3.480158e+06
  -3.854754e+06   1.602808e+06
  -2.217699e+06  -8.896690e+05
   3.366398e+05  -2.172293e+06
   1.414532e+06  -1.452914e+06
   4.369222e+05   2.403750e+05
  -1.096442e+06   1.078635e+06
  -1.485457e+06   3.242822e+05
  -5.279115e+05  -9.225488e+05
   6.180658e+05  -1.024469e+06
   7.749690e+05   2.234315e+05
  -2.409340e+05   1.224284e+06
  -1.555755e+06   3.754784e+05
  -1.874030e+06  -1.941008e+06
  -4.751304e+05  -3.530176e+06
   1.968351e+06  -2.658451e+06
   3.642052e+06   9.096444e+04
   3.124050e+06   2.442885e+06
   8.467869e+05   2.750107e+06
  -1.220750e+06   1.422787e+06
  -1.528859e+06   1.314887e+05
  -4.411177e+05  -2.254970e+04
   3.644110e+05   6.322685e+05
  -1.636302e+05   1.026858e+06
  -1.350424e+06   5.533867e+05
  -1.667634e+06  -4.203006e+05
  -5.367085e+05  -1.001293e+06
   9.215979e+05  -6.435670e+05
   1.038602e+06   3.100401e+05
  -5.275278e+05   8.774379e+05
  -2.242934e+06   3.253848e+05
  -2.211384e+06  -1.066621e+06
  -2.077246e+05  -2.144186e+06
   2.012888e+06  -1.903710e+06
   2.512009e+06  -4.761900e+05
   1.097269e+06   9.259924e+05
  -6.540820e+05   1.134465e+06
  -1.105296e+06   1.630036e+05
  -7.155414e+04  -8.094490e+05
   1.254671e+06  -6.632452e+05
   1.573450e+06   4.780847e+05
   6.217790e+05   1.400868e+06
  -6.975355e+05   1.155240e+06
  -1.183966e+06   9.574768e+04
  -4.763678e+05  -5.631228e+05
   5.498944e+05  -1.248710e+05
   6.312798e+05   8.598033e+05
  -5.156784e+05   1.243361e+06
  -1.783871e+06   4.787059e+05
  -1.803768e+06  -8.903677e+05
  -4.265489e+05  -1.779165e+06
   1.105689e+06  -1.511356e+06
   1.474077e+06  -3.632559e+05
   5.870861e+05   6.849185e+05
  -4.843851e+05   8.083543e+05
  -7.034119e+05   9.488616e+04
  -5.133116e+04  -5.732849e+05
   6.143526e+05  -4.890355e+05
   5.338878e+05   9.352450e+04
  -1.630901e+05   2.992149e+05
  -5.991344e+05  -2.712539e+05
  -8.003136e+04  -1.000797e+06
   1.104581e+06  -9.164274e+05
   1.867551e+06   2.291869e+05
   1.379381e+06   1.647242e+06
  -8.310268e+04   2.231473e+06
  -1.401814e+06   1.535800e+06
  -1.705777e+06   1.298039e+05
  -1.117914e+06  -9.236001e+05
  -4.385664e+05  -1.006205e+06
  -2.259540e+05  -4.642105e+05
  -2.915827e+05  -1.675945e+05
  -6.492966e+04  -5.004879e+05
   6.479821e+05  -8.942934e+05
   1.328011e+06  -5.163986e+05
   1.187711e+06   6.344302e+05
  -2.288845e+03   1.547929e+06
  -1.509329e+06   1.218086e+06
  -2.136019e+06  -2.719539e+05
  -1.254318e+06  -1.776173e+06
   5.799275e+05  -2.141477e+06
   2.060805e+06  -1.191688e+06
   2.236582e+06   2.383190e+05
   1.248578e+06   1.124097e+06
   5.577665e+04   1.125855e+06
  -5.047161e+05   7.472964e+05
  -3.966080e+05   6.731350e+05
  -2.255584e+05   9.696189e+05
  -4.941564e+05   1.016839e+06
  -1.038194e+06   2.816307e+05
  -1.198387e+06  -9.395542e+05
  -5.553647e+05  -1.697097e+06
   5.297508e+05  -1.323604e+06
   1.177853e+06  -1.032696e+05
   8.451968e+05   1.007543e+06
  -1.163655e+05   1.244159e+06
  -8.129949e+05   6.097142e+05
  -7.153547e+05  -2.759344e+05
  -1.446817e+05  -7.812615e+05
   1.682069e+05  -7.474056e+05
  -6.230404e+04  -4.827379e+05
  -3.568964e+05  -3.481429e+05
  -3.828455e+04  -3.701473e+05
   9.252061e+05  -2.698316e+05
   1.731694e+06   1.589773e+05
   1.492350e+06   7.655277e+05
   1.908757e+05   1.151683e+06
  -1.182403e+06   1.025223e+06
  -1.554913e+06   4.512297e+05
  -8.204270e+05  -1.755200e+05
   1.262395e+05  -4.108817e+05
   3.916047e+05  -1.421426e+05
  -3.337196e+04   2.459535e+05
  -4.647344e+05   2.149223e+05
  -4.208079e+05  -2.952167e+05
  -9.217199e+04  -7.009802e+05
   5.150574e+04  -4.499748e+05
  -1.315704e+05   2.086507e+05
  -3.600455e+05   4.280895e+05
  -2.893161e+05  -1.768894e+05
   1.663103e+05  -9.588732e+05
   7.612144e+05  -9.661557e+05
   1.031609e+06  -8.883682e+04
   6.089108e+05   8.102787e+05
  -3.396451e+05   8.875980e+05
  -1.018966e+06   1.849597e+05
  -6.625895e+05  -5.448409e+05
   5.624854e+05  -6.465974e+05
   1.510614e+06  -7.895977e+04
   1.168988e+06   6.807557e+05
  -2.230695e+05   1.046653e+06
  -1.370090e+06   7.383123e+05
  -1.272540e+06   1.322139e+04
  -2.334945e+05  -4.960531e+05
   5.537074e+05  -3.514652e+05
   3.037864e+05   2.020048e+05
  -5.944505e+05   4.210283e+05
  -1.070054e+06  -1.543361e+05
  -5.069460e+05  -1.123310e+06
   6.578555e+05  -1.518953e+06
   1.414669e+06  -7.520402e+05
   1.170174e+06   7.134726e+05
   2.269828e+05   1.676567e+06
  -6.325141e+05   1.304182e+06
  -8.826846e+05  -2.369262e+04
  -5.486441e+05  -1.060998e+06
   2.441944e+04  -9.714684e+05
   4.701206e+05  -1.548161e+05
   5.453189e+05   3.486045e+05
   2.689338e+05   1.502796e+05
  -3.294726e+03  -1.219476e+05
   1.049192e+05   1.943687e+05
   4.430273e+05   8.426516e+05
   3.509589e+05   1.005346e+06
  -4.895931e+05   4.064400e+05
  -1.400250e+06  -3.790637e+05
  -1.337764e+06  -7.189964e+05
  -2.096272e+05  -6.100035e+05
   8.831191e+05  -4.095923e+05
   9.405086e+05  -2.467366e+05
   2.383006e+05  -2.406029e+04
  -1.702624e+05   2.035322e+05
   1.063645e+05   2.477001e+05
   3.881794e+05   1.454098e+05
  -2.574744e+03   1.325554e+05
  -7.519108e+05   1.910753e+05
  -9.475004e+05  -2.645723e+04
  -2.135242e+05  -6.139603e+05
   8.789170e+05  -1.027491e+06
   1.457402e+06  -6.292444e+05
   1.142683e+06   4.504516e+05
   2.320720e+05   1.311819e+06
  -6.402804e+05   1.233224e+06
  -9.542579e+05   4.256515e+05
  -6.304814e+05  -2.727040e+05
  -7.275294e+04  -3.271735e+05
   1.828913e+05   9.494074e+03
  -2.601025e+04   1.047663e+05
  -3.434655e+05  -2.872808e+05
  -2.976600e+05  -7.327699e+05
   1.789102e+05  -6.004229e+05
   6.584908e+05   1.840499e+05
   6.245350e+05   9.495008e+05
  -1.685518e+04   9.385432e+05
  -7.703286e+05   1.237854e+05
  -9.284580e+05  -7.583955e+05
  -2.565922e+05  -9.914175e+05
   6.679158e+05  -5.430370e+05
   9.678513e+05   8.832667e+04
   4.224050e+05   4.715392e+05
  -2.493128e+05   5.135645e+05
  -2.410933e+05   3.114044e+05
   3.414088e+05   4.066250e+04
   6.257845e+05  -3.108817e+04
   9.982936e+04   2.605508e+05
  -7.441045e+05   6.531996e+05
  -1.044590e+06   5.968939e+05
  -5.854777e+05  -6.774065e+04
   8.583430e+04  -7.550571e+05
   3.964645e+05  -7.431953e+05
   2.811542e+05  -6.825421e+04
   9.548294e+02   4.882014e+05
  -2.369904e+05   3.440666e+05
  -3.377000e+05  -2.280192e+05
  -2.267615e+05  -5.302782e+05
   7.404754e+04  -3.032374e+05
   3.576353e+05   7.889323e+04
   4.014078e+05   1.823721e+05
   2.190582e+05   2.226439e+04
   2.135040e+04  -6.196320e+04
  -6.500224e+04   1.234740e+05
  -1.183492e+05   3.967815e+05
  -2.409840e+05   4.076748e+05
  -3.635534e+05   2.677039e+04
  -3.004066e+05  -4.682648e+05
   2.321588e+04  -6.185441e+05
   4.239212e+05  -2.478166e+05
   5.505129e+05   3.177926e+05
   1.918049e+05   5.660256e+05
  -4.313393e+05   3.254793e+05
  -7.539097e+05  -1.060754e+05
  -4.147537e+05  -3.443105e+05
   2.688101e+05  -2.959959e+05
   5.618591e+05  -1.239116e+05
   1.521335e+05   8.045159e+02
  -4.312475e+05  -6.475473e+03
  -4.246862e+05  -1.621434e+05
   2.359664e+05  -3.415303e+05
   8.257753e+05  -2.635542e+05
