
 $NMID
 id='ANONYMOUS ', fmtdat='(2E16.6)'
 volume=1.0
 tramp=1.0
 $END
  -2.269975e+07  -9.136998e+05
  -1.453794e+07  -1.144993e+07
   8.202187e+05  -1.435501e+07
   1.015994e+07  -8.902421e+06
   8.080432e+06  -4.541693e+05
   2.669338e+05   4.045867e+06
  -4.577123e+06   1.771418e+06
  -3.217480e+06  -3.720841e+06
   1.296145e+06  -6.065970e+06
   4.296299e+06  -2.560842e+06
   3.572226e+06   3.048571e+06
   3.310499e+05   4.751610e+06
  -2.234129e+06   9.497300e+05
  -1.660755e+06  -3.928595e+06
   1.446341e+06  -4.526641e+06
   3.786574e+06  -2.691467e+05
   2.642520e+06   4.549541e+06
  -1.245858e+06   5.598399e+06
  -4.456049e+06   2.536158e+06
  -4.413996e+06  -1.478006e+06
  -1.804146e+06  -3.310674e+06
   4.462418e+05  -2.580635e+06
   2.619467e+05  -1.366265e+06
  -1.501486e+06  -1.652850e+06
  -1.961606e+06  -3.169134e+06
   6.339076e+05  -3.799452e+06
   4.590153e+06  -2.093480e+06
   6.095691e+06   9.732697e+05
   3.308112e+06   2.978425e+06
  -1.291969e+06   2.504262e+06
  -3.342758e+06   3.031671e+05
  -1.278355e+06  -1.644030e+06
   2.197901e+06  -1.749154e+06
   3.407077e+06   1.499113e+05
   1.609927e+06   2.573613e+06
  -8.517784e+05   3.303822e+06
  -1.619158e+06   1.442575e+06
  -6.201270e+05  -1.193956e+06
   5.173261e+05  -1.668142e+06
   4.690151e+05   5.735615e+05
  -6.683817e+05   2.682551e+06
  -1.726685e+06   1.796997e+06
  -1.534559e+06  -1.218292e+06
   5.326156e+04  -2.704880e+06
   1.783854e+06  -7.674626e+05
   1.852856e+06   2.419468e+06
  -3.483092e+05   3.312036e+06
  -3.211873e+06   1.008538e+06
  -4.072226e+06  -2.168214e+06
  -1.799003e+06  -3.456026e+06
   1.824545e+06  -2.177897e+06
   3.651704e+06   2.091783e+05
   2.250186e+06   1.722834e+06
  -7.142716e+05   1.419905e+06
  -2.291196e+06  -3.349039e+04
  -1.292213e+06  -1.066733e+06
   7.027082e+05  -7.143381e+05
   1.328553e+06   4.571671e+05
   7.302400e+04   1.055961e+06
  -1.325996e+06   4.265192e+05
  -9.952590e+05  -7.235400e+05
   9.033713e+05  -1.161793e+06
   2.304194e+06  -2.916046e+05
   1.443922e+06   1.424718e+06
  -1.258170e+06   2.770817e+06
  -3.600230e+06   2.513908e+06
  -3.779938e+06   4.048085e+05
  -2.033140e+06  -2.287401e+06
  -1.029366e+05  -3.672573e+06
   6.865426e+05  -3.064427e+06
   5.752521e+05  -1.642491e+06
   6.637585e+05  -9.355919e+05
   1.448212e+06  -9.625298e+05
   2.302600e+06  -4.732537e+05
   2.253312e+06   1.057904e+06
   9.990340e+05   2.421038e+06
  -7.824184e+05   2.032857e+06
  -1.897748e+06  -7.737563e+04
  -1.468730e+06  -2.121156e+06
   3.205224e+05  -2.344015e+06
   2.152795e+06  -6.772755e+05
   2.565738e+06   1.395024e+06
   1.321057e+06   2.357721e+06
  -3.339378e+05   1.944497e+06
  -1.035187e+06   1.063528e+06
  -8.231281e+05   6.664299e+05
  -9.352667e+05   7.852507e+05
  -2.047666e+06   6.491553e+05
  -3.158855e+06  -3.638281e+05
  -2.609044e+06  -1.973291e+06
  -1.094219e+05  -3.144012e+06
   2.624572e+06  -2.924526e+06
   3.455149e+06  -1.261654e+06
   1.931857e+06   8.141893e+05
  -3.146119e+05   1.867260e+06
  -1.251069e+06   1.251582e+06
  -3.837470e+05  -1.997222e+05
   9.994105e+05  -9.092773e+05
   1.359014e+06  -2.177376e+05
   4.663874e+05   8.624628e+05
  -5.707237e+05   8.680744e+05
  -6.104644e+05  -2.545120e+05
   3.854526e+05  -9.731642e+05
   1.407086e+06  -1.388345e+04
   1.350637e+06   1.990520e+06
  -5.883625e+04   3.061203e+06
  -2.002833e+06   1.981575e+06
  -3.097563e+06  -4.555320e+05
  -2.455954e+06  -2.316474e+06
  -5.357845e+05  -2.400202e+06
   1.130487e+06  -1.172893e+06
   1.335206e+06  -4.953476e+04
   3.878135e+05   4.532674e+04
  -2.824009e+05  -5.813759e+05
   2.275912e+05  -9.238344e+05
   1.273500e+06  -4.149104e+05
   1.473174e+06   5.124535e+05
   3.938135e+05   9.514628e+05
  -8.633329e+05   5.004633e+05
  -8.604639e+05  -3.399387e+05
   5.457958e+05  -6.796299e+05
   1.945438e+06  -7.455377e+04
   1.789695e+06   1.075900e+06
   5.060541e+03   1.838834e+06
  -1.878591e+06   1.507294e+06
  -2.232973e+06   2.553228e+05
  -9.195999e+05  -9.044282e+05
   6.597157e+05  -1.000758e+06
   1.028821e+06  -9.006774e+04
   4.061942e+04   7.415113e+05
  -1.154804e+06   5.209134e+05
  -1.356987e+06  -5.358658e+05
  -4.265009e+05  -1.278833e+06
   7.178504e+05  -9.386863e+05
   1.039463e+06   3.480007e+04
   3.514726e+05   5.419209e+05
  -5.154973e+05   7.059193e+04
  -5.163883e+05  -8.015051e+05
   5.169079e+05  -1.073034e+06
   1.597148e+06  -3.320079e+05
   1.546679e+06   8.836199e+05
   2.725814e+05   1.601765e+06
  -1.080347e+06   1.269702e+06
  -1.329672e+06   2.177659e+05
  -4.617731e+05  -6.483574e+05
   4.839467e+05  -6.741620e+05
   6.026665e+05  -4.469126e+04
  -8.667912e+03   4.664995e+05
  -5.372018e+05   3.504548e+05
  -3.965351e+05  -1.037422e+05
   1.974780e+05  -1.952489e+05
   4.916716e+05   3.233187e+05
  -2.380523e+04   8.955919e+05
  -1.041346e+06   7.321022e+05
  -1.632751e+06  -3.199296e+05
  -1.120416e+06  -1.536303e+06
   2.045355e+05  -1.951768e+06
   1.320566e+06  -1.238617e+06
   1.478981e+06   1.161549e+04
   8.819618e+05   8.520182e+05
   3.101850e+05   8.417306e+05
   2.073707e+05   3.777720e+05
   2.911849e+05   1.807734e+05
   3.356220e+04   4.738392e+05
  -6.392349e+05   7.402063e+05
  -1.191315e+06   3.497094e+05
  -9.732321e+05  -6.223573e+05
   1.175337e+05  -1.324550e+06
   1.397122e+06  -9.538490e+05
   1.847741e+06   3.746196e+05
   9.760392e+05   1.645102e+06
  -6.717132e+05   1.853145e+06
  -1.910726e+06   9.020712e+05
  -1.937396e+06  -3.801501e+05
  -9.799846e+05  -1.065896e+06
   4.674102e+04  -9.499298e+05
   4.576860e+05  -5.859319e+05
   3.311740e+05  -5.730229e+05
   2.265293e+05  -8.751679e+05
   5.040267e+05  -8.929551e+05
   9.482853e+05  -1.961089e+05
   1.008061e+06   8.929692e+05
   3.941658e+05   1.523164e+06
  -5.380311e+05   1.133410e+06
  -1.038509e+06   1.449087e+04
  -6.744708e+05  -9.531666e+05
   2.031762e+05  -1.091114e+06
   7.837560e+05  -4.561998e+05
   6.177614e+05   3.354743e+05
   4.668362e+04   7.247373e+05
  -2.362225e+05   6.421447e+05
   8.262867e+03   4.108127e+05
   3.016628e+05   3.175548e+05
   1.708840e+04   3.238609e+05
  -8.455854e+05   1.771624e+05
  -1.535967e+06  -2.508185e+05
  -1.268553e+06  -7.764314e+05
  -7.351450e+04  -1.045392e+06
   1.132400e+06  -8.424006e+05
   1.406509e+06  -2.861236e+05
   7.019286e+05   2.391233e+05
  -1.495729e+05   3.714226e+05
  -3.629564e+05   8.711676e+04
   3.245021e+04  -2.365124e+05
   4.098382e+05  -1.686208e+05
   3.577066e+05   2.835019e+05
   6.754950e+04   6.140358e+05
  -4.578024e+04   3.907219e+05
   1.251958e+05  -1.568961e+05
   3.207881e+05  -3.316494e+05
   2.383438e+05   1.757817e+05
  -1.891178e+05   8.239199e+05
  -7.267566e+05   8.103125e+05
  -9.438142e+05   3.672816e+04
  -5.205120e+05  -7.462688e+05
   3.495330e+05  -7.864812e+05
   9.249696e+05  -1.305084e+05
   5.555528e+05   5.084940e+05
  -5.393501e+05   5.305229e+05
  -1.320711e+06  -3.401809e+04
  -9.513942e+05  -6.742050e+05
   2.842996e+05  -8.843753e+05
   1.239926e+06  -5.301305e+05
   1.094031e+06   8.304868e+04
   1.619823e+05   4.429380e+05
  -5.101202e+05   2.635266e+05
  -2.641633e+05  -2.033727e+05
   5.331977e+05  -3.489943e+05
   9.336091e+05   1.758568e+05
   4.065245e+05   1.004540e+06
  -6.340032e+05   1.307304e+06
  -1.270382e+06   5.994126e+05
  -9.884897e+05  -6.815638e+05
  -1.086520e+05  -1.477360e+06
   6.280123e+05  -1.093550e+06
   7.676392e+05   8.792482e+04
   4.028204e+05   9.637167e+05
  -9.939073e+04   8.371621e+05
  -4.276369e+05   9.922348e+04
  -4.413375e+05  -3.325623e+05
  -2.085980e+05  -1.409604e+05
  -1.116484e+04   1.014215e+05
  -1.077373e+05  -1.888260e+05
  -3.509325e+05  -7.689878e+05
  -2.284252e+05  -8.969071e+05
   4.778311e+05  -3.246661e+05
   1.202114e+06   4.103888e+05
   1.110614e+06   7.057131e+05
   1.467020e+05   5.510280e+05
  -7.784576e+05   3.115172e+05
  -8.312276e+05   1.562836e+05
  -2.260616e+05  -3.344096e+03
   1.532354e+05  -1.709746e+05
  -5.725017e+04  -2.123732e+05
  -3.084917e+05  -1.364856e+05
   4.441795e+02  -1.143562e+05
   6.444024e+05  -1.351419e+05
   8.325428e+05   6.713086e+04
   1.889828e+05   5.533446e+05
  -8.035629e+05   8.681234e+05
  -1.328131e+06   4.918538e+05
  -1.007560e+06  -4.422837e+05
  -1.428440e+05  -1.159215e+06
   6.338069e+05  -1.055972e+06
   8.601099e+05  -3.386425e+05
   5.349081e+05   2.597746e+05
   5.655646e+04   2.910016e+05
  -1.393350e+05  -4.780236e+03
   3.636593e+04  -7.484905e+04
   2.753331e+05   2.777189e+05
   2.128882e+05   6.591527e+05
  -1.837409e+05   5.223328e+05
  -5.631359e+05  -1.805474e+05
  -5.116722e+05  -8.502800e+05
   3.843266e+04  -8.246748e+05
   6.682006e+05  -8.994572e+04
   7.821795e+05   6.934686e+05
   1.883911e+05   8.843995e+05
  -6.104166e+05   4.583824e+05
  -8.558258e+05  -1.211159e+05
  -3.594057e+05  -4.507411e+05
   2.464790e+05  -4.581032e+05
   2.459164e+05  -2.661386e+05
  -2.772868e+05  -4.634565e+04
  -5.454979e+05  -2.229897e+03
  -8.117289e+04  -2.376428e+05
   6.873280e+05  -5.317921e+05
   9.658778e+05  -4.548044e+05
   5.311507e+05   1.052548e+05
  -1.125017e+05   6.664135e+05
  -4.041341e+05   6.406987e+05
  -2.700866e+05   6.062501e+04
   1.399221e+04  -4.199261e+05
   2.216526e+05  -3.006453e+05
   2.829155e+05   1.996230e+05
   1.745686e+05   4.764143e+05
  -7.513039e+04   2.788325e+05
  -3.104198e+05  -7.961108e+04
  -3.498639e+05  -1.932353e+05
  -1.917827e+05  -4.223279e+04
  -1.220723e+04   6.722793e+04
   6.479278e+04  -7.547462e+04
   9.933400e+04  -3.295716e+05
   1.957008e+05  -3.642975e+05
   3.077546e+05  -3.785118e+04
   2.633056e+05   4.037363e+05
  -1.957409e+04   5.377112e+05
  -3.751292e+05   2.046734e+05
  -4.789112e+05  -2.943419e+05
  -1.487077e+05  -4.988869e+05
   4.006761e+05  -2.667158e+05
   6.670851e+05   1.227210e+05
   3.521229e+05   3.226624e+05
  -2.504397e+05   2.600810e+05
  -5.038805e+05   9.751502e+04
  -1.479408e+05  -4.870107e+03
   3.573784e+05   1.341163e+04
   3.558662e+05   1.434727e+05
  -2.083100e+05   2.748944e+05
  -7.110175e+05   1.892898e+05
