
 $NMID
 id='ANONYMOUS ', fmtdat='(2E16.6)'
 volume=1.0
 tramp=1.0
 $END
  -5.992714e+07  -8.651883e+05
  -3.510808e+07  -3.839981e+07
   9.212254e+06  -4.062912e+07
   2.983476e+07  -1.429298e+07
   1.699955e+07   8.571967e+06
  -4.092793e+06   9.774571e+06
  -1.025486e+07  -2.038946e+06
  -2.248906e+06  -1.047459e+07
   7.042972e+06  -9.233836e+06
   1.018238e+07  -1.510933e+06
   7.142260e+06   6.586572e+06
   7.192099e+05   8.849922e+06
  -4.147565e+06   2.891081e+06
  -2.571057e+06  -5.400878e+06
   4.124969e+06  -6.425430e+06
   8.187000e+06   1.766019e+06
   4.323949e+06   1.082219e+07
  -4.307869e+06   1.226271e+07
  -1.076391e+07   6.055306e+06
  -1.145273e+07  -2.224538e+06
  -7.123504e+06  -8.026970e+06
  -7.457555e+05  -9.449198e+06
   3.451932e+06  -6.644304e+06
   2.577934e+06  -2.665299e+06
  -7.879884e+05  -1.724841e+06
  -4.042411e+05  -3.930109e+06
   5.225425e+06  -4.528771e+06
   9.758451e+06  -6.709819e+05
   7.322698e+06   4.191000e+06
   5.279011e+05   5.296449e+06
  -3.558008e+06   2.876864e+06
  -2.587063e+06   3.826569e+05
   1.624090e+05  -6.765069e+05
   1.826957e+06  -5.991964e+05
   2.157701e+06   1.063767e+06
   9.669517e+05   3.787937e+06
  -1.769974e+06   4.106460e+06
  -3.620720e+06   1.050363e+05
  -2.054370e+06  -3.865184e+06
   8.386974e+05  -2.367158e+06
   5.398649e+05   2.216608e+06
  -2.469071e+06   2.203160e+06
  -2.410696e+06  -3.454740e+06
   2.918933e+06  -6.412517e+06
   7.654411e+06  -8.514723e+05
   5.363485e+06   7.555717e+06
  -2.296143e+06   9.060271e+06
  -7.890977e+06   2.427773e+06
  -7.007054e+06  -4.758571e+06
  -1.605428e+06  -6.193031e+06
   3.637111e+06  -2.562366e+06
   5.194235e+06   1.806960e+06
   2.210031e+06   3.670185e+06
  -2.671608e+06   2.162352e+06
  -4.685269e+06  -1.145109e+06
  -1.901683e+06  -2.935632e+06
   1.849966e+06  -1.388047e+06
   1.682588e+06   1.109963e+06
  -1.563269e+06   7.835802e+05
  -2.514759e+06  -2.180559e+06
   1.022270e+06  -3.796912e+06
   5.183768e+06  -1.834820e+06
   5.566159e+06   1.739616e+06
   2.267435e+06   4.310841e+06
  -1.882259e+06   5.417477e+06
  -5.033739e+06   4.942029e+06
  -6.318834e+06   1.829712e+06
  -4.784749e+06  -3.199718e+06
  -9.700038e+05  -6.306890e+06
   2.075621e+06  -4.770467e+06
   1.923518e+06  -9.905020e+05
   1.786331e+04   5.154671e+05
  -3.690135e+05  -9.229947e+05
   1.347174e+06  -1.956993e+06
   2.750591e+06  -4.951118e+05
   2.106012e+06   1.702491e+06
   1.920132e+05   2.022711e+06
  -1.362263e+06   2.449601e+05
  -1.581222e+06  -1.933735e+06
  -3.993682e+04  -2.862379e+06
   2.735869e+06  -1.726097e+06
   4.577991e+06   1.124123e+06
   3.373111e+06   3.867772e+06
  -3.690645e+04   4.456540e+06
  -2.451073e+06   2.868173e+06
  -2.421473e+06   1.122962e+06
  -1.920422e+06   5.747660e+05
  -2.945456e+06   3.552597e+05
  -4.302218e+06  -8.716238e+05
  -3.397261e+06  -2.812342e+06
  -5.898508e+04  -4.068079e+06
   3.178622e+06  -3.805064e+06
   4.083750e+06  -2.113352e+06
   2.640431e+06   3.364501e+05
   3.679862e+05   2.173405e+06
  -1.016726e+06   1.949927e+06
  -5.694449e+05  -1.936095e+03
   1.053926e+06  -1.299489e+06
   1.914621e+06  -3.835969e+05
   9.496184e+05   1.221696e+06
  -4.856075e+05   1.089813e+06
  -3.455220e+05  -4.002692e+05
   1.168684e+06  -5.561520e+05
   1.804837e+06   1.553025e+06
   3.548870e+05   3.612559e+06
  -1.918144e+06   3.211640e+06
  -3.207744e+06   7.515327e+05
  -3.086602e+06  -1.643975e+06
  -2.012638e+06  -2.704716e+06
  -3.557111e+05  -2.478097e+06
   1.203629e+06  -1.411807e+06
   1.530958e+06  -2.312054e+05
   4.838757e+05   5.155439e+04
  -3.389369e+05  -7.492146e+05
   4.581822e+05  -1.346907e+06
   1.949250e+06  -5.443690e+05
   2.018873e+06   9.621849e+05
   3.274933e+05   1.446043e+06
  -1.180470e+06   5.268310e+05
  -8.227098e+05  -4.688657e+05
   8.771535e+05  -4.201232e+05
   2.073595e+06   4.454951e+05
   1.574481e+06   1.362796e+06
  -3.362093e+05   1.852930e+06
  -2.284541e+06   1.527268e+06
  -2.721661e+06   2.058927e+05
  -1.185098e+06  -1.295508e+06
   9.527492e+05  -1.513208e+06
   1.597204e+06  -1.730918e+05
   2.107899e+05   1.100433e+06
  -1.520075e+06   7.144903e+05
  -1.676823e+06  -8.262916e+05
  -2.536632e+05  -1.640556e+06
   1.135543e+06  -8.910334e+05
   1.217395e+06   3.936292e+05
   1.801695e+05   7.960341e+05
  -8.189293e+05   3.020610e+04
  -7.252178e+05  -1.061013e+06
   5.757549e+05  -1.408377e+06
   1.985675e+06  -5.262361e+05
   2.004888e+06   1.057161e+06
   3.477344e+05   2.063190e+06
  -1.468132e+06   1.599258e+06
  -1.715415e+06   1.575151e+05
  -4.582379e+05  -8.773571e+05
   6.756292e+05  -7.670370e+05
   5.955762e+05  -6.889794e+04
  -1.473897e+05   2.977667e+05
  -4.415766e+05   1.416903e+05
  -3.002673e+04  -4.833623e+04
   4.842346e+05   1.629164e+05
   4.694697e+05   7.336049e+05
  -2.694595e+05   1.176153e+06
  -1.394088e+06   8.467051e+05
  -2.046027e+06  -4.504701e+05
  -1.417262e+06  -1.942743e+06
   2.491983e+05  -2.369167e+06
   1.603426e+06  -1.323292e+06
   1.617027e+06   1.825255e+05
   7.663038e+05   8.542448e+05
   2.845915e+05   5.488980e+05
   5.185605e+05   1.649567e+05
   6.722402e+05   3.425105e+05
   8.487572e+04   7.937876e+05
  -8.963747e+05   8.603747e+05
  -1.416647e+06   2.629104e+05
  -9.751041e+05  -7.145151e+05
   2.979733e+05  -1.378661e+06
   1.703883e+06  -9.898423e+05
   2.181935e+06   5.212082e+05
   1.050896e+06   2.093595e+06
  -1.079096e+06   2.313992e+06
  -2.553299e+06   9.386453e+05
  -2.276432e+06  -7.377052e+05
  -8.461301e+05  -1.332373e+06
   2.551724e+05  -8.636403e+05
   3.450789e+05  -4.399908e+05
   8.551149e+03  -7.497443e+05
   8.332480e+04  -1.335223e+06
   6.937261e+05  -1.294805e+06
   1.303501e+06  -3.061755e+05
   1.313079e+06   1.077032e+06
   5.279068e+05   1.868587e+06
  -6.245065e+05   1.405267e+06
  -1.258890e+06  -3.114937e+04
  -7.648434e+05  -1.298066e+06
   4.442165e+05  -1.370159e+06
   1.193531e+06  -3.333213e+05
   7.904538e+05   7.699149e+05
  -1.882148e+05   1.094580e+06
  -6.018898e+05   7.504660e+05
  -1.146069e+05   3.814498e+05
   4.340507e+05   3.224869e+05
   6.176333e+04   3.721984e+05
  -1.154782e+06   1.810358e+05
  -2.055500e+06  -3.704927e+05
  -1.575989e+06  -1.064925e+06
   9.805618e+04  -1.439799e+06
   1.626749e+06  -1.111617e+06
   1.821735e+06  -2.173594e+05
   7.963960e+05   5.507904e+05
  -2.868848e+05   5.803309e+05
  -5.173609e+05   3.542998e+03
  -4.000641e+04  -4.475159e+05
   4.216328e+05  -2.592093e+05
   4.763144e+05   3.412729e+05
   2.823452e+05   7.038782e+05
   1.276578e+05   4.711400e+05
   1.304647e+05  -6.306832e+04
   2.450863e+05  -2.497738e+05
   2.596503e+05   2.362693e+05
  -1.297332e+05   9.547637e+05
  -8.994122e+05   1.045790e+06
  -1.392184e+06   1.830448e+05
  -8.778065e+05  -9.092605e+05
   4.223628e+05  -1.156131e+06
   1.271433e+06  -3.587419e+05
   7.229124e+05   5.576815e+05
  -7.092566e+05   6.197345e+05
  -1.539598e+06  -1.384231e+05
  -9.179977e+05  -8.709145e+05
   5.307793e+05  -9.269968e+05
   1.464240e+06  -3.880815e+05
   1.166696e+06   2.354092e+05
   1.020831e+05   4.951292e+05
  -6.462901e+05   2.341336e+05
  -3.887801e+05  -3.086723e+05
   5.592059e+05  -5.317576e+05
   1.168878e+06   5.441731e+04
   6.952124e+05   1.150123e+06
  -5.411488e+05   1.690996e+06
  -1.441185e+06   8.951033e+05
  -1.232427e+06  -7.339701e+05
  -1.938275e+05  -1.749422e+06
   7.346054e+05  -1.237893e+06
   8.955033e+05   2.121639e+05
   3.790367e+05   1.175800e+06
  -2.658315e+05   9.219810e+05
  -5.641966e+05   5.843195e+04
  -4.222524e+05  -3.651855e+05
  -1.240972e+05  -1.229936e+05
  -6.174750e+04   8.127836e+04
  -3.226310e+05  -3.190371e+05
  -5.115081e+05  -9.633104e+05
  -1.351552e+05  -1.048844e+06
   7.540268e+05  -3.711899e+05
   1.435581e+06   4.649594e+05
   1.206900e+06   8.278935e+05
   1.707952e+05   6.952205e+05
  -8.021711e+05   4.123041e+05
  -9.515881e+05   1.586943e+05
  -3.846431e+05  -7.867359e+04
   1.291555e+05  -2.255530e+05
   8.058408e+04  -1.760078e+05
  -2.120198e+05  -6.472298e+04
  -6.889367e+04  -1.288015e+05
   5.981803e+05  -2.525640e+05
   1.036046e+06  -3.161001e+03
   4.987735e+05   6.927015e+05
  -7.806353e+05   1.191415e+06
  -1.707237e+06   7.810228e+05
  -1.453169e+06  -3.965259e+05
  -2.935555e+05  -1.374808e+06
   7.669632e+05  -1.370971e+06
   1.034354e+06  -5.667519e+05
   6.393439e+05   1.977606e+05
   1.549022e+05   3.543057e+05
  -2.571749e+04   9.840754e+04
   9.490971e+04   1.936199e+04
   2.713315e+05   3.758933e+05
   2.239788e+05   7.941635e+05
  -1.640317e+05   6.809276e+05
  -6.623677e+05  -7.995743e+04
  -7.651682e+05  -8.992733e+05
  -1.775192e+05  -1.023272e+06
   7.103320e+05  -3.006683e+05
   1.042590e+06   6.561549e+05
   3.843611e+05   1.074825e+06
  -6.908851e+05   7.109702e+05
  -1.128407e+06  -5.217442e+04
  -5.555566e+05  -6.366562e+05
   2.839636e+05  -7.170652e+05
   4.146928e+05  -3.740082e+05
  -1.970095e+05   1.320437e+04
  -6.270216e+05   5.135133e+04
  -1.625496e+05  -3.123308e+05
   8.083159e+05  -6.667894e+05
   1.276055e+06  -5.014996e+05
   7.979239e+05   2.098488e+05
  -8.555425e+04   8.760624e+05
  -5.810410e+05   8.646942e+05
  -4.677952e+05   1.954206e+05
  -8.327144e+04  -4.524897e+05
   2.239876e+05  -4.575515e+05
   3.470745e+05   9.829118e+04
   2.621922e+05   5.650231e+05
  -3.803072e+04   4.619867e+05
  -3.882455e+05  -2.114880e+04
  -4.850427e+05  -3.037551e+05
  -2.389439e+05  -1.205656e+05
   5.606144e+04   1.832161e+05
   7.957589e+04   1.139206e+05
  -7.806828e+04  -3.219957e+05
  -4.200667e+04  -5.950227e+05
   2.871512e+05  -3.012419e+05
   5.170682e+05   3.179115e+05
   2.413400e+05   6.325820e+05
  -3.767069e+05   3.376439e+05
  -6.891692e+05  -2.390217e+05
  -2.806035e+05  -5.447667e+05
   5.099054e+05  -3.719334e+05
   8.984353e+05   4.494566e+04
   4.900143e+05   3.660667e+05
  -2.862252e+05   4.321931e+05
  -6.411568e+05   2.739560e+05
  -2.830021e+05   2.693619e+04
   2.911024e+05  -1.107887e+05
   3.845157e+05   5.283421e+03
  -1.192186e+05   2.597077e+05
  -6.606605e+05   2.812781e+05
