
 $NMID
 id='ANONYMOUS ', fmtdat='(2E16.6)'
 volume=1.0
 tramp=1.0
 $END
  -8.633274e+06   4.034866e+05
  -4.947286e+06  -6.350293e+06
   2.111213e+06  -6.381999e+06
   4.971852e+06  -1.156861e+06
   2.209667e+06   2.674529e+06
  -1.344377e+06   1.927200e+06
  -1.801493e+06  -7.528764e+05
   1.244314e+04  -1.899375e+06
   1.492904e+06  -1.104658e+06
   1.662710e+06   2.287181e+05
   9.420631e+05   1.158482e+06
  -1.272312e+05   1.295861e+06
  -8.410655e+05   5.056344e+05
  -4.855529e+05  -5.121264e+05
   5.807720e+05  -5.495413e+05
   1.014567e+06   5.157902e+05
   2.243592e+05   1.425098e+06
  -9.176712e+05   1.254871e+06
  -1.466514e+06   4.138000e+05
  -1.439735e+06  -4.141506e+05
  -1.060748e+06  -1.149255e+06
  -1.691367e+05  -1.629013e+06
   9.515534e+05  -1.249991e+06
   1.274810e+06  -8.733882e+04
   4.487202e+05   6.416849e+05
  -3.725370e+05   1.530405e+05
  -5.413319e+04  -6.696397e+05
   8.902840e+05  -5.470636e+05
   1.159060e+06   3.847776e+05
   5.267835e+05   1.017426e+06
  -1.842698e+05   9.363358e+05
  -5.066223e+05   5.910037e+05
  -6.111806e+05   2.421835e+05
  -5.146665e+05  -1.592492e+05
  -1.105539e+05  -3.200481e+05
   1.702603e+05   6.620162e+04
  -1.965067e+05   4.780048e+05
  -7.807241e+05   1.357055e+05
  -6.567906e+05  -6.438296e+05
   7.134542e+04  -7.861836e+05
   3.381963e+05  -2.119036e+05
  -1.086744e+05  -2.608993e+04
  -2.120484e+05  -6.446149e+05
   6.288478e+05  -9.710788e+05
   1.417567e+06  -1.120156e+05
   9.872484e+05   1.119465e+06
  -2.627994e+05   1.322323e+06
  -9.752260e+05   4.251926e+05
  -6.408744e+05  -4.458556e+05
   7.972663e+04  -5.516451e+05
   4.725489e+05  -1.096776e+05
   3.731082e+05   4.009613e+05
  -1.056584e+05   6.570340e+05
  -6.606373e+05   4.032847e+05
  -7.533951e+05  -2.709628e+05
  -1.934084e+05  -6.872703e+05
   3.533900e+05  -3.369518e+05
   1.469242e+05   2.370874e+05
  -4.574329e+05   9.194145e+04
  -4.242517e+05  -6.587625e+05
   3.968280e+05  -9.219316e+05
   1.009926e+06  -2.468595e+05
   7.488884e+05   5.506471e+05
   1.278530e+05   6.806869e+05
  -1.521131e+05   4.122834e+05
  -2.118164e+05   3.122415e+05
  -4.245247e+05   2.408188e+05
  -5.316181e+05  -1.634735e+05
  -1.128130e+05  -5.604641e+05
   4.778529e+05  -3.299774e+05
   4.734352e+05   3.429545e+05
  -1.553699e+05   6.133268e+05
  -6.332506e+05   1.663688e+05
  -4.637117e+05  -4.154027e+05
   3.025265e+04  -5.356084e+05
   3.195656e+05  -2.559651e+05
   2.881507e+05   3.963824e+04
   1.030975e+05   1.551357e+05
  -8.049302e+04   7.691677e+04
  -1.067007e+05  -1.376709e+05
   1.253944e+05  -2.729878e+05
   4.185702e+05  -8.136109e+04
   3.952868e+05   3.305321e+05
   1.101651e+04   5.289053e+05
  -3.354019e+05   3.173803e+05
  -3.434414e+05  -9.618490e+03
  -1.683723e+05  -1.261661e+05
  -8.137749e+04  -8.537463e+04
  -7.925609e+04  -8.329936e+04
  -4.311177e+04  -1.109326e+05
  -7.402442e+03  -8.641892e+04
  -2.141418e+04  -8.152104e+04
   2.287615e+04  -1.482315e+05
   1.672898e+05  -1.349252e+05
   2.093383e+05   4.759215e+04
   2.395286e+04   1.777326e+05
  -1.450361e+05   4.663506e+04
  -3.316811e+04  -1.510704e+05
   1.887522e+05  -9.824093e+04
   1.758795e+05   1.181491e+05
  -1.506633e+04   1.586908e+05
  -4.000832e+04   2.278690e+04
   1.070243e+05   3.917688e+04
   6.114607e+04   2.524682e+05
  -2.609124e+05   2.867739e+05
  -4.464949e+05  -3.631075e+04
  -2.131442e+05  -3.619379e+05
   1.498657e+05  -3.220062e+05
   2.320348e+05  -5.586824e+04
   7.580861e+04   7.424874e+04
  -1.130317e+04   2.375230e+04
   2.606075e+04  -2.408519e+03
   1.575710e+04   3.011058e+04
  -4.942712e+04  -1.495746e+04
  -6.790228e+03  -1.149309e+05
   1.373115e+05  -9.216405e+04
   1.848169e+05   6.449108e+04
   7.402992e+04   1.654819e+05
  -3.900664e+04   1.282360e+05
  -5.846648e+04   7.184138e+04
  -6.524036e+04   7.016432e+04
  -1.076303e+05   4.489090e+04
  -1.051157e+05  -3.584994e+04
  -3.572753e+04  -7.146460e+04
  -1.040582e+04  -2.735475e+04
  -6.432625e+04  -2.153298e+04
  -6.397994e+04  -1.066246e+05
   6.054619e+04  -1.450241e+05
   1.613666e+05  -3.304130e+04
   9.311317e+04   1.035329e+05
  -5.141260e+04   9.077286e+04
  -8.269214e+04  -3.255762e+04
   1.179306e+04  -9.329966e+04
   9.266387e+04  -3.876657e+04
   9.084383e+04   4.101730e+04
   4.906541e+04   8.453296e+04
  -4.645579e+03   1.002798e+05
  -7.141109e+04   7.692904e+04
  -1.008566e+05  -7.044147e+02
  -4.203382e+04  -6.525982e+04
   3.871571e+04  -3.335431e+04
   2.596645e+04   4.878602e+04
  -6.414739e+04   5.442098e+04
  -1.019304e+05  -3.129479e+04
  -4.289263e+04  -9.625813e+04
   2.564201e+04  -8.350449e+04
   4.801832e+04  -5.317816e+04
   6.852519e+04  -4.137692e+04
   1.021474e+05   1.750483e+03
   7.902905e+04   8.373203e+04
  -1.825742e+04   1.124143e+05
  -8.701453e+04   4.149314e+04
  -5.490429e+04  -3.829103e+04
   8.039843e+03  -3.758832e+04
   1.437680e+04   2.702652e+02
  -3.421754e+03  -1.702277e+03
   1.864346e+04  -1.605282e+04
   4.117503e+04   1.778652e+04
  -3.041029e+03   5.963738e+04
  -6.678185e+04   3.236223e+04
  -5.607861e+04  -3.139317e+04
   3.560511e+03  -3.830013e+04
   8.681247e+03  -1.742891e+02
  -3.618288e+04  -1.295683e+04
  -2.174077e+04  -7.672249e+04
   6.904833e+04  -7.942220e+04
   1.146349e+05   1.442963e+04
   4.761297e+04   9.333456e+04
  -3.860419e+04   7.043040e+04
  -4.329656e+04   8.308843e+03
  -5.448383e+03  -9.225465e+02
  -1.012961e+04   1.958041e+04
  -3.965477e+04  -6.727830e+02
  -2.341581e+04  -4.214254e+04
   2.457363e+04  -3.252689e+04
   2.866808e+04   2.066740e+04
  -1.694527e+04   3.869925e+04
  -4.122450e+04  -1.819843e+03
  -1.321952e+04  -4.129783e+04
   2.174736e+04  -3.672775e+04
   2.696409e+04  -1.126272e+04
   1.868487e+04   4.888932e+03
   1.394229e+04   1.519183e+04
   1.812409e+03   2.233779e+04
  -1.531298e+04   1.129337e+04
  -1.047805e+04  -1.271310e+04
   1.672552e+04  -1.729514e+04
   2.831861e+04   6.005374e+03
   7.830794e+03   2.528649e+04
  -1.442254e+04   2.015859e+04
  -1.575943e+04   9.300918e+03
  -1.390486e+04   8.591606e+03
  -2.236215e+04   3.443660e+03
  -2.050532e+04  -1.488571e+04
   1.989803e+03  -2.509110e+04
   1.546198e+04  -1.422100e+04
   7.119561e+02  -4.096072e+03
  -1.156853e+04  -1.118807e+04
   7.305930e+03  -1.506947e+04
   2.996129e+04   1.486621e+03
   1.863730e+04   1.521392e+04
  -6.806887e+03   2.859030e+03
  -2.028811e+03  -1.219858e+04
   2.329411e+04   2.007255e+03
   2.146256e+04   2.721497e+04
  -9.618723e+03   2.424567e+04
  -2.303137e+04   2.163043e+03
  -5.283012e+03   2.260326e+03
   1.672974e+03   2.223329e+04
  -2.296454e+04   1.660988e+04
  -3.932401e+04  -2.301214e+04
  -1.337225e+04  -4.741846e+04
   2.586355e+04  -2.643143e+04
   3.290695e+04   7.064636e+03
   1.218178e+04   1.514218e+04
  -2.426339e+03   9.171893e+03
  -5.213832e+03   1.288544e+04
  -1.255597e+04   1.295376e+04
  -1.902708e+04  -1.073317e+04
  -4.716139e+03  -3.574857e+04
   2.202761e+04  -2.544944e+04
   3.023088e+04   1.051789e+04
   1.359796e+04   2.899882e+04
  -3.086844e+03   1.769401e+04
  -5.835198e+03   4.529038e+03
  -6.374751e+03   6.123105e+03
  -1.162316e+04   8.232371e+03
  -1.128097e+04   1.264900e+03
  -4.230320e+03  -3.059071e+03
  -6.218323e+03  -3.052058e+02
  -1.848025e+04  -5.019787e+03
  -1.736148e+04  -2.049912e+04
   7.512344e+03  -2.607736e+04
   2.987137e+04  -1.033213e+04
   2.309968e+04   8.210749e+03
  -1.139912e+02   1.029970e+04
  -8.541825e+03   3.389982e+03
   1.808652e+03   2.363760e+03
   8.601565e+03   4.060088e+03
   1.445757e+03   7.628961e+02
  -6.804393e+03  -3.036108e+02
  -5.574230e+03   6.810014e+03
  -4.976084e+02   8.324134e+03
   1.519248e+03  -6.483495e+03
   2.836933e+03  -1.874006e+04
   5.215198e+03  -5.057719e+03
   3.589923e+03   2.087825e+04
  -4.113229e+03   2.362076e+04
  -1.118247e+04  -7.264544e+02
  -1.115747e+04  -1.916314e+04
  -5.095974e+03  -1.270801e+04
   2.737845e+03  -4.121266e+02
   9.047288e+03  -2.332188e+03
   1.024890e+04  -8.198278e+03
   5.038736e+03  -6.882009e+02
  -1.187367e+03   1.311652e+04
  -2.684701e+03   1.493938e+04
  -3.253004e+03   4.442617e+03
  -9.382213e+03  -5.445960e+03
  -1.477133e+04  -1.101034e+04
  -6.184606e+03  -1.574172e+04
   1.299773e+04  -1.471203e+04
   2.140547e+04  -1.548820e+03
   8.917258e+03   1.384062e+04
  -7.834499e+03   1.428665e+04
  -9.526864e+03   6.322401e+02
  -1.701842e+02  -9.505374e+03
   4.163034e+03  -7.665864e+03
   1.069070e+03  -2.287298e+03
  -4.763254e+01  -2.581265e+02
   2.397646e+03   1.484774e+03
   2.254675e+03   3.244695e+03
   1.168555e+03  -6.162657e+02
   5.960767e+03  -6.727761e+03
   1.164663e+04  -2.201671e+03
   5.391563e+03   1.254675e+04
  -1.033096e+04   1.759976e+04
  -1.646011e+04   2.445153e+03
  -5.093416e+03  -1.422795e+04
   7.748762e+03  -1.010645e+04
   5.833556e+03   6.983123e+03
  -4.946808e+03   1.071157e+04
  -8.911580e+03  -4.529264e+03
  -3.483760e+03  -1.729460e+04
   2.995464e+03  -1.209444e+04
   7.184021e+03   1.281181e+03
   1.046841e+04   6.991636e+03
   9.137841e+03   4.725114e+03
  -3.713691e+02   2.509571e+03
  -9.611170e+03   9.250821e+02
  -6.134902e+03  -3.294908e+03
   6.885509e+03  -5.963162e+03
   1.262945e+04  -5.363742e+02
   4.063453e+03   8.849505e+03
  -7.084768e+03   1.076165e+04
  -8.446581e+03   2.659918e+03
  -2.705026e+03  -5.587636e+03
   5.376155e+02  -5.940528e+03
  -7.373913e+02  -2.176069e+03
  -1.569301e+03  -2.188137e+03
   1.227544e+03  -5.889787e+03
   6.855508e+03  -5.870755e+03
   1.211763e+04   1.808957e+03
   1.117039e+04   1.168797e+04
  -8.233180e+00   1.453304e+04
  -1.449350e+04   7.191718e+03
  -1.730798e+04  -4.222005e+03
  -3.960043e+03  -1.060086e+04
   1.093842e+04  -8.211689e+03
   1.159108e+04  -4.776584e+02
   1.127418e+03   6.674800e+03
  -5.771292e+03   8.920753e+03
  -4.451792e+03   4.558110e+03
  -2.158104e+03  -3.966104e+03
  -1.878670e+03  -9.025813e+03
   9.622820e+02  -3.822233e+03
   5.040060e+03   7.600150e+03
   1.471281e+03   1.155629e+04
  -9.302236e+03   1.129637e+03
  -1.263216e+04  -1.273601e+04
