
 $NMID
 id='ANONYMOUS ', fmtdat='(2E16.6)'
 volume=1.0
 tramp=1.0
 $END
   4.767146e+07   6.341552e+05
   2.862112e+07   2.881990e+07
  -5.856826e+06   3.177396e+07
  -2.298364e+07   1.315504e+07
  -1.422447e+07  -4.901148e+06
   2.325555e+06  -7.892314e+06
   8.413029e+06   3.367257e+05
   2.960676e+06   8.123864e+06
  -4.817658e+06   8.557033e+06
  -8.232412e+06   2.216080e+06
  -6.140541e+06  -5.431391e+06
  -6.908707e+05  -7.691006e+06
   3.598057e+06  -2.268001e+06
   2.454658e+06   5.156728e+06
  -3.125582e+06   6.124566e+06
  -6.816387e+06  -8.895284e+05
  -3.993098e+06  -8.762040e+06
   3.137593e+06  -1.021683e+07
   8.692366e+06  -5.006031e+06
   9.172869e+06   2.000013e+06
   5.292031e+06   6.495336e+06
   2.689861e+05   7.053234e+06
  -2.242125e+06   4.719130e+06
  -8.291426e+05   2.362165e+06
   1.510788e+06   2.516004e+06
   3.981288e+04   4.250783e+06
  -5.364623e+06   3.891050e+06
  -8.936728e+06   7.474944e+04
  -6.139080e+06  -3.938601e+06
   2.512365e+05  -4.488144e+06
   3.789504e+06  -1.988512e+06
   2.250788e+06   5.279624e+05
  -1.099094e+06   1.316924e+06
  -2.755729e+06   3.919341e+05
  -2.167700e+06  -1.840745e+06
  -2.700199e+05  -3.931706e+06
   1.836406e+06  -3.249706e+06
   2.555100e+06   5.061684e+05
   1.041924e+06   3.197547e+06
  -7.718638e+05   1.189868e+06
  -8.269195e+04  -2.665801e+06
   2.297625e+06  -2.250246e+06
   2.227900e+06   2.669818e+06
  -1.776287e+06   5.213085e+06
  -5.536023e+06   8.962849e+05
  -4.206909e+06  -5.774150e+06
   1.531642e+06  -7.145248e+06
   6.365635e+06  -2.023925e+06
   6.286589e+06   3.875891e+06
   1.913880e+06   5.407693e+06
  -3.052874e+06   2.645790e+06
  -4.927228e+06  -1.129233e+06
  -2.459961e+06  -3.017558e+06
   1.951968e+06  -2.006703e+06
   3.963034e+06   6.795352e+05
   1.796239e+06   2.282092e+06
  -1.459192e+06   1.201029e+06
  -1.672833e+06  -8.691493e+05
   8.991366e+05  -9.706663e+05
   2.149055e+06   1.112308e+06
  -1.575417e+05   2.640175e+06
  -3.592337e+06   1.676734e+06
  -4.498516e+06  -8.919342e+05
  -2.099869e+06  -3.296635e+06
   1.701525e+06  -4.678868e+06
   4.760055e+06  -4.319036e+06
   5.683612e+06  -1.398019e+06
   3.961778e+06   3.021990e+06
   7.213886e+05   5.628046e+06
  -1.535054e+06   4.399475e+06
  -1.408091e+06   1.397723e+06
  -2.926019e+05   1.521721e+05
  -4.398329e+05   1.076316e+06
  -1.925555e+06   1.492476e+06
  -2.802164e+06  -1.481672e+05
  -1.834522e+06  -2.183458e+06
   2.057643e+05  -2.237008e+06
   1.745902e+06  -1.625570e+05
   1.724738e+06   2.164497e+06
  -7.395453e+04   2.886079e+06
  -2.697103e+06   1.432841e+06
  -4.072635e+06  -1.304011e+06
  -2.752543e+06  -3.479401e+06
   1.477018e+05  -3.675234e+06
   1.982967e+06  -2.287429e+06
   1.865673e+06  -1.019900e+06
   1.605028e+06  -7.459997e+05
   2.769205e+06  -5.742746e+05
   4.157324e+06   6.363700e+05
   3.376928e+06   2.608363e+06
   1.615110e+05   3.996660e+06
  -3.137438e+06   3.796151e+06
  -4.130749e+06   1.983136e+06
  -2.566320e+06  -5.516314e+05
  -1.201361e+05  -2.238009e+06
   1.194129e+06  -1.826418e+06
   5.378463e+05   8.911719e+04
  -1.104955e+06   1.256017e+06
  -1.819826e+06   3.683820e+05
  -8.238767e+05  -1.153464e+06
   5.511025e+05  -1.096441e+06
   5.081675e+05   3.523223e+05
  -8.768153e+05   8.105044e+05
  -1.771444e+06  -9.163333e+05
  -9.022857e+05  -3.129945e+06
   1.131386e+06  -3.423258e+06
   2.869343e+06  -1.449708e+06
   3.377978e+06   1.148907e+06
   2.463562e+06   2.701756e+06
   5.339163e+05   2.652895e+06
  -1.250320e+06   1.455039e+06
  -1.576693e+06   1.980414e+05
  -4.829913e+05  -4.392913e+04
   3.560542e+05   7.314697e+05
  -3.705970e+05   1.272641e+06
  -1.796141e+06   5.591419e+05
  -1.952406e+06  -8.034968e+05
  -4.079124e+05  -1.332361e+06
   1.126331e+06  -5.807004e+05
   9.235954e+05   4.304820e+05
  -7.822029e+05   5.951263e+05
  -2.198611e+06  -1.904002e+05
  -1.846835e+06  -1.305253e+06
   1.586347e+05  -2.013981e+06
   2.262599e+06  -1.701883e+06
   2.730393e+06  -3.009194e+05
   1.186228e+06   1.205890e+06
  -8.786211e+05   1.421100e+06
  -1.469897e+06   1.707803e+05
  -1.642421e+05  -1.029973e+06
   1.473575e+06  -7.134482e+05
   1.688831e+06   7.320631e+05
   3.880590e+05   1.606217e+06
  -1.017065e+06   1.009571e+06
  -1.242091e+06  -2.349172e+05
  -2.888236e+05  -7.384300e+05
   7.487913e+05  -6.265167e+04
   7.111724e+05   1.024157e+06
  -5.760590e+05   1.391229e+06
  -1.975893e+06   5.198410e+05
  -1.991309e+06  -1.035379e+06
  -3.808288e+05  -2.025585e+06
   1.387728e+06  -1.612629e+06
   1.681735e+06  -2.310654e+05
   5.153214e+05   8.367360e+05
  -6.306126e+05   8.029448e+05
  -6.522106e+05   7.749277e+04
   8.323661e+04  -4.057681e+05
   5.188359e+05  -2.682067e+05
   2.109843e+05   6.798417e+04
  -3.853028e+05  -2.712911e+03
  -5.297377e+05  -5.923254e+05
   1.554555e+05  -1.149764e+06
   1.335817e+06  -8.943691e+05
   2.043952e+06   3.906482e+05
   1.441947e+06   1.900367e+06
  -2.040503e+05   2.391487e+06
  -1.584456e+06   1.434912e+06
  -1.697872e+06  -8.150496e+04
  -9.122243e+05  -9.077657e+05
  -3.453096e+05  -7.296777e+05
  -4.286667e+05  -2.772681e+05
  -5.565996e+05  -2.912602e+05
  -7.936016e+04  -7.134713e+05
   8.372007e+05  -8.971566e+05
   1.429737e+06  -3.581375e+05
   1.079352e+06   7.108141e+05
  -2.056093e+05   1.481246e+06
  -1.689840e+06   1.097400e+06
  -2.231224e+06  -4.542454e+05
  -1.150120e+06  -2.047736e+06
   9.402549e+05  -2.321000e+06
   2.458601e+06  -1.051183e+06
   2.330370e+06   5.886158e+05
   1.011854e+06   1.302126e+06
  -1.553681e+05   9.835031e+05
  -4.146929e+05   5.614832e+05
  -1.492166e+05   7.439241e+05
  -1.394142e+05   1.244471e+06
  -6.465128e+05   1.233319e+06
  -1.249161e+06   3.035932e+05
  -1.309132e+06  -1.064195e+06
  -5.485831e+05  -1.865686e+06
   6.136421e+05  -1.417061e+06
   1.268465e+06  -1.218973e+04
   8.136699e+05   1.236409e+06
  -3.444857e+05   1.366416e+06
  -1.095900e+06   4.395628e+05
  -7.869509e+05  -6.192529e+05
   7.748673e+04  -1.016567e+06
   4.678258e+05  -7.717190e+05
   5.651728e+04  -4.292252e+05
  -4.188079e+05  -3.422554e+05
  -5.439400e+04  -3.828344e+05
   1.108729e+06  -2.157251e+05
   2.002106e+06   3.111309e+05
   1.591808e+06   9.948689e+05
  -1.501461e+03   1.381501e+06
  -1.520754e+06   1.111138e+06
  -1.783118e+06   3.026501e+05
  -8.285646e+05  -4.362594e+05
   2.394404e+05  -5.372324e+05
   4.886731e+05  -5.199697e+04
   1.466070e+04   3.890475e+05
  -4.500660e+05   2.499711e+05
  -4.700716e+05  -3.361946e+05
  -2.212570e+05  -7.241737e+05
  -6.643785e+04  -4.775554e+05
  -1.353955e+05   1.165699e+05
  -2.948906e+05   3.199128e+05
  -2.779675e+05  -2.231209e+05
   1.491977e+05  -9.848689e+05
   8.802782e+05  -1.047226e+06
   1.306390e+06  -1.523264e+05
   8.064510e+05   9.032081e+05
  -4.081175e+05   1.094625e+06
  -1.220424e+06   3.049829e+05
  -7.217329e+05  -5.717538e+05
   6.802018e+05  -6.464662e+05
   1.576030e+06   6.942781e+04
   1.033283e+06   8.328870e+05
  -4.401828e+05   9.971140e+05
  -1.477190e+06   5.206766e+05
  -1.239817e+06  -1.576918e+05
  -1.505157e+05  -5.111527e+05
   6.339776e+05  -2.813450e+05
   3.697100e+05   2.809893e+05
  -5.899229e+05   5.067070e+05
  -1.168586e+06  -9.474060e+04
  -6.459588e+05  -1.176730e+06
   6.033044e+05  -1.678838e+06
   1.477266e+06  -8.671475e+05
   1.245387e+06   7.520812e+05
   2.067500e+05   1.776894e+06
  -7.241768e+05   1.297096e+06
  -9.180356e+05  -1.540035e+05
  -4.478778e+05  -1.172164e+06
   1.908420e+05  -9.675707e+05
   5.483686e+05  -9.320173e+04
   4.778430e+05   3.720177e+05
   1.789132e+05   1.373458e+05
   4.083634e+04  -9.819490e+04
   2.544152e+05   2.845356e+05
   5.001690e+05   9.507111e+05
   2.130722e+05   1.066121e+06
  -6.838992e+05   3.936321e+05
  -1.465250e+06  -4.524302e+05
  -1.287876e+06  -8.180199e+05
  -1.881227e+05  -6.865100e+05
   8.563055e+05  -4.212357e+05
   9.771251e+05  -1.921378e+05
   3.443276e+05   4.507128e+04
  -1.482358e+05   2.239494e+05
  -1.720185e+04   2.071854e+05
   2.807106e+05   9.663833e+04
   4.519185e+04   1.340801e+05
  -6.714913e+05   2.361127e+05
  -1.035773e+06  -9.985832e+03
  -4.106273e+05  -6.860712e+05
   8.420280e+05  -1.166449e+06
   1.671586e+06  -7.465454e+05
   1.385246e+06   4.307419e+05
   2.768528e+05   1.394515e+06
  -7.484924e+05   1.361651e+06
  -1.038289e+06   5.310296e+05
  -6.547454e+05  -2.322356e+05
  -1.294366e+05  -3.555949e+05
   8.235591e+04  -6.240072e+04
  -7.363966e+04   2.419445e+04
  -3.044342e+05  -3.567772e+05
  -2.548416e+05  -7.972607e+05
   1.760470e+05  -6.723180e+05
   6.804267e+05   1.213725e+05
   7.354215e+05   9.460502e+05
   1.110333e+05   1.023825e+06
  -7.533463e+05   2.445343e+05
  -1.031184e+06  -7.149126e+05
  -3.477249e+05  -1.078233e+06
   7.050080e+05  -6.708057e+05
   1.105107e+06   6.927651e+04
   5.237417e+05   5.983144e+05
  -2.815913e+05   6.656880e+05
  -3.663934e+05   3.624421e+05
   2.541251e+05   6.570840e+03
   6.455965e+05  -4.394122e+04
   1.444549e+05   3.035752e+05
  -8.117264e+05   6.799682e+05
  -1.233988e+06   5.476893e+05
  -7.463041e+05  -1.671770e+05
   9.033482e+04  -8.591803e+05
   5.349633e+05  -8.465363e+05
   4.156365e+05  -1.554155e+05
   5.510259e+04   4.787846e+05
  -2.362699e+05   4.303233e+05
  -3.534823e+05  -1.483393e+05
  -2.560121e+05  -5.703378e+05
   5.275665e+04  -4.192265e+05
   3.888008e+05   4.334250e+04
   4.694623e+05   2.708486e+05
   2.390679e+05   8.983951e+04
  -3.010685e+04  -1.455222e+05
  -7.728796e+04  -3.309748e+04
   9.368471e+03   3.578498e+05
  -5.843753e+04   5.454600e+05
  -3.228823e+05   2.116086e+05
  -4.541593e+05  -3.816988e+05
  -1.527674e+05  -6.464381e+05
   4.055146e+05  -3.146501e+05
   6.597020e+05   2.757315e+05
   2.558700e+05   5.692727e+05
  -4.982531e+05   3.654635e+05
  -8.738076e+05  -7.011833e+04
  -4.770504e+05  -3.705221e+05
   2.894405e+05  -3.960108e+05
   6.325392e+05  -2.272648e+05
   2.449372e+05  -1.753744e+04
  -3.496474e+05   7.105563e+04
  -4.098118e+05  -6.250089e+04
   1.653958e+05  -2.958780e+05
   7.400611e+05  -2.809649e+05
