
 $NMID
 id='ANONYMOUS ', fmtdat='(2E16.6)'
 volume=1.0
 tramp=1.0
 $END
   2.113193e+07  -5.352542e+05
   1.435858e+07   9.241633e+06
   5.220708e+05   1.319112e+07
  -8.643660e+06   9.381068e+06
  -7.640480e+06   1.480931e+06
  -7.630659e+05  -3.750046e+06
   4.190353e+06  -2.292443e+06
   3.542751e+06   3.177984e+06
  -5.903181e+05   6.042048e+06
  -3.852273e+06   2.930417e+06
  -3.633396e+06  -2.659223e+06
  -6.400722e+05  -4.572553e+06
   2.099636e+06  -1.009722e+06
   1.907962e+06   3.788380e+06
  -1.008431e+06   4.579112e+06
  -3.578251e+06   6.331187e+05
  -2.892721e+06  -4.098590e+06
   7.231705e+05  -5.403588e+06
   4.015832e+06  -2.685110e+06
   4.209998e+06   1.167190e+06
   1.770386e+06   3.001088e+06
  -3.586852e+05   2.293511e+06
  -2.243534e+04   1.110942e+06
   1.855048e+06   1.493033e+06
   2.290706e+06   3.141607e+06
  -4.218719e+05   3.897926e+06
  -4.481812e+06   2.324544e+06
  -6.065388e+06  -6.501445e+05
  -3.349067e+06  -2.734855e+06
   1.240582e+06  -2.490284e+06
   3.367616e+06  -4.084521e+05
   1.354271e+06   1.688674e+06
  -2.203473e+06   1.998545e+06
  -3.551258e+06   6.499525e+04
  -1.799520e+06  -2.570046e+06
   7.169580e+05  -3.391402e+06
   1.537504e+06  -1.440041e+06
   5.620013e+05   1.245392e+06
  -5.498461e+05   1.624255e+06
  -5.126365e+05  -7.035887e+05
   5.435152e+05  -2.798770e+06
   1.582491e+06  -1.923666e+06
   1.585825e+06   1.009242e+06
   2.724407e+05   2.536790e+06
  -1.446441e+06   8.730610e+05
  -1.843894e+06  -2.068851e+06
   4.104275e+04  -3.074440e+06
   2.946791e+06  -1.158336e+06
   4.120417e+06   1.782603e+06
   2.071879e+06   3.228983e+06
  -1.597844e+06   2.309844e+06
  -3.627153e+06   1.289833e+05
  -2.397438e+06  -1.477352e+06
   5.216261e+05  -1.437640e+06
   2.191311e+06  -1.771412e+05
   1.343158e+06   8.897705e+05
  -6.041314e+05   7.309986e+05
  -1.356222e+06  -3.340349e+05
  -2.368000e+05  -1.068402e+06
   1.235949e+06  -6.580182e+05
   1.148770e+06   4.890630e+05
  -6.118290e+05   1.186033e+06
  -2.133523e+06   5.541200e+05
  -1.510625e+06  -1.191785e+06
   1.052212e+06  -2.760746e+06
   3.402231e+06  -2.679552e+06
   3.676877e+06  -6.005809e+05
   2.080187e+06   2.135738e+06
   3.144822e+05   3.580802e+06
  -4.065360e+05   3.059072e+06
  -3.865782e+05   1.734891e+06
  -6.291904e+05   1.078733e+06
  -1.493812e+06   1.095072e+06
  -2.359830e+06   5.748467e+05
  -2.344249e+06  -9.936580e+05
  -1.133489e+06  -2.425445e+06
   6.975066e+05  -2.121843e+06
   1.958580e+06  -4.358404e+04
   1.636667e+06   2.054277e+06
  -1.766270e+05   2.373197e+06
  -2.107420e+06   7.845946e+05
  -2.598303e+06  -1.251155e+06
  -1.396725e+06  -2.223979e+06
   2.235647e+05  -1.865310e+06
   9.056387e+05  -1.053283e+06
   7.039726e+05  -7.054407e+05
   8.386010e+05  -8.714323e+05
   1.981331e+06  -8.186921e+05
   3.168236e+06   1.174599e+05
   2.744500e+06   1.770401e+06
   3.379120e+05   3.131563e+06
  -2.423866e+06   3.108303e+06
  -3.382330e+06   1.483333e+06
  -1.982162e+06  -7.136577e+05
   2.209957e+05  -1.903047e+06
   1.192311e+06  -1.323182e+06
   3.932179e+05   1.866975e+05
  -9.470278e+05   9.728415e+05
  -1.332919e+06   3.065129e+05
  -5.070467e+05  -8.238348e+05
   5.214075e+05  -9.080969e+05
   6.493136e+05   2.064979e+05
  -2.787912e+05   1.032019e+06
  -1.398137e+06   1.946345e+05
  -1.558398e+06  -1.830869e+06
  -2.593350e+05  -3.090530e+06
   1.817518e+06  -2.213272e+06
   3.168476e+06   1.731237e+05
   2.679994e+06   2.146354e+06
   7.272249e+05   2.389455e+06
  -1.057559e+06   1.259025e+06
  -1.340003e+06   1.372906e+05
  -3.910694e+05  -1.750324e+04
   3.242891e+05   5.608423e+05
  -1.546247e+05   9.298316e+05
  -1.226639e+06   5.021334e+05
  -1.498972e+06  -3.927247e+05
  -4.674726e+05  -9.096384e+05
   8.237511e+05  -5.654909e+05
   8.979525e+05   2.772051e+05
  -4.871668e+05   7.416450e+05
  -1.959424e+06   2.432708e+05
  -1.903115e+06  -9.454686e+05
  -1.562169e+05  -1.862081e+06
   1.774209e+06  -1.661812e+06
   2.219148e+06  -4.214228e+05
   9.815621e+05   8.305234e+05
  -5.834751e+05   1.033542e+06
  -1.006511e+06   1.583653e+05
  -8.342038e+04  -7.307687e+05
   1.115208e+06  -5.994230e+05
   1.396095e+06   4.315896e+05
   5.317145e+05   1.245446e+06
  -6.379035e+05   1.003116e+06
  -1.044594e+06   5.691882e+04
  -4.017305e+05  -5.100750e+05
   5.031395e+05  -1.086651e+05
   5.701855e+05   7.643158e+05
  -4.454214e+05   1.109151e+06
  -1.577059e+06   4.411551e+05
  -1.608252e+06  -7.768299e+05
  -3.866245e+05  -1.580566e+06
   9.842392e+05  -1.346476e+06
   1.310920e+06  -3.184878e+05
   5.130467e+05   6.113953e+05
  -4.328072e+05   7.118158e+05
  -6.077111e+05   8.664393e+04
  -3.170684e+04  -4.824374e+05
   5.245148e+05  -4.054464e+05
   4.292791e+05   7.856049e+04
  -1.702077e+05   2.306513e+05
  -5.224874e+05  -2.704955e+05
  -5.317463e+04  -8.949137e+05
   9.849858e+05  -8.113968e+05
   1.657356e+06   2.004306e+05
   1.231056e+06   1.456495e+06
  -6.460660e+04   1.971707e+06
  -1.234072e+06   1.345849e+06
  -1.491863e+06   1.042736e+05
  -9.617704e+05  -7.980110e+05
  -3.784112e+05  -8.446832e+05
  -2.231398e+05  -3.795846e+05
  -2.889699e+05  -1.552479e+05
  -6.560728e+04  -4.620500e+05
   5.808546e+05  -7.907085e+05
   1.170835e+06  -4.460892e+05
   1.032695e+06   5.547802e+05
  -1.291251e+04   1.348472e+06
  -1.331604e+06   1.066587e+06
  -1.883328e+06  -2.388953e+05
  -1.103543e+06  -1.574521e+06
   5.276696e+05  -1.902573e+06
   1.838937e+06  -1.048771e+06
   1.972572e+06   2.278233e+05
   1.076220e+06   9.950291e+05
   3.249966e+04   9.697006e+05
  -4.263399e+05   6.350547e+05
  -3.109085e+05   5.972227e+05
  -1.749026e+05   8.806764e+05
  -4.378407e+05   9.205324e+05
  -9.293618e+05   2.607345e+05
  -1.070521e+06  -8.237212e+05
  -5.020399e+05  -1.498288e+06
   4.597743e+05  -1.173710e+06
   1.040305e+06  -9.131716e+04
   7.469689e+05   9.002767e+05
  -1.156646e+05   1.105721e+06
  -7.403225e+05   5.238607e+05
  -6.403861e+05  -2.740835e+05
  -1.103785e+05  -7.118929e+05
   1.750805e+05  -6.613012e+05
  -4.435622e+04  -4.165702e+05
  -3.224848e+05  -2.997895e+05
  -3.888882e+04  -3.247153e+05
   8.287037e+05  -2.401708e+05
   1.548979e+06   1.380169e+05
   1.325922e+06   6.814742e+05
   1.573692e+05   1.034206e+06
  -1.063000e+06   9.209648e+05
  -1.383613e+06   3.939100e+05
  -7.227923e+05  -1.763867e+05
   1.184091e+05  -3.765293e+05
   3.535683e+05  -1.184207e+05
  -1.951069e+04   2.316972e+05
  -4.022120e+05   1.962875e+05
  -3.769824e+05  -2.584270e+05
  -1.024952e+05  -6.132687e+05
   2.672641e+04  -3.956984e+05
  -1.147662e+05   1.729348e+05
  -3.046879e+05   3.639724e+05
  -2.538082e+05  -1.579063e+05
   1.345679e+05  -8.429040e+05
   6.700091e+05  -8.624143e+05
   9.326953e+05  -9.747814e+04
   5.639268e+05   7.115642e+05
  -2.945551e+05   8.041688e+05
  -9.114510e+05   1.874241e+05
  -5.915552e+05  -4.727599e+05
   4.996575e+05  -5.718563e+05
   1.329429e+06  -6.623394e+04
   1.014152e+06   6.039820e+05
  -2.115298e+05   9.139229e+05
  -1.206250e+06   6.337172e+05
  -1.110580e+06   2.677552e+03
  -1.990841e+05  -4.342833e+05
   4.910532e+05  -3.049582e+05
   2.759660e+05   1.823309e+05
  -5.143734e+05   3.834008e+05
  -9.477056e+05  -1.171085e+05
  -4.703275e+05  -9.820691e+05
   5.529778e+05  -1.352070e+06
   1.235893e+06  -6.846853e+05
   1.038871e+06   6.166722e+05
   2.126073e+05   1.475702e+06
  -5.519085e+05   1.146223e+06
  -7.775807e+05  -2.757145e+04
  -4.787408e+05  -9.368157e+05
   3.215848e+04  -8.509353e+05
   4.195137e+05  -1.332033e+05
   4.722102e+05   3.033638e+05
   2.256905e+05   1.284374e+05
   1.417872e+03  -1.042947e+05
   1.120625e+05   1.778470e+05
   4.029403e+05   7.446252e+05
   3.005200e+05   8.843586e+05
  -4.472505e+05   3.605111e+05
  -1.236095e+06  -3.264302e+05
  -1.171399e+06  -6.285496e+05
  -1.871983e+05  -5.406636e+05
   7.650528e+05  -3.672621e+05
   8.249270e+05  -2.183098e+05
   2.213909e+05  -1.629718e+04
  -1.441103e+05   1.816414e+05
   8.031967e+04   2.122722e+05
   3.274802e+05   1.191533e+05
   4.506866e+03   1.155807e+05
  -6.456873e+05   1.782526e+05
  -8.387489e+05  -1.157380e+04
  -2.162505e+05  -5.410184e+05
   7.530461e+05  -9.222026e+05
   1.292186e+06  -5.796815e+05
   1.031413e+06   3.782603e+05
   2.210999e+05   1.153965e+06
  -5.597964e+05   1.100341e+06
  -8.390965e+05   3.941398e+05
  -5.560527e+05  -2.276910e+05
  -7.350827e+04  -2.880755e+05
   1.473663e+05  -6.436444e+02
  -2.831661e+04   8.290281e+04
  -2.990787e+05  -2.566555e+05
  -2.625609e+05  -6.459427e+05
   1.497794e+05  -5.348863e+05
   5.791578e+05   1.473111e+05
   5.676099e+05   8.226717e+05
   9.865705e+03   8.291811e+05
  -6.689099e+05   1.292696e+05
  -8.302141e+05  -6.482171e+05
  -2.451108e+05  -8.735636e+05
   5.818717e+05  -4.963120e+05
   8.628792e+05   6.459050e+04
   3.869203e+05   4.221653e+05
  -2.153853e+05   4.694945e+05
  -2.220918e+05   2.818067e+05
   2.882336e+05   2.936657e+04
   5.490241e+05  -3.463107e+04
   9.540831e+04   2.314422e+05
  -6.521865e+05   5.817811e+05
  -9.305759e+05   5.277610e+05
  -5.325133e+05  -6.370647e+04
   6.745233e+04  -6.731707e+05
   3.549063e+05  -6.670983e+05
   2.600123e+05  -7.403061e+04
   1.157553e+04   4.250882e+05
  -2.029859e+05   3.131188e+05
  -2.982869e+05  -1.867039e+05
  -2.069964e+05  -4.659023e+05
   5.813678e+04  -2.791811e+05
   3.166317e+05   6.115742e+04
   3.615997e+05   1.653784e+05
   1.948470e+05   2.516875e+04
   1.111070e+04  -6.360167e+04
  -5.892296e+04   9.027310e+04
  -8.525933e+04   3.419268e+05
  -1.839022e+05   3.727331e+05
  -3.106939e+05   4.801625e+04
  -2.840162e+05  -3.946870e+05
  -6.383903e+03  -5.422539e+05
   3.654274e+05  -2.281886e+05
   4.965641e+05   2.666140e+05
   1.804263e+05   4.927602e+05
  -3.815473e+05   2.939580e+05
  -6.737609e+05  -8.025488e+04
  -3.733634e+05  -2.995848e+05
   2.335696e+05  -2.732170e+05
   4.971766e+05  -1.264414e+05
   1.437173e+05  -3.934244e+03
  -3.665589e+05   6.462855e+03
  -3.698544e+05  -1.262940e+05
   1.953734e+05  -2.945430e+05
   7.092136e+05  -2.390399e+05
