
 $NMID
 id='ANONYMOUS ', fmtdat='(2E16.6)'
 volume=1.0
 tramp=1.0
 $END
   5.438922e+07   2.236496e+06
   3.149136e+07   3.439507e+07
  -8.212301e+06   3.626771e+07
  -2.689282e+07   1.366675e+07
  -1.582663e+07  -6.711755e+06
   3.203658e+06  -8.908711e+06
   9.476663e+06   1.064691e+06
   2.730438e+06   9.408454e+06
  -5.998194e+06   9.189447e+06
  -9.403433e+06   1.934049e+06
  -6.706565e+06  -6.318080e+06
  -5.363252e+05  -8.593168e+06
   4.083107e+06  -2.520719e+06
   2.536513e+06   5.639045e+06
  -3.782310e+06   6.533174e+06
  -7.636507e+06  -1.406268e+06
  -4.085276e+06  -1.007102e+07
   4.017909e+06  -1.140040e+07
   1.005651e+07  -5.367602e+06
   1.040419e+07   2.508251e+06
   5.971643e+06   7.566827e+06
   1.858304e+05   8.242210e+06
  -2.906762e+06   5.517701e+06
  -1.464364e+06   2.568125e+06
   1.341036e+06   2.494509e+06
   3.397702e+04   4.452370e+06
  -5.801973e+06   4.195331e+06
  -9.795650e+06   4.283934e+03
  -6.803582e+06  -4.458189e+06
   1.589620e+05  -5.041938e+06
   4.042514e+06  -2.300368e+06
   2.506196e+06   3.590866e+05
  -9.285678e+05   1.211935e+06
  -2.697824e+06   4.164183e+05
  -2.279668e+06  -1.821661e+06
  -3.756812e+05  -4.200597e+06
   2.061354e+06  -3.676031e+06
   3.044616e+06   4.585379e+05
   1.311129e+06   3.656740e+06
  -8.940019e+05   1.584117e+06
  -1.526150e+05  -2.730674e+06
   2.568691e+06  -2.322979e+06
   2.355723e+06   3.141165e+06
  -2.374941e+06   5.843235e+06
  -6.535182e+06   7.623887e+05
  -4.636770e+06  -6.798821e+06
   2.075638e+06  -8.112972e+06
   7.289981e+06  -2.075954e+06
   6.796423e+06   4.570936e+06
   1.796800e+06   6.047757e+06
  -3.496887e+06   2.718127e+06
  -5.303480e+06  -1.532272e+06
  -2.477886e+06  -3.481154e+06
   2.337677e+06  -2.142593e+06
   4.420471e+06   9.649388e+05
   1.894014e+06   2.677615e+06
  -1.697538e+06   1.301040e+06
  -1.771106e+06  -1.039617e+06
   1.162584e+06  -9.569320e+05
   2.356892e+06   1.546455e+06
  -4.906976e+05   3.128000e+06
  -4.331801e+06   1.713736e+06
  -5.074805e+06  -1.334988e+06
  -2.184430e+06  -3.873490e+06
   2.020621e+06  -5.158751e+06
   5.305657e+06  -4.650750e+06
   6.304135e+06  -1.442764e+06
   4.380494e+06   3.408072e+06
   6.749107e+05   6.238508e+06
  -1.924590e+06   4.765810e+06
  -1.694520e+06   1.337041e+06
  -2.417065e+05  -3.467136e+04
  -2.712790e+05   1.097032e+06
  -1.934817e+06   1.676754e+06
  -2.979805e+06  -4.969014e+04
  -1.988407e+06  -2.247574e+06
   1.576845e+05  -2.333096e+06
   1.761367e+06  -1.633027e+05
   1.752546e+06   2.287920e+06
  -1.200387e+05   3.079897e+06
  -2.937252e+06   1.544178e+06
  -4.465579e+06  -1.463426e+06
  -3.016197e+06  -3.919948e+06
   2.441010e+05  -4.151109e+06
   2.330788e+06  -2.545790e+06
   2.186630e+06  -1.054507e+06
   1.824065e+06  -6.954927e+05
   3.019211e+06  -4.687604e+05
   4.458527e+06   8.682497e+05
   3.536492e+06   2.941574e+06
   3.125502e+04   4.292182e+06
  -3.469521e+06   3.967926e+06
  -4.458951e+06   2.042517e+06
  -2.754650e+06  -5.970950e+05
  -1.413093e+05  -2.380354e+06
   1.277476e+06  -1.963207e+06
   5.865039e+05   7.939971e+04
  -1.196259e+06   1.326932e+06
  -1.981146e+06   3.541126e+05
  -8.889143e+05  -1.274235e+06
   5.940307e+05  -1.163000e+06
   4.870670e+05   3.924408e+05
  -1.030017e+06   7.634794e+05
  -1.859118e+06  -1.204675e+06
  -7.132003e+05  -3.494470e+06
   1.520531e+06  -3.554598e+06
   3.189636e+06  -1.266293e+06
   3.489282e+06   1.459789e+06
   2.432216e+06   2.951824e+06
   4.492130e+05   2.797918e+06
  -1.365094e+06   1.508708e+06
  -1.681260e+06   1.788176e+05
  -5.170713e+05  -6.291092e+04
   3.561799e+05   7.934355e+05
  -4.530561e+05   1.367434e+06
  -1.974177e+06   5.444263e+05
  -2.081890e+06  -9.517017e+05
  -3.820809e+05  -1.462023e+06
   1.225662e+06  -5.768275e+05
   9.432935e+05   4.862746e+05
  -8.717057e+05   5.562065e+05
  -2.297712e+06  -3.359900e+05
  -1.855951e+06  -1.454942e+06
   2.718128e+05  -2.096262e+06
   2.466366e+06  -1.705980e+06
   2.922986e+06  -2.210481e+05
   1.236160e+06   1.346164e+06
  -9.978150e+05   1.521710e+06
  -1.612475e+06   1.444568e+05
  -1.631308e+05  -1.124103e+06
   1.604134e+06  -7.233223e+05
   1.780069e+06   8.517337e+05
   3.360791e+05   1.733448e+06
  -1.141806e+06   1.018624e+06
  -1.310936e+06  -3.235598e+05
  -2.619178e+05  -8.066245e+05
   8.131908e+05  -3.602982e+04
   7.296300e+05   1.119421e+06
  -6.540551e+05   1.468911e+06
  -2.124939e+06   4.988532e+05
  -2.100017e+06  -1.167669e+06
  -3.412530e+05  -2.184198e+06
   1.549198e+06  -1.681093e+06
   1.814057e+06  -1.822228e+05
   5.162690e+05   9.171759e+05
  -7.030733e+05   8.319514e+05
  -6.820639e+05   6.898672e+04
   1.126386e+05  -3.940442e+05
   5.322793e+05  -2.360922e+05
   1.693972e+05   6.647303e+04
  -4.358055e+05  -6.595469e+04
  -5.257331e+05  -6.891409e+05
   2.349207e+05  -1.227702e+06
   1.468743e+06  -9.000440e+05
   2.170437e+06   4.936264e+05
   1.477634e+06   2.082864e+06
  -2.977690e+05   2.543607e+06
  -1.736570e+06   1.459239e+06
  -1.789233e+06  -1.606903e+05
  -9.129891e+05  -9.797828e+05
  -3.379329e+05  -7.413341e+05
  -4.777059e+05  -2.824786e+05
  -6.146936e+05  -3.466064e+05
  -5.960310e+04  -7.883215e+05
   9.398416e+05  -9.210158e+05
   1.532992e+06  -3.104724e+05
   1.101241e+06   7.930447e+05
  -2.887138e+05   1.545554e+06
  -1.839289e+06   1.090508e+06
  -2.354489e+06  -5.681961e+05
  -1.141084e+06  -2.229387e+06
   1.107848e+06  -2.445641e+06
   2.678775e+06  -1.019890e+06
   2.454895e+06   7.331574e+05
   9.995735e+05   1.422836e+06
  -2.167611e+05   1.010879e+06
  -4.365414e+05   5.575157e+05
  -1.428236e+05   7.973758e+05
  -1.721512e+05   1.353530e+06
  -7.409515e+05   1.315689e+06
  -1.358635e+06   2.880594e+05
  -1.369664e+06  -1.178081e+06
  -5.279685e+05  -2.009389e+06
   6.978593e+05  -1.493717e+06
   1.351138e+06   3.348795e+04
   8.187573e+05   1.358674e+06
  -4.338835e+05   1.447798e+06
  -1.205578e+06   4.063141e+05
  -8.179535e+05  -7.250804e+05
   1.449385e+05  -1.100635e+06
   5.567238e+05  -7.998410e+05
   8.560568e+04  -4.425090e+05
  -4.424108e+05  -3.749735e+05
  -4.809741e+04  -4.091734e+05
   1.203202e+06  -1.860180e+05
   2.142480e+06   4.104639e+05
   1.664988e+06   1.127443e+06
  -6.931849e+04   1.486626e+06
  -1.685155e+06   1.139018e+06
  -1.921407e+06   2.489347e+05
  -8.598784e+05  -5.183020e+05
   2.863707e+05  -5.767214e+05
   5.296908e+05  -2.684467e+04
   7.270315e+03   4.344527e+05
  -4.834958e+05   2.586285e+05
  -4.952901e+05  -3.759054e+05
  -2.322658e+05  -7.797568e+05
  -7.373005e+04  -5.142842e+05
  -1.453599e+05   1.062378e+05
  -3.079454e+05   3.155959e+05
  -2.826328e+05  -2.507937e+05
   1.844940e+05  -1.040931e+06
   9.771449e+05  -1.090189e+06
   1.423835e+06  -1.268052e+05
   8.531852e+05   9.944814e+05
  -4.754585e+05   1.173367e+06
  -1.330327e+06   3.015192e+05
  -7.563691e+05  -6.295079e+05
   7.532686e+05  -6.635194e+05
   1.671587e+06   1.369701e+05
   1.048686e+06   9.262577e+05
  -5.212044e+05   1.031220e+06
  -1.585759e+06   4.792790e+05
  -1.298167e+06  -2.219196e+05
  -1.341850e+05  -5.444102e+05
   6.863985e+05  -2.697423e+05
   3.904636e+05   3.184805e+05
  -6.381914e+05   5.320645e+05
  -1.248250e+06  -1.246326e+05
  -6.706239e+05  -1.272428e+06
   6.785044e+05  -1.784482e+06
   1.597795e+06  -8.938585e+05
   1.308266e+06   8.356824e+05
   1.673065e+05   1.899424e+06
  -8.124453e+05   1.350387e+06
  -9.684015e+05  -2.057460e+05
  -4.262873e+05  -1.263850e+06
   2.493216e+05  -1.012625e+06
   5.907341e+05  -7.327503e+04
   4.855190e+05   4.068261e+05
   1.736896e+05   1.449038e+05
   5.089454e+04  -9.871462e+04
   2.794784e+05   3.239892e+05
   5.097636e+05   1.034916e+06
   1.781523e+05   1.137756e+06
  -7.596761e+05   3.917425e+05
  -1.545915e+06  -5.281917e+05
  -1.332214e+06  -9.109619e+05
  -1.757807e+05  -7.413085e+05
   9.141489e+05  -4.260590e+05
   1.042388e+06  -1.694870e+05
   3.756117e+05   6.936203e+04
  -1.600765e+05   2.371194e+05
  -3.934510e+04   2.102021e+05
   2.806215e+05   9.967750e+04
   5.022597e+04   1.440411e+05
  -7.068516e+05   2.405627e+05
  -1.107785e+06  -3.754172e+04
  -4.414645e+05  -7.520499e+05
   9.199576e+05  -1.232839e+06
   1.820771e+06  -7.567293e+05
   1.488529e+06   4.962603e+05
   2.604739e+05   1.495598e+06
  -8.459910e+05   1.435420e+06
  -1.126692e+06   5.463330e+05
  -6.906295e+05  -2.578520e+05
  -1.342913e+05  -3.845910e+05
   7.706398e+04  -7.637719e+04
  -8.265262e+04   1.118833e+04
  -3.052694e+05  -3.935021e+05
  -2.414287e+05  -8.570267e+05
   2.046728e+05  -7.164050e+05
   7.211848e+05   1.376134e+05
   7.692559e+05   1.022254e+06
   1.064727e+05   1.101694e+06
  -8.047907e+05   2.566682e+05
  -1.088395e+06  -7.801863e+05
  -3.500130e+05  -1.164678e+06
   7.723880e+05  -7.078903e+05
   1.186705e+06   1.035172e+05
   5.483192e+05   6.667113e+05
  -3.241249e+05   7.162910e+05
  -4.150353e+05   3.769079e+05
   2.584773e+05   6.410325e+03
   6.874580e+05  -3.068415e+04
   1.496686e+05   3.323464e+05
  -8.864709e+05   7.004092e+05
  -1.344136e+06   5.356162e+05
  -8.044546e+05  -2.144464e+05
   1.212927e+05  -9.210857e+05
   6.098943e+05  -8.920193e+05
   4.648767e+05  -1.613576e+05
   5.355588e+04   5.086531e+05
  -2.638413e+05   4.609863e+05
  -3.749218e+05  -1.559230e+05
  -2.589636e+05  -6.165490e+05
   6.729938e+04  -4.586987e+05
   4.156941e+05   5.188162e+04
   4.965055e+05   3.126752e+05
   2.514595e+05   1.110634e+05
  -3.254018e+04  -1.675425e+05
  -7.784328e+04  -5.859000e+04
   1.929715e+04   3.775644e+05
  -5.526556e+04   6.001190e+05
  -3.473788e+05   2.420684e+05
  -4.944507e+05  -4.086303e+05
  -1.680330e+05  -6.973138e+05
   4.368922e+05  -3.321309e+05
   7.070950e+05   3.065523e+05
   2.645531e+05   6.114238e+05
  -5.470346e+05   3.771859e+05
  -9.402065e+05  -9.549198e+04
  -5.029997e+05  -4.097710e+05
   3.222097e+05  -4.246861e+05
   6.880416e+05  -2.363759e+05
   2.731090e+05  -1.197083e+04
  -3.629634e+05   7.952373e+04
  -4.332750e+05  -6.241699e+04
   1.714111e+05  -3.049008e+05
   7.792739e+05  -2.835405e+05
