
 $NMID
 id='ANONYMOUS ', fmtdat='(2E16.6)'
 volume=1.0
 tramp=1.0
 $END
  -1.711922e+07  -1.057477e+05
  -1.140776e+07  -8.279540e+06
   1.737626e+05  -1.094958e+07
   7.567896e+06  -7.059735e+06
   6.254080e+06  -5.203537e+05
   3.057568e+05   3.120347e+06
  -3.522851e+06   1.444509e+06
  -2.553298e+06  -2.823841e+06
   9.214177e+05  -4.690541e+06
   3.263385e+06  -2.040643e+06
   2.753325e+06   2.248723e+06
   3.100812e+05   3.586858e+06
  -1.658480e+06   7.391877e+05
  -1.275316e+06  -2.970395e+06
   1.065058e+06  -3.477232e+06
   2.896169e+06  -2.812974e+05
   2.102869e+06   3.409050e+06
  -8.273466e+05   4.280262e+06
  -3.304339e+06   2.016689e+06
  -3.338356e+06  -1.005824e+06
  -1.426178e+06  -2.410664e+06
   2.324091e+05  -1.914006e+06
   9.963004e+04  -1.069058e+06
  -1.175653e+06  -1.320332e+06
  -1.472137e+06  -2.437410e+06
   4.876318e+05  -2.872853e+06
   3.452209e+06  -1.588578e+06
   4.593733e+06   6.946297e+05
   2.513867e+06   2.199172e+06
  -9.505818e+05   1.860290e+06
  -2.501157e+06   2.164161e+05
  -9.311039e+05  -1.240575e+06
   1.700145e+06  -1.298752e+06
   2.584791e+06   1.460268e+05
   1.194605e+06   1.953013e+06
  -6.489169e+05   2.476471e+06
  -1.185596e+06   1.086191e+06
  -4.345070e+05  -8.635112e+05
   3.705537e+05  -1.216217e+06
   3.065785e+05   4.423584e+05
  -5.233951e+05   2.021750e+06
  -1.304754e+06   1.376357e+06
  -1.197822e+06  -9.044767e+05
  -2.748618e+04  -2.089913e+06
   1.334040e+06  -6.777169e+05
   1.477620e+06   1.766028e+06
  -1.667721e+05   2.530366e+06
  -2.403526e+06   8.358723e+05
  -3.127394e+06  -1.595535e+06
  -1.410914e+06  -2.623053e+06
   1.376693e+06  -1.681740e+06
   2.796713e+06   1.319032e+05
   1.739809e+06   1.303872e+06
  -5.262406e+05   1.104982e+06
  -1.750142e+06   1.376799e+04
  -1.007037e+06  -7.944744e+05
   5.209769e+05  -5.568040e+05
   1.017849e+06   3.411007e+05
   5.474040e+04   8.296291e+05
  -1.046278e+06   3.512206e+05
  -8.122513e+05  -5.727879e+05
   6.615611e+05  -9.503259e+05
   1.772979e+06  -2.815257e+05
   1.141311e+06   1.059624e+06
  -9.115723e+05   2.106579e+06
  -2.692865e+06   1.924167e+06
  -2.841202e+06   3.420202e+05
  -1.548747e+06  -1.691687e+06
  -1.151580e+05  -2.767446e+06
   4.905928e+05  -2.344593e+06
   4.422606e+05  -1.272624e+06
   5.297448e+05  -7.070596e+05
   1.109709e+06  -7.030001e+05
   1.732582e+06  -3.373225e+05
   1.686521e+06   8.051758e+05
   7.408069e+05   1.827698e+06
  -6.023139e+05   1.528908e+06
  -1.440310e+06  -7.218132e+04
  -1.110497e+06  -1.614411e+06
   2.398311e+05  -1.774052e+06
   1.618450e+06  -5.177990e+05
   1.937332e+06   1.031163e+06
   1.019415e+06   1.753702e+06
  -2.147752e+05   1.463204e+06
  -7.518545e+05   8.245402e+05
  -6.119351e+05   5.315510e+05
  -7.114435e+05   6.142096e+05
  -1.559869e+06   5.084839e+05
  -2.406994e+06  -2.579807e+05
  -1.993969e+06  -1.486496e+06
  -9.595019e+04  -2.389030e+06
   1.982257e+06  -2.228492e+06
   2.612450e+06  -9.636306e+05
   1.457421e+06   6.118002e+05
  -2.392339e+05   1.407525e+06
  -9.421519e+05   9.430357e+05
  -2.869185e+05  -1.511041e+05
   7.553044e+05  -6.896217e+05
   1.029014e+06  -1.714386e+05
   3.568945e+05   6.474238e+05
  -4.326449e+05   6.560432e+05
  -4.672947e+05  -1.995834e+05
   2.993487e+05  -7.545856e+05
   1.095898e+06  -2.105864e+04
   1.056418e+06   1.525893e+06
  -3.821579e+04   2.358302e+06
  -1.540964e+06   1.530132e+06
  -2.374988e+06  -3.441919e+05
  -1.873753e+06  -1.769342e+06
  -4.074405e+05  -1.828657e+06
   8.561943e+05  -8.914405e+05
   1.011240e+06  -3.893335e+04
   2.942978e+05   3.310431e+04
  -2.165927e+05  -4.413689e+05
   1.668483e+05  -7.049195e+05
   9.648900e+05  -3.244401e+05
   1.124976e+06   3.815910e+05
   3.056484e+05   7.238245e+05
  -6.569406e+05   3.842422e+05
  -6.568011e+05  -2.610493e+05
   4.196925e+05  -5.241461e+05
   1.489165e+06  -5.928901e+04
   1.366466e+06   8.229375e+05
   3.529654e+03   1.404758e+06
  -1.428670e+06   1.151436e+06
  -1.697367e+06   2.001534e+05
  -7.033875e+05  -6.829006e+05
   4.935786e+05  -7.629341e+05
   7.788062e+05  -7.591629e+04
   3.472050e+04   5.601045e+05
  -8.748115e+05   4.000134e+05
  -1.035056e+06  -4.030707e+05
  -3.290699e+05  -9.746853e+05
   5.467962e+05  -7.197219e+05
   7.957899e+05   2.423741e+04
   2.706473e+05   4.151833e+05
  -3.931153e+05   5.826052e+04
  -3.964372e+05  -6.066958e+05
   3.884941e+05  -8.165933e+05
   1.211134e+06  -2.573753e+05
   1.177219e+06   6.653156e+05
   2.131498e+05   1.215710e+06
  -8.160574e+05   9.696514e+05
  -1.010602e+06   1.704931e+05
  -3.533983e+05  -4.929781e+05
   3.673367e+05  -5.146572e+05
   4.581405e+05  -3.218047e+04
  -1.005603e+04   3.587411e+05
  -4.137884e+05   2.655290e+05
  -3.025780e+05  -8.621301e+04
   1.554806e+05  -1.554351e+05
   3.814185e+05   2.447350e+05
  -1.256626e+04   6.846144e+05
  -7.893621e+05   5.620901e+05
  -1.242658e+06  -2.370194e+05
  -8.569416e+05  -1.162978e+06
   1.500316e+05  -1.483349e+06
   1.002993e+06  -9.449721e+05
   1.126890e+06   7.308890e+03
   6.699017e+05   6.503160e+05
   2.298903e+05   6.412475e+05
   1.527327e+05   2.823602e+05
   2.232781e+05   1.302422e+05
   3.124635e+04   3.582673e+05
  -4.831560e+05   5.668543e+05
  -9.069866e+05   2.700828e+05
  -7.418076e+05  -4.731122e+05
   8.834973e+04  -1.010380e+06
   1.061628e+06  -7.300704e+05
   1.406645e+06   2.800018e+05
   7.484512e+05   1.249582e+06
  -5.034975e+05   1.414648e+06
  -1.451522e+06   6.952122e+05
  -1.478078e+06  -2.842103e+05
  -7.490021e+05  -8.132103e+05
   3.752523e+04  -7.262660e+05
   3.515403e+05  -4.435500e+05
   2.502454e+05  -4.291007e+05
   1.654568e+05  -6.611837e+05
   3.765182e+05  -6.805163e+05
   7.182880e+05  -1.540526e+05
   7.679497e+05   6.741881e+05
   3.037645e+05   1.155341e+06
  -4.054170e+05   8.619889e+05
  -7.900352e+05   1.376480e+04
  -5.177884e+05  -7.231012e+05
   1.500631e+05  -8.330375e+05
   5.976521e+05  -3.537411e+05
   4.768646e+05   2.514494e+05
   4.207927e+04   5.544431e+05
  -1.774850e+05   4.944695e+05
   5.482296e+03   3.146086e+05
   2.288294e+05   2.390555e+05
   1.366482e+04   2.451789e+05
  -6.421071e+05   1.396830e+05
  -1.168539e+06  -1.822399e+05
  -9.682889e+05  -5.854113e+05
  -6.231624e+04  -7.973525e+05
   8.558970e+05  -6.476912e+05
   1.069949e+06  -2.235345e+05
   5.388758e+05   1.802681e+05
  -1.098717e+05   2.842488e+05
  -2.771746e+05   6.897925e+04
   2.096642e+04  -1.776578e+05
   3.096765e+05  -1.276207e+05
   2.722379e+05   2.133784e+05
   5.186632e+04   4.624039e+05
  -3.420148e+04   2.934532e+05
   9.693792e+04  -1.195847e+05
   2.460669e+05  -2.508564e+05
   1.825831e+05   1.331381e+05
  -1.419402e+05   6.249289e+05
  -5.486130e+05   6.183482e+05
  -7.140706e+05   3.521493e+04
  -3.972817e+05  -5.608528e+05
   2.594715e+05  -5.981294e+05
   6.981739e+05  -1.042251e+05
   4.222349e+05   3.838406e+05
  -4.084498e+05   4.055889e+05
  -1.005249e+06  -2.297954e+04
  -7.262499e+05  -5.136599e+05
   2.156130e+05  -6.764430e+05
   9.452803e+05  -4.061554e+05
   8.343362e+05   6.266952e+04
   1.237242e+05   3.379399e+05
  -3.884802e+05   2.022887e+05
  -2.023227e+05  -1.525128e+05
   4.023817e+05  -2.648463e+05
   7.068224e+05   1.307080e+05
   3.099166e+05   7.584175e+05
  -4.765140e+05   9.903347e+05
  -9.603574e+05   4.566029e+05
  -7.509102e+05  -5.145054e+05
  -8.575483e+04  -1.120819e+06
   4.757040e+05  -8.321825e+05
   5.855347e+05   6.504151e+04
   3.091708e+05   7.331358e+05
  -7.466768e+04   6.394093e+05
  -3.258323e+05   7.766878e+04
  -3.358383e+05  -2.537218e+05
  -1.582511e+05  -1.091848e+05
  -8.920293e+03   7.802196e+04
  -8.371953e+04  -1.393440e+05
  -2.691010e+05  -5.815744e+05
  -1.754773e+05  -6.835537e+05
   3.622064e+05  -2.513287e+05
   9.137541e+05   3.089304e+05
   8.454435e+05   5.357286e+05
   1.136038e+05   4.182514e+05
  -5.900746e+05   2.360593e+05
  -6.317444e+05   1.200702e+05
  -1.729493e+05   4.123343e+02
   1.157260e+05  -1.291019e+05
  -4.287492e+04  -1.641274e+05
  -2.332815e+05  -1.061471e+05
   2.506712e+02  -8.568265e+04
   4.878936e+05  -1.008638e+05
   6.310871e+05   4.835024e+04
   1.449917e+05   4.146639e+05
  -6.058133e+05   6.577308e+05
  -1.003856e+06   3.788306e+05
  -7.635000e+05  -3.289827e+05
  -1.109683e+05  -8.779805e+05
   4.767577e+05  -8.038715e+05
   6.495550e+05  -2.593133e+05
   4.050013e+05   1.962757e+05
   4.369425e+04   2.193632e+05
  -1.041926e+05  -6.153874e+03
   2.942405e+04  -5.819331e+04
   2.108861e+05   2.113654e+05
   1.635418e+05   5.009541e+05
  -1.374564e+05   3.961678e+05
  -4.257938e+05  -1.363523e+05
  -3.882339e+05  -6.421302e+05
   2.698607e+04  -6.222603e+05
   5.039054e+05  -6.782670e+04
   5.923705e+05   5.232163e+05
   1.453274e+05   6.683192e+05
  -4.595363e+05   3.486964e+05
  -6.485434e+05  -8.802436e+04
  -2.758769e+05  -3.389728e+05
   1.828864e+05  -3.482048e+05
   1.849578e+05  -2.050738e+05
  -2.096395e+05  -3.721674e+04
  -4.134472e+05  -8.755137e+02
  -6.269643e+04  -1.789960e+05
   5.203063e+05  -4.053807e+05
   7.332629e+05  -3.503142e+05
   4.050564e+05   7.534698e+04
  -8.242162e+04   5.054412e+05
  -3.033383e+05   4.894328e+05
  -2.023601e+05   4.930223e+04
   1.073375e+04  -3.172086e+05
   1.658080e+05  -2.279833e+05
   2.126962e+05   1.510420e+05
   1.336186e+05   3.604839e+05
  -5.400503e+04   2.107641e+05
  -2.345639e+05  -5.955375e+04
  -2.675301e+05  -1.445248e+05
  -1.471217e+05  -3.127101e+04
  -7.265587e+03   4.955925e+04
   5.297126e+04  -5.794783e+04
   7.645186e+04  -2.469798e+05
   1.452662e+05  -2.715870e+05
   2.289210e+05  -2.742347e+04
   1.974300e+05   3.024995e+05
  -1.426586e+04   4.034588e+05
  -2.828252e+05   1.548646e+05
  -3.621731e+05  -2.203869e+05
  -1.130407e+05  -3.767767e+05
   3.026546e+05  -2.041404e+05
   5.049603e+05   8.983717e+04
   2.677951e+05   2.429864e+05
  -1.873337e+05   1.976947e+05
  -3.794484e+05   7.571602e+04
  -1.115088e+05  -1.358706e+03
   2.694041e+05   1.224463e+04
   2.675630e+05   1.092966e+05
  -1.592190e+05   2.069820e+05
  -5.390452e+05   1.417595e+05
