
 $NMID
 id='ANONYMOUS ', fmtdat='(2E16.6)'
 volume=1.0
 tramp=1.0
 $END
   4.897358e+06  -4.630396e+05
   3.511037e+06   2.918392e+06
  -3.808683e+05   3.701361e+06
  -2.792422e+06   1.602283e+06
  -1.910366e+06  -8.307197e+05
   3.647652e+05  -1.337435e+06
   1.350564e+06  -9.351973e+04
   5.431297e+05   1.183425e+06
  -6.985056e+05   1.274005e+06
  -1.166982e+06   2.944906e+05
  -7.226800e+05  -7.879381e+05
   9.413746e+04  -1.025779e+06
   5.855046e+05  -2.570864e+05
   3.235414e+05   6.804655e+05
  -4.113242e+05   7.509721e+05
  -7.899180e+05  -1.146340e+05
  -3.514224e+05  -9.543028e+05
   4.601709e+05  -9.605693e+05
   9.125430e+05  -3.161307e+05
   8.175104e+05   3.104690e+05
   4.629271e+05   6.172295e+05
   7.816478e+04   6.912814e+05
  -2.276762e+05   5.935156e+05
  -2.886121e+05   3.701449e+05
  -1.108440e+05   2.324546e+05
  -8.005926e+04   2.967087e+05
  -4.682214e+05   3.017919e+05
  -8.810559e+05  -2.853917e+04
  -7.034375e+05  -4.760546e+05
  -2.558555e+04  -5.741729e+05
   4.092326e+05  -2.775892e+05
   2.211289e+05   3.705376e+03
  -1.595297e+05   1.049529e+02
  -2.008684e+05  -1.623069e+05
   5.252396e+04  -2.885775e+05
   2.480979e+05  -3.213726e+05
   2.725034e+05  -2.030112e+05
   2.250651e+05   8.736499e+04
   1.398617e+05   3.074221e+05
   4.778748e+04   1.608091e+05
   9.169850e+04  -1.695453e+05
   2.728498e+05  -1.278842e+05
   2.729835e+05   3.813484e+05
  -1.339778e+05   6.978502e+05
  -6.186602e+05   2.730840e+05
  -6.030999e+05  -5.054284e+05
  -1.144748e+04  -7.754094e+05
   5.893711e+05  -2.871048e+05
   6.373922e+05   3.831408e+05
   1.408876e+05   6.037206e+05
  -4.245794e+05   2.892977e+05
  -5.840109e+05  -2.224592e+05
  -2.189073e+05  -5.304553e+05
   3.419767e+05  -3.936528e+05
   5.679886e+05   7.820154e+04
   2.523557e+05   4.134600e+05
  -2.012170e+05   2.453363e+05
  -2.260155e+05  -1.785790e+05
   1.749237e+05  -2.585273e+05
   4.167649e+05   1.405317e+05
   1.198005e+05   4.889801e+05
  -3.913203e+05   3.351350e+05
  -5.449842e+05  -1.142178e+05
  -2.251890e+05  -3.794513e+05
   2.191666e+05  -3.475440e+05
   4.740651e+05  -2.094040e+05
   4.839098e+05  -1.627366e+04
   2.895360e+05   2.936204e+05
  -4.085698e+04   5.494336e+05
  -3.171350e+05   4.570404e+05
  -3.316744e+05   7.506099e+04
  -1.294206e+05  -1.799955e+05
   1.452048e+04  -9.705422e+04
  -4.666535e+04   6.257992e+04
  -1.562979e+05  -2.798801e+03
  -1.078717e+05  -1.954738e+05
   7.278634e+04  -2.065170e+05
   1.923537e+05   2.868412e+04
   1.301901e+05   2.724286e+05
  -7.231898e+04   2.989784e+05
  -2.784954e+05   1.004945e+05
  -3.401843e+05  -1.733490e+05
  -1.947059e+05  -3.491649e+05
   5.043554e+04  -3.331331e+05
   1.992453e+05  -1.835425e+05
   1.931510e+05  -5.917673e+04
   1.747323e+05  -3.118119e+04
   2.596289e+05   1.323629e+03
   3.410619e+05   1.411628e+05
   2.302161e+05   3.150063e+05
  -6.990427e+04   3.635511e+05
  -3.457071e+05   2.480396e+05
  -4.028384e+05   6.213514e+04
  -2.305026e+05  -1.036479e+05
   2.707259e+04  -1.941100e+05
   1.773701e+05  -1.494613e+05
   1.030542e+05   1.577818e+04
  -1.152563e+05   1.311761e+05
  -2.317415e+05   4.114108e+04
  -1.032587e+05  -1.446537e+05
   1.041992e+05  -1.579869e+05
   1.096798e+05   3.282349e+04
  -9.592222e+04   1.331998e+05
  -2.200970e+05  -6.731812e+04
  -6.022946e+04  -3.659926e+05
   2.369466e+05  -3.927172e+05
   3.884577e+05  -8.233735e+04
   3.087874e+05   2.723501e+05
   1.198110e+05   3.909840e+05
  -5.526321e+04   2.662496e+05
  -1.625196e+05   6.899508e+04
  -1.587364e+05  -4.982826e+04
  -4.829379e+04  -3.395047e+04
   4.151934e+04   7.302385e+04
  -2.579232e+04   1.425746e+05
  -1.906834e+05   6.770618e+04
  -2.374222e+05  -9.955552e+04
  -7.835702e+04  -1.863000e+05
   1.150628e+05  -1.098800e+05
   1.278339e+05   1.920140e+04
  -3.607492e+04   4.508012e+04
  -1.776156e+05  -5.070785e+04
  -1.357494e+05  -1.613879e+05
   6.433554e+04  -1.876311e+05
   2.572027e+05  -1.044742e+05
   2.804761e+05   4.641349e+04
   1.077214e+05   1.665485e+05
  -1.118908e+05   1.509469e+05
  -1.749430e+05   5.290223e+03
  -3.128642e+04  -1.163157e+05
   1.523425e+05  -6.880060e+04
   1.753501e+05   1.007101e+05
   2.247895e+04   2.007335e+05
  -1.425664e+05   1.258050e+05
  -1.727939e+05  -3.136250e+04
  -7.302082e+04  -1.098245e+05
   4.113636e+04  -5.793504e+04
   6.113975e+04   4.337551e+04
  -3.085895e+04   8.238593e+04
  -1.434932e+05   1.164482e+04
  -1.441061e+05  -1.186920e+05
   4.226517e+03  -1.935004e+05
   1.750124e+05  -1.311708e+05
   2.007639e+05   2.346465e+04
   6.606704e+04   1.319649e+05
  -7.785597e+04   1.102743e+05
  -9.990674e+04   1.430294e+04
  -2.687573e+04  -4.464808e+04
   2.966131e+04  -3.297687e+04
   2.087341e+04  -6.313403e+03
  -1.109758e+04  -1.664341e+04
  -9.010637e+03  -5.414278e+04
   4.448628e+04  -7.101880e+04
   1.197615e+05  -2.682375e+04
   1.479677e+05   7.972786e+04
   6.713433e+04   1.894359e+05
  -9.367131e+04   2.068718e+05
  -2.056553e+05   9.182754e+04
  -1.714854e+05  -7.442862e+04
  -4.613837e+04  -1.587151e+05
   3.192206e+04  -1.192886e+05
   1.653767e+04  -3.981652e+04
  -8.238756e+03  -1.137392e+04
   3.176632e+04  -2.688910e+04
   9.774563e+04  -1.842545e+04
   1.040362e+05   3.912758e+04
   2.881308e+04   9.978263e+04
  -7.936000e+04   1.024927e+05
  -1.594126e+05   2.502026e+04
  -1.616583e+05  -1.008812e+05
  -5.819446e+04  -1.977690e+05
   1.128178e+05  -1.842937e+05
   2.366385e+05  -5.117989e+04
   2.167507e+05   1.057485e+05
   8.186240e+04   1.668311e+05
  -4.407444e+04   1.127787e+05
  -7.991028e+04   3.904764e+04
  -5.719172e+04   3.575975e+04
  -5.058539e+04   8.262179e+04
  -8.131288e+04   8.508132e+04
  -1.072489e+05  -3.949885e+03
  -8.068243e+04  -1.257793e+05
   2.081187e+03  -1.768954e+05
   9.171101e+04  -1.109589e+05
   1.182624e+05   2.075839e+04
   5.362705e+04   1.182756e+05
  -4.906527e+04   1.187919e+05
  -9.945949e+04   4.213298e+04
  -6.412384e+04  -4.077115e+04
   2.624000e+03  -7.844520e+04
   3.071767e+04  -7.450306e+04
   1.314491e+04  -6.020388e+04
  -1.900199e+03  -4.888523e+04
   2.466145e+04  -2.712734e+04
   8.463881e+04   1.783245e+04
   1.305593e+05   7.485162e+04
   1.070538e+05   1.136909e+05
  -5.992448e+02   1.084572e+05
  -1.274360e+05   5.949522e+04
  -1.673189e+05  -2.369676e+03
  -8.686604e+04  -3.693100e+04
   2.047909e+04  -2.838901e+04
   3.870407e+04   1.255192e+02
  -2.705080e+04   9.535477e+03
  -6.621252e+04  -1.625567e+04
  -2.036570e+04  -5.474293e+04
   4.190772e+04  -6.704920e+04
   3.411365e+04  -3.698532e+04
  -2.434787e+04   8.610753e+03
  -4.553534e+04   2.205902e+04
   1.897248e+03  -1.304634e+04
   6.424502e+04  -5.393961e+04
   8.488691e+04  -4.042940e+04
   5.835465e+04   2.856664e+04
   4.190807e+03   8.035064e+04
  -5.617646e+04   5.006320e+04
  -8.236925e+04  -3.549295e+04
  -2.988865e+04  -8.216633e+04
   8.102359e+04  -3.560697e+04
   1.476010e+05   6.034902e+04
   8.482857e+04   1.175092e+05
  -6.504522e+04   9.328203e+04
  -1.638293e+05   1.772286e+04
  -1.253420e+05  -4.734503e+04
  -5.736161e+03  -5.945468e+04
   6.482327e+04  -2.207177e+04
   2.366613e+04   1.816997e+04
  -6.441326e+04   8.045625e+03
  -8.285281e+04  -5.770680e+04
   1.008385e+04  -1.184612e+05
   1.336511e+05  -1.008941e+05
   1.663148e+05   4.171761e+03
   7.340189e+04   1.243345e+05
  -5.841009e+04   1.665213e+05
  -1.181223e+05   9.617460e+04
  -8.254695e+04  -3.247666e+04
  -1.481048e+04  -1.174911e+05
   2.700136e+04  -9.560857e+04
   4.047427e+04  -4.375590e+03
   4.220387e+04   5.371585e+04
   2.989652e+04   2.768999e+04
   4.641387e+03  -1.861677e+04
  -7.370908e+03   7.244618e+03
   5.602361e+03   9.098294e+04
   4.160804e+03   1.178452e+05
  -5.030916e+04   2.727607e+04
  -1.161066e+05  -9.611025e+04
  -1.017629e+05  -1.281036e+05
   7.711524e+03  -6.027022e+04
   1.083208e+05   8.794555e+03
   1.000530e+05   1.634196e+04
   1.517043e+04  -1.384993e+02
  -3.048101e+04   1.204391e+04
   3.095490e+03   3.860332e+04
   3.491832e+04   3.584172e+04
  -9.003727e+03   3.440011e+03
  -8.242318e+04  -2.600554e+04
  -7.907077e+04  -4.209589e+04
   2.353141e+04  -5.337588e+04
   1.321135e+05  -4.431561e+04
   1.470376e+05   1.185407e+04
   6.340771e+04   9.284780e+04
  -4.427668e+04   1.268659e+05
  -1.036707e+05   7.527707e+04
  -9.371652e+04  -1.277448e+04
  -4.007261e+04  -5.396666e+04
   1.036971e+04  -2.460762e+04
   2.079239e+04   2.058857e+04
  -5.285404e+03   1.744489e+04
  -2.537525e+04  -3.600395e+04
  -5.076148e+03  -7.740296e+04
   3.777206e+04  -4.549945e+04
   5.078111e+04   4.814174e+04
   9.186286e+03   1.159013e+05
  -5.343144e+04   7.982634e+04
  -7.952293e+04  -3.569315e+04
  -4.294922e+04  -1.198109e+05
   2.979687e+04  -9.670219e+04
   8.213290e+04  -7.425699e+03
   7.232616e+04   5.130956e+04
   1.232406e+04   4.520195e+04
  -3.545900e+04   2.091501e+04
  -1.883131e+04   2.084314e+04
   3.915585e+04   3.190211e+04
   5.695836e+04   2.964787e+04
  -7.672559e+03   2.368179e+04
  -9.641975e+04   2.764458e+04
  -1.138927e+05   2.027343e+04
  -4.207849e+04  -1.982287e+04
   4.090784e+04  -6.056114e+04
   5.749082e+04  -4.758404e+04
   1.305980e+04   1.218761e+04
  -3.100637e+04   4.624193e+04
  -3.677496e+04   1.127392e+04
  -1.598120e+04  -4.716433e+04
   5.911651e+03  -5.697824e+04
   1.982890e+04  -1.300767e+04
   2.720174e+04   2.712074e+04
   2.775108e+04   2.597117e+04
   2.068429e+04   6.357379e+03
   6.067219e+03   6.094002e+03
  -1.734000e+04   2.503309e+04
  -4.469508e+04   3.213891e+04
  -5.674245e+04   7.685519e+03
  -3.478004e+04  -3.550570e+04
   1.228043e+04  -6.389876e+04
   4.989670e+04  -4.933631e+04
   5.231909e+04   5.117757e+03
   2.372067e+04   5.772470e+04
  -1.604465e+04   5.984956e+04
  -4.833062e+04   8.035010e+03
  -5.358696e+04  -4.539728e+04
  -1.868865e+04  -4.823077e+04
   3.458407e+04  -7.692658e+03
   5.141165e+04   2.219294e+04
   6.320374e+03   7.704330e+03
  -4.802705e+04  -2.973335e+04
  -3.369925e+04  -4.674952e+04
   4.754191e+04  -2.568152e+04
   1.021168e+05   1.818452e+04
