
 $NMID
 id='ANONYMOUS ', fmtdat='(2E16.6)'
 volume=1.0
 tramp=1.0
 $END
   2.810811e+07   4.740575e+05
   1.821104e+07   1.400381e+07
  -8.209619e+05   1.786155e+07
  -1.241854e+07   1.103075e+07
  -9.867147e+06   5.050650e+05
  -3.007303e+05  -4.970235e+06
   5.568898e+06  -2.119178e+06
   3.902012e+06   4.541256e+06
  -1.551230e+06   7.349290e+06
  -5.217195e+06   3.132835e+06
  -4.431501e+06  -3.634906e+06
  -5.275760e+05  -5.760935e+06
   2.686116e+06  -1.239484e+06
   2.100332e+06   4.679536e+06
  -1.683208e+06   5.484284e+06
  -4.628885e+06   3.645235e+05
  -3.318246e+06  -5.524825e+06
   1.416292e+06  -6.890149e+06
   5.412120e+06  -3.242126e+06
   5.491743e+06   1.658068e+06
   2.387602e+06   4.021470e+06
  -4.244978e+05   3.274575e+06
  -3.592304e+05   1.783256e+06
   1.721064e+06   1.962040e+06
   2.386122e+06   3.687058e+06
  -6.294455e+05   4.546789e+06
  -5.432378e+06   2.679271e+06
  -7.387303e+06  -9.573144e+05
  -4.126361e+06  -3.495297e+06
   1.426330e+06  -3.089684e+06
   3.979554e+06  -5.134565e+05
   1.597929e+06   1.870872e+06
  -2.519513e+06   2.107616e+06
  -4.017899e+06  -7.225238e+04
  -1.997275e+06  -2.979424e+06
   8.776984e+05  -3.965756e+06
   1.890686e+06  -1.833113e+06
   8.486969e+05   1.366207e+06
  -5.014795e+05   2.057997e+06
  -5.810361e+05  -5.892540e+05
   6.948238e+05  -3.198974e+06
   2.031084e+06  -2.197724e+06
   1.884365e+06   1.473305e+06
  -7.262491e+04   3.330108e+06
  -2.270373e+06   9.672292e+05
  -2.371849e+06  -2.977269e+06
   3.804814e+05  -4.119278e+06
   3.931587e+06  -1.327916e+06
   4.992372e+06   2.550028e+06
   2.228777e+06   4.148563e+06
  -2.168689e+06   2.652314e+06
  -4.399681e+06  -2.001982e+05
  -2.723401e+06  -2.047628e+06
   8.699123e+05  -1.728526e+06
   2.796758e+06   1.251583e+04
   1.582297e+06   1.288396e+06
  -8.516323e+05   8.865251e+05
  -1.603308e+06  -5.290601e+05
  -6.631169e+04  -1.248359e+06
   1.603528e+06  -4.686591e+05
   1.148209e+06   9.245381e+05
  -1.166711e+06   1.429783e+06
  -2.830342e+06   3.530337e+05
  -1.782663e+06  -1.739819e+06
   1.441102e+06  -3.408364e+06
   4.260665e+06  -3.157784e+06
   4.561921e+06  -6.225655e+05
   2.558705e+06   2.694963e+06
   2.435798e+05   4.444132e+06
  -7.757240e+05   3.715749e+06
  -6.792594e+05   1.954038e+06
  -7.479381e+05   1.091823e+06
  -1.649949e+06   1.182986e+06
  -2.704850e+06   6.639614e+05
  -2.725120e+06  -1.159835e+06
  -1.281409e+06  -2.838574e+06
   8.545418e+05  -2.439954e+06
   2.247745e+06   3.694326e+04
   1.805631e+06   2.485149e+06
  -3.125291e+05   2.814306e+06
  -2.562710e+06   8.907818e+05
  -3.147787e+06  -1.586800e+06
  -1.692925e+06  -2.814267e+06
   3.365227e+05  -2.394334e+06
   1.242653e+06  -1.345773e+06
   1.006901e+06  -8.303901e+05
   1.121787e+06  -9.553751e+05
   2.449029e+06  -8.190246e+05
   3.806197e+06   3.651227e+05
   3.182361e+06   2.306611e+06
   2.102544e+05   3.769329e+06
  -3.067041e+06   3.577319e+06
  -4.100854e+06   1.615907e+06
  -2.341069e+06  -9.072523e+05
   3.084852e+05  -2.240537e+06
   1.451285e+06  -1.541077e+06
   4.663169e+05   2.235751e+05
  -1.169633e+06   1.119214e+06
  -1.628851e+06   2.977440e+05
  -5.903273e+05  -1.025482e+06
   6.562236e+05  -1.053275e+06
   7.261439e+05   2.937258e+05
  -4.582888e+05   1.158505e+06
  -1.690157e+06   8.000110e+03
  -1.634093e+06  -2.384057e+06
   4.417989e+04  -3.654683e+06
   2.370813e+06  -2.378978e+06
   3.702862e+06   4.961661e+05
   2.972997e+06   2.707862e+06
   6.947855e+05   2.848268e+06
  -1.318240e+06   1.433162e+06
  -1.594166e+06   9.837767e+04
  -4.655253e+05  -4.402005e+04
   3.527565e+05   6.906030e+05
  -2.544526e+05   1.118779e+06
  -1.526065e+06   5.304052e+05
  -1.783454e+06  -5.862337e+05
  -4.905353e+05  -1.137930e+06
   1.026179e+06  -6.183905e+05
   1.033151e+06   3.884287e+05
  -6.436047e+05   8.179675e+05
  -2.321486e+06   1.241605e+05
  -2.154643e+06  -1.245072e+06
  -4.315246e+04  -2.192027e+06
   2.211442e+06  -1.844789e+06
   2.667390e+06  -3.600360e+05
   1.125828e+06   1.064734e+06
  -7.685850e+05   1.223213e+06
  -1.238950e+06   1.357368e+05
  -7.160027e+04  -8.924841e+05
   1.373179e+06  -6.553724e+05
   1.639449e+06   6.122933e+05
   5.354467e+05   1.523131e+06
  -8.437930e+05   1.134997e+06
  -1.244522e+06  -2.600594e+04
  -4.268487e+05  -6.447475e+05
   6.224565e+05  -9.614851e+04
   6.426720e+05   9.500193e+05
  -5.900372e+05   1.302378e+06
  -1.905944e+06   4.427550e+05
  -1.878849e+06  -1.017800e+06
  -3.681474e+05  -1.914444e+06
   1.265368e+06  -1.549685e+06
   1.588962e+06  -2.915816e+05
   5.657266e+05   7.672414e+05
  -5.655631e+05   8.177536e+05
  -7.166433e+05   6.816272e+04
   3.427224e+03  -5.524134e+05
   6.297901e+05  -4.254460e+05
   4.653124e+05   1.131022e+05
  -2.391135e+05   2.289701e+05
  -5.948384e+05  -3.838202e+05
   1.131296e+04  -1.076334e+06
   1.231736e+06  -9.032757e+05
   1.965767e+06   3.422761e+05
   1.383456e+06   1.812834e+06
  -1.944200e+05   2.342242e+06
  -1.549473e+06   1.511810e+06
  -1.766103e+06   1.922648e+04
  -1.068681e+06  -9.922635e+05
  -3.895395e+05  -9.858607e+05
  -2.653509e+05  -4.376249e+05
  -3.632493e+05  -2.115151e+05
  -5.499227e+04  -5.726109e+05
   7.490581e+05  -9.026198e+05
   1.416945e+06  -4.460581e+05
   1.176306e+06   7.184990e+05
  -1.105460e+05   1.583157e+06
  -1.648750e+06   1.174410e+06
  -2.221059e+06  -4.024164e+05
  -1.207863e+06  -1.948049e+06
   7.641041e+05  -2.239193e+06
   2.271963e+06  -1.125540e+06
   2.328051e+06   4.134585e+05
   1.190925e+06   1.252931e+06
  -3.789150e+04   1.130732e+06
  -5.273561e+05   7.051457e+05
  -3.701651e+05   6.953674e+05
  -2.424284e+05   1.061131e+06
  -5.823254e+05   1.088447e+06
  -1.134697e+06   2.616284e+05
  -1.232739e+06  -1.042845e+06
  -5.127590e+05  -1.814225e+06
   6.142210e+05  -1.371830e+06
   1.243379e+06  -4.255810e+04
   8.310834e+05   1.128357e+06
  -2.208000e+05   1.313660e+06
  -9.344693e+05   5.606893e+05
  -7.506793e+05  -3.962573e+05
  -6.808363e+04  -8.736543e+05
   2.756994e+05  -7.751523e+05
  -1.641523e+04  -4.884976e+05
  -3.713900e+05  -3.700739e+05
  -3.030890e+04  -3.865053e+05
   1.011697e+06  -2.337316e+05
   1.851721e+06   2.615524e+05
   1.540705e+06   9.003850e+05
   1.099726e+05   1.255767e+06
  -1.341508e+06   1.041506e+06
  -1.680532e+06   3.753277e+05
  -8.457619e+05  -2.762003e+05
   1.721270e+05  -4.528010e+05
   4.349007e+05  -1.110398e+05
  -2.958472e+04   2.883145e+05
  -4.835106e+05   2.138640e+05
  -4.367597e+05  -3.297043e+05
  -1.027566e+05  -7.313334e+05
   3.924524e+04  -4.682393e+05
  -1.454387e+05   1.874100e+05
  -3.718199e+05   4.007570e+05
  -2.897131e+05  -2.048718e+05
   2.017189e+05  -9.900494e+05
   8.495006e+05  -9.915697e+05
   1.136418e+06  -7.375431e+04
   6.502319e+05   8.793585e+05
  -3.973150e+05   9.569521e+05
  -1.107865e+06   1.869060e+05
  -6.796361e+05  -5.923516e+05
   6.335856e+05  -6.486385e+05
   1.580496e+06   9.421175e+03
   1.149816e+06   7.847236e+05
  -3.232593e+05   1.062497e+06
  -1.470400e+06   6.592892e+05
  -1.307795e+06  -7.553546e+04
  -2.024795e+05  -5.252114e+05
   6.051820e+05  -3.262282e+05
   3.238596e+05   2.384684e+05
  -6.265223e+05   4.347594e+05
  -1.123099e+06  -1.815177e+05
  -5.186390e+05  -1.189548e+06
   7.179836e+05  -1.584033e+06
   1.501799e+06  -7.552977e+05
   1.201789e+06   7.873953e+05
   1.701856e+05   1.764408e+06
  -7.229604e+05   1.322859e+06
  -9.207316e+05  -8.859177e+04
  -5.041311e+05  -1.144087e+06
   1.020329e+05  -1.002816e+06
   5.112042e+05  -1.282827e+05
   5.336246e+05   3.860733e+05
   2.493791e+05   1.625095e+05
   1.235926e+04  -1.205652e+05
   1.400285e+05   2.253635e+05
   4.427648e+05   9.122854e+05
   2.922298e+05   1.067300e+06
  -5.690677e+05   4.010355e+05
  -1.449101e+06  -4.592779e+05
  -1.343729e+06  -8.157642e+05
  -1.899257e+05  -6.567569e+05
   9.194799e+05  -3.937315e+05
   9.895863e+05  -2.075961e+05
   2.743658e+05  -7.058770e+01
  -1.772705e+05   2.089275e+05
   6.928665e+04   2.507845e+05
   3.677861e+05   1.529857e+05
   4.588814e+03   1.365121e+05
  -7.622393e+05   1.806268e+05
  -9.991392e+05  -5.614006e+04
  -2.488617e+05  -6.573151e+05
   9.332542e+05  -1.063709e+06
   1.579642e+06  -6.292839e+05
   1.224291e+06   4.982654e+05
   2.046910e+05   1.382827e+06
  -7.310168e+05   1.283609e+06
  -1.020261e+06   4.325966e+05
  -6.466239e+05  -2.936574e+05
  -7.793727e+04  -3.467957e+05
   1.622808e+05  -5.596211e+02
  -4.353999e+04   8.745470e+04
  -3.351845e+05  -3.268225e+05
  -2.709339e+05  -7.837880e+05
   2.046218e+05  -6.314353e+05
   6.778978e+05   1.975372e+05
   6.385322e+05   1.000366e+06
  -1.784361e+04   9.882481e+05
  -7.939714e+05   1.303854e+05
  -9.566130e+05  -8.040641e+05
  -2.532468e+05  -1.053468e+06
   7.168564e+05  -5.691978e+05
   1.030262e+06   1.195556e+05
   4.460637e+05   5.326686e+05
  -2.821708e+05   5.598328e+05
  -2.909740e+05   3.270769e+05
   3.286388e+05   4.666877e+04
   6.519468e+05  -1.306444e+04
   1.054214e+05   2.828842e+05
  -8.082980e+05   6.551125e+05
  -1.148011e+06   5.684731e+05
  -6.436175e+05  -1.141371e+05
   1.156291e+05  -8.026507e+05
   4.696437e+05  -7.805915e+05
   3.255631e+05  -8.385163e+04
  -3.015125e+03   5.010191e+05
  -2.558365e+05   3.683801e+05
  -3.434847e+05  -2.272674e+05
  -2.228732e+05  -5.652979e+05
   8.063042e+04  -3.393422e+05
   3.737969e+05   8.495466e+04
   4.259920e+05   2.241633e+05
   2.311580e+05   4.764361e+04
   1.034216e+04  -8.364093e+04
  -7.642750e+04   8.583449e+04
  -1.046831e+05   3.940726e+05
  -2.158315e+05   4.448071e+05
  -3.638963e+05   6.068510e+04
  -3.310437e+05  -4.706024e+05
   1.523496e+03  -6.426969e+05
   4.411086e+05  -2.572191e+05
   5.838941e+05   3.359775e+05
   1.938400e+05   5.912656e+05
  -4.733463e+05   3.313331e+05
  -8.042236e+05  -1.261280e+05
  -4.317825e+05  -3.761948e+05
   2.921502e+05  -3.213440e+05
   6.010709e+05  -1.346139e+05
   1.802083e+05   6.031861e+02
  -4.234818e+05  -3.542375e+03
  -4.277050e+05  -1.576701e+05
   2.385697e+05  -3.317876e+05
   8.401060e+05  -2.458486e+05
