
 $NMID
 id='ANONYMOUS ', fmtdat='(2E16.6)'
 volume=1.0
 tramp=1.0
 $END
  -5.209207e+07   1.021390e+06
  -3.212842e+07  -3.093037e+07
   5.651946e+06  -3.508504e+07
   2.485416e+07  -1.471033e+07
   1.553756e+07   5.381593e+06
  -2.513838e+06   8.683464e+06
  -9.141969e+06  -4.220707e+05
  -3.204411e+06  -8.834599e+06
   5.180814e+06  -9.190803e+06
   8.884154e+06  -2.435440e+06
   6.775836e+06   5.660822e+06
   9.954465e+05   8.196597e+06
  -3.765092e+06   2.615975e+06
  -2.747911e+06  -5.305709e+06
   3.243533e+06  -6.521027e+06
   7.397153e+06   8.714500e+05
   4.522343e+06   9.388272e+06
  -3.143561e+06   1.114644e+07
  -9.280033e+06   5.727713e+06
  -1.007280e+07  -1.789770e+06
  -6.119339e+06  -6.869878e+06
  -6.438896e+05  -7.821843e+06
   2.414742e+06  -5.399554e+06
   1.165564e+06  -2.553731e+06
  -1.482525e+06  -2.380573e+06
  -2.665482e+05  -4.323441e+06
   5.381994e+06  -4.353125e+06
   9.425746e+06  -5.248073e+05
   6.756582e+06   3.912342e+06
   7.565943e+04   4.829595e+06
  -3.795205e+06   2.386898e+06
  -2.416799e+06  -2.625734e+05
   8.875061e+05  -1.251638e+06
   2.630282e+06  -5.400123e+05
   2.299144e+06   1.658712e+06
   5.683268e+05   4.024477e+06
  -1.769204e+06   3.617494e+06
  -2.896205e+06  -2.927087e+05
  -1.419421e+06  -3.415654e+06
   7.643250e+05  -1.520975e+06
   2.760937e+05   2.652769e+06
  -2.339276e+06   2.398450e+06
  -2.444691e+06  -2.860349e+06
   1.904260e+06  -5.731987e+06
   6.170716e+06  -1.123604e+06
   4.823346e+06   6.219111e+06
  -1.495396e+06   7.879102e+06
  -6.854922e+06   2.414585e+06
  -6.806249e+06  -3.986026e+06
  -2.103801e+06  -5.707934e+06
   3.199236e+06  -2.829578e+06
   5.203100e+06   1.147807e+06
   2.599692e+06   3.186445e+06
  -2.109930e+06   2.185560e+06
  -4.290001e+06  -6.645112e+05
  -1.967109e+06  -2.445446e+06
   1.554112e+06  -1.338724e+06
   1.765852e+06   8.954053e+05
  -1.045803e+06   9.994012e+05
  -2.352077e+06  -1.311950e+06
   2.554787e+05  -3.001801e+06
   4.013186e+06  -1.905764e+06
   4.930633e+06   9.497013e+05
   2.331228e+06   3.564624e+06
  -1.635818e+06   5.066599e+06
  -4.835247e+06   4.773912e+06
  -5.972925e+06   1.742569e+06
  -4.388782e+06  -3.025501e+06
  -1.000341e+06  -5.950076e+06
   1.555612e+06  -4.693350e+06
   1.528008e+06  -1.408220e+06
   2.421164e+05  -1.623648e+04
   2.390878e+05  -1.088248e+06
   1.808590e+06  -1.709963e+06
   2.888683e+06  -8.640545e+04
   2.031227e+06   2.087243e+06
  -4.827735e+04   2.272042e+06
  -1.715284e+06   2.446467e+05
  -1.826468e+06  -2.130099e+06
  -4.842238e+04  -2.983729e+06
   2.748692e+06  -1.641761e+06
   4.371452e+06   1.165855e+06
   3.109520e+06   3.588913e+06
   3.471543e+03   3.982393e+06
  -2.074264e+06   2.568162e+06
  -2.019286e+06   1.146228e+06
  -1.707022e+06   7.910516e+05
  -2.886813e+06   6.418373e+05
  -4.358101e+06  -5.672390e+05
  -3.590429e+06  -2.628818e+06
  -2.823135e+05  -4.147275e+06
   3.125523e+06  -4.038749e+06
   4.195575e+06  -2.223229e+06
   2.690286e+06   4.338984e+05
   2.564008e+05   2.295981e+06
  -1.132663e+06   1.958150e+06
  -5.665589e+05  -5.361736e+04
   1.088272e+06  -1.347529e+06
   1.891843e+06  -4.485961e+05
   9.213817e+05   1.179642e+06
  -5.176931e+05   1.152493e+06
  -5.023592e+05  -3.582699e+05
   9.457459e+05  -8.144051e+05
   1.876303e+06   1.028552e+06
   9.228907e+05   3.319443e+06
  -1.229755e+06   3.540338e+06
  -3.000001e+06   1.445929e+06
  -3.474249e+06  -1.185500e+06
  -2.542283e+06  -2.715557e+06
  -6.028689e+05  -2.689602e+06
   1.234071e+06  -1.538893e+06
   1.614837e+06  -2.662723e+05
   5.017902e+05   3.060983e+04
  -3.901133e+05  -7.486503e+05
   3.583798e+05  -1.346962e+06
   1.873650e+06  -6.386090e+05
   2.064468e+06   7.987558e+05
   4.515856e+05   1.390612e+06
  -1.157541e+06   6.285682e+05
  -9.484224e+05  -4.222846e+05
   8.109614e+05  -6.040351e+05
   2.255370e+06   1.791327e+05
   1.895786e+06   1.301792e+06
  -1.354527e+05   2.054977e+06
  -2.289086e+06   1.800471e+06
  -2.814301e+06   3.842716e+05
  -1.269869e+06  -1.227211e+06
   8.761083e+05  -1.522302e+06
   1.543888e+06  -2.290510e+05
   2.166524e+05   1.075617e+06
  -1.510640e+06   7.898804e+05
  -1.771146e+06  -7.203281e+05
  -4.275643e+05  -1.657584e+06
   1.044804e+06  -1.054633e+06
   1.289295e+06   2.354106e+05
   3.010480e+05   7.675982e+05
  -7.880172e+05   8.402501e+04
  -7.743168e+05  -1.043067e+06
   5.479994e+05  -1.462954e+06
   2.028828e+06  -6.072604e+05
   2.099489e+06   1.007740e+06
   4.567683e+05   2.091813e+06
  -1.398703e+06   1.714448e+06
  -1.740821e+06   2.810739e+05
  -5.501703e+05  -8.576581e+05
   6.349326e+05  -8.452969e+05
   6.598122e+05  -1.008023e+05
  -8.682735e+04   3.988188e+05
  -5.109403e+05   2.666647e+05
  -1.800360e+05  -5.966611e+04
   4.218443e+05   2.496030e+04
   5.557898e+05   6.268272e+05
  -1.468491e+05   1.201726e+06
  -1.365042e+06   9.610204e+05
  -2.129461e+06  -3.474590e+05
  -1.552275e+06  -1.926785e+06
   1.392214e+05  -2.477474e+06
   1.595520e+06  -1.514969e+06
   1.742864e+06   4.899340e+04
   9.427112e+05   8.974439e+05
   3.678695e+05   7.038477e+05
   4.723403e+05   2.469234e+05
   6.118225e+05   2.931061e+05
   1.080040e+05   7.535019e+05
  -8.493226e+05   9.492116e+05
  -1.465078e+06   3.980481e+05
  -1.118019e+06  -7.003745e+05
   1.834043e+05  -1.517736e+06
   1.715023e+06  -1.169629e+06
   2.314095e+06   4.088167e+05
   1.238827e+06   2.090446e+06
  -9.241407e+05   2.433547e+06
  -2.530015e+06   1.147994e+06
  -2.421024e+06  -5.624518e+05
  -1.055492e+06  -1.320565e+06
   1.498185e+05  -9.972516e+05
   3.952214e+05  -5.679997e+05
   9.770108e+04  -7.755220e+05
   8.859726e+04  -1.312603e+06
   6.368679e+05  -1.312593e+06
   1.294428e+06  -3.580117e+05
   1.392393e+06   1.059240e+06
   6.273013e+05   1.912798e+06
  -5.888373e+05   1.485142e+06
  -1.310461e+06   4.661345e+04
  -8.740990e+05  -1.265539e+06
   3.316389e+05  -1.427388e+06
   1.141270e+06  -4.696006e+05
   8.372753e+05   6.471938e+05
  -6.938134e+04   1.072596e+06
  -4.874065e+05   8.107428e+05
  -5.681598e+04   4.359685e+05
   4.483996e+05   3.355308e+05
   7.087099e+04   3.920081e+05
  -1.150502e+06   2.537470e+05
  -2.094809e+06  -2.663189e+05
  -1.678397e+06  -9.905969e+05
  -2.486173e+04  -1.443121e+06
   1.559147e+06  -1.202788e+06
   1.844067e+06  -3.558532e+05
   8.660242e+05   4.484825e+05
  -2.396728e+05   5.739839e+05
  -5.105772e+05   5.997587e+04
  -3.428625e+04  -4.150277e+05
   4.510945e+05  -2.760578e+05
   4.995044e+05   3.330377e+05
   2.671513e+05   7.372487e+05
   9.861374e+04   4.903071e+05
   1.353832e+05  -1.133905e+05
   2.835432e+05  -3.253480e+05
   2.911204e+05   2.244651e+05
  -1.167246e+05   1.017576e+06
  -8.793874e+05   1.113584e+06
  -1.365482e+06   2.094977e+05
  -8.812819e+05  -9.081359e+05
   3.877408e+05  -1.160476e+06
   1.263674e+06  -3.695255e+05
   7.667774e+05   5.639699e+05
  -6.884454e+05   6.866646e+05
  -1.625930e+06  -3.329278e+04
  -1.072722e+06  -8.356482e+05
   4.418261e+05  -1.032085e+06
   1.508866e+06  -5.601739e+05
   1.272832e+06   1.382359e+05
   1.625450e+05   5.205755e+05
  -6.494090e+05   3.026028e+05
  -3.966032e+05  -2.840772e+05
   5.862386e+05  -5.499857e+05
   1.212532e+06   4.908155e+04
   7.196208e+05   1.189634e+06
  -5.531223e+05   1.760671e+06
  -1.491213e+06   9.541333e+05
  -1.311852e+06  -7.318338e+05
  -2.718861e+05  -1.826062e+06
   7.076805e+05  -1.354317e+06
   9.507332e+05   1.408739e+05
   4.885388e+05   1.198929e+06
  -1.810681e+05   9.982046e+05
  -5.679404e+05   1.076381e+05
  -4.949930e+05  -3.673763e+05
  -1.777369e+05  -1.330591e+05
  -4.357590e+04   9.943378e+04
  -2.882415e+05  -2.930345e+05
  -5.528367e+05  -9.695420e+05
  -2.398789e+05  -1.092683e+06
   7.098751e+05  -4.262438e+05
   1.525586e+06   4.209424e+05
   1.343200e+06   8.050784e+05
   2.144159e+05   7.060975e+05
  -8.599977e+05   4.630963e+05
  -9.992705e+05   2.248479e+05
  -3.669489e+05  -4.208694e+04
   1.415372e+05  -2.371755e+05
   2.482494e+04  -2.084903e+05
  -2.785175e+05  -8.367626e+04
  -5.652421e+04  -1.358965e+05
   6.706630e+05  -2.706354e+05
   1.072325e+06  -2.806156e+04
   4.679379e+05   6.970574e+05
  -8.178864e+05   1.241356e+06
  -1.712206e+06   8.377084e+05
  -1.463291e+06  -3.905371e+05
  -3.378884e+05  -1.429431e+06
   7.320777e+05  -1.437042e+06
   1.055372e+06  -5.929827e+05
   6.820101e+05   2.104005e+05
   1.517286e+05   3.631542e+05
  -7.045130e+04   7.505623e+04
   8.026690e+04  -1.805929e+04
   3.200876e+05   3.631724e+05
   2.842789e+05   8.158333e+05
  -1.564301e+05   7.036997e+05
  -7.041967e+05  -9.322580e+04
  -7.999345e+05  -9.434824e+05
  -1.646696e+05  -1.055437e+06
   7.616154e+05  -2.910960e+05
   1.094038e+06   6.916162e+05
   4.048833e+05   1.103154e+06
  -7.034233e+05   7.272051e+05
  -1.151189e+06  -2.998553e+04
  -5.697095e+05  -6.095855e+05
   2.689263e+05  -7.099040e+05
   3.773280e+05  -3.904200e+05
  -2.506235e+05   5.981860e+03
  -6.625622e+05   6.911731e+04
  -1.639184e+05  -3.111092e+05
   8.161468e+05  -7.286692e+05
   1.267874e+06  -5.991682e+05
   7.897143e+05   1.566219e+05
  -6.292290e+04   8.960554e+05
  -5.347508e+05   8.986985e+05
  -4.361689e+05   1.841154e+05
  -7.950874e+04  -4.877546e+05
   2.269882e+05  -4.594088e+05
   3.693084e+05   1.304492e+05
   2.858433e+05   5.803352e+05
  -3.681431e+04   4.450527e+05
  -4.036775e+05  -2.664906e+04
  -4.987565e+05  -2.714113e+05
  -2.506291e+05  -9.156312e+04
   4.202571e+04   1.577542e+05
   8.198828e+04   4.938329e+04
  -3.692334e+04  -3.618603e+05
   1.946890e+04  -5.770269e+05
   3.186847e+05  -2.496531e+05
   4.967051e+05   3.651891e+05
   1.996883e+05   6.603975e+05
  -4.024936e+05   3.444824e+05
  -6.985534e+05  -2.545834e+05
  -2.896490e+05  -5.749253e+05
   5.057084e+05  -3.967870e+05
   9.120937e+05   3.698947e+04
   5.092765e+05   3.661037e+05
  -2.851274e+05   4.277454e+05
  -6.485899e+05   2.672232e+05
  -2.612690e+05   2.877877e+04
   3.463800e+05  -9.403464e+04
   4.204933e+05   3.814667e+04
  -1.510246e+05   3.037448e+05
  -7.388601e+05   3.158914e+05
