
 $NMID
 id='ANONYMOUS ', fmtdat='(2E16.6)'
 volume=1.0
 tramp=1.0
 $END
  -2.266406e+06  -3.704890e+06
   1.143796e+06  -4.153727e+06
   3.253588e+06  -1.207967e+06
   2.291953e+06   1.774511e+06
  -2.359711e+04   1.951091e+06
  -1.032138e+06   1.154427e+05
  -2.292048e+05  -1.092167e+06
   8.939078e+05  -6.339711e+05
   1.099567e+06   4.113487e+05
   4.724540e+05   8.662738e+05
  -2.673607e+05   6.445564e+05
  -5.640797e+05   1.949812e+05
  -2.460816e+05  -1.407597e+05
   3.751783e+05  -1.222068e+05
   6.245913e+05   2.986189e+05
   1.327310e+05   7.275731e+05
  -6.595255e+05   6.512582e+05
  -1.010484e+06   8.332608e+04
  -7.511166e+05  -4.799170e+05
  -2.828287e+05  -7.165005e+05
   1.057028e+05  -7.016240e+05
   4.388608e+05  -5.387187e+05
   6.715961e+05  -2.265177e+05
   6.278424e+05   9.332022e+04
   3.648333e+05   1.989019e+05
   1.707417e+05   1.620453e+05
   1.300265e+05   2.607824e+05
   5.938607e+04   4.653881e+05
  -8.237826e+04   4.383102e+05
  -1.127975e+05   1.366898e+05
  -2.187627e+04  -4.421713e+04
  -4.374791e+04   9.689211e+04
  -2.177468e+05   2.392873e+05
  -2.792821e+05   9.740405e+04
  -1.402957e+05  -1.097829e+05
  -6.940163e+04  -7.956269e+04
  -1.908439e+05   4.465866e+04
  -2.260667e+05  -3.338411e+04
  -1.492913e+04  -2.222747e+05
   1.277083e+05  -2.419965e+05
  -3.580854e+04  -1.566736e+05
  -1.444661e+05  -2.206232e+05
   2.073231e+05  -3.114682e+05
   6.684108e+05  -5.098880e+04
   5.170068e+05   4.842756e+05
  -2.299473e+05   6.880463e+05
  -7.273986e+05   2.369267e+05
  -4.300871e+05  -4.171277e+05
   2.316395e+05  -6.039268e+05
   5.161093e+05  -2.123265e+05
   2.656764e+05   3.065905e+05
  -1.362401e+05   4.986455e+05
  -3.483744e+05   2.653160e+05
  -2.936280e+05  -1.607346e+05
  -4.694278e+04  -4.049597e+05
   1.885782e+05  -2.517916e+05
   1.624602e+05   8.832890e+04
  -1.014833e+05   1.582712e+05
  -2.192299e+05  -1.592745e+05
   6.380905e+04  -4.255397e+05
   4.553771e+05  -2.135344e+05
   4.751428e+05   2.955691e+05
   1.011590e+05   5.535025e+05
  -2.589212e+05   3.517635e+05
  -3.520881e+05  -1.906479e+04
  -2.828834e+05  -2.491965e+05
  -1.606759e+05  -3.142772e+05
   6.819502e+04  -2.787156e+05
   3.479678e+05  -1.211476e+05
   4.206990e+05   1.177447e+05
   1.859417e+05   2.554885e+05
  -9.864689e+04   1.933911e+05
  -1.650690e+05   6.125391e+04
  -8.143586e+04   9.908081e+03
  -5.855222e+04   5.261720e+03
  -9.149073e+04  -4.599118e+04
  -2.701683e+04  -1.051539e+05
   1.287961e+05  -8.200292e+04
   2.114762e+05   1.172778e+03
   1.580587e+05   6.966342e+04
   5.887035e+04   1.316583e+05
  -2.949507e+04   2.129442e+05
  -1.362120e+05   2.379923e+05
  -2.412974e+05   1.285499e+05
  -2.597430e+05  -4.077710e+04
  -1.831956e+05  -1.394975e+05
  -9.417461e+04  -1.817949e+05
  -1.786250e+04  -2.629868e+05
   1.016060e+05  -3.320939e+05
   2.484926e+05  -2.241489e+05
   2.996020e+05   6.021179e+04
   1.957719e+05   2.893037e+05
   3.452830e+04   2.794640e+05
  -6.356399e+04   1.025825e+05
  -8.097603e+04  -4.830781e+04
  -5.159071e+04  -7.829214e+04
   5.901062e+03  -1.140941e+04
   4.745225e+04   8.690680e+04
   1.131613e+04   1.288440e+05
  -6.315805e+04   5.330291e+04
  -4.273440e+04  -6.015758e+04
   8.114746e+04  -3.317356e+04
   1.049115e+05   1.571540e+05
  -1.152433e+05   2.736380e+05
  -3.961840e+05   1.023755e+05
  -4.093617e+05  -2.386127e+05
  -9.872642e+04  -4.261707e+05
   2.487639e+05  -3.226767e+05
   3.559335e+05  -8.750447e+04
   2.292411e+05   7.690552e+04
   5.485479e+04   1.242745e+05
  -3.235730e+04   9.790877e+04
  -1.352489e+04   3.311063e+04
   6.180072e+04  -1.208136e+04
   1.036518e+05   3.539305e+04
   3.958279e+04   1.417825e+05
  -8.410551e+04   1.585330e+05
  -1.243555e+05   2.600726e+04
  -2.713886e+04  -1.047334e+05
   7.785544e+04  -5.900555e+04
   4.205613e+04   1.162052e+05
  -1.041348e+05   2.066772e+05
  -2.032298e+05   9.942124e+04
  -1.724701e+05  -1.051032e+05
  -6.309809e+04  -2.356164e+05
   4.542128e+04  -2.133645e+05
   1.098084e+05  -7.695905e+04
   9.929732e+04   6.709470e+04
   1.420774e+04   1.058840e+05
  -6.229553e+04   9.676032e+03
  -2.832082e+04  -1.150482e+05
   9.234922e+04  -1.216858e+05
   1.533834e+05   5.105552e+03
   7.274266e+04   1.268493e+05
  -5.580555e+04   1.200986e+05
  -8.775851e+04   1.464745e+04
  -6.279196e+03  -6.304773e+04
   8.088832e+04  -3.618651e+04
   8.073350e+04   6.325105e+04
  -4.963984e+03   1.409406e+05
  -1.087930e+05   1.163497e+05
  -1.532513e+05  -9.554869e+03
  -9.841977e+04  -1.339515e+05
   1.504445e+04  -1.381309e+05
   8.428464e+04  -2.478537e+04
   5.070284e+04   7.116783e+04
  -2.497470e+04   4.539172e+04
  -3.878228e+04  -4.623185e+04
   1.923072e+04  -7.185233e+04
   5.770769e+04  -2.394864e+02
   1.239942e+04   7.300353e+04
  -7.253407e+04   5.858205e+04
  -1.049939e+05  -3.224146e+04
  -4.458988e+04  -1.230704e+05
   7.171657e+04  -1.435567e+05
   1.655388e+05  -6.524297e+04
   1.656183e+05   7.318168e+04
   6.157190e+04   1.675305e+05
  -6.840465e+04   1.352397e+05
  -1.178389e+05   2.015047e+04
  -6.526262e+04  -4.509382e+04
   1.585648e+03  -4.918561e+03
  -1.443981e+03   4.922786e+04
  -5.040811e+04   1.218587e+04
  -5.600581e+04  -8.703465e+04
   1.435005e+04  -1.277631e+05
   9.882169e+04  -5.295314e+04
   1.148172e+05   7.722448e+04
   3.592643e+04   1.655220e+05
  -9.432339e+04   1.544735e+05
  -1.896550e+05   4.078670e+04
  -1.715253e+05  -1.198444e+05
  -3.816167e+04  -2.204194e+05
   1.101743e+05  -1.806312e+05
   1.549979e+05  -4.066925e+04
   8.454287e+04   6.844516e+04
   4.324596e+03   7.022843e+04
   7.669152e+03   1.881542e+04
   6.764547e+04   9.045877e+03
   8.316497e+04   5.454256e+04
   8.146034e+03   9.083195e+04
  -9.828750e+04   6.748424e+04
  -1.413849e+05  -3.970372e+03
  -8.324816e+04  -7.502646e+04
   3.094208e+04  -9.598241e+04
   1.154306e+05  -4.230480e+04
   1.107329e+05   5.527497e+04
   2.814804e+04   1.152394e+05
  -6.298811e+04   8.038297e+04
  -9.924121e+04  -9.972839e+03
  -7.714849e+04  -5.879432e+04
  -4.135906e+04  -2.850811e+04
  -2.667387e+04   1.543403e+04
  -2.398360e+04  -7.299349e+03
  -1.660120e+03  -8.937713e+04
   5.139907e+04  -1.443013e+05
   1.073871e+05  -1.026892e+05
   1.204753e+05   1.761313e+04
   7.004643e+04   1.288207e+05
  -1.122876e+04   1.497794e+05
  -6.022058e+04   7.581025e+04
  -4.516367e+04  -1.744593e+04
   1.107707e+03  -4.793710e+04
   2.127312e+04  -9.632599e+03
  -7.877423e+02   3.151408e+04
  -3.092212e+04   2.541296e+04
  -3.504433e+04  -4.271650e+03
  -1.593036e+04  -5.331081e+03
   1.311352e+03   2.597102e+04
  -1.569054e+03   4.374927e+04
  -2.614109e+04   1.652043e+04
  -5.534532e+04  -3.854859e+04
  -5.564889e+04  -8.192221e+04
  -6.880517e+03  -8.466168e+04
   5.773882e+04  -3.839881e+04
   7.002205e+04   3.422967e+04
   9.994910e+03   7.454351e+04
  -5.258440e+04   3.156220e+04
  -3.502701e+04  -6.753496e+04
   5.145924e+04  -1.204259e+05
   1.107492e+05  -5.635671e+04
   7.869720e+04   7.357908e+04
  -6.226465e+03   1.451195e+05
  -6.043205e+04   9.727934e+04
  -4.984818e+04  -7.391794e+03
  -6.508005e+03  -6.162508e+04
   2.244425e+04  -2.686404e+04
   1.337652e+04   4.190545e+04
  -2.985024e+04   6.428317e+04
  -7.728692e+04   1.194669e+04
  -8.146217e+04  -7.049815e+04
  -1.657256e+04  -1.074702e+05
   7.963696e+04  -6.066583e+04
   1.246180e+05   3.286222e+04
   7.078650e+04   9.275515e+04
  -3.852222e+04   7.263673e+04
  -1.064500e+05   2.667888e+03
  -7.892647e+04  -4.902692e+04
   2.604224e+03  -4.855092e+04
   5.003325e+04  -1.959286e+04
   2.755691e+04  -2.822521e+03
  -1.073107e+04  -1.034234e+04
   6.853215e+03  -2.290613e+04
   7.117105e+04  -1.649667e+04
   9.610301e+04   1.676929e+04
   2.977878e+04   6.275831e+04
  -7.035626e+04   8.955715e+04
  -1.047759e+05   6.715983e+04
  -5.462563e+04  -6.514549e+02
   5.945539e+03  -6.615776e+04
   1.675881e+04  -7.709642e+04
   5.944756e+02  -3.266542e+04
   6.407370e+03   1.350838e+04
   2.961068e+04   1.672441e+04
   3.015850e+04  -5.037271e+03
   3.093894e+03   3.842435e+02
  -1.846315e+04   4.215425e+04
  -2.244418e+04   6.478018e+04
  -3.022575e+04   1.763604e+04
  -4.306000e+04  -7.171573e+04
  -2.447728e+04  -1.187148e+05
   3.838258e+04  -7.559648e+04
   9.293635e+04   1.661526e+04
   7.945456e+04   7.711703e+04
   1.306186e+04   7.019181e+04
  -3.240647e+04   2.824212e+04
  -1.926305e+04   1.565477e+03
   1.187235e+04   5.359734e+03
   4.193916e+03   1.825142e+04
  -4.008708e+04   1.646003e+04
  -6.674081e+04  -2.381007e+03
  -3.778543e+04  -2.335380e+04
   2.611216e+04  -3.034022e+04
   6.854929e+04  -1.651098e+04
   5.184170e+04   1.236703e+04
  -9.806402e+03   3.801605e+04
  -6.422261e+04   3.703378e+04
  -6.866300e+04   1.872270e+02
  -2.683277e+04  -4.953522e+04
   2.136076e+04  -6.786211e+04
   4.362952e+04  -3.360653e+04
   4.067014e+04   1.890374e+04
   2.992037e+04   3.078502e+04
   2.096510e+04  -8.970800e+03
   1.588325e+04  -4.091196e+04
   1.855312e+04  -6.120565e+03
   2.601926e+04   7.197416e+04
   1.940983e+04   1.079712e+05
  -1.461486e+04   5.960207e+04
  -5.428248e+04  -1.972587e+04
  -5.792349e+04  -5.050937e+04
  -1.727182e+04  -2.184512e+04
   2.408026e+04   1.288174e+04
   2.104339e+04   1.693860e+04
  -1.728967e+04   6.108626e+03
  -4.138512e+04   3.390866e+03
  -2.421169e+04  -1.694439e+02
   1.057421e+04  -1.866029e+04
   2.507181e+04  -3.493261e+04
   1.235176e+04  -2.236683e+04
  -4.585654e+03   1.028040e+04
  -6.375098e+03   2.682726e+04
   3.525813e+03   1.435717e+04
   9.026704e+03  -1.928490e+03
   6.315644e+02  -1.982648e+02
  -1.523899e+04   6.632162e+03
  -2.109072e+04  -4.252430e+03
  -4.997359e+03  -2.617640e+04
   2.294512e+04  -2.871889e+04
   3.543338e+04   1.168982e+03
   1.690186e+04   3.955286e+04
  -1.574777e+04   5.035122e+04
  -3.110028e+04   2.285487e+04
  -2.048763e+04  -1.761743e+04
  -5.555947e+03  -3.424763e+04
  -6.730482e+03  -1.547399e+04
  -1.748961e+04   1.145915e+04
  -1.778614e+04   9.002617e+03
  -1.862733e+03  -2.556434e+04
   1.933243e+04  -5.192588e+04
