
 $NMID
 id='ANONYMOUS ', fmtdat='(2E16.6)'
 volume=1.0
 tramp=1.0
 $END
  -5.976479e+07  -2.132055e+06
  -3.441691e+07  -3.882458e+07
   9.790737e+06  -4.033654e+07
   3.005581e+07  -1.394848e+07
   1.700188e+07   8.653338e+06
  -4.150273e+06   9.737114e+06
  -1.030245e+07  -2.065846e+06
  -2.216550e+06  -1.053367e+07
   7.171462e+06  -9.297792e+06
   1.027085e+07  -1.441776e+06
   7.045231e+06   6.779268e+06
   5.095226e+05   8.952322e+06
  -4.242760e+06   2.773345e+06
  -2.461595e+06  -5.600912e+06
   4.288378e+06  -6.489602e+06
   8.208156e+06   1.873611e+06
   4.160670e+06   1.094565e+07
  -4.541193e+06   1.223197e+07
  -1.089916e+07   5.834050e+06
  -1.137422e+07  -2.502688e+06
  -6.870367e+06  -8.153925e+06
  -5.201967e+05  -9.349969e+06
   3.471346e+06  -6.496624e+06
   2.451160e+06  -2.716542e+06
  -8.185488e+05  -1.971054e+06
  -2.068458e+05  -4.088413e+06
   5.515998e+06  -4.378013e+06
   9.904629e+06  -3.184153e+05
   7.227858e+06   4.449660e+06
   2.925880e+05   5.296152e+06
  -3.741671e+06   2.688602e+06
  -2.568098e+06   1.847316e+05
   3.756616e+05  -7.345306e+05
   2.034531e+06  -4.666833e+05
   2.141095e+06   1.290538e+06
   7.508395e+05   3.913637e+06
  -1.919074e+06   4.030908e+06
  -3.527728e+06  -4.448933e+04
  -1.866968e+06  -3.882531e+06
   8.614554e+05  -2.228335e+06
   3.821969e+05   2.343260e+06
  -2.592642e+06   2.203176e+06
  -2.384775e+06  -3.503756e+06
   2.969544e+06  -6.384796e+06
   7.580123e+06  -7.538966e+05
   5.193775e+06   7.610709e+06
  -2.434082e+06   8.996939e+06
  -7.942937e+06   2.262469e+06
  -6.994498e+06  -4.953846e+06
  -1.540203e+06  -6.326174e+06
   3.744284e+06  -2.564200e+06
   5.286235e+06   1.912801e+06
   2.231144e+06   3.765675e+06
  -2.700298e+06   2.155347e+06
  -4.699878e+06  -1.219666e+06
  -1.882506e+06  -2.976998e+06
   1.878317e+06  -1.360895e+06
   1.708048e+06   1.160754e+06
  -1.542641e+06   8.233223e+05
  -2.522733e+06  -2.139856e+06
   9.747605e+05  -3.745205e+06
   5.139851e+06  -1.785802e+06
   5.556450e+06   1.780964e+06
   2.224642e+06   4.345814e+06
  -2.047722e+06   5.410195e+06
  -5.269297e+06   4.838236e+06
  -6.442408e+06   1.641881e+06
  -4.700676e+06  -3.378199e+06
  -7.886758e+05  -6.405114e+06
   2.190212e+06  -4.816791e+06
   1.957591e+06  -1.050797e+06
   8.495563e+04   4.426464e+05
  -2.120875e+05  -9.378794e+05
   1.515888e+06  -1.861238e+06
   2.817740e+06  -3.127450e+05
   2.039160e+06   1.882754e+06
   5.434434e+04   2.098342e+06
  -1.465703e+06   1.701617e+05
  -1.571297e+06  -2.088919e+06
   7.446746e+04  -2.945160e+06
   2.851080e+06  -1.641443e+06
   4.585704e+06   1.309219e+06
   3.269202e+06   3.997628e+06
  -1.580921e+05   4.458358e+06
  -2.511915e+06   2.808140e+06
  -2.437936e+06   1.092360e+06
  -1.957827e+06   5.730884e+05
  -3.030525e+06   3.114004e+05
  -4.392090e+06  -9.970292e+05
  -3.412471e+06  -2.977168e+06
   5.607210e+04  -4.185713e+06
   3.394323e+06  -3.811802e+06
   4.275590e+06  -2.015137e+06
   2.682586e+06   4.645178e+05
   2.628626e+05   2.245205e+06
  -1.132629e+06   1.943389e+06
  -5.757590e+05  -3.268941e+04
   1.134186e+06  -1.292346e+06
   1.968135e+06  -3.338455e+05
   9.209500e+05   1.271296e+06
  -5.469873e+05   1.102608e+06
  -3.702732e+05  -4.259756e+05
   1.191680e+06  -5.904412e+05
   1.839033e+06   1.558305e+06
   3.586030e+05   3.689120e+06
  -1.972600e+06   3.322969e+06
  -3.317395e+06   7.956805e+05
  -3.198600e+06  -1.736689e+06
  -2.052254e+06  -2.879553e+06
  -3.001251e+05  -2.601819e+06
   1.296894e+06  -1.417181e+06
   1.589326e+06  -1.786483e+05
   4.968553e+05   6.805165e+04
  -3.273708e+05  -7.810239e+05
   4.989694e+05  -1.364832e+06
   2.002070e+06  -5.062556e+05
   2.045174e+06   1.029688e+06
   3.078700e+05   1.486581e+06
  -1.227728e+06   5.140298e+05
  -8.490155e+05  -5.106107e+05
   9.133095e+05  -4.359154e+05
   2.155126e+06   4.965021e+05
   1.621276e+06   1.463882e+06
  -3.906643e+05   1.932482e+06
  -2.410894e+06   1.524180e+06
  -2.816362e+06   1.347032e+05
  -1.182191e+06  -1.359695e+06
   1.014642e+06  -1.515894e+06
   1.630103e+06  -1.318271e+05
   1.768742e+05   1.126077e+06
  -1.581731e+06   6.869505e+05
  -1.706112e+06  -8.931880e+05
  -2.290464e+05  -1.700280e+06
   1.187622e+06  -9.047757e+05
   1.253406e+06   4.228684e+05
   1.790423e+05   8.229353e+05
  -8.350884e+05   1.245116e+04
  -7.106642e+05  -1.110482e+06
   6.396316e+05  -1.427932e+06
   2.060504e+06  -4.742693e+05
   2.027850e+06   1.151982e+06
   2.959243e+05   2.132171e+06
  -1.553697e+06   1.604135e+06
  -1.770637e+06   1.180872e+05
  -4.536505e+05  -9.156155e+05
   7.164601e+05  -7.751475e+05
   6.246808e+05  -4.881089e+04
  -1.584970e+05   3.222029e+05
  -4.792422e+05   1.458878e+05
  -5.628340e+04  -6.494085e+04
   4.875290e+05   1.530668e+05
   4.767414e+05   7.529187e+05
  -2.977709e+05   1.204891e+06
  -1.457930e+06   8.358157e+05
  -2.094910e+06  -5.234407e+05
  -1.400235e+06  -2.043125e+06
   3.306963e+05  -2.437323e+06
   1.699290e+06  -1.327174e+06
   1.677619e+06   2.314046e+05
   7.800293e+05   9.224901e+05
   2.733480e+05   6.067017e+05
   5.076933e+05   1.995616e+05
   6.657123e+05   3.605142e+05
   6.460713e+04   8.075367e+05
  -9.451043e+05   8.651932e+05
  -1.475632e+06   2.370545e+05
  -9.966849e+05  -7.744996e+05
   3.450991e+05  -1.431348e+06
   1.792329e+06  -9.794731e+05
   2.240972e+06   6.028348e+05
   1.029706e+06   2.190011e+06
  -1.167942e+06   2.355677e+06
  -2.652677e+06   9.036576e+05
  -2.336469e+06  -8.162372e+05
  -8.540457e+05  -1.405585e+06
   2.834300e+05  -9.053657e+05
   3.883126e+05  -4.562582e+05
   5.570259e+04  -7.624076e+05
   1.341020e+05  -1.354534e+06
   7.468791e+05  -1.303093e+06
   1.343871e+06  -2.741788e+05
   1.315906e+06   1.151027e+06
   4.839861e+05   1.942626e+06
  -6.894093e+05   1.428396e+06
  -1.299250e+06  -6.834167e+04
  -7.550596e+05  -1.355685e+06
   4.878056e+05  -1.401225e+06
   1.231301e+06  -3.253676e+05
   7.964091e+05   7.957364e+05
  -2.087938e+05   1.115181e+06
  -6.254379e+05   7.637383e+05
  -1.246208e+05   3.997994e+05
   4.326027e+05   3.489108e+05
   4.929739e+04   3.866393e+05
  -1.190160e+06   1.556689e+05
  -2.099389e+06  -4.384009e+05
  -1.593550e+06  -1.139743e+06
   1.310499e+05  -1.475894e+06
   1.696016e+06  -1.096000e+06
   1.882184e+06  -1.780192e+05
   8.132702e+05   5.780336e+05
  -3.050221e+05   5.840268e+05
  -5.312891e+05  -4.524950e+03
  -2.568980e+04  -4.516273e+05
   4.467761e+05  -2.496919e+05
   4.783712e+05   3.662716e+05
   2.563725e+05   7.338925e+05
   1.056906e+05   4.868202e+05
   1.404474e+05  -6.862923e+04
   2.727824e+05  -2.568812e+05
   2.630818e+05   2.512261e+05
  -1.706490e+05   9.824413e+05
  -9.586296e+05   1.047923e+06
  -1.424644e+06   1.417768e+05
  -8.625099e+05  -9.607702e+05
   4.680557e+05  -1.167556e+06
   1.310239e+06  -3.212310e+05
   7.246392e+05   6.007370e+05
  -7.482698e+05   6.201877e+05
  -1.590504e+06  -1.857721e+05
  -9.362051e+05  -9.286477e+05
   5.678220e+05  -9.530129e+05
   1.530738e+06  -3.702003e+05
   1.209453e+06   2.739506e+05
   9.502899e+04   5.186481e+05
  -6.742466e+05   2.273712e+05
  -3.885589e+05  -3.255161e+05
   5.970737e+05  -5.229757e+05
   1.199352e+06   1.017063e+05
   6.678846e+05   1.208972e+06
  -6.231423e+05   1.717488e+06
  -1.518143e+06   8.667264e+05
  -1.245327e+06  -8.008634e+05
  -1.410911e+05  -1.813022e+06
   8.000152e+05  -1.259809e+06
   9.219373e+05   2.409267e+05
   3.616098e+05   1.227048e+06
  -2.958582e+05   9.519431e+05
  -5.825487e+05   4.746372e+04
  -4.307298e+05  -3.946355e+05
  -1.312928e+05  -1.362976e+05
  -6.404645e+04   8.547557e+04
  -3.128872e+05  -3.300094e+05
  -4.932376e+05  -1.006540e+06
  -1.149482e+05  -1.091834e+06
   7.793556e+05  -3.644456e+05
   1.467962e+06   5.269238e+05
   1.228093e+06   8.963980e+05
   1.556714e+05   7.213387e+05
  -8.488670e+05   3.957678e+05
  -9.911849e+05   1.350597e+05
  -3.891553e+05  -8.637039e+04
   1.434409e+05  -2.265352e+05
   8.086475e+04  -1.871256e+05
  -2.249398e+05  -8.283504e+04
  -6.257187e+04  -1.343988e+05
   6.349316e+05  -2.330352e+05
   1.066141e+06   3.369428e+04
   4.769493e+05   7.238818e+05
  -8.520492e+05   1.193048e+06
  -1.776738e+06   7.434889e+05
  -1.470468e+06  -4.585814e+05
  -2.522271e+05  -1.427678e+06
   8.325573e+05  -1.385562e+06
   1.082746e+06  -5.429610e+05
   6.520554e+05   2.314811e+05
   1.435079e+05   3.687736e+05
  -3.649593e+04   9.152225e+04
   9.634549e+04   1.510921e+04
   2.730022e+05   3.952032e+05
   2.084743e+05   8.276192e+05
  -1.932183e+05   6.935722e+05
  -6.797152e+05  -1.121721e+05
  -7.502267e+05  -9.572987e+05
  -1.379658e+05  -1.055833e+06
   7.449512e+05  -2.744261e+05
   1.046264e+06   7.192375e+05
   3.537010e+05   1.118113e+06
  -7.352177e+05   7.017766e+05
  -1.155591e+06  -9.303277e+04
  -5.479331e+05  -6.664907e+05
   3.131973e+05  -7.209755e+05
   4.314459e+05  -3.721790e+05
  -2.110431e+05   5.475056e+02
  -6.498692e+05   2.951174e+04
  -1.545735e+05  -3.246779e+05
   8.561170e+05  -6.612435e+05
   1.327071e+06  -4.830914e+05
   8.090756e+05   2.332864e+05
  -1.173463e+05   8.963254e+05
  -6.192122e+05   8.707354e+05
  -4.778372e+05   1.823324e+05
  -6.458844e+04  -4.711879e+05
   2.463727e+05  -4.586699e+05
   3.521464e+05   1.210596e+05
   2.496885e+05   5.911254e+05
  -5.449457e+04   4.669354e+05
  -3.978561e+05  -3.833441e+04
  -4.887496e+05  -3.230886e+05
  -2.438220e+05  -1.274262e+05
   4.973540e+04   1.831662e+05
   8.250557e+04   1.072905e+05
  -5.675661e+04  -3.357287e+05
  -1.052429e+04  -6.005186e+05
   3.061127e+05  -2.845009e+05
   5.082109e+05   3.509897e+05
   2.126335e+05   6.564695e+05
  -4.024124e+05   3.297332e+05
  -6.948827e+05  -2.733199e+05
  -2.653119e+05  -5.727833e+05
   5.354146e+05  -3.655023e+05
   9.183353e+05   7.901137e+04
   4.899789e+05   3.933873e+05
  -3.076598e+05   4.295888e+05
  -6.653549e+05   2.537636e+05
  -2.858574e+05   1.899921e+04
   3.102376e+05  -9.465149e+04
   3.963269e+05   2.876401e+04
  -1.408128e+05   2.663095e+05
  -7.020962e+05   2.626701e+05
