
 $NMID
 id='ANONYMOUS ', fmtdat='(2E16.6)'
 volume=1.0
 tramp=1.0
 $END
  -1.731066e+07  -1.130462e+05
  -1.222255e+07  -7.417171e+06
  -8.123530e+05  -1.095740e+07
   7.479289e+06  -8.362427e+06
   7.071292e+06  -1.606567e+06
   8.687054e+05   3.379262e+06
  -3.931987e+06   2.222742e+06
  -3.347565e+06  -2.916585e+06
   6.407174e+05  -5.629895e+06
   3.549686e+06  -2.673702e+06
   3.037177e+06   2.475178e+06
   2.751696e+05   4.057542e+06
  -1.863336e+06   6.759645e+05
  -1.404553e+06  -3.614066e+06
   1.147651e+06  -4.176543e+06
   3.201549e+06  -5.538598e+05
   2.441111e+06   3.635400e+06
  -7.388825e+05   4.660430e+06
  -3.457002e+06   2.126957e+06
  -3.373588e+06  -1.181419e+06
  -1.180820e+06  -2.450168e+06
   3.709695e+05  -1.590077e+06
  -3.037836e+05  -8.032981e+05
  -1.915768e+06  -1.683977e+06
  -1.856688e+06  -3.328386e+06
   8.561666e+05  -3.566241e+06
   4.300228e+06  -1.587296e+06
   5.309143e+06   1.189039e+06
   2.638439e+06   2.660805e+06
  -1.431883e+06   1.946210e+06
  -3.086427e+06  -1.276706e+05
  -9.281238e+05  -1.811407e+06
   2.456897e+06  -1.645553e+06
   3.419881e+06   4.148263e+05
   1.328049e+06   2.676627e+06
  -1.124340e+06   3.001558e+06
  -1.469498e+06   1.015514e+06
  -1.385287e+05  -1.194976e+06
   7.704740e+05  -1.212191e+06
   2.644019e+05   9.014878e+05
  -8.962224e+05   2.555973e+06
  -1.611562e+06   1.648274e+06
  -1.416806e+06  -9.175843e+05
  -3.494472e+05  -2.270365e+06
   1.036049e+06  -9.083296e+05
   1.489795e+06   1.629464e+06
   2.209173e+04   2.564598e+06
  -2.501298e+06   8.836800e+05
  -3.591943e+06  -1.790112e+06
  -1.744641e+06  -3.059255e+06
   1.593177e+06  -2.054462e+06
   3.377357e+06   7.237667e+04
   2.182310e+06   1.496660e+06
  -4.716456e+05   1.325182e+06
  -1.955583e+06   1.181755e+05
  -1.203655e+06  -8.181620e+05
   5.357646e+05  -6.254993e+05
   1.241483e+06   3.920950e+05
   2.151323e+05   1.113438e+06
  -1.251876e+06   7.213483e+05
  -1.294310e+06  -4.462175e+05
   3.702564e+05  -1.180894e+06
   1.915568e+06  -5.789889e+05
   1.358631e+06   1.037324e+06
  -1.114342e+06   2.326539e+06
  -3.264706e+06   2.061303e+06
  -3.277274e+06   1.973172e+05
  -1.582965e+06  -2.039028e+06
   1.979264e+04  -3.174787e+06
   5.253432e+05  -2.768341e+06
   4.710298e+05  -1.688634e+06
   8.024844e+05  -1.022540e+06
   1.639703e+06  -8.060970e+05
   2.279430e+06  -1.603868e+05
   2.003379e+06   1.256966e+06
   7.130200e+05   2.397226e+06
  -9.383725e+05   1.883207e+06
  -1.868386e+06  -2.018652e+05
  -1.313656e+06  -2.103733e+06
   4.102795e+05  -2.160091e+06
   1.975134e+06  -4.743420e+05
   2.162031e+06   1.374094e+06
   1.005274e+06   2.040076e+06
  -3.163743e+05   1.541414e+06
  -7.839015e+05   8.294514e+05
  -6.016648e+05   6.247078e+05
  -8.151154e+05   7.885663e+05
  -1.892576e+06   6.261821e+05
  -2.904130e+06  -3.476147e+05
  -2.377522e+06  -1.848591e+06
  -4.239526e+04  -2.912442e+06
   2.515016e+06  -2.635385e+06
   3.247037e+06  -1.017414e+06
   1.720348e+06   8.751747e+05
  -4.349624e+05   1.715681e+06
  -1.241674e+06   1.063322e+06
  -3.297163e+05  -2.221203e+05
   9.684276e+05  -7.932674e+05
   1.238040e+06  -1.637543e+05
   3.737585e+05   7.808628e+05
  -5.795021e+05   7.811497e+05
  -6.140845e+05  -2.610543e+05
   3.292276e+05  -1.002854e+06
   1.370095e+06  -1.670363e+05
   1.414265e+06   1.804765e+06
   6.621639e+04   2.993966e+06
  -1.896967e+06   2.029386e+06
  -3.006450e+06  -4.005981e+05
  -2.345625e+06  -2.277292e+06
  -4.569969e+05  -2.318913e+06
   1.105115e+06  -1.061390e+06
   1.250806e+06   1.152347e+04
   3.587874e+05   5.176898e+04
  -2.509696e+05  -5.457404e+05
   2.059480e+05  -8.380886e+05
   1.150903e+06  -3.663312e+05
   1.348887e+06   4.673731e+05
   3.716505e+05   8.708424e+05
  -8.085738e+05   4.594807e+05
  -8.241332e+05  -3.440481e+05
   5.196210e+05  -6.798047e+05
   1.877174e+06  -7.263491e+04
   1.718639e+06   1.068817e+06
  -1.698950e+04   1.777527e+06
  -1.804923e+06   1.396503e+06
  -2.094416e+06   1.946262e+05
  -8.350332e+05  -8.414088e+05
   6.114574e+05  -8.879721e+05
   9.185273e+05  -6.406292e+04
   7.212863e+03   6.632571e+05
  -1.074900e+06   4.518275e+05
  -1.257265e+06  -5.134186e+05
  -3.999691e+05  -1.205661e+06
   6.740103e+05  -8.980233e+05
   9.896064e+05   2.040693e+04
   3.480459e+05   5.098876e+05
  -4.646557e+05   6.726897e+04
  -4.552701e+05  -7.485519e+05
   5.117862e+05  -9.761015e+05
   1.490316e+06  -2.579718e+05
   1.407073e+06   8.608179e+05
   2.170494e+05   1.488108e+06
  -1.019988e+06   1.157770e+06
  -1.238888e+06   1.860446e+05
  -4.292876e+05  -6.108917e+05
   4.618664e+05  -6.263774e+05
   5.795425e+05  -1.758242e+04
  -1.598608e+04   4.744740e+05
  -5.489513e+05   3.389985e+05
  -4.189582e+05  -1.359518e+05
   1.774041e+05  -2.365765e+05
   4.817109e+05   2.784922e+05
  -1.135744e+04   8.359455e+05
  -9.771139e+05   6.690664e+05
  -1.512463e+06  -3.291898e+05
  -1.004902e+06  -1.451198e+06
   2.397033e+05  -1.817428e+06
   1.271768e+06  -1.144504e+06
   1.408646e+06   3.556745e+04
   8.299894e+05   8.512912e+05
   2.589891e+05   8.527424e+05
   1.403183e+05   3.806022e+05
   2.357387e+05   1.474063e+05
   2.483172e+04   4.154550e+05
  -6.018207e+05   6.857202e+05
  -1.131647e+06   3.162226e+05
  -9.170003e+05  -6.181225e+05
   1.332411e+05  -1.268167e+06
   1.334710e+06  -8.772463e+05
   1.726844e+06   3.902851e+05
   8.906294e+05   1.555583e+06
  -6.401053e+05   1.718141e+06
  -1.786499e+06   8.231101e+05
  -1.820482e+06  -3.745226e+05
  -9.302794e+05  -1.030397e+06
   5.674609e+04  -9.286199e+05
   4.785620e+05  -5.585731e+05
   3.675152e+05  -5.033536e+05
   2.441587e+05  -7.709860e+05
   4.742526e+05  -7.998440e+05
   8.696050e+05  -1.579429e+05
   9.082190e+05   8.561649e+05
   3.248853e+05   1.427976e+06
  -5.331576e+05   1.040235e+06
  -9.727490e+05  -7.113971e+03
  -6.185536e+05  -8.930920e+05
   1.919554e+05  -1.017228e+06
   7.247733e+05  -4.428787e+05
   5.798733e+05   2.844375e+05
   6.368682e+04   6.636788e+05
  -2.011688e+05   6.112193e+05
   6.700396e+03   4.029484e+05
   2.632060e+05   3.080251e+05
   2.560405e+03   3.033258e+05
  -7.803887e+05   1.544299e+05
  -1.408942e+06  -2.558509e+05
  -1.166715e+06  -7.408551e+05
  -7.190602e+04  -9.668383e+05
   1.045348e+06  -7.593170e+05
   1.313030e+06  -2.520575e+05
   6.675336e+05   2.131013e+05
  -1.307759e+05   3.327047e+05
  -3.366422e+05   8.780996e+04
   3.794545e+04  -1.974281e+05
   3.927572e+05  -1.373932e+05
   3.217004e+05   2.717596e+05
   2.268278e+04   5.705716e+05
  -7.402674e+04   3.557378e+05
   1.287881e+05  -1.574991e+05
   3.316431e+05  -3.135456e+05
   2.234508e+05   1.684322e+05
  -2.100698e+05   7.658338e+05
  -6.940267e+05   7.328483e+05
  -8.477885e+05   6.194119e+03
  -4.393078e+05  -6.984031e+05
   3.370586e+05  -7.023588e+05
   8.405805e+05  -8.236781e+04
   4.977437e+05   4.932298e+05
  -5.113734e+05   4.871639e+05
  -1.243924e+06  -5.600745e+04
  -9.016283e+05  -6.574850e+05
   2.721274e+05  -8.440767e+05
   1.187100e+06  -4.922279e+05
   1.044441e+06   9.626183e+04
   1.493290e+05   4.268659e+05
  -4.837841e+05   2.444824e+05
  -2.365119e+05  -1.864886e+05
   5.121704e+05  -2.962121e+05
   8.563026e+05   2.044691e+05
   3.279850e+05   9.472139e+05
  -6.464721e+05   1.182432e+06
  -1.205183e+06   5.039403e+05
  -8.978713e+05  -6.703015e+05
  -5.551600e+04  -1.384311e+06
   6.208016e+05  -1.014612e+06
   7.236397e+05   9.051808e+04
   3.653117e+05   9.142825e+05
  -1.011042e+05   7.970097e+05
  -3.995764e+05   9.137578e+04
  -4.154283e+05  -3.312539e+05
  -2.041288e+05  -1.484367e+05
  -9.279521e+03   1.013688e+05
  -7.771101e+04  -1.599456e+05
  -2.998607e+05  -7.195310e+05
  -2.054877e+05  -8.542819e+05
   4.351429e+05  -3.017506e+05
   1.113418e+06   4.181017e+05
   1.034553e+06   6.963221e+05
   1.254289e+05   5.154082e+05
  -7.495661e+05   2.610736e+05
  -7.881258e+05   1.262813e+05
  -2.015920e+05   4.992195e+03
   1.531546e+05  -1.510222e+05
  -6.195555e+04  -2.159075e+05
  -2.991427e+05  -1.542502e+05
   1.164374e+04  -1.049589e+05
   6.225064e+05  -9.163622e+04
   7.690608e+05   9.211487e+04
   1.323747e+05   5.067684e+05
  -7.883712e+05   7.657376e+05
  -1.232990e+06   4.091300e+05
  -8.966789e+05  -4.438401e+05
  -8.916963e+04  -1.084241e+06
   6.142634e+05  -9.599265e+05
   8.057131e+05  -2.764597e+05
   4.890239e+05   2.700057e+05
   3.568344e+04   2.692540e+05
  -1.419570e+05  -2.647944e+04
   3.493231e+04  -8.413310e+04
   2.593313e+05   2.645861e+05
   1.860870e+05   6.232336e+05
  -1.894804e+05   4.751172e+05
  -5.176158e+05  -1.998742e+05
  -4.337816e+05  -8.157392e+05
   8.156158e+04  -7.563126e+05
   6.291705e+05  -4.044275e+04
   6.937768e+05   6.843324e+05
   1.358866e+05   8.232346e+05
  -5.801322e+05   3.926326e+05
  -7.814720e+05  -1.412766e+05
  -3.147273e+05  -4.140734e+05
   2.360018e+05  -4.024027e+05
   2.206039e+05  -2.418457e+05
  -2.706750e+05  -6.453522e+04
  -5.109288e+05  -2.344168e+04
  -6.358102e+04  -2.181948e+05
   6.570938e+05  -4.757789e+05
   9.035087e+05  -4.111871e+05
   4.792686e+05   9.500060e+04
  -1.245384e+05   6.093090e+05
  -3.788297e+05   5.822089e+05
  -2.318814e+05   4.217031e+04
   3.773751e+04  -3.937949e+05
   2.154116e+05  -2.624344e+05
   2.522018e+05   2.099443e+05
   1.447218e+05   4.484376e+05
  -7.762217e+04   2.417311e+05
  -2.830962e+05  -9.033193e+04
  -3.179991e+05  -1.783851e+05
  -1.804476e+05  -3.586488e+04
  -1.666668e+04   4.748206e+04
   7.163987e+04  -9.275240e+04
   1.275911e+05  -3.052706e+05
   2.172937e+05  -3.047839e+05
   2.866698e+05   5.913942e+03
   2.050153e+05   3.945091e+05
  -6.333427e+04   4.918276e+05
  -3.604110e+05   1.678601e+05
  -4.219767e+05  -2.955352e+05
  -1.120992e+05  -4.720446e+05
   3.758381e+05  -2.345997e+05
   6.048340e+05   1.392166e+05
   3.123311e+05   3.101894e+05
  -2.371076e+05   2.222613e+05
  -4.623924e+05   6.173570e+04
  -1.244407e+05  -7.331530e+03
   3.441831e+05   4.275862e+04
   3.264829e+05   1.646626e+05
  -2.203057e+05   2.539697e+05
  -6.897861e+05   1.437826e+05
