
 $NMID
 id='ANONYMOUS ', fmtdat='(2E16.6)'
 volume=1.0
 tramp=1.0
 $END
  -2.813119e+07   8.706572e+04
  -1.855925e+07  -1.402875e+07
   6.701287e+05  -1.814026e+07
   1.252772e+07  -1.103708e+07
   9.935051e+06  -2.770637e+05
   2.142583e+05   5.043086e+06
  -5.621562e+06   1.966532e+06
  -3.801266e+06  -4.630396e+06
   1.680519e+06  -7.245324e+06
   5.241114e+06  -3.037392e+06
   4.398922e+06   3.561660e+06
   5.492692e+05   5.643935e+06
  -2.604183e+06   1.264639e+06
  -2.026231e+06  -4.527263e+06
   1.711695e+06  -5.351634e+06
   4.622549e+06  -3.313406e+05
   3.313227e+06   5.489413e+06
  -1.377865e+06   6.865309e+06
  -5.341109e+06   3.303418e+06
  -5.487860e+06  -1.510367e+06
  -2.525529e+06  -3.911560e+06
   2.487510e+05  -3.332359e+06
   3.538830e+05  -1.947647e+06
  -1.512400e+06  -2.013656e+06
  -2.177395e+06  -3.524861e+06
   6.067072e+05  -4.324991e+06
   5.190181e+06  -2.607381e+06
   7.144764e+06   8.515910e+05
   4.074281e+06   3.337599e+06
  -1.273764e+06   2.997013e+06
  -3.764532e+06   5.440722e+05
  -1.511422e+06  -1.709034e+06
   2.384643e+06  -1.912259e+06
   3.772596e+06   1.159514e+05
   1.866884e+06   2.805084e+06
  -8.060604e+05   3.760174e+06
  -1.772804e+06   1.826911e+06
  -8.706323e+05  -1.206855e+06
   3.658678e+05  -1.982169e+06
   4.992425e+05   4.620943e+05
  -6.640841e+05   3.011282e+06
  -1.979105e+06   2.112431e+06
  -1.865530e+06  -1.483591e+06
   1.177035e+05  -3.371476e+06
   2.376726e+06  -1.033381e+06
   2.470042e+06   2.967492e+06
  -3.437526e+05   4.172531e+06
  -3.899804e+06   1.382313e+06
  -4.906038e+06  -2.509693e+06
  -2.145213e+06  -4.085081e+06
   2.152394e+06  -2.568062e+06
   4.292531e+06   2.539534e+05
   2.624904e+06   2.050713e+06
  -8.997467e+05   1.711702e+06
  -2.779675e+06  -2.517951e+04
  -1.560899e+06  -1.297717e+06
   8.480186e+05  -8.871674e+05
   1.554170e+06   5.360963e+05
  -1.030753e+04   1.220854e+06
  -1.634651e+06   3.702644e+05
  -1.087314e+06  -1.042988e+06
   1.259279e+06  -1.471855e+06
   2.863698e+06  -3.129584e+05
   1.778464e+06   1.759934e+06
  -1.373569e+06   3.348211e+06
  -4.099420e+06   3.092311e+06
  -4.422902e+06   6.553666e+05
  -2.533766e+06  -2.572480e+06
  -2.767779e+05  -4.322124e+06
   7.871361e+05  -3.633074e+06
   7.271514e+05  -1.868647e+06
   7.342045e+05  -9.739079e+05
   1.528083e+06  -1.075723e+06
   2.529084e+06  -6.396155e+05
   2.579109e+06   1.071729e+06
   1.220605e+06   2.679251e+06
  -8.082694e+05   2.304445e+06
  -2.124974e+06  -5.759375e+04
  -1.703199e+06  -2.385696e+06
   3.025548e+05  -2.698514e+06
   2.456624e+06  -8.754437e+05
   3.057268e+06   1.494833e+06
   1.693908e+06   2.713730e+06
  -2.801768e+05   2.364425e+06
  -1.209372e+06   1.366392e+06
  -1.014182e+06   8.345189e+05
  -1.119255e+06   9.174885e+05
  -2.386454e+06   7.701119e+05
  -3.686231e+06  -3.769414e+05
  -3.066554e+06  -2.246891e+06
  -1.840300e+05  -3.639219e+06
   2.966381e+06  -3.434315e+06
   3.939945e+06  -1.549058e+06
   2.244018e+06   8.587144e+05
  -2.867227e+05   2.135720e+06
  -1.379960e+06   1.478339e+06
  -4.460061e+05  -2.081363e+05
   1.123006e+06  -1.073910e+06
   1.576247e+06  -2.866166e+05
   5.787704e+05   9.884479e+05
  -6.306570e+05   1.006752e+06
  -6.864337e+05  -2.989304e+05
   4.849296e+05  -1.107119e+06
   1.664471e+06   5.219047e+04
   1.542229e+06   2.371664e+06
  -1.361124e+05   3.540291e+06
  -2.357004e+06   2.237694e+06
  -3.561789e+06  -5.495190e+05
  -2.811090e+06  -2.640365e+06
  -6.333063e+05  -2.737085e+06
   1.271392e+06  -1.367752e+06
   1.528099e+06  -8.920825e+04
   4.480421e+05   4.470388e+04
  -3.365078e+05  -6.684586e+05
   2.526314e+05  -1.087170e+06
   1.484861e+06  -5.119102e+05
   1.728570e+06   5.812723e+05
   4.666866e+05   1.111663e+06
  -9.980418e+05   5.897912e+05
  -9.865965e+05  -3.867071e+05
   6.398672e+05  -7.753435e+05
   2.237303e+06  -8.265628e+04
   2.048306e+06   1.225331e+06
   9.580111e+03   2.104948e+06
  -2.145705e+06   1.753125e+06
  -2.572042e+06   3.279881e+05
  -1.083939e+06  -1.036570e+06
   7.456762e+05  -1.186247e+06
   1.203717e+06  -1.329588e+05
   7.343365e+04   8.629777e+05
  -1.327901e+06   6.283613e+05
  -1.579431e+06  -6.041268e+05
  -4.995931e+05  -1.477991e+06
   8.332203e+05  -1.085064e+06
   1.204138e+06   4.515329e+04
   4.018765e+05   6.334953e+05
  -6.077694e+05   9.174625e+04
  -6.189573e+05  -9.188652e+05
   5.709324e+05  -1.252993e+06
   1.835898e+06  -4.208729e+05
   1.806698e+06   9.868951e+05
   3.466261e+05   1.848418e+06
  -1.230830e+06   1.489663e+06
  -1.536766e+06   2.699237e+05
  -5.384595e+05  -7.473111e+05
   5.534634e+05  -7.842119e+05
   6.856514e+05  -5.883281e+04
  -1.669505e+04   5.261613e+05
  -6.078605e+05   3.922909e+05
  -4.308165e+05  -1.186210e+05
   2.479974e+05  -2.112648e+05
   5.735349e+05   3.865652e+05
  -2.277613e+04   1.043938e+06
  -1.195637e+06   8.639847e+05
  -1.893565e+06  -3.410123e+05
  -1.324993e+06  -1.753869e+06
   2.004381e+05  -2.253199e+06
   1.503913e+06  -1.440182e+06
   1.697568e+06   1.125378e+03
   1.008584e+06   9.617274e+05
   3.556625e+05   9.371954e+05
   2.552715e+05   4.068919e+05
   3.617617e+05   2.024915e+05
   5.612490e+04   5.574473e+05
  -7.305290e+05   8.657624e+05
  -1.368460e+06   4.155389e+05
  -1.120244e+06  -7.008945e+05
   1.252600e+05  -1.518678e+06
   1.597140e+06  -1.115756e+06
   2.134814e+06   4.031874e+05
   1.149342e+06   1.887931e+06
  -7.553770e+05   2.158957e+06
  -2.204363e+06   1.070471e+06
  -2.241970e+06  -4.220535e+05
  -1.128513e+06  -1.221608e+06
   5.589968e+04  -1.082851e+06
   5.105165e+05  -6.619954e+05
   3.458981e+05  -6.602515e+05
   2.269543e+05  -1.024741e+06
   5.647279e+05  -1.053102e+06
   1.097171e+06  -2.510244e+05
   1.183413e+06   1.008481e+06
   4.853409e+05   1.748641e+06
  -5.973767e+05   1.317261e+06
  -1.198084e+06   3.226510e+04
  -7.949244e+05  -1.096636e+06
   2.255025e+05  -1.269057e+06
   9.155703e+05  -5.324582e+05
   7.297380e+05   3.967454e+05
   5.728072e+04   8.538647e+05
  -2.808492e+05   7.506428e+05
   6.209812e+03   4.691614e+05
   3.561254e+05   3.545508e+05
   2.791324e+04   3.704219e+05
  -9.799258e+05   2.210242e+05
  -1.788462e+06  -2.599455e+05
  -1.481767e+06  -8.784844e+05
  -9.644097e+04  -1.219223e+06
   1.303409e+06  -1.003526e+06
   1.626343e+06  -3.499468e+05
   8.164996e+05   2.805738e+05
  -1.687791e+05   4.414759e+05
  -4.240017e+05   1.027624e+05
   2.386542e+04  -2.807058e+05
   4.627304e+05  -2.030446e+05
   4.197037e+05   3.187327e+05
   1.004098e+05   6.984392e+05
  -3.444731e+04   4.461615e+05
   1.431096e+05  -1.748166e+05
   3.587000e+05  -3.753869e+05
   2.772697e+05   2.000092e+05
  -1.972425e+05   9.478447e+05
  -8.221779e+05   9.521001e+05
  -1.099155e+06   7.493350e+04
  -6.291332e+05  -8.444562e+05
   3.831015e+05  -9.254056e+05
   1.067627e+06  -1.836506e+05
   6.509631e+05   5.708359e+05
  -6.157877e+05   6.210568e+05
  -1.521065e+06  -2.269255e+04
  -1.095456e+06  -7.687860e+05
   3.265609e+05  -1.020012e+06
   1.423252e+06  -6.167967e+05
   1.255924e+06   8.817707e+04
   1.878070e+05   5.073588e+05
  -5.871845e+05   3.083435e+05
  -3.140760e+05  -2.318766e+05
   6.000669e+05  -4.165440e+05
   1.077501e+06   1.749359e+05
   4.975642e+05   1.140924e+06
  -6.900484e+05   1.518699e+06
  -1.442481e+06   7.216246e+05
  -1.151071e+06  -7.607912e+05
  -1.548209e+05  -1.696163e+06
   7.043843e+05  -1.265432e+06
   8.868206e+05   9.476817e+04
   4.752500e+05   1.106640e+06
  -1.107838e+05   9.648016e+05
  -4.956406e+05   1.196179e+05
  -5.068063e+05  -3.758800e+05
  -2.337611e+05  -1.591877e+05
  -1.515716e+04   1.156681e+05
  -1.419203e+05  -2.162930e+05
  -4.244838e+05  -8.795858e+05
  -2.695654e+05  -1.030814e+06
   5.562647e+05  -3.859593e+05
   1.390503e+06   4.496850e+05
   1.283271e+06   7.949826e+05
   1.794450e+05   6.341557e+05
  -8.816222e+05   3.715830e+05
  -9.523688e+05   1.918650e+05
  -2.693952e+05  -1.424781e+03
   1.695337e+05  -1.993540e+05
  -5.840633e+04  -2.424318e+05
  -3.454551e+05  -1.496421e+05
  -5.780163e+03  -1.294908e+05
   7.264844e+05  -1.682939e+05
   9.602167e+05   5.627179e+04
   2.452061e+05   6.285707e+05
  -8.946283e+05   1.018571e+06
  -1.522794e+06   6.049562e+05
  -1.179859e+06  -4.765570e+05
  -1.924202e+05  -1.328184e+06
   7.086462e+05  -1.234144e+06
   9.804661e+05  -4.155559e+05
   6.176868e+05   2.825715e+05
   7.597988e+04   3.322788e+05
  -1.490484e+05  -1.809339e+02
   4.658819e+04  -8.143904e+04
   3.195713e+05   3.191484e+05
   2.550820e+05   7.564943e+05
  -1.974929e+05   6.068118e+05
  -6.474804e+05  -1.898161e+05
  -6.106401e+05  -9.587390e+05
   1.485685e+04  -9.466518e+05
   7.571818e+05  -1.250140e+05
   9.149469e+05   7.710051e+05
   2.429458e+05   1.011788e+06
  -6.879321e+05   5.477203e+05
  -9.916647e+05  -1.156793e+05
  -4.323204e+05  -5.153938e+05
   2.705122e+05  -5.422099e+05
   2.845792e+05  -3.175351e+05
  -3.097791e+05  -4.768697e+04
  -6.251008e+05   9.888167e+03
  -1.025227e+05  -2.721582e+05
   7.802892e+05  -6.260280e+05
   1.112684e+06  -5.413095e+05
   6.257275e+05   1.127102e+05
  -1.126176e+05   7.728898e+05
  -4.574163e+05   7.535429e+05
  -3.156311e+05   8.609499e+04
   3.733367e+03  -4.779726e+05
   2.446810e+05  -3.551152e+05
   3.261026e+05   2.158157e+05
   2.126604e+05   5.437190e+05
  -7.493181e+04   3.290019e+05
  -3.579249e+05  -8.112427e+04
  -4.122971e+05  -2.190686e+05
  -2.239821e+05  -4.931589e+04
  -5.747390e+03   8.218585e+04
   7.877726e+04  -7.539453e+04
   9.819535e+04  -3.715463e+05
   1.974969e+05  -4.255259e+05
   3.418625e+05  -6.280382e+04
   3.185246e+05   4.445786e+05
   3.205677e+03   6.117951e+05
  -4.213343e+05   2.462070e+05
  -5.609078e+05  -3.202609e+05
  -1.851417e+05  -5.658299e+05
   4.570980e+05  -3.183432e+05
   7.738449e+05   1.204579e+05
   4.149168e+05   3.622250e+05
  -2.797469e+05   3.110660e+05
  -5.766724e+05   1.319631e+05
  -1.760907e+05   1.835367e+03
   3.999445e+05   4.871755e+03
   4.053131e+05   1.496865e+05
  -2.287699e+05   3.124749e+05
  -8.020664e+05   2.289200e+05
