
 $NMID
 id='ANONYMOUS ', fmtdat='(2E16.6)'
 volume=1.0
 tramp=1.0
 $END
   1.048690e+07  -2.063501e+06
   7.965612e+06   4.701269e+06
   5.685789e+05   7.291830e+06
  -4.489970e+06   4.427902e+06
  -3.733913e+06  -8.406988e+04
  -3.623252e+04  -1.982749e+06
   2.085637e+06  -5.677315e+05
   1.312060e+06   1.750427e+06
  -6.429554e+05   2.472169e+06
  -1.863167e+06   1.073201e+06
  -1.672219e+06  -1.015948e+06
  -4.421746e+05  -1.818691e+06
   7.550753e+05  -6.131895e+05
   7.621581e+05   1.269990e+06
  -4.955979e+05   1.737029e+06
  -1.666820e+06   1.961915e+05
  -1.381123e+06  -1.838029e+06
   2.104209e+05  -2.516464e+06
   1.723211e+06  -1.516032e+06
   2.081204e+06   7.917364e+04
   1.355142e+06   1.157840e+06
   3.639789e+05   1.386746e+06
  -9.367973e+04   1.068399e+06
   1.710761e+05   7.559767e+05
   5.063591e+05   8.450636e+05
   4.043380e+03   1.149101e+06
  -1.305921e+06   1.018030e+06
  -2.167327e+06   1.775873e+05
  -1.523954e+06  -7.626784e+05
   3.929712e+04  -9.808939e+05
   9.263222e+05  -4.253169e+05
   4.623489e+05   2.264886e+05
  -4.957085e+05   3.972518e+05
  -8.689359e+05   3.271945e+04
  -5.343536e+05  -5.835109e+05
  -8.572374e+03  -9.919104e+05
   3.493603e+05  -7.349769e+05
   4.350293e+05   9.100464e+04
   2.241273e+05   6.100033e+05
  -5.337968e+04   1.273016e+05
   4.850251e+04  -7.415518e+05
   5.355066e+05  -6.690302e+05
   6.892711e+05   5.056786e+05
  -4.117766e+04   1.319107e+06
  -1.075597e+06   5.692035e+05
  -1.205734e+06  -1.012539e+06
  -6.946982e+04  -1.660707e+06
   1.333353e+06  -7.480831e+05
   1.707232e+06   6.675600e+05
   7.526140e+05   1.284080e+06
  -6.605427e+05   8.374865e+05
  -1.350291e+06  -5.113694e+04
  -8.205538e+05  -6.598324e+05
   3.380842e+05  -6.166027e+05
   9.847057e+05  -5.318938e+04
   5.667008e+05   4.453679e+05
  -2.775585e+05   3.551629e+05
  -4.839468e+05  -1.543340e+05
   1.206090e+05  -3.769463e+05
   6.345107e+05   2.503812e+04
   2.810731e+05   5.848704e+05
  -6.180264e+05   6.485321e+05
  -1.102676e+06   1.125882e+05
  -6.938801e+05  -6.321936e+05
   2.482826e+05  -1.158673e+06
   1.060054e+06  -1.156505e+06
   1.319931e+06  -4.728183e+05
   9.817373e+05   6.062283e+05
   3.279329e+05   1.330908e+06
  -1.850291e+05   1.183216e+06
  -2.924867e+05   5.196076e+05
  -1.866351e+05   1.358581e+05
  -2.510527e+05   2.429747e+05
  -5.369160e+05   2.987154e+05
  -6.939945e+05  -9.985731e+04
  -4.372548e+05  -6.020820e+05
   1.017209e+05  -5.991880e+05
   5.229522e+05  -2.689564e+04
   5.066232e+05   5.958117e+05
   1.642732e+04   7.616360e+05
  -6.513545e+05   3.869801e+05
  -9.986803e+05  -2.449146e+05
  -7.273311e+05  -7.350787e+05
  -9.279991e+04  -8.254180e+05
   3.367715e+05  -5.876982e+05
   3.621575e+05  -3.438990e+05
   3.690985e+05  -2.926423e+05
   7.114656e+05  -2.674213e+05
   1.111910e+06   2.443890e+04
   9.656174e+05   5.819543e+05
   1.519659e+05   1.053786e+06
  -7.437137e+05   1.074834e+06
  -1.049823e+06   5.836608e+05
  -6.585540e+05  -1.254057e+05
  -2.743878e+04  -5.794486e+05
   3.004145e+05  -4.694372e+05
   1.318698e+05   2.663521e+04
  -2.728756e+05   3.447329e+05
  -4.588550e+05   1.417123e+05
  -2.268735e+05  -2.661277e+05
   1.384005e+05  -2.983336e+05
   1.785431e+05   9.108609e+04
  -1.883609e+05   3.098168e+05
  -5.470713e+05  -8.678350e+04
  -4.508816e+05  -7.780649e+05
   1.086635e+05  -1.047085e+06
   7.384003e+05  -6.029644e+05
   1.019459e+06   1.743389e+05
   7.897664e+05   7.091994e+05
   2.115476e+05   7.411206e+05
  -3.136734e+05   4.143513e+05
  -4.189188e+05   7.390735e+04
  -1.293064e+05  -6.912841e+02
   1.151912e+05   1.856098e+05
  -4.860835e+04   3.418374e+05
  -4.399429e+05   2.041390e+05
  -5.400098e+05  -1.384751e+05
  -1.619814e+05  -3.348642e+05
   2.839049e+05  -1.945718e+05
   2.784370e+05   9.787769e+04
  -1.935018e+05   2.167308e+05
  -6.345853e+05   3.093964e+04
  -5.725709e+05  -3.232836e+05
  -1.674440e+04  -5.842673e+05
   5.778627e+05  -5.325207e+05
   7.291684e+05  -1.524265e+05
   3.485614e+05   2.802637e+05
  -1.820888e+05   3.865352e+05
  -3.642979e+05   8.734203e+04
  -6.372679e+04  -2.538656e+05
   3.684124e+05  -2.250791e+05
   4.755532e+05   1.437249e+05
   1.638301e+05   4.262803e+05
  -2.404173e+05   3.228327e+05
  -3.561330e+05  -1.081322e+04
  -1.181090e+05  -1.920906e+05
   1.885629e+05  -4.719974e+04
   2.129978e+05   2.477071e+05
  -1.202761e+05   3.784607e+05
  -5.100820e+05   1.801981e+05
  -5.496568e+05  -2.271223e+05
  -1.530530e+05  -5.259429e+05
   3.217994e+05  -4.669986e+05
   4.431024e+05  -1.118888e+05
   1.683723e+05   2.112319e+05
  -1.470399e+05   2.382374e+05
  -1.840883e+05   2.991228e+04
   1.137908e+04  -1.366016e+05
   1.582601e+05  -9.883251e+04
   8.919710e+04   3.421486e+04
  -9.870447e+04   4.653706e+04
  -1.771171e+05  -1.250779e+05
  -6.749423e+03  -3.135358e+05
   3.285585e+05  -2.793771e+05
   5.551346e+05   4.916015e+04
   4.306228e+05   4.678769e+05
   1.467226e+03   6.465313e+05
  -3.983177e+05   4.352503e+05
  -4.764411e+05   2.341449e+04
  -2.808883e+05  -2.465545e+05
  -9.848536e+04  -2.253400e+05
  -9.099044e+04  -7.559282e+04
  -1.372349e+05  -4.371586e+04
  -4.298428e+04  -1.708952e+05
   1.950836e+05  -2.667941e+05
   3.816406e+05  -1.408905e+05
   3.191352e+05   1.743927e+05
  -1.655653e+04   4.236382e+05
  -4.318770e+05   3.470181e+05
  -6.159422e+05  -6.595437e+04
  -3.707345e+05  -5.200767e+05
   1.755900e+05  -6.504220e+05
   6.238185e+05  -3.603352e+05
   6.551504e+05   8.585399e+04
   3.287384e+05   3.357660e+05
  -1.470738e+04   2.961686e+05
  -1.233580e+05   1.724804e+05
  -4.930410e+04   1.846542e+05
  -1.226092e+04   3.101923e+05
  -1.308784e+05   3.337579e+05
  -3.144955e+05   1.115272e+05
  -3.696849e+05  -2.519965e+05
  -1.883744e+05  -4.846673e+05
   1.324241e+05  -3.917728e+05
   3.424208e+05  -3.679243e+04
   2.569700e+05   3.043337e+05
  -4.402373e+04   3.789310e+05
  -2.742539e+05   1.691606e+05
  -2.364036e+05  -1.192956e+05
  -2.933252e+04  -2.679645e+05
   8.514246e+04  -2.322646e+05
   4.572808e+02  -1.299533e+05
  -1.126872e+05  -8.377575e+04
  -1.974984e+04  -1.009784e+05
   2.837482e+05  -9.130351e+04
   5.324719e+05   2.382535e+04
   4.526045e+05   2.187966e+05
   5.280596e+04   3.654306e+05
  -3.598240e+05   3.372157e+05
  -4.680716e+05   1.370704e+05
  -2.467937e+05  -8.054935e+04
   3.883600e+04  -1.441168e+05
   1.279245e+05  -3.591848e+04
   1.308861e+04   8.868003e+04
  -1.183224e+05   7.013288e+04
  -1.303904e+05  -7.785123e+04
  -5.964490e+04  -1.842387e+05
  -1.522022e+04  -1.197596e+05
  -3.976459e+04   4.289475e+04
  -8.768426e+04   9.884580e+04
  -8.280891e+04  -5.190111e+04
   2.543152e+04  -2.666339e+05
   2.070925e+05  -2.978953e+05
   3.229358e+05  -7.140389e+04
   2.195851e+05   2.132758e+05
  -7.589622e+04   2.881828e+05
  -3.012628e+05   1.013489e+05
  -2.009671e+05  -1.389218e+05
   1.641546e+05  -1.930784e+05
   4.325835e+05  -2.300602e+04
   3.160808e+05   2.041733e+05
  -8.646005e+04   2.954904e+05
  -3.966485e+05   1.916733e+05
  -3.533461e+05  -9.248326e+03
  -5.779459e+04  -1.403678e+05
   1.648778e+05  -9.792970e+04
   1.033808e+05   5.948857e+04
  -1.486014e+05   1.386239e+05
  -3.070701e+05  -8.198927e+03
  -1.833881e+05  -2.978505e+05
   1.354058e+05  -4.479482e+05
   3.769501e+05  -2.507914e+05
   3.455366e+05   1.782821e+05
   9.072493e+04   4.725437e+05
  -1.692853e+05   3.704170e+05
  -2.565912e+05  -1.322774e+04
  -1.562205e+05  -3.076172e+05
   2.107286e+04  -2.767995e+05
   1.438956e+05  -4.451342e+04
   1.440311e+05   9.570473e+04
   5.914816e+04   4.125009e+04
   6.791273e+03  -3.228997e+04
   6.421802e+04   5.619032e+04
   1.513567e+05   2.378314e+05
   9.121338e+04   2.896384e+05
  -1.622033e+05   1.301653e+05
  -4.041443e+05  -9.041125e+04
  -3.740309e+05  -1.968015e+05
  -6.815551e+04  -1.779123e+05
   2.290467e+05  -1.249058e+05
   2.630169e+05  -7.458437e+04
   8.803795e+04  -5.878175e+03
  -3.817840e+04   5.998652e+04
   8.143105e+03   6.781026e+04
   8.582586e+04   3.298303e+04
   9.922001e+03   3.286304e+04
  -1.847340e+05   6.545667e+04
  -2.729370e+05   1.647077e+04
  -1.070563e+05  -1.623196e+05
   2.076666e+05  -3.148641e+05
   4.166035e+05  -2.294973e+05
   3.589868e+05   8.449164e+04
   9.679922e+04   3.651980e+05
  -1.653117e+05   3.760548e+05
  -2.605302e+05   1.549980e+05
  -1.773177e+05  -5.586780e+04
  -3.687133e+04  -8.886385e+04
   2.720318e+04  -5.387693e+03
  -1.965099e+04   1.842656e+04
  -9.632102e+04  -8.803428e+04
  -8.960668e+04  -2.097180e+05
   3.396472e+04  -1.788855e+05
   1.816987e+05   2.767232e+04
   2.037215e+05   2.408790e+05
   3.794951e+04   2.617402e+05
  -1.964694e+05   6.505823e+04
  -2.792045e+05  -1.778174e+05
  -1.070086e+05  -2.748589e+05
   1.710061e+05  -1.829819e+05
   2.876327e+05  -3.884020e+03
   1.492327e+05   1.367419e+05
  -5.458541e+04   1.726194e+05
  -7.906418e+04   1.067384e+05
   7.592856e+04   6.531268e+03
   1.725570e+05  -2.158276e+04
   4.200659e+04   7.369753e+04
  -2.028860e+05   1.988616e+05
  -3.123994e+05   1.837290e+05
  -1.958691e+05  -1.523202e+04
   5.280917e+03  -2.256016e+05
   1.134582e+05  -2.366540e+05
   9.257194e+04  -4.780779e+04
   1.627705e+04   1.274516e+05
  -5.297178e+04   1.122579e+05
  -9.235251e+04  -4.209620e+04
  -7.779186e+04  -1.459711e+05
   3.442727e+03  -1.023747e+05
   1.015276e+05   7.697734e+03
   1.304981e+05   5.412613e+04
   6.845606e+04   1.308268e+04
  -1.020498e+04  -2.797902e+04
  -2.947329e+04   8.321662e+03
  -6.968713e+03   9.385603e+04
  -1.779869e+04   1.253493e+05
  -7.813436e+04   4.186530e+04
  -1.092903e+05  -9.688394e+04
  -3.555941e+04  -1.609313e+05
   1.037393e+05  -8.417532e+04
   1.707248e+05   6.304245e+04
   7.218134e+04   1.472685e+05
  -1.213725e+05   1.070637e+05
  -2.253398e+05  -2.547884e+03
  -1.310079e+05  -8.765016e+04
   6.514297e+04  -1.036518e+05
   1.561015e+05  -6.531936e+04
   5.626140e+04  -1.196866e+04
  -9.790724e+04   1.222881e+04
  -1.083981e+05  -2.166753e+04
   5.032346e+04  -8.361618e+04
   2.050748e+05  -8.099479e+04
