
 $NMID
 id='ANONYMOUS ', fmtdat='(2E16.6)'
 volume=1.0
 tramp=1.0
 $END
  -3.239244e+07  -3.953573e+04
  -2.060449e+07  -1.755195e+07
   2.070648e+06  -2.119246e+07
   1.489862e+07  -1.115483e+07
   1.069427e+07   1.193581e+06
  -5.054918e+05   5.616110e+06
  -6.143211e+06   1.224530e+06
  -3.387915e+06  -5.398172e+06
   2.479779e+06  -7.273940e+06
   5.837800e+06  -2.670007e+06
   4.698260e+06   3.909575e+06
   5.843829e+05   5.954690e+06
  -2.754433e+06   1.501929e+06
  -2.060672e+06  -4.478274e+06
   2.021631e+06  -5.317303e+06
   5.030489e+06   2.285737e+04
   3.366305e+06   6.157975e+06
  -1.797255e+06   7.506977e+06
  -6.039788e+06   3.654809e+06
  -6.291135e+06  -1.558820e+06
  -3.215198e+06  -4.457283e+06
   7.351445e+04  -4.243511e+06
   8.709976e+05  -2.656152e+06
  -7.711035e+05  -2.018504e+06
  -1.886327e+06  -3.061635e+06
   3.826586e+05  -4.094315e+06
   4.980716e+06  -2.860809e+06
   7.312192e+06   5.247380e+05
   4.477895e+06   3.332839e+06
  -9.061705e+05   3.277815e+06
  -3.580996e+06   9.405555e+05
  -1.650679e+06  -1.280238e+06
   1.894652e+06  -1.650579e+06
   3.296436e+06  -4.371845e+04
   1.871416e+06   2.386080e+06
  -4.440097e+05   3.629058e+06
  -1.697546e+06   2.155390e+06
  -1.316516e+06  -9.392409e+05
  -6.461955e+04  -2.233421e+06
   5.523776e+05  -3.733902e+04
  -4.104368e+05   2.766137e+06
  -1.970477e+06   2.055200e+06
  -1.884612e+06  -1.746802e+06
   5.798669e+05  -3.738569e+06
   3.168438e+06  -9.518363e+05
   2.858272e+06   3.624005e+06
  -6.585230e+05   4.827301e+06
  -4.417245e+06   1.510280e+06
  -5.071707e+06  -2.769713e+06
  -1.985010e+06  -4.263209e+06
   2.299817e+06  -2.471402e+06
   4.267476e+06   4.823011e+05
   2.457692e+06   2.221361e+06
  -1.150800e+06   1.715205e+06
  -2.983785e+06  -2.030947e+05
  -1.557909e+06  -1.510855e+06
   9.781226e+05  -9.355900e+05
   1.513964e+06   6.005566e+05
  -2.615112e+05   1.088669e+06
  -1.702449e+06  -6.934986e+04
  -6.798548e+05  -1.448519e+06
   1.866218e+06  -1.463668e+06
   3.196584e+06   4.027659e+04
   1.791099e+06   2.112870e+06
  -1.392655e+06   3.574720e+06
  -4.083884e+06   3.308161e+06
  -4.570672e+06   8.498640e+05
  -2.829770e+06  -2.569975e+06
  -4.043409e+05  -4.487766e+06
   9.532582e+05  -3.681252e+06
   8.833649e+05  -1.647336e+06
   5.713131e+05  -6.938006e+05
   1.140311e+06  -1.026382e+06
   2.231236e+06  -8.575899e+05
   2.518928e+06   7.488853e+05
   1.342877e+06   2.402214e+06
  -5.897174e+05   2.172829e+06
  -1.910868e+06   1.282022e+04
  -1.631006e+06  -2.201057e+06
   2.150625e+05  -2.620912e+06
   2.403115e+06  -9.994295e+05
   3.204791e+06   1.358613e+06
   1.924947e+06   2.797507e+06
  -2.206982e+05   2.628686e+06
  -1.369734e+06   1.570430e+06
  -1.209154e+06   8.518153e+05
  -1.203863e+06   8.269623e+05
  -2.380178e+06   6.816353e+05
  -3.645187e+06  -4.254057e+05
  -3.013288e+06  -2.235390e+06
  -1.768526e+05  -3.565458e+06
   2.864476e+06  -3.378859e+06
   3.799948e+06  -1.608333e+06
   2.228965e+06   7.224979e+05
  -1.506668e+05   2.061079e+06
  -1.254401e+06   1.509785e+06
  -4.498947e+05  -1.617294e+05
   1.060185e+06  -1.075718e+06
   1.567587e+06  -3.000796e+05
   6.233246e+05   9.852150e+05
  -5.731430e+05   9.838899e+05
  -6.006672e+05  -2.981815e+05
   5.723524e+05  -9.678579e+05
   1.614641e+06   2.962518e+05
   1.288644e+06   2.472659e+06
  -4.082706e+05   3.335844e+06
  -2.386227e+06   1.907822e+06
  -3.338746e+06  -6.874190e+05
  -2.581357e+06  -2.523721e+06
  -5.801601e+05  -2.578891e+06
   1.200569e+06  -1.329975e+06
   1.467610e+06  -1.204342e+05
   4.366152e+05   4.085276e+04
  -3.268374e+05  -6.531509e+05
   2.720236e+05  -1.087698e+06
   1.500597e+06  -5.036718e+05
   1.709401e+06   6.125282e+05
   4.292091e+05   1.118709e+06
  -9.844008e+05   5.592834e+05
  -9.197221e+05  -3.787946e+05
   6.496746e+05  -6.863374e+05
   2.117989e+06  -3.512685e+03
   1.893155e+06   1.185222e+06
  -3.531511e+04   1.976574e+06
  -2.071483e+06   1.657925e+06
  -2.491903e+06   3.104880e+05
  -1.063317e+06  -1.031766e+06
   7.443111e+05  -1.197674e+06
   1.220884e+06  -1.406838e+05
   9.787217e+04   8.681058e+05
  -1.303470e+06   6.248877e+05
  -1.535110e+06  -6.078327e+05
  -4.465344e+05  -1.441334e+06
   8.426406e+05  -1.011903e+06
   1.155683e+06   9.482741e+04
   3.504300e+05   6.310251e+05
  -6.185852e+05   7.878206e+04
  -6.164999e+05  -9.041680e+05
   5.431326e+05  -1.233196e+06
   1.786847e+06  -4.324250e+05
   1.774470e+06   9.493068e+05
   3.438338e+05   1.808941e+06
  -1.212579e+06   1.455652e+06
  -1.502839e+06   2.497805e+05
  -5.072007e+05  -7.344724e+05
   5.465067e+05  -7.518907e+05
   6.414189e+05  -6.278965e+04
  -3.510104e+04   4.651585e+05
  -5.522237e+05   3.375944e+05
  -3.460190e+05  -9.816901e+04
   2.763966e+05  -1.397253e+05
   5.346442e+05   4.268595e+05
  -5.797476e+04   1.024858e+06
  -1.176978e+06   8.337888e+05
  -1.846413e+06  -3.349239e+05
  -1.298637e+06  -1.708558e+06
   1.863990e+05  -2.184503e+06
   1.450633e+06  -1.372378e+06
   1.615337e+06   2.005004e+04
   9.345155e+05   8.966542e+05
   3.382471e+05   8.305608e+05
   2.945877e+05   3.491308e+05
   4.015788e+05   2.180971e+05
   6.160439e+04   5.764187e+05
  -7.245890e+05   8.354134e+05
  -1.320133e+06   3.820013e+05
  -1.056565e+06  -6.679769e+05
   1.392472e+05  -1.435347e+06
   1.544921e+06  -1.060177e+06
   2.060613e+06   3.939436e+05
   1.097808e+06   1.840320e+06
  -7.678678e+05   2.102731e+06
  -2.168712e+06   1.017695e+06
  -2.159512e+06  -4.446855e+05
  -1.042547e+06  -1.182763e+06
   7.951908e+04  -1.001385e+06
   4.563062e+05  -6.019316e+05
   2.703893e+05  -6.534745e+05
   1.880415e+05  -1.039445e+06
   5.585734e+05  -1.055641e+06
   1.087482e+06  -2.565988e+05
   1.164776e+06   9.730056e+05
   4.840942e+05   1.696571e+06
  -5.700376e+05   1.283517e+06
  -1.160057e+06   2.744252e+04
  -7.640204e+05  -1.082247e+06
   2.463463e+05  -1.236109e+06
   9.222679e+05  -4.813754e+05
   7.116671e+05   4.407972e+05
   1.696572e+04   8.595824e+05
  -3.201104e+05   7.206490e+05
  -1.113565e+04   4.344802e+05
   3.583181e+05   3.330634e+05
   3.530817e+04   3.563240e+05
  -9.697075e+05   2.110649e+05
  -1.764919e+06  -2.584363e+05
  -1.443831e+06  -8.665743e+05
  -6.551100e+04  -1.206923e+06
   1.301411e+06  -9.888249e+05
   1.591967e+06  -3.227781e+05
   7.805881e+05   3.104384e+05
  -1.803304e+05   4.483908e+05
  -4.220890e+05   8.389778e+04
   1.064838e+04  -2.991436e+05
   4.360199e+05  -2.084957e+05
   4.150492e+05   3.072266e+05
   1.328650e+05   6.720770e+05
  -2.089281e+03   4.339020e+05
   1.335152e+05  -1.498235e+05
   3.219329e+05  -3.417953e+05
   2.647107e+05   1.969546e+05
  -1.715606e+05   9.137514e+05
  -7.976321e+05   9.356278e+05
  -1.106768e+06   9.592861e+04
  -6.524691e+05  -8.196689e+05
   3.700004e+05  -9.309740e+05
   1.060419e+06  -2.126869e+05
   6.416073e+05   5.418480e+05
  -6.031679e+05   5.998670e+05
  -1.463321e+06  -3.141194e+04
  -1.025992e+06  -7.473926e+05
   3.413345e+05  -9.645459e+05
   1.368259e+06  -5.622033e+05
   1.190309e+06   1.011674e+05
   1.689868e+05   4.832668e+05
  -5.714626e+05   2.866678e+05
  -3.153878e+05  -2.343812e+05
   5.671903e+05  -4.240800e+05
   1.052343e+06   1.405827e+05
   5.195679e+05   1.095013e+06
  -6.275305e+05   1.493696e+06
  -1.380955e+06   7.328671e+05
  -1.124767e+06  -7.184169e+05
  -1.667604e+05  -1.637093e+06
   6.728018e+05  -1.214981e+06
   8.530122e+05   1.054154e+05
   4.466673e+05   1.070876e+06
  -1.266655e+05   9.187393e+05
  -4.867466e+05   1.070014e+05
  -4.745204e+05  -3.552464e+05
  -2.066040e+05  -1.443495e+05
  -2.155075e+04   1.048610e+05
  -1.683706e+05  -2.257359e+05
  -4.280306e+05  -8.567118e+05
  -2.423550e+05  -9.900835e+05
   5.656750e+05  -3.704923e+05
   1.345893e+06   4.252191e+05
   1.224168e+06   7.598251e+05
   1.747736e+05   6.183353e+05
  -8.304844e+05   3.704552e+05
  -9.128551e+05   1.849596e+05
  -2.782497e+05  -1.367305e+04
   1.544810e+05  -1.973297e+05
  -3.415956e+04  -2.200040e+05
  -3.101229e+05  -1.259224e+05
  -1.725867e+04  -1.247277e+05
   6.748205e+05  -1.819374e+05
   9.359225e+05   3.780335e+04
   2.832745e+05   6.146646e+05
  -8.334001e+05   1.014783e+06
  -1.491191e+06   6.206023e+05
  -1.184145e+06  -4.374021e+05
  -2.110805e+05  -1.282809e+06
   6.831687e+05  -1.213302e+06
   9.491134e+05  -4.315250e+05
   5.993448e+05   2.527202e+05
   8.864625e+04   3.229666e+05
  -1.224113e+05   1.871007e+04
   5.195667e+04  -6.071583e+04
   3.002510e+05   3.138972e+05
   2.442670e+05   7.310084e+05
  -1.802804e+05   5.969389e+05
  -6.261949e+05  -1.590321e+05
  -6.199039e+05  -9.070773e+05
  -2.505304e+04  -9.235039e+05
   7.191103e+05  -1.559622e+05
   9.066450e+05   7.149237e+05
   2.643335e+05   9.817194e+05
  -6.584110e+05   5.589617e+05
  -9.771912e+05  -9.423373e+04
  -4.392015e+05  -5.139063e+05
   2.596592e+05  -5.527661e+05
   2.941502e+05  -3.156802e+05
  -2.786107e+05  -3.226359e+04
  -6.008336e+05   2.094389e+04
  -1.105004e+05  -2.680228e+05
   7.500875e+05  -6.133017e+05
   1.092806e+06  -5.193421e+05
   6.308626e+05   1.219203e+05
  -9.881431e+04   7.609462e+05
  -4.562594e+05   7.451810e+05
  -3.296528e+05   1.028557e+05
  -1.498050e+04  -4.551211e+05
   2.296047e+05  -3.606186e+05
   3.190261e+05   1.847076e+05
   2.163720e+05   5.246638e+05
  -6.415594e+04   3.397648e+05
  -3.498576e+05  -6.523443e+04
  -4.094422e+05  -2.227060e+05
  -2.175554e+05  -5.827895e+04
   5.096792e+03   9.690801e+04
   7.404260e+04  -4.003660e+04
   6.082427e+04  -3.499347e+05
   1.462042e+05  -4.409051e+05
   3.198301e+05  -1.044243e+05
   3.441839e+05   4.039597e+05
   4.849720e+04   5.925719e+05
  -3.957384e+05   2.554672e+05
  -5.636006e+05  -2.904263e+05
  -1.983390e+05  -5.390475e+05
   4.462938e+05  -3.177617e+05
   7.660040e+05   9.810884e+04
   4.138691e+05   3.461368e+05
  -2.683847e+05   3.215552e+05
  -5.648794e+05   1.548872e+05
  -1.877869e+05   6.696685e+03
   3.658289e+05  -1.878420e+04
   3.874448e+05   1.157250e+05
  -1.981606e+05   2.930686e+05
  -7.443042e+05   2.352460e+05
