
 $NMID
 id='ANONYMOUS ', fmtdat='(2E16.6)'
 volume=1.0
 tramp=1.0
 $END
  -5.917891e+07   1.223899e+06
  -3.599701e+07  -3.644968e+07
   7.529186e+06  -4.029571e+07
   2.879032e+07  -1.532849e+07
   1.708518e+07   7.608955e+06
  -3.581962e+06   9.765002e+06
  -1.017086e+07  -1.490920e+06
  -2.716296e+06  -1.018780e+07
   6.487551e+06  -9.473368e+06
   9.973063e+06  -1.972773e+06
   7.341137e+06   6.258180e+06
   1.057417e+06   8.784198e+06
  -4.030205e+06   3.005236e+06
  -2.807996e+06  -5.329954e+06
   3.790034e+06  -6.601976e+06
   8.158705e+06   1.384868e+06
   4.716467e+06   1.052943e+07
  -3.773797e+06   1.229899e+07
  -1.042377e+07   6.378840e+06
  -1.139906e+07  -1.824601e+06
  -7.268209e+06  -7.704982e+06
  -1.005272e+06  -9.257396e+06
   3.137763e+06  -6.588572e+06
   2.292636e+06  -2.701598e+06
  -9.912605e+05  -1.780862e+06
  -5.447348e+05  -4.014244e+06
   5.137698e+06  -4.733673e+06
   9.770230e+06  -9.899975e+05
   7.434561e+06   3.944259e+06
   6.332056e+05   5.268561e+06
  -3.540743e+06   2.963205e+06
  -2.596233e+06   3.730088e+05
   2.247430e+05  -8.069158e+05
   1.945440e+06  -6.960942e+05
   2.262091e+06   1.078862e+06
   1.061928e+06   3.837793e+06
  -1.657553e+06   4.130122e+06
  -3.553860e+06   1.446110e+05
  -2.093955e+06  -3.782175e+06
   7.863253e+05  -2.284722e+06
   6.028827e+05   2.293520e+06
  -2.382109e+06   2.334424e+06
  -2.533784e+06  -3.304283e+06
   2.588341e+06  -6.421992e+06
   7.449407e+06  -1.109609e+06
   5.538033e+06   7.246058e+06
  -1.920201e+06   9.002974e+06
  -7.712278e+06   2.683681e+06
  -7.171523e+06  -4.437860e+06
  -1.895779e+06  -6.091025e+06
   3.496500e+06  -2.735458e+06
   5.274256e+06   1.534519e+06
   2.398421e+06   3.529612e+06
  -2.528790e+06   2.254203e+06
  -4.683139e+06  -9.304057e+05
  -2.011096e+06  -2.813170e+06
   1.772199e+06  -1.444835e+06
   1.739299e+06   1.022055e+06
  -1.459675e+06   8.557065e+05
  -2.550506e+06  -1.983187e+06
   8.129206e+05  -3.709826e+06
   4.979587e+06  -1.995400e+06
   5.543401e+06   1.461466e+06
   2.418270e+06   4.148652e+06
  -1.680871e+06   5.466360e+06
  -4.875067e+06   5.130345e+06
  -6.256878e+06   2.043903e+06
  -4.871779e+06  -3.045043e+06
  -1.194044e+06  -6.268518e+06
   1.845031e+06  -4.850023e+06
   1.824775e+06  -1.114555e+06
   4.727884e+04   4.275224e+05
  -3.194247e+05  -9.696222e+05
   1.369608e+06  -2.003985e+06
   2.794559e+06  -5.414695e+05
   2.189804e+06   1.702731e+06
   2.405576e+05   2.080618e+06
  -1.418136e+06   3.110768e+05
  -1.709348e+06  -1.911926e+06
  -1.497066e+05  -2.902419e+06
   2.701946e+06  -1.826300e+06
   4.626675e+06   9.841927e+05
   3.487972e+06   3.747558e+06
   1.086000e+05   4.420953e+06
  -2.324017e+06   2.918205e+06
  -2.339038e+06   1.205590e+06
  -1.873891e+06   6.722918e+05
  -2.935885e+06   5.050639e+05
  -4.364720e+06  -6.755793e+05
  -3.548069e+06  -2.677278e+06
  -2.430318e+05  -4.102068e+06
   3.050162e+06  -3.984192e+06
   4.053901e+06  -2.299304e+06
   2.686033e+06   2.569602e+05
   4.374093e+05   2.201595e+06
  -9.720755e+05   2.008765e+06
  -5.756349e+05   1.055066e+04
   1.019132e+06  -1.356623e+06
   1.910021e+06  -4.642286e+05
   9.949772e+05   1.192310e+06
  -4.524014e+05   1.126735e+06
  -3.843270e+05  -3.781010e+05
   1.113422e+06  -6.319384e+05
   1.863475e+06   1.418591e+06
   5.611434e+05   3.560430e+06
  -1.699506e+06   3.326948e+06
  -3.145355e+06   9.695817e+05
  -3.210329e+06  -1.459762e+06
  -2.207735e+06  -2.633112e+06
  -4.946350e+05  -2.507256e+06
   1.161900e+06  -1.487591e+06
   1.546475e+06  -2.972987e+05
   4.915261e+05   3.050841e+04
  -3.762637e+05  -7.409414e+05
   3.985954e+05  -1.370014e+06
   1.930155e+06  -6.296805e+05
   2.069585e+06   8.708496e+05
   3.982390e+05   1.432104e+06
  -1.163415e+06   5.875766e+05
  -8.631060e+05  -4.309397e+05
   8.516790e+05  -4.801557e+05
   2.123062e+06   3.264941e+05
   1.682695e+06   1.294417e+06
  -2.331912e+05   1.902370e+06
  -2.237412e+06   1.663725e+06
  -2.743025e+06   3.366090e+05
  -1.251270e+06  -1.249396e+06
   8.941635e+05  -1.557814e+06
   1.593442e+06  -2.380450e+05
   2.516894e+05   1.097792e+06
  -1.502256e+06   7.858679e+05
  -1.729937e+06  -7.527026e+05
  -3.417596e+05  -1.639833e+06
   1.091908e+06  -9.598380e+05
   1.245334e+06   3.260909e+05
   2.270316e+05   7.863864e+05
  -8.177681e+05   6.630172e+04
  -7.759037e+05  -1.039288e+06
   5.236653e+05  -1.448000e+06
   1.986549e+06  -6.160681e+05
   2.071805e+06   9.823808e+05
   4.425425e+05   2.067410e+06
  -1.407196e+06   1.679696e+06
  -1.722228e+06   2.404141e+05
  -5.064671e+05  -8.609056e+05
   6.440642e+05  -8.074867e+05
   6.061515e+05  -9.835492e+04
  -1.246535e+05   3.181996e+05
  -4.454552e+05   1.805463e+05
  -5.524638e+04  -4.306399e+04
   4.788738e+05   1.285340e+05
   5.084279e+05   7.029634e+05
  -2.096628e+05   1.194393e+06
  -1.366008e+06   9.200985e+05
  -2.087582e+06  -3.614257e+05
  -1.518786e+06  -1.899740e+06
   1.445903e+05  -2.409495e+06
   1.559500e+06  -1.420688e+06
   1.650238e+06   1.000303e+05
   8.321183e+05   8.324070e+05
   3.262777e+05   5.628923e+05
   5.255865e+05   1.620832e+05
   6.790438e+05   3.164424e+05
   1.160411e+05   7.904532e+05
  -8.619052e+05   9.114794e+05
  -1.420703e+06   3.388587e+05
  -1.030298e+06  -6.770422e+05
   2.273454e+05  -1.417171e+06
   1.676502e+06  -1.087300e+06
   2.234171e+06   4.242806e+05
   1.163267e+06   2.064677e+06
  -9.763167e+05   2.383470e+06
  -2.528215e+06   1.068941e+06
  -2.336114e+06  -6.291336e+05
  -9.322088e+05  -1.302031e+06
   2.044475e+05  -8.955637e+05
   3.340543e+05  -4.776482e+05
  -6.068566e+03  -7.641717e+05
   3.771256e+04  -1.346227e+06
   6.435405e+05  -1.330800e+06
   1.299753e+06  -3.630816e+05
   1.374037e+06   1.032625e+06
   6.165139e+05   1.867542e+06
  -5.702733e+05   1.449969e+06
  -1.274897e+06   2.783815e+04
  -8.329899e+05  -1.271752e+06
   3.791542e+05  -1.401309e+06
   1.177695e+06  -3.972773e+05
   8.264762e+05   7.274252e+05
  -1.334848e+05   1.102039e+06
  -5.600948e+05   7.824591e+05
  -9.072994e+04   3.943841e+05
   4.521579e+05   3.108676e+05
   7.802010e+04   3.757369e+05
  -1.154194e+06   2.349884e+05
  -2.087608e+06  -2.821440e+05
  -1.639772e+06  -1.001469e+06
   2.848612e+04  -1.450566e+06
   1.586284e+06  -1.190288e+06
   1.826445e+06  -3.065869e+05
   8.288338e+05   5.083171e+05
  -2.615811e+05   5.925511e+05
  -5.181059e+05   3.041348e+04
  -5.428638e+04  -4.452634e+05
   4.194343e+05  -2.805261e+05
   4.957929e+05   3.246406e+05
   3.094040e+05   7.053021e+05
   1.422514e+05   4.746593e+05
   1.278073e+05  -7.612937e+04
   2.406602e+05  -2.737799e+05
   2.747020e+05   2.258405e+05
  -9.163747e+04   9.765184e+05
  -8.634291e+05   1.096431e+06
  -1.392335e+06   2.375545e+05
  -9.185444e+05  -8.850358e+05
   3.788862e+05  -1.180309e+06
   1.267642e+06  -4.089498e+05
   7.560240e+05   5.352910e+05
  -6.867811e+05   6.596867e+05
  -1.565879e+06  -6.442175e+04
  -9.788338e+05  -8.330005e+05
   4.838043e+05  -9.658160e+05
   1.461681e+06  -4.719694e+05
   1.196660e+06   1.760622e+05
   1.309831e+05   4.967635e+05
  -6.407452e+05   2.697717e+05
  -4.032459e+05  -2.932749e+05
   5.480431e+05  -5.603457e+05
   1.187041e+06   1.001604e+04
   7.479860e+05   1.139619e+06
  -4.833989e+05   1.735786e+06
  -1.425917e+06   9.657569e+05
  -1.281134e+06  -6.918230e+05
  -2.737126e+05  -1.765220e+06
   6.869435e+05  -1.291111e+06
   9.158521e+05   1.685383e+05
   4.420671e+05   1.170707e+06
  -2.188127e+05   9.470254e+05
  -5.652909e+05   8.677857e+04
  -4.499716e+05  -3.501767e+05
  -1.380187e+05  -1.187015e+05
  -5.580272e+04   8.608121e+04
  -3.305807e+05  -3.077609e+05
  -5.570358e+05  -9.521053e+05
  -1.917181e+05  -1.054720e+06
   7.379801e+05  -4.077911e+05
   1.476003e+06   4.065027e+05
   1.266357e+06   7.818764e+05
   2.043543e+05   6.946537e+05
  -8.004571e+05   4.549331e+05
  -9.581154e+05   2.063905e+05
  -3.864908e+05  -6.077639e+04
   1.234197e+05  -2.343933e+05
   6.511566e+04  -1.827732e+05
  -2.269419e+05  -5.752745e+04
  -7.258126e+04  -1.290617e+05
   6.041839e+05  -2.822229e+05
   1.049041e+06  -4.588727e+04
   5.235947e+05   6.826064e+05
  -7.475903e+05   1.238799e+06
  -1.691745e+06   8.579538e+05
  -1.481068e+06  -3.460794e+05
  -3.547327e+05  -1.382065e+06
   7.158558e+05  -1.418628e+06
   1.024686e+06  -6.137520e+05
   6.588577e+05   1.763859e+05
   1.689071e+05   3.532166e+05
  -3.011644e+04   9.867586e+04
   9.257115e+04   1.116272e+04
   2.939124e+05   3.652429e+05
   2.644735e+05   7.933874e+05
  -1.387333e+05   6.956641e+05
  -6.776990e+05  -5.688643e+04
  -8.112413e+05  -8.843430e+05
  -2.154636e+05  -1.030897e+06
   7.135681e+05  -3.297043e+05
   1.084368e+06   6.270787e+05
   4.307531e+05   1.073383e+06
  -6.722330e+05   7.449362e+05
  -1.142298e+06  -7.563733e+03
  -5.841652e+05  -6.173664e+05
   2.585932e+05  -7.316836e+05
   3.984409e+05  -3.929208e+05
  -2.065193e+05   2.176666e+04
  -6.350185e+05   7.866448e+04
  -1.753671e+05  -3.088742e+05
   7.895180e+05  -7.112046e+05
   1.263213e+06  -5.660203e+05
   8.086767e+05   1.752449e+05
  -5.038538e+04   8.885517e+05
  -5.463358e+05   8.960251e+05
  -4.605033e+05   2.108855e+05
  -1.013322e+05  -4.587514e+05
   2.097339e+05  -4.699452e+05
   3.583226e+05   9.039384e+04
   2.890294e+05   5.615876e+05
  -2.224512e+04   4.647049e+05
  -3.948453e+05  -7.446753e+03
  -5.007260e+05  -2.833874e+05
  -2.457784e+05  -1.081111e+05
   5.991999e+04   1.795794e+05
   8.185162e+04   1.022843e+05
  -8.599178e+04  -3.296825e+05
  -5.388171e+04  -5.986045e+05
   2.857023e+05  -3.078790e+05
   5.320018e+05   3.098911e+05
   2.612597e+05   6.352399e+05
  -3.712572e+05   3.562845e+05
  -7.057514e+05  -2.180728e+05
  -3.053483e+05  -5.433660e+05
   4.990824e+05  -3.970260e+05
   9.093739e+05   1.110107e+04
   5.102613e+05   3.506339e+05
  -2.730850e+05   4.454755e+05
  -6.381043e+05   2.987520e+05
  -2.810999e+05   3.670327e+04
   2.985523e+05  -1.221823e+05
   3.947798e+05  -5.253798e+03
  -1.136425e+05   2.741838e+05
  -6.662263e+05   3.161489e+05
