
 $NMID
 id='ANONYMOUS ', fmtdat='(2E16.6)'
 volume=1.0
 tramp=1.0
 $END
   4.023777e+07   2.912480e+06
   2.324169e+07   2.436864e+07
  -5.375637e+06   2.605678e+07
  -1.943479e+07   1.137867e+07
  -1.228788e+07  -3.287572e+06
   1.626952e+06  -6.625491e+06
   7.290561e+06  -3.347391e+05
   3.039924e+06   6.833952e+06
  -3.854011e+06   7.967156e+06
  -7.163134e+06   2.278975e+06
  -5.279366e+06  -5.060955e+06
  -2.827093e+05  -7.062993e+06
   3.410857e+06  -1.696367e+06
   2.161116e+06   5.196120e+06
  -2.809186e+06   5.849033e+06
  -5.950505e+06  -6.691090e+05
  -3.382172e+06  -7.712288e+06
   2.916655e+06  -8.829704e+06
   7.683537e+06  -3.934260e+06
   7.686142e+06   2.342613e+06
   3.825167e+06   5.846075e+06
  -4.111075e+05   5.589676e+06
  -1.733317e+06   3.387511e+06
   1.899316e+05   2.115383e+06
   1.904270e+06   3.116695e+06
  -3.863772e+05   4.524912e+06
  -5.719402e+06   3.280737e+06
  -8.533385e+06  -7.490060e+05
  -5.253081e+06  -4.142925e+06
   1.001844e+06  -4.026719e+06
   4.113156e+06  -1.256643e+06
   2.055682e+06   1.249000e+06
  -1.779103e+06   1.720233e+06
  -3.418778e+06   1.483644e+05
  -2.119811e+06  -2.468538e+06
   3.714954e+05  -4.088940e+06
   2.067664e+06  -2.634874e+06
   1.869084e+06   1.056023e+06
   2.266209e+05   2.869651e+06
  -8.143333e+05   3.983372e+05
   3.313429e+05  -3.005541e+06
   2.315430e+06  -2.199177e+06
   1.994994e+06   2.300977e+06
  -1.317407e+06   4.398262e+06
  -4.265567e+06   6.454928e+05
  -3.211225e+06  -4.901762e+06
   1.411221e+06  -5.906571e+06
   5.551421e+06  -1.468775e+06
   5.705395e+06   3.651155e+06
   1.876339e+06   5.046886e+06
  -2.835865e+06   2.580587e+06
  -4.752774e+06  -9.382079e+05
  -2.494003e+06  -2.742675e+06
   1.615945e+06  -1.824985e+06
   3.505965e+06   5.889449e+05
   1.624516e+06   1.977052e+06
  -1.290265e+06   1.019700e+06
  -1.641723e+06  -8.063314e+05
   5.264087e+05  -1.054426e+06
   1.870829e+06   5.400246e+05
   2.598236e+05   1.903698e+06
  -2.681075e+06   1.403956e+06
  -3.799929e+06  -5.769459e+05
  -1.845423e+06  -2.774226e+06
   1.829672e+06  -4.167992e+06
   4.844055e+06  -3.736816e+06
   5.406672e+06  -8.592890e+05
   3.327612e+06   3.139036e+06
   2.915518e+05   5.289493e+06
  -1.415007e+06   4.126036e+06
  -1.145017e+06   1.599150e+06
  -4.639213e+05   5.765731e+05
  -1.014760e+06   1.186114e+06
  -2.405137e+06   1.134568e+06
  -2.879397e+06  -6.975319e+05
  -1.588016e+06  -2.618861e+06
   5.730220e+05  -2.405663e+06
   2.032706e+06  -3.374653e+04
   1.744159e+06   2.425493e+06
  -2.865230e+05   2.938598e+06
  -2.779861e+06   1.131625e+06
  -3.734666e+06  -1.636986e+06
  -2.210177e+06  -3.405686e+06
   4.064494e+05  -3.201961e+06
   1.814529e+06  -1.833618e+06
   1.570287e+06  -8.682600e+05
   1.448014e+06  -7.883638e+05
   2.710858e+06  -5.961508e+05
   4.080805e+06   6.817989e+05
   3.281558e+06   2.662132e+06
   4.551289e+04   4.006476e+06
  -3.323975e+06   3.693753e+06
  -4.307064e+06   1.731959e+06
  -2.528958e+06  -8.224374e+05
   1.442929e+05  -2.320192e+06
   1.415682e+06  -1.714119e+06
   5.231672e+05   1.773678e+05
  -1.214507e+06   1.195137e+06
  -1.802633e+06   2.744051e+05
  -6.964043e+05  -1.167769e+06
   6.580791e+05  -1.090629e+06
   6.083304e+05   3.502007e+05
  -7.326016e+05   9.463771e+05
  -1.724222e+06  -5.918282e+05
  -1.120835e+06  -2.886737e+06
   7.873210e+05  -3.540357e+06
   2.739908e+06  -1.786796e+06
   3.547196e+06   9.908174e+05
   2.661934e+06   2.840229e+06
   5.371085e+05   2.821950e+06
  -1.362122e+06   1.443191e+06
  -1.635204e+06   1.046041e+05
  -4.852868e+05  -6.276229e+04
   3.386226e+05   7.469858e+05
  -3.788627e+05   1.224448e+06
  -1.747546e+06   4.907845e+05
  -1.896724e+06  -8.049640e+05
  -4.010078e+05  -1.297961e+06
   1.136420e+06  -5.731952e+05
   9.861650e+05   4.539811e+05
  -7.527904e+05   6.845765e+05
  -2.297014e+06  -1.214035e+05
  -1.989716e+06  -1.364344e+06
   1.338907e+05  -2.136167e+06
   2.353264e+06  -1.733541e+06
   2.783405e+06  -2.393779e+05
   1.143429e+06   1.219570e+06
  -9.110584e+05   1.337342e+06
  -1.414861e+06   9.911540e+04
  -8.629013e+04  -1.008130e+06
   1.497320e+06  -6.537077e+05
   1.684253e+06   7.594661e+05
   4.047583e+05   1.622556e+06
  -1.000809e+06   1.051771e+06
  -1.263835e+06  -1.936001e+05
  -3.288044e+05  -7.264888e+05
   7.180459e+05  -5.299607e+04
   6.679128e+05   1.045462e+06
  -6.447775e+05   1.373715e+06
  -2.018191e+06   4.340381e+05
  -1.960469e+06  -1.125238e+06
  -3.132706e+05  -2.044172e+06
   1.428120e+06  -1.576051e+06
   1.691157e+06  -2.011998e+05
   5.184170e+05   8.472704e+05
  -6.489834e+05   8.084047e+05
  -7.042764e+05   5.297131e+04
   5.794306e+04  -4.809470e+05
   5.876495e+05  -3.352162e+05
   3.323379e+05   8.813310e+04
  -3.203096e+05   8.539684e+04
  -5.465951e+05  -5.274766e+05
   1.335979e+05  -1.136558e+06
   1.352567e+06  -8.753124e+05
   2.048912e+06   4.486827e+05
   1.388466e+06   1.961120e+06
  -2.873602e+05   2.425124e+06
  -1.657370e+06   1.451587e+06
  -1.766354e+06  -9.485519e+04
  -9.754420e+05  -9.951348e+05
  -3.550370e+05  -8.721294e+05
  -3.618662e+05  -3.736793e+05
  -4.733698e+05  -2.855947e+05
  -4.424183e+04  -6.703439e+05
   8.465955e+05  -8.918315e+05
   1.467978e+06  -3.611023e+05
   1.127119e+06   7.623105e+05
  -2.126442e+05   1.554521e+06
  -1.748082e+06   1.104553e+06
  -2.268801e+06  -5.163063e+05
  -1.136007e+06  -2.094671e+06
   9.664832e+05  -2.310920e+06
   2.474433e+06  -1.024786e+06
   2.366696e+06   6.054549e+05
   1.072806e+06   1.344746e+06
  -1.365810e+05   1.066984e+06
  -4.907684e+05   6.293065e+05
  -2.779712e+05   7.425606e+05
  -2.361932e+05   1.193260e+06
  -6.807358e+05   1.177501e+06
  -1.242621e+06   2.476931e+05
  -1.273374e+06  -1.129098e+06
  -4.828805e+05  -1.911952e+06
   6.796239e+05  -1.414060e+06
   1.291437e+06   1.748531e+04
   7.991919e+05   1.248329e+06
  -3.458663e+05   1.364674e+06
  -1.065144e+06   4.646758e+05
  -7.657752e+05  -5.631698e+05
   5.184313e+04  -9.737387e+05
   4.203576e+05  -7.740737e+05
   3.918964e+04  -4.635691e+05
  -3.971505e+05  -3.777653e+05
  -3.263748e+04  -3.957722e+05
   1.100291e+06  -1.903777e+05
   1.975465e+06   3.664797e+05
   1.575793e+06   1.033214e+06
  -4.226037e+02   1.360315e+06
  -1.519865e+06   1.054924e+06
  -1.793523e+06   2.802355e+05
  -8.403706e+05  -4.044675e+05
   2.352674e+05  -5.040311e+05
   4.776538e+05  -6.232369e+04
  -1.985782e+04   3.542445e+05
  -4.850867e+05   2.245054e+05
  -4.549240e+05  -3.584301e+05
  -1.492457e+05  -7.550738e+05
  -4.295418e+03  -4.898903e+05
  -1.451961e+05   1.467956e+05
  -3.456270e+05   3.570283e+05
  -2.833946e+05  -2.278988e+05
   2.077811e+05  -1.008050e+06
   9.244553e+05  -1.020734e+06
   1.271049e+06  -7.576463e+04
   7.273786e+05   9.455380e+05
  -4.528324e+05   1.047865e+06
  -1.213850e+06   2.170844e+05
  -7.023468e+05  -6.207654e+05
   6.987278e+05  -6.399199e+05
   1.614908e+06   9.784772e+04
   1.082834e+06   8.653529e+05
  -4.315639e+05   1.034637e+06
  -1.527279e+06   5.460647e+05
  -1.295714e+06  -1.655154e+05
  -1.606547e+05  -5.349874e+05
   6.468958e+05  -2.869585e+05
   3.492383e+05   2.829884e+05
  -6.401276e+05   4.691058e+05
  -1.177556e+06  -1.761237e+05
  -5.664495e+05  -1.237361e+06
   7.289637e+05  -1.661560e+06
   1.557866e+06  -7.895805e+05
   1.232873e+06   8.305179e+05
   1.350021e+05   1.824777e+06
  -7.859164e+05   1.317576e+06
  -9.368275e+05  -1.596179e+05
  -4.449019e+05  -1.204383e+06
   1.879843e+05  -1.001255e+06
   5.488216e+05  -9.281085e+04
   5.033599e+05   4.032365e+05
   2.112317e+05   1.574169e+05
   3.240909e+04  -1.088188e+05
   1.995299e+05   2.759403e+05
   4.546840e+05   9.764856e+05
   2.175990e+05   1.100833e+06
  -6.638186e+05   3.822445e+05
  -1.480868e+06  -5.174789e+05
  -1.318493e+06  -8.811459e+05
  -1.702273e+05  -6.971241e+05
   9.213322e+05  -3.916090e+05
   1.014332e+06  -1.711631e+05
   3.196591e+05   3.863849e+04
  -1.732311e+05   2.182698e+05
   1.452077e+04   2.298391e+05
   3.249491e+05   1.322465e+05
   2.428465e+04   1.408529e+05
  -7.382999e+05   1.963689e+05
  -1.047012e+06  -6.636914e+04
  -3.253596e+05  -7.074634e+05
   9.460672e+05  -1.123669e+06
   1.701093e+06  -6.553626e+05
   1.335494e+06   5.214808e+05
   2.043347e+05   1.435866e+06
  -8.071073e+05   1.336654e+06
  -1.076551e+06   4.658288e+05
  -6.615835e+05  -2.877433e+05
  -9.804102e+04  -3.661990e+05
   1.232474e+05  -3.496526e+04
  -6.189529e+04   5.026211e+04
  -3.138370e+05  -3.624756e+05
  -2.417612e+05  -8.207806e+05
   2.170043e+05  -6.664971e+05
   6.945448e+05   1.817172e+05
   6.801250e+05   1.021795e+06
   2.074935e+04   1.040459e+06
  -8.012957e+05   1.746735e+05
  -1.001597e+06  -8.096741e+05
  -2.774794e+05  -1.108317e+06
   7.527700e+05  -6.190178e+05
   1.098768e+06   1.319427e+05
   4.817105e+05   6.032813e+05
  -3.129914e+05   6.263993e+05
  -3.551065e+05   3.429970e+05
   2.940958e+05   3.239574e+04
   6.670077e+05  -9.619262e+03
   1.201446e+05   3.075168e+05
  -8.548266e+05   6.589216e+05
  -1.246028e+06   5.281136e+05
  -7.132792e+05  -1.746504e+05
   1.341316e+05  -8.535357e+05
   5.493193e+05  -8.199118e+05
   3.922759e+05  -1.120710e+05
   1.454352e+04   5.037757e+05
  -2.665232e+05   4.059941e+05
  -3.541693e+05  -1.996281e+05
  -2.284186e+05  -5.920350e+05
   8.194594e+04  -3.929514e+05
   3.913578e+05   7.658292e+04
   4.523690e+05   2.736434e+05
   2.380228e+05   8.152434e+04
  -7.038219e+03  -1.232588e+05
  -7.613064e+04   1.664321e+04
  -5.313242e+04   3.853476e+05
  -1.504413e+05   5.147878e+05
  -3.589559e+05   1.390431e+05
  -3.990569e+05  -4.486286e+05
  -6.563185e+04  -6.688772e+05
   4.434173e+05  -2.838505e+05
   6.343889e+05   3.332300e+05
   2.158487e+05   6.034221e+05
  -5.128644e+05   3.425003e+05
  -8.638449e+05  -1.275919e+05
  -4.567344e+05  -3.995814e+05
   3.127936e+05  -3.631158e+05
   6.440323e+05  -1.696285e+05
   2.230498e+05  -4.873681e+02
  -3.955195e+05   2.859900e+04
  -4.277682e+05  -1.206275e+05
   2.121776e+05  -3.151702e+05
   8.143095e+05  -2.487490e+05
