
 $NMID
 id='ANONYMOUS ', fmtdat='(2E16.6)'
 volume=1.0
 tramp=1.0
 $END
   1.754217e+03  -1.293344e+01
   1.270142e+03   6.652359e+02
   2.008028e+02   1.515696e+03
  -5.374763e+02   7.774347e+02
  -6.461139e+02   1.454912e+02
  -1.098930e+02  -2.160705e+02
   3.019372e+02  -6.351710e+01
   1.132765e+02   2.957321e+02
  -2.721112e+02   4.474886e+02
  -3.698989e+02   2.362328e+02
  -4.104403e+02  -2.749348e+02
  -1.642022e+02  -4.386031e+02
   1.423995e+02  -2.502417e+02
   2.667483e+02   1.622001e+02
   5.478608e+01   3.357500e+02
  -1.949971e+02   1.689410e+02
  -2.692487e+02  -2.068946e+02
  -2.813137e+01  -3.823850e+02
   2.762908e+02  -2.396674e+02
   3.138974e+02   8.226042e+01
   1.796701e+02   2.289361e+02
   3.673595e+01   2.106137e+02
  -4.063864e+01   1.364148e+02
   3.725456e+01   6.936892e+01
   1.344997e+02   8.784973e+01
   3.873069e+01   2.272615e+02
  -1.988634e+02   1.705799e+02
  -3.828540e+02  -1.940874e+00
  -2.225774e+02  -1.948548e+02
   1.430921e+02  -1.520611e+02
   2.358711e+02  -8.504893e+01
   1.524365e+02   1.350363e+02
  -7.643680e+01   1.836445e+02
  -2.148248e+02   1.614521e+02
  -2.291270e+02  -3.085876e+01
  -1.738703e+02  -1.740439e+02
  -3.072434e+01  -1.635479e+02
   4.500331e+01  -2.048632e+01
  -2.725698e+01   1.046703e+02
  -7.536210e+01  -5.212685e+01
  -4.962674e+01  -2.301052e+02
   9.609664e+01  -2.997046e+02
   1.283407e+02  -1.847470e+01
   1.770261e+02   1.382371e+02
  -4.457160e+01   7.005827e+01
  -1.151895e+02  -8.650062e+01
  -6.283905e+00  -2.332166e+02
   1.870031e+02  -1.586293e+02
   3.081063e+02   8.954173e+01
   1.601629e+02   2.034578e+02
  -1.228902e+02   1.985617e+02
  -2.944556e+02   3.817112e+01
  -2.642090e+02  -1.190540e+02
  -4.445350e+01  -1.787714e+02
   1.864728e+02  -1.079845e+02
   1.754697e+02  -1.198787e+01
   4.892393e+01   1.163990e+01
  -2.632322e+01   9.959025e+00
  -2.778528e+01   1.901164e+01
   1.026216e+02   1.773428e+01
   7.258430e+01   8.231352e+01
  -4.311324e+01   1.300350e+02
  -1.782122e+02   1.029940e+02
  -1.808795e+02   2.093652e+01
  -4.341918e+01  -1.868387e+02
   1.115264e+02  -2.455903e+02
   2.395326e+02  -1.704387e+02
   1.751839e+02   8.176544e+01
   2.955204e+01   2.038772e+02
  -5.100860e+01   1.995221e+02
  -2.516768e+01   1.263559e+02
  -3.057022e+01   3.303266e+01
  -8.491787e+01   5.617157e+01
  -1.310133e+02   5.709408e+01
  -1.437385e+02  -7.933144e+01
  -8.358813e+01  -1.496772e+02
   3.726617e+01  -1.223678e+02
   1.160433e+02  -1.602296e+01
   8.457166e+01   1.313795e+02
  -4.779418e+00   1.523107e+02
  -1.586530e+02   3.968122e+01
  -1.946272e+02  -8.466223e+01
  -1.055661e+02  -2.028173e+02
   4.787070e+01  -1.969257e+02
   1.432039e+02  -9.999154e+01
   1.102265e+02  -4.171679e+01
   8.174700e+01  -2.846920e+01
   1.385796e+02  -2.242449e+01
   2.686159e+02  -1.123638e+01
   1.560411e+02   1.459887e+02
   4.299203e+01   2.220958e+02
  -2.048769e+02   2.521085e+02
  -2.519630e+02   1.383391e+02
  -1.896101e+02   4.840479e+00
  -3.790032e+01  -1.520878e+02
   6.025886e+01  -1.389850e+02
   4.108469e+01  -1.506313e+01
  -4.834279e+01   1.635254e+01
  -5.401710e+01  -6.946938e+00
  -1.702763e+01  -8.592611e+01
   3.672909e+01  -8.014119e+01
   7.506730e+01   2.189153e+01
  -1.904958e+01   7.878126e+01
  -1.012835e+02   2.550170e+01
  -9.246285e+01  -1.409540e+02
  -2.218360e+01  -1.949046e+02
   8.972733e+01  -1.494380e+02
   2.184642e+02   8.846374e+00
   1.894463e+02   1.717833e+02
   7.105953e+01   2.002863e+02
  -6.744364e+01   1.346057e+02
  -7.935899e+01   1.502353e+01
  -2.805623e+01  -3.335231e-02
   1.894299e+01   4.607441e+01
   1.934150e+01   7.233498e+01
  -5.298260e+01   4.889474e+01
  -7.643812e+01  -2.645333e+01
  -4.971170e+01  -6.712661e+00
   2.313002e+01  -2.102733e+01
   2.787783e+01   5.652566e+01
  -4.673415e+01   4.895898e+01
  -1.469415e+02   5.944852e+00
  -1.967640e+02  -2.747075e+01
  -6.415393e+01  -1.260379e+02
   9.412591e+01  -1.372020e+02
   1.242590e+02  -5.218400e+01
   1.058764e+02   6.951010e+00
   2.241211e+01   6.333836e+01
  -3.060080e+01   1.832496e+01
   1.956175e+01  -4.687985e+01
   1.098116e+02  -4.950274e+01
   1.124080e+02   3.416713e+01
   6.360787e+01   1.225636e+02
  -1.669151e+01   8.697435e+01
  -9.331561e+01   3.447042e+01
  -5.585025e+01  -1.332503e+01
  -1.091762e+00  -1.475592e-01
   3.354452e+01   2.510502e+01
  -4.265145e+01   1.008820e+02
  -1.326850e+02   3.254224e+01
  -1.376259e+02  -6.535553e+01
  -4.329679e+01  -1.324593e+02
   8.325351e+01  -1.080617e+02
   1.113319e+02  -1.577773e+01
   7.059660e+01   3.037168e+01
  -2.515017e+01   7.033502e+01
  -5.338738e+01   5.674882e+01
  -3.232912e+01  -3.015084e+00
  -3.447472e+00  -1.259032e+01
  -6.030192e+00  -3.252022e+01
  -6.451540e+01  -2.510648e-02
  -7.444912e+01  -1.837618e+01
  -2.035751e+01  -9.020294e+01
   8.500037e+01  -9.623817e+01
   1.240490e+02  -1.064801e+01
   1.118904e+02   8.344487e+01
   5.852132e+01   1.284116e+02
  -2.883361e+01   1.037246e+02
  -8.101293e+01   6.001942e+01
  -5.452923e+01  -3.307231e+01
  -2.210912e+00  -4.188358e+01
  -3.749835e+01   1.297421e+01
  -2.937551e+01   2.290319e+01
  -4.711415e+01  -4.537731e+01
   4.334384e+01  -6.577197e+01
   3.539174e+01  -5.313933e+01
   6.130277e+01   1.489389e+01
   1.165483e+01   4.499260e+01
  -5.810245e+01   6.621196e+01
  -1.151062e+02   7.223315e-01
  -8.231601e+01  -1.185939e+02
   1.798562e+01  -1.317806e+02
   1.769328e+02  -4.050268e+01
   1.422306e+02   2.621792e+01
   6.525496e+01   1.178602e+02
  -1.803234e+01   7.213876e+01
  -4.957779e+01   7.822174e+01
  -5.518264e+01   1.586004e+01
  -2.998243e+01   7.514580e+01
  -5.904858e+01   6.920679e+01
  -4.296521e+01  -1.389550e+00
  -7.200265e+01  -8.058328e+01
  -4.165111e+01  -1.190000e+02
   4.617019e+01  -1.031525e+02
   7.200416e+01  -7.043945e+00
   8.975717e+01   8.086972e+01
   1.493169e+01   9.862678e+01
  -1.880417e+01   3.783418e+01
  -4.776150e+01   8.901181e+00
  -3.182639e+00  -1.218928e-01
   2.177343e-01  -2.028985e+01
  -1.930340e+01   4.195212e+00
  -3.760617e+01  -2.155075e+01
  -2.622932e+01  -1.248817e+01
   1.704332e+01  -2.882091e+01
   8.274523e+01  -7.540511e+00
   1.184448e+02   5.322151e+01
   9.004247e+00   7.918064e+01
  -5.831995e+01   6.242119e+01
  -1.124002e+02   2.061103e+01
  -5.718940e+01  -1.735439e+01
   1.906250e+01  -5.353666e+01
   3.021089e+01   1.546701e+01
  -4.691189e+00   4.201034e+01
  -5.063183e+01   7.274238e+01
  -5.833552e+01   4.165549e+00
  -3.227557e+01  -4.152948e+01
  -2.666100e+01  -3.937170e+01
  -2.439973e+01   1.314736e+01
  -3.293658e+01   2.607905e+01
  -1.728790e+01  -3.491095e+01
   1.092104e+01  -1.210356e+02
   2.863231e+01  -8.978178e+01
   7.701476e+01  -1.684985e+01
   1.044556e+02   5.846887e+01
   8.711553e+00   7.375710e+01
  -6.426478e+01   5.359867e+01
  -2.646535e+01  -2.534117e+01
   2.945136e+01  -1.287392e+01
   9.169912e+01   2.280261e+01
   5.769576e+01   4.899932e+01
  -1.718691e+01   7.397722e+01
  -9.103236e+01   2.945677e+01
  -1.427165e+02  -2.418045e+01
  -2.556822e+01  -5.951471e+01
   5.409035e+01  -4.926196e+01
   3.900013e+01   1.221677e+00
  -9.956466e+00   5.999448e+00
  -4.348596e+01   5.005538e+00
  -3.733286e+01  -5.914589e+01
   1.686355e+01  -1.090790e+02
   1.232494e+02  -4.846464e+01
   9.064131e+01   4.874502e+01
   1.533368e+01   1.165925e+02
  -3.094570e+01   9.888911e+01
  -8.842453e+01   6.390808e+00
  -3.373401e+01  -4.674266e+01
   3.370876e+01  -3.705483e+01
   2.358413e+01  -7.327493e+00
   2.045222e+01   7.431138e+00
   4.367726e-01   4.024868e+00
  -4.118591e+00  -1.789311e+01
  -6.876991e+00  -2.804195e+01
   3.923907e+01   3.575829e+01
   2.574659e+01   5.547703e+01
  -2.789680e+01   3.426534e+01
  -1.028496e+02  -4.073075e+01
  -6.704964e+01  -3.723799e+01
  -2.621182e+01  -3.847268e+01
   4.609708e+01  -2.905860e+01
   6.874288e+01   1.908874e+01
   1.443875e+01  -9.855067e+00
  -4.209282e+01   2.710874e+01
  -2.433753e+01  -4.111538e-01
   6.086000e+00  -5.492189e+00
  -1.152230e+01   8.784801e+00
  -7.465374e+00  -1.518109e+01
  -5.673806e+01  -3.917242e+00
  -2.898656e+01  -4.916925e+01
   1.306129e+01  -6.919030e+01
   1.063600e+02  -3.189501e+01
   7.608885e+01   5.987648e+01
   2.904291e+01   9.363838e+01
  -2.598848e+01   9.857903e+01
  -7.282582e+01   3.797891e+01
  -8.372870e+01   1.881290e+01
  -3.622125e+01  -2.280824e+01
   1.733236e+01  -2.822771e+01
   3.331480e+01   4.234066e+01
  -9.792434e+00  -2.841786e+01
  -1.709712e+01  -5.990302e+01
  -1.183806e+00  -4.545923e+01
   3.173361e+01   2.914089e+00
   8.430098e+01   4.827202e+01
   4.032044e+01   6.443097e+01
  -4.668052e+01   4.420064e+01
  -8.034925e+01  -1.879894e+01
  -3.500288e+01  -5.966550e+01
   2.097016e+00  -2.999453e+01
   4.930473e+01   1.051022e+01
   3.299869e+01  -1.467340e+00
  -3.467881e+01   3.809065e+01
  -3.655668e+01   3.848618e+01
   3.115951e+01  -2.306504e+01
   3.635336e+01  -4.421772e+01
   4.143282e+01   8.849891e+00
  -2.482906e+01   4.032288e+01
  -4.770594e+01   4.984159e+01
  -3.556659e+01   2.960605e+01
  -3.405197e+01  -5.191642e+01
   6.155486e+01  -6.038329e+01
   5.623724e+01  -4.732408e+00
   1.262440e+00   2.675711e+01
  -6.171549e+00   4.508746e+01
  -5.585035e+01  -9.285760e+00
  -2.879516e+01  -3.967803e+01
   4.095756e+00  -1.908701e+01
   3.971936e+01   1.084137e+01
   4.740718e+01   3.687151e+01
   1.547545e+01   1.584604e+01
   3.259466e+00  -4.357761e+00
  -1.291291e+01  -1.046910e+00
  -7.017162e+00   2.856383e+01
  -3.548710e-01   3.047685e+01
  -6.419802e+00   4.153942e+01
  -3.653161e+01   2.752492e+00
  -1.697532e+01  -8.682418e+01
   2.846152e+01  -2.692833e+01
   3.438613e+01   1.641631e+01
  -7.500537e-01   6.250452e+01
  -2.547486e+01   5.195527e+01
  -4.103488e+01   3.463656e+00
  -5.260458e+01  -3.337681e+01
   1.523019e+01  -1.393705e+01
   4.085009e+01  -4.013177e+01
   3.722868e+01  -2.481477e+00
  -3.236490e+01   9.886884e+00
  -2.494881e+01   2.475353e+01
  -2.549429e+01  -3.978169e+01
   2.690490e+01  -1.301661e+01
