
 $NMID
 id='ANONYMOUS ', fmtdat='(2E16.6)'
 volume=1.0
 tramp=1.0
 $END
   3.173190e+03  -1.120853e+02
   2.014585e+03   2.050472e+03
  -4.648295e+02   2.081459e+03
  -1.383819e+03   9.280258e+02
  -9.044519e+02  -3.035194e+02
   4.161813e+02  -4.566496e+02
   6.237432e+02   3.494507e+02
   1.852593e+00   7.961822e+02
  -7.032376e+02   7.033219e+02
  -8.869489e+02  -2.035436e+01
  -4.595886e+02  -7.228325e+02
   2.124965e+02  -7.247741e+02
   5.319837e+02  -1.275566e+02
   3.474804e+02   6.563789e+02
  -2.348718e+02   6.543069e+02
  -4.997668e+02   4.425640e+01
  -2.995634e+02  -5.857462e+02
   1.924743e+02  -6.104909e+02
   5.178501e+02  -1.451180e+02
   4.100268e+02   2.853410e+02
   2.512062e+01   3.769501e+02
  -1.887454e+02   2.694850e+02
  -1.975134e+02  -5.703847e+00
   1.533931e+02  -7.849061e+01
   4.197825e+02   1.688554e+02
   1.457002e+02   4.245467e+02
  -4.012441e+02   3.922280e+02
  -7.295123e+02  -7.816636e+01
  -3.687951e+02  -4.880414e+02
   3.252975e+02  -3.985486e+02
   5.604741e+02   5.800676e+01
   2.953272e+02   3.941057e+02
  -2.688204e+02   4.650642e+02
  -5.248396e+02   2.128271e+02
  -3.340912e+02  -2.155116e+02
  -7.149482e+01  -3.527305e+02
   1.791460e+02  -2.333813e+02
   1.121320e+02   2.064624e+02
  -1.601978e+02   3.388390e+02
  -3.915816e+02  -7.010006e+01
  -1.955098e+02  -6.340331e+02
   3.143168e+02  -6.005091e+02
   4.987197e+02  -6.852077e+01
   2.043818e+02   4.666168e+02
  -2.291702e+02   2.907893e+02
  -2.895037e+02  -2.584817e+02
   5.211095e+01  -5.388449e+02
   4.710875e+02  -1.625618e+02
   5.887041e+02   3.096111e+02
   1.885517e+02   5.225771e+02
  -3.357935e+02   3.371074e+02
  -5.701968e+02  -8.369362e+00
  -3.552618e+02  -3.203121e+02
   1.011328e+02  -3.345956e+02
   3.887538e+02  -7.057552e+01
   2.088505e+02   1.322013e+02
  -7.876962e+01   9.160464e+01
  -1.607063e+02  -9.953946e+01
   1.004081e+02  -1.608423e+02
   2.724630e+02  -1.950178e+01
   1.579103e+02   2.124187e+02
  -1.381225e+02   2.620340e+02
  -3.128274e+02   1.318710e+02
  -2.077619e+02  -4.986457e+01
  -3.018689e+01  -2.287510e+02
   2.447265e+02  -3.452381e+02
   3.588625e+02  -1.906741e+02
   2.691845e+02   1.748701e+02
   3.770820e+01   3.932925e+02
  -9.538640e+01   3.048732e+02
  -7.403046e+01   9.808199e+01
  -2.970482e+01   8.402465e+00
  -4.757732e+01   8.312724e+01
  -1.630754e+02   1.211856e+02
  -2.495810e+02  -6.870285e+01
  -1.464335e+02  -2.583911e+02
   4.679684e+01  -2.410628e+02
   2.057153e+02  -3.766476e+01
   1.877367e+02   2.070005e+02
   2.514202e+01   2.696564e+02
  -2.126403e+02   1.398225e+02
  -3.316165e+02  -1.379342e+02
  -1.765517e+02  -2.885193e+02
   8.017015e+01  -2.414452e+02
   2.068998e+02  -1.062500e+02
   1.278681e+02  -2.431859e+01
   9.172797e+01  -5.461816e+01
   2.268292e+02  -8.375270e+01
   3.850110e+02   1.372222e+01
   3.023723e+02   2.142248e+02
   5.175849e+01   4.415003e+02
  -3.201189e+02   4.254918e+02
  -4.601042e+02   2.217959e+02
  -3.091858e+02  -6.793554e+01
  -6.602324e+01  -2.566614e+02
   9.345304e+01  -2.155510e+02
   7.259450e+01  -3.318098e+01
  -1.176211e+02   9.392912e+01
  -1.696124e+02  -1.658578e+01
  -3.940693e+01  -1.947786e+02
   1.580163e+02  -1.724748e+02
   1.665943e+02   3.857832e+01
   1.994449e+00   1.327434e+02
  -1.544969e+02   4.652778e+01
  -1.816419e+02  -2.408391e+02
   1.325400e+01  -2.819667e+02
   1.983756e+02  -1.989740e+02
   3.234567e+02   5.340857e+01
   2.664233e+02   2.022255e+02
   1.051153e+02   2.824697e+02
  -1.296851e+02   1.714639e+02
  -1.627643e+02  -5.706185e-01
  -4.551730e+01  -1.035055e+01
   7.674040e+01   8.138846e+00
   1.559446e+01   1.119926e+02
  -1.206664e+02   1.078054e+02
  -1.747052e+02  -3.376616e+00
  -4.703782e+01  -5.713468e+01
   1.045598e+02  -4.254651e+01
   5.898240e+01   2.935786e+01
  -7.301009e+01   1.118652e+02
  -2.395904e+02   1.850363e+01
  -2.203933e+02  -9.897592e+01
  -6.551972e+01  -2.331733e+02
   1.517665e+02  -2.640128e+02
   2.916647e+02  -7.999598e+01
   1.508370e+02   7.606606e+01
  -2.249413e+01   9.196756e+01
  -6.876946e+01  -1.253317e+01
   2.537963e+00  -7.843330e+01
   1.578652e+02  -7.596859e+01
   1.955640e+02   7.536501e+01
   5.020739e+01   1.825151e+02
  -5.419228e+01   1.313408e+02
  -1.341033e+02   2.254439e+01
  -7.034530e+01  -4.460779e+01
   3.424041e+01   3.556851e+00
   6.956127e+01   7.171601e+01
  -5.018808e+01   1.379050e+02
  -1.542861e+02   4.210055e+01
  -1.768099e+02  -9.656084e+01
  -2.642541e+01  -1.779789e+02
   1.526574e+02  -1.346739e+02
   1.779835e+02  -2.255043e+01
   7.610100e+01   8.673107e+01
  -5.159203e+01   8.506580e+01
  -1.046895e+02   6.158480e+01
  -9.807323e+00  -8.594423e+00
   1.348234e+01  -2.133494e+01
  -1.601493e+00  -7.659001e+00
  -8.247875e+01  -1.289159e+01
  -9.395703e+01  -7.228595e+01
  -4.397496e+01  -1.417791e+02
   1.161944e+02  -1.638086e+02
   2.086564e+02  -3.538489e+01
   1.597837e+02   1.331096e+02
   2.137505e+01   2.060317e+02
  -1.057874e+02   1.467059e+02
  -1.056827e+02   3.150851e+01
  -5.564505e+01  -4.818742e+01
  -1.509946e+01  -3.979783e+01
  -4.181991e+01   2.059504e+01
  -7.119973e+01   2.314799e+01
  -3.655315e+01  -4.862949e+01
   3.343199e+01  -8.132829e+01
   9.543847e+01  -5.606421e+01
   7.232922e+01   4.735270e+01
   5.529284e+00   1.132257e+02
  -1.452807e+02   9.935446e+01
  -1.954186e+02  -3.042521e+01
  -1.268718e+02  -1.776514e+02
   1.114652e+02  -1.995271e+02
   2.325328e+02  -1.048066e+02
   2.143659e+02   6.389521e+01
   1.103843e+02   1.163102e+02
  -6.955741e+01   1.359562e+02
  -5.971668e+01   9.033837e+01
  -4.032820e+01   3.895214e+01
  -1.202305e+01   8.993840e+01
  -4.481527e+01   9.034016e+01
  -1.350330e+02  -1.747414e+01
  -9.708459e+01  -1.147767e+02
  -4.446505e+01  -1.881652e+02
   1.139224e+02  -1.448754e+02
   1.559558e+02  -4.859137e+01
   1.389269e+02   1.362488e+02
  -2.760547e+00   1.417937e+02
  -8.605912e+01   9.822732e+01
  -4.194584e+01   8.724537e+00
   1.968151e+01  -3.193734e+01
   3.354531e+00  -3.248576e+00
  -2.225677e+01  -2.845570e+01
  -6.937793e+01   7.931634e+00
  -6.733517e+01  -3.754728e+01
   6.027623e+01  -4.064086e+01
   1.178286e+02  -5.863065e+01
   1.473323e+02   3.069623e+01
   8.614788e+00   9.121069e+01
  -1.063006e+02   9.609949e+01
  -1.443013e+02   3.943413e+01
  -6.381362e+01  -5.530949e+01
   6.880064e+01  -4.318637e+01
   8.690760e+01   6.576118e+00
   1.248114e+01   8.369688e+01
  -3.838051e+01   6.592936e+01
  -5.911693e+01   1.616190e+01
  -4.972374e+01  -5.110862e+01
  -4.416872e+01  -4.210977e+01
  -4.308795e+01  -2.948103e+01
  -4.580278e+01   4.459249e+00
  -3.256027e+01  -6.235339e+01
   3.218523e+01  -1.205992e+02
   7.648778e+01  -8.852062e+01
   1.697591e+02  -7.493807e+01
   9.485515e+01   9.239282e+01
   1.474111e+01   9.199475e+01
  -9.880104e+01   6.643623e+01
  -7.212256e+01   3.158910e+00
   3.997344e+01  -1.375500e+01
   1.018049e+02   2.726545e+01
   7.393626e+01   7.295760e+01
  -2.999281e+01   1.074305e+02
  -1.620146e+02   5.220008e+01
  -1.408612e+02  -8.935632e+00
  -8.842324e+00  -7.241242e+01
   6.525929e+01  -7.675181e+01
   2.852908e+01   1.075404e+01
  -3.943533e+01   3.505317e+01
  -7.213659e+01  -7.191556e+00
  -1.296098e+01  -7.920982e+01
   7.279974e+01  -1.496612e+02
   1.480107e+02  -5.020277e+01
   1.068685e+02   7.599739e+01
  -9.918237e-01   1.897832e+02
  -7.695644e+01   1.162584e+02
  -8.663925e+01   3.655603e+00
  -4.809388e+01  -1.115708e+02
   1.623940e+00  -9.173924e+01
   5.499800e+01  -1.938319e+01
   4.406957e+01   1.103653e+01
   3.178211e+01   1.665272e+01
  -1.691348e+01  -4.328743e+00
   2.010849e+01   2.224160e+00
   5.358082e+01   6.665596e+01
   3.334593e+01   1.005983e+02
  -5.502196e+01   2.997306e+01
  -1.293415e+02  -4.085429e+01
  -9.934173e+01  -7.484356e+01
  -5.259629e+01  -5.396766e+01
   1.062040e+02   7.812096e+00
   8.580600e+01  -1.262486e+01
   2.378487e+01   1.879169e+01
  -3.026594e+01   1.893761e+01
  -4.669052e+01   1.827176e+01
   2.836595e+01   1.647515e+01
  -1.662105e+01  -3.756556e+01
  -6.214890e+01   9.777342e+00
  -9.413043e+01  -1.336079e+01
  -1.538459e+01  -6.855646e+01
   8.382718e+01  -9.469959e+01
   1.379975e+02  -5.811835e+01
   1.315369e+02   2.883697e+01
   2.789789e+01   1.398195e+02
  -2.599419e+01   1.323292e+02
  -6.984589e+01   1.057958e+02
  -7.457159e+01   4.764428e+00
  -3.867484e+01  -5.503088e+01
   6.712614e+00  -1.195174e+01
  -6.123273e+00  -1.846218e+01
  -4.968152e+01  -3.067288e+01
   3.508898e+00  -6.834781e+01
   2.942000e+01  -4.093881e+01
   5.295728e+01   3.279747e+00
   4.492589e+01   1.005702e+02
   2.567901e+01   7.308654e+01
  -5.475663e+01   2.314339e+01
  -8.211216e+01  -5.945040e+01
  -6.182934e+01  -7.969477e+01
   6.830762e+01  -6.810892e+01
   7.504484e+01  -1.090741e+01
   3.399280e+01   5.790175e+01
  -4.245138e+01   6.373795e+01
  -3.204324e+01   2.203854e+01
   4.252281e+00  -2.073823e+01
   5.083282e+01  -3.192151e+01
   4.347713e+01   3.129865e+01
  -8.225640e+01   4.217892e+01
  -1.065538e+02   4.675634e+01
  -4.795043e+01  -2.978108e+01
   1.876732e+01  -7.533517e+01
   7.731339e+01  -7.429165e+01
   4.259354e+01  -5.116054e+00
  -1.068283e+01   8.067930e+01
  -3.308293e+01   3.225663e+01
  -4.236142e+01  -2.209569e+01
  -1.973399e+01  -3.659964e+01
   1.164852e+00  -1.433456e+01
   3.551937e+01   1.777284e+01
   4.993992e+01   1.577900e+01
  -9.569310e+00   9.007990e+00
   4.587578e+00  -2.800327e+01
   1.742822e+01   4.175246e+00
  -1.221663e+01   4.023743e+01
   1.631254e+01   3.635162e+01
  -3.046316e+01   1.064061e+01
  -3.363701e+01  -1.330219e+01
  -1.511521e+00  -8.394317e+01
   4.972548e+01  -1.159741e+01
   6.517686e+01   1.849130e+01
   1.261894e+01   7.238801e+01
  -6.200976e+01   4.986406e+01
  -8.060853e+01  -3.170173e+00
  -5.125329e+01  -3.096103e+01
   2.425172e+01  -4.576234e+01
   3.503197e+01   3.417819e-02
   3.799147e+01   4.012780e+01
  -3.340714e+01  -4.694905e+00
  -1.916889e+01  -1.546193e+01
   4.112982e+01  -1.339775e+01
   1.047131e+02  -2.447989e+01
