
 $NMID
 id='ANONYMOUS ', fmtdat='(2E16.6)'
 volume=1.0
 tramp=1.0
 $END
  -3.114896e+03  -1.949116e+02
  -1.701934e+03  -1.400101e+03
   1.191926e+02  -1.925864e+03
   1.240329e+03  -1.331337e+03
   9.683604e+02  -2.537590e+02
   1.674494e+02   1.671183e+02
  -2.708442e+02  -7.204441e+01
   7.116482e-01  -5.104008e+02
   4.071897e+02  -6.458473e+02
   6.464491e+02  -1.587960e+02
   5.305956e+02   5.212152e+02
   9.193107e+01   6.635109e+02
  -2.916531e+02   2.510071e+02
  -3.281206e+02  -4.367165e+02
   8.789149e+01  -4.905262e+02
   3.555841e+02  -1.094235e+02
   3.153718e+02   4.450880e+02
  -1.084844e+02   6.566552e+02
  -4.463298e+02   2.751911e+02
  -4.629163e+02  -1.372036e+02
  -1.551568e+02  -3.558170e+02
   9.704335e+01  -2.634530e+02
   1.199000e+02  -7.517061e+01
  -1.304004e+02  -6.040807e+01
  -2.534696e+02  -2.196001e+02
  -3.225265e+01  -3.365690e+02
   4.230923e+02  -2.199832e+02
   6.152421e+02   5.404745e+01
   1.907266e+02   3.695032e+02
  -2.667164e+02   3.084796e+02
  -4.878088e+02  -5.343110e+00
  -2.709214e+02  -3.154747e+02
   1.983777e+02  -3.724648e+02
   3.993492e+02  -1.955109e+02
   3.283398e+02   1.162284e+02
   1.112601e+02   2.971607e+02
  -2.141393e+01   1.844413e+02
   2.886136e+01  -6.963269e+01
   9.739601e+01  -1.469725e+02
   2.159091e+02   7.972651e+01
   2.152308e+01   4.435596e+02
  -1.636268e+02   4.425633e+02
  -3.381134e+02   5.023258e+01
  -1.842481e+02  -3.385614e+02
   1.146366e+02  -1.660037e+02
   1.465888e+02   2.292675e+02
  -7.539884e+01   3.011032e+02
  -3.338604e+02   5.226351e+01
  -4.471247e+02  -2.904816e+02
  -1.317874e+02  -4.377191e+02
   2.799385e+02  -2.575375e+02
   4.615350e+02   3.873230e+01
   3.166130e+02   1.920558e+02
  -2.807760e+01   2.400494e+02
  -2.642954e+02   8.753438e+01
  -2.424616e+02  -2.250906e+01
  -2.423698e+01  -2.284553e+01
   5.505906e+01   5.186456e+01
  -8.037873e+01   2.556600e+01
  -2.088374e+02  -5.003669e+01
  -1.399040e+02  -1.592843e+02
   1.460238e+02  -2.049782e+02
   2.876911e+02  -1.558104e+02
   2.415701e+02   7.772245e+01
   1.676757e+01   2.900621e+02
  -2.758340e+02   3.665734e+02
  -2.675314e+02   1.929587e+02
  -2.435446e+02  -1.481770e+02
  -5.399784e+01  -3.067358e+02
   4.441185e+01  -3.283485e+02
   2.600956e+01  -1.411021e+02
   2.252956e+01  -6.606645e+01
   1.159434e+02  -9.135229e+01
   1.898416e+02  -5.001757e+01
   2.465845e+02   1.030926e+02
   4.807528e+01   2.545275e+02
  -8.952903e+01   1.544677e+02
  -1.824474e+02  -5.762980e+01
  -1.066422e+02  -2.464007e+02
   2.822944e+01  -2.611153e+02
   2.361905e+02  -5.831005e+01
   2.690347e+02   1.914094e+02
   2.131187e+02   2.730604e+02
  -1.553393e+00   2.699095e+02
  -1.944345e+02   1.783670e+02
  -1.631755e+02   7.840410e+01
  -1.402351e+02   6.451592e+01
  -2.576646e+02   1.631501e+01
  -4.022767e+02  -7.138820e+01
  -3.293247e+02  -2.965270e+02
  -1.161047e+01  -3.971778e+02
   3.371669e+02  -3.999522e+02
   4.760300e+02  -1.582447e+02
   2.840922e+02   1.063300e+02
   3.354480e+01   2.746023e+02
  -9.246621e+01   1.925020e+02
   3.442985e+00   4.391376e+01
   1.199299e+02  -6.412479e+01
   9.832516e+01   8.390248e+00
   5.480932e+00   1.407163e+02
  -9.943457e+01   1.059453e+02
  -1.019352e+02  -4.474209e+01
   6.152451e+01  -1.207266e+02
   1.633740e+02  -1.728411e+01
   1.214518e+02   2.206226e+02
  -1.936913e+01   2.719994e+02
  -2.276625e+02   2.276403e+02
  -3.390698e+02  -5.690045e+01
  -2.609642e+02  -2.421216e+02
  -5.782262e+01  -2.257124e+02
   1.396606e+02  -1.410046e+02
   1.693302e+02  -2.552083e+01
   3.471773e+01   4.073995e+01
  -4.718303e+01  -5.344857e+01
   1.543262e+00  -8.496421e+01
   1.012107e+02  -5.964182e+01
   1.480399e+02   1.608248e+01
   5.787918e+00   6.318482e+01
  -5.667384e+01  -1.336195e+01
  -2.410506e+01  -1.054341e+02
   1.147104e+02  -9.833163e+01
   2.644082e+02   1.834842e+01
   2.649710e+02   1.734186e+02
   6.093238e+01   2.865257e+02
  -2.024152e+02   2.495945e+02
  -2.573960e+02   1.154195e+02
  -1.393649e+02  -5.301308e+01
   2.434274e+01  -9.467633e+01
   3.995366e+01   7.581125e-01
  -6.161942e+01   7.072158e+01
  -2.129609e+02   5.710255e+01
  -1.921475e+02  -5.535226e+01
  -1.019583e+02  -1.620703e+02
   8.216879e+01  -1.549708e+02
   1.121557e+02  -4.356177e+01
   5.265539e+01   7.485707e+01
  -2.689625e+01  -7.909731e+00
  -5.261133e+01  -1.070281e+02
   9.868261e+01  -1.253876e+02
   1.803468e+02  -5.248730e+01
   2.091614e+02   1.138735e+02
   1.710245e+01   1.945605e+02
  -1.250799e+02   1.545357e+02
  -1.704001e+02   6.701402e+00
  -7.285439e+01  -8.885574e+01
   7.575819e+01  -1.362349e+02
   1.049732e+02  -1.623300e+01
   1.537383e+01   2.438869e+01
  -4.565628e+01   9.557747e+00
   9.303785e-01  -1.573546e+01
   1.224499e+02  -3.211708e+00
   1.200470e+02   9.466969e+01
   2.499057e+01   1.909581e+02
  -1.574005e+02   1.512023e+02
  -2.371148e+02   4.632168e+01
  -2.194175e+02  -1.421799e+02
  -3.139087e+01  -2.030014e+02
   8.300583e+01  -1.835384e+02
   1.197295e+02  -5.872570e+01
   8.329268e+01   3.864583e+01
   2.849084e+01   5.173965e+01
   3.921553e+01  -1.058616e+01
   9.417044e+01  -2.386836e+00
   5.453926e+01   3.136358e+01
  -2.649026e+01   5.519426e+01
  -8.159754e+01   8.841876e+01
  -8.739614e+01  -2.271822e+01
   8.523799e+00  -1.250309e+02
   1.645171e+02  -9.512705e+01
   2.019623e+02   5.558448e+01
   1.026706e+02   2.179240e+02
  -9.717635e+01   2.132373e+02
  -2.521262e+02   6.614927e+01
  -2.460943e+02  -1.161772e+02
  -9.849881e+01  -1.633027e+02
   3.684614e+01  -1.298697e+02
   8.152976e+01  -7.839940e+01
   4.928393e+01  -7.242715e+01
   5.583614e+01  -8.897144e+01
   7.216172e+01  -8.485920e+01
   8.792914e+01   4.329869e+01
   9.422640e+01   1.400612e+02
   3.385864e+01   2.284205e+02
  -9.632282e+01   1.475310e+02
  -1.461220e+02   1.569747e+01
  -1.264233e+02  -1.320756e+02
  -4.089262e+01  -1.623248e+02
   7.393672e+01  -5.556685e+01
   8.425631e+01   3.021582e+01
   3.557566e+01   6.086644e+01
  -1.905313e+01   3.467601e+01
   2.757787e+01   3.098984e+01
   7.053082e+01   3.279881e+01
   5.176349e+01   8.598431e+00
  -8.308554e+01   3.861958e+01
  -1.467191e+02   8.627661e+00
  -1.442899e+02  -6.116038e+01
  -2.001015e+01  -9.635759e+01
   1.036490e+02  -7.767130e+01
   1.339299e+02  -2.154261e+01
   6.101497e+01   5.971092e+01
  -7.096474e+01   4.711051e+01
  -1.208458e+02  -2.656763e+01
  -3.332715e+01  -8.160244e+01
   4.428357e+01  -7.118969e+01
   4.961174e+01  -1.697123e+01
   7.765136e+01   6.560973e+01
   4.984537e+01   2.690472e+01
   6.939454e+01   2.254089e+01
   6.164053e+01  -9.877930e+00
   3.032125e+01   9.786022e+01
  -2.600020e+01   1.222417e+02
  -1.194488e+02   9.882304e+01
  -1.750523e+02   2.147569e+01
  -1.219877e+02  -7.923017e+01
  -2.385057e+01  -1.692663e+02
   7.897186e+01  -6.717912e+01
   9.389545e+01   3.820083e+00
  -3.684406e+01   2.438642e+01
  -1.179725e+02  -2.302593e+01
  -7.213435e+01  -1.114904e+02
   6.915874e+01  -1.301656e+02
   1.755583e+02  -7.254560e+01
   1.505010e+02   7.614358e+01
   6.555523e+01   8.066360e+01
  -6.762074e+01   4.693414e+01
  -7.820678e+01   9.956149e+00
   3.861139e+01  -4.142314e+01
   1.108024e+02   2.697350e+01
   1.501907e+01   1.159455e+02
  -4.566029e+01   1.499702e+02
  -1.337400e+02   6.843750e+01
  -1.168031e+02  -1.224079e+02
  -1.444225e+01  -1.762123e+02
   9.411694e+01  -1.289868e+02
   9.547515e+01   8.868228e+00
   6.526382e+01   1.285770e+02
  -4.374107e+01   1.279148e+02
  -3.477084e+01   1.442435e+01
  -6.133706e+01  -4.103069e+01
  -1.375042e+01  -1.564855e+01
   1.535820e+01   3.557286e+01
  -1.306249e+01  -1.641738e+01
  -7.028052e+01  -8.223947e+01
  -2.013837e+01  -9.314738e+01
   6.280657e+01  -2.616908e+01
   1.159133e+02  -4.962053e+00
   9.499600e+01   1.016150e+02
   9.987424e+00   5.468057e+01
  -8.317224e+01   2.050466e+01
  -9.912715e+01   5.729465e+00
  -3.308256e+01  -7.628319e+00
   3.310422e+01  -8.869865e+00
   2.481223e+01  -3.696289e+01
   2.069154e+01  -1.981049e+01
  -9.051736e+00   2.453481e+01
   6.613664e+01  -1.898481e+00
   1.091492e+02   1.083350e+01
   3.136285e+01   6.744776e+01
  -9.815212e+01   1.353372e+02
  -1.598028e+02   7.362576e+01
  -1.462195e+02  -4.210571e+01
  -4.977635e+01  -1.687394e+02
   7.412592e+01  -1.439590e+02
   1.259380e+02  -1.043301e+02
   1.061166e+02   1.060612e+01
   7.061273e+00   3.855703e+01
  -7.284912e+00   3.240578e+01
   4.646139e+00  -2.144933e+01
   3.106018e+01   4.703127e+01
   5.457951e+00   7.230348e+01
  -7.764116e+00   7.334881e+01
  -6.382686e+01  -1.237229e+01
  -9.989783e+01  -8.794418e+01
  -2.475194e+01  -1.403355e+02
   8.067270e+01  -5.068365e+01
   7.399127e+01   8.243597e+01
   5.700353e+01   1.134962e+02
  -5.651252e+01   6.184667e+01
  -6.801164e+01   1.664385e+01
  -3.485820e+01  -4.448824e+01
   1.459056e+01  -5.789799e+01
   6.162070e+01  -2.552043e+01
   6.316284e+00   5.890455e+00
  -6.855377e+01   1.988102e+01
  -3.988013e+01  -3.024096e+01
   8.730372e+01  -6.326394e+01
   1.180976e+02  -6.045893e+01
   7.177408e+01   1.505583e+00
  -2.227208e+01   4.423287e+01
  -6.323714e+01   1.109343e+02
  -3.242289e+01  -6.405912e+00
   2.026669e+01  -2.544305e+01
   3.923511e+01  -4.080828e+01
   1.660925e+01   3.906114e+00
   5.898396e+01   4.420725e+01
   8.330191e+00   3.223823e+01
  -2.696468e+01  -1.277800e+01
  -4.865756e+01  -3.360992e+01
   8.650580e+00  -3.638116e+00
   1.600844e+01  -7.200498e+00
   3.043871e+01  -2.814658e+00
   2.287698e-01   4.381280e+00
  -2.722846e+01  -5.349218e+01
   5.232714e+00  -2.544861e+01
   4.849881e+01   2.813922e+01
   1.933179e+01   2.228457e+01
  -1.742536e+01   2.002472e+01
  -5.767526e+01  -2.609959e+01
  -1.783548e+01  -1.972488e+01
   6.769340e+01  -4.029643e+01
   8.078986e+01   1.786342e+00
   2.801993e+01   4.420985e+01
   8.316890e-01   5.432579e+01
  -5.469440e+01   4.391948e+01
  -3.544579e+01  -1.305779e+01
   1.075475e+01  -1.500065e+01
   1.856591e+01  -2.403130e+00
  -3.997537e+01   3.409895e+01
  -6.493263e+01  -1.000102e+01
