
 $NMID
 id='ANONYMOUS ', fmtdat='(2E16.6)'
 volume=1.0
 tramp=1.0
 $END
   2.330154e+03   4.633692e+02
   1.353162e+03   1.005277e+03
  -4.064712e+01   1.188804e+03
  -4.838808e+02   8.314107e+02
  -7.306577e+02   3.546525e+02
  -1.927116e+02   8.269105e+00
   1.130149e+02  -3.377176e+01
   6.282163e+01   2.845054e+02
  -2.436874e+02   3.596766e+02
  -4.654697e+02   7.709565e+01
  -3.017679e+02  -2.642600e+02
  -3.438792e+01  -3.932806e+02
   1.139017e+02  -1.536654e+02
   1.601285e+02   2.139946e+02
  -8.576387e+01   2.886016e+02
  -2.385765e+02  -1.214181e+01
  -1.989801e+02  -3.568439e+02
   1.133369e+02  -4.440524e+02
   3.197152e+02  -2.334839e+02
   3.132403e+02   8.323285e+01
   1.057478e+02   2.133110e+02
  -3.546147e+01   1.919989e+02
  -1.983107e+01   5.913368e+01
   1.691070e+02   1.760214e+02
   1.712508e+02   2.322476e+02
  -6.051610e+01   2.580243e+02
  -3.887530e+02   6.202310e+01
  -3.746546e+02  -1.924469e+02
  -8.955443e+01  -1.715678e+02
   2.402886e+02  -7.868070e+01
   3.267317e+02   1.716355e+02
   7.255546e+01   2.436206e+02
  -2.243754e+02   2.224777e+02
  -3.413946e+02   6.932325e+01
  -1.855917e+02  -1.412425e+02
  -5.352602e+01  -2.260717e+02
   3.209789e+01  -9.106005e+01
  -1.266544e+02   2.503896e+01
  -1.607865e+02   4.059152e+01
  -7.883253e+01  -1.733471e+02
   6.634262e+01  -2.772799e+02
   1.458755e+02  -3.264729e+02
   2.045124e+02  -4.788235e+01
   2.584010e+01   1.899480e+02
  -1.166226e+02   7.193609e+01
  -8.042531e+01  -2.035993e+02
   1.246572e+02  -2.721312e+02
   2.919094e+02  -2.780288e+01
   3.562636e+02   2.859787e+02
   7.353461e+01   3.350244e+02
  -2.276018e+02   2.221265e+02
  -3.182345e+02  -3.963146e+01
  -2.071815e+02  -1.660271e+02
   1.549097e+01  -1.363855e+02
   1.816469e+02  -6.581030e+01
   1.579287e+02   3.556735e+00
   4.450641e+01   1.905576e+01
  -4.000053e+01   3.944821e+01
   2.926726e+01  -3.561793e+00
   1.138491e+02   1.831817e+01
   4.222506e+01   1.209354e+02
  -1.197342e+02   1.727994e+02
  -2.670509e+02   7.826277e+01
  -2.287433e+02  -1.011677e+02
   3.968107e+01  -2.739927e+02
   2.383426e+02  -2.645824e+02
   2.590517e+02  -6.757212e+01
   1.140374e+02   1.586167e+02
   1.132569e+00   2.531439e+02
  -1.189505e+01   1.869585e+02
   8.215991e+00   9.371390e+01
  -9.822484e+00   9.739732e+01
  -1.245983e+02   8.624599e+01
  -1.807751e+02  -1.625903e+00
  -1.765550e+02  -1.177610e+02
  -2.936754e+01  -1.670196e+02
   7.184360e+01  -1.374101e+02
   1.129481e+02   4.215348e+01
   8.040820e+01   1.706543e+02
  -3.588693e+01   1.358727e+02
  -1.658199e+02  -3.532845e-01
  -1.956684e+02  -1.531674e+02
  -7.264606e+01  -2.237829e+02
   3.929992e+01  -1.712867e+02
   9.939215e+01  -1.037849e+02
   1.090180e+02  -8.201778e+01
   1.502650e+02  -6.547567e+01
   2.088739e+02  -1.726589e+01
   3.161320e+02   8.643876e+01
   2.814150e+02   2.526234e+02
  -8.805517e+00   3.611978e+02
  -2.752833e+02   2.861097e+02
  -3.543056e+02   8.967024e+01
  -1.900803e+02  -5.951527e+01
  -5.623067e+00  -1.732694e+02
   4.882106e+01  -1.059555e+02
  -1.189859e+01  -1.983982e+01
  -1.120462e+02   3.424609e+01
  -3.422189e+01  -7.292972e+01
  -1.331229e+01  -1.194808e+02
   8.698291e+01  -4.673618e+01
   8.289509e+01   3.043355e+01
  -3.214599e+01   8.071861e+01
  -1.148793e+02   1.862663e+01
  -1.110567e+02  -1.766952e+02
   2.120585e+01  -2.731011e+02
   1.746981e+02  -1.341544e+02
   2.594832e+02   8.347490e+01
   1.985795e+02   2.137298e+02
   2.606583e+01   2.032863e+02
  -1.301698e+02   1.118874e+02
  -1.018022e+02  -9.462657e+00
   8.041520e+00   1.049421e+01
   5.375146e+01   5.201643e+01
  -5.532122e+01   6.356679e+01
  -8.859734e+01   6.394047e-01
  -1.195394e+02  -3.047008e+01
  -1.973979e+01  -4.709695e+01
   4.979239e+01   1.982043e+01
   3.307816e+01   9.281178e+01
  -1.445205e+02   4.268687e+01
  -2.335771e+02  -2.093518e+01
  -1.614802e+02  -1.405680e+02
   3.064852e+01  -1.856749e+02
   1.940998e+02  -1.109481e+02
   1.914827e+02  -2.253398e+01
   6.942153e+01   1.635380e+01
  -5.782633e+01   1.367268e+01
  -4.647446e+01  -2.760808e+01
   9.483030e+01  -9.088233e+01
   1.389262e+02   5.754393e+00
   1.358864e+02   6.691938e+01
  -1.517258e+01   1.284462e+02
  -6.992831e+01   9.277594e+01
  -4.533312e+01  -1.418446e+01
   6.785838e+00  -4.197019e+01
   5.380727e+01   3.865893e+01
  -1.995923e+01   1.242737e+02
  -9.874797e+01   9.439747e+01
  -1.670512e+02  -2.549504e+01
  -1.279274e+02  -1.426111e+02
   2.819309e+01  -1.566523e+02
   1.500725e+02  -1.124741e+02
   1.231766e+02   2.852848e+01
   4.164265e+01   7.255306e+01
  -6.060940e+01   7.026514e+01
  -4.227898e+01   3.633172e+01
   6.791033e+00  -6.033482e+01
   3.676802e+01   2.093280e+01
   3.547255e+00   3.678861e+01
  -8.789786e+01   2.661132e+01
  -9.657797e+01  -8.517671e+01
  -1.190558e+00  -1.340578e+02
   1.135788e+02  -1.067862e+02
   1.699058e+02  -1.452092e+01
   1.155625e+02   8.540898e+01
   2.138451e+01   1.612500e+02
  -8.588344e+01   1.116568e+02
  -8.300259e+01   1.243385e+01
  -7.001265e+01  -1.615404e+01
  -2.253176e+01  -1.809247e+01
  -5.150881e+01   3.158116e+01
  -8.813517e+01   2.714217e+01
  -4.554670e+01  -6.440391e+01
   4.573514e+01  -9.275103e+01
   1.239579e+02  -6.316531e+01
   8.730360e+01   6.003298e+01
  -1.258240e+01   1.036829e+02
  -1.485291e+02   2.183681e+01
  -1.533500e+02  -6.558966e+01
  -3.268821e+01  -1.797008e+02
   8.766730e+01  -1.760746e+02
   2.109676e+02  -4.938820e+01
   1.769022e+02   8.198600e+01
   1.015868e+02   1.300706e+02
  -3.309130e+01   8.553397e+01
  -5.768904e+01   4.530805e+01
  -3.254879e+01   3.154623e+01
  -5.140478e+01   3.898659e+01
  -6.628080e+01   8.288298e+01
  -1.169542e+02  -7.558863e+00
  -8.482255e+01  -1.241447e+02
  -8.196499e+00  -1.416045e+02
   9.823282e+01  -8.627768e+01
   9.911615e+01   4.042215e+01
   7.393907e+01   9.213114e+01
  -1.638979e+01   1.015279e+02
  -6.285495e+01   6.584602e+01
  -3.878757e+01  -1.159081e+01
  -2.637237e+01  -4.738129e+01
   3.388347e+01  -1.083173e+01
  -3.099758e+01  -7.828277e+00
  -7.095532e+01  -1.333267e+01
  -4.638411e+01  -2.774019e+01
   5.525975e+01  -4.787371e+01
   1.103140e+02   1.381890e+01
   1.190912e+02   7.674389e+01
   1.327043e+01   6.397760e+01
  -1.036802e+02   3.922972e+01
  -8.152162e+01  -2.663780e+01
  -1.780146e+01  -2.917902e+01
   3.619403e+01  -2.798417e+01
   5.779474e+01   4.894967e+01
   1.854323e+01   8.263370e+01
  -6.280728e+01   3.631299e+01
  -6.260127e+01   5.394861e+00
  -4.823462e+01  -5.021062e+01
  -3.842988e+01  -2.547861e+01
  -1.854331e+01  -2.538039e+01
  -5.851238e+01  -2.236934e+01
  -1.560778e+01  -7.227579e+01
   6.576354e+01  -9.297958e+01
   1.102456e+02  -8.406355e+01
   1.522959e+02  -3.429507e+00
   8.083832e+01   1.128822e+02
  -1.527740e+01   8.873271e+01
  -6.564238e+01   4.274634e+01
  -3.743271e+01  -2.000509e+01
   4.017651e+01   7.307655e+00
   9.974642e+01   7.642972e+01
   1.882571e+01   1.143359e+02
  -7.618793e+01   7.915377e+01
  -1.072354e+02   2.313061e+00
  -8.109372e+01  -1.604952e+01
  -2.548180e+01  -3.875042e+01
   3.489874e+01  -2.582986e+01
   3.217044e+01   5.892716e+00
  -1.359786e+01   3.982358e+01
  -1.039930e+02  -2.394687e+01
  -1.826580e+00  -7.981557e+01
   8.819729e+01  -9.914661e+01
   1.510019e+02   6.881608e+00
   8.315531e+01   6.067167e+01
   2.797623e+01   1.221670e+02
  -5.333671e+01   1.035148e+02
  -6.161400e+01  -3.719016e+01
  -1.029914e+01  -8.196808e+01
   3.771902e-01  -8.358529e+01
   4.500409e+01  -2.295215e+01
   2.473413e+01   1.785222e+01
   8.066204e+00  -1.140673e+01
   1.065170e+01  -1.304184e+01
   6.310551e+01   4.502719e+01
   4.551466e+01   6.479617e+01
  -5.530915e+00   6.549031e+01
  -4.807209e+01   3.792706e+01
  -1.023529e+02  -3.080966e+01
  -7.392071e+01  -6.846599e+01
   1.326437e+01  -3.995241e+01
   7.440200e+01  -2.064820e+01
   5.355538e+01  -2.636139e+01
   4.170642e+01   4.001699e+01
  -2.459044e+01   3.602263e+01
  -8.035724e+00   1.367272e+01
   2.580997e+01  -1.854365e+01
   1.230423e+01  -2.740725e+00
  -7.544190e+01   1.124984e+01
  -8.127937e+01  -5.801631e+00
  -4.116568e+01  -8.003955e+01
   8.074990e+01  -9.414740e+01
   1.228463e+02  -4.869054e+01
   1.376830e+02   3.622605e+01
   2.940358e+01   8.238650e+01
  -6.404636e+01   1.149156e+02
  -5.920627e+01   5.286923e+01
  -6.076915e+01   1.507081e-02
  -3.223185e+01  -1.459651e+01
  -4.216607e+01  -2.501011e+01
  -3.852875e+00  -6.316653e+00
  -4.475902e+01  -4.719222e+01
  -5.103120e+01  -5.696034e+01
   2.604765e+01  -4.056061e+01
   5.663317e+01   2.044486e+01
   6.204635e+01   4.903716e+01
   2.080422e-01   9.463543e+01
  -3.792648e+01   2.244714e+01
  -6.037042e+01  -5.374963e+01
  -4.038181e+01  -8.620700e+01
   3.073261e+01  -4.135906e+01
   8.187639e+01   3.353791e+01
   1.512183e+01   5.271339e+01
  -3.388719e+01   7.560126e+01
  -8.067277e+00   9.453762e+00
   5.778726e+00  -8.941163e-02
   3.775733e+01  -5.811079e+01
   2.248448e+01   1.559442e+01
  -8.037855e+01   1.025204e+01
  -8.866147e+01   3.286496e+01
  -2.838559e+01  -2.236421e+01
   2.487410e+01  -4.417051e+01
   2.767525e+01  -9.017719e+01
   4.281634e+01  -2.724578e+01
  -5.819407e+00   2.645089e+01
  -1.613357e+01  -3.476746e+00
  -3.391573e+00  -1.573654e+01
  -2.080982e+01  -4.479446e+01
  -4.603175e+00  -5.259166e+01
   1.938460e+01   8.027135e+00
   3.381769e+01   5.347856e+00
  -1.216356e+01   1.520957e+01
   1.033736e+01  -1.601106e+01
  -2.149600e+00  -1.663357e+01
   6.473446e+00   5.375315e+01
   5.741399e+00   1.535248e+01
  -2.973965e+01   1.820989e+01
  -3.093760e+01  -6.908386e+01
  -1.114915e+01  -6.451151e+00
   2.782220e+01  -1.060460e+01
   4.981762e+01   2.606005e+01
  -4.453794e+00   1.468417e+01
  -2.807565e+01   2.709470e+01
  -5.731205e+01  -4.439702e+01
  -5.315060e+01  -6.486457e+01
   2.060134e+01  -1.426866e+01
   6.079912e+01  -4.277815e+01
   2.906076e+01   1.133418e+01
  -2.345833e+01  -1.439008e+01
   2.237016e+01  -1.503723e+01
   2.435006e+01  -3.116684e+01
   4.516137e+01   1.318710e+01
