
 $NMID
 id='ANONYMOUS ', fmtdat='(2E16.6)'
 volume=1.0
 tramp=1.0
 $END
   1.500483e+03   1.605100e+02
   1.083471e+03   8.661320e+02
   3.484484e+02   8.485813e+02
  -4.574777e+02   9.340253e+02
  -4.729872e+02   3.873258e+02
  -1.845198e+02   2.726793e+01
   3.680322e+01  -6.566322e+01
   1.616951e+02   1.617961e+02
  -5.916134e+01   3.265495e+02
  -2.890830e+02   2.009478e+02
  -3.328437e+02  -1.058942e+02
  -1.144589e+02  -3.165467e+02
   6.513995e+01  -1.658916e+02
   1.561707e+02   1.517498e+02
   5.837136e+01   2.513529e+02
  -1.680037e+02   1.110079e+02
  -2.436950e+02  -1.930163e+02
  -2.905598e+01  -4.241773e+02
   2.786273e+02  -2.859575e+02
   2.976207e+02   6.079067e+01
   1.535095e+02   2.159169e+02
  -1.536363e+01   1.773194e+02
  -3.866117e+01   8.836714e+01
   9.801573e+01   8.511530e+01
   1.271401e+02   1.346201e+02
  -7.334888e+01   1.363168e+02
  -2.428918e+02   6.063933e+00
  -2.762677e+02  -5.313404e+01
  -5.122944e+01  -1.079226e+02
   1.402437e+02  -5.435046e+01
   2.476930e+02   6.691948e+01
   4.421367e+01   1.867748e+02
  -1.119073e+02   1.179001e+02
  -2.263520e+02   9.568372e+01
  -2.135347e+02  -3.006549e+01
  -1.159927e+02  -1.595296e+02
  -5.437302e+01  -1.100396e+02
  -7.423748e+01  -2.063515e+01
  -5.615197e+01  -2.118543e+01
  -2.160723e+01  -8.453746e+01
   1.242863e+01  -1.475614e+02
   7.414612e+01  -1.917133e+02
   1.334705e+02  -2.335325e+01
   2.663165e+01   6.050304e+01
   1.256706e+01   4.099872e+01
  -3.384005e+01  -8.005790e+01
   3.435992e+01  -1.545418e+02
   1.688007e+02  -5.261803e+01
   2.354720e+02   2.071440e+02
   7.752196e+01   2.357504e+02
  -8.717058e+01   1.235083e+02
  -2.219335e+02   5.163422e+00
  -1.791115e+02  -5.710840e+01
  -9.788602e+00  -9.870098e+01
   9.226058e+01  -9.644098e+01
   1.334387e+02  -5.400514e+01
   6.751424e+01   1.874964e+01
  -3.441431e+01   2.698008e+01
   7.749271e+00  -1.129517e+01
   8.354229e+01   7.509901e+00
   1.038479e+02   5.858476e+01
  -6.154071e+01   1.510378e+02
  -1.988999e+02   8.739814e+01
  -1.698047e+02  -9.742201e+01
  -3.826419e+00  -2.236506e+02
   1.984799e+02  -2.179996e+02
   2.047542e+02  -7.645842e+01
   1.133417e+02   8.305559e+01
   4.034034e+01   1.693707e+02
   4.024997e+01   1.771891e+02
  -2.028340e+01   9.525352e+01
  -3.037707e+01   8.363806e+01
  -7.515861e+01   4.578604e+01
  -1.298299e+02  -1.534904e+00
  -1.338293e+02  -4.972062e+01
  -5.797126e+01  -9.307011e+01
   1.216601e+01  -9.425103e+01
   8.338900e+01   5.135387e+01
   4.697407e+01   8.118639e+01
  -2.143619e+01   9.866625e+01
  -8.198351e+01   3.353849e+00
  -1.636261e+02  -9.698808e+01
  -1.111209e+02  -1.220841e+02
   2.494368e+01  -1.530291e+02
   1.434479e+02  -1.027114e+02
   9.224896e+01  -1.108496e+02
   1.027120e+02  -3.182103e+01
   1.702116e+02  -3.997623e+01
   2.122981e+02   5.829871e+01
   2.078554e+02   1.194308e+02
   8.349213e+00   2.197441e+02
  -2.319880e+02   2.438197e+02
  -2.835678e+02   8.170253e+01
  -1.687767e+02  -3.721686e+01
  -6.572861e+01  -9.446420e+01
   2.906804e+01  -8.456438e+01
  -2.874194e+01  -1.785009e+01
  -5.282366e+01  -2.039246e+00
  -1.079373e+01  -4.041760e+01
  -3.142732e+00  -3.408604e+01
   3.541831e+01  -3.477624e+01
   7.084801e+01   7.888571e+00
  -2.269779e+01   3.182846e+01
  -5.722293e+01   1.832196e+01
  -8.424576e+01  -8.581393e+01
  -3.806049e+01  -2.114703e+02
   1.528607e+02  -1.166673e+02
   2.243570e+02   1.760592e+01
   2.009880e+02   1.781872e+02
   4.020326e+01   1.747878e+02
  -7.689979e+01   1.023966e+02
  -8.575798e+01   1.192866e+01
  -2.489187e+01  -1.115694e+01
   1.798025e+01   4.864506e+01
  -6.080634e+00   7.624220e+01
  -4.064073e+01  -4.058032e-01
  -5.745826e+01   2.028089e+01
  -5.954997e+01  -1.551771e+01
   2.701450e+01   2.533110e+01
   1.543589e+01   3.614785e+01
  -8.337645e+01   1.484872e+01
  -1.614663e+02  -3.249666e+01
  -1.353989e+02  -1.124113e+02
   1.267843e+01  -1.374596e+02
   1.180427e+02  -9.183553e+01
   1.103721e+02  -3.193755e+01
   8.051898e+01   8.216804e+00
  -3.032904e+01  -1.093079e+01
  -1.639386e+01  -2.062107e+01
   7.023210e+01  -6.325049e+01
   9.864918e+01  -3.103809e+01
   7.097024e+01   6.107220e+01
   3.166763e+01   1.086265e+02
  -3.975383e+01   9.411238e+01
  -7.542212e+01   3.350049e+00
  -3.409274e+01  -3.231219e+01
   8.886758e+00   1.542297e+01
   2.020471e+01   7.055995e+01
  -4.457655e+01   6.485809e+01
  -7.551796e+01   1.736154e+01
  -7.238163e+01  -9.558360e+01
   5.296688e+00  -1.041710e+02
   9.365378e+01  -7.908586e+01
   1.028170e+02   5.587838e+00
   1.778519e+01   2.547938e+01
  -3.374283e+01   2.732891e+01
  -4.245419e+01   2.868148e+01
  -1.144397e+01  -1.403412e+01
   3.940925e+01  -1.524564e+01
  -5.297127e+00   3.364710e+01
  -6.625006e+01   2.749070e+01
  -5.297877e+01  -6.392085e+01
  -1.115783e+01  -9.138155e+01
   7.442469e+01  -6.406011e+01
   1.188171e+02   2.656295e+00
   9.055593e+01   9.802489e+01
   1.961364e+01   8.977923e+01
  -3.575168e+01   8.108231e+01
  -9.553124e+01   3.382631e+01
  -5.291959e+01  -5.662496e+01
  -3.050155e+01  -2.022713e+01
   4.501371e+00  -1.394695e+00
  -6.177463e+01   1.526358e+01
  -4.864054e+01  -2.880213e+01
   2.437209e+01  -9.330948e+01
   5.054447e+01  -6.849835e+01
   5.759393e+01   2.536285e+01
  -1.041057e+01   8.066710e+01
  -7.440986e+01   2.465721e+01
  -9.050287e+01  -4.023723e+01
  -3.754054e+01  -1.280162e+02
   8.011422e+01  -1.235916e+02
   1.495716e+02  -8.835188e+01
   1.347157e+02   8.916631e+00
   5.059905e+01   8.761218e+01
  -3.517535e+01   7.830781e+01
  -2.928946e+01   6.096024e+01
  -5.151851e+01   5.542636e+01
  -7.160632e+00   5.349345e+01
  -7.951072e+01   7.383774e+01
  -8.672749e+01   4.489703e+00
  -5.949169e+01  -8.994525e+01
  -5.420137e+00  -1.339370e+02
   6.780520e+01  -8.475362e+01
   7.032487e+01   1.465000e+01
   5.432167e+01   6.177062e+01
  -2.117799e+01   9.023725e+01
  -3.884238e+01   6.019891e+01
  -2.756107e+01  -5.359406e+00
  -2.243026e+00  -2.216328e+01
   4.528109e+01  -1.254408e+01
  -4.217724e+01   2.193968e+01
  -7.420904e+01  -3.490330e+01
  -4.104261e+01  -3.934626e+01
   6.408174e+01  -3.587679e+01
   1.334361e+02   4.487600e+00
   9.028946e+01   4.331160e+01
   7.682481e+00   7.444764e+01
  -9.154037e+01   6.002926e+01
  -9.198668e+01  -4.150347e+00
  -1.494544e+01  -4.136542e+01
   3.241413e+01  -2.948204e+01
   5.290525e+01   2.100110e+01
  -9.183753e-01   1.423272e+01
  -3.812545e+01   2.595642e+01
  -5.317104e+01   1.107299e+00
  -3.975062e+01  -2.175329e+01
  -5.531514e+01  -2.127659e+01
  -3.290929e+01   3.859237e+00
  -4.694527e+01  -1.346273e+01
  -2.453583e+00  -3.687064e+01
   1.990580e+01  -7.994163e+01
   5.402478e+01  -5.023493e+01
   8.175626e+01  -3.048580e+01
   5.356968e+01   3.511694e+01
   1.816759e+01   6.610480e+01
  -4.862579e+01   4.476034e+01
  -2.580818e+01   1.947277e-01
   4.335304e+01  -3.898295e+00
   8.540603e+01   4.999942e+01
   1.472299e+01   6.584152e+01
  -4.983684e+01   6.930013e+01
  -9.807329e+01   3.145361e+01
  -7.942659e+01  -1.474223e+01
  -3.981209e+01  -3.704608e+01
   3.088087e+00  -2.877339e+01
   1.143812e+01   8.580394e-01
   1.958811e+01   2.913587e+01
  -6.106860e+01   1.325636e+01
  -3.542388e+01  -6.426016e+01
   4.315744e+01  -8.998144e+01
   7.612702e+01  -1.944228e+01
   4.234323e+01   5.115646e+01
  -1.681546e-01   1.107207e+02
  -6.107292e+01   6.284024e+01
  -8.947712e+01  -2.077843e+01
  -4.404545e+01  -7.622659e+01
  -1.419045e+01  -7.268011e+01
   2.046461e+01  -3.621271e+01
   3.826951e+01   1.130374e+01
   4.035086e+01   9.687183e+00
   2.368278e+01  -2.098247e+01
   4.758344e+01   1.060754e+01
   3.223803e+01   5.072147e+01
  -1.123809e+00   6.195810e+01
  -3.220114e+01   1.759374e+01
  -6.729703e+01   4.789314e+00
  -5.879409e+01  -3.927742e+01
  -1.073893e+01  -3.891572e+01
   3.462629e+01  -3.029260e+01
   2.711406e+01  -2.424645e+01
   2.376315e+01   1.115815e+00
  -6.393971e+00  -4.292003e+00
  -5.697641e+00   3.000556e+01
   3.253063e+01  -3.630832e+01
  -1.559154e+01  -1.546674e+00
  -4.855391e+01  -8.032842e+00
  -3.917351e+01  -4.490685e+01
   9.478290e+00  -6.004162e+01
   4.675419e+01  -5.810081e+01
   9.004202e+01  -3.232980e+01
   8.689168e+01   2.504415e+01
   3.043840e+01   6.276933e+01
  -4.556273e+01   6.947548e+01
  -7.835217e+01   6.424640e+01
  -5.581800e+01  -2.250114e+01
  -4.335543e+01  -1.896809e+01
  -9.724173e+00  -2.010389e+01
  -3.831502e+00  -3.118086e+00
  -1.265958e+01  -2.932490e+01
  -2.801702e+01  -6.732726e+01
   3.027503e+01  -3.039176e+01
   2.127060e+01   1.827545e+01
   6.386367e+01   3.118546e+01
   1.571875e+01   3.717286e+01
  -4.730107e+01   1.106145e+01
  -6.658113e+01  -3.943441e+01
  -2.065881e+00  -9.471396e+01
   3.997847e+01  -3.892020e+01
   5.697323e+01  -2.534739e+01
   4.171825e+01   1.037966e+01
  -3.845617e+01   4.437175e+01
  -1.464646e+01   7.886802e+00
  -1.024067e+01  -1.864170e+00
   6.033568e+01  -1.304924e+01
  -2.648851e+00   3.109995e+01
  -8.972838e+00   6.799150e+01
  -4.403507e+01   8.099996e+00
  -5.256960e+01  -8.170842e+00
  -1.918621e+01  -5.757431e+01
   1.873589e+01  -3.523266e+01
   3.048783e+01   1.823992e+01
   1.646446e+01   3.632798e+01
  -4.495720e+00   3.977169e+01
  -2.544319e+00   1.093640e+01
  -8.089218e+00  -6.584644e+01
   1.727154e+01  -5.715497e+01
  -1.377140e+00   1.680606e+00
   3.777953e+01   7.066152e+00
   1.418294e+01   2.641530e+01
  -6.476306e+00  -1.492055e+01
   9.192061e+00  -1.009128e+01
  -4.040348e+00   2.450621e+01
  -2.191196e+01   1.585966e+01
  -9.510239e+00   3.921369e+01
  -4.572665e+01   7.168214e+00
  -1.515853e+01  -1.603659e+01
   1.169868e+01  -1.218699e+01
   2.974891e+01  -8.400806e+00
   2.316658e+01   1.564808e+01
  -2.443424e+01   2.017753e+00
  -5.885086e+01  -3.856355e+00
  -5.499260e+01  -2.212778e+01
   5.055758e+00  -1.142430e+01
   4.732310e+01   4.191098e+00
  -7.302018e+00  -2.408536e+01
  -2.650855e+01   3.113566e+01
  -8.442003e+00  -5.868161e+00
   5.294543e+00  -1.825081e+01
   3.930564e+01  -6.589705e+00
