
 $NMID
 id='ANONYMOUS ', fmtdat='(2E16.6)'
 volume=1.0
 tramp=1.0
 $END
  -1.797401e+03  -2.860618e+01
  -1.222716e+03  -7.375653e+02
  -2.544342e+02  -1.032528e+03
   5.394093e+02  -9.202840e+02
   4.779718e+02  -3.547069e+02
   1.157554e+02   7.131173e+00
  -1.650524e+01   7.849419e+01
  -1.586518e+02  -1.452823e+02
   5.068602e+01  -2.932601e+02
   2.156033e+02  -1.507208e+02
   2.356508e+02   1.105830e+02
   2.246661e+02   2.358822e+02
   3.041499e+00   1.994626e+02
  -2.161628e+02  -5.517613e+01
  -1.308399e+02  -2.672458e+02
   1.142482e+02  -1.527746e+02
   2.231865e+02   1.390853e+02
   6.528659e+01   3.580262e+02
  -2.085587e+02   2.464867e+02
  -2.827486e+02   2.937230e+01
  -1.689884e+02  -1.768354e+02
  -3.342661e+01  -1.728595e+02
   6.471288e+00  -1.086739e+02
  -8.225685e+01  -9.986515e+01
  -3.260581e+01  -1.273224e+02
   3.098082e+01  -1.130441e+02
   1.814673e+02  -6.275675e+01
   2.690869e+02   4.690610e+00
   1.679010e+02   8.536892e+01
  -1.152235e+02   9.228153e+01
  -1.845514e+02  -3.708777e+01
  -6.534624e+01  -1.398961e+02
   6.694997e+01  -1.722691e+02
   1.719224e+02  -1.157805e+02
   2.277414e+02   2.348309e+01
   1.456618e+02   1.342796e+02
   5.040185e+01   1.104868e+02
   3.204727e+01   2.837990e+01
   6.048582e+01   7.870338e+00
   3.103403e+01   7.392855e+01
   5.696132e+00   1.883755e+02
  -5.377109e+01   1.828193e+02
  -1.320683e+02   1.230912e+01
  -1.055405e+02  -1.171704e+02
  -1.852994e+00  -4.376477e+01
   6.282997e+01   7.313862e+01
  -1.167682e+00   1.379336e+02
  -1.904736e+02   2.114069e+01
  -2.649952e+02  -1.235826e+02
  -1.487212e+02  -2.752805e+02
   1.136795e+02  -1.499269e+02
   2.544121e+02  -1.388409e+01
   2.189186e+02   6.297438e+01
   4.687358e+01   1.348398e+02
  -1.030752e+02   1.005182e+02
  -1.143217e+02   5.690356e+01
  -5.687265e+01   1.981700e+01
  -1.274420e+01  -9.495739e+00
  -6.949133e-01  -1.775460e+00
  -1.109583e+02   2.499552e+01
  -1.330924e+02  -7.310939e+01
   5.680640e+01  -1.383110e+02
   1.708123e+02  -1.458171e+02
   1.993327e+02   2.353520e+01
   1.711927e+01   1.867247e+02
  -1.755896e+02   2.315676e+02
  -1.972784e+02   6.424507e+01
  -7.897482e+01  -8.722309e+01
  -6.975266e+01  -1.811708e+02
  -2.864431e+01  -1.294365e+02
  -3.913811e+01  -1.450277e+02
   1.364175e+01  -8.369550e+01
   7.596722e+01  -6.919623e+01
   1.150385e+02  -2.183993e+01
   1.183588e+02   3.690719e+01
   3.110040e+01   1.264260e+02
  -4.017852e+01   1.200142e+02
  -1.017756e+02  -2.871404e+00
  -7.337890e+01  -7.682861e+01
  -1.317084e+01  -1.257569e+02
   1.110359e+02  -3.422122e+01
   1.431089e+02   8.905630e+01
   1.012435e+02   1.353845e+02
   1.691341e+01   1.659888e+02
  -8.511552e+01   1.282038e+02
  -8.718457e+01   4.464935e+01
  -7.140844e+01   5.768137e+01
  -1.676347e+02   3.171487e+01
  -2.034745e+02  -2.748163e+01
  -2.216259e+02  -1.690311e+02
  -3.038535e+01  -2.018534e+02
   1.816917e+02  -2.596062e+02
   2.549031e+02  -1.474952e+02
   1.614238e+02   2.996842e+01
   9.526575e+01   1.465218e+02
   7.046800e+00   1.141947e+02
   4.670066e+01   7.852038e+01
   4.825629e+01   1.718549e+00
   4.214186e+01   3.857543e+01
  -5.275712e+00   6.771909e+01
  -8.632099e+01   4.480722e+01
  -4.454544e+01  -1.033643e+01
   1.884110e+01  -2.937711e+01
   7.305941e+01  -3.796887e+01
   1.010714e+02   7.995066e+01
  -4.398072e-01   2.120324e+02
  -1.234711e+02   1.146436e+02
  -1.935773e+02   7.972037e+00
  -1.804569e+02  -1.021882e+02
  -3.111145e+01  -1.576383e+02
   5.046681e+01  -7.233913e+01
   5.177540e+01  -2.660007e+01
  -1.405790e+00  -1.095401e+01
   1.800432e+00  -4.772865e+01
   2.180165e+01  -6.424561e+01
   6.378702e+01  -1.511560e+01
   6.025156e+01  -1.689334e+01
   5.076319e+00   2.305589e+01
  -2.180207e+01  -9.951820e+00
  -1.536496e+01  -5.760540e+01
   1.044643e+02  -3.733335e+01
   1.786434e+02   2.832917e+01
   1.614928e+02   1.129819e+02
   2.081842e+00   1.391164e+02
  -8.611104e+01   1.104011e+02
  -1.343368e+02   7.047620e+01
  -5.730895e+01  -1.093898e+01
   2.071668e+01  -4.271816e+01
   4.718095e+01  -5.323167e+00
  -3.728478e+01   5.129332e+01
  -9.325137e+01   1.540322e+01
  -1.296989e+02  -4.639739e+01
  -4.504116e+01  -8.837512e+01
   4.074803e+01  -9.824221e+01
   5.600607e+01  -5.016194e+01
   4.183217e+01   1.272906e+01
  -3.888990e+00   2.015365e+01
  -1.998040e+01  -6.671401e+01
   3.070794e+01  -7.283392e+01
   9.091932e+01  -2.775339e+01
   1.279466e+02   6.363388e+01
   2.085496e+01   1.370844e+02
  -7.931037e+01   1.117003e+02
  -1.132842e+02   3.127895e+01
  -5.539301e+01  -5.883206e+01
   4.324283e+01  -5.231494e+01
   5.117304e+01  -4.210383e+01
   2.409072e+01   3.997279e+01
  -3.417380e+01   2.990838e+01
   2.446931e+00  -3.663517e+01
   4.385085e+01   2.059517e+00
   8.603011e+01   3.445234e+01
   3.000917e+01   9.492438e+01
  -5.727021e+01   1.024378e+02
  -9.030729e+01  -9.925417e+00
  -8.681042e+01  -1.026841e+02
  -6.029419e+01  -1.305941e+02
   6.178639e+01  -1.008289e+02
   6.618092e+01  -3.132152e+01
   5.063187e+01   2.932993e+01
   4.406236e+01   2.535098e+01
   5.701545e+00  -2.066196e+01
   4.611085e+01  -1.060958e+00
   4.909394e+01   1.342475e+01
  -4.393659e-01   7.863901e+01
  -7.342977e+01   4.692581e+01
  -6.930489e+01  -7.940239e+00
   1.444509e+00  -6.225457e+01
   9.521258e+01  -5.757552e+01
   7.640341e+01   3.183834e+01
   5.226487e+01   1.042598e+02
  -4.150754e+01   1.269940e+02
  -1.289639e+02   6.852406e+01
  -1.649626e+02   8.566222e+00
  -6.753924e+01  -8.958409e+01
  -4.898956e+00  -8.678557e+01
   4.346989e+01  -6.805848e+01
   3.787055e+01  -5.888368e+01
   6.374789e+01  -5.847266e+01
   5.271501e+01  -7.489324e+01
   7.178308e+01  -4.885349e+01
   8.791908e+01   8.094471e+01
   2.721727e+01   1.225964e+02
  -4.505669e+01   9.557376e+01
  -8.904935e+01   1.305939e+01
  -7.567632e+01  -5.008507e+01
  -1.382574e+01  -8.887018e+01
   3.842425e+01  -2.567905e+01
   2.516988e+01   9.317144e+00
   1.133294e+01   3.476515e+01
  -4.143919e+01   1.957809e+00
   3.364445e+01  -7.215183e+00
   2.961524e+01   4.742861e+01
   5.267061e+01   2.934898e+01
  -4.056914e+01   2.239331e+01
  -1.353018e+02  -9.765773e+00
  -7.617973e+01  -3.162146e+01
   2.906250e+01  -6.234327e+01
   4.632940e+01  -5.610514e+01
   7.715976e+01  -8.064163e+00
   2.098719e+01   8.676611e+00
  -1.631744e+00   2.251351e+01
  -4.366423e+01  -1.500193e+01
  -2.477181e+01  -4.636379e+01
   2.028262e+01  -6.676936e+01
   3.755750e+01  -1.096037e+01
   6.144121e+01   1.833726e+01
   5.268978e+01   4.095625e+01
  -1.114233e+01   6.154199e+00
   1.543072e+01  -8.869631e-01
   1.812019e+01   8.279364e+00
   1.469925e+01   9.752172e+01
  -6.724994e+01   6.412588e+01
  -6.805274e+01   4.424162e+00
  -4.669730e+01  -4.622814e+01
  -1.216379e+01  -6.963238e+01
   1.626779e+01  -4.783230e+01
   3.141051e+01   2.784650e+00
  -3.601540e+01   2.371164e+01
  -7.823802e+01  -3.289929e+01
  -3.868434e+01  -3.997414e+01
   8.674156e+00  -6.190023e+01
   1.032678e+02  -6.960147e+01
   9.958699e+01   9.344614e-03
   4.532757e+01   2.470536e+01
  -1.257330e+01   3.877822e+01
  -2.060876e+01   1.159150e+01
  -3.323929e+00  -2.455859e+01
   2.799561e+01  -3.257643e+01
   3.362651e+01   5.078669e+01
  -4.180354e+00   7.508330e+01
  -7.640364e+01   5.846098e+01
  -6.430425e+01  -1.045422e+01
  -6.755877e+00  -8.900905e+01
   3.339837e+01  -9.531704e+01
   5.971956e+01  -1.808469e+01
   5.226442e+01   4.036131e+01
   3.271205e+01   6.758076e+01
  -1.386283e+01   6.638522e+00
  -1.452237e+01   1.061705e+01
  -3.713667e+01  -4.993400e+00
  -2.025766e+01  -6.118635e+00
  -3.960515e+01   3.755245e+00
  -2.250560e+01  -5.319433e+01
  -3.651123e+01  -4.237675e+01
   1.590905e+01  -1.211424e+01
   6.772491e+01   2.126816e+01
   7.410058e+01   2.128368e+01
   1.392271e+01   4.977375e+01
  -5.225931e+01   1.086933e+01
  -4.043967e+01   1.557921e+00
  -2.163439e+01   1.253691e+01
   2.405316e+01   1.331837e+00
   2.430291e+01   5.100984e+00
  -8.324428e+00   1.241468e+01
   4.631919e+00   3.888577e+01
   2.779970e+00   3.881872e-01
   5.325482e+01   2.835590e+01
   2.407252e+01   6.302317e+01
  -3.773542e+01   8.146788e+01
  -1.089107e+02   4.117209e+01
  -9.629335e+01  -1.684019e+01
  -3.107107e+01  -9.909830e+01
   4.814328e+01  -9.142811e+01
   6.385603e+01  -5.660367e+01
   6.871610e+01   1.270484e+01
   3.537176e+01   2.190922e+01
   8.793441e+00   2.144814e+01
   1.098778e+01   1.679885e+01
   2.344416e+01   3.493499e+01
   4.272174e+01   3.370771e+01
  -6.706162e+00   5.072663e+01
  -5.513877e+01   1.418345e+01
  -8.402764e+01  -4.143514e+01
  -2.477934e+01  -5.240052e+01
   4.405745e+01  -1.861133e+01
   8.784175e+01   9.441558e+00
   1.837565e+01   5.799313e+01
  -8.885972e+00   4.698159e+01
  -6.130739e+01   3.933095e+01
  -3.816090e+01  -1.414563e+01
   6.538848e+00  -4.770001e+01
   2.172096e+01   8.437955e+00
  -5.775771e+00  -7.782792e+00
  -4.502577e+01   4.919622e-01
  -1.061218e+01  -2.241126e+01
   3.608949e+01  -2.655490e+01
   5.835888e+01  -6.198012e+00
   8.047712e+01   1.631578e+00
   3.285269e+01   6.539913e+01
  -9.360299e+00   4.533107e+01
  -5.456096e+01   2.383373e+01
   4.460742e-01  -1.476029e+01
   8.999221e+00  -4.130689e+01
   2.773660e+01  -2.002567e+01
   2.077489e+01   4.841958e+01
   1.287160e+01   1.483153e+01
  -3.545431e+01   8.841788e+00
  -3.247477e+01  -3.417296e+01
  -2.872678e+01  -9.208742e+00
   2.761852e+01   1.458043e+01
  -2.732651e+01   3.229534e+01
   6.194180e+00  -3.687511e+01
  -1.411228e+00  -3.859072e+01
   3.658884e+01  -3.784637e+01
   1.747768e+01   1.101857e+01
   4.409720e+01   4.028660e+01
  -2.288006e+01   2.797889e+01
  -4.353954e+01  -1.971489e+01
  -2.149226e+01  -3.792766e+01
   2.743574e+01  -3.236033e+01
   4.695478e+01  -6.226173e+00
   4.149459e+01   4.156108e+01
  -3.153635e+00   8.227284e+00
  -5.176507e+01   2.800672e+01
  -2.276497e+00   6.601603e+00
   1.143737e+01  -2.351109e+01
   9.858670e+00   2.786846e+00
  -4.704517e+00   1.273311e+01
  -4.251870e+01   2.939960e+01
