
 $NMID
 id='ANONYMOUS ', fmtdat='(2E16.6)'
 volume=1.0
 tramp=1.0
 $END
   2.227346e+03  -8.532834e+01
   1.615210e+03   9.926528e+02
   1.683209e+02   1.518370e+03
  -9.003939e+02   1.058951e+03
  -7.538545e+02   2.440347e+02
  -9.322605e+01  -6.229144e+01
   1.635448e+02   4.461722e+00
   1.263665e+02   3.443328e+02
  -1.758567e+02   3.552545e+02
  -4.073847e+02   1.095441e+02
  -3.022737e+02  -2.742842e+02
  -1.695890e+02  -4.262551e+02
   1.727173e+02  -1.939049e+02
   2.625341e+02   2.020213e+02
  -8.565773e+00   3.926461e+02
  -2.886131e+02   8.838504e+01
  -2.362582e+02  -2.605558e+02
   4.093233e+01  -4.435469e+02
   3.065689e+02  -1.935981e+02
   3.481827e+02   7.633928e+01
   1.235105e+02   2.140100e+02
  -4.575363e+01   1.826374e+02
  -4.055711e+01   5.591011e+01
   1.105265e+02   7.622433e+01
   1.824724e+02   1.301739e+02
  -4.816410e+00   1.690187e+02
  -2.785882e+02   1.290112e+02
  -4.271438e+02  -5.060899e+01
  -2.222926e+02  -2.338645e+02
   2.269318e+02  -1.252024e+02
   2.686201e+02   3.685811e+01
   1.535649e+02   1.934340e+02
  -1.646012e+02   2.036816e+02
  -2.421629e+02   1.044974e+02
  -2.473537e+02  -8.434534e+01
  -6.346012e+01  -2.051129e+02
  -1.635947e+01  -1.261309e+02
   5.039829e+01   6.530509e+01
  -6.155211e+01   8.531849e+01
  -9.122179e+01  -7.074407e+01
  -5.963268e+01  -2.650756e+02
   1.498483e+02  -2.428442e+02
   2.153072e+02  -3.896762e+01
   9.612629e+01   1.785271e+02
  -7.851356e+01   1.181207e+02
  -1.137751e+02  -1.365976e+02
   5.221172e+01  -2.534174e+02
   2.697688e+02  -6.177635e+01
   3.225500e+02   2.019100e+02
   1.156380e+02   3.832150e+02
  -1.881506e+02   2.351574e+02
  -3.506133e+02  -1.933309e+01
  -2.528161e+02  -1.861908e+02
   3.843313e+00  -1.936715e+02
   1.516866e+02  -7.463050e+01
   1.740313e+02   9.045607e+00
   4.272257e+01   3.084473e+01
   1.954749e+01   9.555003e-02
   7.177635e+01  -5.799834e+01
   1.809386e+02   1.221010e+01
   1.116626e+02   1.298887e+02
  -7.586665e+01   1.770812e+02
  -1.777774e+02   1.201535e+02
  -2.158964e+02  -3.228004e+01
  -4.372872e+01  -2.674553e+02
   2.022627e+02  -2.542417e+02
   2.480824e+02  -1.274702e+02
   1.481548e+02   1.239308e+02
   3.710032e+01   2.519725e+02
  -2.274824e+01   1.620327e+02
   5.050589e+00   9.699494e+01
  -1.046973e+01   4.585274e+01
  -5.563961e+01   9.838668e+01
  -1.442637e+02   2.601420e+01
  -1.581200e+02  -3.612349e+01
  -6.072323e+01  -1.593549e+02
   4.451364e+01  -1.462532e+02
   1.154554e+02   8.736197e+00
   1.076287e+02   1.253107e+02
  -4.882920e-01   1.649381e+02
  -1.809795e+02   4.812935e+01
  -1.790094e+02  -1.153037e+02
  -1.211128e+02  -1.973741e+02
   6.690994e+00  -1.643830e+02
   9.220237e+01  -8.506943e+01
   1.229993e+02  -4.315884e+01
   9.851421e+01  -6.455638e+01
   1.742890e+02  -3.474901e+01
   2.788015e+02   3.183195e+01
   2.505406e+02   2.330870e+02
   2.099346e+01   2.580908e+02
  -2.430093e+02   2.567813e+02
  -3.309522e+02   1.270060e+02
  -2.215329e+02  -7.176369e+01
  -6.165647e+01  -1.716218e+02
   5.168967e+01  -1.451780e+02
   5.987908e+00  -7.269605e+01
  -3.933230e+01   5.532400e-02
  -8.205689e+01  -1.399119e+01
   2.210051e+01  -6.382965e+01
   8.399037e+01  -7.666962e+01
   8.663952e+01   2.134603e+01
  -3.534891e+01   5.107820e+01
  -1.158147e+02   2.994840e+01
  -1.286102e+02  -1.442494e+02
  -5.434128e+00  -2.222058e+02
   1.473746e+02  -1.544188e+02
   2.183694e+02   7.017697e+00
   2.089821e+02   1.694973e+02
   4.427707e+01   1.636157e+02
  -5.176627e+01   1.037495e+02
  -8.951542e+01   2.294694e+01
  -9.937735e+00   1.416147e+01
   3.184309e+01   4.044555e+01
  -2.764541e+01   8.736025e+01
  -9.580817e+01   2.106891e+00
  -9.631335e+01  -3.306511e+01
  -1.634923e-01  -4.751334e+01
   2.932450e+01   1.731271e+01
   1.305786e+01   6.903222e+01
  -1.210500e+02   6.660498e+01
  -2.018232e+02  -1.034950e+01
  -2.082610e+02  -1.264042e+02
  -1.363638e+01  -1.898667e+02
   1.351640e+02  -1.662947e+02
   1.577950e+02  -7.130023e+01
   8.803153e+01   1.394434e+01
  -2.076085e+01   4.499881e+01
  -3.214985e+01  -9.076595e+00
   2.525925e+01  -5.346102e+01
   1.319755e+02  -2.882860e+00
   1.414182e+02   4.693725e+01
   6.144696e+01   1.170317e+02
  -7.067869e+01   9.373471e+01
  -1.025146e+02   2.461072e+01
  -5.631607e+01  -3.261902e+01
   2.398609e+01   8.886203e+00
   1.549081e+01   8.920694e+01
  -4.969039e+01   1.093875e+02
  -1.230303e+02   2.015343e+01
  -1.639453e+02  -9.108593e+01
  -6.294960e+01  -1.274457e+02
   8.636908e+01  -1.105374e+02
   1.304601e+02  -2.022413e+01
   5.436569e+01   5.048604e+01
  -1.327266e+01   4.666922e+01
  -5.282858e+01   2.397802e+01
   2.677189e+00  -2.219595e+01
   6.136166e+01  -1.939418e+01
  -6.269785e+00   2.925142e+01
  -7.231047e+01  -1.151286e+01
  -7.884512e+01  -6.484807e+01
  -2.439994e+01  -9.575238e+01
   8.239467e+01  -1.126092e+02
   1.563177e+02  -6.349586e+00
   1.331510e+02   1.050897e+02
   3.543379e+01   1.158416e+02
  -9.507620e+01   8.069440e+01
  -1.154405e+02   4.415979e+01
  -4.552582e+01  -4.535450e+01
  -2.754674e+01   4.131797e-01
  -3.420705e+00   1.015115e+01
  -6.945718e+01   2.889724e+01
  -3.015205e+01  -3.628813e+01
   3.526885e+01  -6.912155e+01
   7.210040e+01  -4.212898e+01
   1.009983e+02   2.301423e+01
   3.024267e+00   8.963315e+01
  -6.780979e+01   4.251324e+01
  -1.313179e+02  -2.630544e+01
  -6.314720e+01  -1.490064e+02
   5.033766e+01  -1.827666e+02
   1.934002e+02  -9.091777e+01
   1.849732e+02   3.880799e+01
   8.828747e+01   1.357120e+02
  -2.867708e+01   9.512471e+01
  -9.786623e+01   9.219832e+01
  -5.478161e+01   5.792366e+01
  -5.243738e+01   7.269082e+01
  -8.145784e+01   5.196914e+01
  -7.990688e+01  -1.836075e+01
  -9.075181e+01  -6.705292e+01
  -2.473774e+01  -1.483374e+02
   6.120434e+01  -9.442107e+01
   1.092833e+02  -1.620327e+01
   8.720021e+01   9.981141e+01
   1.150135e+01   8.752870e+01
  -5.955800e+01   3.051026e+01
  -4.792948e+01  -1.764877e+01
  -9.047459e-01  -2.044099e+01
  -5.898334e+00   4.468137e-01
  -9.416426e+00   4.166179e+00
  -5.379551e+01   9.247956e-01
  -4.096375e+01  -4.771926e+01
   6.042171e+01  -3.074864e+01
   7.742459e+01   1.812381e+01
   6.903836e+01   6.871578e+01
  -1.072715e+01   8.028438e+01
  -6.227537e+01   4.986652e+01
  -8.221802e+01  -1.619536e+00
  -2.096831e+01  -4.129927e+01
   2.374877e+01  -5.684971e+01
   6.609938e+01   1.140839e+01
   1.239117e+01   3.367208e+01
  -1.919361e+01   7.014328e+01
  -4.765262e+01   4.777089e+00
  -5.883113e+01  -4.709561e+01
  -3.970528e+01  -5.598777e+01
  -5.077377e+01  -3.182426e+00
  -2.164104e+01   2.117870e+01
  -2.051551e+01  -2.900776e+01
  -9.427098e+00  -1.119711e+02
   7.284466e+01  -1.116187e+02
   1.375384e+02   1.403776e+00
   9.746845e+01   2.405553e+01
   2.453015e+01   1.252458e+02
  -5.636355e+01   4.609673e+01
  -5.847147e+01   1.715474e+01
   4.112302e+01  -3.606286e+01
   5.707123e+01   1.210285e+01
   4.263573e+01   2.326965e+01
  -4.236684e+01   7.850805e+01
  -1.372596e+02   3.703459e+01
  -1.237422e+02  -1.373799e+01
  -4.008049e+01  -4.397535e+01
   5.975611e+01  -4.315234e+01
   4.020440e+01  -1.438483e+00
  -2.749057e+01   2.535595e+01
  -3.291936e+01  -2.517842e-01
  -3.940284e+01  -7.052404e+01
   8.264575e+01  -9.469476e+01
   8.756012e+01  -5.867145e+01
   6.913283e+01   6.793352e+01
   2.059300e+01   1.381790e+02
  -8.503325e+01   7.399651e+01
  -7.365490e+01  -2.859142e+01
  -5.914945e+01  -8.136342e+01
   6.103892e+00  -7.476257e+01
   2.045894e+01  -4.512116e+00
   4.574361e+01   5.738977e+00
   8.970263e+00   2.690408e+01
   1.497939e+00   1.845737e+00
   8.859803e+00   1.894266e+00
   5.310520e+01   6.289763e+01
   2.955450e+01   6.237295e+01
  -2.566042e+01   2.700304e+01
  -8.639624e+01  -8.464596e+00
  -9.164781e+01  -3.548727e+01
  -2.811538e+01  -4.367645e+01
   5.420993e+01  -2.714557e+01
   7.214572e+01   3.050086e+01
   6.172588e+00  -2.120168e+01
  -2.745327e+01  -1.816486e+00
  -4.316300e+01  -3.032855e+00
  -2.180546e+01  -1.592242e+01
   8.097459e-01  -1.757332e+01
  -3.540330e+01  -9.799922e+00
  -5.915196e+01  -3.247454e+01
  -4.390818e+00  -8.663763e+01
   5.919011e+01  -9.765080e+01
   1.355813e+02  -4.887201e+01
   9.877342e+01   5.478498e+01
   2.822512e+01   1.093873e+02
  -5.658011e+01   1.102226e+02
  -7.529516e+01   7.133365e+01
  -6.254954e+01  -1.301838e+01
  -8.732923e+00  -1.725478e+01
  -1.846059e+01  -3.168023e+01
  -1.884844e+01  -3.884743e+00
  -2.467426e+01  -3.530738e+01
  -3.520221e+01  -4.849477e+01
   2.732640e+01  -6.004088e+01
   5.184527e+01   2.817314e+01
   9.964162e+01   5.161807e+01
   8.573553e+00   6.356946e+01
  -3.734344e+01   4.926974e+01
  -5.321349e+01  -4.316736e+01
  -3.771094e+01  -7.225920e+01
   3.474499e+01  -2.007033e+01
   5.564895e+01  -8.424552e+00
   6.336594e+00   3.482816e+01
  -3.700754e+01   3.527972e+01
  -7.438587e+00   1.382500e+01
   2.311413e+01   6.937989e-01
   4.627970e+01  -6.982977e+00
   1.653002e+01   4.018371e+01
  -4.384169e+01   4.338442e+01
  -3.957815e+01  -4.066893e-01
  -3.468448e+01  -1.752472e+01
  -1.926077e+01  -5.119272e+01
   2.515271e+01  -5.485988e+01
   4.772539e+01  -3.978141e+01
   1.941364e+01   1.787644e+01
  -1.887329e+01   5.166263e+01
  -1.897835e+01   1.923848e+01
  -3.905937e+01  -2.148520e+01
  -6.309935e+00  -1.709472e+01
   2.769364e+01   4.386628e+00
   1.935418e+01   4.564510e+01
   2.223727e+01   4.321603e+01
  -2.512198e+01  -1.112978e+01
   7.012237e-01  -1.347945e+01
  -2.024025e+00   3.345822e+01
  -6.602687e+00   4.267035e+01
  -6.392830e+00  -4.016991e-01
  -3.739576e+01  -1.109946e+01
  -1.327259e+01  -1.438389e+01
   5.322000e+00  -3.943395e+01
   2.329874e+01   1.965207e+00
   1.314730e+01   2.443139e+01
  -5.459765e+01   3.530851e+01
  -4.322467e+01   1.680509e+01
  -3.234071e+01  -2.953130e+00
   6.433142e+00   9.013783e+00
   3.223520e+01  -1.517142e+01
   4.299544e+01  -5.081376e+00
  -2.760822e+01   8.476893e+00
  -2.964485e+01   3.219734e+00
   1.574043e+01  -1.798386e+01
   5.040158e+01  -7.052350e-01
