
 $NMID
 id='ANONYMOUS ', fmtdat='(2E16.6)'
 volume=1.0
 tramp=1.0
 $END
  -2.855907e+03   1.768771e+02
  -1.929539e+03  -1.428238e+03
   4.368678e+01  -1.986893e+03
   1.336734e+03  -8.020949e+02
   8.682781e+02   1.011175e+02
  -4.590526e+01   4.192816e+02
  -5.039731e+02  -1.003930e+02
  -1.162701e+02  -6.080333e+02
   3.281245e+02  -6.313134e+02
   6.775891e+02  -1.493186e+02
   4.325385e+02   5.608942e+02
  -1.052593e+01   6.714818e+02
  -4.126672e+02   2.846386e+02
  -3.705050e+02  -4.191275e+02
   9.488075e+01  -6.060863e+02
   4.788055e+02  -1.020547e+02
   3.303726e+02   4.409717e+02
  -1.374708e+02   5.894938e+02
  -5.042016e+02   2.095591e+02
  -4.080249e+02  -2.498807e+02
  -7.580591e+01  -3.807415e+02
   1.652092e+02  -2.461932e+02
   1.456404e+02   9.733516e+00
  -9.606161e+01   1.795630e+01
  -2.683517e+02  -1.271154e+02
  -9.753129e+01  -3.365322e+02
   3.451233e+02  -2.767827e+02
   5.846808e+02   3.182769e+01
   3.382983e+02   3.769365e+02
  -2.572726e+02   3.472769e+02
  -4.872478e+02   7.392535e+01
  -2.849483e+02  -3.271167e+02
   2.070019e+02  -3.781937e+02
   4.152239e+02  -1.823712e+02
   3.383364e+02   2.037333e+02
   1.041586e+02   3.808597e+02
  -1.356803e+02   1.870561e+02
  -1.326363e+02  -1.150956e+02
   9.119798e+01  -2.337445e+02
   2.937738e+02   4.826467e+01
   1.547493e+02   3.756471e+02
  -1.741608e+02   4.282154e+02
  -3.269983e+02   4.942026e+01
  -2.335017e+02  -3.174311e+02
   1.561442e+02  -2.406385e+02
   2.745683e+02   1.585821e+02
   1.195981e+01   3.340632e+02
  -3.258872e+02   1.293052e+02
  -4.251077e+02  -3.070928e+02
  -1.502253e+02  -4.668097e+02
   2.626371e+02  -2.732410e+02
   4.677244e+02   9.972155e+00
   2.781737e+02   2.477655e+02
  -6.986327e+01   2.531591e+02
  -2.941590e+02   6.940979e+01
  -1.843883e+02  -8.480023e+01
   4.107616e+01  -3.571240e+01
   1.041193e+02   2.726615e+01
  -6.257332e+01   1.052911e+02
  -2.199915e+02  -5.216732e+00
  -1.376361e+02  -1.702537e+02
   1.059383e+02  -2.262408e+02
   2.457529e+02  -1.502203e+02
   2.391648e+02   7.881138e+01
   2.211156e+01   2.675347e+02
  -2.067357e+02   3.193936e+02
  -3.074526e+02   1.416564e+02
  -1.835838e+02  -1.151227e+02
  -5.160854e+01  -2.756944e+02
   3.326262e+01  -2.015243e+02
   2.096063e+01  -8.974068e+01
   1.814715e+01  -3.595394e+01
   4.366018e+01  -1.121922e+02
   1.407804e+02  -6.452023e+01
   2.039527e+02   6.681778e+01
   1.216676e+02   2.218956e+02
  -4.018877e+01   1.457736e+02
  -1.738320e+02  -8.546572e+00
  -1.409819e+02  -1.679906e+02
   7.619540e+00  -2.323807e+02
   2.049139e+02  -7.814686e+01
   2.418230e+02   1.165375e+02
   1.601168e+02   2.111590e+02
  -4.084234e+01   2.190956e+02
  -1.763921e+02   7.657130e+01
  -1.315791e+02   4.866961e+01
  -8.361484e+01   4.833622e+01
  -2.115116e+02   2.521674e+01
  -2.994907e+02  -3.142377e+01
  -2.967154e+02  -2.065665e+02
  -3.996222e+01  -3.050070e+02
   2.541730e+02  -3.139515e+02
   3.307825e+02  -1.808188e+02
   2.493561e+02   5.524007e+01
   4.591976e+01   2.339343e+02
  -1.016690e+02   2.148406e+02
  -7.085273e+01   6.207277e+01
   3.492049e+01  -8.243054e+01
   9.354405e+01  -1.188418e+01
   5.384314e+01   1.253375e+02
  -7.275310e+01   1.049313e+02
  -1.083890e+02  -3.701560e+01
   1.713153e+01  -8.963610e+01
   1.310978e+02  -2.547830e+01
   1.736178e+02   1.542892e+02
  -1.464542e+01   2.711353e+02
  -1.897170e+02   1.994705e+02
  -2.705383e+02  -4.046129e+01
  -2.425133e+02  -1.922059e+02
  -3.029733e+01  -2.530405e+02
   7.035608e+01  -1.465090e+02
   1.086015e+02  -3.315988e+01
   1.146116e+01   1.519168e+01
  -4.694046e+01  -2.239612e+01
  -5.875731e+00  -1.103609e+02
   7.967460e+01  -5.095658e+01
   1.234997e+02   3.493138e+01
   4.487073e+01   6.076678e+01
  -4.455855e+01   5.583627e+00
  -3.945442e+01  -8.236405e+01
   8.773343e+01  -6.124837e+01
   2.234349e+02  -3.334386e+01
   2.475094e+02   8.823836e+01
   4.715051e+01   1.927909e+02
  -1.091219e+02   1.982913e+02
  -2.180848e+02   8.909826e+01
  -1.245360e+02  -4.277699e+01
   3.340726e+01  -4.625088e+01
   7.011442e+01  -1.523311e+01
  -1.809869e+01   7.626097e+01
  -1.514354e+02   4.032812e+01
  -1.647586e+02  -6.277235e+01
  -9.253243e+01  -1.437716e+02
   5.734089e+01  -1.080286e+02
   1.092842e+02  -3.113065e+01
   7.211467e+01   4.965722e+00
  -3.913962e+01  -1.044040e+01
  -3.783435e+01  -6.311178e+01
   5.876052e+01  -1.281996e+02
   1.629834e+02  -7.078757e+01
   1.639323e+02   9.606373e+01
   4.581523e+01   1.623922e+02
  -1.492990e+02   1.128581e+02
  -1.711844e+02  -1.401891e+01
  -3.093701e+01  -4.079036e+01
   5.891898e+01  -7.256704e+01
   6.612759e+01  -3.697429e+01
   1.920558e+01   1.937564e+01
  -3.282485e+01   7.643793e+00
  -1.597630e+01  -2.753937e+01
   6.079739e+01  -1.831931e+00
   6.656623e+01   8.883712e+01
   1.517717e+01   1.259245e+02
  -1.041876e+02   1.583424e+02
  -1.497370e+02   4.065219e+01
  -1.646137e+02  -1.079528e+02
  -5.651809e+01  -1.631703e+02
   1.018390e+02  -1.757304e+02
   1.448499e+02  -1.098864e+01
   6.711307e+01   3.854263e+01
   1.196747e+01   4.773723e+01
   2.635499e+01  -3.033596e+01
   4.544604e+01  -1.031438e+01
   4.004888e+01   2.581974e+01
  -4.360536e+01   6.468794e+01
  -5.068313e+01   5.679231e+01
  -8.518891e+01  -3.366922e+01
  -3.833832e+00  -8.703641e+01
   9.962516e+01  -6.562209e+01
   1.437932e+02   4.184390e+01
   1.008861e+02   1.660913e+02
  -8.153905e+01   1.980674e+02
  -2.074589e+02   1.015406e+02
  -2.199273e+02  -5.934453e+01
  -7.555556e+01  -1.695117e+02
   4.478726e+01  -1.310181e+02
   5.974189e+01  -7.156235e+01
   6.317089e+01  -3.050569e+01
   2.943629e+01  -8.087735e+01
   1.053988e+02  -8.228345e+01
   1.027284e+02   4.606890e+00
   1.312827e+02   8.150713e+01
   4.463786e+01   1.501343e+02
  -8.519081e+01   1.388161e+02
  -1.387437e+02  -1.068164e+01
  -1.099407e+02  -8.848738e+01
  -1.385313e+01  -1.265837e+02
   7.322858e+01  -4.454864e+01
   7.834450e+01   1.418745e+01
  -1.287375e+00   2.465747e+01
  -3.829614e+01   2.261383e+00
   2.974398e+01   1.212902e+01
   5.692017e+01  -7.197664e+00
   5.909124e+01   2.503787e+01
  -6.973060e+01   5.699624e+01
  -1.439268e+02  -1.061807e+01
  -1.070845e+02  -7.588949e+01
  -1.381069e+00  -1.232162e+02
   8.172075e+01  -5.740800e+01
   1.134813e+02  -4.445251e+00
   4.354803e+01   1.266187e+01
  -3.706001e+01   4.302556e+01
  -8.319720e+01   1.275174e+01
  -3.383221e+01  -4.868819e+01
   3.342386e+01  -3.951699e+01
   5.660288e+01  -1.027607e+01
   3.029991e+01   3.791061e+01
   5.083688e+01   5.881040e+01
   8.367675e+00   5.545199e+00
   3.955175e+01  -1.952710e+01
   2.295175e+01   5.067593e+01
   2.066697e+01   9.697423e+01
  -5.596137e+01   1.290371e+02
  -1.283088e+02   5.616736e+01
  -1.175537e+02  -8.348187e+01
  -1.218561e+01  -1.019705e+02
   6.656357e+01  -4.945882e+01
   3.578632e+01   1.507230e+01
  -1.772788e+01   3.499279e+01
  -1.086616e+02   1.175781e+01
  -6.450476e+01  -8.207271e+01
   3.972877e+01  -1.090763e+02
   1.573774e+02  -7.623602e+01
   1.510308e+02   2.718342e+01
   2.464298e+01   1.063792e+02
  -4.455784e+01   5.641509e+01
  -4.002834e+01  -3.058296e+01
   3.108261e+01  -1.691020e+01
   4.207016e+01  -2.182958e+01
   2.776635e+01   1.001649e+02
  -5.318267e+01   1.154260e+02
  -1.025040e+02   7.450223e+01
  -1.165819e+02  -9.460802e+01
  -1.663343e+01  -1.821829e+02
   7.721747e+01  -9.380922e+01
   9.548080e+01   6.377233e+00
   5.069896e+01   8.234204e+01
   5.141973e+00   1.002425e+02
  -4.190176e+01   1.472784e+00
  -5.066509e+01  -3.554913e+01
  -1.625376e+01  -1.411238e+01
   9.177320e-01  -2.626107e+01
   9.110144e+00  -3.854566e+00
  -6.699869e+01  -4.462171e+01
  -3.212439e+01  -7.593758e+01
   3.444093e+01  -4.693086e+01
   1.260864e+02   3.657443e+01
   9.073467e+01   6.105852e+01
   6.306822e+00   6.521793e+01
  -9.298662e+01   6.512715e+01
  -5.388954e+01  -1.128272e+01
   8.970830e+00   1.669620e+00
   3.586361e+01  -2.741103e+01
   1.892104e+01  -2.490253e+01
   1.454646e+01   4.197486e+01
   3.225306e+01   1.965228e+01
   6.111046e+01  -9.451891e-01
   4.969910e+01  -1.087268e+01
   3.122209e+01   6.650901e+01
  -4.701279e+01   9.899533e+01
  -1.502337e+02   7.567616e+01
  -1.340808e+02  -5.071816e+01
  -6.268341e+01  -1.306360e+02
   7.584343e+01  -1.467937e+02
   1.142387e+02  -4.839182e+01
   9.295636e+01  -5.415544e+00
  -9.058250e+00   3.284298e+01
   3.872313e+00   3.206864e+01
  -2.475272e+01  -7.268329e+00
   2.633799e+01   3.075676e+01
   4.377352e+01   7.404355e+01
  -4.245939e+01   5.010280e+01
  -5.580429e+01  -3.961725e+01
  -8.266749e+01  -7.236027e+01
  -2.298265e+01  -8.474335e+01
   5.713789e+01  -4.230600e+01
   7.287817e+01   5.118161e+01
   2.171651e+01   6.938164e+01
  -3.027044e+01   6.873975e+01
  -1.062721e+02  -1.003330e+00
  -4.921424e+01  -3.057656e+01
   4.168750e+01  -5.916099e+01
   1.506968e+01  -1.710143e+01
  -6.789269e+01  -2.493045e+00
  -3.005093e+01  -2.740747e-01
  -1.087107e+01  -1.850728e+01
   4.104951e+01  -3.678566e+01
   9.829640e+01  -5.567420e+01
   8.068233e+01  -4.536537e+00
   1.644740e+01   8.070701e+01
  -2.419054e+01   6.057337e+01
  -1.628537e+01   1.646781e+01
   5.499508e+00  -4.422779e+01
   4.154115e+01  -2.181123e+01
   2.036152e+01   3.046628e+01
   1.415640e+01   4.490746e+01
  -1.156746e+01   2.842433e+01
  -6.707888e+01  -2.056661e+01
  -2.781982e+01  -2.805565e+01
  -1.605542e+01  -2.684961e-02
   1.860312e+01   1.094939e+01
   3.347617e+00   4.590852e+01
   2.183976e+01  -4.902865e+01
   1.497827e+01  -4.098688e+01
   3.354781e+01   3.255707e+00
   3.134144e+00   2.365099e+01
   1.526597e+01   3.712817e+01
  -1.166583e+01   3.414166e+01
  -3.484413e+01  -3.513341e+01
  -2.104390e+01  -6.234616e+01
   4.589151e+01  -2.625613e+01
   7.360862e+01   1.036067e+01
   4.370896e+01   2.202632e+01
  -3.497812e+01   1.963468e+01
  -5.623419e+01   7.144738e+00
  -3.058326e+01   1.366378e+01
   2.507020e+01  -1.936293e+01
   3.239329e+01  -9.817387e+00
  -3.571631e+01   3.588399e+01
  -4.976317e+01   4.641375e-01
