
 $NMID
 id='ANONYMOUS ', fmtdat='(2E16.6)'
 volume=1.0
 tramp=1.0
 $END
   2.974756e+03  -3.110409e+00
   2.204688e+03   1.548508e+03
  -2.704383e+02   2.113359e+03
  -1.370836e+03   8.627440e+02
  -8.682802e+02  -2.539184e+02
   1.949736e+02  -4.852963e+02
   5.587908e+02   2.090510e+02
   8.741941e+01   7.247666e+02
  -5.168517e+02   7.144853e+02
  -7.548802e+02   9.587311e+01
  -4.834709e+02  -6.520147e+02
   9.289764e+01  -7.606123e+02
   5.274496e+02  -1.937360e+02
   4.310230e+02   5.764322e+02
  -1.678039e+02   6.286143e+02
  -4.974302e+02   1.015819e+02
  -3.020935e+02  -5.122478e+02
   1.856181e+02  -6.171816e+02
   4.803974e+02  -1.981007e+02
   3.883722e+02   2.829764e+02
   8.309304e+01   3.952313e+02
  -2.017536e+02   2.632974e+02
  -1.732090e+02   1.491763e+01
   8.803203e+01  -5.974185e+01
   3.136685e+02   9.970937e+01
   1.435266e+02   3.679657e+02
  -3.421488e+02   2.895074e+02
  -5.971346e+02  -6.407064e+01
  -3.643938e+02  -3.964128e+02
   2.912843e+02  -3.310688e+02
   5.577421e+02  -2.656744e+00
   2.379461e+02   3.760514e+02
  -2.420853e+02   4.655215e+02
  -4.842999e+02   2.017482e+02
  -3.495040e+02  -2.218545e+02
  -7.053212e+01  -4.105648e+02
   1.121353e+02  -2.430131e+02
   1.125380e+02   1.593575e+02
  -1.331041e+02   3.188303e+02
  -3.116618e+02  -3.832723e+01
  -1.619192e+02  -4.628745e+02
   2.357225e+02  -4.772197e+02
   3.454638e+02  -6.572927e+01
   2.208104e+02   3.826835e+02
  -1.708200e+02   2.694398e+02
  -3.261297e+02  -1.920092e+02
   9.924127e+00  -4.097647e+02
   4.024946e+02  -1.290709e+02
   5.257488e+02   3.016304e+02
   1.704821e+02   4.670207e+02
  -2.582541e+02   3.160622e+02
  -5.035019e+02  -6.459269e+01
  -3.170905e+02  -2.873852e+02
   7.941591e+01  -3.113456e+02
   3.416315e+02  -7.578166e+01
   2.391155e+02   8.856527e+01
  -6.918414e+01   8.828819e+01
  -1.092070e+02  -9.716739e+01
   4.634927e+01  -1.246330e+02
   2.415053e+02  -1.439660e+01
   1.373750e+02   1.736639e+02
  -1.077899e+02   2.141162e+02
  -2.815967e+02   1.370737e+02
  -2.365342e+02  -6.529368e+01
  -1.279044e+01  -2.658297e+02
   1.738378e+02  -3.074823e+02
   3.188671e+02  -1.534579e+02
   2.434968e+02   1.611563e+02
   3.561940e+01   3.236066e+02
  -5.719951e+01   2.443213e+02
  -5.942522e+01   1.187202e+02
  -2.715716e+01   5.279743e+00
  -2.415012e+01   1.167645e+02
  -1.679757e+02   7.535877e+01
  -2.204938e+02  -3.272782e+01
  -1.547471e+02  -2.130607e+02
   6.863507e+01  -2.051678e+02
   1.759076e+02  -3.674591e+01
   1.754954e+02   1.733005e+02
   1.870714e+01   2.163398e+02
  -2.481221e+02   1.038470e+02
  -3.182290e+02  -1.320480e+02
  -1.257345e+02  -2.945639e+02
   9.126936e+01  -2.292708e+02
   1.798943e+02  -8.194772e+01
   1.210576e+02   1.231951e+00
   8.781707e+01  -5.444891e+01
   2.165389e+02  -5.781507e+01
   3.118849e+02   5.687216e+01
   2.953767e+02   2.366504e+02
   5.699975e+01   3.713494e+02
  -2.391501e+02   3.828074e+02
  -3.752014e+02   1.957034e+02
  -2.406968e+02  -7.106027e+01
  -4.540922e+01  -2.587324e+02
   9.574887e+01  -2.148765e+02
   4.719957e+01  -4.160505e+01
  -7.357613e+01   9.491970e+01
  -1.313275e+02   4.107773e-01
  -6.128903e+01  -1.244747e+02
   9.779599e+01  -1.367840e+02
   1.321614e+02   3.165635e+01
  -1.763835e+01   1.307881e+02
  -1.684286e+02   3.372980e+01
  -1.648855e+02  -1.934248e+02
   8.972371e+00  -2.734876e+02
   1.889145e+02  -2.179649e+02
   2.997695e+02   5.525300e+00
   2.392739e+02   2.303574e+02
   4.213589e+01   3.155428e+02
  -8.813786e+01   1.767872e+02
  -1.339065e+02   1.420782e+01
  -3.236927e+01  -1.713271e+01
   2.780869e+01   2.424690e+01
   3.060692e+01   8.285778e+01
  -1.111790e+02   6.164081e+01
  -1.372682e+02  -2.731974e+01
  -2.052491e+01  -6.773863e+01
   7.280342e+01  -8.744053e+00
   4.861099e+01   6.274108e+01
  -9.311845e+01   8.378975e+01
  -2.164242e+02   2.259918e+01
  -2.533831e+02  -9.283877e+01
  -4.155095e+01  -2.150323e+02
   1.253683e+02  -2.304814e+02
   2.506951e+02  -9.231041e+01
   1.335383e+02   3.994852e+01
  -1.142883e+01   1.084384e+02
  -8.030884e+01   2.109814e+00
  -4.259746e-01  -6.970075e+01
   1.288451e+02  -6.790514e+01
   1.815453e+02   7.861090e+01
   9.046893e+01   1.607529e+02
  -9.112166e+01   1.217670e+02
  -9.582999e+01   3.986750e+01
  -5.488752e+01  -4.613397e+01
   5.819801e+01  -2.589968e+01
   6.372440e+01   8.809792e+01
  -3.146641e+01   1.161564e+02
  -1.756567e+02   4.031040e+01
  -1.812708e+02  -9.784212e+01
  -4.246515e+01  -1.976927e+02
   1.404667e+02  -1.485124e+02
   1.444032e+02  -1.851857e+01
   5.950823e+01   8.962690e+01
  -6.003529e+01   9.292012e+01
  -6.219196e+01   5.058828e+01
  -4.825694e+00  -2.629134e+00
   2.472545e+01  -1.371270e+01
  -1.291958e+01   9.937043e-01
  -7.112658e+01   3.722758e+00
  -9.920875e+01  -8.102663e+01
  -4.187693e+01  -1.370887e+02
   8.846715e+01  -1.407062e+02
   1.807478e+02  -4.610604e+01
   1.825910e+02   1.166283e+02
   4.126526e+01   1.801859e+02
  -8.740066e+01   1.537830e+02
  -8.840897e+01   4.194095e+01
  -6.116963e+01  -2.773935e+01
  -2.550182e+01  -5.666882e+01
  -2.277364e+01   3.893343e+01
  -5.997366e+01   1.192330e+01
  -4.816664e+01  -2.777913e+01
   2.488071e+01  -7.636669e+01
   8.148622e+01  -5.091991e+01
   8.444969e+01   2.986550e+01
   3.516690e+00   1.059352e+02
  -1.198788e+02   5.317680e+01
  -1.988832e+02  -4.694155e+01
  -7.958435e+01  -1.548669e+02
   7.267231e+01  -1.722434e+02
   2.117440e+02  -6.347184e+01
   2.092254e+02   6.503308e+01
   6.177441e+01   1.383846e+02
  -5.262687e+01   1.124686e+02
  -6.972490e+01   6.824704e+01
  -3.480512e+01   2.610025e+01
  -6.974320e+00   1.036461e+02
  -9.944377e+01   5.726150e+01
  -1.210176e+02   9.991249e+00
  -1.115588e+02  -1.207902e+02
  -3.028515e+01  -1.821422e+02
   6.066763e+01  -1.601553e+02
   1.517595e+02  -1.245866e+01
   9.234208e+01   9.535231e+01
   4.495208e+00   1.463465e+02
  -6.832211e+01   6.755120e+01
  -5.484993e+01  -2.208302e+01
   2.253286e+01  -5.715310e+01
   1.629536e+01  -2.189852e+00
  -3.763507e+01  -5.426183e-01
  -8.284638e+01   6.745034e-01
  -1.594286e+01  -3.162438e+01
   3.725182e+01  -3.121208e+01
   1.508158e+02  -7.244612e+00
   1.222740e+02   1.843625e+01
   1.539569e+01   8.515427e+01
  -9.874798e+01   5.233601e+01
  -1.309187e+02   1.570576e+00
  -4.405048e+01  -3.923162e+01
   5.081156e+01  -6.011248e+01
   6.031866e+01  -2.500970e+00
   1.248882e+01   3.714085e+01
  -3.402773e+01   4.394690e+01
  -7.306847e+01   2.050460e+01
  -2.465709e+01  -3.685751e+01
  -4.544650e+01  -2.712148e+01
  -4.193341e+01   5.742163e+00
  -4.441056e+01  -5.072141e+00
   6.650609e-01  -6.290032e+01
   1.073488e+01  -1.338218e+02
   9.567210e+01  -1.157385e+02
   1.252438e+02  -5.879602e+01
   1.272444e+02   6.780323e+01
   2.560129e+01   8.274067e+01
  -6.731213e+01   5.799371e+01
  -5.805123e+01   2.625849e-02
   5.780582e+01   2.726511e+00
   1.297156e+02  -1.056213e+01
   7.413003e+01   9.480225e+01
  -3.686982e+01   9.913014e+01
  -1.645711e+02   2.526673e+01
  -1.259952e+02  -3.382064e+01
  -2.191536e+01  -7.311519e+01
   6.670966e+01  -5.347692e+01
   4.371091e+01   5.915801e+00
  -6.336859e+01   1.911260e+01
  -5.197592e+01  -3.346567e+00
   3.914619e+00  -9.534356e+01
   8.482173e+01  -1.379432e+02
   1.309500e+02  -5.185466e+01
   1.113874e+02   6.823026e+01
   4.429134e+01   1.712583e+02
  -7.375447e+01   1.224110e+02
  -1.059429e+02   1.707524e+01
  -2.043696e+01  -1.042172e+02
   8.481916e+00  -9.322709e+01
   3.157768e+01  -3.085472e+01
   4.913327e+01   2.999971e+01
   3.235621e+00   3.198571e+01
   8.938264e+00  -2.107687e+01
   1.757331e+01   2.372100e-01
   1.385480e+01   5.790780e+01
   3.005202e+01   1.039805e+02
  -3.599462e+01   4.630087e+01
  -1.273736e+02  -2.550427e+01
  -1.402152e+02  -5.106460e+01
  -1.820363e+01  -2.569028e+01
   6.995463e+01  -3.342053e+01
   6.185232e+01  -1.090524e+01
   2.110780e+01   1.759392e+01
  -3.777556e+01   1.189907e+01
  -3.140151e+01   2.723115e+01
  -1.086936e+01  -1.997243e+01
   5.720640e+00  -1.080930e+01
  -6.850683e+01   2.322311e+00
  -5.267952e+01  -3.612852e+01
  -3.789965e+00  -6.520256e+01
   8.322613e+01  -6.439281e+01
   1.508296e+02  -4.267132e+01
   1.272708e+02   3.215922e+01
   2.506925e+01   1.622020e+02
  -8.076919e+01   1.602059e+02
  -9.514112e+01   8.677090e+01
  -9.008561e+01   9.473358e+00
  -3.100122e+01  -8.984247e+01
   5.279345e+00  -2.086332e+01
   3.160767e+01  -1.416102e+01
  -5.414192e+01  -1.229939e+01
  -8.378765e+00  -5.120437e+01
   2.673460e+01  -7.262965e+01
   8.257519e+01   1.513871e+01
   6.228571e+01   8.088284e+01
  -1.057318e+00   6.787587e+01
  -6.086248e+01   2.867872e+01
  -1.029265e+02  -6.449905e+01
  -4.488403e+01  -9.192477e+01
   4.795749e+01  -6.663428e+01
   1.221558e+02   3.175670e+01
   5.962451e+01   3.690439e+01
  -4.376419e+01   6.817324e+01
  -5.821666e+01   3.003091e+01
   1.803326e+01  -4.095266e+00
   5.452057e+01  -2.159301e+01
   1.087120e+01   2.604533e+01
  -4.164157e+01   7.189118e+01
  -9.647695e+01   7.728940e+01
  -6.688182e+01  -1.038898e+01
  -2.498036e+01  -6.453454e+01
   6.512665e+01  -6.537202e+01
   8.089208e+01   9.403667e+00
   3.496696e+00   7.473293e+01
  -7.713016e+00   5.062109e+01
  -6.640190e+01   3.871396e+00
  -1.784907e+01  -3.818474e+01
  -2.538620e+00  -3.630520e+01
   5.504068e+01   2.961936e+01
   2.030025e+01   2.379219e+01
   6.939732e+00   2.241191e+01
   8.073813e+00  -1.819323e+01
   2.069145e+01  -9.326212e+00
  -3.297584e+01   3.525517e+01
  -1.094467e+01   3.742241e+01
  -2.525469e+01  -2.411058e+00
  -4.531123e+01  -1.846734e+01
  -3.493798e+00  -5.126924e+01
   5.111096e+01  -3.346451e+01
   4.355418e+01   1.116718e+01
   2.983578e+01   6.220859e+01
  -4.088849e+01   4.748590e+01
  -5.387285e+01   1.187025e+01
  -2.611326e+01  -5.050621e+01
  -4.161322e+00  -2.945071e+01
   4.808525e+01  -3.156248e+01
   2.750461e+01  -4.458683e+00
  -6.151754e+00   1.529729e+01
  -1.108924e+01  -4.796443e+00
   1.924233e+00  -3.439299e+01
   8.018152e+01  -1.916875e+01
