
 $NMID
 id='ANONYMOUS ', fmtdat='(2E16.6)'
 volume=1.0
 tramp=1.0
 $END
  -2.831344e+03  -3.360772e+02
  -1.647498e+03  -1.532099e+03
  -8.519903e+01  -1.735136e+03
   1.272802e+03  -1.227572e+03
   8.841452e+02  -1.076359e+02
   7.089465e+01   2.031317e+02
  -4.723246e+02  -1.769933e+01
  -1.127886e+02  -4.329786e+02
   3.601752e+02  -6.563995e+02
   6.203425e+02  -8.089397e+01
   4.658907e+02   5.332115e+02
  -7.560022e+01   6.374058e+02
  -2.901778e+02   1.749876e+02
  -2.115594e+02  -4.147770e+02
   1.618536e+02  -4.514392e+02
   3.755687e+02  -4.516705e+01
   2.226201e+02   4.674303e+02
  -1.178633e+02   6.096861e+02
  -4.655331e+02   2.463533e+02
  -4.221242e+02  -1.329821e+02
  -1.386088e+02  -3.294491e+02
   1.435511e+02  -2.381180e+02
   6.300910e+01  -5.526403e+01
  -1.655305e+02  -5.039430e+01
  -2.097851e+02  -2.487232e+02
   2.719662e+01  -3.607198e+02
   4.919942e+02  -1.323108e+02
   6.466799e+02   2.447569e+02
   1.801190e+02   3.411001e+02
  -3.123331e+02   2.041753e+02
  -4.801372e+02  -1.439719e+02
  -1.788307e+02  -3.825971e+02
   3.010142e+02  -3.606986e+02
   4.141250e+02  -1.015024e+02
   2.993771e+02   1.765275e+02
   7.703041e+01   3.569108e+02
  -2.145498e+01   2.207333e+02
  -7.469645e+00  -8.543419e+01
   1.983671e+02  -2.025004e+02
   1.961795e+02   1.712907e+02
  -1.970753e+01   4.254672e+02
  -2.873418e+02   4.105661e+02
  -3.535008e+02  -6.825309e+01
  -7.815953e+01  -3.578721e+02
   1.591067e+02  -1.134903e+02
   1.572227e+02   2.791272e+02
  -9.581928e+01   3.650657e+02
  -3.902360e+02   6.827316e+01
  -4.165729e+02  -3.774485e+02
  -1.591329e+02  -4.600030e+02
   2.887878e+02  -2.584599e+02
   4.650820e+02   9.204272e+01
   2.838472e+02   2.831710e+02
  -6.662479e+01   2.125257e+02
  -2.537852e+02   5.999854e+01
  -2.040200e+02  -8.213163e+01
   1.520239e-01   9.198144e+00
   4.494884e+01   5.523133e+01
  -1.163333e+02   7.266901e+01
  -2.683206e+02  -4.212016e+01
  -1.575760e+02  -1.845126e+02
   1.361304e+02  -2.718826e+02
   3.220859e+02  -1.747658e+02
   2.490623e+02   1.058820e+02
   3.684398e+00   2.855526e+02
  -2.590697e+02   3.275977e+02
  -3.213442e+02   1.095404e+02
  -1.738452e+02  -1.762384e+02
  -2.832927e+01  -3.490805e+02
   4.336881e+01  -2.966881e+02
   8.124980e+00  -1.423013e+02
   2.818130e+01  -1.079325e+02
   8.869678e+01  -1.250265e+02
   2.087971e+02  -3.585053e+01
   2.441370e+02   1.081425e+02
   9.501069e+01   2.346977e+02
  -7.984846e+01   1.812436e+02
  -1.927462e+02  -5.166827e+01
  -1.370816e+02  -2.131360e+02
   6.529351e+01  -2.407745e+02
   2.421539e+02  -7.380887e+01
   3.046142e+02   2.005804e+02
   1.347333e+02   3.072931e+02
  -6.105295e+01   2.616520e+02
  -2.245428e+02   1.050005e+02
  -1.572554e+02   6.495087e+01
  -1.401761e+02   6.660774e+01
  -2.352801e+02   6.166458e+01
  -3.625637e+02  -1.011182e+02
  -3.355649e+02  -3.007075e+02
  -2.583502e+01  -4.570521e+02
   3.482280e+02  -3.584031e+02
   4.411524e+02  -1.579476e+02
   3.006408e+02   1.374926e+02
  -1.138172e+01   2.776849e+02
  -5.942330e+01   1.456949e+02
  -3.858209e+01  -8.033683e+00
   1.488763e+02  -4.884322e+01
   1.609690e+02   2.265408e+01
   1.909084e+01   1.349157e+02
  -9.917166e+01   1.070363e+02
  -7.773802e+01  -6.842541e+01
   5.813074e+01  -1.396228e+02
   1.395865e+02   1.503626e+00
   1.556996e+02   2.281888e+02
  -3.549970e+01   3.142513e+02
  -2.232642e+02   2.042674e+02
  -3.501644e+02  -6.369695e+01
  -2.963008e+02  -2.631916e+02
  -5.334454e+01  -2.710601e+02
   1.466741e+02  -1.153437e+02
   1.775725e+02  -1.095827e+01
   4.082666e+01  -9.012938e+00
  -6.740315e+01  -4.077029e+01
  -1.692103e+01  -1.119920e+02
   1.030884e+02  -8.923006e+01
   1.582086e+02   1.536997e+01
   3.865105e+01   6.795383e+01
  -5.473870e+01  -1.559074e+00
   5.975969e+00  -1.229602e+02
   1.539834e+02  -1.017250e+02
   2.812714e+02   2.452214e+01
   2.443326e+02   1.600441e+02
   6.611312e+01   2.730917e+02
  -1.921168e+02   2.458631e+02
  -2.488574e+02   6.932144e+01
  -1.153247e+02  -7.417248e+01
   2.518722e+01  -7.225519e+01
   3.808757e+01   4.947647e+01
  -8.935398e+01   7.984740e+01
  -1.787714e+02   1.776783e+01
  -1.602807e+02  -1.027561e+02
  -6.923671e+00  -1.960727e+02
   1.153213e+02  -1.227997e+02
   1.040392e+02   4.259256e-01
   3.748178e+01   5.027106e+01
  -3.918418e+01  -2.219122e+01
  -2.868878e+01  -1.249777e+02
   9.059871e+01  -1.210843e+02
   1.883998e+02  -6.758770e+00
   1.715161e+02   1.085848e+02
   1.795098e+00   1.803647e+02
  -1.403226e+02   1.212369e+02
  -1.842467e+02  -1.826238e+01
  -1.759184e+01  -8.886709e+01
   9.504703e+01  -1.205004e+02
   7.646375e+01  -3.470732e+01
  -9.983428e+00   1.934678e+01
  -2.919976e+01   3.530879e+00
  -1.712754e+01  -1.567845e+01
   6.364686e+01  -1.219456e+01
   9.633628e+01   1.067739e+02
   1.261744e+01   1.428553e+02
  -1.502592e+02   1.389679e+02
  -2.114454e+02  -1.878627e+01
  -1.916518e+02  -1.717755e+02
  -3.244019e+01  -2.277688e+02
   1.088132e+02  -1.478786e+02
   8.375693e+01  -2.595971e+01
   4.883589e+01   2.791458e+01
   3.072247e+01   2.422007e+01
   7.230950e+01  -1.348329e+01
   9.677144e+01   7.538869e+00
   6.959786e+01   4.162037e+01
  -2.318481e+01   1.289590e+02
  -8.010966e+01   6.234404e+01
  -9.369773e+01  -4.854784e+01
   1.088515e+01  -1.041962e+02
   1.310176e+02  -6.793889e+01
   1.812388e+02   8.326788e+01
   6.247861e+01   2.123803e+02
  -1.210242e+02   1.971771e+02
  -2.397291e+02   4.782056e+01
  -2.282881e+02  -1.044784e+02
  -1.195151e+02  -1.569446e+02
   1.666247e+01  -1.446843e+02
   6.634824e+01  -9.962970e+01
   6.228903e+01  -8.289043e+01
   4.969650e+01  -7.409478e+01
   5.747453e+01  -8.268578e+01
   1.174630e+02  -9.740405e-01
   1.266778e+02   1.452262e+02
   3.308677e+01   2.152354e+02
  -1.099698e+02   1.296294e+02
  -1.529217e+02  -3.499702e+01
  -1.239627e+02  -1.214274e+02
   4.052354e+00  -1.222510e+02
   9.761044e+01  -4.393368e+01
   7.449131e+01   3.788504e+01
   1.664305e+01   8.240246e+01
  -5.187568e+01   3.730160e+01
   9.073520e+00  -2.601038e+01
   8.417074e+01   3.749216e+01
   2.430943e+01   5.671795e+01
  -9.048097e+01   1.320131e+01
  -1.608801e+02  -1.148700e+00
  -1.302387e+02  -6.965735e+01
   4.700820e+00  -7.018748e+01
   1.088981e+02  -6.951474e+01
   1.158030e+02  -2.524417e+00
   4.468580e+01   4.705389e+01
  -6.666907e+01   2.881822e+01
  -8.097315e+01  -9.633266e+00
  -2.447435e+01  -6.248382e+01
   6.780400e+01  -5.998840e+01
   6.973895e+01   8.457215e+00
   5.632914e+01   5.760606e+01
   3.057477e+01   5.277296e+01
   4.491456e+01   3.737388e+01
   3.854187e+01   8.096902e+00
   2.765852e+01   6.539437e+01
  -4.874363e+00   1.431836e+02
  -1.362738e+02   1.265016e+02
  -1.340139e+02   2.613557e+01
  -9.569609e+01  -8.947544e+01
   1.081028e+01  -1.189396e+02
   7.994391e+01  -5.715704e+01
   8.187286e+01   7.274354e+00
  -5.317511e+01   3.095736e+01
  -1.030996e+02  -9.061651e+01
  -5.263574e+01  -1.098486e+02
   1.141197e+02  -1.243123e+02
   1.892054e+02  -6.870831e+01
   1.318763e+02   4.229044e+01
   1.761666e+01   7.144801e+01
  -4.625855e+01   6.135841e+01
  -6.142067e+01  -3.832301e+00
   2.411628e+01  -2.071812e+01
   7.413184e+01   1.704598e+01
   4.821536e+01   1.006538e+02
  -8.054114e+01   1.629970e+02
  -1.469595e+02   3.589381e+01
  -1.536645e+02  -6.984733e+01
   1.144024e+00  -1.358393e+02
   7.062899e+01  -1.344134e+02
   1.052686e+02   2.180023e+01
   6.902484e+01   1.114999e+02
  -2.416848e+01   1.017159e+02
  -4.017066e+01   3.942220e+01
  -6.064042e+01  -6.643880e+01
  -2.269536e+01   5.121878e+00
  -1.272947e+01   1.338852e+01
   2.791484e+00  -5.395699e+01
  -5.231649e+01  -7.983680e+01
  -5.633108e+01  -8.310113e+01
   3.713630e+01  -5.302988e+01
   1.266340e+02   2.923386e+01
   1.315262e+02   5.930838e+01
   3.943922e+01   7.287254e+01
  -8.937916e+01   2.819756e+01
  -8.830985e+01  -3.070641e+00
  -4.636475e+01  -3.519538e+01
   3.754861e+01  -2.641019e+01
   3.671919e+00  -1.412093e+01
  -3.076352e+00  -2.179259e+01
  -1.086155e+01   1.080410e+01
   4.765369e+01  -1.690040e+01
   7.617356e+01   3.739633e+00
   4.622769e+01   9.875308e+01
  -1.202746e+02   1.305444e+02
  -2.017057e+02   9.013582e+01
  -1.548541e+02  -5.384888e+01
  -6.158279e+01  -1.700846e+02
   7.685976e+01  -1.542331e+02
   9.872578e+01  -9.387022e+01
   6.431940e+01  -7.364757e+00
   8.212277e+00   4.847261e+01
   2.140286e+01   2.035796e+01
   1.544457e+01  -1.581629e+00
   3.387926e+01   3.612121e+01
   2.578895e+01   7.155079e+01
  -2.627265e+01   9.366095e+01
  -4.978898e+01  -8.586522e+00
  -6.432020e+01  -9.864345e+01
  -4.649401e+00  -9.985469e+01
   5.320299e+01  -1.365815e+01
   8.655650e+01   6.458921e+01
   3.776639e+01   9.446599e+01
  -5.586210e+01   7.212055e+01
  -8.041043e+01  -9.358401e+00
  -5.532518e+01  -4.576379e+01
   1.946465e+01  -7.904283e+01
  -1.227396e+01  -1.880568e+00
  -1.864904e+01   7.182389e+00
  -5.436058e+01   3.388876e+01
  -3.965693e+01  -1.944165e+01
   8.496424e+01  -6.052095e+01
   1.269087e+02  -4.546462e+01
   8.709988e+01   1.580943e+01
  -8.126383e+00   7.933096e+01
  -4.227771e+01   6.182602e+01
  -6.408721e+01  -2.327491e+01
  -3.686952e+00  -6.703309e+01
   3.778012e+01  -4.080186e+01
   1.587469e+01   2.652356e+01
   5.094155e+01   5.923130e+01
  -6.614963e+00   4.357145e+01
  -3.050853e+01  -1.128018e+01
  -5.225179e+01  -2.706332e+01
  -1.310867e+01   2.469012e+01
   1.051370e+01   5.666947e+00
  -4.314697e+00   2.987597e+01
  -5.591226e-01  -3.455773e+01
   2.607558e+01  -2.280712e+01
   2.972956e+01  -3.147958e+01
   5.191852e+01   2.708874e+01
   2.799275e+00   6.599253e+01
  -2.677054e+01   1.577870e+01
  -3.578397e+01  -2.718912e+01
   5.400559e+00  -6.158611e+01
   4.166996e+01  -2.097884e+01
   7.938050e+01   3.415700e+01
   4.047127e+01   6.214369e+01
  -3.295000e+01   2.399851e+01
  -6.063600e+01   1.937925e+01
  -2.366747e+01  -1.383673e+01
   1.072300e+01  -1.524820e+01
   1.731436e+01  -6.630404e+00
  -2.248748e+01   2.389314e+00
  -7.627852e+01  -1.292707e+01
