
 $NMID
 id='ANONYMOUS ', fmtdat='(2E16.6)'
 volume=1.0
 tramp=1.0
 $END
   2.290134e+03   3.186435e+01
   1.685557e+03   9.835855e+02
   3.174581e+02   1.792856e+03
  -1.014384e+03   1.153230e+03
  -8.569277e+02   2.841028e+02
  -2.743120e+02   2.001507e+01
   2.321723e+02  -5.383068e+01
   3.096045e+01   3.292147e+02
  -2.376440e+02   5.234360e+02
  -4.602992e+02   1.420066e+02
  -3.980269e+02  -3.523517e+02
  -5.853043e+01  -4.944420e+02
   1.783195e+02  -1.889295e+02
   2.009637e+02   2.576559e+02
  -3.234388e+01   3.918728e+02
  -2.473658e+02   9.721869e+01
  -2.335623e+02  -3.256135e+02
   9.317171e+01  -5.325603e+02
   3.541606e+02  -2.935138e+02
   4.104161e+02   1.104364e+02
   1.347290e+02   3.073546e+02
  -8.922984e+01   2.690486e+02
  -5.187515e+00   8.897347e+01
   1.048684e+02   1.375770e+02
   1.836327e+02   2.885328e+02
  -5.587441e+01   2.833020e+02
  -3.967512e+02   3.688261e+01
  -4.796366e+02  -2.077063e+02
  -9.207815e+01  -2.638042e+02
   2.883226e+02  -1.280474e+02
   3.938038e+02   1.587098e+02
   1.101145e+02   3.200614e+02
  -2.845029e+02   2.888950e+02
  -3.417525e+02   1.192225e+02
  -2.280681e+02  -8.547928e+01
  -6.467273e+01  -2.484851e+02
  -1.744775e+00  -1.799674e+02
  -7.795676e+01   2.483822e+01
  -1.705509e+02   7.014045e+01
  -1.052049e+02  -1.793337e+02
   1.027997e+02  -3.806212e+02
   2.424367e+02  -3.129532e+02
   2.595928e+02   4.649790e+01
   6.519049e+01   2.323421e+02
  -1.185131e+02   7.264915e+01
  -1.056073e+02  -2.333529e+02
   8.756895e+01  -2.839567e+02
   3.427423e+02  -7.702047e+01
   3.735097e+02   3.629548e+02
   1.130712e+02   3.960874e+02
  -2.530069e+02   2.183763e+02
  -3.649761e+02  -4.496855e+01
  -2.859572e+02  -1.738402e+02
   5.575523e+01  -1.816869e+02
   2.354872e+02  -6.774514e+01
   1.459159e+02  -9.758822e+00
   1.830831e+01  -3.883229e+01
  -2.097984e+01  -2.803266e+01
   8.470512e+01  -3.760981e+01
   1.978932e+02   5.261542e+01
   9.708603e+01   1.429690e+02
  -1.649001e+02   2.148822e+02
  -3.278214e+02   1.333099e+02
  -2.592092e+02  -6.539005e+01
   4.552700e+01  -3.148541e+02
   2.418386e+02  -3.148999e+02
   3.101961e+02  -1.047137e+02
   1.735581e+02   1.733863e+02
   2.153954e+00   2.836541e+02
  -1.926168e+01   2.378601e+02
  -1.155105e+01   1.318615e+02
  -2.413890e+00   1.046026e+02
  -1.414348e+02   9.301919e+01
  -2.117707e+02   3.463526e+01
  -1.791463e+02  -7.995016e+01
  -8.213549e+01  -1.936889e+02
   1.016942e+02  -1.299297e+02
   1.371613e+02   3.731788e+01
   9.235827e+01   2.188811e+02
  -4.332668e+01   2.286598e+02
  -2.065317e+02   3.204225e+01
  -2.334781e+02  -2.048509e+02
  -1.364750e+02  -2.530786e+02
   8.586867e+01  -2.171646e+02
   1.650531e+02  -9.061933e+01
   1.296494e+02  -6.300479e+01
   1.262362e+02  -9.190701e+01
   2.212068e+02  -2.641605e+01
   3.776844e+02   1.043537e+02
   2.985241e+02   2.628665e+02
  -2.043333e+01   4.023218e+02
  -3.445547e+02   3.168857e+02
  -4.172206e+02   1.622168e+02
  -2.320700e+02  -1.117187e+02
   6.100994e+00  -2.260832e+02
   4.497591e+01  -1.315360e+02
  -3.568415e-01  -4.608074e+01
  -1.070578e+02  -1.364424e+01
  -8.226897e+01  -6.639103e+01
   4.800700e+01  -9.696232e+01
   1.171697e+02  -7.676974e+01
   1.064748e+02   6.008618e+01
  -3.399941e+01   1.180478e+02
  -1.769729e+02  -7.812165e+00
  -1.122217e+02  -2.247974e+02
   4.089176e+01  -3.081787e+02
   2.264037e+02  -1.765137e+02
   3.720942e+02   8.566694e+01
   2.473743e+02   2.419032e+02
   5.953254e+01   2.152418e+02
  -1.061137e+02   9.348438e+01
  -1.283354e+02   2.925921e+01
  -1.650129e+01   2.787801e+00
   4.286304e+01   6.658554e+01
  -3.780911e+01   1.016301e+02
  -1.143839e+02   7.276098e+01
  -1.495888e+02  -2.496045e+01
  -4.413399e+01  -5.785200e+01
   8.735378e+01  -2.157967e+01
   3.707642e+01   1.066105e+02
  -1.285549e+02   1.045082e+02
  -2.683802e+02  -1.898749e+00
  -1.995965e+02  -1.560952e+02
  -1.789564e+01  -2.236120e+02
   2.012816e+02  -2.010229e+02
   2.190803e+02  -9.281960e+01
   8.128604e+01   5.978721e+01
  -2.081889e+01   3.275142e+01
  -4.296230e+01  -2.857364e+01
   8.415916e+01  -7.472333e+01
   1.598717e+02   1.437566e+01
   1.659747e+02   7.320261e+01
  -6.550938e+00   1.511694e+02
  -8.966178e+01   1.280049e+02
  -1.036597e+02   3.911337e-01
  -3.577457e+01  -6.174456e+01
   6.651728e+01   3.207220e+01
   1.860755e+01   1.185326e+02
  -1.077366e+02   1.146131e+02
  -1.761843e+02  -6.509195e-02
  -1.587769e+02  -9.988933e+01
   9.955131e+00  -1.708351e+02
   1.279649e+02  -1.248161e+02
   1.401134e+02   1.841163e+01
   9.198035e+00   9.495244e+01
  -6.798024e+01   6.776840e+01
  -4.837020e+01   1.654761e+01
   1.001081e+01  -1.183822e+01
   4.375409e+01  -8.775707e+00
  -1.419883e+01   1.992888e+01
  -7.713404e+01  -9.372084e+00
  -1.012919e+02  -8.129458e+01
  -6.465826e+00  -1.776724e+02
   1.137237e+02  -9.415515e+01
   2.130199e+02   2.197059e+01
   1.689272e+02   1.436677e+02
   8.087199e+00   1.625199e+02
  -6.290422e+01   1.389199e+02
  -8.083856e+01   6.036529e+01
  -7.940239e+01  -9.789529e+00
  -2.633925e+01  -6.813025e+00
  -6.803473e+01  -1.692662e+01
  -7.041049e+01   2.058050e+01
  -8.265564e+01  -3.991088e+01
   1.312786e+01  -8.582540e+01
   1.165192e+02  -3.850352e+01
   7.872519e+01   3.346893e+01
  -3.510551e+01   1.083408e+02
  -1.391253e+02   7.709124e+01
  -1.809012e+02  -5.703489e+01
  -5.330533e+01  -1.763653e+02
   1.376749e+02  -1.597833e+02
   2.192070e+02  -3.895802e+01
   2.191336e+02   1.242663e+02
   9.975086e+01   1.689174e+02
  -2.336161e+01   1.291493e+02
  -6.562491e+01   8.511901e+01
  -8.719020e+01   8.219979e+01
  -6.191418e+01   7.020439e+01
  -6.438189e+01   7.910646e+01
  -1.011226e+02  -3.723055e+01
  -8.893523e+01  -1.063705e+02
  -1.549764e+01  -1.957903e+02
   1.129117e+02  -1.157911e+02
   1.428698e+02   4.702701e-01
   1.052000e+02   1.119519e+02
   5.844597e+00   1.132629e+02
  -7.809817e+01   5.147225e+01
  -6.323278e+01  -2.774292e+00
  -1.500412e+01  -5.060445e+01
   2.860426e+01  -2.133225e+01
  -7.083244e+00  -1.197855e+01
  -8.796011e+01  -4.019269e+01
  -2.023518e+01  -4.639417e+01
   6.433902e+01  -3.994434e+01
   1.471151e+02   6.049824e+00
   1.026586e+02   4.407080e+01
  -3.329588e+00   6.548444e+01
  -1.003769e+02   4.316700e+01
  -8.298160e+01   3.522192e+01
  -5.238076e+01  -4.435352e+01
   3.734427e+01  -3.682827e+01
   6.841158e+01   1.204464e+01
   1.964094e+01   5.003234e+01
  -4.771108e+01   4.536214e+01
  -8.467148e+01  -1.736372e+01
  -6.001216e+01  -2.599074e+01
  -1.478263e+01  -2.624030e+01
  -3.722865e+01  -3.640556e+01
  -9.035192e+01  -1.644279e+01
  -2.857051e+01  -3.980030e+01
   3.052418e+01  -1.223923e+02
   1.189637e+02  -9.356035e+01
   1.375117e+02  -1.846892e+01
   9.814425e+01   7.181657e+01
  -1.679859e+01   1.085212e+02
  -6.753165e+01   5.399571e+01
  -4.669942e+01  -1.947299e+01
   3.550824e+01  -9.140539e+00
   1.064515e+02   3.044059e+01
   2.322164e+01   7.130030e+01
  -1.202493e+02   8.992913e+01
  -1.600926e+02   1.537615e+01
  -1.068719e+02  -2.194736e+01
  -5.959231e+00  -7.387428e+01
   7.350170e+01  -5.976827e+01
   4.951044e+01   3.324251e+00
  -3.543131e+01   4.432724e+01
  -8.029009e+01  -7.627756e+00
  -2.103522e+01  -9.145030e+01
   3.487232e+01  -1.490071e+02
   1.218079e+02  -2.056454e+01
   1.128895e+02   7.814862e+01
   6.115693e-01   1.472227e+02
  -5.459289e+01   8.562721e+01
  -5.142983e+01  -4.306535e+01
  -3.874360e+01  -1.479851e+02
   1.896039e+01  -7.962017e+01
   1.749901e+01   2.674776e+01
   5.670846e+01   4.535512e+01
   1.404571e+01   1.892898e+01
  -2.702620e+01  -2.844621e+01
   3.976265e+01   1.882868e+01
   5.594715e+01   8.579823e+01
  -3.848082e+00   9.465174e+01
  -3.720581e+01   5.080811e+01
  -9.800252e+01  -6.866165e+00
  -1.029360e+02  -3.368478e+01
  -2.677443e+01  -5.726880e+01
   6.248849e+01  -9.497971e+00
   8.198932e+01  -2.511110e+01
   2.489712e+01   3.129646e+01
  -7.952234e+00   2.224773e+01
  -8.267526e+00   1.590258e+00
   1.769659e+01   2.130586e+01
   1.399998e+00   8.719010e+00
  -7.855119e+01  -4.697361e+00
  -8.601181e+01  -1.316939e+01
  -4.656282e+00  -8.079182e+01
   1.327220e+02  -1.158326e+02
   1.453900e+02  -5.129874e+01
   1.171079e+02   5.406932e+01
   3.962760e+01   1.367742e+02
  -6.555767e+01   1.477205e+02
  -1.017978e+02   6.061395e+01
  -6.383209e+01   1.188630e+01
  -3.593859e+01  -1.948134e+01
  -3.112476e+01  -1.245029e+01
  -8.807043e+00   1.920690e+01
  -4.515354e+01  -2.456443e+01
  -4.169586e+01  -8.101057e+01
   1.122336e+01  -8.512374e+01
   5.415555e+01  -3.204205e+00
   5.575118e+01   6.551167e+01
   2.888175e+01   9.273726e+01
  -6.166399e+01  -1.833613e+00
  -8.093937e+01  -5.633490e+01
  -4.118103e+01  -9.761616e+01
   5.496582e+01  -5.231992e+01
   9.273835e+01   2.175667e+01
   5.382184e+01   5.241381e+01
  -3.217142e+01   6.980339e+01
  -3.159819e+01   5.461397e+01
   7.033735e+00   4.651306e+00
   3.429153e+01  -7.184492e-01
   1.654169e+01   4.887308e+01
  -6.615209e+01   6.547696e+01
  -1.108083e+02   4.881814e+01
  -5.700784e+01  -2.524521e+01
   1.884125e+00  -6.093478e+01
   3.693753e+01  -5.798704e+01
   7.273467e+01   4.426658e+00
   1.353352e-01   6.218480e+01
  -3.328917e+01   5.521797e+01
  -2.678381e+01  -2.296206e+01
  -1.295602e+01  -4.259651e+01
   2.135377e+01  -2.856373e+00
   2.811521e+01  -9.998033e-01
   3.296966e+01   2.121955e-01
   2.260520e+01   1.950011e+01
   1.467666e+01  -2.411429e+01
   7.208038e+00   9.897431e+00
   6.005277e+00   3.370546e+01
   1.295233e+01   3.843921e+01
  -2.471681e+01   3.622428e+01
  -7.920343e+01  -2.787756e+01
   2.337642e+00  -3.923711e+01
   2.632162e+01  -3.285693e+01
   6.235783e+01   4.827435e+01
   1.874963e+01   7.237271e+01
  -3.774614e+01   3.639019e+01
  -8.763780e+01   5.707147e-01
  -4.121513e+01  -6.279807e+01
   4.918206e+01  -4.617332e+01
   4.169524e+01  -8.910759e+00
   2.146085e+01  -1.765018e-01
  -2.698806e+01   1.013942e+01
  -2.256628e+01   3.325780e+01
   3.679564e+01  -6.007948e+00
   5.361829e+01   3.373873e+00
