
 $NMID
 id='ANONYMOUS ', fmtdat='(2E16.6)'
 volume=1.0
 tramp=1.0
 $END
  -1.984525e+03  -1.705767e+02
  -1.511167e+03  -1.172178e+03
  -1.845859e+02  -1.409977e+03
   6.462336e+02  -1.207869e+03
   7.313993e+02  -2.345778e+02
   1.807272e+02   6.666809e+01
  -1.871783e+02   4.494958e+01
  -1.209087e+02  -4.080404e+02
   3.354894e+02  -4.788559e+02
   5.957131e+02  -1.177082e+02
   3.836344e+02   3.764607e+02
   1.604246e+01   5.364574e+02
  -2.905381e+02   1.756673e+02
  -2.049807e+02  -4.116345e+02
   1.084849e+02  -4.990608e+02
   3.927595e+02  -6.403731e+01
   2.977900e+02   4.007198e+02
  -1.237375e+02   5.374261e+02
  -3.922721e+02   2.767623e+02
  -4.249703e+02  -1.877901e+02
  -1.077555e+02  -2.920984e+02
   1.445036e+02  -1.792744e+02
   2.890948e+01  -3.417557e+01
  -1.972458e+02  -4.467086e+01
  -2.794773e+02  -2.284200e+02
   8.100417e+00  -3.381671e+02
   3.998374e+02  -1.043183e+02
   5.115551e+02   1.753264e+02
   1.208626e+02   3.302364e+02
  -2.653607e+02   1.903445e+02
  -3.110216e+02  -1.320216e+02
  -1.079860e+02  -3.411520e+02
   2.156538e+02  -2.739209e+02
   3.815349e+02  -1.093999e+02
   2.075620e+02   1.653053e+02
   3.392371e+01   2.528883e+02
  -2.629273e+01   1.507591e+02
   7.792868e+01  -1.134173e+02
   2.191291e+02  -1.022918e+02
   1.737549e+02   1.512000e+02
   1.551318e+01   4.601166e+02
  -2.095390e+02   3.306761e+02
  -2.937024e+02  -5.901251e+01
  -1.091146e+02  -2.634417e+02
   1.012220e+02  -9.406843e+01
   1.368423e+02   1.839538e+02
  -1.022700e+02   3.272880e+02
  -3.301930e+02   6.837306e+01
  -3.354639e+02  -3.312514e+02
  -1.271932e+02  -4.228060e+02
   2.506152e+02  -1.575786e+02
   3.852290e+02   8.609868e+01
   2.302949e+02   2.121099e+02
  -8.724881e+01   2.144531e+02
  -2.329246e+02   4.872838e+01
  -1.872888e+02  -4.103924e+01
   1.165634e+00  -5.840057e+01
   7.560613e+01   2.728315e+01
  -4.965620e+01   6.870350e+01
  -1.587352e+02   5.983944e+00
  -1.048926e+02  -1.251035e+02
   7.386445e+01  -2.360820e+02
   2.940642e+02  -1.534602e+02
   2.366285e+02   9.319004e+01
  -2.995101e+01   3.292168e+02
  -3.101766e+02   2.907110e+02
  -3.303748e+02   9.979290e+01
  -1.725546e+02  -1.298553e+02
  -1.738142e+01  -2.648749e+02
   2.562563e+01  -2.511244e+02
   3.134829e+01  -1.142416e+02
   8.674192e+00  -1.006484e+02
   9.284951e+01  -1.293280e+02
   2.084351e+02  -5.028482e+01
   2.131721e+02   9.844184e+01
   9.327077e+01   2.378549e+02
  -7.196732e+01   1.691822e+02
  -1.639840e+02  -2.339058e+01
  -1.251747e+02  -2.164980e+02
   8.025380e+01  -2.115978e+02
   1.792451e+02  -2.411683e+01
   2.070094e+02   1.757145e+02
   1.270621e+02   2.539808e+02
  -3.574564e+01   2.194327e+02
  -1.452906e+02   9.874352e+01
  -1.142655e+02   6.335618e+01
  -1.029051e+02   6.774561e+01
  -2.238564e+02   6.972211e+01
  -3.505387e+02  -8.821270e+01
  -2.686388e+02  -2.715171e+02
   3.084217e+01  -3.694659e+02
   3.439304e+02  -3.655767e+02
   4.100883e+02  -1.434342e+02
   2.156359e+02   9.893994e+01
   2.606964e+01   1.882867e+02
  -9.141643e+01   1.633474e+02
  -3.863121e+01   4.481346e+01
   9.908742e+01  -3.770126e+01
   1.014689e+02   1.658938e+01
  -2.483296e+00   7.770953e+01
  -8.955252e+01   6.885738e+01
  -7.984172e+01  -6.980302e+01
   3.791006e+01  -9.237669e+01
   1.487713e+02  -1.182334e+00
   1.456802e+02   1.900579e+02
  -9.617360e+00   2.937931e+02
  -2.189832e+02   1.771402e+02
  -3.183111e+02  -7.906374e+01
  -2.467721e+02  -2.499105e+02
  -7.693512e+01  -2.613498e+02
   1.221601e+02  -1.285947e+02
   1.439066e+02  -7.080328e+00
   2.330771e+01  -1.741542e+01
  -4.409310e+01  -6.679002e+01
   2.598776e+01  -1.108260e+02
   1.065799e+02  -3.873937e+01
   1.221217e+02   2.263621e+01
   6.336281e+01   5.803891e+01
  -9.462498e+01  -8.070742e+00
  -5.573148e+01  -1.039379e+02
   1.099200e+02  -9.328168e+01
   2.830995e+02   1.847006e+01
   2.447143e+02   1.529194e+02
   1.314830e+01   2.234748e+02
  -1.621699e+02   1.910050e+02
  -2.063727e+02   1.065231e+02
  -9.899774e+01  -4.218704e+01
   1.540551e+01  -2.754322e+01
   6.737402e+01   2.113571e+01
  -5.061968e+01   8.575714e+01
  -1.404358e+02   1.189586e+01
  -1.199946e+02  -1.047494e+02
  -2.112035e+01  -1.530790e+02
   8.100891e+01  -9.880453e+01
   1.212210e+02   4.143257e+00
   3.441573e+01   8.177530e+01
  -5.461440e+01  -8.102394e+00
  -3.549345e+01  -1.266131e+02
   9.094011e+01  -1.072749e+02
   1.955385e+02   2.919512e+00
   1.388300e+02   1.283772e+02
   8.189742e-01   1.802484e+02
  -1.574711e+02   9.699022e+01
  -1.665252e+02  -9.195957e+00
  -2.895919e+01  -7.593524e+01
   4.933405e+01  -7.250495e+01
   5.609736e+01  -2.123034e+01
   3.046727e+00   1.291374e+01
  -6.143180e+01  -7.731192e+00
   2.630604e+01  -1.960970e+01
   9.166165e+01   3.611832e+00
   1.033028e+02   9.580246e+01
   2.565660e+00   1.519566e+02
  -1.055602e+02   1.279663e+02
  -1.867672e+02  -1.842714e+01
  -1.666236e+02  -1.197651e+02
  -2.446116e+01  -1.947545e+02
   9.290211e+01  -8.907720e+01
   8.021830e+01  -3.006786e+01
   3.807128e+01   4.016758e+01
   8.958396e+00   8.300760e+00
   3.517185e+01  -1.825353e+01
   7.382305e+01  -3.070796e+01
   5.800004e+01   5.064355e+01
  -4.075857e+01   1.053162e+02
  -8.646922e+01   5.507843e+01
  -1.245564e+02  -2.966510e+01
   9.645274e+00  -1.306085e+02
   1.289202e+02  -6.451284e+01
   1.867608e+02   6.468739e+01
   6.686041e+01   1.914456e+02
  -1.146954e+02   2.293776e+02
  -2.465414e+02   5.713057e+01
  -2.098664e+02  -3.617216e+01
  -8.610092e+01  -1.429096e+02
   4.972723e+01  -1.087331e+02
   8.860142e+01  -5.205746e+01
   2.281267e+01  -2.691368e+01
   2.680208e+01  -5.214770e+01
   6.897167e+01  -6.723205e+01
   9.647897e+01  -2.808939e+01
   1.044068e+02   1.073009e+02
   1.347937e+01   1.402626e+02
  -9.870555e+01   1.548629e+02
  -1.660035e+02  -9.433587e-01
  -1.042987e+02  -1.047186e+02
   2.390496e+01  -1.431066e+02
   7.003525e+01  -4.757004e+01
   6.881492e+01   1.597435e+01
   3.960011e+00   6.848112e+01
  -4.220715e+01   5.659252e+01
   1.574216e+01  -1.676081e+01
   6.735789e+01   1.426493e+01
   4.166207e+01   1.227884e+01
  -5.812608e+01   3.740615e+01
  -1.292931e+02   2.635840e+01
  -9.981414e+01  -4.218491e+01
  -2.244431e+01  -9.747660e+01
   1.313350e+02  -8.686394e+01
   1.261601e+02   2.977601e+01
   5.318056e+01   6.442422e+01
  -6.668904e+01   6.059088e+01
  -7.882121e+01  -2.198199e+01
  -2.703117e+01  -6.104797e+01
   1.800944e+01  -6.774212e+01
   1.066353e+02  -1.905953e+01
   7.095900e+01  -5.181926e-01
   6.230585e+01   3.706919e+01
   2.951341e+01  -6.654547e+00
   7.725811e+01  -2.510528e+01
   1.357079e+01   4.187012e+01
  -2.622172e+01   1.111721e+02
  -9.400323e+01   1.132002e+02
  -1.627175e+02   1.911921e+01
  -1.211930e+02  -8.822737e+01
  -2.188984e+01  -1.112682e+02
   7.080386e+01  -7.093609e+01
   4.376870e+01   2.753421e+01
  -2.818204e+01   4.933389e+01
  -1.333261e+02  -4.819287e+01
  -5.445210e+01  -8.434194e+01
   6.397379e+01  -6.702996e+01
   1.378620e+02  -7.679599e+01
   1.051386e+02   4.394302e+01
   1.008158e+01   5.688009e+01
  -4.551497e+01   2.905210e+01
  -3.146377e+01  -7.588808e+00
   8.552851e+00  -2.794492e+01
   7.485990e+01  -3.979995e+00
   6.868303e+01   1.080934e+02
  -6.707928e+01   1.224085e+02
  -1.344385e+02   5.197305e+01
  -9.929191e+01  -6.847782e+01
   1.700524e+01  -1.619333e+02
   1.252443e+01  -1.012914e+02
   9.583048e+01   3.054253e+01
   2.319511e+01   1.036164e+02
   2.639472e-01   9.724897e+01
  -2.590526e+01   1.831426e+01
  -3.150323e+01  -3.600700e+01
  -2.169330e+01  -7.458447e+00
  -9.695690e+00   2.386077e+01
  -5.594876e+01  -1.238238e+01
  -2.270665e+01  -5.854573e+01
  -2.363992e+01  -6.695543e+01
  -1.077452e+00  -5.258231e+01
   1.010328e+02   1.945891e+01
   1.173277e+02   4.290506e+01
   4.225043e+01   3.929981e+01
  -9.574961e+01   3.105812e+01
  -3.809338e+01  -6.805882e-01
  -2.564993e+01  -2.601892e+01
   2.762326e+01  -6.886311e+00
   1.738748e+01   1.449225e+01
  -3.186534e+01   3.476707e+00
   5.986924e+00   2.578339e+01
   4.291997e+01  -7.768931e+00
   8.018023e+01   5.632265e-01
   4.823732e+01   3.865853e+01
  -6.221692e+01   1.102992e+02
  -1.537444e+02   7.040665e+01
  -1.574287e+02  -2.001068e+01
  -3.039675e+01  -1.055513e+02
   6.410891e+01  -1.022061e+02
   5.166337e+01  -4.349765e+01
   9.348292e+01   1.901844e+01
   7.568889e+00   4.419837e+01
   8.826740e+00   1.129716e+01
   1.446633e+01   9.061013e-01
   5.157149e+01   2.408144e+01
   1.706170e+01   8.159213e+01
  -3.208903e+01   7.859956e+01
  -3.997073e+01  -2.278446e+01
  -6.481012e+01  -7.124065e+01
  -1.590572e+01  -7.447172e+01
   5.142771e+01  -3.445732e+01
   7.524033e+01   3.518566e+01
  -4.142807e+00   8.999581e+01
  -5.572908e+01   4.774479e+01
  -7.757204e+01   9.208215e+00
  -3.326373e+01  -5.055783e+01
   2.404376e+01  -2.284834e+01
   1.726048e+01  -1.020504e+01
  -3.095192e+01   1.568808e+01
  -7.138358e+01   6.430311e+00
  -3.208847e+01  -1.606942e+01
   5.895275e+01  -5.164489e+01
   7.592916e+01  -1.532803e+01
   9.097737e+01   4.171573e+01
  -4.043435e+00   9.690762e+01
  -4.143820e+01   6.704977e+01
  -5.801472e+01  -2.964514e+00
  -3.508609e+00  -6.128755e+01
   1.521688e+00  -1.831653e+01
   2.337019e+01   2.610072e+01
   4.275832e+01   5.921205e+01
  -9.589472e+00   4.370633e+01
  -8.131034e+00  -1.900248e+01
  -3.057088e+01  -2.870580e+01
  -7.984890e+00   2.481356e+01
   1.408799e+00   3.607685e+01
  -7.868445e+00   4.975348e+00
  -1.848697e+01  -1.761031e+01
   6.991930e+00  -5.483036e+01
   2.054808e+01  -4.493501e+01
   2.271396e+01   4.595506e+00
   2.703273e+01   1.177752e+01
  -2.926972e+01   3.458208e+01
  -4.141649e+01  -2.058101e+01
  -3.371406e+01  -5.227397e+01
   3.572286e+01  -4.325421e+01
   9.879151e+01   1.995436e+00
   4.176914e+01   3.989760e+01
  -3.081125e+01   3.856539e+01
  -3.797351e+01   1.783697e+01
  -2.345766e+01   2.683867e+01
   9.019841e+00  -2.330931e+01
   3.578648e+01   3.775338e+01
  -1.513703e+01   1.592226e+01
  -4.336229e+01   1.090693e+01
