
 $NMID
 id='ANONYMOUS ', fmtdat='(2E16.6)'
 volume=1.0
 tramp=1.0
 $END
  -2.651679e+03  -3.031001e+02
  -1.400820e+03  -1.593706e+03
   3.423205e+02  -1.777615e+03
   1.320931e+03  -7.720016e+02
   7.171930e+02   2.471388e+02
  -2.063580e+02   1.324199e+02
  -4.484991e+02  -1.511459e+02
  -8.906337e+01  -5.578997e+02
   4.359185e+02  -4.269761e+02
   5.320135e+02   6.000797e+01
   2.614791e+02   5.330496e+02
  -1.360903e+02   5.561617e+02
  -3.956716e+02   1.526497e+01
  -1.403294e+02  -4.738718e+02
   2.654284e+02  -5.148088e+02
   4.047230e+02   3.048268e+01
   1.955530e+02   5.126393e+02
  -2.034953e+02   4.709349e+02
  -4.084493e+02   8.220040e+01
  -2.940758e+02  -2.605054e+02
  -2.559642e+01  -2.973613e+02
   2.155826e+02  -1.744246e+02
   1.154691e+02  -1.451827e+01
  -1.470716e+02  -5.521593e+00
  -2.626864e+02  -1.338504e+02
  -2.066912e-01  -3.284061e+02
   4.056641e+02  -1.731953e+02
   5.882292e+02   1.841560e+02
   1.412833e+02   4.477845e+02
  -3.540832e+02   2.751148e+02
  -4.688236e+02  -1.069126e+02
  -1.486706e+02  -3.961869e+02
   2.648428e+02  -3.405262e+02
   4.343332e+02  -6.346997e+01
   3.002037e+02   2.071855e+02
  -2.758866e+01   3.511653e+02
  -1.323199e+02   1.004330e+02
  -5.753011e+01  -2.171628e+02
   1.994055e+02  -2.366192e+02
   2.960512e+02   1.180868e+02
   4.375648e+01   4.024132e+02
  -2.265140e+02   3.905051e+02
  -3.280126e+02  -7.079150e+01
  -5.869566e+01  -3.784294e+02
   2.214758e+02  -1.516078e+02
   2.126710e+02   2.474310e+02
  -1.574053e+02   3.507446e+02
  -4.203673e+02   6.863025e+01
  -4.332107e+02  -3.653534e+02
  -4.635279e+01  -4.697329e+02
   3.116745e+02  -2.437649e+02
   4.604911e+02   1.201998e+02
   2.076101e+02   2.782608e+02
  -9.453455e+01   2.261246e+02
  -3.125738e+02   1.788997e+01
  -1.524364e+02  -1.281006e+02
   5.588006e+01  -5.356301e+01
   8.086703e+01   1.131792e+02
  -7.666096e+01   1.141356e+02
  -2.424913e+02  -5.209782e+01
  -1.023971e+02  -2.052173e+02
   1.326165e+02  -1.917221e+02
   2.678127e+02  -3.490986e+01
   1.670285e+02   1.152687e+02
  -3.702926e+01   2.563071e+02
  -2.662661e+02   2.169423e+02
  -2.560688e+02   6.306817e+01
  -1.768258e+02  -1.468825e+02
   2.414724e+01  -2.826294e+02
   9.493513e+01  -2.006787e+02
   2.011951e+01  -1.924050e+01
  -2.987717e+01  -5.067274e+01
   6.206679e+01  -1.011464e+02
   1.548337e+02  -1.015587e+02
   1.840132e+02   1.106959e+02
   4.921369e+01   2.437883e+02
  -8.932109e+01   1.819129e+02
  -1.865821e+02  -5.120674e+01
  -9.920115e+01  -2.034197e+02
   6.703914e+01  -2.094695e+02
   1.991194e+02  -5.483070e+01
   1.949437e+02   1.389261e+02
   7.935462e+01   2.266852e+02
  -8.309702e+01   2.192802e+02
  -1.857380e+02   7.733259e+01
  -1.119759e+02  -2.574262e+00
  -1.203189e+02   6.494760e+01
  -1.925581e+02   2.361486e+01
  -2.689126e+02  -9.174267e+01
  -2.149491e+02  -2.478303e+02
   5.530909e+01  -2.850005e+02
   2.919723e+02  -2.639995e+02
   3.788809e+02  -6.418290e+01
   2.266973e+02   1.532483e+02
   2.025441e+01   2.269737e+02
  -1.087910e+02   1.766343e+02
  -3.297364e+01   4.032186e+01
   8.047427e+01  -6.089062e+01
   1.169273e+02  -1.266926e+01
  -1.918678e+00   9.583411e+01
  -7.738188e+01   8.858063e+01
  -9.560897e+01  -5.818167e+01
   7.461749e+01  -1.005519e+02
   1.258193e+02   2.015023e+01
   1.200094e+02   1.908060e+02
  -5.070746e+01   2.667856e+02
  -1.899431e+02   1.428138e+02
  -2.434544e+02  -7.418641e+01
  -1.813498e+02  -2.030072e+02
   1.611948e+00  -2.046387e+02
   1.072814e+02  -7.383218e+01
   1.317882e+02  -7.301177e+00
   1.450695e+01   2.053046e+01
  -4.831720e+01  -3.141336e+01
   2.924292e+01  -8.986128e+01
   8.501452e+01  -5.035142e+01
   1.241845e+02   4.868719e+01
   2.051667e-02   6.690907e+01
  -5.723063e+01  -3.615060e+01
  -1.229908e+01  -8.680824e+01
   1.066613e+02  -5.517567e+01
   2.465582e+02   5.005381e+01
   1.711095e+02   1.878847e+02
  -1.059193e+01   2.587922e+02
  -1.655993e+02   1.941174e+02
  -2.026771e+02   6.452486e+01
  -1.075500e+02  -5.564436e+01
   2.319450e+01  -6.801472e+01
   5.289137e+01   1.251615e+01
  -4.459219e+01   5.098032e+01
  -1.345889e+02   1.034391e+01
  -1.039236e+02  -1.227172e+02
  -2.450128e+01  -1.608081e+02
   9.493285e+01  -8.656161e+01
   1.254433e+02  -1.074000e+00
   5.704926e+01   2.981414e+01
  -2.444970e+01  -2.474238e+01
   7.956200e+00  -8.152902e+01
   8.693882e+01  -8.339342e+01
   1.629850e+02   7.912447e+00
   1.596110e+02   1.143329e+02
  -3.173195e+01   1.709199e+02
  -1.297505e+02   1.032083e+02
  -1.396993e+02  -1.032820e+00
  -5.477683e+00  -5.840776e+01
   6.825919e+01  -5.555538e+01
   6.264483e+01   7.945373e+00
   9.794210e+00   2.840434e+01
  -1.573371e+01   2.701433e+01
   6.469237e+00  -3.751295e+01
   7.212774e+01   1.012361e+01
   7.923116e+01   6.111405e+01
   4.025292e+00   9.362898e+01
  -1.003675e+02   1.032930e+02
  -1.477441e+02  -3.185263e+01
  -1.078150e+02  -1.599410e+02
  -3.546675e+00  -1.395796e+02
   1.096450e+02  -1.162957e+02
   1.202469e+02   3.883932e+00
   3.320120e+01   4.637567e+01
   1.826358e+01   7.684634e+00
   1.462320e+01   2.686371e+00
   4.764682e+01   4.445579e+00
   5.103033e+01   5.563719e+01
  -5.410081e+01   8.784164e+01
  -6.980811e+01   1.987407e+01
  -9.555686e+01  -8.060317e+00
  -1.318407e+01  -9.488791e+01
   8.763822e+01  -3.935952e+01
   1.556016e+02   4.225311e+01
   5.172696e+01   1.704237e+02
  -5.711480e+01   1.580344e+02
  -1.862416e+02   5.429329e+01
  -2.086962e+02  -1.064839e+02
  -6.816667e+01  -1.648812e+02
   5.948664e+01  -7.844048e+01
   1.215801e+02  -5.378006e+01
   7.162293e+01  -3.219882e+01
   4.949122e+01  -6.995055e+01
   5.318570e+01  -5.036991e+01
   1.227903e+02   2.651371e+01
   6.347860e+01   1.093806e+02
   6.608827e+00   1.602600e+02
  -9.657622e+01   1.078373e+02
  -1.622140e+02  -2.984470e+01
  -8.281834e+01  -9.321922e+01
   1.465938e+01  -1.116737e+02
   6.730378e+01  -2.480990e+01
   8.074498e+01   4.995349e+01
  -2.863243e+00   6.209781e+01
   2.832112e+00   2.762420e+01
   1.680553e+01   2.901521e+01
   6.787413e+01   3.019074e+01
   3.883811e+01   3.204536e+01
  -5.975025e+01   4.522116e+01
  -1.066112e+02  -3.074249e-01
  -1.019090e+02  -6.483264e+01
   2.011913e+01  -8.573304e+01
   9.618771e+01  -3.979039e+01
   1.211065e+02   1.953784e+01
   3.700150e+00   2.314862e+01
  -2.715657e+01   4.550564e+01
  -5.963682e+01  -4.711406e+00
  -2.021321e+01  -4.912632e+01
   4.146932e+01  -5.768084e+01
   5.686293e+01   2.028815e+00
   3.842880e+01   6.604135e+01
   4.755792e+01   3.890706e+01
   1.257752e+01  -6.506801e+00
   4.323287e+01  -9.822852e+00
  -2.481423e-01   5.135355e+01
  -3.109385e+01   1.051228e+02
  -1.036875e+02   9.250664e+01
  -1.492626e+02  -1.568618e+01
  -4.598433e+01  -8.143225e+01
  -5.973449e+00  -1.099596e+02
   7.636579e+01  -3.031346e+01
   3.863707e+01   2.536554e+01
  -3.009597e+01   2.236272e+01
  -8.747368e+01  -1.538708e+01
  -4.825724e+01  -8.228736e+01
   4.861874e+01  -6.984229e+01
   1.692927e+02  -5.265337e+01
   1.134663e+02   5.961162e+01
  -2.092053e+00   8.548840e+01
  -7.514430e+01   3.554598e+01
  -7.491284e+01  -1.023149e+01
   2.359834e+01  -3.018095e+01
   6.241999e+01   1.486811e+01
   7.198447e+01   8.257521e+01
  -1.114655e+02   1.046350e+02
  -1.022535e+02   2.731731e+01
  -1.268068e+02  -1.108475e+02
   1.849246e+01  -1.353201e+02
   8.247175e+01  -8.637570e+01
   7.393685e+01   3.358738e+01
   2.779497e+01   9.906106e+01
   7.940265e+00   6.748703e+01
  -3.854519e+01   1.290740e+01
  -4.763086e+01  -6.753050e+00
  -1.921803e+01  -2.627813e-01
  -4.108309e+01   8.266909e+00
  -2.391607e+01  -1.061181e+01
  -5.915641e+01  -7.804039e+01
   9.139549e-01  -8.783632e+01
   3.605653e+01  -3.391872e+01
   1.174009e+02   3.669530e+01
   8.811759e+01   8.507152e+01
  -3.324022e+01   5.291187e+01
  -6.921429e+01  -6.879606e-01
  -7.541573e+01  -1.272689e+01
   6.930309e+00  -1.647588e+01
   5.509308e+01  -1.365621e+01
   2.009658e+01  -4.034007e+00
  -1.641287e+01   5.660098e+00
  -1.638388e+01  -2.054404e+01
   5.884179e+01   1.557937e+01
   5.993742e+01   5.511494e+01
   2.306467e+01   8.195809e+01
  -7.549046e+01   7.706651e+01
  -1.409971e+02   9.044057e+00
  -8.828121e+01  -2.910527e+01
  -7.641927e+00  -8.252294e+01
   4.751642e+01  -1.276932e+02
   8.302562e+01  -7.052401e+01
   9.720320e+01   1.990407e+01
   2.585124e+01   1.617226e+01
   3.958743e+00   1.176402e+01
   1.145277e+01   1.292351e+01
   2.533071e+01   2.785900e+01
  -1.709705e+01   5.133443e+01
  -4.509831e+01   2.891988e+01
  -6.662573e+01  -4.749506e+01
  -4.161593e+01  -8.458226e+01
   2.631537e+01  -6.785063e+01
   7.039802e+01  -1.545298e+01
   7.152674e+01   9.010628e+01
   1.075636e+00   7.811910e+01
  -4.453007e+01   3.382149e+01
  -7.743996e+01   6.331001e+00
  -1.919593e+01  -3.891978e+01
   2.831357e+01  -4.389126e+01
   3.147360e+01   2.677430e+00
  -4.882864e+01  -1.604685e+00
  -5.734200e+01  -4.349626e+00
  -2.079382e+01  -1.445354e+01
   3.790050e+01  -4.361475e+01
   8.673531e+01   1.294225e+01
   4.085439e+01   1.696971e+01
   1.373082e+01   4.170204e+01
  -3.039574e+01   1.540530e+01
  -3.171999e+01   6.331793e+00
   6.232992e+00  -2.365687e+01
   1.744704e+01  -3.408735e+01
   4.606017e+01  -6.435164e+00
   2.358038e+01   2.673464e+01
   2.134003e+01   1.393452e+01
  -1.161663e+01   7.310769e+00
  -8.903492e+00  -2.466544e+01
  -4.677851e+01   1.312487e+01
  -2.408482e+01   1.474379e+01
  -3.312257e+01   2.914646e+01
  -7.132388e+00  -2.798391e+01
   2.174965e+01  -6.661158e+01
   1.710630e+01   9.075640e+00
  -6.224431e+00   5.635459e+01
   2.577900e+01   5.157579e+01
  -1.213346e+01   9.147370e+00
  -3.880859e+01  -1.574641e+01
   2.602575e+00  -7.966277e+01
   5.996712e+01  -1.434224e+00
   8.165127e+01   3.521545e+01
   3.455409e+01   2.742918e+01
  -1.386288e+01   1.597211e+01
  -1.127450e+01  -1.373269e+01
  -1.245986e+01   1.669544e+01
   1.085221e+01  -1.091723e+01
   3.201661e+01  -1.049915e+00
  -1.172517e+01   3.025637e+01
  -5.541750e+01   2.544013e+01
