
 $NMID
 id='ANONYMOUS ', fmtdat='(2E16.6)'
 volume=1.0
 tramp=1.0
 $END
   4.899764e+03  -1.417444e+02
   2.889481e+03   2.881469e+03
  -6.969638e+02   3.103810e+03
  -2.332408e+03   6.749569e+02
  -9.743520e+02  -7.940382e+02
   8.555619e+02  -6.454457e+02
   1.001537e+03   4.860939e+02
  -1.075946e+02   1.161968e+03
  -9.519725e+02   7.928183e+02
  -9.133396e+02  -1.956719e+02
  -4.035571e+02  -8.607191e+02
   2.640692e+02  -9.011228e+02
   6.371039e+02  -3.994918e+01
   3.935356e+02   7.426509e+02
  -2.947536e+02   7.554230e+02
  -6.395764e+02  -6.737117e+01
  -2.607983e+02  -7.570093e+02
   3.721175e+02  -6.367154e+02
   6.492993e+02  -6.805697e+01
   3.872689e+02   4.224145e+02
  -2.206079e+01   4.501115e+02
  -2.636682e+02   2.586617e+02
  -2.459470e+02  -7.442712e+01
   1.203754e+02  -1.084270e+02
   4.615513e+02   1.009374e+02
   2.315091e+02   4.181451e+02
  -4.458907e+02   4.537942e+02
  -8.829816e+02  -5.901899e+01
  -4.393485e+02  -5.301000e+02
   4.361889e+02  -4.878846e+02
   7.401402e+02  -2.095370e+01
   3.204257e+02   5.075847e+02
  -3.257641e+02   5.618631e+02
  -5.886784e+02   1.862890e+02
  -4.206468e+02  -3.256826e+02
  -8.518932e+01  -5.775345e+02
   2.841738e+02  -2.860682e+02
   2.036234e+02   2.909426e+02
  -1.906987e+02   4.856881e+02
  -5.223729e+02   2.397863e+01
  -2.531986e+02  -6.936437e+02
   3.357148e+02  -7.728030e+02
   6.182369e+02   1.678044e+01
   2.949409e+02   5.820570e+02
  -3.105687e+02   3.046558e+02
  -4.099222e+02  -3.367068e+02
   6.825173e+01  -6.148253e+02
   5.657419e+02  -2.007620e+02
   5.531358e+02   3.714762e+02
   2.044889e+02   6.117886e+02
  -3.549787e+02   3.500514e+02
  -6.340486e+02  -8.259562e+01
  -3.598979e+02  -4.186095e+02
   1.842422e+02  -3.096355e+02
   4.780100e+02  -6.228463e+01
   2.638170e+02   2.087614e+02
  -1.372950e+02   1.260355e+02
  -1.799330e+02  -1.843269e+02
   1.571819e+02  -2.068043e+02
   3.740661e+02   7.980808e+01
   1.397084e+02   3.229258e+02
  -2.176175e+02   2.659276e+02
  -3.479264e+02   4.537671e+01
  -1.989238e+02  -1.398677e+02
   6.097379e+01  -2.481595e+02
   2.466108e+02  -3.008463e+02
   3.415369e+02  -1.917534e+02
   2.475470e+02   1.503052e+02
   3.333568e+01   4.569372e+02
  -8.989123e+01   4.014264e+02
  -8.770664e+01   1.317208e+02
  -1.407058e+01  -4.332819e+01
  -7.503302e+01   9.185270e+01
  -2.043794e+02   1.015902e+02
  -2.855411e+02  -5.673346e+01
  -1.700306e+02  -2.852799e+02
   6.791967e+01  -2.912962e+02
   2.406202e+02  -7.824254e+00
   2.237152e+02   2.265204e+02
  -2.150905e+01   2.953344e+02
  -2.832399e+02   1.045226e+02
  -3.439114e+02  -2.471585e+02
  -1.248971e+02  -3.887899e+02
   1.117876e+02  -3.097869e+02
   2.703864e+02  -1.051570e+02
   1.819236e+02   3.051843e+01
   1.276921e+02  -6.449108e+00
   2.409171e+02  -6.334651e+01
   3.911968e+02   3.401322e+01
   3.267197e+02   2.910429e+02
  -4.974859e-01   4.059955e+02
  -3.610112e+02   3.857821e+02
  -4.437163e+02   1.572203e+02
  -3.472495e+02  -1.166904e+02
  -2.176705e+01  -3.032180e+02
   1.258412e+02  -2.404563e+02
   9.335321e+01  -9.790130e+00
  -1.049608e+02   1.438833e+02
  -2.174492e+02  -2.699546e+01
  -7.849923e+01  -2.065925e+02
   1.641575e+02  -1.703052e+02
   1.520870e+02   5.305552e+01
   7.023138e+00   1.825064e+02
  -2.134176e+02   5.055858e+01
  -1.902294e+02  -2.722759e+02
   3.426369e+01  -3.627350e+02
   2.415726e+02  -1.863736e+02
   3.144561e+02   8.185106e+01
   2.432070e+02   2.274406e+02
   8.543002e+01   2.789814e+02
  -1.279256e+02   1.343824e+02
  -1.774749e+02  -8.194435e-02
  -3.560216e+01  -4.798860e+01
   8.249241e+01   5.243954e+01
   3.125092e+01   1.383996e+02
  -1.361163e+02   8.591511e+01
  -1.878051e+02  -4.568027e+00
  -5.214437e+01  -1.063069e+02
   7.155556e+01  -5.220991e+01
   6.111319e+01   5.569144e+01
  -1.206076e+02   6.783559e+01
  -2.555608e+02  -8.220291e+00
  -2.698450e+02  -1.734086e+02
  -2.085608e+01  -2.708686e+02
   1.847019e+02  -2.687617e+02
   2.916045e+02  -1.106265e+02
   1.590193e+02   7.188915e+01
  -5.559340e+01   9.670910e+01
  -7.377559e+01   1.057736e+01
   3.945875e+01  -8.822586e+01
   1.933132e+02  -5.248232e+01
   1.977498e+02   1.027782e+02
   6.237408e+01   1.911177e+02
  -7.343146e+01   1.565160e+02
  -1.449729e+02   2.019986e+01
  -7.333209e+01  -5.745483e+01
   1.452263e+01   7.705186e+00
   2.986969e+01   3.512191e+01
  -8.783423e+01   9.993053e+01
  -2.117217e+02   3.913745e+01
  -1.869395e+02  -1.167557e+02
  -2.012663e+01  -2.210017e+02
   2.081382e+02  -1.514981e+02
   2.081026e+02   1.932488e+01
   7.261956e+01   1.142819e+02
  -1.033268e+02   9.983155e+01
  -5.159094e+01   3.383895e+01
   1.537861e+01  -3.719222e-01
  -6.162273e+00  -1.411286e+01
  -2.412123e+01   8.802523e-01
  -1.056085e+02  -2.775154e+01
  -8.944289e+01  -1.184425e+02
  -1.797843e+00  -1.351105e+02
   1.216438e+02  -1.191689e+02
   2.419219e+02  -2.097768e+01
   1.713883e+02   1.273542e+02
   3.845127e+01   2.293905e+02
  -1.165685e+02   1.439609e+02
  -1.368991e+02   5.539112e+00
  -5.557251e+01  -7.603971e+01
  -2.158057e+01  -4.130049e+01
  -6.670793e+01   2.239228e+01
  -8.206730e+01   1.556596e+01
  -2.667805e+01  -4.382894e+01
   8.799346e+01  -6.871184e+01
   8.535194e+01  -2.390524e+01
   7.245454e+01   3.765024e+01
  -1.427108e+01   1.045735e+02
  -1.473994e+02   1.190909e+02
  -1.837210e+02  -6.779608e+01
  -1.103149e+02  -1.770896e+02
   9.528773e+01  -2.012215e+02
   2.388022e+02  -1.051183e+02
   2.159936e+02   9.305801e+01
   1.044133e+02   1.349895e+02
  -4.170379e+01   1.180276e+02
  -7.392694e+01   5.294244e+01
  -7.337083e+01   6.908508e+01
  -5.725733e+01   9.898317e+01
  -7.940466e+01   7.039315e+01
  -1.057481e+02  -2.702810e+01
  -1.162313e+02  -1.419375e+02
  -1.078528e+01  -2.058447e+02
   6.449944e+01  -1.568814e+02
   1.752816e+02  -1.325913e+01
   1.185573e+02   1.046603e+02
   2.463268e+01   1.429355e+02
  -6.493346e+01   1.068060e+02
  -3.790696e+01  -1.397810e+01
  -1.042909e+01  -3.854414e+01
  -8.124192e-01  -4.243829e+01
  -4.984097e+01  -3.621387e-02
  -1.030367e+02  -3.192618e+01
  -5.512894e+01  -3.027958e+01
   8.127530e+01  -2.803543e+01
   1.654105e+02   1.355918e+01
   1.561487e+02   2.918881e+01
  -2.848265e+00   8.371411e+01
  -1.531083e+02   8.540068e+01
  -1.501270e+02   7.581136e+00
  -2.506528e+01  -2.725135e+01
   6.561429e+01  -5.328686e+01
   7.730769e+01   4.038438e+01
   7.038671e+00   9.969426e+01
  -3.993499e+01   4.808493e+01
  -5.103438e+01   1.651446e+01
  -4.073770e+01  -4.523994e+01
  -4.318930e+01  -3.590062e+01
  -8.225520e+01  -1.074009e+01
  -8.748686e+01  -7.294905e+00
  -4.277234e+01  -9.378315e+01
   4.444094e+01  -1.551607e+02
   1.390856e+02  -1.545870e+02
   1.743774e+02  -4.503324e+01
   1.288714e+02   8.372961e+01
   1.882159e+01   1.056919e+02
  -8.020198e+01   5.012901e+01
  -3.661396e+01  -3.632180e+00
   7.348928e+01  -2.411141e+01
   1.103833e+02   6.480816e+01
   8.168338e+01   9.681047e+01
  -8.769606e+01   1.060695e+02
  -1.941727e+02   2.743384e+01
  -1.699314e+02  -3.751683e+01
  -3.734814e+01  -7.110525e+01
   5.380283e+01  -7.544408e+01
   3.939083e+01  -8.205691e+00
  -3.566327e+01   2.153189e+01
  -7.008297e+01  -1.492707e+01
  -2.687891e+01  -1.176961e+02
   7.646608e+01  -1.225763e+02
   1.356696e+02  -5.399730e+01
   1.170778e+02   9.080932e+01
   1.815875e+01   1.801553e+02
  -7.370842e+01   1.301328e+02
  -9.627291e+01  -1.251329e+01
  -3.093914e+01  -1.035597e+02
  -1.160506e+01  -1.056892e+02
   4.318531e+01  -2.181287e+01
   2.872664e+01   5.473987e+01
   1.821590e-02  -8.005788e+00
  -3.410919e+00  -3.508903e+01
   4.026858e+01  -5.627911e+00
   3.458462e+01   9.160721e+01
   2.665567e+01   1.470289e+02
  -3.681802e+01   4.711931e+01
  -1.339450e+02  -5.071357e+01
  -1.165988e+02  -7.563312e+01
   1.781849e+01  -4.379005e+01
   7.824559e+01  -5.933623e-01
   6.920004e+01  -1.733419e+01
  -1.395521e+01  -2.664557e+01
  -3.335317e+01   5.484710e-01
   2.710381e-01  -8.775442e+00
   2.547657e+01   1.463267e+01
   3.296268e+01  -1.228951e+00
  -7.081810e+01  -9.321180e-01
  -1.087045e+02  -1.794853e+01
  -1.800039e+01  -7.327998e+01
   1.316174e+02  -1.024856e+02
   1.711977e+02  -4.329290e+01
   1.227726e+02   7.732859e+01
   3.154726e+01   1.664751e+02
  -9.815323e+01   1.479972e+02
  -1.173075e+02   3.381732e+01
  -5.716507e+01  -2.618489e+01
  -2.393361e+01  -3.809464e+01
   1.310676e+01   7.341641e+00
  -4.139126e+01  -1.492647e+00
  -1.654498e+01  -7.054764e+01
  -6.865969e+00  -7.112412e+01
   9.448342e+00  -9.582245e+01
   7.085761e+01   8.079137e+00
   8.502590e+01   1.249965e+02
   4.095309e+00   1.183693e+02
  -7.964553e+01   4.081940e+01
  -9.225062e+01  -6.581962e+01
  -2.101465e+01  -1.181889e+02
   7.741227e+01  -6.186470e+01
   9.572597e+01   1.771240e+01
   1.277645e+01   5.061796e+01
  -5.068058e+01   3.903295e+01
  -5.436618e+01   1.060156e+01
   2.215766e+01   1.340030e+01
   5.042357e+01  -2.185529e+01
   2.101148e+01   2.509053e+01
  -8.737362e+01   5.083663e+01
  -1.066732e+02   4.314655e+01
  -6.948676e+01  -2.228150e+01
   1.787995e+01  -1.142813e+02
   3.983245e+01  -7.146962e+01
   3.298100e+01   2.008357e+00
  -4.823986e+00   7.327627e+01
  -2.558350e+00   4.951654e+01
  -3.053001e+01  -2.146095e+01
  -5.324056e+01  -4.659429e+01
  -4.390386e+00  -3.217930e+01
   4.470201e+01   2.600220e+01
   6.004409e+01   1.425508e+01
  -1.291702e+01  -6.372618e+00
  -6.491234e+00  -1.094012e+01
  -5.911221e-01  -1.083878e+00
  -2.532747e+01   4.773742e+01
  -2.155866e+00   5.996058e+01
  -4.861873e+01   5.440746e+00
  -1.848654e+01  -8.186298e+01
   1.102273e+01  -8.067878e+01
   6.775352e+01  -1.989735e+01
   6.296927e+01   4.619640e+01
   2.847966e+01   4.331634e+01
  -4.450598e+01   3.943838e+01
  -9.408381e+01   8.527178e+00
  -3.456752e+01  -2.466084e+01
   3.417992e+00  -2.861233e+01
   6.543495e+01  -9.328230e+00
   2.075687e+01   7.066836e+00
  -3.512462e+01   1.787933e+01
  -6.707513e+01  -3.566734e+01
   6.027741e+01  -4.198252e+00
   8.573441e+01  -9.365355e+00
