
 $NMID
 id='ANONYMOUS ', fmtdat='(2E16.6)'
 volume=1.0
 tramp=1.0
 $END
   3.057445e+03  -2.816778e+01
   2.109158e+03   1.448032e+03
  -4.430884e+01   2.058891e+03
  -1.543334e+03   1.147928e+03
  -8.457716e+02   8.803664e+01
   9.129688e+01  -2.309443e+02
   4.815750e+02   1.944737e+02
   1.034369e+02   7.153009e+02
  -4.796482e+02   6.316002e+02
  -7.092561e+02  -1.258894e+01
  -4.273921e+02  -6.461564e+02
   1.296090e+02  -6.883556e+02
   4.059657e+02  -1.307569e+02
   2.195278e+02   4.930425e+02
  -1.021541e+02   5.906966e+02
  -4.396781e+02   4.937059e+01
  -2.721084e+02  -4.804087e+02
   1.452126e+02  -6.381036e+02
   4.887868e+02  -2.476474e+02
   3.814367e+02   2.103043e+02
   1.014350e+02   3.993164e+02
  -1.659558e+02   2.476036e+02
  -9.292645e+01   5.473826e+01
   1.794919e+02   4.976569e+01
   2.751385e+02   2.711280e+02
   2.789378e+01   4.222406e+02
  -5.188091e+02   2.370126e+02
  -6.546788e+02  -2.665325e+02
  -2.880198e+02  -4.376674e+02
   3.460018e+02  -2.195859e+02
   5.383287e+02   1.291225e+02
   1.856461e+02   4.263595e+02
  -2.543115e+02   3.767135e+02
  -4.731688e+02   1.103411e+02
  -3.100193e+02  -2.109298e+02
  -2.765925e+01  -3.462062e+02
   8.791740e+01  -1.780855e+02
   9.076421e-01   9.780792e+01
  -1.727392e+02   2.025193e+02
  -2.192514e+02  -1.170062e+02
  -3.224378e+01  -5.302254e+02
   3.165652e+02  -3.939130e+02
   3.731082e+02   7.639189e+01
   6.680675e+01   4.118085e+02
  -2.253521e+02   1.533919e+02
  -1.611237e+02  -2.718246e+02
   9.012778e+01  -3.927964e+02
   4.422632e+02  -8.530243e+01
   4.478926e+02   3.888334e+02
   1.033920e+02   5.381602e+02
  -3.390476e+02   2.912303e+02
  -5.378873e+02  -5.775348e+01
  -3.474064e+02  -3.366092e+02
   6.378587e+01  -2.599930e+02
   2.895654e+02  -5.766514e+01
   1.658435e+02   3.493681e+01
  -3.946971e+01   1.724803e+01
  -3.880459e+01  -1.127322e+02
   1.592407e+02  -8.787716e+01
   2.578603e+02   4.971764e+01
   1.556555e+02   2.301945e+02
  -1.367136e+02   2.606174e+02
  -3.781863e+02   1.624736e+02
  -2.887015e+02  -8.132683e+01
   1.268832e+00  -3.473430e+02
   3.112998e+02  -4.155784e+02
   3.836285e+02  -1.556998e+02
   2.643338e+02   1.755777e+02
   2.948983e+01   3.690036e+02
  -4.576788e+01   3.236512e+02
  -5.093982e+01   1.394391e+02
  -2.313725e+01   1.001419e+02
  -1.074921e+02   1.351157e+02
  -2.512158e+02   4.584215e+01
  -2.536894e+02  -1.079342e+02
  -1.202798e+02  -2.817002e+02
   7.475856e+01  -1.932499e+02
   1.774575e+02   5.676635e+00
   1.958440e+02   2.188476e+02
  -4.660968e+00   2.326706e+02
  -2.207519e+02   8.584104e+01
  -2.971622e+02  -1.402099e+02
  -1.552846e+02  -3.111864e+02
   7.040585e+00  -2.291292e+02
   2.003594e+02  -1.279493e+02
   1.348378e+02  -4.014485e+01
   1.261048e+02  -4.677404e+01
   2.633609e+02  -3.611963e+01
   3.551416e+02   1.183584e+02
   2.983118e+02   3.186241e+02
  -4.987090e+01   4.442248e+02
  -4.496589e+02   3.743084e+02
  -4.965592e+02   1.247634e+02
  -3.015024e+02  -8.995818e+01
  -1.588571e+01  -2.673004e+02
   1.006950e+02  -2.125149e+02
   2.702704e+01  -2.730021e+00
  -1.369671e+02   3.618545e+01
  -1.310215e+02  -3.174802e+01
  -1.124824e+01  -1.311027e+02
   1.276756e+02  -8.735701e+01
   1.098963e+02   7.151224e+01
  -3.933380e+01   1.534825e+02
  -1.503446e+02  -1.676597e+01
  -1.452291e+02  -2.459462e+02
   3.881746e+01  -3.366551e+02
   1.976629e+02  -2.122160e+02
   3.499565e+02   5.816827e+01
   2.435694e+02   2.391785e+02
   4.772552e+01   2.676155e+02
  -1.429118e+02   1.273809e+02
  -1.339477e+02  -3.908725e+01
   4.748343e+00  -4.565389e+00
   4.620810e+01   3.944334e+01
   5.162086e+00   1.337933e+02
  -9.801523e+01   8.622143e+01
  -1.401868e+02  -1.890346e+01
  -4.522160e+01  -6.056117e+01
   6.907134e+01  -8.474756e+00
   2.856944e+01   1.042833e+02
  -1.665043e+02   1.065775e+02
  -3.212088e+02  -1.319967e+01
  -2.596539e+02  -1.771338e+02
  -2.686602e+01  -3.062065e+02
   2.321998e+02  -2.299064e+02
   2.494795e+02  -4.913105e+01
   1.075341e+02   6.540751e+01
  -4.216303e+01   7.124679e+01
  -5.145148e+01  -4.016991e+01
   7.478608e+01  -5.696076e+01
   2.066289e+02   1.795224e+01
   1.695613e+02   1.156787e+02
   1.748983e+01   2.085650e+02
  -1.127836e+02   1.348454e+02
  -1.208537e+02   7.567946e+00
  -1.276200e+01  -4.800820e+01
   5.811514e+01   1.278866e+01
   2.806965e+01   9.843660e+01
  -8.702984e+01   9.357431e+01
  -2.026336e+02   1.537988e+01
  -1.657365e+02  -1.239860e+02
   3.406363e+00  -1.719485e+02
   1.580287e+02  -1.110657e+02
   1.685005e+02   2.412697e+00
   5.629768e+01   9.020505e+01
  -8.087427e+01   9.075962e+01
  -3.956167e+01   2.647133e+01
  -6.994633e+00  -2.445299e+01
   2.497436e+01   1.514950e+01
  -1.849149e+01  -9.573132e+00
  -6.387725e+01   1.183682e+01
  -9.193412e+01  -9.150595e+01
   2.296485e+00  -1.838029e+02
   1.813013e+02  -1.450362e+02
   2.611323e+02   4.645218e+00
   1.936102e+02   1.627371e+02
  -6.168172e+00   2.589830e+02
  -1.408209e+02   1.501527e+02
  -1.118992e+02   2.112234e+01
  -6.129131e+01  -5.765443e+01
  -1.336756e+01  -2.247215e+01
  -5.102561e+01   2.610436e+01
  -8.285358e+01   1.282660e+01
  -8.117862e+01  -7.830863e+01
   3.093341e+01  -9.351427e+01
   1.166161e+02  -7.629451e+01
   1.032035e+02   3.890850e+01
  -3.670368e+00   1.482940e+02
  -1.616945e+02   7.174248e+01
  -2.272824e+02  -7.215668e+01
  -9.819429e+01  -2.370740e+02
   1.584243e+02  -2.183562e+02
   2.866203e+02  -5.636213e+01
   2.300196e+02   1.213044e+02
   8.100020e+01   1.725078e+02
  -3.787337e+01   1.446433e+02
  -8.071416e+01   7.315888e+01
  -8.442732e+01   3.175785e+01
  -5.294711e+01   8.295048e+01
  -9.355465e+01   7.174823e+01
  -1.388171e+02   1.188522e+00
  -1.413611e+02  -1.596366e+02
  -4.335549e+01  -2.381365e+02
   1.300936e+02  -1.462664e+02
   1.714209e+02   2.723229e+01
   1.224812e+02   1.601611e+02
  -1.603895e+01   1.625354e+02
  -9.484388e+01   6.499416e+01
  -7.638408e+01  -3.237254e+01
   6.667991e+00  -3.943207e+01
   3.571967e+01  -8.025402e+00
  -3.048983e+01   1.472090e+01
  -7.835551e+01  -3.739565e+00
  -3.960774e+01  -4.193962e+01
   7.778341e+01  -3.919287e+01
   2.062769e+02  -2.698961e+01
   1.733098e+02   9.914041e+01
   7.165290e+00   1.069369e+02
  -1.534823e+02   6.515974e+01
  -1.351021e+02   1.166705e+01
  -2.737083e+01  -4.704357e+01
   7.369298e+01  -3.765321e+01
   5.054442e+01   1.095361e+01
   3.665896e+00   8.317833e+01
  -6.707402e+01   6.745996e+01
  -6.337767e+01  -1.989640e+01
  -6.252700e+01  -4.065789e+01
  -5.365059e+01  -7.016981e+01
  -5.300823e+01  -3.833729e+00
  -5.599080e+01  -2.829679e+01
  -4.470595e+01  -5.694334e+01
   1.097221e+01  -1.577937e+02
   1.312748e+02  -1.425047e+02
   1.517262e+02  -5.316370e+01
   1.359942e+02   1.312073e+02
   2.375916e+01   1.285327e+02
  -7.309705e+01   6.581532e+01
  -6.445866e+01  -7.031283e+00
   4.607578e+01  -5.164421e+01
   1.488471e+02   3.023468e+01
   4.781699e+01   9.777258e+01
  -1.007838e+02   1.141545e+02
  -1.695302e+02   7.346376e+01
  -1.340270e+02  -2.946395e+01
  -2.415069e+01  -9.508889e+01
   5.214480e+01  -6.035088e+01
   5.366009e+01  -8.827371e+00
  -2.228065e+01   6.240381e+01
  -1.031790e+02  -1.298868e+01
  -5.461277e+01  -8.388571e+01
   8.291640e+01  -1.597593e+02
   1.518770e+02  -5.985598e+01
   1.319288e+02   7.092803e+01
  -1.093523e+01   2.060858e+02
  -1.211094e+02   1.432275e+02
  -9.502987e+01  -2.872986e+01
  -7.140278e+01  -1.305829e+02
   5.222734e+01  -8.876477e+01
   8.312649e+01  -1.592766e+01
   6.872354e+01   6.784466e+01
   2.226078e+01   1.363825e+01
  -7.103766e+00   1.356577e+01
   2.819042e+01   4.015957e+01
   5.858558e+01   7.828856e+01
   2.285700e+01   1.058263e+02
  -6.785207e+01   5.432312e+01
  -1.079054e+02  -1.364046e+01
  -1.214547e+02  -9.380746e+01
   8.850510e+00  -8.340045e+01
   8.670491e+01  -2.831367e+01
   1.111215e+02  -1.137357e+01
   2.543730e+01   1.480833e+01
  -3.601032e+01   4.507235e+01
  -8.577523e-01  -6.133793e+00
   2.665516e+00   5.832504e-01
   2.040358e+01  -2.307648e+01
  -4.485625e+01   1.558254e+00
  -9.659152e+01  -4.578976e+01
  -4.154738e+01  -7.968131e+01
   1.189208e+02  -9.703369e+01
   1.950970e+02  -5.819879e+01
   1.505440e+02   7.367885e+01
   3.410968e+01   1.604474e+02
  -8.184809e+01   1.700532e+02
  -1.096018e+02   6.955075e+01
  -1.007167e+02  -9.481415e+00
  -3.310664e+01  -5.694291e+01
  -1.189677e+01  -3.751439e+01
  -2.706308e+01  -2.847324e+01
  -2.428728e+01  -1.205478e+01
   4.046202e+00  -5.649380e+01
  -2.903547e+00  -4.730451e+01
   3.155099e+01  -1.293629e+01
   6.121597e+01   8.952854e+01
   7.635949e-01   1.130678e+02
  -1.046737e+02   3.627466e+01
  -9.732676e+01  -6.700678e+01
  -4.690328e+01  -9.101908e+01
   6.483900e+01  -5.955234e+01
   9.469008e+01   6.563587e+00
   4.091203e+01   2.612971e+01
  -2.422738e+01   5.824549e+01
  -2.565354e+01   2.470885e+01
   3.722084e+00  -2.060436e+01
   4.911564e+01  -1.244455e+01
  -4.909610e+00   2.077112e+01
  -6.909042e+01   8.500770e+01
  -1.240737e+02   4.918158e+01
  -5.643132e+01  -1.403225e+01
   1.455371e+01  -8.675668e+01
   5.576047e+01  -5.081162e+01
   8.468144e+01   2.113213e+01
   1.462726e+01   4.188814e+01
  -4.540649e+01   4.660176e+01
  -2.339268e+01  -2.379084e+01
  -4.068776e+01  -9.738646e+01
   5.591204e+00  -3.892199e+01
   2.557210e+01   3.239620e+00
   4.944659e+01   3.666629e+01
   1.153806e+01   2.027582e+01
  -2.460118e+01  -6.233883e+00
   1.616012e+01  -1.808245e+01
   1.074421e+01   1.108606e+01
   1.173939e+01   2.961016e+01
  -3.451908e+01   2.698069e+01
  -6.211478e+01  -3.146428e+01
   8.660709e+00  -6.753856e+01
   3.363407e+01  -2.283228e+01
   4.688555e+01   4.688791e+01
   2.254042e+01   5.751355e+01
  -5.112809e+01   5.369269e+01
  -8.717622e+01  -2.020407e+01
  -6.687912e+01  -4.395298e+01
   4.113581e+01  -5.377420e+01
   5.617304e+01  -1.451906e+01
   2.985802e+01   2.120386e+01
  -3.135565e+01  -1.128341e+01
  -1.856090e+01   3.987356e+00
   2.567853e+01  -2.044106e+01
   7.070256e+01   3.939614e+01
