
 $NMID
 id='ANONYMOUS ', fmtdat='(2E16.6)'
 volume=1.0
 tramp=1.0
 $END
   2.542007e+03  -5.025526e+01
   1.864120e+03   1.256762e+03
   1.435842e+02   1.748737e+03
  -1.235592e+03   1.022508e+03
  -8.659134e+02   2.261968e+02
  -2.068245e+02  -1.470894e+02
   3.057015e+02   2.434618e+01
  -3.515749e+01   4.862360e+02
  -3.869187e+02   4.589462e+02
  -5.307814e+02   1.189749e+02
  -3.484815e+02  -4.256926e+02
  -2.738905e+01  -5.353698e+02
   2.499098e+02  -1.809668e+02
   1.338146e+02   3.450756e+02
  -1.242053e+02   4.431610e+02
  -2.960306e+02   7.905643e+01
  -2.512989e+02  -3.592112e+02
   1.044609e+02  -5.547779e+02
   4.238882e+02  -2.548063e+02
   4.143278e+02   1.345687e+02
   8.636173e+01   3.224498e+02
  -1.074534e+02   2.141286e+02
  -3.451371e+01   4.468835e+01
   1.789865e+02   1.156813e+02
   2.755880e+02   2.692575e+02
  -6.257211e+01   3.613955e+02
  -4.585921e+02   1.183348e+02
  -5.330546e+02  -1.501971e+02
  -2.130595e+02  -3.554048e+02
   2.726089e+02  -1.503511e+02
   4.974830e+02   1.410487e+02
   1.500217e+02   3.642049e+02
  -2.619623e+02   3.038308e+02
  -3.919710e+02   1.210613e+02
  -2.370055e+02  -1.769043e+02
  -1.687382e+01  -2.780033e+02
   4.979255e+01  -1.297890e+02
  -5.871556e+01   8.012434e+01
  -1.925185e+02   1.207816e+02
  -1.474616e+02  -1.881222e+02
   7.643441e+01  -4.668248e+02
   3.119656e+02  -3.707723e+02
   2.778197e+02   7.322667e+01
   6.365581e+01   3.034051e+02
  -1.795158e+02   7.600384e+01
  -1.581894e+02  -2.721410e+02
   9.299365e+01  -3.332589e+02
   3.885495e+02  -2.207677e+01
   4.080122e+02   3.376202e+02
   1.225885e+02   4.014339e+02
  -2.649308e+02   2.651147e+02
  -4.309033e+02  -1.121102e+02
  -2.878779e+02  -1.827224e+02
   3.287222e+01  -1.600402e+02
   2.021273e+02  -8.495544e+01
   1.432096e+02   1.253716e+00
  -1.330559e-01   9.517643e+00
  -1.051597e+01  -5.645505e+01
   9.881530e+01  -3.391958e+01
   2.242363e+02   5.145371e+01
   1.005432e+02   1.444144e+02
  -1.068539e+02   2.321864e+02
  -2.995098e+02   1.243566e+02
  -2.535514e+02  -1.081463e+02
  -7.046665e-01  -2.614450e+02
   2.967893e+02  -3.564797e+02
   3.685539e+02  -1.789135e+02
   2.127147e+02   1.520622e+02
  -1.623032e+01   2.624012e+02
  -4.241539e+01   2.857047e+02
   2.046453e+01   1.847088e+02
  -2.432981e+01   1.235906e+02
  -1.760399e+02   1.215762e+02
  -2.807623e+02   3.990295e+01
  -2.342519e+02  -1.578678e+02
  -8.206198e+01  -2.434216e+02
   1.305781e+02  -1.869926e+02
   2.141614e+02   4.001948e+01
   1.317427e+02   2.589401e+02
  -5.310226e+01   2.312572e+02
  -1.981949e+02   5.143772e+01
  -2.432905e+02  -1.721654e+02
  -1.363375e+02  -2.428474e+02
   3.557516e+01  -2.102795e+02
   1.494751e+02  -1.391072e+02
   1.209286e+02  -6.941815e+01
   1.190362e+02  -6.323045e+01
   2.239564e+02  -4.089054e+01
   3.186446e+02   6.475434e+01
   3.431319e+02   2.691841e+02
  -9.121716e+00   4.353434e+02
  -3.581391e+02   3.808131e+02
  -4.022174e+02   1.626246e+02
  -2.538560e+02  -1.034542e+02
  -2.998731e+01  -2.258370e+02
   8.486071e+01  -1.894024e+02
   2.426154e+01  -7.746259e+01
  -1.255379e+02   1.829072e+01
  -9.937006e+01  -2.241836e+01
   2.148652e+01  -1.112068e+02
   1.281910e+02  -6.454553e+01
   8.540168e+01   6.279186e+01
  -4.418787e+01   1.295407e+02
  -1.167529e+02   8.849032e+00
  -1.270720e+02  -2.008027e+02
   5.160353e+01  -3.279334e+02
   2.288162e+02  -2.046520e+02
   3.656497e+02   9.182651e+01
   2.346216e+02   2.583191e+02
   7.163517e+01   2.885142e+02
  -1.132989e+02   1.184254e+02
  -1.177373e+02  -7.528121e+00
  -2.976116e+01   2.308450e+00
   3.419307e+01   5.042775e+01
  -1.352525e-01   1.037946e+02
  -1.285477e+02   7.573755e+01
  -1.392063e+02  -9.069356e+00
  -3.826731e+01  -4.712226e+01
   9.922408e+01   2.674130e+01
   1.695962e+01   1.126561e+02
  -1.414597e+02   9.659156e+01
  -2.944517e+02  -3.837193e+01
  -2.201392e+02  -1.820255e+02
  -7.003112e+00  -2.445163e+02
   1.969870e+02  -1.847968e+02
   2.082617e+02  -6.181986e+01
   1.452240e+02   6.583627e+01
  -3.321456e+01   5.386745e+01
  -4.352696e+01  -2.040630e+01
   4.982062e+01  -1.077475e+02
   1.364630e+02  -9.467368e+00
   1.659629e+02   1.031124e+02
   4.391931e+01   1.342510e+02
  -6.647552e+01   1.017397e+02
  -8.001864e+01  -1.919561e+01
  -5.682451e+01  -6.616017e+01
   5.965129e+01   3.805425e+00
   1.912701e+01   1.074707e+02
  -8.746328e+01   1.165201e+02
  -2.059067e+02   1.771762e+01
  -1.631933e+02  -1.238036e+02
  -3.862825e+01  -1.856852e+02
   1.468367e+02  -1.101513e+02
   1.507771e+02   1.135194e+01
   2.844848e+01   8.758408e+01
  -2.524579e+01   9.022545e+01
  -4.877328e+01  -2.641988e+00
  -1.784979e+01  -4.861218e+01
   1.832786e+01   1.290958e+01
   1.600515e+01  -2.381885e+00
  -9.277146e+01  -3.794346e-02
  -8.650581e+01  -6.645138e+01
   5.323639e-01  -1.851831e+02
   1.508729e+02  -1.288782e+02
   2.508160e+02  -1.325818e+01
   1.836055e+02   1.451200e+02
  -3.549910e-01   2.231883e+02
  -9.905091e+01   1.109277e+02
  -9.480894e+01   2.472282e+01
  -6.648326e+01  -5.331213e+01
  -3.636815e+01  -2.957482e+01
  -3.099648e+01   2.582998e+01
  -9.553407e+01   1.978032e+01
  -7.778752e+01  -3.750265e+01
   6.856230e+01  -1.032546e+02
   1.178163e+02  -7.261047e+01
   1.193663e+02   3.669458e+01
  -4.131378e+01   1.486891e+02
  -1.729591e+02   6.859191e+01
  -1.981690e+02  -7.013243e+01
  -3.028728e+01  -2.020549e+02
   1.234478e+02  -1.661757e+02
   2.557738e+02  -5.530376e+01
   2.483852e+02   1.260878e+02
   5.375868e+01   1.559627e+02
  -5.537103e+01   1.298596e+02
  -7.573543e+01   2.737294e+01
  -5.016194e+01   4.017137e+01
  -2.159907e+01   9.386709e+01
  -5.108786e+01   7.135984e+01
  -1.185605e+02  -8.900156e-01
  -1.045700e+02  -1.503099e+02
  -5.046011e+00  -2.395449e+02
   1.019521e+02  -1.526197e+02
   1.262012e+02  -3.195176e+01
   1.384757e+02   1.285964e+02
  -1.247237e+01   1.420053e+02
  -1.074206e+02   7.983433e+01
  -5.070619e+01  -3.696993e+01
   6.066007e+00  -3.138299e+01
   6.599872e+01  -3.156995e+01
  -1.955288e+01  -1.838207e+01
  -7.102893e+01  -2.904759e+00
  -7.297478e+01  -4.209943e+01
   4.893456e+01  -5.688975e+01
   1.394126e+02  -1.761083e+01
   1.422902e+02   7.108794e+01
   4.439937e+00   8.063734e+01
  -1.390943e+02   6.239997e+01
  -1.322303e+02  -1.553040e+00
  -7.630887e+01  -7.104989e+01
   4.820020e+01  -5.480008e+01
   6.498157e+01   1.287563e+00
   6.146224e+00   6.078596e+01
  -5.039560e+01   6.262299e+01
  -8.591360e+01   2.266964e+00
  -4.138793e+01  -6.380804e+01
  -2.971351e+01  -3.176708e+01
  -5.406615e+01  -1.711030e+01
  -5.413629e+01  -9.111343e+00
  -3.694705e+01  -4.133786e+01
   2.048456e+01  -1.463995e+02
   1.148455e+02  -1.489834e+02
   1.736010e+02  -2.806789e+01
   9.616402e+01   1.219960e+02
   1.287648e+01   9.972751e+01
  -9.729535e+01   6.150312e+01
  -7.584248e+01  -1.557895e+01
   6.077680e+01  -3.647748e+01
   1.214089e+02   4.605992e+01
   6.909710e+01   1.156894e+02
  -8.238970e+01   9.282919e+01
  -1.793939e+02   4.594939e+01
  -1.158860e+02  -2.664474e+01
  -2.752503e+01  -8.714225e+01
   9.234261e+01  -5.278695e+01
   6.076024e+01   1.570691e+01
  -4.910213e+01   5.178228e+01
  -9.919495e+01  -1.863701e+01
  -5.635386e+01  -1.362824e+02
   7.739405e+01  -1.553844e+02
   1.397244e+02  -6.558219e+01
   1.313553e+02   9.458128e+01
   2.945436e+01   1.765845e+02
  -5.009782e+01   1.383508e+02
  -7.101007e+01  -1.806730e+01
  -4.412542e+01  -1.429825e+02
   1.979400e+01  -7.253616e+01
   5.499338e+01  -1.096046e+01
   4.370606e+01   4.338215e+01
   1.569350e+01   2.120229e+00
   4.033125e+00  -3.185279e+00
   2.302799e+01   3.305576e+00
   9.337252e+01   9.038106e+01
   1.450666e+01   1.151868e+02
  -4.540110e+01   4.366872e+01
  -1.166248e+02  -4.964216e+01
  -1.412455e+02  -8.809044e+01
  -2.461251e+01  -5.487313e+01
   8.084162e+01  -3.337446e+01
   1.079256e+02  -1.302041e+01
   5.381884e+00   3.983928e+01
  -3.392393e+01   2.975320e+01
  -5.048079e+00   5.343459e+00
   4.978658e-01  -1.858708e+01
   8.779060e+00  -2.317088e+01
  -4.369247e+01   1.051316e+01
  -1.017876e+02  -1.480145e+01
  -4.507399e+01  -6.329500e+01
   1.000166e+02  -9.741601e+01
   1.659957e+02  -7.074320e+01
   1.625348e+02   1.100111e+01
   4.279944e+01   1.431946e+02
  -6.015996e+01   1.590345e+02
  -1.238420e+02   7.174377e+01
  -1.055159e+02  -2.543936e+01
  -3.118138e+01  -3.909814e+01
  -8.984334e+00  -9.952885e+00
  -2.291134e+01  -2.166561e+01
  -2.118570e+01  -5.487344e+01
  -9.851565e+00  -9.396029e+01
   4.452080e+01  -5.718931e+01
   4.953298e+01   6.784724e+00
   8.044914e+01   8.461759e+01
  -7.561477e+00   1.116324e+02
  -6.222271e+01   5.873996e+01
  -1.101675e+02  -5.075832e+01
  -1.348094e+01  -1.015139e+02
   3.424221e+01  -6.154369e+01
   7.238051e+01   5.125989e+00
   3.193128e+01   5.639423e+01
  -2.337994e+01   7.904677e+01
  -3.198312e+01   3.235156e+01
   2.398599e+01  -6.624212e+00
   4.465089e+01  -3.354952e+01
   4.849926e+00   2.549424e+01
  -8.879075e+01   9.314188e+01
  -1.290539e+02   5.996557e+01
  -8.870291e+01  -2.166981e+01
   4.222470e+01  -8.735845e+01
   5.086820e+01  -5.548793e+01
   4.515123e+01  -1.214566e+00
   1.558427e+01   5.937666e+01
  -3.442806e+01   6.330037e+01
  -2.991306e+01  -1.930052e+01
  -1.559139e+01  -7.881498e+01
   1.357317e+01  -5.737727e+01
   2.412204e+01  -1.399502e+01
   4.622356e+01   1.276371e+01
   4.716169e+01   6.381432e+00
  -2.769676e+01  -2.901744e+01
   6.243042e+00  -3.074783e+00
   2.990141e+01   5.010983e+01
  -2.002794e+01   4.584684e+01
  -3.120161e+01   5.626028e+01
  -5.169989e+01  -5.539342e+01
  -3.706187e+01  -4.978449e+01
   2.568174e+01  -4.988451e+01
   6.766361e+01   2.222177e+01
   1.718090e+01   4.284764e+01
  -5.337990e+01   4.286802e+01
  -7.078536e+01   8.901566e+00
  -3.544630e+01  -1.440117e+01
   2.530265e+01  -3.463373e+01
   5.937641e+01  -1.060650e+01
   1.068238e+01  -1.079226e+01
  -3.189333e+01   2.673249e+01
  -4.194845e+01  -1.545045e+01
   2.316154e+01  -3.996346e+01
   8.572593e+01  -1.636637e+01
