
 $NMID
 id='ANONYMOUS ', fmtdat='(2E16.6)'
 volume=1.0
 tramp=1.0
 $END
   2.385647e+03   1.206821e+02
   1.181619e+03   1.679570e+03
  -7.229922e+02   1.810683e+03
  -1.238594e+03   4.873242e+02
  -5.846364e+02  -3.559190e+02
   4.184247e+02  -3.387658e+02
   5.044377e+02   3.281142e+02
   2.982800e+01   6.034462e+02
  -5.749951e+02   4.330815e+02
  -6.057409e+02  -1.921941e+02
  -2.376927e+02  -6.282178e+02
   2.257213e+02  -5.712000e+02
   4.252672e+02  -2.516719e+00
   1.356751e+02   4.808907e+02
  -2.661584e+02   4.914150e+02
  -4.354056e+02  -1.270819e+02
  -1.069894e+02  -5.183814e+02
   2.887142e+02  -4.067461e+02
   4.112861e+02   1.149731e+01
   2.452657e+02   3.275479e+02
  -7.726480e+01   3.433783e+02
  -2.298758e+02   9.693047e+01
  -1.069100e+02  -3.447323e+01
   1.799081e+02  -1.940732e+00
   2.948330e+02   1.333565e+02
   2.923871e+01   3.248400e+02
  -3.613873e+02   2.271550e+02
  -5.683601e+02  -1.848559e+02
  -1.823613e+02  -4.070426e+02
   3.269644e+02  -2.268798e+02
   4.718307e+02   9.104533e+01
   1.677972e+02   4.027360e+02
  -2.774655e+02   3.250350e+02
  -3.866160e+02   4.388046e+00
  -2.232469e+02  -1.690122e+02
   3.199654e+01  -2.640331e+02
   1.741258e+02  -1.220166e+02
   4.442191e+01   1.851457e+02
  -1.455967e+02   2.177572e+02
  -3.058762e+02  -6.458703e+01
  -6.504881e+01  -4.948665e+02
   2.456407e+02  -4.370212e+02
   3.244260e+02   9.292940e+01
   4.340016e+01   3.823710e+02
  -1.617069e+02   1.493689e+02
  -2.526391e+02  -2.005521e+02
   7.800768e+01  -3.627664e+02
   3.733748e+02  -1.145529e+01
   3.453976e+02   3.773727e+02
   3.333656e+01   4.540729e+02
  -2.823984e+02   1.721471e+02
  -4.327508e+02  -1.162052e+02
  -1.969127e+02  -2.947731e+02
   1.431519e+02  -2.056109e+02
   2.820692e+02  -1.144977e+01
   1.326913e+02   1.895865e+02
  -4.032985e+01   7.513956e+01
  -1.137383e+02  -8.046125e+01
   9.037352e+01  -1.157872e+02
   2.042566e+02   6.131580e+01
   1.097613e+02   1.909221e+02
  -1.685144e+02   1.708409e+02
  -2.581190e+02   4.976428e+00
  -1.213946e+02  -1.182576e+02
   7.379418e+01  -1.960794e+02
   2.169016e+02  -1.678644e+02
   2.382459e+02  -6.356438e+01
   1.602476e+02   1.413767e+02
   1.324562e+01   2.765075e+02
  -7.006855e+01   2.127909e+02
  -1.204284e+02   6.592940e+01
   1.721542e+01   5.298460e+00
  -4.090355e+01   6.639255e+01
  -1.555325e+02   8.549957e+01
  -1.886789e+02  -7.992528e+01
  -7.902375e+01  -1.899877e+02
   7.725880e+01  -1.526835e+02
   1.589733e+02   2.235160e+01
   8.887053e+01   1.793460e+02
  -3.548949e+01   1.473409e+02
  -2.001592e+02   5.825269e+01
  -2.228596e+02  -1.472578e+02
  -9.950173e+01  -2.523511e+02
   9.790496e+01  -2.162893e+02
   1.669720e+02  -7.284158e+01
   5.714173e+01  -1.253224e+01
   7.275231e+01  -4.520655e+01
   1.451087e+02  -5.136421e+01
   2.942771e+02   6.898010e+01
   2.021468e+02   2.173372e+02
  -3.353457e+01   3.055381e+02
  -3.164925e+02   2.485292e+02
  -3.212275e+02   8.951142e+01
  -1.620262e+02  -1.367281e+02
   3.663046e+01  -1.822510e+02
   1.174282e+02  -1.723299e+02
   3.379003e+01  -3.215336e+00
  -5.340138e+01   7.012302e+01
  -1.108137e+02   6.554309e+00
  -1.499899e+01  -1.316818e+02
   9.873058e+01  -7.711865e+01
   1.161427e+02   3.684753e+01
  -3.263237e+01   1.117719e+02
  -1.197142e+02   7.091618e+00
  -1.214487e+02  -1.849489e+02
   1.841378e-01  -2.393503e+02
   1.866089e+02  -1.054923e+02
   1.934303e+02   8.649337e+01
   1.356529e+02   2.072249e+02
  -9.050976e-02   2.040149e+02
  -8.731488e+01   1.004280e+02
  -1.046555e+02  -5.766382e+00
  -1.507626e+01  -2.813111e+01
   7.921040e+01   5.002428e+01
   2.208534e+01   9.140699e+01
  -8.517602e+01   5.691356e+01
  -8.676961e+01  -2.070800e+01
  -1.960549e+01  -5.760704e+01
   5.303396e+01  -3.162198e+00
   3.234245e+01   6.823675e+01
  -1.003360e+02   4.313282e+01
  -1.914708e+02  -1.873685e+01
  -1.315941e+02  -1.509772e+02
   1.505328e+01  -2.033426e+02
   1.405902e+02  -1.574719e+02
   1.809853e+02  -4.519180e+01
   1.096962e+02   5.219173e+01
  -4.512487e+01   5.201516e+01
  -8.510911e+01  -3.755397e+00
   3.514812e+01  -9.453558e+01
   1.373801e+02   1.814351e+01
   1.362641e+02   7.858403e+01
   5.757154e+01   1.458602e+02
  -9.274671e+01   9.096044e+01
  -1.029318e+02   6.672425e+00
  -3.853207e+01  -4.163243e+00
   1.997990e+01   9.875936e+00
   9.839387e+00   7.106349e+01
  -6.325318e+01   8.771311e+01
  -1.528391e+02  -5.360994e+00
  -1.343392e+02  -1.052312e+02
   2.858299e+01  -1.628296e+02
   1.229725e+02  -9.529175e+01
   1.320871e+02   2.596456e+01
   1.727867e-01   9.137841e+01
  -6.844490e+01   3.836392e+01
  -6.794453e+01   1.506737e+01
   3.269549e+00  -6.617673e+00
   4.247847e+00  -2.580705e+01
   1.265468e+01   2.969151e+01
  -6.060545e+01   5.587243e-01
  -6.626108e+01  -5.670762e+01
  -1.402928e+01  -1.054654e+02
   7.791716e+01  -6.033953e+01
   1.575439e+02  -4.155349e+00
   9.301812e+01   1.495784e+02
   1.632255e+01   1.304910e+02
  -8.912161e+01   8.605061e+01
  -8.189007e+01  -2.726325e+01
  -1.358958e+01  -6.541291e+01
  -1.833019e+01   2.853337e+00
  -3.328570e+01   1.441922e+01
  -3.903162e+01  -3.968350e+00
  -2.214540e+01  -3.208933e+01
   4.277552e+01  -1.005818e+02
   8.512177e+01  -1.576454e+01
   8.214252e+01   6.924193e+01
  -4.261458e+01   8.568227e+01
  -1.252329e+02   5.990324e+00
  -1.248828e+02  -2.884147e+01
  -3.236269e+01  -1.589047e+02
   1.155953e+02  -1.349506e+02
   1.631481e+02  -5.468063e+01
   1.250291e+02   8.423082e+01
   4.405739e+01   1.349278e+02
  -5.525482e+01   7.134425e+01
  -5.737079e+01   5.433905e+01
  -4.792751e+01   5.369368e+01
  -7.921314e+01   5.388261e+01
  -7.585459e+01   2.591629e+01
  -5.923309e+01  -1.783981e+01
  -6.753957e+01  -9.549126e+01
  -1.335561e+01  -1.450462e+02
   9.226125e+01  -8.811366e+01
   1.219356e+02   3.575806e+01
   7.611910e+01   8.758667e+01
  -2.150542e+01   8.783323e+01
  -4.643253e+01   1.910160e+01
  -2.015149e+01  -5.755445e+01
   2.564428e+00  -6.925451e+00
  -1.007487e+01  -1.145405e+01
  -4.439948e+01   3.572092e+00
  -6.518215e+01  -1.828014e+01
   2.456342e+00  -2.179966e+00
   5.383749e+01  -2.252950e+01
   1.164513e+02   6.992746e+00
   1.119361e+02   1.051470e+01
  -1.559753e+01   6.265657e+01
  -7.424572e+01   5.427848e+01
  -1.039674e+02   4.161240e+00
  -2.438718e+01  -3.797286e+01
   3.093013e+01  -2.564926e+01
   3.351174e+01   3.374591e+01
  -5.063694e+00   2.805662e+01
  -9.122993e-01   4.734585e+01
  -5.193238e+01   8.688191e+00
  -3.019307e+01  -4.116216e+01
  -2.706545e+01   3.654260e+00
  -4.771537e+01   3.372226e+01
  -3.552216e+01   1.550823e+01
  -1.425698e+01  -3.274744e+01
   3.469597e+01  -6.961452e+01
   6.412420e+01  -7.803482e+01
   1.160763e+02  -4.702298e+00
   7.124625e+01   7.810325e+01
   2.023571e+01   8.800704e+01
  -6.573116e+01   6.112002e+01
  -4.451892e+01  -1.836940e+01
   5.163261e+01  -2.470310e+01
   1.127157e+02   4.250924e+01
   5.614431e+01   3.777553e+01
  -4.289668e+01   4.099221e+01
  -1.239176e+02   1.094529e+01
  -8.334070e+01  -4.560738e+01
  -3.886193e+01  -4.104632e+01
   2.361180e+01  -3.464663e+01
   4.770945e+01   3.250011e+00
  -2.484332e+01  -4.820112e+00
  -1.397872e+01  -4.509658e+01
  -4.657033e+01  -7.789034e+01
   7.384151e+01  -9.836000e+01
   1.350166e+02  -1.019457e+01
   1.095885e+02   9.168713e+01
  -1.466185e+01   1.335119e+02
  -8.230282e+01   8.396825e+01
  -7.987442e+01  -2.130200e+01
  -1.905158e+01  -5.891774e+01
   5.082783e+00  -4.968770e+01
   4.675250e+01  -1.088383e+01
   5.029241e+01   1.806834e+01
   2.043247e+00   3.371881e+00
   1.924037e+00   1.019604e+01
   1.629655e+01   1.606423e+01
   3.535852e+01   9.264246e+01
   3.075273e+01   9.288914e+01
  -4.772991e+01   3.834173e+01
  -1.148333e+02  -4.020788e+00
  -5.892951e+01  -6.876944e+01
   6.840887e+00  -2.879044e+01
   8.366550e+01  -1.143245e+01
   2.832249e+01   4.849527e+00
   1.010042e+00   3.735336e+01
  -4.180562e+01   2.123415e+01
  -3.422215e+01   2.863099e+01
   1.426469e+01  -2.473752e+00
   1.194793e+01  -1.815455e+01
  -1.250486e+01  -4.917208e+00
  -7.867322e+01  -3.086762e+01
  -2.369440e+01  -5.567527e+01
   4.266516e+01  -7.077855e+01
   1.047603e+02  -3.413840e+01
   9.690607e+01   5.517623e+01
   8.115735e+00   1.149261e+02
  -5.113938e+01   9.913838e+01
  -6.795963e+01   3.084685e+01
  -3.842524e+01  -2.840981e+01
  -7.227929e+00  -1.573608e+01
   3.758590e+00  -2.837474e+01
  -3.094855e+01   5.327781e+00
  -2.744576e+01  -3.234969e+01
   8.046899e+00  -7.856915e+01
   4.105335e+01  -2.974851e+01
   5.094365e+01   3.373752e+01
   1.530612e+01   7.630965e+01
   1.528174e+00   7.018249e+01
  -8.069736e+01  -2.701040e+01
  -6.535885e+01  -4.186991e+01
   1.700169e+01  -5.699939e+01
   3.118524e+01  -2.680159e+01
   6.781146e+01   7.547530e+00
   1.044992e+01   3.257220e+01
  -4.640259e+01   5.956877e+01
  -1.360426e+01   6.971941e+00
   3.057908e+01   6.512303e+00
   5.302880e+01  -1.475413e+00
   2.841966e+00   1.556597e+01
  -7.698419e+01   3.369165e+01
  -7.921033e+01   1.374136e+01
  -4.470969e+01  -2.431308e+01
   1.732905e+01  -3.124107e+01
   4.938861e+01  -4.836988e+01
   1.101760e+01  -9.723526e+00
   5.482755e+00   1.514008e+01
  -1.510791e+01  -1.278522e+00
  -3.922190e+01   2.838169e+00
  -1.842036e+01  -8.181852e+00
   2.808261e+00  -3.218184e+01
   1.398637e+01   2.764547e+01
   3.389990e+01   1.034513e+01
   4.840334e+01  -5.154718e+00
  -1.427583e+01  -1.464666e+01
  -7.160275e+00  -2.561429e+01
  -9.444805e+00   3.109422e+01
  -3.408813e+01   3.477191e+01
  -9.556117e+00  -3.216062e+01
  -9.704674e+00  -3.297716e+01
   3.011605e+01  -5.835061e+01
   2.801780e+01   1.687641e+01
   3.079106e+01   2.841140e+01
   8.427931e+00   3.189334e+01
  -4.060463e+01   4.952223e+00
  -4.567230e+01  -1.280200e+01
  -2.272881e+01  -2.628137e+01
   1.089260e+01  -2.325516e+01
   4.500431e+01   9.504927e+00
   1.875794e+01   1.374304e+00
   1.329035e+01   1.042579e+01
  -3.443185e+01  -2.354416e+01
   1.636880e+01  -4.116921e+01
   5.426377e+01  -3.507507e+00
