
 $NMID
 id='ANONYMOUS ', fmtdat='(2E16.6)'
 volume=1.0
 tramp=1.0
 $END
  -2.552241e+03  -2.795188e+02
  -8.896416e+02  -1.636676e+03
   8.483457e+02  -1.684763e+03
   1.319011e+03  -3.871595e+02
   4.546878e+02   5.492353e+02
  -4.535784e+02   2.582399e+02
  -4.771961e+02  -3.033368e+02
   7.393798e+01  -7.729808e+02
   5.841962e+02  -4.174532e+02
   5.115085e+02   2.118888e+02
   1.924949e+02   5.226338e+02
  -2.888674e+02   4.351040e+02
  -3.620907e+02  -5.025600e+01
  -1.038966e+02  -4.512198e+02
   2.673683e+02  -3.725826e+02
   3.610787e+02   1.424825e+02
   2.477997e+00   4.672781e+02
  -2.791245e+02   2.584217e+02
  -3.688021e+02  -1.089148e+02
  -1.734074e+02  -2.772154e+02
   9.671042e+01  -2.344730e+02
   1.826301e+02  -6.392448e+01
   6.504641e+01   1.597878e+01
  -1.267391e+02  -1.847164e+01
  -1.887428e+02  -1.432948e+02
  -1.788865e+01  -2.929844e+02
   3.387906e+02  -1.646235e+02
   4.552820e+02   2.062403e+02
   1.171268e+02   3.779059e+02
  -3.274693e+02   2.121816e+02
  -4.768725e+02  -1.163383e+02
  -8.008741e+01  -3.346413e+02
   2.500408e+02  -3.044957e+02
   3.679027e+02  -3.381532e+01
   2.159557e+02   1.753557e+02
  -4.151340e+01   2.467211e+02
  -1.631762e+02   1.448067e+02
  -3.237997e+01  -1.474366e+02
   1.674079e+02  -2.486455e+02
   2.787794e+02   4.300629e+01
   6.227276e+01   3.645778e+02
  -2.396414e+02   3.717074e+02
  -3.291495e+02  -8.420983e+01
  -2.961531e+01  -3.484177e+02
   1.998966e+02  -7.989591e+01
   1.841773e+02   2.842654e+02
  -1.201787e+02   3.212053e+02
  -3.656445e+02  -1.830228e+01
  -3.130547e+02  -4.094000e+02
   3.876169e+01  -4.432565e+02
   2.922840e+02  -1.512088e+02
   3.414873e+02   1.710002e+02
   1.471338e+02   2.669346e+02
  -1.636104e+02   1.707031e+02
  -2.577990e+02  -3.638573e+01
  -6.499195e+01  -1.482859e+02
   8.200300e+01  -5.178430e+01
   6.067845e+01   9.437158e+01
  -1.123473e+02   1.039747e+02
  -1.955198e+02  -9.361172e+01
  -9.157911e+01  -2.137928e+02
   1.740041e+02  -1.514202e+02
   2.180815e+02  -9.049957e+00
   8.843168e+01   1.511195e+02
  -8.424793e+01   1.257149e+02
  -1.715144e+02   1.497114e+02
  -1.692974e+02   4.756864e+01
  -1.478944e+02  -1.100734e+02
   2.892491e+01  -2.406249e+02
   5.943197e+01  -2.084882e+02
   4.516212e+01  -8.034921e+01
   2.575731e+01  -1.966354e+01
   5.163238e+01  -6.436380e+01
   1.178161e+02  -3.622849e+01
   1.477349e+02   6.497940e+01
   4.360908e+01   1.843631e+02
  -4.947211e+01   1.049692e+02
  -1.387877e+02  -5.372925e+01
  -3.316292e+01  -1.621491e+02
   4.414247e+01  -1.204365e+02
   1.811371e+02  -3.141291e+01
   1.884617e+02   7.656228e+01
   7.234807e+01   1.774928e+02
  -5.941837e+01   1.890772e+02
  -1.573637e+02   4.385836e+01
  -6.876701e+01  -6.401492e+00
  -4.044371e+01   1.792587e+01
  -1.128494e+02   3.370474e+01
  -1.822146e+02  -8.915068e+01
  -1.373580e+02  -2.001627e+02
   3.771615e+01  -2.214908e+02
   2.824517e+02  -2.043798e+02
   2.754073e+02  -2.518352e+01
   1.612752e+02   1.109328e+02
  -4.545224e+01   1.584437e+02
  -8.627064e+01   1.120818e+02
  -2.056905e+01  -1.600087e+01
   7.999656e+01  -6.958378e+01
   1.458162e+02   5.338774e+00
   2.192545e+01   1.228169e+02
  -1.047492e+02   8.386581e+01
  -8.735819e+01  -6.042100e+01
   2.888954e+01  -1.218665e+02
   8.008559e+01  -1.149239e+01
   7.802163e+01   1.647567e+02
  -3.946467e+01   2.004747e+02
  -1.364002e+02   7.085592e+01
  -1.788721e+02  -1.068161e+02
  -9.493769e+01  -1.613555e+02
   2.054936e+00  -1.785360e+02
   5.665045e+01  -5.602367e+01
   8.144917e+01   1.276930e+01
   1.129319e+01   1.246945e+01
  -5.513810e+01  -5.592653e+01
  -1.217116e+01  -7.367877e+01
   6.049041e+01  -3.881224e+01
   1.099813e+02   8.108637e+00
  -2.371604e+00   5.461598e+01
  -7.310875e+01   6.850660e-01
   2.049367e+01  -2.753220e+01
   1.010960e+02  -1.901339e+01
   1.806231e+02   2.875211e+01
   1.200388e+02   8.477752e+01
   1.346971e+01   1.282449e+02
  -1.061656e+02   1.106667e+02
  -1.815058e+02   3.618928e+01
  -9.813962e+01  -4.310709e+01
  -8.402128e+00  -6.143813e+01
   4.811904e+01  -6.466770e+00
  -1.949082e+01   3.817396e+01
  -1.016321e+02   2.417617e+01
  -1.290485e+02  -7.872661e+01
  -3.139311e+01  -1.370161e+02
   8.368199e+01  -1.010141e+02
   1.019981e+02  -2.499795e+01
   6.347851e+01   9.894627e+00
  -5.002096e+00   4.195386e+00
   3.918745e+00  -5.468519e+01
   8.040679e+01  -2.792999e+01
   1.136132e+02   3.432636e+01
   7.496714e+01   7.920993e+01
  -2.141194e+01   1.365667e+02
  -1.181404e+02   5.857979e+01
  -1.084159e+02  -2.483584e+01
  -2.246391e+01  -5.965835e+01
   6.652331e+01  -4.556632e+01
   4.571369e+01  -3.038203e+01
  -1.840138e+01   4.905785e+00
  -4.584062e+00   1.799349e+00
   4.153802e-01   1.441421e+01
   6.053360e+01   4.746932e+01
   5.640982e+01   4.386262e+01
  -4.433801e+00   9.338972e+01
  -7.364138e+01   5.126754e+01
  -1.485453e+02  -2.469154e+01
  -7.812558e+01  -1.107996e+02
  -8.871545e+00  -1.231365e+02
   9.485776e+01  -8.305603e+01
   6.228536e+01  -1.245068e+01
   2.410330e+01   5.466432e+01
   1.809003e+01  -1.762462e+00
   2.727365e+01   1.294894e+01
   4.919993e+01   4.159211e+01
   2.882198e+01   7.026791e+01
  -2.611845e+01   7.359391e+01
  -7.335353e+01   6.242847e+00
  -1.701176e+01  -4.461185e+01
   4.277854e+01  -5.258153e+01
   8.171332e+01  -2.178650e+01
   5.483217e+01   3.389036e+01
   1.890809e+01   1.047921e+02
  -4.153374e+01   1.077473e+02
  -1.265961e+02   4.012910e+01
  -1.000809e+02  -4.346866e+01
  -3.687373e+01  -1.080009e+02
   1.071686e+01  -8.944891e+01
   5.888234e+01  -3.915719e+01
   6.914429e+01  -3.486950e+01
   9.092597e+01  -4.494432e+01
   5.104392e+01  -2.644040e+01
   4.344569e+01   2.315077e+01
   3.503742e+01   9.195661e+01
   1.099227e+01   1.178719e+02
  -8.961928e+01   7.921388e+01
  -9.203344e+01  -1.702385e+01
  -5.484061e+01  -5.214192e+01
   1.261994e+01  -4.571773e+01
   4.320763e+01  -3.336754e+01
   1.371231e+01   2.141043e-01
  -7.661465e+00   4.224335e+01
   6.268595e+00   5.241869e+01
   1.816754e+01  -3.709595e+00
   3.229470e+01   2.364724e+01
   1.703892e+01   2.469125e+01
  -4.891640e+01   4.906826e+00
  -9.733802e+01   5.374762e+00
  -7.905791e+01  -3.353513e+01
   1.286718e+01  -2.950113e+01
   6.503184e+01  -4.591599e+01
   4.696868e+01   4.084294e+00
  -2.469232e+01   1.658859e+01
  -3.304236e+01   2.126359e+01
  -2.305218e+01  -1.881727e+01
  -1.545623e+00  -4.325347e+01
   1.257917e+01  -1.694169e+01
   3.061620e+01   5.311577e+00
   3.790273e+01   3.675641e+01
   3.185904e+01   3.928722e+01
   2.320327e+01   3.381439e+00
   5.226235e+01  -1.198979e+01
  -2.231809e-01   6.218260e+01
  -3.829490e+01   7.527824e+01
  -7.138093e+01   7.621723e+01
  -8.673915e+01   4.652634e+00
  -4.885960e+01  -8.525581e+01
  -4.203780e+00  -7.100753e+01
   5.331761e+01  -2.718621e+01
   2.769848e+01   9.947693e+00
  -1.130822e+01  -1.629419e+00
  -5.937402e+01  -6.712564e+01
  -6.762987e+01  -3.360085e+01
   4.918195e+01  -5.879627e+01
   1.132348e+02  -4.887361e+01
   7.014402e+01   4.214291e+01
  -6.096842e+00   4.611099e+01
   6.359629e-01   3.755146e+01
  -2.511503e+00   2.545700e-01
   4.358935e+00   5.833378e+00
   1.268433e+01   3.684676e+01
   3.462498e+01   6.383543e+01
  -4.654166e+01   9.318074e+01
  -1.112504e+02   3.273933e+01
  -7.348925e+01  -8.516309e+01
   1.717051e+01  -1.215296e+02
   8.773470e+01  -6.240186e+01
   5.887708e+01   3.315106e+01
  -2.825090e+00   7.258212e+01
  -2.938898e+01   6.248084e+01
  -6.765923e+01  -1.002127e+01
  -5.550634e+01  -3.371688e+01
  -1.894073e+01  -1.871036e+01
  -4.457425e+00   7.935574e+00
  -4.031193e-01  -1.953940e+01
  -2.953654e+01  -4.128314e+01
  -3.462834e+01  -5.541599e+01
   4.689687e+01  -2.526224e+01
   7.462749e+01   2.179271e+01
   4.603674e+01   6.295936e+01
  -1.135604e+01   3.421946e+01
  -6.828201e+01   2.046219e+01
  -3.867909e+01   5.391368e+00
  -2.718050e+01  -2.277227e+01
   4.314686e+01  -6.172829e+01
   1.190976e+01  -2.472739e+01
  -1.280184e+01  -5.569635e+00
  -1.328721e+01   1.157698e+01
  -1.607018e+00   6.358570e+00
   5.885019e+01   3.107795e+01
  -1.236385e+01   4.166030e+01
  -5.126988e+01   6.287180e+01
  -1.023562e+02   3.564127e+00
  -7.138352e+01  -3.992454e+01
  -7.735563e+00  -9.909769e+01
   5.129757e+01  -5.182785e+01
   7.639774e+01  -4.371185e+01
   3.931266e+01   4.138179e+01
   9.603168e+00   5.049328e+01
  -1.014155e+00   2.008185e+01
   1.160020e+01   6.493094e+00
   4.064935e+01   2.375003e+01
   8.238505e+00   7.563940e+01
  -3.579076e+00   5.179360e+01
  -5.109045e+01  -6.640336e-01
  -1.877143e+01  -8.160123e+01
   1.406669e+01  -4.157358e+01
   4.440137e+01   1.243911e+00
   5.133579e+01   6.275989e+01
  -1.309529e+01   4.449816e+01
  -2.865746e+01  -9.552581e+00
  -7.493323e+01  -4.467835e+01
  -2.330646e+01  -1.775074e+01
   3.538938e+01  -1.834779e+01
   1.917113e+01   6.316662e+00
  -4.310122e+01   1.938483e+01
  -4.458130e+01   6.030702e+00
  -8.674559e+00  -3.401549e+01
   7.119753e+01  -3.514730e+01
   6.044453e+01  -2.336550e+01
   5.513327e+01   1.510059e+01
  -3.760000e+01   4.271458e+01
  -2.993789e+01   2.298132e+01
  -1.808895e+01   1.402164e+01
   6.812543e+00  -5.042715e+01
   1.483837e+00  -2.717770e+01
   2.557699e+01  -1.005940e+01
  -1.423368e+00   1.326856e+01
   3.620221e+00  -1.032230e+00
  -1.509421e+01  -2.714541e+01
  -2.823573e+01  -5.034730e+01
  -1.761631e+01  -2.842366e+00
  -9.147928e+00   2.562284e+01
   2.712727e+01   5.155623e-01
   1.931911e+01  -1.924254e+01
   1.463798e+01  -2.240160e+01
   2.477181e+01  -5.443749e+00
  -8.423250e+00   1.083600e+01
  -1.097249e+01   4.453218e+00
  -2.145942e+00   2.296847e+01
  -5.485409e+00  -2.480677e+01
  -2.447658e+00  -2.982280e+01
   1.888752e+01  -9.444373e+00
   6.421607e+01   1.226416e+01
   3.329214e+01   4.447618e+01
   2.566729e-01  -4.691353e+00
  -6.296028e+01   6.578040e+00
   6.531944e+00   8.653838e+00
   9.892569e+00   2.422281e+01
   8.007531e+00   5.046497e+00
  -2.630804e+01   2.469259e+01
  -4.983638e+01  -2.396365e+01
