
 $NMID
 id='ANONYMOUS ', fmtdat='(2E16.6)'
 volume=1.0
 tramp=1.0
 $END
   2.604961e+03   3.979597e+02
   1.227369e+03   1.847777e+03
  -7.445876e+02   1.574833e+03
  -1.483013e+03   3.343464e+02
  -4.582463e+02  -4.000614e+02
   4.377062e+02  -2.210937e+02
   4.572262e+02   3.991239e+02
  -1.501896e+02   6.620932e+02
  -6.302966e+02   3.808157e+02
  -4.980246e+02  -2.237624e+02
  -1.308732e+02  -5.280721e+02
   2.416008e+02  -3.934474e+02
   2.766920e+02   5.534911e+01
   5.797252e+01   4.220512e+02
  -2.398293e+02   2.999670e+02
  -2.699461e+02  -1.049962e+02
  -3.297498e+01  -4.150332e+02
   2.466634e+02  -3.100145e+02
   3.014986e+02   5.332906e+01
   1.303821e+02   2.058391e+02
  -2.446242e+01   1.820477e+02
  -1.161071e+02   8.016679e+01
  -5.382809e+01   5.376859e+01
   5.343664e+01   4.683007e+01
   1.541041e+02   1.552408e+02
   2.052171e+01   2.147670e+02
  -3.178294e+02   1.293967e+02
  -4.454070e+02  -1.693743e+02
  -1.268252e+02  -3.130477e+02
   3.112741e+02  -1.613240e+02
   3.675006e+02   9.940467e+01
   7.063290e+01   2.615268e+02
  -2.206602e+02   2.655660e+02
  -2.879783e+02   2.566157e+01
  -1.937136e+02  -1.095822e+02
  -1.135059e+01  -2.341562e+02
   5.724474e+01  -1.171881e+02
   1.505139e+01   8.289033e+01
  -1.112980e+02   2.222903e+02
  -2.162869e+02  -2.383412e+01
  -1.066257e+02  -3.623070e+02
   2.092924e+02  -3.727809e+02
   3.114590e+02   4.203854e+01
   6.330537e+01   3.699917e+02
  -1.481495e+02   1.239373e+02
  -1.954583e+02  -2.626695e+02
   1.294226e+02  -3.042560e+02
   3.478368e+02   3.797091e+01
   2.625813e+02   3.769353e+02
  -4.639246e+01   3.570507e+02
  -2.711884e+02   1.389542e+02
  -3.376500e+02  -1.614245e+02
  -1.629448e+02  -2.800458e+02
   1.027760e+02  -2.250450e+02
   2.307314e+02   2.606061e+00
   1.530024e+02   1.323399e+02
  -4.055771e+01   4.816299e+01
  -5.705122e+01  -1.038096e+02
   1.444873e+02  -9.171506e+01
   2.189528e+02   1.138251e+02
   7.418935e+01   2.340922e+02
  -1.914999e+02   1.058317e+02
  -1.984801e+02  -4.022068e+01
  -8.113323e+01  -1.201377e+02
   6.920633e+01  -1.078987e+02
   1.570741e+02  -1.455538e+02
   1.088636e+02  -7.057139e+01
   8.477839e+01   1.271334e+02
   2.987192e+01   1.928533e+02
  -6.272453e+01   1.996975e+02
  -6.833707e+01   1.008693e+02
  -2.649129e+01   3.044105e+01
  -3.619268e+01   7.682347e+01
  -1.051672e+02   5.797833e+01
  -1.487889e+02  -6.204734e+01
  -4.698284e+01  -1.740129e+02
   8.136797e+01  -1.315273e+02
   1.132382e+02   4.520884e+01
   5.314238e+01   1.337886e+02
  -2.401719e+01   1.437835e+02
  -1.385306e+02   2.129637e+01
  -1.977798e+02  -1.032909e+02
  -1.241118e+02  -1.863146e+02
   6.675206e+01  -1.769623e+02
   1.353487e+02  -4.954798e+01
   1.236898e+02  -2.588153e+01
   5.313383e+01   4.156487e+00
   1.268102e+02   3.941896e+00
   1.833263e+02   9.306360e+01
   1.589206e+02   2.121822e+02
  -4.517994e+01   2.368882e+02
  -2.313525e+02   1.828202e+02
  -2.664724e+02   9.047516e+01
  -1.861216e+02  -8.098900e+01
   8.551630e+00  -1.554833e+02
   8.669252e+01  -1.434495e+02
   2.103296e+01  -3.540600e+01
  -7.901195e+01   5.927303e+01
  -8.854395e+01  -3.868476e+01
  -1.795739e+01  -1.068343e+02
   7.902729e+01  -9.188425e+01
   9.365980e+01   4.227212e+01
  -3.733058e+01   1.008659e+02
  -1.103840e+02  -2.231591e+00
  -7.350540e+01  -1.843416e+02
   7.265471e+01  -1.841491e+02
   1.187150e+02  -6.878965e+01
   1.435524e+02   6.644620e+01
   1.391620e+02   1.399523e+02
   4.142276e+01   1.822306e+02
  -5.777473e+01   7.844184e+01
  -8.224241e+01   2.178533e+00
  -1.273975e+01   1.109186e+01
   4.178542e+01   3.231682e+01
  -9.843677e+00   9.084044e+01
  -5.703563e+01   2.194714e+01
  -9.330682e+01  -2.070707e+01
   4.209015e+00  -3.265512e+01
   6.968616e+01   3.830682e+01
  -1.116344e+01   4.767913e+01
  -8.822689e+01   2.084582e+01
  -1.847496e+02  -5.127875e+01
  -1.091622e+02  -1.268078e+02
   2.087165e+01  -1.378249e+02
   1.544924e+02  -1.151759e+02
   1.347127e+02  -7.554129e+00
   5.191589e+01   2.993773e+01
  -1.997377e+01   6.769608e+01
  -2.741809e+01  -1.168092e+01
   5.886622e+01  -5.623679e+01
   1.347533e+02   5.014117e+00
   8.757245e+01   1.016829e+02
  -6.836793e+00   1.248745e+02
  -6.074149e+01   8.241250e+01
  -6.743875e+01  -4.531639e+00
  -4.238931e+01  -3.688085e+00
   1.180383e+01   4.920212e+00
   2.426151e+01   5.760017e+01
  -7.861396e+01   5.472641e+01
  -1.169021e+02  -1.674300e+01
  -8.082241e+01  -1.005501e+02
   2.875723e+00  -1.332013e+02
   1.204484e+02  -3.636029e+01
   1.063190e+02   1.771713e+01
   2.716647e+01   5.858326e+01
  -3.915185e+01   2.999901e+01
  -3.411456e+01   1.212652e+01
   2.470810e+01   1.982658e+00
  -1.652289e+00  -4.076266e+01
  -4.369300e+01  -3.148866e+00
  -3.820192e+01  -8.072028e+01
  -3.485084e+01  -3.257166e+01
   2.672522e+01  -9.024446e+01
   9.592836e+01  -7.576024e+01
   1.245079e+02   1.789475e+01
   9.837051e+01   8.475802e+01
   1.727035e+01   1.331026e+02
  -8.593097e+01   1.058165e+02
  -8.210041e+01  -7.872476e+00
  -6.160556e+01  -3.957813e+01
  -1.455801e+01  -3.163338e+01
  -3.268362e+01  -1.004345e+01
  -5.357277e+01  -1.904101e+01
   2.256892e+01  -3.584943e+01
   3.101934e+01  -4.645175e+01
   4.459534e+01  -2.775103e+01
   2.314113e+01   3.621266e+01
  -1.813013e+01   5.317314e+01
  -1.016653e+02   1.576570e+01
  -8.724300e+01  -5.068621e+01
  -6.832740e+01  -1.174603e+02
   6.699601e+01  -1.372107e+02
   1.642523e+02  -6.980415e+01
   1.243823e+02   8.532751e+01
   6.450173e+01   8.455745e+01
  -2.425090e+01   9.476906e+01
  -6.053899e+01   5.426387e+01
  -6.631934e+01   4.818736e+01
  -6.479795e+01   5.520344e+01
  -5.337595e+01   7.411961e+00
  -1.963720e+01  -4.291196e+01
  -4.891011e+01  -1.153192e+02
   9.073557e+00  -1.169280e+02
   9.884940e+01  -8.667780e+01
   9.846352e+01  -4.399235e+00
   7.278280e+01   1.045829e+02
  -5.349348e+00   6.914798e+01
  -5.645997e+01   4.158431e+01
  -4.334300e+01   1.239031e+01
  -3.682498e+01  -2.979071e+01
  -1.822471e+01  -3.624307e+01
  -4.365087e+01  -2.326302e+01
  -1.864139e+01   1.468233e+00
   1.264446e+01   2.664497e+00
   2.637164e+01   1.597367e+01
   8.787586e+01   2.224057e+01
   5.597574e+01   3.073596e+01
  -2.055031e+01   1.448490e+01
  -6.800620e+01   3.207470e+01
  -8.090472e+01   4.790258e+00
  -4.834403e+00   3.282822e+01
   1.807414e+01  -2.620332e+01
   4.249355e+01   2.928719e+01
   1.475083e+01   4.252961e+01
  -2.229793e+01   1.188159e+01
  -9.107345e+00  -1.336038e+01
   8.807839e+00  -4.744632e+01
  -2.605975e+01  -1.151214e+01
  -1.710866e+01   2.452848e+00
  -4.736272e+01   2.100620e+01
  -1.312605e+01  -6.189195e+01
   4.732394e+01  -9.526086e+01
   9.138885e+01  -7.651590e+01
   8.559666e+01  -7.698457e+00
   6.936067e+01   9.531911e+01
  -9.399683e+00   5.337985e+01
  -5.524696e+01   3.735621e+01
  -4.690104e+01  -2.274549e+01
   6.442154e+01   2.420856e+00
   8.044643e+01   7.129575e+01
   3.956179e+01   6.064699e+01
  -6.637002e+01   7.116967e+01
  -1.100614e+02   1.007959e+01
  -7.945072e+01  -2.773227e+01
  -3.668001e+01  -6.842940e+01
   1.763127e+01  -5.207175e+01
   1.936067e+01  -9.479404e+00
  -2.597488e+01  -3.217011e+01
  -2.925454e+01  -4.140794e+01
  -9.688299e+00  -9.347410e+01
   7.503555e+01  -7.291968e+01
   7.928440e+01  -1.174277e+01
   6.158883e+01   8.925705e+01
  -4.030653e+00   1.445488e+02
  -9.248530e+01   7.371827e+01
  -8.258390e+01  -1.583040e+01
   9.931517e-01  -6.889679e+01
  -3.231967e+00  -5.332481e+00
   1.988981e+01   5.178742e+00
   2.457334e+01   2.349034e+01
  -5.135089e+00   3.260521e+00
   3.752833e+01   1.078513e+01
   1.559815e+01   4.532137e+01
   4.448108e+01   9.526915e+01
  -1.341670e+01   6.925889e+01
  -4.220540e+01   2.568244e+01
  -3.445269e+01  -3.384622e+01
  -7.983993e+01  -7.455766e+01
  -4.527202e+00  -2.330372e+01
   5.607454e+01  -2.238633e+01
   2.453147e+01   9.751361e-02
  -1.582814e+00   1.350023e+01
  -2.965111e+01   9.429895e+00
  -5.894204e+00   5.952285e+01
   1.040494e+01   8.017914e+00
  -4.067108e+00   5.601081e+00
  -3.729144e+01  -2.352176e+01
  -3.891039e+01  -2.953906e+01
  -6.172361e+00  -3.391936e+01
   7.486319e+01  -7.542709e+01
   9.693651e+01  -6.604363e+00
   5.628948e+01   7.296827e+01
   1.614497e+01   1.006568e+02
  -6.565516e+01   8.755231e+01
  -9.784809e+01   2.323738e+01
  -3.963186e+01  -1.259647e+01
  -1.164048e+01  -1.341357e+01
   2.064870e+01  -3.723855e+00
  -2.170814e+01   3.711811e+00
  -2.966587e+01  -2.122910e+00
  -7.159978e+00  -4.984090e+01
   1.273650e+01  -3.918169e+01
   2.734118e+01   2.240520e+01
   9.159524e+00   7.211372e+01
  -1.517986e+01   6.994864e+01
  -3.478869e+01  -7.138404e+00
  -7.696509e+01  -4.684200e+01
   8.001482e+00  -3.644234e+01
   3.944824e+01  -1.681126e+01
   5.466691e+01   1.413335e+01
   3.000286e+01   6.173997e+00
  -2.665393e+01   3.704453e+01
  -4.588131e+01   1.049857e+01
   6.059927e+01   1.825512e+01
   3.719147e+01   1.081981e+01
   1.332352e+01   2.483528e+01
  -7.087703e+01   2.686476e+01
  -7.721323e+01   2.455920e+01
  -3.000315e+01  -1.874251e+01
  -9.070395e+00  -3.720298e+01
   5.303844e+01  -1.591367e+01
   4.248766e+01  -2.273765e+01
  -1.629418e+01   2.212793e+01
   3.594636e+00   4.400292e+01
  -1.782069e+01   1.864012e+00
  -1.568196e+01  -2.260399e+01
   1.333866e+00  -9.287899e+00
   1.994290e+01   1.184334e+01
   2.170084e+01   2.509314e+00
   6.177394e+00  -3.175972e+00
   1.972912e+01  -4.102552e+01
  -2.364599e+01  -1.264922e+01
  -1.837730e+01   2.323045e+01
  -8.654783e+00   2.229705e+01
  -1.638807e+01   8.227596e+00
  -1.353050e+00  -2.997125e+01
   6.033226e+00  -2.147207e+01
   3.042191e+01   4.340076e+00
  -4.024784e-01   4.676258e+01
  -8.811608e+00   3.755468e+01
  -3.108533e+01   2.465997e+01
  -4.238963e+01  -4.712644e+01
  -2.111581e+01  -2.195596e+01
   1.890854e+01   1.013962e+01
   4.749655e+01   9.433652e+00
   2.076066e-01   1.354656e+00
  -9.679451e+00  -3.210146e+01
   9.551988e+00  -4.684718e+01
   1.201636e+01  -9.748823e+00
   7.405348e+01  -1.057343e+01
