
 $NMID
 id='ANONYMOUS ', fmtdat='(2E16.6)'
 volume=1.0
 tramp=1.0
 $END
  -3.045941e+03  -1.981068e+02
  -2.061645e+03  -1.656855e+03
   1.206481e+02  -2.107920e+03
   1.309648e+03  -1.288443e+03
   9.123532e+02  -2.121469e+02
   8.512424e+01   2.658376e+02
  -2.932007e+02  -4.954452e+01
  -4.998966e+01  -5.688516e+02
   4.261219e+02  -5.666953e+02
   5.793728e+02  -1.200874e+02
   3.865592e+02   4.840210e+02
  -5.895643e+00   6.094247e+02
  -2.902287e+02   1.489904e+02
  -2.424810e+02  -4.138659e+02
   1.586225e+02  -5.048686e+02
   3.779709e+02  -1.168126e+02
   3.246019e+02   4.333058e+02
  -1.020460e+02   6.009513e+02
  -4.606771e+02   2.376454e+02
  -3.466331e+02  -1.656714e+02
  -9.968166e+01  -3.393048e+02
   1.378823e+02  -2.233490e+02
   8.387898e+01  -4.891644e+01
  -1.500961e+02  -3.747964e+01
  -2.826753e+02  -2.406270e+02
  -1.885904e+01  -3.739658e+02
   4.316024e+02  -1.710105e+02
   5.457776e+02   1.538768e+02
   2.221598e+02   3.520255e+02
  -3.322175e+02   1.943842e+02
  -4.949695e+02  -1.565373e+02
  -2.458561e+02  -3.883050e+02
   2.784767e+02  -3.372236e+02
   4.586495e+02  -1.446555e+02
   3.448857e+02   1.447503e+02
   9.442833e+01   3.000112e+02
  -5.900380e+01   1.797906e+02
  -6.090159e+00  -1.069263e+02
   1.361612e+02  -2.137454e+02
   1.961438e+02   1.000846e+02
   2.799300e+01   4.298620e+02
  -3.114393e+02   3.860528e+02
  -3.042529e+02  -1.570748e+01
  -9.886243e+01  -3.337507e+02
   1.587839e+02  -1.183939e+02
   2.282554e+02   2.573775e+02
  -1.013594e+02   3.775973e+02
  -4.262068e+02   3.514050e+01
  -4.875304e+02  -3.251080e+02
  -1.702032e+02  -4.663467e+02
   3.045943e+02  -2.971519e+02
   5.711830e+02   4.082391e+01
   3.406019e+02   2.420162e+02
  -3.384417e+01   2.249610e+02
  -2.713449e+02   1.261329e+02
  -1.945236e+02   2.254618e+01
  -1.319392e+01  -2.118158e-01
   2.970473e+01   3.798183e+00
  -8.521733e+01   1.124116e+01
  -2.233863e+02  -6.619421e+01
  -1.300784e+02  -1.651339e+02
   1.406196e+02  -2.364387e+02
   3.433212e+02  -1.405825e+02
   2.473634e+02   7.135519e+01
   2.014200e+01   3.199768e+02
  -2.748635e+02   3.580279e+02
  -4.040132e+02   1.501452e+02
  -2.543274e+02  -1.530920e+02
  -4.458648e+01  -2.910965e+02
   5.620497e+01  -2.691881e+02
   3.644497e+01  -1.698386e+02
   2.525051e+01  -9.797900e+01
   1.267506e+02  -1.287050e+02
   2.219300e+02  -3.857942e+01
   2.169844e+02   9.365894e+01
   1.010121e+02   2.482522e+02
  -1.196621e+02   1.887185e+02
  -2.132814e+02  -3.085717e+01
  -1.526919e+02  -2.212097e+02
   1.994527e+01  -2.505650e+02
   2.306536e+02  -7.741487e+01
   2.781188e+02   1.462501e+02
   1.563427e+02   2.741579e+02
  -3.516697e+01   2.378499e+02
  -1.246711e+02   1.708357e+02
  -1.422075e+02   8.017293e+01
  -1.281888e+02   8.027217e+01
  -2.638152e+02   3.983263e+01
  -3.820242e+02  -8.426228e+01
  -2.862752e+02  -2.311084e+02
   2.523008e+01  -4.127529e+02
   3.551217e+02  -2.711080e+02
   4.670351e+02  -1.579193e+02
   2.632520e+02   1.187986e+02
   5.159737e-01   2.591580e+02
  -8.581818e+01   1.868183e+02
  -3.831765e+01   1.664668e+01
   9.309523e+01  -1.879494e+01
   1.042078e+02  -3.055664e+00
  -1.767643e+01   1.512431e+02
  -8.259719e+01   7.677018e+01
  -8.825015e+01  -5.703229e+01
   4.085116e+01  -1.296030e+02
   1.550576e+02  -9.679604e+00
   1.769932e+02   2.569023e+02
   8.949359e+00   3.024992e+02
  -2.576165e+02   1.882846e+02
  -3.472906e+02  -5.651383e+01
  -2.536739e+02  -2.234461e+02
  -4.431677e+01  -2.570367e+02
   1.054835e+02  -1.372089e+02
   1.215143e+02  -5.792688e-01
   3.206770e+01   1.166160e+01
  -3.820639e+01  -6.108116e+01
  -4.385419e+00  -1.141702e+02
   1.113883e+02  -9.762651e+01
   1.123952e+02   2.054372e+00
   3.376822e+01   5.889537e+01
  -6.287527e+01  -1.727062e+01
  -4.499218e+01  -1.019795e+02
   1.379315e+02  -9.793784e+01
   3.347196e+02   1.347931e+01
   2.529529e+02   1.601598e+02
   3.204506e+01   2.410665e+02
  -2.260518e+02   2.585691e+02
  -2.693223e+02   6.292746e+01
  -1.312060e+02  -4.087016e+01
   3.234691e+01  -6.772394e+01
   6.660181e+01   1.778036e+01
  -4.037748e+01   8.505475e+01
  -1.342302e+02   1.571183e+01
  -1.526109e+02  -9.133375e+01
  -6.539018e+01  -1.498723e+02
   8.281438e+01  -1.573644e+02
   1.138871e+02  -2.124508e+01
   4.126599e+01   6.751264e+01
  -3.772391e+01   2.610008e+01
  -6.435103e+01  -7.901923e+01
   6.363092e+01  -1.264722e+02
   2.331731e+02  -2.440846e+01
   1.894350e+02   1.124962e+02
   2.965748e+01   1.864897e+02
  -1.372171e+02   1.162780e+02
  -1.430667e+02  -5.463050e-01
  -4.411787e+01  -1.000959e+02
   5.010057e+01  -1.132966e+02
   5.415675e+01  -2.060202e+01
   1.534400e+01  -4.037598e+00
  -2.427488e+01   1.927299e+01
   2.521322e+01  -8.652932e+00
   8.059313e+01   3.416753e+00
   9.511182e+01   7.478018e+01
   1.927442e+01   1.727722e+02
  -1.382066e+02   1.902220e+02
  -1.937364e+02   2.616841e+01
  -2.126178e+02  -1.319612e+02
  -3.480007e+01  -2.379279e+02
   8.342546e+01  -1.533420e+02
   9.134095e+01  -5.808107e+01
   8.428684e+01   5.515521e+01
   4.517965e+01   3.603482e+01
   1.172719e+01  -1.397444e+01
   8.073204e+01   2.557327e+00
   7.151748e+01   4.322468e+01
  -3.258655e+01   1.179122e+02
  -8.441206e+01   7.867849e+01
  -1.197132e+02  -3.639100e+01
   3.062439e+01  -1.451820e+02
   1.336860e+02  -1.103802e+02
   1.958105e+02   5.120960e+01
   8.486674e+01   2.215569e+02
  -1.271802e+02   2.095027e+02
  -2.458360e+02   7.741500e+01
  -2.335897e+02  -9.956619e+01
  -7.944723e+01  -1.689752e+02
   3.354242e+01  -1.433696e+02
   9.144556e+01  -9.551418e+01
   5.678901e+01  -4.544507e+01
   6.573692e+01  -5.548493e+01
   1.059298e+02  -6.246486e+01
   1.364296e+02   4.234084e+01
   1.322855e+02   1.570981e+02
   8.620525e+00   2.551401e+02
  -1.182178e+02   2.042929e+02
  -1.852692e+02   7.559649e+01
  -1.266942e+02  -1.332866e+02
  -2.197560e+01  -1.995129e+02
   8.261616e+01  -1.032608e+02
   6.791759e+01   1.919600e+01
   4.261750e+00   3.568692e+01
  -3.339890e+01   5.958579e+01
   4.139414e+01   2.269575e+01
   8.123422e+01   3.049315e+01
   3.672582e+01   1.200120e+01
  -5.889875e+01   3.160490e+01
  -1.523568e+02   1.747972e+01
  -1.340688e+02  -7.023671e+01
  -2.989196e+01  -1.008029e+02
   1.344684e+02  -6.721779e+01
   1.275327e+02  -9.639876e+00
   4.523396e+01   5.692992e+01
  -4.551635e+01   4.727548e+01
  -7.949911e+01   1.136867e+01
  -3.510789e+01  -8.108781e+01
   2.149454e+01  -3.206327e+01
   8.930972e+01   8.790334e+00
   3.767264e+01   4.772633e+01
   4.275286e+01   3.202424e+01
   5.770312e+01   1.138406e+01
   6.348876e+01   4.771116e+00
   2.670481e+01   4.224035e+01
  -5.842425e+01   1.671731e+02
  -9.447293e+01   1.428793e+02
  -1.630697e+02   1.655039e+01
  -1.506487e+02  -1.286732e+02
  -2.339933e+00  -1.569230e+02
   8.307259e+01  -9.849949e+01
   7.230037e+01   4.427313e+00
  -6.017720e+01   1.615693e+01
  -1.464089e+02  -5.269855e+00
  -6.919923e+01  -9.887308e+01
   9.844666e+01  -1.378202e+02
   1.880850e+02  -4.716445e+01
   1.600841e+02   3.862925e+01
   2.281970e+01   9.563882e+01
  -6.747857e+01   5.766319e+01
  -6.928772e+01  -2.503740e+00
   3.245149e+01  -7.471624e+01
   9.724682e+01  -6.577595e+00
   7.029047e+01   1.318480e+02
  -6.034933e+01   1.743433e+02
  -1.742722e+02   9.863911e+01
  -1.351644e+02  -1.128973e+02
  -1.019029e+01  -1.572327e+02
   7.457465e+01  -1.517853e+02
   9.720430e+01   2.342432e+01
   7.445869e+01   1.146485e+02
  -2.697631e+01   9.840310e+01
  -6.289035e+01   4.748541e+00
  -3.605415e+01  -3.548904e+01
   4.009679e+00  -2.602369e+00
   1.540235e+01   7.835520e+00
  -3.449498e+01  -1.364949e+01
  -5.120383e+01  -8.018701e+01
  -3.102780e+01  -1.087572e+02
   4.075740e+01  -6.599630e+01
   1.487964e+02   3.837776e+01
   1.275153e+02   8.521658e+01
  -6.164951e+00   6.932010e+01
  -6.876190e+01   6.657124e+01
  -7.085684e+01  -2.972026e+00
  -3.250388e+01  -3.026759e+01
   2.536498e+01  -5.151486e+01
   2.733792e+01  -3.417088e+01
  -3.303378e+01   1.643395e+01
  -7.522772e+00   1.599454e+01
   3.566040e+01  -2.407141e+01
   1.014794e+02   2.163547e+01
   3.592481e+01   7.587912e+01
  -1.063943e+02   1.278053e+02
  -1.790476e+02   7.354877e+01
  -1.636437e+02  -5.797033e+01
  -1.428992e+01  -1.514696e+02
   8.994304e+01  -1.260350e+02
   1.105673e+02  -5.853239e+01
   6.192518e+01   2.796453e+01
   2.887242e+01   6.873670e+01
  -8.499274e+00  -3.888173e+00
   3.309227e+01  -2.507160e+00
   2.035168e+01   4.431062e+01
   4.671299e+01   9.576949e+01
  -6.491547e+01   5.336491e+01
  -8.272360e+01  -4.997632e+00
  -5.172808e+01  -1.045836e+02
   7.143982e+00  -1.040800e+02
   9.160697e+01  -2.397493e+01
   9.895808e+01   5.013585e+01
   1.164295e+01   1.191125e+02
  -4.630542e+01   4.915995e+01
  -8.026034e+01  -3.226370e+01
  -1.854834e+01  -6.041741e+01
   5.371015e+01  -4.044337e+01
   2.198686e+01  -2.643322e+01
  -3.432555e+01   2.359091e+01
  -7.809207e+01   1.166578e+01
  -7.072805e+00  -2.274564e+01
   9.156275e+01  -1.010205e+02
   1.183337e+02  -2.001526e+01
   4.514513e+01   1.257791e+01
  -1.224951e+01   6.878227e+01
  -3.030114e+01   8.035742e+01
  -1.206650e+01   8.244511e+00
   5.623947e+00  -4.615153e+01
   1.557844e+01  -4.291100e+01
   2.902286e+01   3.037773e+01
   2.623051e+01   3.713903e+01
   2.976461e+00   2.159068e+01
  -3.569281e+01   1.574891e+00
  -1.730364e+01  -4.869420e+01
  -1.263274e+01  -1.102063e+01
   4.617869e+00   1.022594e+01
  -1.140672e+00   1.174785e+01
  -1.431756e+00  -2.087620e+01
   1.133658e+01  -2.752236e+01
   3.979606e+01  -7.917008e+00
   4.262350e+01   3.877607e+01
   1.714282e-01   7.090271e+01
  -4.383196e+01   2.032429e+01
  -7.300752e+01  -3.298030e+01
  -3.993847e+01  -7.460221e+01
   9.460205e+01  -5.523640e+01
   7.047782e+01   5.062179e+01
   4.181131e+01   4.053497e+01
  -6.929445e+00   5.469230e+01
  -6.130552e+01   1.653325e+00
   3.429208e+00   2.159511e+01
   5.024492e+01   1.828534e+01
   2.011073e+01  -1.169565e+01
  -5.127881e+00   4.148981e+01
  -6.141720e+01   3.347602e+01
