
 $NMID
 id='ANONYMOUS ', fmtdat='(2E16.6)'
 volume=1.0
 tramp=1.0
 $END
  -3.109950e+03   2.108456e+02
  -1.976379e+03  -1.759872e+03
   8.297211e+01  -1.963518e+03
   1.418737e+03  -1.006760e+03
   8.015091e+02   8.972097e+01
  -1.636613e+02   3.490251e+02
  -5.730861e+02  -1.425225e+02
   2.796165e+01  -6.465683e+02
   5.100725e+02  -5.393720e+02
   6.269971e+02  -6.471943e+01
   4.481225e+02   5.550823e+02
  -1.383235e+02   6.454728e+02
  -4.078967e+02   1.627201e+02
  -2.382881e+02  -4.878901e+02
   2.010519e+02  -4.819924e+02
   3.862296e+02  -1.500173e+01
   2.596371e+02   4.935805e+02
  -2.021968e+02   5.268536e+02
  -3.852610e+02   1.866027e+02
  -3.848294e+02  -2.238130e+02
  -3.395327e+01  -3.510465e+02
   1.385102e+02  -2.208286e+02
   6.488853e+01  -5.203161e+01
  -1.768437e+02  -6.057248e+00
  -2.959413e+02  -2.339046e+02
  -3.302383e+01  -3.530430e+02
   3.883264e+02  -2.089045e+02
   5.509181e+02   1.283186e+02
   2.168418e+02   3.595173e+02
  -3.443776e+02   2.485523e+02
  -5.208842e+02  -8.378513e+01
  -1.794960e+02  -3.414792e+02
   2.815188e+02  -3.710985e+02
   4.260821e+02  -1.449145e+02
   2.772031e+02   1.886419e+02
   7.259623e+01   3.109318e+02
  -6.292291e+01   1.468887e+02
   2.459837e+01  -1.267934e+02
   1.856923e+02  -2.150083e+02
   2.354600e+02   8.519118e+01
   4.969942e+00   4.869420e+02
  -2.824936e+02   3.985735e+02
  -4.012198e+02  -7.354382e+01
  -9.561358e+01  -4.056908e+02
   2.169755e+02  -1.736966e+02
   2.674605e+02   2.774825e+02
  -5.065820e+01   3.637363e+02
  -4.089962e+02   1.310079e+02
  -4.931545e+02  -3.212012e+02
  -1.400008e+02  -4.576591e+02
   2.646754e+02  -2.495508e+02
   4.270876e+02   5.584924e+01
   2.905438e+02   2.397642e+02
  -7.723916e+01   2.099692e+02
  -2.913599e+02   4.079840e+01
  -1.436496e+02  -6.420252e+01
   3.941993e+01  -4.411947e+01
   5.651878e+01   8.786731e+01
  -1.301388e+02   8.852271e+01
  -2.526983e+02  -1.056022e+02
  -1.014298e+02  -1.773096e+02
   1.650166e+02  -2.348761e+02
   2.854871e+02  -9.260618e+01
   1.774314e+02   8.837392e+01
  -8.727110e+00   2.117966e+02
  -2.310224e+02   3.211724e+02
  -2.973642e+02   1.242195e+02
  -1.988866e+02  -1.677694e+02
  -4.626386e+01  -3.673014e+02
   1.739287e+01  -2.714975e+02
   1.425894e+01  -1.098071e+02
   3.035109e+01  -4.261018e+01
   8.804536e+01  -1.430162e+02
   1.815228e+02  -8.430887e+01
   2.416478e+02   9.058846e+01
   9.089418e+01   2.365487e+02
  -8.333686e+01   1.887478e+02
  -2.056583e+02  -2.398084e+01
  -1.686485e+02  -2.264972e+02
   1.903273e+01  -2.904878e+02
   2.227238e+02  -5.677481e+01
   2.946774e+02   1.663709e+02
   1.275222e+02   2.941095e+02
  -8.458830e+01   2.509670e+02
  -1.605967e+02   8.590607e+01
  -9.065019e+01   3.223643e+01
  -9.373822e+01   3.712929e+01
  -2.250724e+02   3.727301e+01
  -3.321916e+02  -6.507770e+01
  -3.030648e+02  -2.553163e+02
  -1.221143e+01  -3.639258e+02
   2.845708e+02  -2.997527e+02
   4.065721e+02  -1.400286e+02
   2.104520e+02   1.421662e+02
   1.061782e+00   2.308429e+02
  -1.181454e+02   1.990631e+02
  -3.015971e+01   5.232381e+00
   1.127982e+02  -8.608854e+01
   1.560394e+02   1.381716e+01
   2.236865e+01   1.516692e+02
  -1.310093e+02   1.360263e+02
  -1.444860e+02  -6.238231e+01
  -1.435363e+01  -1.390910e+02
   1.546209e+02  -3.788667e+01
   1.693368e+02   1.839104e+02
  -2.901093e+01   2.966017e+02
  -2.248748e+02   1.444389e+02
  -2.979745e+02  -6.325382e+01
  -2.078520e+02  -2.468484e+02
  -5.910441e+01  -2.414515e+02
   8.613585e+01  -1.174310e+02
   1.213999e+02   1.725456e+00
   4.903928e+01   3.610071e-01
  -6.659332e+01  -3.199067e+01
  -1.256666e+01  -1.086378e+02
   8.701877e+01  -4.072023e+01
   1.364111e+02   2.003652e+00
   4.646411e+01   6.928882e+01
  -6.571028e+01  -1.439091e+01
  -4.270508e+01  -8.263932e+01
   1.283845e+02  -6.754324e+01
   2.619145e+02   1.805595e+00
   2.417570e+02   1.348973e+02
   1.407186e+00   1.769075e+02
  -1.754744e+02   1.775787e+02
  -2.542547e+02   7.193074e+01
  -1.470974e+02  -5.041601e+01
   1.297627e+01  -8.899989e+01
   8.623451e+01   7.292117e+00
  -5.161880e+01   1.021181e+02
  -1.612625e+02   4.133503e+01
  -1.732385e+02  -7.868818e+01
  -6.132184e+01  -1.756819e+02
   7.577420e+01  -1.090926e+02
   1.251656e+02  -3.717358e+01
   2.984429e+01   8.017583e+01
  -2.969753e+01   1.882349e+01
  -5.289796e+01  -8.061300e+01
   4.341694e+01  -1.133313e+02
   1.833255e+02  -6.719043e+01
   1.637518e+02   1.235730e+02
   3.015667e+00   1.762801e+02
  -1.427173e+02   1.456295e+02
  -1.391213e+02   6.089769e+00
  -4.405065e+01  -6.975210e+01
   4.667358e+01  -8.725211e+01
   4.910547e+01  -2.401053e+01
   8.600366e+00  -2.087578e+01
  -2.950642e+01   1.992915e+01
   2.636743e+01  -2.426661e+01
   7.389911e+01   2.482635e+00
   1.149262e+02   4.659208e+01
   4.581310e+01   1.684423e+02
  -9.536740e+01   1.492533e+02
  -2.306281e+02   3.006528e+01
  -1.832087e+02  -1.226234e+02
  -5.301329e+01  -2.068467e+02
   1.189432e+02  -1.270455e+02
   9.119392e+01  -4.504220e+01
   6.240626e+01   5.777626e+01
   5.503361e+00   3.156381e+01
   2.231773e+01  -1.795753e+01
   7.146256e+01  -3.808058e+01
   7.209488e+01   2.765303e+01
  -5.909191e+01   8.556615e+01
  -8.077596e+01   3.558701e+01
  -1.153267e+02  -4.255606e+01
  -1.281181e+01  -1.194678e+02
   1.381970e+02  -6.482657e+01
   1.840225e+02   4.160489e+01
   8.822914e+01   1.736311e+02
  -5.725524e+01   2.029662e+02
  -2.284322e+02   5.746158e+01
  -2.104094e+02  -6.853134e+01
  -1.160419e+02  -1.389179e+02
   5.460500e+01  -1.081059e+02
   7.791520e+01  -8.131198e+01
   5.538851e+01  -4.736967e+01
   6.658180e+01  -6.445712e+01
   5.659908e+01  -4.630433e+01
   1.162726e+02   1.482402e+01
   9.163060e+01   1.283143e+02
  -2.076225e+01   2.134016e+02
  -1.261280e+02   1.730609e+02
  -1.489246e+02   1.269253e+01
  -1.016304e+02  -1.087423e+02
   9.191586e+00  -1.341567e+02
   5.756473e+01  -1.156617e+02
   1.916030e+01   3.278048e+01
  -9.423551e+00   5.156062e+01
  -4.724272e+01   4.116281e+01
   3.814789e+01  -5.324204e+00
   6.161170e+01  -2.651742e+00
   1.853263e+01   4.513120e+00
  -6.229590e+01   5.400281e+01
  -1.685475e+02   6.237664e+00
  -9.938635e+01  -6.894296e+01
  -6.077512e+00  -8.213219e+01
   1.480803e+02  -2.783997e+01
   1.253252e+02  -1.411880e+01
   3.226547e+01   6.595486e+01
  -3.963343e+01   2.897822e+01
  -7.392907e+01  -1.650435e+01
  -1.214863e+01  -8.080347e+01
   5.011229e+01  -3.767283e+01
   8.813351e+01   4.107924e+00
   4.804253e+01   2.715582e+01
   2.196277e+01   4.248012e+01
   7.219842e+01   1.321181e+01
   3.239382e+01  -1.925845e+01
   4.550055e+01   5.502160e+01
  -2.391410e+00   1.473482e+02
  -9.844398e+01   1.439050e+02
  -1.192768e+02   3.412490e+01
  -1.190190e+02  -5.940484e+01
   5.006002e+00  -1.285193e+02
   9.322681e+01  -7.669041e+01
   4.328484e+01   4.666105e+00
  -4.389943e+01   4.019730e+01
  -1.330753e+02  -4.026523e+01
  -7.852057e+01  -1.040585e+02
   9.914498e+01  -8.712071e+01
   1.454810e+02  -7.636965e+01
   1.199429e+02   3.615337e+01
   2.243285e+01   6.564861e+01
  -5.192877e+01   5.005675e+01
  -4.464371e+01  -1.193434e+01
   4.044463e+01  -1.957146e+01
   9.119967e+01   1.250865e+01
   2.926198e+01   9.452038e+01
  -4.432706e+01   1.229553e+02
  -1.411597e+02   6.699340e+01
  -1.322897e+02  -7.741171e+01
  -1.726459e+01  -1.591219e+02
   5.007606e+01  -1.110058e+02
   8.004634e+01   2.756253e+01
   3.729383e+01   1.138376e+02
  -3.365295e+01   9.390895e+01
  -6.140742e+01   3.963140e+00
  -3.038676e+01  -3.189812e+01
  -2.067866e+01  -8.257317e+00
   2.649888e+00   1.432968e+01
  -3.113162e+01  -5.229625e+00
  -4.367815e+01  -6.804223e+01
  -4.081050e+01  -8.465817e+01
   4.841464e+01  -4.335177e+01
   1.165596e+02   2.368479e+01
   1.060097e+02   7.872062e+01
   5.779948e+00   2.595743e+01
  -1.106445e+02   5.945298e+01
  -6.259721e+01   6.578323e+00
  -2.062111e+01  -3.802931e+00
   3.846412e+01  -4.292560e+01
   1.305635e+01  -1.471496e-02
  -1.515110e+01   1.249517e+01
  -1.913998e+01   8.722259e+00
   5.442460e+01  -1.595073e+01
   7.117423e+01   7.525334e+00
   3.433106e+01   7.647655e+01
  -1.083623e+02   1.196844e+02
  -1.529105e+02   6.831480e+01
  -1.712763e+02  -2.351468e+01
  -2.458299e+01  -1.194144e+02
   2.548792e+01  -1.466132e+02
   9.042556e+01  -3.900321e+01
   6.344879e+01   1.272476e+01
   3.764254e+01   4.800662e+01
  -2.550751e+01   1.357430e+01
   2.738077e+01  -1.681753e+01
   4.380677e+00   2.193866e+01
   1.924764e+00   5.503189e+01
  -2.614972e+01   5.577825e+01
  -5.595456e+01   6.885671e-01
  -8.074821e+01  -6.843632e+01
  -1.571442e+00  -8.883427e+01
   5.308150e+01  -4.313858e+01
   7.748680e+01   5.037205e+01
   7.410891e+00   6.852191e+01
  -6.390035e+01   1.866401e+01
  -8.975308e+01  -6.491792e+00
  -4.043388e+01  -3.196460e+01
   4.719402e+01  -4.008014e+01
   6.016744e+00  -4.216711e+01
  -2.013439e+01  -8.644721e+00
  -5.006296e+01   8.566944e+00
   5.907892e+00   1.762632e-01
   5.199561e+01  -6.605970e+01
   9.242055e+01  -4.500981e+01
   6.350043e+01   4.792695e+01
   1.544719e+01   6.857587e+01
  -3.469833e+01   5.948860e+01
  -3.227248e+01  -4.667172e+00
  -4.937958e-01  -5.409399e+01
   2.099649e+01  -3.380865e+01
   3.412526e+01   1.896715e+01
   2.969022e+01   3.870571e+01
   1.392439e+01   5.401544e+01
  -8.571752e+00  -4.026916e-01
  -5.420133e+01  -2.200633e+01
  -2.114214e+01  -1.628385e+01
   2.363527e+01   1.236471e+01
   7.283670e+00   8.060654e+00
   1.494061e+01  -1.764109e+01
   4.522140e+00  -6.005043e+01
   1.802567e+01  -1.150923e+01
   2.173772e+01   3.454238e+01
   1.572080e+01   6.117168e+01
  -5.369780e+01   2.284822e+01
  -4.354445e+01  -4.263216e+01
  -3.134722e+01  -5.207382e+01
   3.369982e+01  -2.409929e+01
   6.947966e+01  -1.687129e+01
   3.386571e+01   2.267074e+01
  -8.228136e+00   3.201274e+01
  -8.679101e+01  -2.442325e+01
  -2.502802e-02   1.163432e+01
   5.754151e+01  -7.453527e+00
   2.823892e+01   3.623930e+00
  -1.968626e+01   3.081556e+01
  -6.510756e+01   1.197490e+01
