
 $NMID
 id='ANONYMOUS ', fmtdat='(2E16.6)'
 volume=1.0
 tramp=1.0
 $END
   2.665867e+03  -1.206293e+02
   1.453887e+03   1.407398e+03
  -2.665650e+02   1.514018e+03
  -1.179673e+03   5.639727e+02
  -5.503324e+02  -2.267840e+02
   2.301208e+02  -3.258280e+02
   3.927332e+02   2.343621e+02
  -5.101911e+01   6.272739e+02
  -5.014231e+02   3.765230e+02
  -4.422187e+02  -9.432058e+01
  -2.176329e+02  -5.307673e+02
   1.331340e+02  -4.097453e+02
   3.468454e+02   1.540780e+01
   1.658656e+02   4.211881e+02
  -2.146698e+02   4.148754e+02
  -2.963913e+02  -4.445593e+01
  -1.573478e+02  -4.149162e+02
   2.164871e+02  -3.770483e+02
   3.432082e+02  -7.114437e+01
   2.452863e+02   2.207301e+02
   4.984571e+00   2.503152e+02
  -1.002124e+02   1.253520e+02
  -2.896403e+01   1.862820e+01
   1.486372e+02   3.883513e+01
   1.558189e+02   1.642473e+02
   4.273783e+01   2.266218e+02
  -2.918574e+02   1.572101e+02
  -4.737563e+02  -9.221700e+01
  -1.499934e+02  -3.167577e+02
   2.292540e+02  -2.188979e+02
   4.512217e+02   9.310240e+01
   1.359746e+02   2.808150e+02
  -2.380757e+02   2.738694e+02
  -3.127339e+02   9.939796e+01
  -1.761688e+02  -1.221866e+02
  -7.195756e+01  -1.986930e+02
   4.454055e+01  -1.118173e+02
  -9.388124e+00   7.972781e+01
  -1.502396e+02   1.498664e+02
  -2.125763e+02  -8.229250e+01
  -5.138183e+01  -4.037993e+02
   1.839597e+02  -3.272705e+02
   2.613685e+02   6.493307e+01
   8.311911e+01   2.906883e+02
  -1.420388e+02   1.053224e+02
  -2.000223e+02  -2.525408e+02
   6.177605e+01  -3.063537e+02
   3.122512e+02  -1.134529e+02
   3.700941e+02   2.364702e+02
   6.983149e+01   3.438876e+02
  -1.673424e+02   1.808743e+02
  -2.794220e+02  -4.879454e+01
  -2.260300e+02  -1.869032e+02
   5.440424e+01  -1.596075e+02
   2.512096e+02  -2.739602e+01
   1.441665e+02   8.148000e+01
  -4.116415e+01   2.058459e+01
  -8.173905e+01  -9.695129e+01
   9.189817e+01  -6.608977e+01
   2.151977e+02   9.119051e+01
   7.428295e+01   1.732611e+02
  -1.813876e+02   1.585597e+02
  -2.082036e+02   5.447793e+01
  -1.694924e+02  -7.453904e+01
   2.325579e+01  -1.604838e+02
   1.701336e+02  -1.986178e+02
   1.865521e+02  -1.153231e+02
   1.627162e+02   1.080472e+02
   4.844601e+01   2.819906e+02
   7.815071e+00   2.497557e+02
  -3.599767e+01   1.220126e+02
  -2.754676e+01   8.230693e+01
  -7.173716e+01   7.850427e+01
  -1.415498e+02   9.098302e+01
  -1.648975e+02  -6.115908e+01
  -5.098478e+01  -1.703206e+02
   7.346678e+01  -1.637622e+02
   1.719503e+02   2.916983e+01
   9.573202e+01   1.952646e+02
  -3.964407e+00   1.674827e+02
  -1.719094e+02   1.133140e+01
  -2.007063e+02  -1.181959e+02
  -1.358054e+02  -2.524112e+02
   5.242873e+01  -1.892699e+02
   1.233402e+02  -6.382180e+01
   7.268087e+01  -4.613967e+01
   6.819181e+01  -2.688486e+01
   1.569887e+02  -1.619207e+01
   2.884868e+02   3.706482e+01
   2.242990e+02   2.047411e+02
  -3.406070e+01   2.734125e+02
  -2.436012e+02   2.391021e+02
  -2.906742e+02   1.170119e+02
  -1.530636e+02  -9.456644e+01
   4.673091e+01  -1.530714e+02
   5.093719e+01  -1.022718e+02
  -2.696803e+01   1.056244e+01
  -1.168205e+02   4.138556e+01
  -1.393722e+02  -3.784103e+01
  -2.929973e+01  -1.027497e+02
   1.051384e+02  -1.111373e+02
   1.005463e+02   1.795562e+01
  -2.303635e+01   9.407518e+01
  -9.985708e+01   4.876202e+01
  -1.022629e+02  -1.719765e+02
   4.575884e+01  -2.385386e+02
   1.739546e+02  -1.400912e+02
   2.344172e+02   5.620033e+01
   1.415010e+02   1.925066e+02
   5.028869e+01   1.401218e+02
  -4.387879e+01   6.938883e+01
  -9.351572e+01   3.142306e+00
  -6.333834e+01   5.898113e+00
   4.140473e+01   4.356573e+01
  -7.571907e+00   9.503417e+01
  -8.318072e+01   4.558775e+01
  -1.079427e+02  -1.937030e+00
  -2.139593e+01  -5.379102e+01
   7.369885e+01   4.207765e+00
   4.936573e+01   5.837214e+01
  -1.427189e+02   5.797186e+01
  -2.013262e+02   1.263514e+01
  -1.912067e+02  -1.117409e+02
   3.396322e+00  -1.470724e+02
   1.346722e+02  -1.634746e+02
   1.817552e+02  -5.696789e+01
   1.092485e+02   4.193560e+01
  -1.770565e+01   7.194706e+01
  -3.442512e+01  -9.675491e+00
   1.328319e+01  -9.096865e+01
   1.016288e+02  -2.183614e+01
   1.436396e+02   7.523976e+01
   5.885051e+01   1.412554e+02
  -5.898098e+01   6.840458e+01
  -9.995097e+01  -1.523060e+01
  -1.362608e+01  -2.829519e+01
   1.866327e+01   1.954836e+01
   1.026406e+01   8.805823e+01
  -5.717919e+01   7.731365e+01
  -1.266854e+02   1.425230e+01
  -1.269042e+02  -6.312190e+01
  -1.063815e+01  -1.231782e+02
   1.152353e+02  -7.607836e+01
   1.009047e+02   4.118371e+00
   5.475314e+01   7.257738e+01
  -3.716593e+01   2.519502e+01
  -4.247117e+01   1.373745e+01
  -1.433693e+01  -2.034361e+01
   2.985826e+01   1.056673e+01
  -1.847950e+01  -8.024735e+00
  -7.870773e+01  -3.777876e+01
  -7.929827e+01  -4.163539e+01
   1.167022e+01  -1.316239e+02
   8.445514e+01  -1.044657e+02
   1.425367e+02  -3.053590e+01
   1.571641e+02   1.226627e+02
   1.761607e+01   1.459954e+02
  -7.736592e+01   1.100669e+02
  -1.093126e+02   3.685672e+00
  -2.350330e+01  -4.497468e+01
  -1.102752e+01  -2.460633e+01
  -2.448154e+01   4.306201e+01
  -4.452852e+01   2.015996e+01
  -3.152948e+01  -2.769684e+01
   5.431251e+01  -5.922022e+01
   7.357807e+01  -2.040222e+01
   5.277462e+01   2.308634e+00
  -4.460793e+00   9.192759e+01
  -7.459753e+01   3.715772e+01
  -1.398549e+02  -2.612618e+01
  -3.905014e+01  -1.414936e+02
   7.256441e+01  -1.517994e+02
   1.639802e+02  -1.053379e+01
   1.198882e+02   9.041659e+01
   3.290652e+01   1.026663e+02
  -4.665210e+01   6.938761e+01
  -3.305224e+01   2.520892e+01
  -4.623565e+01   4.040412e+01
  -6.773532e+01   6.293091e+01
  -6.369886e+01   3.759940e+01
  -6.776649e+01  -2.772348e+00
  -4.642387e+01  -6.551149e+01
  -1.937381e+00  -1.272848e+02
   7.479022e+01  -1.303813e+02
   1.190948e+02   3.952790e+01
   5.698979e+01   6.669960e+01
   2.377675e+01   8.405202e+01
  -3.912537e+01   6.335192e+01
   2.174114e+00   4.549489e-01
   8.179650e+00  -2.970093e+01
  -1.848910e+01  -3.201332e+01
  -4.416173e+01   2.470881e+01
  -3.109359e+01  -2.043576e+01
  -2.590275e+01   2.116467e+00
   4.037965e+01  -3.383038e+01
   1.192771e+02   5.784305e+00
   7.883409e+01   3.264969e+01
  -8.082340e+00   3.812021e+01
  -9.649736e+01   5.699542e+01
  -1.014612e+02   1.454560e+01
  -3.427249e+01  -3.675328e+01
   3.764476e+01  -5.184614e+00
   7.162892e+01   3.102824e+01
  -1.045744e+01   5.398899e+01
  -4.062656e+01   5.101477e+01
  -5.499335e+01  -5.864691e+00
  -1.059221e+01  -4.132847e+01
  -5.140509e+01  -2.377153e+01
  -4.760771e+01   2.419497e+00
  -5.781975e+01   1.539474e+01
  -2.292051e+01  -2.716180e+01
   2.147830e+01  -9.282540e+01
   6.284178e+01  -1.038126e+02
   1.254980e+02  -2.107061e+01
   4.643978e+01   2.571141e+01
   2.388494e+01   8.552670e+01
  -4.816426e+01   4.500826e+01
  -2.187534e+01  -1.513883e+01
   3.310194e+01  -4.799212e+00
   1.050123e+02   2.009603e+01
   3.650587e+01   5.851917e+01
  -9.109892e+01   6.361158e+01
  -1.387680e+02   3.479242e+01
  -8.244053e+01  -2.875306e+01
  -1.183594e+01  -1.994521e+01
  -2.738578e+00  -5.552588e+01
   1.580518e+01   1.014778e+01
  -4.457271e+01   1.924203e+01
  -3.349471e+01  -2.773806e+01
  -1.512377e+01  -7.554904e+01
   4.507822e+01  -1.002044e+02
   9.409483e+01  -3.313257e+01
   9.171176e+01   4.105686e+01
   9.297090e+00   1.299249e+02
  -5.614526e+01   9.231705e+01
  -7.029778e+01  -1.474785e+01
  -3.427131e+01  -7.370346e+01
   2.946138e+00  -6.202500e+01
   1.592333e+01   1.134991e+00
   2.891029e+01   1.904639e+01
   2.956366e+01   8.031772e+00
   1.023797e+01   6.999692e+00
   2.130935e+01   2.987583e+01
   1.939345e+01   5.404719e+01
   9.094739e+00   8.342249e+01
  -4.351991e+01   3.236164e+01
  -8.870060e+01  -8.831539e+00
  -7.562700e+01  -4.134733e+01
   4.824731e+00  -3.064646e+01
   7.138273e+01   1.754000e+00
   3.919436e+01  -8.243982e+00
   1.821588e+00   2.968579e+01
  -3.920438e+01   1.054142e+00
  -3.358323e+01  -1.286517e+01
   3.298474e+00   1.912163e+01
   4.787263e+00  -1.841127e+01
  -3.003507e+01   1.722440e+01
  -2.954633e+01   1.011812e+01
  -1.483319e+00  -4.000606e+01
   7.900987e+01  -8.101527e+01
   1.358345e+02  -6.159534e+01
   9.527131e+01   3.714948e+01
   9.691178e+00   9.954750e+01
  -5.135670e+01   8.678586e+01
  -9.026469e+01   3.613979e+01
  -4.215767e+01   1.771594e+00
  -3.307882e+01  -5.126255e+01
   2.026679e+01  -1.317142e+01
  -1.764769e+01  -7.257869e+00
  -3.233234e+01  -2.226549e+01
  -1.405248e+01  -4.318510e+01
   1.385355e+01  -3.098662e+01
   6.817929e+01  -1.543239e+01
   5.080343e+01   5.598088e+01
   1.705128e+01   6.095892e+01
  -4.241835e+01   2.593527e+01
  -5.773765e+01  -4.734391e+01
   1.257731e+01  -8.419255e+01
   4.743035e+01  -2.956368e+01
   5.770901e+01  -3.412903e+00
   3.900810e+01   3.633690e+01
  -2.311499e+00   3.270793e+01
  -4.502537e+01   1.567597e+01
   3.541931e+01  -1.163693e+01
   3.381999e+01  -3.242863e+01
   1.495989e+01   2.068886e+01
  -4.429941e+01   6.894658e+01
  -5.619392e+01   6.028184e+01
  -6.096776e+01  -3.186436e-01
   1.710038e+01  -8.897747e+01
   3.182594e+01  -5.185665e+01
   1.299918e+01   1.378912e+01
   1.708887e+01   5.547973e+01
  -3.552141e+01   3.345836e+01
  -3.263151e+01  -2.651820e+01
  -6.799291e+00  -6.577234e+01
  -9.903109e+00  -3.736596e+01
   8.872469e+00  -8.003132e+00
   3.025050e+01   2.062846e+00
   3.975101e+01  -9.105154e-01
  -1.367695e+01  -2.598272e+01
  -2.627996e+01   3.564707e+01
  -9.605932e+00   1.411879e+01
   5.561486e-01   5.640270e+01
   8.237190e+00   5.901986e+00
   2.063662e+01  -3.943916e+01
  -8.133988e+00  -1.570279e+01
   1.866049e+01  -2.230522e+00
   3.483619e+01   3.695079e+01
   1.604235e+01   1.119912e+00
  -2.853218e+01   2.904939e+01
  -6.984519e+01  -3.723875e+01
  -2.934027e+01  -7.078942e+00
   5.182525e+01  -2.369490e+01
   8.188896e+01  -1.999881e+00
   4.927909e+00  -8.246469e+00
  -7.693596e+00   3.765957e+01
  -6.292855e+01   9.632591e+00
   2.174909e+01  -4.554575e+01
   2.461264e+01   2.102402e-01
