
 $NMID
 id='ANONYMOUS ', fmtdat='(2E16.6)'
 volume=1.0
 tramp=1.0
 $END
  -2.015317e+03   1.197123e+02
  -1.096833e+03  -9.988751e+02
   5.621750e+01  -1.009444e+03
   8.547285e+02  -5.448575e+02
   3.344021e+02   6.369167e+01
  -1.188742e+02   1.905562e+02
  -1.920592e+02  -2.787326e+02
   7.760921e+01  -4.318146e+02
   3.445581e+02  -3.025703e+02
   2.962613e+02   6.452785e+01
   1.648087e+02   3.230170e+02
  -1.723978e+01   2.718029e+02
  -1.346280e+02   5.262438e+01
  -6.945396e+01  -2.272685e+02
   7.749185e+01  -2.671384e+02
   2.057182e+02   3.569924e+01
   1.011320e+02   2.554377e+02
  -1.562270e+02   2.136118e+02
  -1.983529e+02   2.293836e+01
  -1.250666e+02  -1.252829e+02
  -2.276659e+01  -1.223237e+02
   4.736718e+01  -8.388643e+01
   3.004609e+01  -7.552594e+01
  -4.869168e+01  -9.014881e+01
  -9.871749e+01  -8.663660e+01
   1.861242e+01  -8.818153e+01
   1.729206e+02  -5.075603e+01
   2.567423e+02   1.243472e+02
   8.373992e+01   1.394518e+02
  -1.133590e+02   9.320442e+01
  -2.365508e+02  -5.891037e+01
  -6.080886e+01  -1.488480e+02
   1.165289e+02  -1.387201e+02
   1.494068e+02  -9.110096e+01
   9.602194e+01   3.395355e+01
   6.364206e+01   1.163321e+02
   2.632081e+01   1.144464e+02
   8.032360e+00  -2.774331e+01
   9.775145e+01  -6.888252e+01
   9.512446e+01   4.083119e+00
   4.675993e+01   2.467438e+02
  -6.086649e+01   2.187572e+02
  -2.250516e+02   1.046599e+01
  -4.897319e+01  -1.757223e+02
   5.992580e+01  -7.858787e+01
   7.680881e+01   1.347030e+02
  -8.218220e+01   1.924446e+02
  -1.769050e+02   1.003210e+01
  -1.645420e+02  -1.667184e+02
  -2.500813e+01  -1.892205e+02
   1.182503e+02  -7.732693e+01
   1.432880e+02   6.305145e+01
   1.207671e+02   8.867803e+01
  -5.405031e+01   1.113538e+02
  -1.484185e+02   5.137928e+00
  -9.663245e+01  -4.991495e+01
   1.270287e+00  -2.762797e+01
   2.928527e+01   6.231163e+01
  -8.506403e+01   1.667308e+01
  -1.394665e+02  -7.311143e+01
  -3.922837e+01  -1.537899e+02
   1.293611e+02  -7.603859e+01
   1.172878e+02   1.542700e+01
   4.264424e+00   2.967019e+01
  -4.566625e+01   6.195861e+01
  -8.395203e+01   6.737275e+01
  -1.130206e+02   1.027795e+02
  -9.412442e+01  -3.687974e+01
  -4.207390e+01  -1.839901e+02
  -1.558349e+01  -2.072558e+02
   4.131452e+01  -1.342163e+02
   3.884244e+01  -5.159838e+01
   5.754811e+01  -5.138617e+01
   7.554764e+01  -1.137673e+01
   1.126159e+02   6.728992e+01
   7.696509e+00   1.077404e+02
  -4.356427e+01   5.717427e+01
  -7.433212e+01  -1.284304e+01
  -4.012254e+01  -1.202606e+02
   4.364127e+01  -1.032575e+02
   1.032451e+02  -2.079311e+01
   1.302439e+02   9.790158e+01
   9.338989e+01   1.613376e+02
   1.180944e+01   1.355606e+02
  -1.002991e+02   4.696120e+01
  -3.147162e+01   1.617498e+01
  -6.900428e+01   1.274489e+01
  -1.546465e+02   5.650262e+00
  -1.869739e+02  -4.484597e+01
  -1.044215e+02  -1.450434e+02
   1.851212e+01  -1.629395e+02
   2.128991e+02  -1.475330e+02
   1.754134e+02  -7.213289e+01
   7.974210e+01   3.494306e+01
  -3.718644e+01   7.968495e+01
  -2.875433e+01   9.744776e+01
   6.662195e+00   1.047287e+01
   3.053426e+01  -1.437947e+01
   1.185194e+02   2.773473e+01
  -1.244300e+01   7.423752e+01
  -8.357588e+01   8.615656e+01
  -4.360549e+01  -3.191308e+01
   5.428250e+01  -5.707638e+01
   6.582421e+01   5.544831e+00
   6.103088e+01   1.471744e+02
  -4.495034e+01   1.290725e+02
  -1.150920e+02   5.835035e+01
  -1.218239e+02  -5.041358e+01
  -7.757276e+01  -9.832437e+01
  -1.638687e+01  -9.170196e+01
   4.328073e+01  -2.712249e+01
   5.622873e+01  -2.054235e+01
   4.156054e+01  -2.776511e+01
  -2.709105e+01  -5.422631e+01
   1.491330e+01  -4.608029e+01
   4.540618e+01  -1.613542e-01
   4.746869e+01   2.894737e+01
  -1.224254e+01   3.286014e+01
  -4.488551e+01  -2.590452e+01
  -4.853319e+00  -4.122610e+01
   5.318824e+01   8.132209e+00
   1.245920e+02  -1.329590e+01
   1.115855e+02   7.623414e+01
   1.090013e+01   5.796779e+01
  -7.688513e+01   1.053792e+02
  -1.107667e+02   3.950942e+01
  -3.743931e+01  -1.310925e+01
   2.142980e+01  -2.966431e+01
   6.521868e+00  -2.528656e+01
  -2.519488e+00   3.452542e+01
  -6.278548e+01   2.019755e+01
  -9.265530e+01  -5.191199e+01
  -7.644500e+00  -9.551433e+01
   4.352722e+01  -5.512886e+01
   6.282580e+01  -1.140943e+01
  -2.994120e+00   4.524419e+00
   1.305637e+01   1.841578e+00
   2.315315e+01  -4.539853e+01
   5.949031e+01  -2.934791e+01
   7.427383e+01   2.872065e+01
   4.140550e+01   6.581718e+01
  -8.623407e+00   6.685917e+01
  -4.692765e+01   8.028142e+01
  -6.828165e+01  -1.026485e+01
  -1.591883e+01  -3.812940e+01
   1.777044e+01  -1.587476e+01
  -7.042514e-01  -3.178679e+01
  -1.608150e+01  -2.283483e+01
   2.615090e+01  -7.123088e+00
   1.303913e+01  -5.039548e+01
   5.790464e+01   2.112338e+01
   1.277512e+01   1.856799e+01
  -2.863912e+00   7.599337e+01
  -7.691754e+01   3.316508e+01
  -9.388729e+01  -1.499458e+01
  -8.154913e+01  -8.914593e+01
  -2.063254e+01  -7.116498e+01
   4.786454e+01  -5.425043e+01
   4.455428e+01  -3.638858e+00
   3.303457e+01   1.224942e+01
   4.877762e+01   6.933947e+00
   2.039676e+01   6.724172e+00
   3.848272e+01   3.413186e+01
   2.100869e+01   2.356333e+01
  -2.376061e+01   4.276304e+01
  -4.967894e+01   1.623449e+01
  -3.631066e+01   1.762967e+00
   3.640005e+01  -1.665005e+01
   8.339918e+01  -3.872133e+00
   4.682625e+01   4.145521e+01
   6.466034e+00   9.578111e+01
  -8.774819e+01   8.190388e+01
  -9.675767e+01  -6.919258e+00
  -5.804959e+01  -2.787805e+01
  -1.094724e+01  -7.488693e+01
   1.575638e+01  -4.954373e+01
   2.904205e+01  -9.145277e+00
   3.514452e+01  -5.897788e+01
   5.940923e+01  -2.211201e+01
   5.879204e+01  -8.252482e+00
   7.476154e+01   1.504053e+01
   1.885179e+01   5.338393e+01
   2.102875e+01   5.367239e+01
  -1.820071e+01   7.527929e+01
  -4.729722e+01  -3.251709e+01
  -3.706890e+01  -1.459073e+01
  -9.810940e-01  -5.947346e+01
   3.002850e+01  -3.834959e+01
   9.330043e+00   4.063995e+01
  -1.171696e+00   2.006577e+01
  -4.258456e-01   8.934082e+00
   5.854872e+01  -1.024622e+01
   1.704930e+01  -1.886141e+00
  -8.524913e+00   1.865385e+01
  -4.053088e+01   2.543068e+01
  -6.070482e+01   2.165824e+00
  -2.958475e+01  -2.196648e+01
   3.023154e+01  -4.913070e+01
   3.526420e+01  -2.987614e+01
   9.208901e+01  -1.295158e+01
   4.257042e+00   2.621895e+01
  -2.446258e+01  -7.302222e+00
  -3.218812e+01  -5.162715e+01
   2.909949e+01  -2.223335e+01
   2.549583e+01  -8.117904e+00
   3.065841e+01   2.067296e+00
  -1.906561e+01   1.133748e+01
   3.456880e+01  -9.710183e+00
   4.502631e+01   7.265481e+00
   4.661428e+01   6.487342e+00
  -6.068933e+00   3.477786e+01
  -2.363692e+01   5.510262e+01
  -4.518887e+01   4.712451e+01
  -7.563184e+01   2.065541e+01
  -5.932726e+01  -2.105081e+01
  -1.143334e+01  -4.056605e+01
   1.376618e+01  -2.425815e+01
   7.440719e+00   1.187080e+01
  -3.827087e+01  -1.608598e+01
  -9.326975e+01  -3.470053e+01
  -3.332075e+01  -4.893705e+01
   3.700449e+01  -3.230587e-01
   1.029992e+02  -1.452699e+01
   5.136020e+01   3.312548e+01
   1.448630e+01   1.897594e+01
  -1.708116e+00   4.584245e+01
  -3.586129e+01   1.112409e+01
   2.067851e+01   9.604638e+00
   3.020965e+01   3.590475e+01
   2.085819e+01   6.089980e+01
  -5.259749e+01   5.953845e+01
  -6.674526e+01   2.954439e+01
  -5.474412e+01  -2.078846e+01
  -2.252171e+01  -8.492199e+01
   2.556315e+01  -6.264165e+01
   3.623988e+01  -6.463730e+00
   2.724119e+01   5.866382e+01
   5.302907e+00   4.352070e+01
  -3.323551e+01   4.762295e+00
  -2.697394e+01  -4.927666e+00
  -1.595037e+01  -3.205890e+00
  -2.294090e+01   2.362746e+00
   1.875164e+01  -3.037254e+01
  -1.574255e+01  -3.908655e+01
  -2.343330e+01  -2.862240e+01
   2.710889e+01   1.732881e+00
   7.400746e+01  -7.915908e-01
   6.367539e+01   2.774589e+01
  -1.555664e+01   8.846360e+00
  -5.513280e+01  -4.243031e+00
  -1.225076e+01  -1.547622e+01
  -1.532356e+01   2.500380e+01
   1.257043e+01  -4.438576e-02
   3.929562e+00   1.538774e+00
   7.799671e+00   2.728768e+00
  -7.048680e+00  -2.014317e+01
   3.568029e+01   1.000965e+01
   3.130189e+01   7.093231e+00
   1.857151e-01   3.014067e+01
  -5.533285e+01   4.092042e+01
  -9.772855e+01   3.427504e+01
  -3.932166e+01  -7.924494e+00
  -2.229981e+01  -7.533649e+01
   3.961108e+01  -5.752445e+01
   3.651005e+01  -5.279826e+01
   2.840700e+01   1.932640e+00
  -9.413612e+00   2.724316e+01
  -4.147625e+00   4.033551e+01
   2.519984e+00  -8.677356e-01
   3.560588e+01   5.410245e+00
   9.136411e+00   3.533521e+01
  -2.137292e+01   4.591634e+01
  -1.282559e+01  -1.302904e+01
  -2.043385e+01  -2.097589e+01
  -2.594356e+01  -2.935302e+01
   1.719641e+01   8.075341e+00
   1.745914e+01   3.178698e+01
  -2.116587e+01   4.391528e+01
  -1.719504e+01   8.309649e+00
  -2.635730e+01  -1.951082e+01
  -2.297696e+01  -1.323310e+01
   1.013480e+01  -4.606246e-01
   1.383462e+01  -4.724002e-01
  -6.331501e+00   1.853819e+01
  -2.785582e+01   2.462747e+01
  -3.966564e+01  -2.154036e+01
   1.687511e+01  -3.392516e+01
   4.284147e+01  -2.605104e+01
   3.242325e+01  -1.579236e+01
   1.984712e+00   3.868866e+01
  -2.688471e+01   6.246835e+01
  -2.928697e+00   8.174813e+00
   3.209033e+00  -2.243278e+01
   4.346662e+00  -2.512375e+00
   4.466393e+00  -2.178160e+00
   3.668366e+00   1.295935e+01
   2.140698e+01   8.485466e-01
  -1.949467e+01  -3.894268e-01
  -2.857145e+01  -9.821025e-01
  -2.419473e+01  -5.690115e+00
   1.089499e+01  -7.585145e+00
   1.220028e+01  -4.897403e+01
   2.249712e+01  -6.473266e+00
   2.933929e+01  -3.826460e+00
   1.868011e+01   3.360914e+01
  -2.087774e+01   4.800870e+01
  -1.744270e+00   2.972381e+01
  -2.967997e+01  -5.318684e+00
  -7.979568e+00  -4.811429e+01
  -5.214911e+00  -3.451533e+01
   1.829455e+01  -1.079760e+01
   3.736291e+01  -4.693585e-01
  -2.095901e+00  -1.682287e+01
  -1.847997e+01   2.035398e+01
  -6.878349e+01  -4.683444e+00
  -1.722696e+01  -1.975383e+01
   1.048803e+01  -2.677563e+00
  -1.671374e+00   1.672121e+01
  -2.916681e+00   9.617391e+00
  -4.360624e+01   4.010786e+01
