
 $NMID
 id='ANONYMOUS ', fmtdat='(2E16.6)'
 volume=1.0
 tramp=1.0
 $END
  -2.404661e+03  -4.679052e+01
  -1.347491e+03  -1.292288e+03
   6.282893e+02  -1.349417e+03
   1.199093e+03  -2.053677e+02
   4.015084e+02   2.775407e+02
  -4.087877e+02   2.365678e+02
  -3.974879e+02  -3.634000e+02
   5.717481e+01  -6.967390e+02
   5.117951e+02  -3.607844e+02
   4.776635e+02   1.010314e+02
   1.764094e+02   4.704251e+02
  -1.357625e+02   4.635156e+02
  -2.946420e+02   6.060057e+01
  -1.400474e+02  -3.085464e+02
   1.166124e+02  -2.992327e+02
   2.389496e+02   6.108512e+01
   7.664153e+01   3.181647e+02
  -1.568815e+02   2.248526e+02
  -2.237056e+02  -5.749962e+01
  -5.611152e+01  -1.759762e+02
   2.409379e+01  -1.474395e+02
   9.194732e+01  -1.146508e+02
   6.807868e+01  -3.679912e+01
   3.927884e+00   1.908139e+01
  -1.748770e+02  -6.552024e+01
  -8.688107e+01  -1.529066e+02
   2.234166e+02  -1.813842e+02
   4.117530e+02   7.109449e+01
   1.757113e+02   2.452066e+02
  -2.373218e+02   2.168225e+02
  -3.846006e+02  -3.575802e+01
  -1.114365e+02  -2.223216e+02
   1.697077e+02  -2.771624e+02
   2.734891e+02  -1.114085e+02
   1.656965e+02   1.037103e+02
   2.131102e+01   2.780441e+02
  -6.460519e+01   1.634937e+02
  -6.389029e+01  -1.199745e+02
   9.033656e+01  -2.145901e+02
   1.843059e+02   1.206597e+01
   1.681135e+02   3.541238e+02
  -1.635710e+02   4.017253e+02
  -3.235414e+02   6.888782e+01
  -1.068418e+02  -2.876755e+02
   1.409057e+02  -1.985255e+02
   1.830033e+02   1.974166e+02
  -8.190362e+01   2.579018e+02
  -2.679894e+02   5.315897e+00
  -2.554809e+02  -2.642191e+02
  -5.271422e+01  -2.923402e+02
   1.716520e+02  -1.381584e+02
   2.667559e+02   7.986329e+01
   1.613512e+02   1.993083e+02
  -6.514862e+01   1.902314e+02
  -2.222969e+02   2.722155e+01
  -1.106065e+02  -9.358619e+01
   7.567747e+01  -6.618596e+01
   6.389007e+01   9.717296e+01
  -1.184842e+02   6.453992e+01
  -1.619178e+02  -8.045271e+01
  -5.707513e+01  -1.801677e+02
   1.548427e+02  -1.020015e+02
   1.428793e+02  -1.788964e+00
   7.605664e+01   8.839181e+00
   2.768310e+01   4.348059e+01
  -9.099276e+01   1.444573e+02
  -1.143989e+02   1.754075e+02
  -1.818959e+02  -3.400373e+01
  -1.225732e+02  -2.817177e+02
   5.817522e+01  -2.674153e+02
   8.741849e+01  -9.401791e+01
   3.810165e+01  -4.622161e+00
   3.675846e+01  -3.455203e+01
   5.858797e+01  -2.717661e+01
   1.091546e+02   1.677405e+01
   8.628744e+01   1.026822e+02
   8.861124e+00   1.241893e+02
  -9.961140e+01  -2.489527e+00
  -1.133931e+02  -1.138909e+02
   7.207231e+00  -1.392979e+02
   1.113681e+02  -6.691112e+01
   1.713294e+02   7.291483e+01
   8.918066e+01   1.705617e+02
  -2.015866e+01   1.572451e+02
  -1.193896e+02   6.189819e+01
  -9.583737e+01   3.857946e+01
  -6.095266e+01   5.220791e+00
  -1.090394e+02   3.186256e+01
  -1.497561e+02  -6.935915e+01
  -1.875717e+02  -1.403294e+02
   6.639243e+00  -1.558365e+02
   1.521320e+02  -1.656734e+02
   2.220262e+02  -1.063370e+02
   1.684698e+02   3.293545e+01
   9.889275e+00   1.209909e+02
  -5.815088e+01   1.480391e+02
  -1.472946e+01   2.348495e+01
   4.351050e+01  -5.537307e+01
   9.290789e+01   2.072381e+01
   1.212411e+01   1.093682e+02
  -6.952377e+01   1.194599e+02
  -8.679503e+01  -5.224802e+01
   3.062253e+01  -1.212184e+02
   7.242266e+01  -1.304401e+01
   4.766901e+01   1.421352e+02
  -1.062369e+01   1.661576e+02
  -9.120321e+01   6.239082e+01
  -1.098501e+02  -4.356058e+01
  -9.825561e+01  -1.094103e+02
  -7.448983e+01  -1.148227e+02
   4.638124e+01  -6.889335e+01
   7.324332e+01  -3.453078e+00
   3.303807e+01   1.464714e+01
  -4.932203e+01  -1.975725e+01
  -1.132864e+01  -3.801434e+01
   5.935763e+01  -3.743553e+01
   9.701070e+01  -8.351274e+00
   2.263991e+01   3.037668e+01
  -6.273932e+01  -3.933267e+01
   7.939086e+00  -4.359879e+01
   6.098696e+01  -3.044596e+01
   1.214580e+02   2.464736e+01
   1.018341e+02   7.902126e+01
   2.081819e+01   1.006294e+02
  -1.294064e+02   1.371830e+02
  -1.471809e+02   9.612525e+01
  -8.718634e+01  -2.926869e+01
  -8.203169e+00  -5.595257e+01
   4.010346e+01  -2.530414e+01
  -1.794483e+00   3.445269e+01
  -7.819116e+01   3.636868e+01
  -8.801077e+01  -5.270673e+01
   6.004335e-01  -8.823805e+01
   5.355610e+01  -7.514571e+01
   7.277306e+01  -3.233404e+00
   4.330269e+01   3.729172e+01
  -1.992300e+01   6.378755e+00
  -1.569719e+01  -4.908781e+01
   3.007130e+01  -3.818962e+01
   6.468801e+01   2.055443e+01
   7.110040e+01   6.125926e+01
   3.341600e+01   1.051730e+02
  -7.761927e+01   7.649195e+01
  -1.102867e+02   6.725174e+00
  -4.384926e+01  -5.418684e+01
   5.489133e+01  -5.851575e+01
   2.579306e+01  -6.108611e+01
   7.543746e+00  -1.347763e+01
   6.316134e+00   1.494459e+01
   2.918596e+01   2.059658e+01
   7.262422e+01   2.375576e+01
   5.105705e+01   3.561308e+00
   3.726268e+00   4.693653e+01
  -7.110536e+01   5.831168e+01
  -1.102849e+02   1.708479e+01
  -9.214317e+01  -8.280625e+01
  -9.124933e+00  -1.046403e+02
   6.062640e+01  -1.011138e+02
   7.744138e+01  -4.852002e-01
   4.656556e+01   2.411930e+01
   3.245943e+01   1.875689e+01
   3.730250e+01  -6.177411e+00
   2.301118e+01   2.824944e+01
   2.300888e+01   3.051733e+01
  -4.136699e+01   5.427704e+00
  -5.558344e+01   2.997965e+01
  -2.406882e+01  -1.490314e+01
  -1.209563e+01  -1.322931e+01
   8.656474e+01  -2.827247e+01
   6.244594e+01   3.907738e+01
   6.344759e+01   8.933339e+01
  -2.933025e+01   1.236707e+02
  -1.358896e+02   7.239043e+01
  -9.449207e+01  -2.797617e+01
  -5.514161e+01  -7.631355e+01
   1.234268e+01  -7.607156e+01
   3.296303e+01  -3.714325e+01
   4.994399e+01  -3.535137e+01
   6.578569e+01  -2.010164e+01
   4.688088e+01  -3.393470e+01
   5.393556e+01   3.636943e+01
   4.281019e+01   7.211039e+01
   1.363313e+01   7.152978e+01
  -5.280924e+01   8.590117e+01
  -9.524245e+01  -1.146334e+01
  -9.987834e+01  -2.920823e+01
  -1.102362e+01  -7.393428e+01
   3.069708e+01  -3.096451e+01
   2.020232e+01  -2.010426e+00
   3.160333e+01   1.681905e+01
  -3.034875e-01  -1.226559e+01
   4.758133e+01   2.820775e+01
   2.641168e+01   2.251226e+01
   1.733258e+01   3.521432e+01
   3.762431e+00  -7.304774e+00
  -7.733847e+01  -1.626908e+01
  -6.064836e+01  -8.479435e-01
  -2.436579e+01  -4.646809e+00
   6.131430e+01  -6.204372e+00
   3.531766e+01  -3.319250e+00
   2.323670e+01   9.005039e+00
  -1.200813e+01   2.163094e+01
  -1.335070e+01  -6.034857e+00
  -2.540640e+01  -4.270762e+01
   1.450900e+01  -3.163892e+01
   1.459117e+01  -1.319177e+01
   2.645522e+01   2.122408e+01
   3.687212e+01   4.341987e+01
   5.197590e+01  -2.564493e+00
   1.258605e+01   4.812269e+00
   1.143832e+01   4.367051e+01
  -3.184570e+01   5.407149e+01
  -6.109099e+01   3.187584e+01
  -6.845714e+01  -1.332001e+01
  -7.451223e+01  -3.062792e+01
  -2.720461e+01  -3.767228e+01
   2.639458e+01  -5.871934e+01
   1.444263e+01   1.208038e+01
  -2.399114e+01  -9.212269e+00
  -5.358014e+01  -2.437406e+01
  -2.876303e+01  -5.321046e+01
   5.787430e+01  -4.082105e+01
   1.245167e+02  -1.684446e+01
   7.091564e+01   5.205649e+01
   2.255398e+01   2.895706e+01
  -2.714662e+01   3.682474e+01
  -2.962873e+01   2.158291e+01
   1.763883e+01   1.559265e+01
   2.724591e+01   6.476386e+01
   1.965714e+01   9.178855e+01
  -3.532240e+01   7.266357e+01
  -8.536216e+01   1.691494e+01
  -7.965808e+01  -6.921760e+01
  -1.745404e+01  -1.222121e+02
   5.139081e+01  -5.381035e+01
   3.869528e+01  -3.767757e+00
   1.667810e+01   4.113108e+01
  -3.541805e+00   3.944901e+01
  -2.878535e+01   1.000775e+01
  -2.500058e+01  -2.426305e+01
   6.924386e-02  -2.349038e+01
   7.293503e-03  -2.479513e+00
   2.561236e+00  -2.335009e+01
  -2.009099e+01  -7.862254e+00
  -9.875039e+00  -4.116236e+01
   1.903238e+01  -1.647710e+01
   5.829455e+01   2.453946e+00
   2.008615e+01   3.535434e+01
   1.133438e+01   3.381610e+01
  -6.873894e+01  -8.358245e+00
  -2.457286e+01  -2.992779e+01
  -3.546311e+00   3.225109e+01
   3.681818e+01   6.582548e+00
   2.234440e+01  -1.511815e+01
  -3.789968e-01  -1.051539e+01
   2.025364e+00   1.076814e+01
   5.080092e+01   1.444014e+01
   5.639027e+01   3.388132e+01
   2.803340e+01   4.021489e+01
  -6.231587e+01   9.539902e+01
  -9.435183e+01   4.461314e+01
  -5.059121e+01  -3.978312e+01
  -1.405276e+01  -8.251596e+01
   4.920923e+01  -6.827268e+01
   4.714181e+01  -2.734223e+01
   4.273474e+01   1.667191e+01
   1.570845e+01   2.707337e+01
   1.170494e+01  -1.799348e+01
   2.486760e+01  -1.993314e+01
   4.308474e+01   3.785040e+01
  -6.239125e+00   4.776463e+01
  -8.576401e+00   3.948345e+01
  -2.777183e+01  -2.551479e+01
  -4.253164e+01  -4.198211e+01
   1.150922e+01  -4.680655e+01
   2.018252e+01  -8.251424e+00
   6.052862e+01   3.255713e+01
   7.698283e+00   2.584080e+01
  -2.556848e+01  -4.438101e+00
  -2.758524e+01  -2.395671e+01
  -8.369101e+00  -1.412295e+01
   2.479585e+01  -1.308173e+01
  -1.118459e+01   1.223095e+00
  -2.294672e+01  -1.828229e+01
  -5.253320e+01  -2.878257e+01
   1.853819e+01  -2.699212e+01
   5.962243e+01  -1.029800e+01
   4.945747e+01  -3.344597e+01
   3.406716e+01  -1.298442e+00
  -3.615427e+00   3.993669e+01
  -3.092691e+01   4.147255e+01
  -2.653880e+01  -6.192531e+00
   1.559668e+01  -3.138809e+01
  -2.090110e+00  -1.518130e+01
   2.909683e+01  -1.234103e+01
   8.962519e+00   6.543237e+00
   4.550537e+00  -2.085691e+00
  -3.372765e+01   4.844637e+00
  -1.855733e+01   1.853332e+01
  -2.299684e+01   1.608818e+01
   7.262341e+00   5.439750e+01
  -1.580880e+01   3.209342e+00
   1.546908e+01  -2.666560e+01
   3.203187e+01  -3.246037e+01
   2.767060e+01   9.072339e+00
   2.887028e+01   4.448113e+01
   1.520998e+01   2.127370e+01
  -1.948160e+01   2.334988e+00
  -4.164250e+01  -2.142001e+01
  -3.225247e+00  -2.992955e+01
   6.907376e+00   5.100342e+00
   5.050698e+01   4.795785e+00
   2.189786e+01   1.117045e+01
  -2.244894e+01   1.154632e+01
  -8.223343e+00   7.884232e+00
  -1.086701e+01   2.005854e+01
   8.570643e+00   9.669852e+00
   6.492062e+00   1.957188e+01
  -1.330368e+01   1.919824e+01
  -4.340914e+01   4.752231e+00
