
 $NMID
 id='ANONYMOUS ', fmtdat='(2E16.6)'
 volume=1.0
 tramp=1.0
 $END
   3.547968e+03   5.778182e+02
   2.149244e+03   1.872779e+03
  -5.115181e+02   2.286207e+03
  -1.666736e+03   1.087719e+03
  -8.989421e+02  -1.166963e+02
   3.571554e+02  -3.083447e+02
   7.065077e+02   2.947456e+02
  -2.788670e+01   8.337892e+02
  -6.081030e+02   6.965744e+02
  -7.817622e+02   1.898251e+01
  -4.239130e+02  -6.504700e+02
   3.066470e+01  -7.225069e+02
   4.607474e+02  -1.761747e+02
   3.697621e+02   5.376475e+02
  -1.398487e+02   6.125017e+02
  -4.680905e+02   4.345425e+01
  -2.630372e+02  -5.583192e+02
   2.047647e+02  -5.964999e+02
   4.594457e+02  -1.422564e+02
   4.200633e+02   2.636809e+02
   4.294527e+01   3.099620e+02
  -1.465332e+02   2.307719e+02
  -9.305789e+01   5.689526e+01
   1.771851e+02   2.738786e+01
   2.567039e+02   1.576682e+02
   9.620221e+01   3.646992e+02
  -3.965914e+02   2.478377e+02
  -6.387384e+02  -5.978938e+01
  -4.029261e+02  -4.274529e+02
   3.477753e+02  -3.746267e+02
   5.873075e+02   3.899664e+01
   2.633778e+02   3.938823e+02
  -2.493974e+02   3.736956e+02
  -4.843966e+02   1.379633e+02
  -3.226719e+02  -1.690817e+02
  -8.188269e+01  -3.517174e+02
   9.136149e+01  -1.574949e+02
   5.246970e+01   1.421729e+02
  -9.895935e+01   2.933149e+02
  -3.302096e+02  -6.735189e+01
  -1.743992e+02  -5.516575e+02
   1.847271e+02  -5.528136e+02
   4.120882e+02  -5.365989e+01
   1.952893e+02   3.922959e+02
  -2.241057e+02   2.331010e+02
  -2.289868e+02  -2.555720e+02
   9.735634e+01  -4.450648e+02
   5.149481e+02  -9.004053e+01
   5.494929e+02   2.845279e+02
   1.587287e+02   5.232312e+02
  -3.622927e+02   2.999139e+02
  -5.355677e+02  -4.973124e+01
  -3.649463e+02  -2.839100e+02
   5.842120e+01  -2.895238e+02
   2.963145e+02  -9.683572e+01
   2.238341e+02   8.865621e+01
  -5.191909e+01   5.944275e+01
  -8.574676e+01  -1.008704e+02
   1.644720e+02  -1.561478e+02
   3.025664e+02   7.126423e+01
   1.257999e+02   2.332947e+02
  -2.007422e+02   2.767041e+02
  -3.153577e+02   9.786367e+01
  -2.181156e+02  -9.539588e+01
   4.208509e+01  -2.271637e+02
   2.219424e+02  -2.958095e+02
   3.058290e+02  -1.944418e+02
   2.402007e+02   1.028458e+02
   8.262557e+01   3.881226e+02
  -2.740168e+01   3.492608e+02
  -1.095731e+02   1.507958e+02
  -5.135829e+01   3.828436e+01
  -9.473177e+01   8.413942e+01
  -1.716187e+02   1.064350e+02
  -2.292850e+02  -7.117208e+01
  -1.224854e+02  -2.517147e+02
   8.634535e+01  -1.880668e+02
   1.891488e+02   1.061225e+01
   1.483189e+02   2.020413e+02
  -2.271650e+01   2.305272e+02
  -2.410769e+02   8.809710e+01
  -2.970724e+02  -1.602633e+02
  -1.750292e+02  -2.659173e+02
   4.097617e+01  -2.516580e+02
   1.466378e+02  -1.462164e+02
   1.239161e+02  -3.581515e+01
   1.215474e+02  -7.474178e+01
   2.096765e+02  -6.468117e+01
   3.934757e+02   4.240360e+01
   3.250070e+02   2.713628e+02
   4.566654e+01   4.429239e+02
  -2.974475e+02   4.412736e+02
  -4.572955e+02   1.466995e+02
  -2.821012e+02  -9.378791e+01
  -3.299017e+01  -2.259575e+02
   1.078619e+02  -2.196185e+02
   4.740869e+01  -8.463129e+00
  -1.195762e+02   8.357002e+01
  -1.762708e+02   1.483254e+01
  -3.975648e+01  -1.393731e+02
   1.487189e+02  -1.625999e+02
   1.382559e+02   3.318436e+01
  -3.392946e+01   1.658536e+02
  -1.405586e+02   2.599234e+01
  -1.504451e+02  -2.325942e+02
  -1.971845e+00  -3.220541e+02
   2.325367e+02  -2.235164e+02
   3.255453e+02   8.565456e+01
   2.162204e+02   2.307595e+02
   6.177802e+01   2.378948e+02
  -8.269935e+01   1.184952e+02
  -1.215316e+02   5.444634e+00
  -3.913310e+01  -1.434451e+00
   6.921493e+01   6.004454e+01
   2.921413e+01   1.316452e+02
  -1.086550e+02   9.603157e+01
  -1.811837e+02   4.130868e+00
  -4.096196e+01  -4.642997e+01
   6.423700e+01  -1.568947e+01
   4.512473e+01   8.807241e+01
  -1.277453e+02   1.082653e+02
  -2.737367e+02  -2.721374e+00
  -2.105243e+02  -1.511212e+02
  -5.283326e+01  -2.249830e+02
   1.872239e+02  -2.097427e+02
   2.508827e+02  -1.252933e+02
   1.427775e+02   2.016500e+01
  -2.375022e+01   9.184307e+01
  -7.213244e+01  -6.832866e+00
   4.487264e+01  -7.072382e+01
   1.857791e+02  -8.677059e+01
   1.977181e+02   8.072927e+01
   3.485450e+01   1.898125e+02
  -8.674280e+01   1.591822e+02
  -1.621811e+02   4.535471e+01
  -5.137903e+01  -2.470935e+01
   1.631226e+01   1.938358e+01
   2.672059e+01   9.553928e+01
  -7.851480e+01   1.234546e+02
  -1.677593e+02   3.550858e+01
  -1.841687e+02  -1.037958e+02
  -2.082758e+01  -2.062981e+02
   1.451411e+02  -1.518932e+02
   1.841517e+02  -3.348194e+01
   7.265292e+01   9.433284e+01
  -3.468952e+01   1.012734e+02
  -7.711336e+01   5.763187e+00
  -1.625532e+01  -2.644601e+01
   3.304831e+01  -1.144994e+01
  -1.177773e+00  -1.168964e+01
  -6.089820e+01   7.910211e+00
  -1.046922e+02  -1.011300e+02
  -3.703293e+01  -1.635852e+02
   1.536632e+02  -1.474156e+02
   2.331510e+02  -1.348244e+01
   2.075880e+02   1.383722e+02
  -9.417840e+00   2.403211e+02
  -9.273296e+01   1.585405e+02
  -1.133430e+02   2.460860e+00
  -4.074775e+01  -7.768153e+01
  -5.063244e+01  -3.990599e+01
  -5.816147e+01   4.141649e+01
  -6.831919e+01   5.864854e+00
  -4.983714e+01  -6.455505e+01
   4.734694e+01  -8.705663e+01
   1.144801e+02  -4.258732e+01
   7.817724e+01   4.047063e+01
  -5.013372e+01   1.132777e+02
  -1.654413e+02   1.069389e+02
  -1.786974e+02  -4.707387e+01
  -8.176229e+01  -1.977854e+02
   9.741147e+01  -1.965879e+02
   2.617404e+02  -7.137963e+01
   2.457493e+02   9.556104e+01
   7.398283e+01   1.448716e+02
  -2.837471e+01   1.415034e+02
  -1.082795e+02   7.084014e+01
  -8.686005e+01   6.781183e+01
  -5.306736e+01   8.697257e+01
  -9.316272e+01   5.991032e+01
  -8.920821e+01  -2.123675e+01
  -9.520122e+01  -1.385246e+02
  -1.512622e+01  -2.001281e+02
   1.164109e+02  -1.499703e+02
   1.576230e+02  -8.330271e+00
   1.178787e+02   1.317383e+02
   2.868633e+01   1.391597e+02
  -6.289680e+01   9.358241e+01
  -3.688311e+01  -9.555082e+00
   1.952419e+01  -7.167009e+01
   1.987111e+01  -2.067309e+01
  -3.230653e+01  -1.529020e+01
  -8.781918e+01  -2.493084e+01
  -3.278990e+01  -5.297086e+01
   6.837535e+01  -5.531991e+01
   1.801720e+02   4.134827e+01
   1.442922e+02   5.145896e+01
  -4.843700e+00   1.247191e+02
  -1.315363e+02   7.753339e+01
  -1.285399e+02   1.878474e+00
  -6.939690e+01  -8.048227e+01
   5.427938e+01  -3.848524e+01
   8.191059e+01   1.622118e+01
   4.920972e+00   5.705325e+01
  -4.540739e+01   5.693101e+01
  -3.330031e+01  -1.823764e+01
  -2.448847e+01  -5.720147e+01
  -3.269386e+01  -3.282090e+01
  -7.955854e+01  -6.540936e-01
  -6.591115e+01  -1.126017e+01
  -4.793406e+01  -6.461238e+01
   2.988302e+01  -1.817289e+02
   1.071022e+02  -1.360170e+02
   1.740132e+02  -3.937528e+01
   1.052273e+02   1.033538e+02
  -5.468063e+00   1.143595e+02
  -1.009610e+02   4.502356e+01
  -6.702600e+01   1.767828e+01
   2.572612e+01  -3.894878e+01
   9.791065e+01   3.946745e+01
   4.604029e+01   8.168876e+01
  -9.431366e+01   1.176360e+02
  -1.566257e+02   4.542301e+01
  -1.693155e+02  -2.971021e+01
  -8.828266e+00  -8.459276e+01
   6.471845e+01  -7.015396e+01
   5.046595e+01   1.193728e+01
  -2.217931e+01   2.512704e+01
  -1.073384e+02  -4.071363e+01
   2.510130e+01  -9.989227e+01
   9.413625e+01  -1.410582e+02
   1.528284e+02  -4.466879e+01
   1.339573e+02   9.053702e+01
   1.694206e+01   2.012040e+02
  -5.402687e+01   1.353351e+02
  -1.045554e+02  -1.250884e+01
  -6.388618e+01  -1.126317e+02
  -7.838365e+00  -1.083841e+02
   2.280718e+01  -1.423581e+01
   9.321073e+00   2.191366e+01
   4.423273e+01  -2.449065e+01
   4.222965e+00  -2.010451e+01
   1.605607e+01   1.906044e+01
   4.413747e+01   8.218089e+01
   1.243873e+01   7.766470e+01
  -4.888145e+01   5.282191e+01
  -1.472292e+02  -1.389885e+01
  -1.412207e+02  -2.727615e+01
  -3.331064e+01  -2.648330e+01
   8.868861e+01  -7.187333e+01
   1.062660e+02  -1.420878e+01
   2.598989e+01   2.968229e+01
  -4.385511e+01   5.416223e+01
  -2.384616e+01   1.180622e+01
   1.063679e+01   2.552321e+01
  -6.516614e+00   4.273120e+00
  -6.107399e+01   9.965233e+00
  -8.205301e+01  -4.279856e+00
  -2.149690e+01  -1.002681e+02
   1.017356e+02  -1.108745e+02
   1.875036e+02  -5.519280e+01
   1.228129e+02   4.310907e+01
   3.038378e+01   1.668934e+02
  -6.666563e+01   1.449192e+02
  -1.062412e+02   4.270569e+01
  -8.023375e+01  -2.840681e+01
  -2.565427e+01  -4.112701e+01
   7.461264e-01  -1.225913e+01
  -3.200526e+01  -3.751868e+00
  -4.892504e+01  -5.564258e+01
   7.664466e+00  -9.808204e+01
   2.726042e+01  -7.463107e+01
   5.516799e+01   2.477306e+01
   6.947808e+01   1.074725e+02
  -2.170531e+01   1.205818e+02
  -4.958503e+01   2.210179e+01
  -7.897894e+01  -8.947423e+01
  -2.603333e+01  -9.321868e+01
   6.459471e+01  -6.933469e+01
   8.520366e+01   4.046401e+01
   8.262378e+00   5.952438e+01
  -5.173261e+01   5.560914e+01
  -1.115284e+01   4.115615e+01
   4.493928e+01  -2.053991e+01
   6.701264e+01  -3.266823e+00
   6.959258e+00   3.623662e+01
  -9.041475e+01   2.916522e+01
  -1.199894e+02   6.348411e+01
  -4.655430e+01   6.273975e+00
   4.392493e+01  -7.079053e+01
   5.090376e+01  -8.850431e+01
   4.103248e+01  -2.511141e+01
   8.661841e+00   7.347139e+01
  -4.087426e+01   5.031989e+01
  -3.607723e+01  -1.983158e+01
  -5.511943e+01  -5.043730e+01
   2.728139e+01  -3.877371e+01
   5.193432e+01   4.424545e+01
   5.032003e+01   6.710983e+00
   7.302166e+00   1.846591e+01
   3.673147e+01  -1.442459e+01
   1.810094e+01  -2.907644e+01
   1.317257e+00   4.117642e+01
  -1.948070e+01   6.139450e+01
  -3.485650e+01  -1.267879e+01
  -2.426876e+01  -8.305322e+01
   1.266204e+01  -4.741755e+01
   6.975800e+01  -5.567327e+00
   6.121331e+01   4.261974e+01
   2.537307e+01   6.999258e+01
  -6.390606e+01   3.403039e+01
  -6.765891e+01   1.268571e+01
  -3.393530e+01  -5.039546e+01
   1.062722e+01  -6.011621e+01
   3.769232e+01  -1.307308e+01
   3.420979e+01  -2.998003e+00
  -5.753986e+01  -5.836050e+00
  -4.578294e+01  -2.923461e+01
   3.539898e+01  -5.616102e+01
   1.121586e+02  -2.168825e+00
