
 $NMID
 id='ANONYMOUS ', fmtdat='(2E16.6)'
 volume=1.0
 tramp=1.0
 $END
  -4.113998e+03  -3.386626e+02
  -2.255554e+03  -2.575189e+03
   6.050709e+02  -2.501962e+03
   2.002874e+03  -1.211665e+03
   9.982698e+02   5.481103e+02
  -6.112060e+02   5.205437e+02
  -8.648128e+02  -3.317460e+02
  -1.060732e+02  -1.122694e+03
   7.565568e+02  -8.393039e+02
   9.545738e+02  -1.071886e+01
   5.215218e+02   7.727843e+02
  -1.551263e+02   9.267389e+02
  -6.101253e+02   2.115695e+02
  -4.401856e+02  -6.819018e+02
   2.156549e+02  -7.899788e+02
   5.649190e+02  -4.607911e+01
   2.944441e+02   6.810494e+02
  -3.089677e+02   6.678483e+02
  -6.268631e+02   1.143489e+02
  -4.754585e+02  -3.411829e+02
  -3.236228e+01  -3.972534e+02
   2.345312e+02  -2.537675e+02
   1.686728e+02  -7.664769e+01
  -1.650484e+02   2.709828e+01
  -3.964292e+02  -1.364035e+02
  -1.727185e+02  -4.519832e+02
   4.567548e+02  -3.683714e+02
   8.641809e+02   8.690283e+00
   4.756467e+02   5.088649e+02
  -3.692235e+02   5.058092e+02
  -7.740201e+02  -1.431579e+01
  -3.179489e+02  -4.288679e+02
   2.700685e+02  -5.183111e+02
   5.808590e+02  -2.005945e+02
   3.823565e+02   1.983541e+02
   8.702342e+01   4.217195e+02
  -1.608493e+02   2.290789e+02
  -1.433525e+02  -2.365028e+02
   1.608139e+02  -3.788548e+02
   4.142801e+02   4.798019e+01
   2.433136e+02   6.333854e+02
  -2.412093e+02   6.660826e+02
  -5.389229e+02   6.907164e+01
  -2.970741e+02  -4.593529e+02
   2.563779e+02  -3.079073e+02
   3.588180e+02   3.109246e+02
  -7.369152e+01   5.291340e+02
  -5.890499e+02   1.406845e+02
  -6.363181e+02  -3.715452e+02
  -1.686746e+02  -5.767263e+02
   3.657199e+02  -3.753515e+02
   6.223848e+02   2.308653e+01
   4.222408e+02   3.426506e+02
  -9.156435e+01   3.500478e+02
  -3.947109e+02   7.755134e+01
  -2.608874e+02  -1.548604e+02
   7.502245e+01  -9.872749e+01
   1.587974e+02   1.266650e+02
  -1.383644e+02   1.742819e+02
  -3.738168e+02  -8.257993e+01
  -1.764052e+02  -2.532791e+02
   1.868556e+02  -2.944623e+02
   3.226499e+02  -7.316098e+01
   1.901559e+02   1.175492e+02
  -5.254748e+01   2.184988e+02
  -2.608908e+02   2.862412e+02
  -2.820708e+02   2.137498e+02
  -3.054665e+02  -1.016976e+02
  -1.053260e+02  -4.441025e+02
   1.167225e+02  -3.515704e+02
   1.467623e+02  -1.626156e+02
   8.055409e+01   4.420466e+00
   4.771231e+01  -6.767317e+01
   1.994246e+02  -1.344204e+02
   2.309954e+02   7.936418e+01
   1.455195e+02   2.569381e+02
  -7.149669e+01   2.557984e+02
  -2.120539e+02  -3.286726e+00
  -1.886349e+02  -2.187387e+02
   2.130394e+01  -2.774914e+02
   2.300217e+02  -1.032529e+02
   3.337235e+02   1.869103e+02
   1.628726e+02   3.388485e+02
  -3.524481e+01   3.068653e+02
  -2.184281e+02   1.272360e+02
  -1.261638e+02   3.145778e+01
  -1.170517e+02   6.856344e+01
  -2.040354e+02   7.199132e+01
  -4.029406e+02   8.493273e+00
  -3.861985e+02  -2.648781e+02
  -1.794256e+01  -4.800015e+02
   3.017536e+02  -4.200606e+02
   4.410906e+02  -1.805655e+02
   3.483540e+02   1.098258e+02
   7.036105e+01   2.481253e+02
  -8.803705e+01   2.425603e+02
  -6.792656e+01   2.952872e+01
   1.281618e+02  -1.097552e+02
   2.012376e+02  -3.115846e+01
   3.255270e+01   1.685972e+02
  -1.316425e+02   2.178801e+02
  -1.562984e+02  -2.931707e+01
   2.588922e+01  -1.817988e+02
   1.680219e+02  -5.261516e+01
   1.735928e+02   2.280596e+02
  -1.043140e+00   3.767690e+02
  -2.318858e+02   1.866021e+02
  -3.234331e+02  -5.178351e+01
  -2.887604e+02  -2.347027e+02
  -1.403260e+02  -2.529019e+02
   8.524507e+01  -1.445438e+02
   1.426318e+02  -2.996018e+01
   4.621252e+01   1.804836e+01
  -3.822346e+01  -4.204750e+01
  -4.278030e+01  -1.000139e+02
   1.081548e+02  -8.841671e+01
   1.590565e+02  -1.434899e+01
   9.123309e+01   3.523040e+01
  -7.001231e+01   6.651520e+00
  -4.724906e+01  -7.312207e+01
   1.603240e+02  -4.808383e+01
   2.988948e+02   1.343607e+01
   2.437744e+02   1.530630e+02
   4.407299e+01   2.616969e+02
  -1.544264e+02   2.419115e+02
  -2.524464e+02   1.244474e+02
  -1.548520e+02  -2.950828e+01
   9.766890e+00  -9.305082e+01
   6.953000e+01  -3.413819e+00
  -2.342043e+01   1.033369e+02
  -1.984288e+02   9.999168e+01
  -2.192142e+02  -9.470931e+01
  -7.085128e+01  -2.027564e+02
   6.621723e+01  -1.450353e+02
   1.324229e+02  -3.204168e+01
   6.682984e+01   4.637539e+01
  -4.193852e+01   9.008718e+00
  -1.242832e+01  -8.042829e+01
   8.521039e+01  -9.587963e+01
   2.111306e+02  -3.882569e+01
   1.690147e+02   1.187746e+02
   2.645021e+01   2.291668e+02
  -1.288002e+02   1.756794e+02
  -1.805176e+02   2.701668e+01
  -8.203030e+01  -1.082953e+02
   6.211942e+01  -8.092831e+01
   7.955438e+01  -3.050326e+01
   1.024157e+01   3.574480e+01
  -5.124095e+01  -1.405818e+00
  -2.102923e+00  -3.473963e+01
   8.039701e+01  -3.250867e+00
   1.055642e+02   7.912708e+01
   3.702531e+01   1.602176e+02
  -1.088717e+02   1.361731e+02
  -2.563471e+02   2.926803e+01
  -2.138025e+02  -1.636690e+02
  -6.557074e+01  -2.314408e+02
   1.030682e+02  -1.673280e+02
   1.331798e+02  -4.532009e+01
   5.240863e+01   4.286489e+01
   5.289413e+01   4.421268e+01
   6.406779e+01  -5.067303e+00
   7.878411e+01  -8.208468e+00
   4.901391e+01   6.292294e+01
  -6.534789e+01   9.163783e+01
  -1.168530e+02   3.157075e+01
  -8.544246e+01  -4.812208e+01
   1.311172e+00  -1.240311e+02
   1.467602e+02  -9.817781e+01
   1.988450e+02   5.183328e+01
   1.134118e+02   1.967635e+02
  -9.513593e+01   1.996343e+02
  -2.932207e+02   1.228213e+02
  -2.809698e+02  -4.814621e+01
  -1.252929e+02  -1.643435e+02
   5.090986e+01  -1.678270e+02
   9.140096e+01  -1.019961e+02
   9.710818e+01  -7.849875e+01
   7.134782e+01  -1.033080e+02
   8.436915e+01  -9.223167e+01
   1.069077e+02  -5.647088e+00
   1.217523e+02   1.346928e+02
   3.833832e+01   2.179571e+02
  -7.237839e+01   1.619674e+02
  -1.850246e+02   3.401353e+01
  -1.274100e+02  -1.305580e+02
  -2.807343e+01  -1.704451e+02
   7.122807e+01  -7.934099e+01
   6.500901e+01   2.824958e+01
  -1.720620e+01   6.759441e+01
   2.095900e+01   1.568865e+01
   3.270226e+01   1.162667e+01
   1.019116e+02   9.354803e+00
   5.728606e+01   6.223033e+01
  -4.844562e+01   6.581365e+01
  -1.701533e+02  -2.836355e+00
  -1.395264e+02  -4.287467e+01
  -2.835334e+00  -7.801179e+01
   1.410186e+02  -7.039810e+01
   1.528220e+02  -2.812112e+00
   3.333551e+01   6.562678e+01
  -5.643340e+01   2.649694e+01
  -8.124152e+01  -1.965574e+01
   3.184816e+00  -5.831429e+01
   6.137916e+01  -3.966178e+01
   6.792830e+01  -1.190725e+01
   7.911699e+01   5.176237e+01
   4.531152e+01   4.976422e+01
   7.052584e+01  -1.694339e+01
   6.764966e+01   5.282681e+00
   7.039688e+01   9.640323e+01
  -2.801393e+01   1.612178e+02
  -1.058621e+02   1.380978e+02
  -1.613713e+02   2.145432e+01
  -1.448378e+02  -8.816968e+01
   5.803364e+00  -1.135829e+02
   8.051133e+01  -6.767772e+01
   9.643747e+01   1.468271e+01
  -5.327028e+01   4.261934e+01
  -1.651476e+02  -2.248406e+01
  -7.440172e+01  -1.082270e+02
   8.131050e+01  -1.709012e+02
   1.890312e+02  -4.898574e+01
   1.796134e+02   3.001914e+01
   2.458819e+01   7.507276e+01
  -4.070983e+01   7.182174e+01
  -4.133807e+01  -3.399713e-02
   2.047695e+01  -5.368233e+01
   1.054859e+02   1.067072e+00
   4.594278e+01   1.106489e+02
  -8.215254e+01   1.532220e+02
  -1.813496e+02   6.028136e+01
  -1.612325e+02  -1.201537e+02
   1.038615e+01  -2.157767e+02
   9.328397e+01  -1.465608e+02
   1.535018e+02   2.236174e+01
   6.609724e+01   1.399472e+02
   3.056887e+01   9.073692e+01
  -4.493663e+01   5.439616e+00
  -3.319557e+01  -2.335601e+01
  -4.287048e+01   3.224293e+01
   1.652333e+01   1.011475e+01
  -2.162206e+01  -1.300508e+01
  -4.175953e+01  -1.027920e+02
  -3.066125e+01  -8.055167e+01
   2.306574e+01  -4.643358e+01
   1.496654e+02   6.318485e+01
   1.378497e+02   5.510605e+01
   2.454095e+01   3.901447e+01
  -8.996578e+01   5.811379e+01
  -1.026894e+02   4.462042e+01
  -1.078740e+00  -2.073526e+01
   2.975613e+01  -3.505838e+01
   2.153290e+01  -2.061588e+01
  -1.963626e+01  -2.905367e+01
  -4.102211e+01   2.100703e+01
   9.916718e+01  -1.687622e+00
   7.303295e+01   1.620637e+01
   2.329173e+01   8.996382e+01
  -6.194640e+01   1.318752e+02
  -1.821565e+02   5.852644e+01
  -1.229175e+02  -5.414100e+01
  -4.601551e+01  -1.940899e+02
   5.352470e+01  -1.317248e+02
   1.204000e+02  -8.767448e+01
   8.003196e+01   1.512885e+01
   3.962985e+01   6.476651e+01
  -2.461692e+01   1.386001e+01
   9.939798e+00   2.962671e+00
   4.455924e+01   4.466889e+01
   1.401218e+01   8.818626e+01
  -6.549829e+00   7.478205e+01
  -7.457907e+01   2.382038e+00
  -5.506315e+01  -6.986801e+01
  -2.407942e+01  -1.018000e+02
   6.697627e+01  -4.043058e+01
   8.883686e+01   8.262140e+01
   9.597967e+00   1.204104e+02
  -7.957944e+01   6.433057e+01
  -9.463539e+01  -4.548834e+00
  -3.570927e+01  -2.120061e+01
   5.846454e+01  -5.469075e+01
   2.443827e+01  -3.500000e+01
  -4.239809e+01   2.302454e+01
  -6.201182e+01   1.290075e+01
  -1.070739e+00  -2.518090e+01
   8.465070e+01  -7.158276e+01
   9.918318e+01  -6.564484e+01
   8.339525e+01   3.592472e+00
   2.319167e+00   7.708397e+01
  -8.960534e+01   5.519659e+01
  -5.245350e+01  -1.417096e+01
  -3.444993e+00  -7.092532e+01
   2.740053e+01  -2.757295e+01
   6.331992e+01   9.123751e+00
   6.074395e+01   5.483106e+01
   6.730060e+00   3.880554e+01
  -5.918402e+01  -1.427669e+01
  -3.454977e+01  -2.450682e+00
  -3.767495e+01  -1.221031e+01
   7.386477e+00   1.318923e+01
  -1.723336e+00   3.854281e+01
  -2.781581e+01  -3.257664e+01
   1.851771e+01  -6.896261e+01
   4.538802e+01  -9.489750e+00
   4.823012e+00   4.706206e+01
  -1.070596e+01   5.291984e+01
  -3.837437e+01   3.227235e+01
  -7.242862e+01  -2.793268e+01
  -2.225832e+01  -3.445180e+01
   5.825320e+01  -4.924930e+01
   1.263955e+02   8.981448e+00
   4.220750e+01   5.858838e+01
  -2.169009e+01   5.136168e+01
  -6.504314e+01  -2.437441e+00
  -1.843851e+01  -1.878169e+01
   5.153539e+01  -7.188842e+00
   1.749828e+01   2.426911e+01
  -3.524712e+01   4.687244e+01
  -9.302945e+01   1.860411e+01
