
 $NMID
 id='ANONYMOUS ', fmtdat='(2E16.6)'
 volume=1.0
 tramp=1.0
 $END
   4.453731e+03   2.794329e+02
   2.534640e+03   3.004349e+03
  -7.822434e+02   3.067884e+03
  -2.172845e+03   1.061157e+03
  -1.044841e+03  -6.740939e+02
   7.059047e+02  -5.839546e+02
   9.717864e+02   4.576189e+02
   1.698902e+01   1.184743e+03
  -8.903555e+02   8.640064e+02
  -1.010694e+03  -2.862230e+01
  -5.699988e+02  -9.281460e+02
   2.070742e+02  -9.415260e+02
   7.366296e+02  -1.342036e+02
   5.169930e+02   7.875116e+02
  -2.844935e+02   8.360626e+02
  -6.954112e+02   2.529384e+00
  -3.309771e+02  -7.651793e+02
   3.749811e+02  -7.367952e+02
   6.776059e+02  -1.123331e+02
   4.356391e+02   4.020390e+02
   2.035033e+01   4.700284e+02
  -2.387748e+02   2.624469e+02
  -2.255238e+02   4.580794e+01
   1.497289e+02  -8.560022e+01
   4.157638e+02   1.241321e+02
   2.219791e+02   5.037812e+02
  -4.607072e+02   4.413660e+02
  -9.309802e+02  -1.307576e+01
  -5.006894e+02  -6.696447e+02
   3.930345e+02  -5.936319e+02
   7.612887e+02  -1.659033e+00
   4.179662e+02   4.981153e+02
  -2.832757e+02   5.328188e+02
  -6.033109e+02   2.145265e+02
  -4.386220e+02  -2.044276e+02
  -7.734951e+01  -4.602324e+02
   2.297570e+02  -2.965596e+02
   2.093318e+02   2.335563e+02
  -1.895824e+02   4.577133e+02
  -4.839779e+02  -7.046824e+01
  -2.763754e+02  -7.177146e+02
   2.896500e+02  -7.333390e+02
   6.372091e+02  -3.124616e+01
   3.073859e+02   5.396525e+02
  -3.200809e+02   3.624269e+02
  -3.695701e+02  -3.092517e+02
   4.705712e+01  -5.523472e+02
   6.485572e+02  -2.300976e+02
   6.386811e+02   3.502854e+02
   1.857777e+02   5.855172e+02
  -3.867466e+02   4.011498e+02
  -7.186769e+02  -5.170036e+01
  -4.037957e+02  -3.843525e+02
   1.228431e+02  -4.173851e+02
   4.713802e+02  -8.128995e+01
   3.273171e+02   2.105779e+02
  -1.183776e+02   1.182699e+02
  -1.668277e+02  -1.636014e+02
   1.559493e+02  -2.106652e+02
   4.092331e+02   2.217541e+01
   2.081859e+02   3.305641e+02
  -1.523290e+02   2.445921e+02
  -3.737304e+02   5.837907e+01
  -2.129251e+02  -9.208611e+01
   4.370235e+01  -2.320918e+02
   2.278086e+02  -3.418592e+02
   3.414465e+02  -2.590007e+02
   2.971048e+02   1.136754e+02
   9.476530e+01   4.314536e+02
  -8.300699e+01   3.564274e+02
  -1.090890e+02   1.144042e+02
  -6.277341e+01   4.172089e+00
  -4.464021e+01   8.536582e+01
  -1.831758e+02   1.426557e+02
  -2.579362e+02  -7.482725e+01
  -1.371992e+02  -2.921398e+02
   6.245351e+01  -2.780388e+02
   2.472493e+02  -1.495552e+01
   2.480767e+02   2.449216e+02
   6.350795e+01   2.928796e+02
  -2.712796e+02   1.378959e+02
  -3.980036e+02  -1.845446e+02
  -1.959427e+02  -3.884742e+02
   6.651418e+01  -3.343109e+02
   2.550869e+02  -1.796181e+02
   1.595401e+02  -5.313056e+01
   8.748841e+01  -1.195030e+01
   2.212546e+02  -8.495091e+01
   3.910594e+02   2.552757e+01
   3.847913e+02   2.413283e+02
   4.307830e+01   5.074062e+02
  -3.294784e+02   4.554507e+02
  -4.794441e+02   2.438729e+02
  -3.534294e+02  -9.492707e+01
  -8.940081e+01  -3.086772e+02
   9.222245e+01  -2.827555e+02
   9.869143e+01  -3.015042e+01
  -1.239770e+02   1.285001e+02
  -1.961747e+02   3.204098e+01
  -8.530391e+01  -2.006676e+02
   1.427814e+02  -2.013435e+02
   1.855781e+02   1.385465e+01
  -1.684476e+01   1.867948e+02
  -2.062574e+02   2.479927e+01
  -1.783591e+02  -2.803782e+02
   4.684490e+00  -3.890355e+02
   2.264848e+02  -1.894211e+02
   3.390512e+02   3.560345e+01
   3.125374e+02   1.982941e+02
   1.639150e+02   2.574676e+02
  -1.002483e+02   1.466807e+02
  -1.878187e+02   4.370178e+01
  -6.933761e+01  -3.629735e+01
   5.138285e+01   2.249228e+01
   2.032279e+01   1.202563e+02
  -1.173152e+02   1.272141e+02
  -1.927121e+02   1.421484e+01
  -7.733425e+01  -4.721434e+01
   7.694529e+01  -3.090082e+01
   6.628562e+01   6.947914e+01
  -9.457439e+01   1.014896e+02
  -3.262996e+02  -4.800897e+00
  -2.696409e+02  -1.279489e+02
  -1.210922e+02  -2.789414e+02
   1.409769e+02  -2.924599e+02
   2.576553e+02  -1.738616e+02
   1.750450e+02   2.616055e+01
  -9.357610e+00   1.284732e+02
  -8.633639e+01   3.867555e+00
   1.953275e+01  -1.257762e+02
   2.063796e+02  -1.018269e+02
   2.329307e+02   7.368572e+01
   8.487585e+01   2.375172e+02
  -7.856234e+01   1.531619e+02
  -1.461963e+02   1.898827e+00
  -6.605644e+01  -6.832140e+01
   3.574969e+01   8.899496e+00
   2.783359e+01   9.829031e+01
  -7.622760e+01   1.389780e+02
  -2.249600e+02   3.018169e+01
  -2.119250e+02  -1.115187e+02
  -2.195699e+01  -1.999008e+02
   1.527205e+02  -1.945847e+02
   1.988814e+02  -2.450567e+01
   5.671251e+01   1.237256e+02
  -2.961963e+01   1.037504e+02
  -8.502780e+01   3.289328e+01
  -1.521315e+01  -1.017930e+00
   5.040492e+01  -2.941715e+01
  -6.101835e+00  -1.546350e+01
  -7.964582e+01  -1.104398e+01
  -1.169785e+02  -6.475376e+01
  -6.473349e+00  -1.591663e+02
   1.122744e+02  -1.648787e+02
   2.575294e+02  -4.208662e+01
   1.883116e+02   1.436032e+02
   6.856739e+01   2.738391e+02
  -1.033306e+02   2.164880e+02
  -1.799818e+02   4.403420e+01
  -8.973456e+01  -6.362060e+01
  -4.889914e+01  -3.747829e+01
  -7.972548e+01   1.657186e+01
  -1.166545e+02  -8.920167e-01
  -3.709168e+01  -3.661326e+01
   6.340559e+01  -9.146598e+01
   1.128485e+02  -7.619669e+00
   8.340121e+01   5.021002e+01
  -4.463155e-01   1.171458e+02
  -1.258159e+02   8.968847e+01
  -2.218998e+02  -5.178425e+01
  -1.212253e+02  -1.884496e+02
   8.212507e+01  -2.573220e+02
   2.961930e+02  -1.237618e+02
   3.206462e+02   3.082338e+01
   1.566809e+02   1.977398e+02
  -3.610119e+01   1.799614e+02
  -7.334588e+01   8.314093e+01
  -8.328697e+01   9.500927e+01
  -8.400526e+01   1.050540e+02
  -9.481973e+01   9.264486e+01
  -1.349927e+02  -2.894779e+01
  -1.366881e+02  -1.901837e+02
  -2.946564e+01  -2.774573e+02
   9.759731e+01  -1.809091e+02
   1.800598e+02  -4.165736e+01
   1.448664e+02   9.569441e+01
   2.314649e+01   1.872661e+02
  -5.047324e+01   8.487549e+01
  -3.775971e+01   1.202886e+01
  -5.215323e+00  -5.565138e+01
  -3.155738e+00  -3.897564e+01
  -4.521954e+01  -3.276216e+01
  -8.150479e+01  -8.118386e+00
  -6.747890e+01  -4.324430e+01
   4.305672e+01  -3.688999e+01
   1.550386e+02   4.664161e-02
   1.250158e+02   2.490530e+01
   2.359794e+01   9.328227e+01
  -1.387686e+02   6.642745e+01
  -1.739978e+02   6.958480e+00
  -6.295773e+01  -5.544997e+01
   7.953220e+01  -4.006663e+01
   8.826746e+01   1.198183e+00
   6.175406e-01   7.865863e+01
  -6.782386e+01   8.504636e+01
  -6.707721e+01   1.286192e+00
  -4.969787e+01  -4.483025e+01
  -8.472003e+01  -2.476214e+01
  -6.594436e+01  -1.106268e+01
  -6.156177e+01  -1.715650e+01
  -8.017532e+01  -5.823179e+01
   1.836965e+01  -1.426992e+02
   1.125105e+02  -1.592924e+02
   1.504067e+02  -1.031387e+01
   1.403040e+02   8.492273e+01
   2.702130e+00   1.169109e+02
  -7.460380e+01   6.854292e+01
  -6.197520e+01   1.881900e+00
   3.355321e+01  -1.285898e+01
   1.456216e+02   3.380507e+01
   6.083952e+01   1.182708e+02
  -9.975150e+01   1.172835e+02
  -1.619436e+02   5.700347e+01
  -1.572174e+02  -1.782320e+01
  -4.509216e+01  -8.171090e+01
   8.063037e+01  -5.347517e+01
   1.356624e+01   1.275661e+01
  -2.778260e+01   3.867962e+01
  -9.218469e+01  -3.030336e+01
  -3.420377e+01  -1.215118e+02
   6.894771e+01  -1.489065e+02
   1.585532e+02  -6.458924e+01
   1.400983e+02   8.845534e+01
   3.492914e+01   2.048727e+02
  -8.567326e+01   1.425944e+02
  -1.279990e+02   2.608242e+01
  -9.964318e+01  -1.132196e+02
  -8.120206e+00  -9.896967e+01
   4.716293e+01  -4.902969e+00
   5.242083e+01   4.749460e+01
   2.276210e+01  -6.053282e+00
   3.535756e+00  -3.383846e+01
  -1.959621e+00   2.567364e+01
   3.656219e+01   1.013993e+02
   2.488113e+01   1.160392e+02
  -2.944077e+01   4.687729e+01
  -1.550319e+02  -6.779913e+01
  -1.507309e+02  -5.774918e+01
  -1.084720e+01  -4.790978e+01
   6.709978e+01  -4.965679e+01
   9.281942e+01  -7.789681e+00
   2.198148e+01  -7.902713e+00
  -3.036295e+01   4.417268e+01
  -5.416972e+00   2.465592e+01
   4.815939e+01   1.618359e+01
  -1.633137e+01  -3.699167e+00
  -7.866315e+01  -2.134828e+00
  -8.711336e+01  -7.723084e+00
  -1.353894e+01  -8.478334e+01
   1.042137e+02  -1.330494e+02
   1.754822e+02  -6.097809e+01
   1.533671e+02   3.698363e+01
   2.397771e+01   1.736834e+02
  -7.010914e+01   1.561063e+02
  -1.275661e+02   9.465927e+01
  -1.177427e+02  -4.445726e+01
  -4.073258e+01  -4.047635e+01
   7.598675e+00  -2.449954e+01
  -2.012640e+01  -9.625564e+00
  -6.563355e+01  -5.642476e+01
  -3.054561e+01  -8.729791e+01
   8.105642e+00  -6.718653e+01
   6.706275e+01   1.012584e+01
   6.301707e+01   9.542924e+01
   1.505853e+01   1.252454e+02
  -8.596457e+01   1.947897e+01
  -1.099350e+02  -7.698683e+01
  -5.341325e+01  -1.144412e+02
   9.114294e+01  -8.555001e+01
   1.455743e+02   1.719335e+00
   6.522816e+01   5.295994e+01
  -3.397368e+01   5.780101e+01
  -4.024654e+01   2.922026e+01
   2.604311e+01   1.930804e+01
   5.131449e+01  -6.004155e+00
   1.469632e+01   3.461822e+01
  -6.130358e+01   4.745249e+01
  -1.016032e+02   7.725078e+01
  -3.270959e+01   3.312857e+00
   3.559124e+01  -7.959725e+01
   7.980148e+01  -7.633174e+01
   5.899621e+01   1.372005e+01
   1.875342e+01   8.625507e+01
  -2.630068e+01   4.058699e+01
  -3.676114e+01  -2.014234e+01
  -2.476478e+01  -5.877569e+01
  -1.646631e+01  -4.755635e+01
   4.201811e+01   7.461739e+00
   3.385520e+01   1.707295e+01
   3.845113e+01   1.153820e+01
  -7.496119e+00   1.923641e+01
   7.345621e+00   7.889553e+00
   1.274981e+01   4.917009e+01
   1.397606e+00   4.218311e+01
  -5.292184e+01  -2.365059e+00
  -3.416062e+01  -6.318400e+01
   1.684908e+01  -6.965511e+01
   3.099706e+01  -8.116961e+00
   3.587322e+01   2.530963e+01
   1.348812e+01   5.609058e+01
  -4.178047e+01   1.346162e+01
  -1.038259e+02  -1.582749e+01
  -5.062010e+01  -3.821791e+01
   2.032936e+01  -2.622919e+01
   7.705062e+01  -5.099293e+01
   1.086819e+01  -2.285377e+01
  -3.016113e+01   3.905173e+00
  -4.895715e+01  -2.791691e+01
   3.437681e+01  -3.574631e+01
   1.151382e+02   9.082077e+00
