
 $NMID
 id='ANONYMOUS ', fmtdat='(2E16.6)'
 volume=1.0
 tramp=1.0
 $END
   3.829642e+03  -4.435341e+02
   2.359835e+03   2.028879e+03
  -2.828166e+02   2.496049e+03
  -1.412231e+03   1.145484e+03
  -9.311958e+02  -5.914652e+01
   1.683927e+02  -3.509078e+02
   5.044816e+02   1.498574e+02
   2.304171e+01   7.388959e+02
  -5.566874e+02   6.574513e+02
  -7.175881e+02   4.683422e+01
  -4.568239e+02  -6.133674e+02
   8.667728e+01  -7.568399e+02
   4.907785e+02  -1.711544e+02
   3.492066e+02   4.893510e+02
  -1.686799e+02   6.030925e+02
  -4.760373e+02   5.741710e+01
  -3.324785e+02  -5.077666e+02
   1.440219e+02  -6.120684e+02
   4.961273e+02  -2.305397e+02
   4.043923e+02   2.112718e+02
   1.161737e+02   4.011513e+02
  -1.670463e+02   2.593238e+02
  -1.187896e+02   3.594632e+00
   1.760301e+02  -2.897020e+01
   3.359487e+02   2.322319e+02
   3.518042e+01   3.634111e+02
  -4.493000e+02   3.071450e+02
  -7.097611e+02  -1.253803e+02
  -3.163479e+02  -4.046952e+02
   3.024121e+02  -3.261527e+02
   5.842178e+02   1.232882e+02
   2.822579e+02   4.030110e+02
  -2.278899e+02   4.307473e+02
  -4.896425e+02   1.817586e+02
  -3.774665e+02  -1.830641e+02
  -9.800840e+01  -3.874421e+02
   1.262341e+02  -2.266451e+02
   9.203660e+01   1.841571e+02
  -1.758364e+02   3.193357e+02
  -3.307852e+02  -5.833092e+01
  -1.253779e+02  -5.326216e+02
   2.276829e+02  -5.221545e+02
   4.061345e+02  -2.753478e+01
   1.616302e+02   3.555322e+02
  -1.802344e+02   2.054780e+02
  -2.554381e+02  -2.921119e+02
   5.292904e+01  -3.885742e+02
   4.220918e+02  -5.288362e+01
   4.995206e+02   3.054742e+02
   2.252231e+02   4.943294e+02
  -2.785695e+02   3.050296e+02
  -5.244312e+02  -1.156192e+00
  -3.213060e+02  -3.045335e+02
   8.114909e+01  -2.264826e+02
   3.805209e+02  -7.538080e+01
   2.004873e+02   7.397155e+01
  -4.118196e+01   7.827476e+01
  -4.776012e+01  -5.470185e+01
   9.496726e+01  -6.257349e+01
   2.323608e+02   6.630070e+01
   1.156316e+02   2.319808e+02
  -1.452225e+02   2.476467e+02
  -2.581234e+02   1.264982e+02
  -2.362955e+02  -6.922816e+01
  -1.677713e+01  -3.078966e+02
   2.558975e+02  -3.653695e+02
   4.025171e+02  -1.332691e+02
   2.797812e+02   2.001482e+02
   4.611040e+01   3.741724e+02
  -7.177544e+01   3.338630e+02
  -8.627797e+01   1.334106e+02
  -4.942714e+01   4.394029e+01
  -9.012151e+01   1.088123e+02
  -2.172920e+02   1.087285e+02
  -2.370944e+02  -1.027132e+02
  -1.128764e+02  -2.476655e+02
   8.391901e+01  -2.065337e+02
   1.875741e+02   2.686182e+01
   1.932081e+02   2.591689e+02
   3.512146e+00   2.494480e+02
  -2.704453e+02   1.066461e+02
  -3.496960e+02  -1.237309e+02
  -2.076343e+02  -3.087635e+02
   6.378003e+01  -2.782655e+02
   1.498360e+02  -1.559267e+02
   1.163764e+02  -4.076353e+01
   1.261934e+02  -8.048151e+01
   2.613102e+02  -8.627986e+01
   3.608877e+02   4.472807e+01
   3.204847e+02   2.472585e+02
   2.015452e+00   4.047287e+02
  -2.641763e+02   3.560864e+02
  -4.444317e+02   1.800833e+02
  -2.699991e+02  -7.050443e+01
  -6.258058e+01  -2.694861e+02
   1.048338e+02  -1.775926e+02
   5.873689e+01  -1.358573e+01
  -1.313951e+02   1.097430e+02
  -1.690127e+02  -6.561211e+00
  -2.725046e+01  -1.377763e+02
   7.788038e+01  -1.018438e+02
   8.766229e+01   4.771989e+01
  -3.562271e+01   1.286089e+02
  -1.530001e+02   2.122504e+01
  -1.656135e+02  -2.104478e+02
   1.047920e+01  -3.502293e+02
   2.206497e+02  -2.172741e+02
   3.084570e+02   3.310247e+01
   2.490701e+02   2.133810e+02
   9.906932e+01   2.542907e+02
  -1.121795e+02   1.366986e+02
  -1.591484e+02   2.388998e+01
  -3.924895e+01  -3.033995e+01
   5.292567e+01   3.040328e+01
   1.362270e+01   1.186664e+02
  -1.213012e+02   8.736354e+01
  -1.058907e+02  -1.296693e+01
  -2.752409e+01  -9.161888e+01
   8.784039e+01  -1.775208e-01
   4.743129e+01   8.097175e+01
  -1.200567e+02   6.365355e+01
  -2.745689e+02  -1.283014e+01
  -2.349977e+02  -1.444591e+02
  -2.684801e+01  -2.296107e+02
   1.942782e+02  -2.509597e+02
   2.700642e+02  -9.809971e+01
   1.581886e+02   6.228965e+01
  -6.888055e+00   1.117510e+02
  -5.923919e+01  -4.801265e+00
   4.591843e+01  -8.326297e+01
   1.501405e+02  -4.926104e+01
   1.620021e+02   8.045626e+01
   7.588061e+01   1.715196e+02
  -1.051507e+02   1.632644e+02
  -1.600129e+02   1.102892e+01
  -8.545250e+01  -3.695899e+01
   3.375210e+01  -1.302370e+01
   5.780070e+01   1.017110e+02
  -7.310242e+01   1.413021e+02
  -2.151971e+02   3.344873e+01
  -2.349495e+02  -1.050830e+02
  -6.575381e+00  -1.937346e+02
   1.851864e+02  -1.541354e+02
   1.680179e+02  -9.263045e+00
   6.400959e+01   8.537001e+01
  -2.896934e+00   9.881404e+01
  -1.039354e+02   8.812976e+00
  -2.966995e+01  -3.459254e+01
   1.212253e+01  -1.366218e+01
   6.742210e+00  -1.439977e+01
  -4.549076e+01   1.531100e+00
  -9.620657e+01  -5.060027e+01
  -1.458145e+01  -1.661007e+02
   8.971504e+01  -1.662168e+02
   2.245374e+02  -6.175480e+00
   1.922632e+02   1.391762e+02
   7.378422e+01   2.651380e+02
  -7.946250e+01   1.557760e+02
  -1.168894e+02   4.295825e+01
  -7.749078e+01  -4.314382e+01
  -1.844104e+01  -3.050714e+01
  -7.481835e+01   4.348257e+01
  -9.443549e+01   9.672676e+00
  -7.135946e+01  -3.508582e+01
   2.471945e+00  -8.217635e+01
   1.057987e+02  -8.223554e+01
   1.160385e+02   2.113363e+01
  -8.843992e+00   1.220965e+02
  -1.452386e+02   7.516061e+01
  -2.101857e+02  -4.344299e+01
  -1.127484e+02  -1.874691e+02
   8.531615e+01  -2.372797e+02
   2.510105e+02  -1.045057e+02
   2.345425e+02   7.213301e+01
   9.087315e+01   1.385120e+02
  -6.057274e+01   1.496365e+02
  -9.154360e+01   6.547485e+01
  -8.039699e+01   5.156190e+01
  -1.818228e+01   6.764812e+01
  -6.673697e+01   8.785866e+01
  -1.159879e+02  -1.753134e+01
  -9.606618e+01  -1.309608e+02
  -3.561198e+01  -2.052467e+02
   1.064134e+02  -1.835546e+02
   1.527610e+02  -4.559396e+01
   1.172185e+02   1.223480e+02
   2.892394e+01   1.827306e+02
  -9.399869e+01   8.878241e+01
  -7.187613e+01  -1.865953e+01
   3.496441e+00  -6.848259e+01
   4.585001e+01  -3.748511e+01
  -7.493806e+00  -2.304835e+01
  -7.410079e+01   2.623210e+01
  -3.104178e+01  -1.126889e+01
   2.862607e+01  -3.737489e+01
   1.597973e+02  -1.327094e+01
   1.397459e+02   2.387074e+01
   5.190639e+01   6.390366e+01
  -1.285288e+02   9.028568e+01
  -1.203930e+02   1.978238e+01
  -5.329077e+01  -4.194712e+01
   6.519975e+01  -3.384118e+01
   7.118156e+01   2.867709e+01
   1.656341e+01   7.466022e+01
  -2.149312e+01   5.602900e+01
  -8.233571e+01  -6.742823e+00
  -5.377565e+01  -3.111693e+01
  -3.597573e+01  -5.973878e+01
  -6.265936e+01   2.111389e+01
  -7.784220e+01  -4.387084e+00
  -3.463063e+01  -7.964827e+01
   1.446197e+01  -1.627095e+02
   1.402313e+02  -1.486304e+02
   1.572046e+02  -5.082358e+01
   1.304954e+02   1.073773e+02
   9.724792e+00   1.436343e+02
  -8.302010e+01   7.214535e+01
  -7.934840e+01   2.822800e+00
   4.575237e+01  -9.749987e+00
   1.067679e+02   1.655089e+01
   4.079275e+01   8.026578e+01
  -7.074934e+01   1.253398e+02
  -1.657100e+02   3.699899e+01
  -1.613767e+02  -3.883726e+01
  -5.943578e+01  -9.027308e+01
   4.676431e+01  -8.480872e+01
   6.603731e+01  -1.269516e+01
  -3.710972e+01  -2.131676e+00
  -9.471583e+01   1.499962e+00
  -3.558903e+01  -1.150158e+02
   7.336937e+01  -1.531282e+02
   1.864460e+02  -8.581585e+01
   8.937434e+01   4.929451e+01
   2.655126e+01   1.722324e+02
  -7.856291e+01   1.547105e+02
  -1.122849e+02   3.393480e+00
  -5.245813e+01  -9.480448e+01
  -2.029479e+01  -1.022846e+02
   5.787974e+01  -2.826063e+01
   4.432712e+01   3.874723e+01
   2.355440e+01   6.530142e-01
  -2.467572e+01  -1.453739e+01
   3.342187e+01   1.934306e+00
   5.018167e+01   7.730656e+01
   1.133043e+01   1.321054e+02
  -7.226624e+01   4.349560e+01
  -1.355180e+02  -2.583780e+01
  -1.141698e+02  -7.765642e+01
  -9.248532e+00  -7.201063e+01
   7.519154e+01  -4.195685e+01
   7.635956e+01  -2.537427e+01
   2.164054e+01   5.368375e+00
  -1.046391e+01   2.300431e+01
  -4.731797e+01   7.232582e+00
   2.843242e+00   1.953294e+01
   1.636296e+01  -1.901895e+01
  -5.960668e+01  -3.413632e+00
  -1.168327e+02  -8.821256e+00
  -3.451195e+01  -5.328541e+01
   1.180772e+02  -1.167887e+02
   1.474986e+02  -7.395476e+01
   1.373852e+02   2.774682e+01
   5.527383e+01   1.448993e+02
  -6.389042e+01   1.267106e+02
  -1.072319e+02   5.605382e+01
  -8.229533e+01  -1.328738e+01
  -4.010530e+01  -3.807799e+01
   9.142674e+00  -9.536460e+00
  -1.109330e+01  -4.446032e+00
  -5.123331e+01  -3.380000e+01
  -2.953983e+01  -5.821807e+01
   1.852196e+01  -7.604396e+01
   8.006026e+01  -1.678521e+01
   1.010525e+02   8.992683e+01
   7.150783e+00   1.245146e+02
  -9.061327e+01   4.058157e+01
  -9.184892e+01  -5.600005e+01
  -2.470561e+01  -9.764704e+01
   3.069019e+01  -6.902311e+01
   9.246375e+01   3.731675e+00
   4.898833e+01   6.717252e+01
  -2.629526e+01   6.725907e+01
  -5.931659e+01   2.872095e+01
   1.116457e+01  -1.076612e+01
   3.213333e+01  -2.895072e+01
   3.000743e+01   2.521697e+01
  -7.770992e+01   8.241603e+01
  -1.128640e+02   5.467391e+01
  -6.072759e+01  -3.444838e+01
  -1.284847e+01  -8.392499e+01
   6.507455e+01  -6.890720e+01
   2.820701e+01  -1.332513e+01
  -1.377729e+01   8.718342e+01
  -1.716565e+01   3.422241e+01
  -4.819669e+01  -3.213852e+01
  -4.115642e+01  -7.687092e+01
  -1.624567e+00  -2.680724e+01
   4.135992e+01  -1.421306e+01
   3.043928e+01   1.957054e+01
   2.988232e+01   1.451632e+01
  -1.517801e+00  -2.554635e+01
   1.335407e+01  -5.482237e+00
   5.683449e+00   3.817227e+01
  -6.965714e+00   3.480376e+01
  -1.305523e+01   3.714411e+01
  -5.790986e+01  -7.224376e+00
  -8.402682e-01  -2.644045e+01
   3.553496e+01  -4.377452e+01
   7.114674e+01   5.734387e+01
   1.516835e+01   4.501243e+01
  -5.296491e+01   6.173652e+01
  -7.674823e+01  -2.104369e+01
  -6.023914e+01  -6.155070e+01
   2.047711e+01  -6.403424e+01
   7.979304e+01   2.080034e+01
  -1.448675e+00   4.626616e+00
  -3.654413e+01   6.477736e+00
  -5.247982e+01  -4.964995e+00
   4.884950e-01  -4.201777e+01
   8.050145e+01  -5.154547e+01
