
 $NMID
 id='ANONYMOUS ', fmtdat='(2E16.6)'
 volume=1.0
 tramp=1.0
 $END
   3.018415e+03  -4.584140e+02
   2.091362e+03   1.488308e+03
  -1.550739e+02   1.797682e+03
  -1.281028e+03   9.793669e+02
  -6.670663e+02  -8.029178e+01
   2.048832e+02  -2.419481e+02
   4.317029e+02   2.213939e+02
  -3.012559e+01   4.792813e+02
  -4.913953e+02   4.415391e+02
  -4.671293e+02   3.691434e+01
  -2.915917e+02  -4.288743e+02
   8.653613e+01  -4.722888e+02
   3.017534e+02  -6.553274e+01
   2.693929e+02   4.084246e+02
  -1.565430e+02   3.936699e+02
  -3.478743e+02   8.716465e-01
  -2.458732e+02  -3.761173e+02
   1.661808e+02  -3.799589e+02
   3.401495e+02  -1.580322e+02
   2.253932e+02   1.259852e+02
   1.023882e+02   2.508159e+02
  -1.117645e+02   1.538721e+02
  -1.143347e+02   3.625864e+01
   1.327393e+02   2.856491e+01
   2.558064e+02   1.248982e+02
   4.440779e+01   2.913802e+02
  -3.404474e+02   2.412843e+02
  -5.598844e+02  -2.757613e+01
  -2.709562e+02  -2.379188e+02
   2.432244e+02  -1.897704e+02
   4.418067e+02   5.284148e+01
   1.792195e+02   2.613744e+02
  -1.677981e+02   3.374131e+02
  -3.546755e+02   1.327034e+02
  -2.780856e+02  -1.176871e+02
  -1.197745e+02  -2.427457e+02
   6.712568e+01  -1.476166e+02
  -8.555286e+00   7.962478e+01
  -1.245930e+02   1.813264e+02
  -1.490775e+02  -5.350319e+01
  -6.614314e+01  -4.037379e+02
   1.429380e+02  -3.571994e+02
   3.231124e+02  -3.511574e+01
   1.672914e+02   3.152049e+02
  -1.479595e+02   1.769282e+02
  -2.125115e+02  -2.569956e+02
   4.316724e+01  -3.326022e+02
   3.338139e+02  -1.046822e+02
   4.218737e+02   2.148881e+02
   1.458920e+02   3.867936e+02
  -2.348349e+02   2.463237e+02
  -4.133415e+02  -9.763734e+00
  -2.454564e+02  -2.050171e+02
   6.979603e+01  -1.772989e+02
   2.108330e+02  -5.820491e+01
   1.772707e+02   4.283681e+01
  -6.977682e+01   3.536358e+01
  -4.142010e+01  -9.607802e+01
   8.565775e+01  -8.197305e+01
   1.696286e+02   5.830539e+01
   7.269739e+01   1.599270e+02
  -1.314533e+02   1.563577e+02
  -2.046640e+02   7.852946e+01
  -1.677205e+02  -5.124478e+01
  -1.834197e+01  -1.608707e+02
   1.548362e+02  -2.709353e+02
   2.078945e+02  -1.576815e+02
   1.851103e+02   1.021222e+02
   8.121577e+01   3.228874e+02
  -3.363312e+01   2.685895e+02
  -5.008974e+01   7.422312e+01
  -2.825987e+01   2.525773e+01
  -7.763800e+01   8.503366e+01
  -1.553173e+02   8.238572e+01
  -1.897432e+02  -6.633145e+01
  -1.021420e+02  -1.714184e+02
   6.121156e+01  -1.489380e+02
   1.300995e+02   3.422502e+01
   8.287134e+01   1.891263e+02
   9.182012e+00   1.827479e+02
  -1.790219e+02   9.311380e+01
  -2.428995e+02  -8.668482e+01
  -1.810990e+02  -2.234445e+02
   1.933224e+01  -2.278141e+02
   1.423877e+02  -1.392024e+02
   8.478723e+01  -6.396522e+01
   8.968767e+01  -8.152947e+01
   1.818914e+02  -8.158774e+01
   2.750635e+02   3.071830e+01
   2.700927e+02   1.733255e+02
  -1.527874e+01   2.947717e+02
  -2.295897e+02   3.417632e+02
  -3.026675e+02   1.799566e+02
  -2.329331e+02  -1.875036e+01
  -5.540128e+01  -1.596749e+02
   6.709987e+01  -1.637518e+02
  -8.884511e+00  -2.679090e+01
  -3.890624e+01   3.373872e+01
  -1.158233e+02   1.037668e+00
  -1.076459e+01  -1.181403e+02
   3.583426e+01  -7.266223e+01
   1.164792e+02   4.424376e+01
   3.613436e+00   1.495125e+02
  -1.268580e+02   2.141499e+01
  -1.298061e+02  -1.193752e+02
  -1.036511e+01  -2.305706e+02
   1.206723e+02  -1.320782e+02
   2.397024e+02   2.411310e+01
   1.819991e+02   1.731392e+02
   8.460571e+01   1.726762e+02
  -5.894502e+01   1.095305e+02
  -1.001891e+02   2.456605e+01
  -5.511134e+01  -5.664414e+00
   4.996879e+01   7.289260e+01
   2.612136e+01   8.896917e+01
  -8.950890e+01   7.733488e+01
  -9.863727e+01   6.119479e+00
  -3.924404e+00  -5.697543e+01
   5.849969e+01   1.137611e+00
   5.761358e+01   7.097388e+01
  -9.667745e+01   7.300661e+01
  -2.354810e+02  -1.416092e+01
  -1.818858e+02  -6.346976e+01
  -5.905668e+01  -1.659248e+02
   1.346281e+02  -1.848364e+02
   1.367979e+02  -9.110428e+01
   1.385552e+02   2.121589e+01
   1.405481e+00   3.855101e+01
  -6.014985e+01  -2.864409e+00
   2.010080e+01  -7.745389e+01
   1.123978e+02  -5.456944e+01
   1.603588e+02   5.161992e+01
   9.009133e+01   1.561897e+02
  -5.193604e+01   1.321178e+02
  -1.018107e+02   4.768755e+01
  -4.509096e+01  -1.226105e+01
   1.116719e+01   8.284242e+00
   3.102110e+01   9.403457e+01
  -4.784904e+01   9.439252e+01
  -1.627354e+02   2.520033e+01
  -1.493992e+02  -9.827877e+01
  -3.587400e+01  -1.287174e+02
   1.165805e+02  -1.156968e+02
   1.302641e+02  -3.724905e+01
   4.610406e+01   7.187721e+01
  -1.025120e+01   1.067128e+02
  -7.187403e+01   2.683451e+01
  -2.427828e+01  -1.546996e+01
   3.072996e+01  -2.900155e+01
  -2.420863e+01   3.398956e+01
  -5.469864e+01  -8.464623e+00
  -9.593238e+01  -5.358302e+01
  -9.217497e+00  -1.250125e+02
   7.852894e+01  -8.899908e+01
   1.429699e+02  -1.743215e+01
   1.539950e+02   9.853784e+01
   4.692358e+01   1.601130e+02
  -6.377166e+01   1.331892e+02
  -9.666425e+01   4.408691e+01
  -5.866710e+01  -1.361477e+01
  -1.923014e+01  -2.895589e+01
  -2.698132e+01   1.830327e+01
  -7.362595e+01  -7.238471e+00
  -2.019645e+01  -1.069273e+01
   3.576994e+01  -8.043842e+01
   6.992745e+01  -4.502478e+01
   8.583192e+01   5.427286e+01
   7.913369e+00   8.633143e+01
  -1.150670e+02   7.610335e+01
  -1.291937e+02  -1.708770e+01
  -7.619163e+01  -1.784279e+02
   8.234806e+01  -1.517675e+02
   1.774383e+02  -3.984010e+01
   2.008962e+02   4.493223e+01
   7.241937e+01   1.029099e+02
  -2.279414e+01   1.088764e+02
  -5.926195e+01   6.293383e+01
  -3.598822e+01   5.766142e+01
  -3.370018e+01   8.676428e+01
  -7.137738e+01   5.892211e+01
  -1.118762e+02  -2.079526e+01
  -1.061985e+02  -1.311017e+02
  -2.226692e+01  -1.723846e+02
   9.873713e+01  -1.438015e+02
   1.312145e+02   1.495741e+00
   7.168164e+01   5.959409e+01
   6.681961e+00   1.376309e+02
  -5.880531e+01   6.605547e+01
  -4.348980e+01  -1.022702e+01
   2.815646e+01  -3.181831e+01
   2.563875e+01  -2.481251e+01
  -4.371074e+01  -1.955265e+01
  -8.729885e+01  -1.647641e+01
  -4.399397e+01  -9.092149e+00
   6.304345e+01  -6.441895e+01
   1.423101e+02  -1.685440e+01
   1.078172e+02   4.059593e+01
   1.878258e+01   7.228048e+01
  -8.031480e+01   2.105707e+01
  -9.460563e+01   1.347332e+01
  -3.085232e+01  -4.008906e+01
   1.699133e+01  -3.778028e+01
   3.707552e+01   2.016025e+01
   1.293295e+00   4.541740e+01
  -4.501077e+01   4.323321e+01
  -4.757782e+01  -3.105062e+00
  -9.811669e+00  -3.956243e+01
  -3.536450e+01  -2.126848e+01
  -7.866658e+01   1.500878e+01
  -5.738454e+01   1.638739e+01
  -3.224891e+01  -6.206849e+01
   3.607665e+00  -1.236856e+02
   8.558334e+01  -1.111587e+02
   8.864739e+01  -1.756540e+01
   1.057802e+02   6.903343e+01
   2.589837e+01   8.917403e+01
  -2.820870e+01   8.019898e+01
  -2.735467e+01  -1.582293e+00
   4.576066e+01  -1.247057e+01
   1.180169e+02   2.633256e+01
   2.964781e+01   9.764647e+01
  -5.819336e+01   8.326686e+01
  -1.285593e+02   4.030268e+01
  -1.043090e+02  -1.252111e+01
  -3.462839e+01  -4.479938e+01
   3.610529e+01  -3.475888e+01
   1.932134e+01  -2.007148e+01
  -3.930503e+01   6.790095e+00
  -3.853109e+01  -2.991233e+01
  -2.267079e+01  -5.491690e+01
   1.052279e+00  -7.926948e+01
   1.054904e+02  -6.142706e+01
   7.720255e+01   7.252877e+01
  -2.283065e+00   1.386895e+02
  -3.004996e+01   9.895165e+01
  -7.026852e+01   2.442342e+01
  -4.012481e+01  -9.880985e+01
  -3.757526e+00  -6.955821e+01
   4.664005e+01  -2.042963e+01
   4.419483e+01   4.397383e+00
   2.873981e+01   1.690087e+01
   2.025700e+01  -9.335111e+00
   3.298658e+01   2.249652e+01
   5.871803e+01   8.018753e+01
   1.422994e+01   6.229080e+01
  -4.884965e+01   4.311682e+01
  -7.868261e+01  -3.777656e+01
  -1.071694e+02  -5.702535e+01
  -9.749465e+00  -3.748727e+01
   7.540808e+01  -1.931335e+01
   5.514780e+01  -1.507992e+01
   2.101766e+01   2.027710e+01
  -6.383369e+00   3.013440e+01
  -1.058227e+01  -1.486661e+01
   1.517579e+01   9.313671e+00
   1.678171e+01  -5.417401e+01
  -4.173713e+01  -6.907326e+00
  -6.802060e+01  -1.123558e+01
  -9.054621e+00  -3.994325e+01
   8.679016e+01  -1.245950e+02
   1.460962e+02  -3.358176e+01
   1.123104e+02   2.535367e+01
   6.420396e+01   1.153700e+02
  -3.994403e+01   9.898799e+01
  -7.487468e+01   5.096612e+01
  -6.797498e+01  -1.612931e+01
  -3.501866e+01  -6.482217e+00
   7.365078e+00  -1.120836e+01
  -4.293875e+01   9.292487e+00
  -3.352639e+01  -2.800610e+01
  -1.026764e+01  -6.782702e+01
   2.775905e+01  -4.547226e+01
   6.152220e+01   2.361212e+01
   7.372078e+01   8.206418e+01
   7.083614e+00   9.526136e+01
  -5.784462e+01   1.549748e+01
  -6.553365e+01  -3.980678e+01
  -2.471986e+01  -8.306049e+01
   4.537713e+01  -2.832484e+01
   6.161149e+01  -5.754327e+00
   1.162845e+01   3.826428e+01
  -1.768367e+01   6.322685e+01
  -3.643814e+01   1.661534e+01
   5.590078e+00   3.557617e+00
   5.683264e+01  -1.727697e+01
   2.171697e+01   4.376876e+01
  -4.414626e+01   6.273532e+01
  -7.979595e+01   4.537673e+01
  -3.754582e+01  -1.103154e+01
   1.257839e+01  -7.498575e+01
   4.968690e+01  -8.615949e+01
   1.325107e+01   4.301362e+00
  -3.175660e+01   5.423243e+01
  -3.300095e+01   4.895528e+01
  -3.847013e+01  -4.330706e+00
  -2.801743e+01  -6.205756e+01
  -4.958926e+00  -5.302945e+01
   1.640094e+01   6.864388e+00
   4.574480e+01   1.892773e+01
   4.697817e+01   2.878238e+00
   1.771013e+01  -1.182181e+01
   1.466037e-01   5.858695e+00
   8.045380e-02   6.936594e+00
  -2.752536e+01   4.266022e+01
  -4.496286e+01   3.054807e+01
  -4.118600e+01  -2.389459e+01
   4.972519e+00  -7.914333e+01
   4.332837e+01  -2.932433e+01
   5.963906e+01   3.690542e+01
   2.814072e+01   4.885169e+01
  -5.248838e+01   5.177036e+01
  -7.403080e+01  -2.049502e+01
  -4.656645e+01  -9.297602e+00
   2.371974e+01  -4.953421e+01
   6.078544e+01   6.741502e+00
   1.555964e+01  -1.224363e+01
  -1.411389e+01   9.035026e+00
  -3.755542e+01  -3.458717e+00
   3.784935e+00  -2.622676e+01
   6.084132e+01   5.509242e+00
