
 $NMID
 id='ANONYMOUS ', fmtdat='(2E16.6)'
 volume=1.0
 tramp=1.0
 $END
  -2.355180e+03   2.805770e+02
  -1.498874e+03  -8.963125e+02
  -5.295943e+01  -1.276753e+03
   1.075741e+03  -6.797900e+02
   4.227632e+02   8.087888e+01
  -2.382463e+02   1.946816e+02
  -4.098049e+02  -5.360386e+01
  -4.026854e+01  -5.304047e+02
   3.173316e+02  -3.778286e+02
   3.710787e+02  -4.831369e+01
   2.168051e+02   3.092013e+02
  -3.583844e+01   3.773590e+02
  -2.335586e+02   6.225733e+01
  -1.831768e+02  -2.618687e+02
   1.344460e+02  -3.166096e+02
   1.891881e+02  -4.158674e+01
   1.254601e+02   3.131103e+02
  -9.189234e+01   2.591683e+02
  -1.979553e+02   9.404240e+01
  -1.802750e+02  -5.165253e+01
  -6.322852e+01  -1.551269e+02
   4.057187e+01  -9.068900e+01
   2.287392e+01  -7.371843e+01
  -7.046043e+01   4.786858e+00
  -1.519016e+02  -1.091308e+02
  -7.500769e+01  -1.763630e+02
   1.711893e+02  -1.744031e+02
   3.929377e+02  -8.423651e+01
   2.484089e+02   1.717257e+02
  -1.360612e+02   1.976698e+02
  -3.541372e+02  -5.192651e+00
  -1.688282e+02  -1.421081e+02
   1.052086e+02  -2.330519e+02
   2.206107e+02  -1.370031e+02
   2.118539e+02   2.797102e+01
   1.263050e+02   1.633738e+02
   1.874968e+00   1.324588e+02
  -4.491309e+00  -3.076264e+01
   6.630535e+01  -1.450504e+02
   1.145744e+02  -2.207065e+01
   4.475383e+01   2.823316e+02
  -1.339413e+02   3.579028e+02
  -2.665977e+02  -1.288264e+01
  -1.523918e+02  -2.036127e+02
   8.999143e+01  -1.360805e+02
   1.566536e+02   1.349780e+02
   2.472654e-01   2.622504e+02
  -2.409561e+02   1.298360e+02
  -3.476263e+02  -1.157282e+02
  -1.080653e+02  -2.676294e+02
   1.247078e+02  -1.727904e+02
   3.004319e+02  -8.382801e+00
   2.463058e+02   1.157414e+02
  -1.711999e+01   1.329982e+02
  -1.701960e+02   5.702583e+01
  -1.363677e+02  -3.454114e+01
   2.893191e+01  -3.074446e+01
   5.307412e+01   8.300293e+01
  -9.605185e+01   8.685382e+01
  -1.652498e+02  -4.138138e+01
  -4.887300e+01  -1.237657e+02
   9.588992e+01  -1.035644e+02
   1.215892e+02  -4.814752e+01
   1.001134e+02   2.410572e+01
  -2.000049e+01   9.104103e+01
  -6.849503e+01   1.658971e+02
  -1.238038e+02   1.301067e+02
  -1.459344e+02  -4.361705e+01
  -7.725836e+01  -2.211254e+02
   6.879750e+00  -1.923732e+02
   9.635743e+00  -7.102704e+01
   1.795751e+01  -5.339217e+01
   8.697951e+01  -6.493348e+01
   1.277966e+02  -9.361737e+01
   1.168551e+02   5.237318e+01
   8.047094e+01   1.128381e+02
  -1.975390e+01   1.228242e+02
  -8.276288e+01   2.391016e+00
  -7.624303e+01  -1.375039e+02
  -3.352423e+01  -1.197006e+02
   7.037604e+01  -2.452445e+01
   1.766930e+02   6.069682e+01
   1.205587e+02   1.524155e+02
  -8.867830e+00   1.499819e+02
  -1.058523e+02   1.151427e+02
  -5.569516e+01   5.496029e+01
  -4.785927e+01   4.933836e+01
  -1.241814e+02   5.022004e+01
  -2.168171e+02  -3.722756e+01
  -2.273044e+02  -1.418785e+02
   1.964339e+01  -2.084351e+02
   1.242226e+02  -2.632950e+02
   2.031685e+02  -2.208354e+02
   2.007857e+02  -3.810238e+01
   7.299298e+01   1.024471e+02
  -1.097782e+01   1.234363e+02
   2.267298e+01   6.556926e+01
   6.471549e+01  -1.465128e+01
   8.592431e+01   5.665136e+00
   4.977293e+01   1.316979e+02
  -5.436942e+01   1.012537e+02
  -5.969958e+01  -1.283579e+00
   1.156482e+00  -6.206248e+01
   5.938603e+01  -6.033763e+01
   5.106169e+01   7.923609e+01
   1.667383e+01   1.611308e+02
  -9.104968e+01   8.184324e+01
  -1.750813e+02  -3.059365e+01
  -1.255382e+02  -1.127107e+02
  -1.111245e+02  -1.131827e+02
   6.115838e+00  -8.862349e+01
   7.585377e+01  -4.477570e+01
   7.539853e+01  -1.918997e+01
  -4.933930e+01  -4.569087e+01
   7.777239e+00  -4.918291e+01
   7.928280e+01  -4.661095e+01
   9.794620e+01  -2.866928e+01
   4.419314e+01   3.941107e+01
  -4.262175e+01  -1.300790e+01
  -1.921279e+01   1.075416e+01
   8.198516e+01  -6.092949e+01
   1.546327e+02  -4.037878e+00
   1.445594e+02   2.399771e+01
   5.461419e+01   1.133019e+02
  -7.304821e+01   1.514430e+02
  -1.025141e+02   9.731910e+01
  -1.012653e+02   2.647906e+00
  -4.928153e+00  -7.163237e+01
   2.096081e+01  -3.948753e+00
   2.087287e+01   7.856830e+01
  -9.626605e+01   9.085329e+01
  -1.235278e+02  -3.263803e+01
  -7.326304e+01  -1.008997e+02
   2.342688e+01  -1.010108e+02
   6.211075e+01  -3.973440e+01
   3.696716e+01  -7.529288e+00
   5.185913e+00   1.048221e+01
   7.291361e+00  -5.759579e+01
   3.634025e+01  -7.246451e+01
   1.151900e+02  -4.118359e+01
   1.302920e+02   4.424784e+01
   6.767721e+01   8.497893e+01
  -5.946696e+01   8.364434e+01
  -9.908481e+01   3.710798e+01
  -2.758621e+01  -2.389012e+01
  -1.383312e+01  -3.000449e+01
   2.740365e+01  -1.217854e+01
   1.860904e+01   1.319668e+01
  -3.292167e+01   1.959853e+01
   3.232270e+01   6.785064e+00
   5.856283e+01   3.010505e+01
   5.936500e+01   2.925267e+01
   2.522723e+01   6.913909e+01
  -4.860778e+01   9.353927e+01
  -1.237299e+02   4.462857e+01
  -1.252973e+02  -7.165065e+01
  -3.998419e+01  -1.228964e+02
   2.699717e+01  -1.057197e+02
   6.022433e+01  -4.634681e+01
   3.598697e+01   5.247655e+01
   8.381810e+00   3.901251e+00
   2.469824e+01  -1.473683e+01
   5.421472e+01  -1.112037e+01
   1.240078e+01   4.552745e+00
  -1.717249e+01   5.615433e+01
  -4.072567e+01   9.706306e+00
  -4.802468e+01  -1.536499e+01
   8.753099e+00  -9.144786e+01
   6.312971e+01  -4.808979e+01
   1.285078e+02  -1.335364e+01
   6.808236e+01   1.301138e+02
  -6.796342e+01   1.412379e+02
  -1.403521e+02   3.266561e+01
  -1.215705e+02  -2.343143e+01
  -8.175290e+01  -7.611675e+01
   3.720483e+01  -5.055639e+01
   3.871764e+01  -2.697695e+01
   1.955401e+01  -5.487476e+01
   2.358312e+01  -4.109829e+01
   3.902094e+01  -5.621664e+01
   7.622313e+01  -1.692797e+00
   6.950731e+01   7.311063e+01
   2.866518e+01   9.585378e+01
  -2.596058e+01   1.167699e+02
  -7.555939e+01   3.073436e+01
  -7.030721e+01  -6.262659e+01
   3.017672e+00  -6.769225e+01
   1.061646e+01  -5.572699e+01
   1.959030e+01   1.251990e+01
  -2.002335e+01   4.466988e+01
   1.394180e+01   1.855723e+01
   1.518476e+01   1.799816e+01
   4.142738e+01   1.406880e+01
   1.740590e+01   1.259524e+01
  -5.034240e+01   4.342425e+01
  -6.384407e+01   3.142872e+01
  -7.059116e+01   4.609702e+00
  -4.627412e+00  -5.120689e+01
   5.895705e+01  -4.486388e+01
   5.819187e+01  -1.443922e+01
   5.278451e+01  -7.315691e+00
  -2.826723e+01   1.688001e+01
  -3.660338e+01   2.707734e+00
  -3.827880e+01  -1.206293e+01
   2.075979e+01  -4.626097e+01
   3.065300e+01  -2.615167e+01
   1.740170e+01   9.109004e-02
   3.033477e+01   2.167789e-01
   6.478932e+01  -2.017335e+00
   5.618984e+01   2.328678e+01
   6.188242e+01   4.894027e+01
  -2.017033e+01   9.548577e+01
  -3.573544e+01   8.703469e+01
  -6.706334e+01   3.383352e+01
  -7.269228e+01  -3.654191e+01
  -1.047755e+00  -6.352345e+01
   1.512081e+01  -5.923389e+01
   1.513472e-01   5.739446e+00
  -2.088005e+01  -2.085422e+01
  -1.091842e+02   3.625431e+00
  -5.599624e+01  -7.110534e+01
   3.260283e+01  -5.258628e+01
   8.723639e+01  -2.690052e+01
   9.011602e+01   6.380269e+00
   3.430495e+01   3.912931e+00
  -3.522431e+01   2.443025e+01
  -8.180792e+00  -9.397774e+00
   2.775800e+01   3.284995e+01
   4.107206e+01   2.189516e+01
   2.299444e+01   5.655496e+01
  -2.517911e+01   5.265372e+01
  -8.883668e+01   6.214667e+01
  -8.850319e+01  -1.777673e+01
  -1.122380e+01  -1.213775e+02
   1.222276e+01  -8.029524e+01
   2.430899e+01  -1.477653e+01
   3.044822e+01   3.954066e+01
  -1.173217e+01   4.565677e+01
  -2.914433e+01   1.495819e+01
  -3.274857e+01   1.408415e+01
  -1.978420e+01  -2.047306e+00
  -2.163384e+01   2.115185e+01
  -1.212705e+01  -1.743794e+01
  -2.698367e+01  -4.818620e+01
  -4.385689e+01  -4.993521e+01
   3.131562e+01   3.107734e+00
   5.172090e+01   6.618552e+00
   8.877672e+01   1.358948e+01
   6.133575e+00   3.177009e+01
  -3.472769e+01   6.404016e-01
  -2.679360e+01  -1.216774e+01
   1.794027e+01   3.041406e+00
   1.690140e+01   7.133650e+00
   1.631714e+01  -8.253688e+00
  -1.887347e+01  -1.338067e+01
   1.916740e+01   2.750152e+01
   5.863502e+01  -1.598194e+01
   4.336925e+01   1.092003e+01
  -1.085586e+01   2.913027e+01
  -6.859405e+01   9.292034e+01
  -1.229472e+02   6.114411e+01
  -8.582778e+01  -1.037503e+01
  -4.203039e+01  -8.672614e+01
   1.908242e+01  -5.135313e+01
   1.994682e+01  -2.851801e+01
   3.848720e+01   1.117564e+01
   3.107332e+01  -2.739183e+00
  -8.313952e+00   9.205923e-01
   1.122707e+01   1.168624e+00
   3.833151e+01   4.382777e+01
   3.207582e+01   6.422126e+01
  -1.132610e-02   4.342928e+01
  -4.216976e+01   2.019121e+01
  -3.253944e+01  -4.148397e+01
  -3.531619e+00  -6.219579e+01
   3.057910e+01   8.248670e+00
   5.266007e+01   3.868170e+01
  -4.746836e+00   6.579279e+01
  -2.231746e+01   2.204754e+01
  -3.951212e+01   3.500955e+01
  -2.653676e+01  -4.804414e+01
  -9.069876e+00  -3.091691e+01
   2.006279e+01  -2.498551e+01
  -4.299869e+01   1.251162e+01
  -5.637207e+01   3.403020e+00
  -3.475602e+01  -1.218425e+01
   2.439544e+01  -5.903637e+01
   5.072261e+01  -8.669918e+01
   5.715711e+01   1.820126e+00
  -5.839912e+00   5.562396e+01
  -3.252279e+01   7.595930e+01
  -6.795193e+00  -3.082088e+01
  -3.718816e-01  -3.664007e+01
   2.828669e+01  -3.764496e+01
   4.006730e+01   7.217141e+00
   2.076205e+01   4.161447e+01
   1.470655e+01   4.421618e+00
  -1.424934e+01  -3.066976e+01
  -3.360312e+01  -1.095816e+01
  -7.356900e+00   6.197757e+00
  -1.225460e+00   2.023644e+01
  -2.352368e-01   1.666596e+00
   2.010692e+01  -2.116320e+01
   2.599493e+01  -3.624641e+01
   1.850255e+01  -1.258445e+01
   2.145547e+00   3.709188e+01
   1.112327e+01   5.835475e+01
  -5.388728e+01   3.146048e+01
  -4.392981e+01  -1.780419e+01
  -9.971538e-01  -3.426125e+01
   2.667314e+01  -3.160195e+01
   7.165714e+01   4.770670e+00
   9.867389e+00   2.905798e+01
  -3.194708e+01   8.794040e+00
  -5.699999e+01   7.358703e+00
   4.746706e+00   1.714187e+01
   1.546553e+01   1.001025e+00
   1.629732e+01  -1.069546e+01
  -2.953114e+01   2.310635e+01
  -1.978722e+01   4.860393e+01
