
 $NMID
 id='ANONYMOUS ', fmtdat='(2E16.6)'
 volume=1.0
 tramp=1.0
 $END
   2.410833e+03  -2.701719e+02
   1.941097e+03   1.015876e+03
   7.282463e+01   1.591006e+03
  -1.166827e+03   7.530162e+02
  -5.805858e+02  -1.985465e+02
   2.657779e+02  -4.296659e+02
   5.409302e+02   1.556401e+02
   7.283930e+01   5.698852e+02
  -3.112661e+02   5.777787e+02
  -4.755988e+02   1.205533e+02
  -3.746684e+02  -3.862200e+02
  -4.151391e+01  -5.553085e+02
   3.131545e+02  -1.988406e+02
   2.863502e+02   2.930408e+02
  -1.783588e+01   4.391568e+02
  -2.859089e+02   9.076974e+01
  -2.261877e+02  -3.276406e+02
   7.387082e+01  -3.387991e+02
   2.432509e+02  -1.172184e+02
   2.823107e+02   7.474144e+01
   1.016947e+02   1.857222e+02
  -9.454867e+01   1.556084e+02
  -1.277381e+02   5.515313e+01
   1.984387e+01  -9.065421e+01
   1.932510e+02  -7.059162e+00
   1.592568e+02   1.905571e+02
  -1.460748e+02   2.936588e+02
  -4.724847e+02   1.273553e+02
  -3.593392e+02  -2.319685e+02
   1.078861e+02  -3.044585e+02
   3.952302e+02  -6.725668e+01
   2.366782e+02   2.084270e+02
  -7.025450e+01   3.339664e+02
  -2.568457e+02   2.010648e+02
  -2.703620e+02  -6.800465e+01
  -1.165726e+02  -2.422728e+02
   1.728815e+01  -2.157153e+02
   1.041232e+02   4.358694e+01
  -5.006405e+01   2.452592e+02
  -2.472801e+02   4.807762e+01
  -2.028028e+02  -3.202091e+02
   9.118216e+01  -4.873003e+02
   3.663997e+02  -1.224361e+02
   2.374336e+02   2.728756e+02
  -1.267075e+02   2.531081e+02
  -2.538667e+02  -1.308270e+02
  -4.783384e+01  -3.503126e+02
   2.678486e+02  -1.477761e+02
   4.122089e+02   1.736760e+02
   1.740706e+02   2.760677e+02
  -1.469561e+02   2.257424e+02
  -3.142332e+02   8.951120e+00
  -2.703394e+02  -1.594922e+02
   5.301079e+00  -2.106823e+02
   2.250478e+02  -9.003511e+01
   1.565341e+02   8.207439e+01
  -4.305928e+01   4.367000e+01
  -7.211619e+01  -5.012025e+01
   7.245259e+01  -1.276690e+02
   1.946904e+02   5.572820e+01
   1.222561e+02   1.526848e+02
  -6.201542e+01   1.752463e+02
  -1.432102e+02   7.622506e+01
  -1.170650e+02  -1.042144e+01
  -5.216756e+01  -1.000003e+02
   2.897401e+01  -1.686016e+02
   1.420117e+02  -1.488689e+02
   1.899495e+02   6.189122e+01
   1.213855e+02   2.521901e+02
  -5.324029e+01   2.558763e+02
  -6.411326e+01   9.689680e+01
  -3.492856e+01   3.710329e+01
  -3.056704e+01   4.685831e+01
  -1.018176e+02   6.322379e+01
  -1.441895e+02  -1.949968e+01
  -1.132760e+02  -1.155159e+02
   2.379919e+00  -1.826997e+02
   1.156619e+02  -4.219481e+01
   1.274984e+02   1.010536e+02
   2.582330e+01   1.689753e+02
  -1.431707e+02   1.009244e+02
  -2.007601e+02  -8.957184e+01
  -1.391631e+02  -2.025862e+02
  -2.136836e+00  -2.066561e+02
   1.192504e+02  -9.157924e+01
   7.718202e+01  -5.725242e+00
   5.498752e+01  -4.344124e+01
   1.189374e+02  -6.036663e+01
   2.363694e+02  -1.982654e+01
   2.578580e+02   1.180807e+02
   8.180502e+01   2.316744e+02
  -1.531976e+02   2.872019e+02
  -2.413901e+02   2.384839e+02
  -2.267984e+02   2.629055e+01
  -8.587661e+01  -1.648698e+02
   4.052555e+01  -1.459003e+02
   4.331280e+01  -4.704731e+01
  -3.511425e+01   8.081453e+01
  -1.472102e+02  -1.170899e+00
  -7.542718e+01  -1.324038e+02
   1.095699e+02  -1.314341e+02
   1.528963e+02  -5.840540e-01
   2.260804e+01   1.369388e+02
  -7.085909e+01   8.800277e+01
  -1.415847e+02  -7.118928e+01
  -3.898395e+01  -1.952733e+02
   8.377267e+01  -1.777451e+02
   2.095855e+02   1.140000e+01
   1.840628e+02   9.742349e+01
   1.001991e+02   1.191193e+02
  -2.884603e+01   7.700604e+01
  -1.110524e+02   2.780177e+01
  -3.886719e+01   2.743590e+01
   4.454113e+01   1.685046e+01
   3.070117e+01   5.178721e+01
  -7.110193e+01   5.499649e+01
  -1.067693e+02   1.091819e+01
  -2.526542e+01  -3.581323e+01
   4.424806e+01  -3.445662e+01
   3.854889e+01   1.077462e+01
  -6.701114e+01   5.812120e+01
  -1.302795e+02   4.914134e+01
  -1.659428e+02  -3.324131e+01
  -9.053019e+01  -1.420328e+02
   4.374914e+01  -1.879108e+02
   1.362484e+02  -1.117762e+02
   1.243899e+02  -1.575990e+00
   2.231246e+01   4.072207e+01
  -5.909518e+01   2.707306e+01
  -7.444193e+00  -6.508336e+01
   8.641624e+01  -8.112815e+01
   1.574337e+02   4.501722e+01
   4.292195e+01   1.043063e+02
  -2.603693e+01   9.876055e+01
  -7.853325e+01   3.487411e+01
  -3.683385e+01   9.729703e+00
  -2.534321e+00  -1.269804e+01
   2.964866e+01   5.723227e+01
  -3.524539e+01   4.968156e+01
  -1.151337e+02   4.128082e+01
  -9.046058e+01  -4.800108e+01
  -6.882789e+01  -9.669376e+01
   3.407175e+01  -1.001537e+02
   1.205547e+02  -3.177611e+01
   4.221841e+01   5.385558e+01
   2.313460e+00   3.195879e+01
  -3.742376e+01   1.399463e+01
   2.821083e+00   2.234165e+01
   2.324433e+01  -7.403139e+00
   5.021808e+00   8.468463e+00
  -6.386100e+01   3.952294e+00
  -8.507700e+01  -2.721399e+01
  -1.790284e+01  -1.046298e+02
   7.605216e+01  -8.232505e+01
   1.125643e+02  -1.880100e+01
   1.335826e+02   4.964831e+01
   6.779431e+01   1.229176e+02
  -4.882367e+01   1.118102e+02
  -1.064538e+02   2.631143e+01
  -4.423469e+01  -2.349703e+01
  -1.703446e+01  -2.485049e+01
  -1.335178e+01   1.092893e+00
  -3.711878e+01  -2.839494e+00
  -2.531833e+00  -1.771845e+01
  -1.191391e+01  -6.400602e+01
   7.313900e+01  -4.069339e+01
   4.921299e+01  -8.429039e-01
  -1.755854e+01   4.866127e+01
  -9.449100e+01   4.478008e+01
  -1.174188e+02   3.117738e+00
  -6.404194e+01  -1.214344e+02
   6.583135e+01  -1.695525e+02
   1.702123e+02  -4.421499e+01
   1.345949e+02   2.075452e+01
   8.673026e+01   7.152780e+01
  -2.298643e+01   8.363387e+01
  -4.780503e+01   8.491398e+01
  -3.287026e+01   5.035963e+01
  -5.045723e+01   4.810941e+01
  -2.734028e+01   6.601559e+01
  -8.768523e+01   4.955280e+00
  -7.164357e+01  -7.219177e+01
  -5.755237e+01  -1.156049e+02
   2.239855e+01  -1.012875e+02
   1.089734e+02  -2.619409e+01
   8.802081e+01   5.449114e+01
   3.822280e+01   7.030836e+01
  -1.016618e+01   7.071836e+01
  -3.816073e+01  -9.734867e+00
  -7.657346e+00  -3.333011e+01
  -2.830465e+01  -1.484887e+01
  -3.684567e+01  -1.542450e+01
  -2.830457e+01   4.921860e+01
  -2.072284e+01  -2.159962e+01
   3.138480e+01  -5.015743e+01
   8.637375e+01  -7.940017e+00
   9.592091e+01   9.621835e+00
   1.998913e+01   5.819162e+01
  -9.030621e+01   4.602013e+01
  -9.835609e+01   2.101989e+01
  -4.627740e+01  -3.026917e+01
   2.172783e+01  -3.228224e+01
   5.348298e+01   7.959023e+00
   1.485914e+01   2.495197e+01
  -1.457932e+01   4.402609e+01
  -1.744042e+01   1.149320e+01
  -1.393464e+01  -2.545893e+00
  -3.922996e+01   1.269462e+01
  -1.949500e+01  -5.503000e+00
  -5.725736e+01   7.994075e+00
  -2.902647e+01  -3.313955e+01
  -8.803000e+00  -1.210529e+02
   3.566659e+01  -9.539879e+01
   7.334789e+01  -4.509218e+01
   8.900541e+01   2.227237e+01
   4.540082e+01   7.852706e+01
  -4.029227e+01   5.736038e+01
  -3.222120e+01  -1.058719e+01
   5.067481e+01  -4.799764e+00
   1.019394e+02  -7.325508e+00
   8.916044e+01   6.224096e+01
  -3.766481e+01   3.659543e+01
  -1.232654e+02   7.311299e+01
  -1.004579e+02  -6.333278e+00
  -4.094188e+01  -5.747183e+01
  -3.167289e+00  -4.097532e+01
   1.305230e+01   9.633766e+00
  -2.916851e+01   2.971426e+00
  -3.366078e+01  -5.478198e+00
  -2.293607e+01  -6.630021e+01
   2.889493e+01  -8.771912e+01
   8.936564e+01  -8.883032e+01
   7.217406e+01   3.693620e+01
   4.090334e+01   1.310816e+02
  -2.706452e+00   1.181326e+02
  -3.909951e+01   2.014525e+01
  -5.514906e+01  -3.687473e+01
  -1.081696e+01  -6.552836e+01
   2.855835e+01  -2.743714e+01
   4.522363e+01   1.389746e+01
   5.912526e+00  -3.771729e+00
  -1.962394e+01   3.039686e+00
  -4.504066e+00   9.523428e+00
   4.364411e+01   5.111199e+01
   4.570802e+01   4.418512e+01
  -3.424718e+01   4.308759e+01
  -9.326635e+01  -1.490119e+00
  -1.251848e+02  -4.052375e+01
  -2.341407e+01  -4.491864e+01
   4.884916e+01  -1.833095e+01
   4.582869e+01  -3.530760e+01
   3.282998e+01  -5.850810e+00
  -2.519577e+01   1.647554e+01
  -1.538844e+01   1.239383e+01
   9.156734e+00   1.888744e+01
  -1.161096e+01  -1.287831e+01
  -4.020307e+01  -2.005670e+01
  -6.613741e+01  -2.528742e+00
  -1.039652e+01  -4.609172e+01
   5.685435e+01  -8.940578e+01
   9.428308e+01  -5.764176e+01
   8.522310e+01   3.399672e+01
   4.300535e+01   7.546508e+01
  -2.446454e+01   7.950505e+01
  -4.921938e+01   2.172124e+01
  -2.268419e+01  -4.135118e+00
  -1.475276e+01  -2.907543e+01
  -3.860388e+01  -9.010745e+00
  -9.206746e+00  -4.483900e+00
  -3.086438e+01  -7.792662e+00
  -5.089337e+01  -4.685918e+01
  -1.797306e+01  -5.317103e+01
   3.178894e+01   1.418050e+01
   4.001151e+01   5.350259e+01
   3.659068e+01   5.804113e+01
  -6.251811e+01   5.917549e+00
  -4.618664e+01  -5.479460e+01
  -2.266330e+01  -5.623666e+01
   1.122226e+01  -5.501039e+01
   5.849637e+01  -1.380321e+01
   3.494504e+01  -9.456167e+00
   1.450853e+01   2.269968e+01
  -3.132455e+01   9.012006e+00
   2.487994e+01  -2.795814e+01
   3.429378e+00  -9.937636e+00
   8.515217e+00  -2.252929e+00
  -3.370689e+01   2.908440e+01
  -3.662672e+01   7.163739e+01
  -4.798488e+01   2.469037e+01
  -9.045159e+00  -5.539159e+01
   6.142332e+01  -5.895422e+01
   1.206054e+01   5.136395e+00
  -1.375510e+01   2.862258e+01
  -3.953382e+01   4.295885e+01
  -4.204741e+01   1.163395e+01
  -3.560910e+01  -4.165871e+01
   6.762580e-01  -1.405030e+01
   5.372731e-01   2.016112e+01
   7.929043e+01  -1.161201e+00
   2.570775e+01   1.544797e+01
  -1.330728e+01  -2.432548e+01
  -2.532903e+01   1.693987e+01
  -1.970191e+01   6.268148e+00
  -2.034641e+01   2.187676e+01
  -2.385191e+01  -9.817246e+00
   2.461019e+00  -4.959684e+01
  -7.795665e+00  -3.746495e+01
   5.106166e+01  -9.568761e+00
   1.981631e+01   1.996807e+01
   7.686521e+00   3.771473e+01
  -8.649912e+00   5.620160e+01
  -4.983534e+01   3.785476e+01
  -3.534021e+01   6.171180e-01
   1.938264e+01  -1.790122e+01
   3.127736e+01  -3.610905e+01
  -9.485990e+00  -2.080159e+01
  -1.576888e+01  -1.913854e+01
  -4.365238e+01  -7.909522e+00
   3.798398e+00  -4.833375e+01
   7.644605e+01  -3.630396e+01
