
 $NMID
 id='ANONYMOUS ', fmtdat='(2E16.6)'
 volume=1.0
 tramp=1.0
 $END
  -4.217745e+03   4.647874e+02
  -2.801840e+03  -2.397105e+03
   7.468119e+02  -2.904046e+03
   2.166594e+03  -1.412033e+03
   1.129052e+03   6.150275e+02
  -5.197960e+02   5.982240e+02
  -8.308470e+02  -4.009705e+02
  -2.123312e+00  -1.068952e+03
   8.127407e+02  -8.447765e+02
   9.388150e+02   7.984574e+00
   5.683424e+02   8.266962e+02
  -5.804092e+01   1.009943e+03
  -6.383958e+02   2.089626e+02
  -5.137319e+02  -6.845750e+02
   2.114053e+02  -8.776251e+02
   6.652413e+02  -8.783704e+01
   3.545602e+02   7.199335e+02
  -3.289913e+02   7.260218e+02
  -6.022733e+02   1.598728e+02
  -4.281175e+02  -3.303382e+02
  -3.247144e+01  -4.603550e+02
   1.929300e+02  -2.953900e+02
   2.316201e+02  -9.788852e+01
  -7.756755e+01   6.305565e+01
  -4.300722e+02  -6.554729e+01
  -2.156789e+02  -3.954120e+02
   4.487990e+02  -4.952436e+02
   8.359504e+02  -3.897375e+01
   4.880225e+02   5.083440e+02
  -3.146011e+02   5.851245e+02
  -7.925222e+02   3.022315e+01
  -4.064515e+02  -4.582042e+02
   2.484502e+02  -5.684706e+02
   5.336241e+02  -1.599127e+02
   4.401392e+02   1.719135e+02
   1.077471e+02   4.654510e+02
  -1.352304e+02   2.870825e+02
  -2.178041e+02  -2.000011e+02
   1.533260e+02  -4.423709e+02
   4.477168e+02  -5.026346e+00
   3.386377e+02   6.841844e+02
  -1.969171e+02   7.778017e+02
  -6.847763e+02   1.102273e+02
  -3.245477e+02  -5.649609e+02
   2.364615e+02  -4.149981e+02
   4.078373e+02   2.458255e+02
  -1.239340e+01   5.183193e+02
  -4.930914e+02   2.328482e+02
  -6.880266e+02  -3.269252e+02
  -2.235591e+02  -5.736095e+02
   3.303367e+02  -3.976393e+02
   6.106747e+02   1.952326e+01
   3.824535e+02   3.556644e+02
  -8.167646e+01   3.696561e+02
  -4.769760e+02   9.709216e+01
  -2.907619e+02  -1.848194e+02
   7.581580e+01  -1.089043e+02
   1.484213e+02   1.226260e+02
  -1.182305e+02   2.317010e+02
  -3.723238e+02   1.066190e+01
  -2.144733e+02  -2.896733e+02
   1.359240e+02  -2.968763e+02
   3.519595e+02  -4.948482e+01
   1.927421e+02   8.607149e+01
  -4.416856e+01   2.597923e+02
  -1.897812e+02   3.430036e+02
  -3.424675e+02   1.991308e+02
  -3.164257e+02  -1.328855e+02
  -1.276373e+02  -4.172490e+02
   8.857880e+01  -3.892611e+02
   1.502763e+02  -9.979801e+01
   5.404005e+01   1.852548e+00
   1.009208e+01  -8.882418e+01
   1.811880e+02  -1.404951e+02
   2.883047e+02   1.493606e+01
   1.850718e+02   2.221715e+02
  -5.591392e+01   2.888335e+02
  -2.286790e+02   2.041109e+01
  -2.407302e+02  -2.220419e+02
  -2.670387e+01  -3.072483e+02
   2.698076e+02  -1.813854e+02
   3.886192e+02   1.408335e+02
   2.285422e+02   3.700345e+02
  -6.877803e+01   3.235732e+02
  -2.522875e+02   1.850187e+02
  -1.814196e+02   3.569836e+01
  -1.031865e+02   3.517762e+01
  -2.231851e+02   9.777847e+01
  -4.706562e+02  -1.949042e+01
  -3.856645e+02  -3.159272e+02
  -2.342229e+01  -4.846676e+02
   3.794444e+02  -4.673245e+02
   5.038231e+02  -2.840669e+02
   3.375133e+02   1.021268e+02
   8.325926e+01   2.810509e+02
  -1.406811e+02   3.012766e+02
  -1.112365e+02   7.128049e+01
   9.391876e+01  -1.364575e+02
   2.182879e+02   1.323315e+01
   7.553205e+01   2.060711e+02
  -1.118814e+02   2.319893e+02
  -1.720494e+02  -1.181650e+01
   3.974341e+00  -1.783265e+02
   2.350337e+02  -4.145590e+01
   1.843787e+02   2.686555e+02
   2.599204e+01   4.020343e+02
  -2.229969e+02   2.478831e+02
  -3.418857e+02  -2.186413e+01
  -3.279225e+02  -2.636871e+02
  -9.015300e+01  -3.030073e+02
   1.308691e+02  -1.911123e+02
   2.081007e+02  -3.277087e+01
   8.387962e+01   1.703315e+01
  -6.399188e+01  -2.318463e+01
  -3.530471e+01  -9.571384e+01
   1.020320e+02  -1.049618e+02
   2.002664e+02  -4.654864e+00
   6.570093e+01   7.528105e+01
  -7.474197e+01   3.373452e+01
  -8.544797e+01  -5.160023e+01
   1.097547e+02  -1.148950e+02
   3.203197e+02   9.596644e-01
   2.811400e+02   1.323105e+02
   1.016962e+02   2.689647e+02
  -1.772828e+02   2.979534e+02
  -3.155635e+02   1.242532e+02
  -1.717709e+02  -6.081832e+01
  -3.115602e+00  -1.379034e+02
   1.142073e+02  -8.218850e+00
  -2.078842e+01   1.252584e+02
  -1.529983e+02   1.432541e+02
  -2.173318e+02  -7.325634e+01
  -1.003699e+02  -2.190623e+02
   5.557099e+01  -1.702193e+02
   1.304420e+02  -6.390042e+01
   6.545965e+01   1.830969e+01
  -3.909462e+01  -3.067965e+00
  -5.493712e+01  -8.782905e+01
   6.327981e+01  -1.332779e+02
   2.008773e+02  -4.463485e+01
   2.135728e+02   1.177148e+02
   5.081814e+01   2.067161e+02
  -1.474899e+02   1.559354e+02
  -1.875893e+02   1.671510e+01
  -9.490087e+01  -1.037982e+02
   6.238449e+01  -1.238677e+02
   6.902164e+01  -1.969009e+01
   4.984930e+01   2.179266e+01
  -3.044629e+00  -1.338794e+01
   5.510664e+00  -4.211972e+01
   9.190869e+01  -2.196671e+00
   8.425118e+01   7.336347e+01
   4.039117e+01   1.751274e+02
  -1.175502e+02   1.393047e+02
  -2.113525e+02   7.191555e+01
  -2.404638e+02  -1.334239e+02
  -6.836964e+01  -2.257031e+02
   8.834322e+01  -2.184534e+02
   1.476623e+02  -5.432784e+01
   7.693610e+01   6.194975e+01
   4.690042e+01   1.892258e+01
   2.926167e+01   1.462527e+01
   6.204143e+01  -3.413348e+01
   4.454495e+01   3.713695e+01
  -4.132809e+01   6.871306e+01
  -1.005746e+02   4.040851e+01
  -1.000603e+02  -3.504801e+01
  -7.307999e+00  -1.229961e+02
   1.596911e+02  -8.508831e+01
   2.268721e+02   4.333924e+01
   9.459886e+01   1.853381e+02
  -5.854787e+01   2.741649e+02
  -2.661255e+02   1.640128e+02
  -3.055790e+02  -5.003431e+01
  -1.410144e+02  -2.058787e+02
   5.052456e+01  -1.770966e+02
   7.394072e+01  -1.089223e+02
   6.882877e+01  -7.723659e+01
   7.729337e+01  -9.007501e+01
   5.664761e+01  -1.025614e+02
   1.423945e+02   1.143217e+01
   1.485558e+02   1.436269e+02
   4.368529e+01   2.368441e+02
  -8.008910e+01   1.992350e+02
  -2.031880e+02   9.920353e+00
  -1.373361e+02  -1.227771e+02
  -3.822240e+01  -1.592110e+02
   5.822507e+01  -8.736948e+01
   1.238134e+01  -1.752011e+01
   8.836863e+00   6.575868e+01
   6.729883e-02   1.535903e+01
   3.714024e+01  -9.648517e+00
   8.223907e+01   3.688243e+01
   5.108060e+01   3.257279e+01
  -3.109649e+01   4.234874e+01
  -1.450387e+02  -8.728607e+00
  -1.394258e+02  -1.905854e+01
  -3.913768e+01  -8.628976e+01
   7.212474e+01  -8.800444e+01
   1.572354e+02  -1.267484e+01
   5.798468e+01   7.134953e+01
  -4.899161e+01   3.505172e+01
  -7.808516e+01   4.501773e+00
  -2.169579e+01  -7.437455e+01
   5.845304e+01  -6.609935e+01
   7.435246e+01   6.239104e-01
   6.515075e+01   4.585506e+01
   7.511074e+01   1.984262e+01
   8.230154e+01   2.669598e+01
   6.294883e+01   2.105945e+01
   4.118167e+01   9.389100e+01
  -3.413354e+01   1.485108e+02
  -7.396795e+01   1.518883e+02
  -1.499096e+02   5.611787e+01
  -1.345705e+02  -7.510393e+01
  -5.099552e+00  -1.380995e+02
   9.930190e+01  -8.196189e+01
   8.114619e+01   1.797703e+01
  -5.230987e+01   3.681034e+01
  -9.607299e+01  -4.788932e+01
  -5.704789e+01  -1.296880e+02
   7.184982e+01  -1.400491e+02
   1.796849e+02  -1.114679e+02
   1.765766e+02  -1.109083e+01
   6.143392e+00   4.181091e+01
  -6.186753e+01   6.030862e+01
  -2.839664e+01   1.543132e+01
   4.110027e+01  -3.110506e+01
   9.173288e+01   1.494086e+01
   4.003404e+01   1.379083e+02
  -7.924975e+01   1.604449e+02
  -1.505444e+02   6.883523e+01
  -1.235377e+02  -9.282992e+01
  -1.777574e+01  -1.885965e+02
   8.439507e+01  -1.439600e+02
   1.197299e+02   2.955051e+00
   8.268901e+01   1.150185e+02
   4.352731e+01   1.083723e+02
  -4.737701e+01   2.715355e+01
  -5.466578e+01  -2.612862e+01
  -2.069656e+01  -1.475257e+01
  -9.156170e+00   3.747778e+01
  -2.629795e+01  -2.256514e+00
  -5.875799e+01  -9.912651e+01
  -3.880160e+01  -1.013744e+02
   4.311408e+01  -4.729446e+01
   1.228987e+02   2.899694e+01
   1.104370e+02   4.531779e+00
   2.572053e+01   5.879687e+01
  -5.575034e+01   3.397653e+00
  -9.128081e+01   2.825891e+00
   1.414669e-01  -1.838999e+01
   4.231048e+01   1.454321e+01
  -3.551764e-01  -2.074563e+01
  -1.072155e+01  -4.663311e+00
  -1.476591e+00   2.987398e+00
   8.344400e+01   7.961192e+00
   8.168574e+01   2.923960e+01
   3.862039e+01   9.246855e+01
  -1.303613e+02   1.153183e+02
  -1.869219e+02   8.373574e+01
  -1.703077e+02  -6.102598e+01
  -5.125248e+01  -1.685653e+02
   5.124894e+01  -1.557619e+02
   8.990063e+01  -8.699293e+01
   8.703918e+01   1.488855e+01
   2.500021e+01   5.395368e+01
   2.017381e+00  -1.298692e+01
   4.968843e+01  -7.049743e+00
   7.130011e+01   4.119817e+01
   1.031894e+01   8.057896e+01
  -5.693941e+01   8.994399e+01
  -1.156005e+02   4.788931e+00
  -9.303293e+01  -9.125003e+01
  -3.034189e+01  -1.512139e+02
   5.877231e+01  -4.915866e+01
   9.213753e+01   9.056363e+01
   7.657961e+01   9.026426e+01
  -9.049985e+01   7.397285e+01
  -9.438304e+01  -3.428130e+00
  -5.332923e+01  -6.091949e+01
   4.122413e+01  -3.078831e+01
   6.106085e+01  -4.694076e+01
  -3.444447e+01   2.307549e+01
  -7.269608e+01   3.762966e+01
  -1.762996e+01  -1.943617e+01
   6.479226e+01  -5.782325e+01
   1.113151e+02  -8.269962e+01
   6.005131e+01   1.156063e+01
  -3.890159e+01   9.012785e+01
  -6.571591e+01   8.213828e+01
  -4.847736e+01  -1.685903e+01
   5.632458e+00  -7.214055e+01
   1.518309e+01  -2.720699e+01
   4.568191e+01   4.735400e+01
   3.018324e+01   5.686313e+01
   1.035665e+01   3.970447e+01
  -3.439493e+01   8.051506e-01
  -4.263477e+01  -3.101481e+01
  -7.716915e+00  -5.875429e+00
  -3.730736e+01   3.284612e+01
  -2.562425e+00  -7.163367e+00
   3.522065e+00  -3.263931e+01
   2.461112e+01  -5.993966e+01
   2.243225e+01  -2.547091e+01
   3.181797e+01   5.317498e+01
  -2.978070e+01   5.320104e+01
  -6.283585e+01   2.989982e+01
  -5.222768e+01  -3.368455e+01
  -2.392888e+01  -8.647917e+01
   4.343579e+01  -4.278378e+01
   8.504176e+01   1.033345e+01
   4.754586e+01   3.508735e+01
  -3.031450e+01   5.045642e+01
  -5.241564e+01   3.592562e+01
  -3.559506e+01   7.336075e+00
   1.704843e+01  -1.839380e+01
   5.891220e+01   5.414951e+01
  -2.671669e+01   3.230598e+01
  -6.853329e+01   5.899504e+00
