
 $NMID
 id='ANONYMOUS ', fmtdat='(2E16.6)'
 volume=1.0
 tramp=1.0
 $END
   4.105079e+03  -2.147314e+02
   2.566932e+03   2.471723e+03
  -6.155285e+02   2.760183e+03
  -2.000345e+03   7.151272e+02
  -9.507983e+02  -6.468849e+02
   7.119642e+02  -5.905456e+02
   8.547600e+02   4.150249e+02
  -7.620018e+01   1.029239e+03
  -7.904921e+02   7.890580e+02
  -9.535366e+02  -7.953177e+01
  -4.649033e+02  -8.556455e+02
   3.004353e+02  -8.597548e+02
   6.789797e+02  -1.633321e+02
   4.828627e+02   6.685806e+02
  -1.940772e+02   8.037802e+02
  -6.003326e+02   8.468874e+00
  -3.442227e+02  -5.576009e+02
   2.406797e+02  -5.621396e+02
   5.434817e+02  -1.299405e+02
   4.275237e+02   3.203238e+02
   2.751131e+01   4.444371e+02
  -2.281445e+02   2.508824e+02
  -2.183489e+02   6.485869e+01
   9.208129e+01  -1.240898e+02
   4.190559e+02   4.525272e+01
   2.945527e+02   4.024043e+02
  -3.537434e+02   4.658889e+02
  -8.139645e+02  -4.137716e+01
  -4.705259e+02  -5.154941e+02
   3.407993e+02  -5.465237e+02
   6.597524e+02  -3.727738e+01
   3.620766e+02   4.495237e+02
  -2.121860e+02   5.190542e+02
  -5.233456e+02   2.606530e+02
  -3.617112e+02  -2.123325e+02
  -1.178675e+02  -4.473942e+02
   1.657054e+02  -2.669722e+02
   2.010088e+02   1.728301e+02
  -1.684221e+02   4.228735e+02
  -4.112864e+02   1.281291e+01
  -3.342307e+02  -6.548092e+02
   2.507746e+02  -7.290148e+02
   6.283969e+02  -4.891871e+01
   2.408199e+02   4.973718e+02
  -2.859026e+02   3.273308e+02
  -3.916290e+02  -2.176529e+02
   8.312308e+00  -5.231473e+02
   5.088476e+02  -1.350410e+02
   5.178237e+02   3.587760e+02
   1.524239e+02   5.295393e+02
  -3.381985e+02   4.013763e+02
  -5.643237e+02  -1.638211e+01
  -3.943721e+02  -3.092771e+02
   9.093009e+01  -3.790546e+02
   4.245410e+02  -7.975085e+01
   2.489368e+02   2.143094e+02
  -1.084025e+02   9.417969e+01
  -1.403470e+02  -1.452078e+02
   1.360755e+02  -1.820658e+02
   3.289148e+02   6.963372e+01
   1.051322e+02   2.492487e+02
  -1.764817e+02   2.312513e+02
  -3.004228e+02   6.399240e+01
  -1.850597e+02  -5.503140e+01
   5.733582e+00  -1.713151e+02
   1.336120e+02  -2.755918e+02
   3.700999e+02  -2.092932e+02
   2.878932e+02   9.183129e+01
   8.848986e+01   4.344409e+02
  -1.282076e+02   3.839876e+02
  -1.285279e+02   1.026792e+02
  -3.545745e+01  -1.949843e+01
  -4.664382e+01   7.796653e+01
  -1.584450e+02   1.126757e+02
  -2.657036e+02  -2.508830e+01
  -1.520544e+02  -2.617586e+02
   4.393983e+01  -2.369824e+02
   1.839800e+02  -3.765834e+01
   2.471955e+02   1.571273e+02
   3.542784e+01   2.502058e+02
  -2.231099e+02   1.377512e+02
  -3.276432e+02  -7.838900e+01
  -1.873038e+02  -3.100137e+02
   8.486373e+01  -3.156588e+02
   2.222280e+02  -1.284154e+02
   1.306374e+02   3.346972e+00
   1.706282e+01  -2.777779e+01
   1.757304e+02  -5.023244e+01
   3.946163e+02   5.078123e+00
   3.604639e+02   2.515783e+02
   6.923343e+01   4.045132e+02
  -2.781810e+02   3.735351e+02
  -4.052221e+02   2.000277e+02
  -3.220299e+02  -4.716377e+01
  -8.288781e+01  -2.820869e+02
   6.888623e+01  -2.362994e+02
   7.679329e+01  -8.487494e+01
  -7.561640e+01   1.322518e+02
  -1.906652e+02   1.717725e+01
  -7.132108e+01  -1.865864e+02
   1.437770e+02  -1.583825e+02
   1.513939e+02   5.080160e+01
   2.590581e+01   1.831581e+02
  -1.830703e+02   4.142667e+01
  -1.628657e+02  -2.210619e+02
  -2.015247e+01  -3.335445e+02
   1.669216e+02  -2.009458e+02
   3.060034e+02  -1.167851e+01
   2.954282e+02   1.945350e+02
   1.213881e+02   2.420453e+02
  -7.554381e+01   1.195334e+02
  -1.842076e+02   5.218351e+01
  -6.273173e+01  -1.756760e+01
   5.367697e+01   1.790311e+01
   3.420482e+01   1.251546e+02
  -1.068095e+02   1.205060e+02
  -1.799342e+02   5.309322e+00
  -9.516903e+01  -6.614127e+01
   5.344505e+01  -6.140996e+01
   5.268596e+01   3.276921e+01
  -8.315632e+01   7.309440e+01
  -2.322690e+02   3.798250e+01
  -2.699305e+02  -1.183953e+02
  -1.108582e+02  -2.068522e+02
   1.261179e+02  -2.484986e+02
   3.016879e+02  -1.324567e+02
   1.524454e+02   8.986150e+01
  -1.294651e+01   1.442123e+02
  -1.051695e+02  -1.696122e+00
   1.757323e+01  -9.239920e+01
   1.635568e+02  -8.987241e+01
   1.938956e+02   6.742923e+01
   7.998219e+01   1.947923e+02
  -6.107615e+01   1.608737e+02
  -1.489018e+02   4.415747e+01
  -6.134984e+01  -5.287785e+01
  -3.365034e+00   6.355731e+00
   1.155365e+01   8.124338e+01
  -6.093634e+01   9.196020e+01
  -1.760222e+02   4.345034e+01
  -1.656960e+02  -8.163442e+01
  -4.848537e+01  -2.181022e+02
   1.347509e+02  -1.184062e+02
   1.852779e+02  -3.631281e+01
   9.869507e+01   1.252113e+02
  -2.632473e+01   1.192621e+02
  -8.264555e+01  -7.648678e-01
  -3.793054e+01  -4.783913e+01
   3.819245e+00  -4.830783e+01
  -1.779303e+01  -1.722842e+01
  -5.893751e+01   2.420848e+00
  -9.469705e+01  -8.405249e+01
   7.108810e+00  -1.435354e+02
   1.150749e+02  -1.341768e+02
   2.144640e+02  -3.344700e+01
   1.597016e+02   1.360092e+02
   5.133146e+01   2.097864e+02
  -1.082741e+02   1.646073e+02
  -1.366836e+02   3.522969e+01
  -8.951283e+01  -1.984032e+01
  -3.105956e+01  -3.248262e+01
  -7.873385e+01  -6.116722e+00
  -4.595789e+01   1.901631e+01
  -4.092323e+01  -4.285090e+01
   4.498322e+01  -6.106927e+01
   7.491662e+01  -4.418960e+01
   5.925346e+01   4.564510e+01
  -1.568422e+01   9.767399e+01
  -1.076598e+02   9.455929e+01
  -1.703319e+02  -2.284716e+01
  -1.194321e+02  -1.795460e+02
   6.126970e+01  -2.325830e+02
   2.399181e+02  -1.330540e+02
   2.028045e+02   3.673676e+01
   1.038146e+02   1.538551e+02
  -2.571830e+01   1.339565e+02
  -8.841163e+01   8.949256e+01
  -5.400219e+01   6.169523e+01
  -4.825932e+01   1.047012e+02
  -6.339672e+01   9.923865e+01
  -1.146275e+02  -1.711618e+01
  -7.593402e+01  -1.169757e+02
  -6.792166e+01  -1.948237e+02
   4.272221e+01  -1.778151e+02
   1.862601e+02  -5.003426e+01
   1.392439e+02   1.022071e+02
   2.918653e+01   1.336415e+02
  -3.894607e+01   9.037552e+01
  -5.133558e+01   1.416488e+01
  -2.641588e+01  -7.193383e+01
  -3.048025e+01  -3.917121e+01
  -4.479665e+01  -2.395017e+01
  -4.316861e+01  -3.926262e+01
  -3.352430e+00  -2.472387e+01
   3.564176e+01  -2.435868e+01
   1.163817e+02  -8.283645e+00
   1.201781e+02   3.367777e+01
   2.205442e+01   1.137955e+02
  -7.473982e+01   8.361884e+01
  -1.297489e+02   3.269916e+01
  -6.663414e+01  -2.690580e+01
   2.570542e+01  -4.648074e+01
   6.233959e+01  -5.755117e+00
   1.594526e+01   5.820092e+01
  -3.748301e+01   4.382983e+01
  -3.662705e+01  -7.571996e+00
  -4.269545e+01  -3.374273e+01
  -3.287247e+01  -1.091873e+01
  -2.266459e+01   1.355860e+01
  -5.825040e+01  -3.118016e+00
  -2.716383e+01  -2.852404e+01
   1.077216e+01  -1.257245e+02
   9.127038e+01  -9.681799e+01
   1.290320e+02  -2.182004e+01
   1.120158e+02   9.207432e+01
  -1.577056e+00   1.340170e+02
  -6.646431e+01   6.722491e+01
  -4.824612e+01  -4.268593e+01
   9.081776e+01  -3.673694e+01
   1.491680e+02   2.953656e+01
   7.869746e+01   1.166464e+02
  -6.353685e+01   1.039910e+02
  -1.758550e+02   7.376442e+01
  -1.552878e+02  -3.326507e+01
  -4.900303e+01  -7.265127e+01
   3.543311e+01  -7.889974e+01
   5.326129e+01  -3.632512e+00
  -3.828616e+01   3.898733e+01
  -9.529425e+01  -1.151253e+01
  -2.481132e+01  -1.005134e+02
   8.116362e+01  -1.483842e+02
   1.617324e+02  -4.374769e+01
   8.116695e+01   7.292295e+01
   1.977113e-01   1.413136e+02
  -1.119785e+02   1.184920e+02
  -1.209572e+02  -1.078900e+01
  -7.724299e+01  -1.067457e+02
  -1.830097e+01  -1.073896e+02
   1.498252e+01  -3.592308e+01
   5.837153e+01  -1.247326e+01
   3.891590e+01   2.403765e-01
   1.218069e+01  -6.508638e+01
   1.586459e+01   3.717364e+00
   6.445078e+01   6.868349e+01
   6.504348e+01   7.681404e+01
  -9.880417e+00   4.018883e+01
  -1.336724e+02  -3.399949e+01
  -1.205621e+02  -8.603452e+01
   2.715644e+00  -6.265631e+01
   6.118407e+01  -1.831764e+00
   6.547055e+01  -1.285849e+00
   1.303247e+01  -1.632203e+01
  -3.108025e+01   2.725664e+01
  -3.078976e+01   4.502048e+01
   1.915030e+01   2.300485e+01
  -1.663401e+01  -1.044496e+01
  -7.344237e+01  -3.187558e+00
  -6.172259e+01  -1.113409e+01
  -1.310039e+01  -6.980384e+01
   9.535311e+01  -9.676459e+01
   1.426353e+02  -4.920184e+01
   1.003205e+02   2.908303e+01
   5.670776e+01   1.373987e+02
  -6.666472e+01   1.761354e+02
  -1.029529e+02   5.701432e+01
  -7.197936e+01  -1.166646e+01
  -5.397628e+01  -9.193267e+00
  -2.687905e+00  -1.673552e+01
   2.376303e+00   6.290732e+00
  -3.726697e+01  -5.487221e+01
  -3.072578e+01  -4.992739e+01
   1.015291e+01  -6.911081e+01
   9.143910e+01  -2.663238e+01
   6.988501e+01   7.613608e+01
   2.771717e+01   1.155673e+02
  -7.887836e+01   5.099699e+01
  -8.804636e+01  -5.726719e+01
  -3.242816e+01  -1.022368e+02
   5.031928e+01  -6.053613e+01
   9.587998e+01  -5.899869e+00
   3.707048e+01   2.097677e+01
  -2.531872e+01   2.290153e+01
  -3.852085e+01   3.300599e+01
   3.059102e+01  -1.344601e+01
   6.724038e+01  -4.377225e+00
   2.013275e+01   4.029778e+01
  -8.993619e+01   5.296283e+01
  -8.243404e+01   5.785592e+01
  -5.292772e+01   6.352320e-01
  -6.463420e-01  -6.902859e+01
   2.560071e+01  -5.926957e+01
   6.068014e+01  -1.814159e+01
  -1.685636e+01   5.780592e+01
  -2.029175e+01   2.787650e+01
  -4.632902e+01   4.479856e+00
   9.050621e+00  -1.967514e+01
   1.381638e+01  -2.262562e+01
   3.679709e+01  -3.470987e+00
   4.651438e+01   2.211440e+01
   2.064717e+01   1.619865e+01
   1.096702e+01  -1.457999e+01
   8.683915e-01   1.184169e+01
   1.196750e+01   1.002676e+01
   3.933270e+00   1.212128e+01
  -2.308871e+01   1.039998e+01
  -5.873296e+01  -4.867607e+01
   2.053460e+01  -5.699931e+01
   9.311191e+00  -2.012520e+01
   3.188655e+01   4.326597e+01
   1.498326e+00   3.633682e+01
  -6.147602e+01   2.427830e+01
  -8.311894e+01  -5.780240e+00
  -2.578578e+01  -3.791278e+01
   3.087165e+01  -3.349038e+01
   2.891298e+01  -2.745530e+01
  -7.293785e+00   1.395842e+00
  -2.503730e+01  -1.811650e+01
  -6.571112e+01  -1.614495e+01
   6.705884e+01  -5.621884e+01
   1.138633e+02  -1.787415e+01
