
 $NMID
 id='ANONYMOUS ', fmtdat='(2E16.6)'
 volume=1.0
 tramp=1.0
 $END
   3.523854e+03   3.812808e+02
   2.240741e+03   2.107723e+03
  -2.541726e+02   2.037810e+03
  -1.421397e+03   9.696484e+02
  -9.935512e+02   2.373016e+01
   6.161184e+01  -2.570630e+02
   4.405184e+02   1.480411e+02
   1.450854e+01   5.366238e+02
  -4.677151e+02   6.295106e+02
  -8.326049e+02   5.902837e+01
  -4.332190e+02  -5.867331e+02
   8.670083e+01  -6.886952e+02
   3.531095e+02  -1.786015e+02
   3.340670e+02   5.158236e+02
  -1.413056e+02   5.904550e+02
  -4.488151e+02   6.066957e+01
  -2.935645e+02  -5.082234e+02
   1.155567e+02  -5.791804e+02
   4.427390e+02  -2.569643e+02
   4.570998e+02   1.952875e+02
   1.016329e+02   3.874312e+02
  -1.099418e+02   2.473098e+02
  -8.488630e+01   8.607498e+01
   1.329492e+02   8.216002e+01
   2.523180e+02   2.111217e+02
   5.698649e+01   3.445923e+02
  -4.957481e+02   1.981770e+02
  -5.817756e+02  -1.629870e+02
  -2.535884e+02  -3.615749e+02
   2.757221e+02  -2.682645e+02
   5.201894e+02   1.453864e+02
   2.078352e+02   3.392796e+02
  -2.368976e+02   3.918326e+02
  -4.357539e+02   1.320362e+02
  -3.437197e+02  -1.399667e+02
  -4.827551e+01  -3.452369e+02
   6.547691e+01  -1.702605e+02
   7.972047e+00   1.112728e+02
  -2.264246e+02   2.179416e+02
  -2.822128e+02  -4.378588e+01
  -1.163244e+02  -5.060881e+02
   2.308174e+02  -4.887977e+02
   3.976617e+02  -1.133927e+01
   1.703839e+02   3.150559e+02
  -1.716364e+02   1.587396e+02
  -2.016559e+02  -2.402700e+02
   9.572249e+01  -3.423764e+02
   3.879387e+02  -6.812462e+01
   4.836477e+02   3.748306e+02
   1.221050e+02   4.779561e+02
  -3.191288e+02   2.744261e+02
  -4.674342e+02  -7.778457e+01
  -3.112371e+02  -2.855591e+02
   4.354770e+01  -2.511561e+02
   3.159128e+02  -2.630718e+01
   2.259617e+02   9.986687e+01
  -2.147378e+01   6.041907e+01
  -6.873387e+01  -2.965021e+01
   5.389580e+01  -7.049397e+01
   2.021758e+02   4.554262e+01
   1.075016e+02   1.744771e+02
  -1.650948e+02   1.932999e+02
  -3.325636e+02   1.197531e+02
  -2.008210e+02  -6.799249e+01
   1.442994e+01  -3.194525e+02
   2.849000e+02  -3.852033e+02
   3.629885e+02  -1.479678e+02
   2.306739e+02   1.889391e+02
   8.769710e+01   3.534611e+02
  -5.465814e+01   3.176318e+02
  -6.712069e+01   1.592581e+02
  -4.749062e+01   6.232694e+01
  -1.207457e+02   1.089082e+02
  -2.375628e+02   7.599331e+01
  -2.079300e+02  -7.652014e+01
  -8.916237e+01  -2.133356e+02
   7.288941e+01  -1.837703e+02
   1.504604e+02   4.114042e+01
   8.146580e+01   2.405001e+02
  -2.828363e+01   2.546971e+02
  -2.183681e+02   7.173668e+01
  -3.330825e+02  -1.540246e+02
  -1.752890e+02  -3.114471e+02
   6.706590e+01  -2.502384e+02
   1.844565e+02  -1.870197e+02
   1.389595e+02  -7.437134e+01
   1.378067e+02  -5.692598e+01
   2.615481e+02  -2.320083e+01
   3.971398e+02   4.022982e+01
   2.867111e+02   3.065214e+02
  -2.429962e+00   4.546392e+02
  -3.642634e+02   4.233593e+02
  -4.378373e+02   1.676113e+02
  -2.635791e+02  -1.277095e+02
  -3.537757e+01  -2.487509e+02
   4.736032e+01  -1.778344e+02
  -4.734762e+00  -5.885870e+01
  -9.642629e+01   2.344146e+01
  -1.545658e+02  -2.871614e+01
   3.746425e+01  -1.835089e+02
   1.231884e+02  -1.140370e+02
   1.136876e+02   8.157529e+01
  -1.783985e+01   1.449871e+02
  -1.728452e+02   2.871777e+01
  -1.168557e+02  -2.202866e+02
   1.156924e+01  -3.080112e+02
   2.203788e+02  -1.847179e+02
   2.909469e+02   7.681994e+01
   2.598754e+02   2.442670e+02
   4.926876e+01   2.603684e+02
  -9.532267e+01   1.500878e+02
  -1.534338e+02   1.581848e+00
  -4.906421e+01  -9.393951e+00
   6.401223e+01   7.886009e+01
  -2.101344e+01   9.725852e+01
  -1.355306e+02   7.870054e+01
  -1.346065e+02  -2.013936e+01
  -1.970244e+01  -8.104927e+01
   8.654248e+01  -2.331610e+00
   5.755312e+01   9.373198e+01
  -1.458984e+02   1.084517e+02
  -2.575914e+02  -2.199277e+01
  -2.276788e+02  -2.007495e+02
   7.325097e+00  -2.581970e+02
   1.971662e+02  -1.889813e+02
   2.714551e+02  -7.197345e+01
   1.342419e+02   3.418475e+01
  -3.311404e+01   9.343691e+01
  -6.657860e+01  -1.177608e+01
   4.537398e+01  -1.077203e+02
   1.769785e+02  -5.882561e+01
   1.949592e+02   1.428117e+02
   4.373882e+01   1.907398e+02
  -1.077146e+02   1.221395e+02
  -1.270678e+02   1.661118e+01
  -3.003986e+01  -1.749666e+01
   5.930165e+01   3.147588e+01
   5.196299e+01   9.439919e+01
  -9.431060e+01   1.067283e+02
  -1.573434e+02  -1.781512e+01
  -1.947932e+02  -1.093332e+02
  -1.171166e+01  -2.385305e+02
   1.727708e+02  -1.535467e+02
   1.529513e+02  -1.537811e+01
   6.896862e+01   1.094318e+02
  -4.923428e+01   1.055813e+02
  -4.787178e+01   4.172877e+00
  -1.737524e+00  -1.611050e+01
   8.091295e+00  -3.614820e+01
  -1.829398e+01   3.496766e+01
  -1.034043e+02  -1.560348e+01
  -9.989546e+01  -7.285909e+01
   3.368283e+00  -1.756101e+02
   1.189287e+02  -1.513286e+02
   2.062105e+02  -7.410646e+00
   1.835126e+02   1.636285e+02
   1.054108e+01   2.090396e+02
  -9.790359e+01   1.538992e+02
  -1.081396e+02   4.161208e+00
  -8.634366e+01  -6.635183e+01
  -2.173305e+01  -2.393182e+01
  -6.002159e+01   2.592285e+01
  -5.050394e+01   2.116301e+01
  -4.720326e+01  -6.165190e+01
   4.109337e+01  -9.343008e+01
   1.073033e+02  -3.511879e+01
   1.035680e+02   6.035630e+01
  -2.148382e+01   1.435110e+02
  -1.538056e+02   8.019966e+01
  -2.167328e+02  -5.996189e+01
  -8.162477e+01  -1.922400e+02
   1.501038e+02  -2.382280e+02
   2.412644e+02  -7.359244e+01
   2.066083e+02   9.925033e+01
   1.051632e+02   1.435427e+02
  -1.010996e+01   1.177423e+02
  -9.938060e+01   1.043129e+02
  -8.359797e+01   8.082730e+01
  -3.382923e+01   6.440614e+01
  -6.380941e+01   5.331545e+01
  -1.379399e+02  -3.824240e+01
  -1.202523e+02  -1.411267e+02
  -1.220299e+01  -2.152848e+02
   1.000861e+02  -1.582519e+02
   1.472934e+02   3.558838e+00
   1.004957e+02   1.178335e+02
  -1.489245e+01   1.628535e+02
  -7.514852e+01   9.030744e+01
  -4.069564e+01   2.643053e-03
  -1.277784e-02  -6.415592e+01
   1.214121e+01  -5.389184e+00
   1.144649e+00  -1.518157e+01
  -8.241079e+01  -1.145162e+01
  -4.312762e+01  -2.038781e+01
   5.140701e+01  -5.678378e+01
   1.442513e+02  -9.032450e+00
   1.532859e+02   3.904593e+01
   9.221485e+00   1.034219e+02
  -1.381856e+02   4.734175e+01
  -1.355394e+02   1.494774e+01
  -4.782376e+01  -4.194486e+01
   5.283220e+01  -4.205794e+01
   8.589907e+01   1.682197e+01
   3.845692e+01   7.366304e+01
  -7.430060e+01   6.800351e+01
  -5.590058e+01  -1.671896e+01
  -3.444381e+01  -1.911508e+01
  -4.869411e+01  -6.679727e+01
  -6.751209e+01  -2.555085e+01
  -6.624872e+01  -1.892247e+01
  -2.542697e+01  -6.922033e+01
   6.509475e+01  -1.537701e+02
   1.253069e+02  -1.402882e+02
   1.761424e+02  -1.722173e+01
   1.177654e+02   1.096224e+02
  -1.856470e+01   1.509278e+02
  -1.035462e+02   5.095012e+01
  -5.829839e+01   1.651148e+00
   4.758689e+01  -6.723077e+00
   1.248152e+02   5.640905e+01
   4.386571e+01   1.215951e+02
  -4.462252e+01   1.173497e+02
  -1.484468e+02   3.383970e+01
  -1.571878e+02  -7.297043e+01
  -5.862876e+01  -8.813204e+01
   3.298144e+01  -4.526157e+01
   8.749185e+01  -6.409200e+00
  -3.860841e+01   2.605505e+01
  -9.953218e+01  -2.587653e+01
  -1.274372e+01  -1.158136e+02
   9.492920e+01  -1.340179e+02
   1.860906e+02  -3.972364e+01
   1.060567e+02   1.007609e+02
  -3.666711e+01   1.911200e+02
  -7.872894e+01   1.350180e+02
  -1.119245e+02  -1.607807e+01
  -6.177802e+01  -1.109101e+02
   9.944869e+00  -8.820411e+01
   3.900794e+01   2.965552e-01
   4.986470e+01   2.015204e+01
   5.627791e+00   3.940005e+00
   2.415341e+01  -1.040181e+01
   4.855319e+01   5.941768e-01
   6.206738e+01   9.914189e+01
   6.179862e+01   1.121983e+02
  -3.756210e+01   3.086619e+01
  -1.286248e+02  -4.189575e+01
  -1.403002e+02  -7.347729e+01
  -2.128491e+01  -5.416163e+01
   5.844887e+01  -1.751834e+01
   5.748204e+01  -1.628227e+01
   4.761519e+00   8.909066e+00
  -4.016726e+01   1.860112e+01
  -3.068694e+01   4.466132e+00
   2.974867e+00  -5.193412e+00
  -5.114183e+00   3.614224e+00
  -6.422475e+01   2.053433e+01
  -5.986536e+01  -2.071317e+01
  -2.845495e+01  -7.095436e+01
   9.961040e+01  -1.057957e+02
   1.672385e+02  -7.919754e+01
   1.379509e+02   4.186479e+01
   3.432869e+01   1.259652e+02
  -3.580696e+01   1.500068e+02
  -9.851376e+01   6.345311e+01
  -8.672485e+01  -2.754179e+01
  -3.819510e+01  -3.865354e+01
  -1.022487e+01  -2.519679e+01
   8.520914e+00  -1.963947e+01
  -2.169400e+00  -1.024480e+01
   5.902179e-01  -7.658331e+01
   8.458757e+00  -4.915109e+01
   6.971362e+01  -2.500749e+01
   6.607458e+01   1.034824e+02
  -1.898826e+01   8.883604e+01
  -7.020994e+01   1.914650e+01
  -9.451728e+01  -4.397405e+01
  -5.570322e+01  -1.147554e+02
   3.568505e+01  -6.065940e+01
   8.114557e+01   1.610954e+01
   6.554882e+01   3.850243e+01
  -2.434406e+01   7.555835e+01
  -2.675210e+01   4.021118e+01
   3.343721e+01  -3.303436e+01
   6.013059e+01  -2.128042e+01
   1.130590e+01   1.333585e+01
  -7.617193e+01   6.350651e+01
  -1.212377e+02   6.731504e+01
  -5.715602e+01  -9.639100e+00
   5.546221e+00  -8.308251e+01
   5.870443e+01  -9.543172e+01
   7.146059e+01  -1.307063e+01
   7.096580e+00   6.786382e+01
  -3.461328e+01   6.143120e+01
  -3.688624e+01  -6.645522e+00
  -3.852336e+00  -5.358608e+01
   6.898786e+00  -3.268083e+01
   2.402387e+01   4.531333e+00
   3.366039e+01   3.857796e+01
   4.020235e+01   3.031524e+01
  -5.019846e+00  -1.239069e+01
   7.993634e+00  -1.053363e+01
  -8.985176e+00   4.312683e+01
   4.166476e+00   4.264855e+01
  -2.209917e+01   2.479238e+01
  -1.540495e+01  -1.556226e+01
  -4.449698e+00  -5.644781e+01
   5.737642e+01  -5.123824e+01
   6.546797e+01   3.113302e+01
   4.030336e+01   7.634749e+01
  -3.257168e+01   4.101379e+01
  -8.194408e+01  -4.585007e+00
  -6.910672e+01  -4.118362e+01
   5.705158e+01  -5.482217e+01
   7.202985e+01   5.975437e+00
   2.897937e+01  -2.018273e+01
  -2.550499e+01   5.340536e+00
  -2.367645e+01   1.487022e+01
  -2.913706e+00  -4.080627e+01
   7.858038e+01   6.474727e+00
