
 $NMID
 id='ANONYMOUS ', fmtdat='(2E16.6)'
 volume=1.0
 tramp=1.0
 $END
   3.651933e+03   2.438419e+01
   2.184606e+03   1.893883e+03
  -6.580606e+02   2.115330e+03
  -1.608100e+03   7.039801e+02
  -6.976029e+02  -6.116706e+02
   6.127517e+02  -4.973134e+02
   7.760209e+02   3.151225e+02
   1.374079e+02   8.474934e+02
  -6.544397e+02   6.885641e+02
  -7.570236e+02   1.910563e+01
  -4.315236e+02  -6.006926e+02
   1.392232e+02  -6.580033e+02
   5.029734e+02  -3.496354e+01
   3.877821e+02   5.513935e+02
  -1.841062e+02   6.389741e+02
  -5.047487e+02   6.434889e+01
  -2.637427e+02  -5.471444e+02
   2.274354e+02  -5.217874e+02
   4.323081e+02  -9.781947e+01
   2.953212e+02   2.347926e+02
   4.278659e+01   3.562749e+02
  -1.815181e+02   2.058705e+02
  -1.445052e+02  -4.088809e+01
   6.273513e+01  -8.634466e+01
   3.890051e+02   3.235851e+01
   2.420407e+02   3.335641e+02
  -3.189163e+02   4.339768e+02
  -6.736813e+02   5.937641e+01
  -4.377726e+02  -4.111001e+02
   2.875961e+02  -3.916129e+02
   6.454877e+02   1.176557e+00
   3.132347e+02   3.924030e+02
  -1.672940e+02   4.309360e+02
  -4.510091e+02   2.063017e+02
  -3.977712e+02  -1.539126e+02
  -1.077050e+02  -4.089979e+02
   1.926937e+02  -2.432965e+02
   2.098444e+02   1.515518e+02
  -1.181062e+02   4.024548e+02
  -3.432577e+02   6.498653e+01
  -2.860833e+02  -4.987246e+02
   2.326324e+02  -5.957367e+02
   4.962654e+02  -2.332677e+00
   1.948385e+02   4.399280e+02
  -2.839292e+02   2.748408e+02
  -3.325532e+02  -2.544196e+02
   2.886085e+01  -4.739477e+02
   4.386831e+02  -2.045088e+02
   5.441846e+02   2.674976e+02
   1.770787e+02   4.805252e+02
  -2.778520e+02   3.202775e+02
  -5.230296e+02  -5.392090e+01
  -3.224893e+02  -2.887799e+02
   9.583036e+01  -2.904974e+02
   3.332514e+02  -8.475761e+01
   1.993783e+02   1.414045e+02
  -1.269041e+02   5.761602e+01
  -1.249013e+02  -1.399616e+02
   1.111386e+02  -1.812328e+02
   2.816231e+02   2.867402e+01
   1.743264e+02   2.181338e+02
  -1.533218e+02   2.492896e+02
  -2.848160e+02   9.303775e+01
  -1.601768e+02  -7.636763e+01
  -1.141606e+01  -1.962970e+02
   1.119511e+02  -3.101583e+02
   2.264672e+02  -1.964270e+02
   2.393333e+02   6.160618e+01
   5.479830e+01   3.135298e+02
  -1.039018e+02   2.537789e+02
  -8.204730e+01   5.661340e+01
   5.750097e+00  -6.506709e+00
  -1.937753e+01   6.869259e+01
  -1.282025e+02   1.374133e+02
  -2.199604e+02  -1.823546e+01
  -1.623011e+02  -1.887609e+02
   4.691460e+01  -2.387665e+02
   1.866548e+02  -5.188978e+01
   1.868457e+02   1.820450e+02
   4.983704e+01   2.210251e+02
  -1.767132e+02   1.112656e+02
  -3.122804e+02  -9.680796e+01
  -1.712367e+02  -2.782946e+02
   8.221703e+01  -2.157203e+02
   1.232259e+02  -1.109391e+02
   9.846519e+01   1.494493e+01
   3.119356e+01  -4.810743e+01
   1.706853e+02  -1.159617e+02
   3.037715e+02  -7.534755e+00
   2.796614e+02   1.866028e+02
   7.573330e+01   3.549504e+02
  -1.944002e+02   3.529602e+02
  -3.846293e+02   2.369165e+02
  -3.285842e+02  -7.259279e+01
  -7.008260e+01  -2.241316e+02
   9.024028e+01  -2.146367e+02
   6.682874e+01  -5.587332e+01
  -6.112396e+01   1.197213e+02
  -1.833301e+02  -1.324409e+01
  -7.659044e+01  -1.671308e+02
   7.531405e+01  -1.208811e+02
   1.416604e+02   2.749386e+01
  -3.846231e+00   1.695420e+02
  -1.417093e+02   7.662489e+01
  -1.915933e+02  -1.528159e+02
   1.639494e+00  -2.993843e+02
   1.290118e+02  -1.837643e+02
   2.499541e+02   4.072402e-02
   2.313936e+02   1.355974e+02
   1.294961e+02   2.177725e+02
  -7.381552e+01   1.158679e+02
  -1.401796e+02   5.804326e+01
  -4.432616e+01  -4.273024e+01
   7.523599e+01   1.781871e+01
   5.950408e+01   9.476349e+01
  -1.298363e+02   1.136456e+02
  -1.391808e+02   1.313050e+01
  -7.259922e+01  -1.017629e+02
   8.353598e+01  -6.084648e+01
   5.966838e+01   5.473778e+01
  -8.769496e+01   9.008407e+01
  -1.910267e+02   2.263400e+01
  -2.188135e+02  -5.285641e+01
  -1.330590e+02  -1.801526e+02
   1.138383e+02  -2.368517e+02
   1.964060e+02  -1.331916e+02
   1.248481e+02   4.484702e+01
  -1.291682e+01   7.797926e+01
  -8.496473e+01   3.655442e+01
  -1.590253e+01  -1.192027e+02
   1.270178e+02  -1.009026e+02
   2.041954e+02   5.296148e+01
   9.117744e+01   1.508569e+02
  -6.788836e+01   1.434676e+02
  -9.987978e+01   3.023345e+01
  -5.637979e+01  -3.144776e+01
   1.535218e+01  -3.984022e+01
   5.422953e+01   8.124834e+01
  -2.543195e+01   9.393768e+01
  -1.507528e+02   5.472807e+01
  -1.623982e+02  -5.456256e+01
  -2.778068e+01  -1.587993e+02
   9.413167e+01  -1.459233e+02
   1.649215e+02  -1.616452e+01
   6.819327e+01   1.027930e+02
  -4.332542e+01   9.399636e+01
  -6.773878e+01  -2.716027e+01
  -4.292697e+01  -4.200088e+01
   1.901160e+01  -5.661533e+01
   2.564348e+01  -5.380370e+00
  -4.770961e+01  -6.766716e+00
  -7.120610e+01  -1.339212e+01
  -1.291175e+01  -1.032457e+02
   7.831380e+01  -1.368944e+02
   1.549844e+02  -5.219237e+01
   1.830441e+02   1.071505e+02
   4.323270e+01   1.650151e+02
  -5.033338e+01   1.608742e+02
  -1.383865e+02   2.531170e+01
  -6.624273e+01  -4.153709e+01
  -8.037470e-01  -3.790871e+01
  -2.146049e+01   3.513499e+01
  -5.521744e+01   2.541740e+01
  -4.257245e+01  -3.249095e+01
   2.106132e+01  -7.442535e+01
   7.828367e+01  -4.256923e+01
   7.360963e+01   2.080681e+01
  -4.017408e+00   1.015409e+02
  -1.217263e+02   8.967353e+01
  -1.783297e+02   1.881222e+01
  -1.067680e+02  -1.667618e+02
   2.345057e+01  -1.863858e+02
   2.298399e+02  -1.007701e+02
   2.167599e+02   4.104884e+01
   1.366149e+02   1.117656e+02
  -3.647788e+00   1.025272e+02
  -7.019492e+01   8.672695e+01
  -5.112264e+01   6.828184e+01
  -6.597371e+01   1.055844e+02
  -6.201693e+01   4.578864e+01
  -1.074118e+02  -5.422790e+00
  -1.349464e+02  -8.691599e+01
  -3.803794e+01  -1.705674e+02
   8.863318e+01  -1.391150e+02
   1.461612e+02  -1.282156e+01
   9.395537e+01   5.995820e+01
   2.799489e+00   1.098830e+02
  -3.608456e+01   9.413686e+01
  -3.465578e+01  -1.609817e+01
  -3.187241e+01  -7.701313e+01
  -8.107934e+00  -3.004913e+01
  -1.873798e+01  -7.878787e-01
  -6.088419e+01  -8.450084e+00
  -3.152109e+01  -4.178318e+01
   4.478735e+01  -2.620205e+01
   1.047191e+02  -7.977478e+00
   6.110247e+01   2.707929e+01
   3.863176e+01   5.905232e+01
  -7.519424e+01   5.323167e+01
  -9.708852e+01   3.037808e+01
  -5.389000e+01  -1.702369e+01
   4.193043e+01  -4.192374e+01
   4.567056e+01   6.062131e+00
  -1.225666e+01   4.294066e+01
  -4.653632e+01   4.126916e+01
  -4.535234e+01   3.363727e+01
  -3.984995e+01  -1.475836e+01
  -2.818521e+01  -1.393068e+01
  -6.697293e+01   1.251509e+01
  -8.820700e+01   5.887882e+00
  -6.659525e+01  -6.461282e+01
   7.860776e+00  -1.177460e+02
   6.208894e+01  -1.151152e+02
   1.249977e+02  -4.913188e+01
   9.858296e+01   4.143797e+01
   2.637385e+01   9.955530e+01
  -7.935948e+01   6.542554e+01
  -3.198073e+01  -2.170879e+01
   5.039776e+01  -4.716007e+00
   1.026648e+02   1.231212e+01
   7.999214e+01   6.682289e+01
  -3.646913e+01   1.099676e+02
  -1.158677e+02   6.053223e+01
  -1.221156e+02  -2.556306e+01
  -6.032944e+01  -7.453295e+01
   3.970150e+01  -5.368776e+01
   6.970272e+01  -6.752280e+00
  -1.535573e+01   2.090649e+01
  -7.239367e+01   5.066861e+00
  -4.056983e+01  -8.272818e+01
   4.632216e+01  -1.170693e+02
   1.226377e+02  -6.999071e+01
   9.514317e+01   7.645973e+01
   5.560291e+01   1.535352e+02
  -4.710348e+01   1.111786e+02
  -1.024773e+02   2.904916e+01
  -1.024807e+02  -9.342984e+01
  -3.388923e+01  -9.537609e+01
   2.660715e+01  -4.577325e+01
   7.928460e+01  -1.618838e+01
   2.598314e+01   2.467907e+00
   2.515551e+01  -4.083954e+00
   2.256727e+01   1.595821e+01
   4.765194e+01   8.080104e+01
   3.607024e+01   7.661208e+01
  -3.157772e+01   5.601347e+01
  -9.952148e+01   2.458445e+01
  -9.426133e+01  -3.692325e+01
  -4.192809e+01  -3.359684e+01
   8.732156e+01  -3.936398e+01
   9.363216e+01  -4.931540e+01
   3.024069e+01  -9.937636e+00
  -2.716754e+01   3.106982e+01
  -2.245309e+01   3.628387e+01
   2.107086e+01   6.628917e+01
  -1.088176e+00  -9.093539e+00
  -6.721911e+01   8.004117e+00
  -5.742113e+01  -5.511306e+00
  -1.124756e+01  -4.237607e+01
   8.232254e+01  -9.439775e+01
   1.415036e+02  -7.105060e+01
   9.468944e+01   2.444740e+01
   5.436730e+01   1.248012e+02
  -3.411292e+01   1.100745e+02
  -5.312918e+01   4.545184e+01
  -3.555557e+01  -9.753079e+00
  -3.251379e+01  -1.700647e+01
   1.348446e+01  -1.364631e+01
  -2.151489e+01   7.594801e+00
  -2.281458e+01  -2.371327e+01
  -2.383494e+01  -6.406479e+01
   7.942885e+00  -4.462345e+01
   8.106322e+01  -8.981222e+00
   8.735413e+01   9.773932e+01
   1.895598e+01   1.032725e+02
  -4.041841e+01   6.642193e+01
  -8.371215e+01  -6.475700e+00
  -3.485969e+01  -7.976208e+01
   2.975659e+01  -4.028964e+01
   5.730416e+01   1.760987e+01
   1.912082e+01   1.130168e+00
  -1.149951e+01   4.762761e+01
  -1.992437e+01   2.158575e+01
   4.641214e+01   4.201606e+00
   2.701399e+01  -7.036627e+00
   1.661494e+00   1.354697e+01
  -7.798035e+01   5.173806e+01
  -8.054419e+01   5.256242e+01
  -5.815024e+01  -7.738282e+00
   1.174580e+01  -7.625115e+01
   6.142588e+01  -8.161048e+01
   3.717899e+01  -7.924170e+00
   1.606547e+01   7.654607e+01
  -1.181442e+01   6.136321e+01
  -7.601368e+00   6.190262e+00
  -9.242033e+00  -4.155039e+01
   6.920233e+00  -1.157686e+01
   6.163230e+00   4.644588e+00
   3.608478e+01   4.635556e+01
   1.148391e+01   7.675112e+00
  -5.826612e+00   1.105781e+01
  -6.455095e+00  -2.502999e+00
   8.158704e-01   1.395471e+01
   1.578599e+01   4.519501e+01
  -4.028774e+01   3.170257e+01
  -4.553829e+01  -4.458774e+01
  -1.722752e+01  -7.695595e+01
   5.759296e+01  -2.191885e+01
   5.159486e+01   2.441132e+01
   2.315007e+01   5.795812e+01
  -4.603709e+01   4.080781e+01
  -8.269551e+01  -1.008394e+01
  -4.033425e+01  -9.604393e+00
   3.888193e+01  -5.336752e+01
   5.068636e+01  -2.902972e+01
  -2.915532e+00  -2.092300e+01
  -1.699073e+01  -3.976106e+00
  -2.638793e+01  -3.431617e+00
   2.732153e+01  -5.654675e+01
   1.016279e+02  -3.393124e+01
