
 $NMID
 id='ANONYMOUS ', fmtdat='(2E16.6)'
 volume=1.0
 tramp=1.0
 $END
  -3.829401e+03   1.983879e+02
  -2.454907e+03  -2.296731e+03
   3.930169e+02  -2.610442e+03
   2.074333e+03  -7.394816e+02
   7.761096e+02   6.488487e+02
  -6.063772e+02   6.009402e+02
  -9.459235e+02  -4.157493e+02
   2.145677e+01  -1.012908e+03
   8.217305e+02  -7.510937e+02
   9.355832e+02   8.467303e+01
   4.207675e+02   8.121089e+02
  -2.864600e+02   8.976549e+02
  -6.578753e+02   9.401175e+01
  -4.356110e+02  -7.007270e+02
   1.710236e+02  -7.494395e+02
   6.023360e+02  -3.349317e+01
   3.330854e+02   5.771426e+02
  -2.261516e+02   5.527632e+02
  -5.304663e+02   1.149591e+02
  -3.933522e+02  -2.976279e+02
  -7.221371e+01  -4.046257e+02
   2.265613e+02  -3.109013e+02
   2.190488e+02  -4.332823e+01
  -7.412805e+01   1.486028e+02
  -4.479314e+02  -3.140181e+01
  -2.978602e+02  -3.596633e+02
   3.237744e+02  -4.505969e+02
   7.828127e+02  -5.907072e+01
   4.677102e+02   5.003220e+02
  -2.739805e+02   5.241049e+02
  -6.854152e+02   9.729200e+01
  -4.521289e+02  -4.182620e+02
   2.181948e+02  -5.066509e+02
   5.267277e+02  -2.851373e+02
   4.403504e+02   2.461988e+02
   9.813582e+01   4.693176e+02
  -2.201369e+02   3.069623e+02
  -2.441302e+02  -1.771176e+02
   1.263214e+02  -4.555175e+02
   4.324147e+02  -3.358944e+01
   2.947551e+02   6.597018e+02
  -2.383613e+02   6.510992e+02
  -5.693847e+02   3.983247e+01
  -2.821211e+02  -4.660953e+02
   2.582559e+02  -3.480200e+02
   3.942257e+02   2.041469e+02
   1.216395e+01   5.064537e+02
  -5.117470e+02   2.092357e+02
  -6.170949e+02  -3.089699e+02
  -2.081040e+02  -5.325320e+02
   3.084903e+02  -3.544097e+02
   5.855086e+02   2.580056e+01
   4.021070e+02   3.249713e+02
  -5.894916e+01   3.631158e+02
  -4.007924e+02   1.281577e+02
  -2.268751e+02  -2.057793e+02
   1.125417e+02  -1.454629e+02
   1.912251e+02   1.266559e+02
  -1.330028e+02   2.150571e+02
  -2.845857e+02  -5.365626e+01
  -1.406898e+02  -2.551347e+02
   1.308185e+02  -2.344335e+02
   2.603809e+02  -1.003299e+02
   1.767661e+02   4.265269e+01
  -7.841570e+00   1.688944e+02
  -1.129661e+02   3.046054e+02
  -3.021804e+02   2.412357e+02
  -3.388662e+02  -8.271507e+01
  -1.163879e+02  -4.119265e+02
   1.201206e+02  -3.657876e+02
   1.669957e+02  -9.304090e+01
   3.594599e+01   1.572659e+01
   1.794291e+01  -5.482841e+01
   1.140283e+02  -1.085729e+02
   2.368162e+02   4.704070e+00
   1.760377e+02   1.987548e+02
  -6.139974e+00   2.286693e+02
  -2.277523e+02   7.002519e+01
  -2.301070e+02  -1.799608e+02
  -3.815648e+01  -2.587047e+02
   2.165969e+02  -1.194666e+02
   3.001448e+02   8.075225e+01
   1.748901e+02   2.840139e+02
  -8.145368e+01   2.718895e+02
  -1.907567e+02   1.378667e+02
  -1.013064e+02   5.564400e+00
  -6.460143e+01   2.879287e+01
  -1.716351e+02   6.636711e+01
  -3.487256e+02  -1.926315e+01
  -3.408473e+02  -2.207061e+02
  -9.712065e+01  -3.318755e+02
   2.833149e+02  -4.054731e+02
   4.272959e+02  -2.054327e+02
   3.235565e+02   4.340678e+01
   9.645964e+01   2.499071e+02
  -8.775680e+01   2.404361e+02
  -8.674916e+01   6.164994e+01
   7.406622e+01  -8.042267e+01
   1.880712e+02   7.040044e+00
   7.440904e+01   1.718924e+02
  -1.346825e+02   1.600361e+02
  -1.903904e+02  -6.123043e+01
  -1.415477e+01  -1.867196e+02
   1.712861e+02  -6.097343e+01
   1.593190e+02   2.271348e+02
  -9.787949e-01   3.225561e+02
  -1.649453e+02   1.897897e+02
  -3.031459e+02  -2.584777e+01
  -2.191659e+02  -1.642107e+02
  -1.068169e+02  -2.558072e+02
   7.643012e+01  -1.337588e+02
   1.849616e+02  -5.516519e+01
   6.621201e+01   3.057026e+01
  -9.122121e+01  -2.122852e+00
  -5.327237e+01  -1.140175e+02
   1.029738e+02  -1.267161e+02
   1.728224e+02  -2.124525e+01
   7.639575e+01   9.578288e+01
  -7.713400e+01   2.626118e+01
  -7.842546e+01  -2.528639e+01
   1.127267e+02  -1.155436e+02
   2.434336e+02  -4.565654e+01
   2.334546e+02   8.658298e+01
   1.205270e+02   1.985602e+02
  -9.156429e+01   2.669890e+02
  -2.602593e+02   1.409360e+02
  -1.544522e+02  -5.226266e+01
  -1.036877e+01  -1.136035e+02
   1.123413e+02  -1.457298e+01
  -9.060999e+00   9.687831e+01
  -1.693303e+02   5.771642e+01
  -1.959982e+02  -5.064002e+01
  -8.167372e+01  -1.667975e+02
   6.571607e+01  -1.703264e+02
   1.190566e+02  -4.820562e+01
   8.091278e+01   4.171117e+01
  -1.581593e+01   1.197088e+01
  -4.553126e+01  -7.138492e+01
   4.204032e+01  -1.327232e+02
   1.423747e+02  -4.377182e+01
   2.031506e+02   6.646427e+01
   4.173354e+01   2.058523e+02
  -1.302904e+02   1.859117e+02
  -1.662578e+02   5.291973e+01
  -1.125777e+02  -1.186435e+02
   4.395582e+01  -1.009420e+02
   4.826588e+01  -4.313294e+01
   5.664616e+01   4.599851e+01
  -1.738575e+01   3.688357e+01
   2.265991e+01  -8.950014e-01
   5.744919e+01  -2.261984e+01
   9.105546e+01   5.557790e+01
   2.408826e+01   1.367329e+02
  -1.171909e+02   1.278680e+02
  -2.053692e+02   9.324333e-01
  -1.643833e+02  -1.111328e+02
  -4.920959e+01  -1.852198e+02
   8.357815e+01  -1.627723e+02
   1.105163e+02  -5.109235e+01
   7.163943e+01   5.034880e+01
   1.291464e+01   4.467419e+01
   3.040281e+01   1.421988e+01
   4.652081e+01  -3.547581e+01
   1.395642e+01   5.176848e+01
  -2.254387e+01   5.885491e+01
  -6.287728e+01   4.956637e+01
  -6.521662e+01  -4.161291e+01
  -5.900203e+00  -6.560917e+01
   1.058042e+02  -7.874975e+01
   1.735756e+02   1.114590e+01
   1.001195e+02   1.697423e+02
  -6.003443e+01   2.220355e+02
  -2.268962e+02   1.183690e+02
  -2.252642e+02  -6.989787e+01
  -1.239713e+02  -1.358294e+02
   4.254893e+01  -1.448920e+02
   9.030464e+01  -9.330028e+01
   6.388335e+01  -5.932451e+01
   4.099184e+01  -4.587580e+01
   5.105886e+01  -1.060262e+02
   1.082260e+02   1.408013e+01
   9.673345e+01   1.012765e+02
   5.711625e+01   1.809439e+02
  -4.749363e+01   1.614080e+02
  -1.630058e+02   7.597190e+01
  -1.390476e+02  -8.820067e+01
  -1.574503e+01  -1.563918e+02
   5.371595e+01  -1.143788e+02
   6.269426e+01  -1.599119e+01
  -1.258984e+01   4.362942e+01
   1.917792e+01   4.413758e+01
   1.929660e+01   2.360784e+00
   3.634729e+01   1.194728e+01
   3.474336e+01   2.654606e+01
  -5.389062e+01   5.020444e+01
  -1.545213e+02   3.436070e+01
  -1.584653e+02  -1.709592e+01
  -2.964911e+01  -9.163161e+01
   9.504002e+01  -8.926767e+01
   1.271301e+02  -2.390276e+01
   9.071398e+01   3.305714e+01
  -4.794450e+01   5.680895e+01
  -9.136195e+01   6.943012e+00
  -3.536265e+01  -3.585466e+01
   5.369641e+01  -5.316834e+01
   3.780626e+01  -1.948337e+01
   5.657626e+01   6.300286e+01
   4.830024e+01   3.289668e+01
   2.032799e+01   8.031622e+00
   4.517576e+01  -1.894368e+00
   3.956369e+01   5.438559e+01
  -4.071844e+01   9.081124e+01
  -6.751376e+01   1.152958e+02
  -1.150132e+02   5.771542e+01
  -1.195399e+02  -7.326433e+01
  -1.095131e+01  -9.627500e+01
   6.109255e+01  -6.688406e+01
   4.799159e+01   2.057041e+01
  -6.845482e+01   1.644642e+01
  -1.054572e+02  -4.447243e+01
  -8.428355e+01  -5.613807e+01
   5.746198e+01  -7.893524e+01
   1.679249e+02  -6.873993e+01
   1.232867e+02   2.835340e+01
   2.659035e+01   4.951140e+01
  -2.547883e+01   5.794392e+01
  -5.689981e+01   6.824152e+00
   2.909776e+01  -2.398134e+01
   7.388522e+01   9.785427e+00
   4.376801e+01   1.293955e+02
  -7.424560e+01   1.116249e+02
  -1.588913e+02   4.425045e+01
  -1.371941e+02  -5.080141e+01
  -1.479007e+01  -1.606804e+02
   6.751415e+01  -1.459957e+02
   1.019975e+02  -6.735031e+00
   6.793426e+01   1.357057e+02
   3.150875e+01   1.373375e+02
  -5.059041e+01   3.255358e+01
  -4.853790e+01  -2.061554e+01
  -7.546836e+00   8.791328e+00
   2.648238e+01   5.434531e+01
  -1.772810e+01  -1.237997e+01
  -6.244889e+01  -6.608939e+01
  -4.446288e+01  -8.261266e+01
   1.664630e+01  -4.780304e+01
   1.138782e+02   8.798701e+00
   1.096163e+02   7.524419e+01
   2.523483e+00   4.709633e+01
  -9.121821e+01   5.385072e+01
  -1.038350e+02   2.531956e+01
  -1.225023e+01  -4.269443e+01
   1.347138e+01  -1.900947e+01
   1.317404e+01  -1.033463e+01
  -2.358412e+01  -2.851792e+01
   1.684663e+01   1.824990e+01
   8.030818e+01  -1.306245e+01
   8.229738e+01  -1.120800e+00
   6.773106e+00   5.272525e+01
  -1.092772e+02   1.086146e+02
  -1.352299e+02   6.588328e+01
  -1.319457e+02  -5.680238e+01
  -7.044899e+01  -1.550504e+02
   7.330396e+01  -1.298891e+02
   1.086613e+02  -5.894100e+01
   6.411750e+01   3.137540e+00
   4.002114e+01   5.883215e+01
  -1.337454e+01   9.078345e+00
   5.418387e+00   6.588932e+00
   3.990410e+01   1.511066e+01
   4.140090e+01   9.821197e+01
  -1.523930e+01   5.242091e+01
  -7.633409e+01   1.364215e+01
  -8.448935e+01  -9.374076e+01
  -8.343158e+00  -8.888923e+01
   8.908044e+01  -4.369463e+01
   9.166960e+01   5.673999e+01
   4.657302e+01   8.072620e+01
  -7.389399e+01   4.480410e+01
  -1.067836e+02  -5.359073e+00
  -5.352015e+01  -2.313057e+01
  -6.615081e+00  -2.326603e+01
   4.975933e+01  -2.628770e+01
  -7.294146e+00  -1.091024e+00
  -6.321616e+01   6.447093e+00
  -3.130698e+01  -1.854802e+01
   8.119397e+01  -6.321571e+01
   9.539413e+01  -6.380342e+01
   5.872815e+01   1.319391e+01
  -1.776149e+01   7.454286e+01
  -2.805333e+01   6.526158e+01
  -2.703528e+01  -5.610815e+00
   2.797618e+01  -6.975463e+01
   1.506814e+01  -2.754797e+01
   1.899566e+01   2.490202e+01
   1.331130e+00   5.965375e+01
   1.395823e+01   1.914214e+01
  -2.916655e+01   1.881834e+01
  -4.511831e+01  -2.007506e+01
  -1.405632e+01   1.028855e+00
   1.308102e+00   1.590310e+01
  -1.902262e+01   1.804680e+01
   1.810740e+01  -2.169347e+01
   9.006524e+00  -3.524336e+01
   4.071004e+01  -1.274576e+01
   3.796416e+01   2.296148e+01
   3.752773e+00   4.787785e+01
  -5.232372e+01   4.004442e+01
  -1.931162e+01  -1.757609e+01
  -1.695778e+01  -5.654327e+01
   7.383357e+01  -3.613101e+01
   6.479032e+01  -1.149190e+01
   3.119798e+01   2.594024e+01
  -2.719663e+01   5.174751e+01
  -3.945351e+01   2.708480e+01
  -1.724320e+01   2.361928e+01
   1.186181e+01   2.691690e+00
   4.134076e+01   3.638882e+01
  -2.330493e+01   3.928202e+01
  -9.332678e+01  -1.116354e+00
