
 $NMID
 id='ANONYMOUS ', fmtdat='(2E16.6)'
 volume=1.0
 tramp=1.0
 $END
   3.186665e+03   9.817756e+01
   1.946320e+03   1.801662e+03
  -8.792850e+01   1.887439e+03
  -1.395790e+03   1.114947e+03
  -9.476795e+02   1.417314e+02
   1.386784e+02  -2.661460e+02
   4.519742e+02   1.507569e+02
   2.211921e+00   6.127997e+02
  -5.357511e+02   5.424251e+02
  -7.272496e+02   1.371516e+01
  -3.891757e+02  -5.661912e+02
   8.413934e+01  -6.236806e+02
   3.402345e+02  -2.160000e+02
   2.234208e+02   4.421597e+02
  -1.566800e+02   5.332404e+02
  -4.600332e+02   1.641288e+01
  -2.578044e+02  -4.978773e+02
   1.940342e+02  -6.167151e+02
   4.318487e+02  -2.367844e+02
   4.432572e+02   2.076690e+02
   9.686824e+01   3.298270e+02
  -1.156019e+02   2.452947e+02
  -9.353338e+01   6.286969e+01
   1.778154e+02   8.801191e+01
   2.546792e+02   2.382271e+02
   7.482924e+01   3.326848e+02
  -4.046858e+02   1.927368e+02
  -6.218148e+02  -1.253600e+02
  -3.314603e+02  -3.579623e+02
   3.270342e+02  -2.180179e+02
   4.858785e+02   8.566263e+01
   2.483370e+02   3.518987e+02
  -2.763514e+02   3.123217e+02
  -5.004697e+02   1.764928e+02
  -2.943306e+02  -1.721673e+02
  -8.834886e+01  -3.550026e+02
   6.371790e+01  -2.324764e+02
   7.367097e-01   9.137178e+01
  -1.695870e+02   2.181735e+02
  -2.370260e+02  -1.031141e+02
  -1.077358e+02  -4.830403e+02
   2.825899e+02  -4.781619e+02
   4.163858e+02  -7.406844e+01
   2.304499e+02   3.525917e+02
  -1.540139e+02   2.132526e+02
  -2.009194e+02  -2.258827e+02
   8.580738e+01  -3.830085e+02
   4.455446e+02  -5.688199e+01
   4.319033e+02   3.809044e+02
   1.672873e+02   4.548826e+02
  -2.802121e+02   2.468392e+02
  -5.308339e+02  -7.794363e+01
  -3.143222e+02  -2.706840e+02
   8.299794e+01  -2.290161e+02
   3.063516e+02  -6.978279e+01
   1.585893e+02   7.996621e+01
  -3.087321e+01   2.908379e+01
  -9.691716e+01  -6.061850e+01
   1.013514e+02  -1.283644e+02
   2.391506e+02   9.753655e+00
   1.585150e+02   1.897432e+02
  -1.013711e+02   2.520894e+02
  -2.792965e+02   1.281257e+02
  -2.582580e+02  -1.012789e+02
   3.348885e+01  -2.816996e+02
   2.976507e+02  -3.283662e+02
   3.882402e+02  -1.647383e+02
   2.233014e+02   1.680525e+02
   4.340095e+01   3.496685e+02
  -3.309505e+01   2.742372e+02
  -1.818792e+01   1.491906e+02
  -1.212092e+01   8.473198e+01
  -1.268497e+02   1.068374e+02
  -2.124892e+02   8.768078e+01
  -2.058485e+02  -8.357076e+01
  -9.644544e+01  -2.420925e+02
   1.082269e+02  -2.000603e+02
   1.521631e+02   2.538768e+01
   1.078546e+02   1.985598e+02
  -3.596198e+01   1.805852e+02
  -2.349976e+02   3.443984e+01
  -2.586294e+02  -1.447027e+02
  -1.367973e+02  -2.837297e+02
   8.690825e+01  -2.452172e+02
   1.971117e+02  -1.522520e+02
   1.808003e+02  -5.746134e+01
   1.916677e+02  -8.936684e+01
   2.982920e+02  -2.515479e+01
   4.419324e+02   1.139577e+02
   3.372987e+02   2.641220e+02
  -3.364427e+01   4.460560e+02
  -3.891739e+02   3.984390e+02
  -4.635409e+02   2.530669e+02
  -2.959685e+02  -7.524090e+01
  -4.649003e+01  -2.792167e+02
   7.879715e+01  -1.886024e+02
   1.072252e+01  -7.450243e+01
  -1.289819e+02   5.867847e+01
  -1.305029e+02  -5.830752e+01
  -2.888005e+00  -1.667265e+02
   1.457776e+02  -1.110008e+02
   1.258237e+02   5.034015e+01
  -4.038564e+01   1.439677e+02
  -1.282775e+02   1.505731e+01
  -1.476269e+02  -1.891431e+02
   1.845248e+01  -3.607589e+02
   2.238955e+02  -2.101423e+02
   3.330331e+02   6.918394e+01
   2.506330e+02   2.430324e+02
   4.526330e+01   2.834305e+02
  -1.340920e+02   1.578610e+02
  -1.639767e+02  -3.290081e+00
  -2.393287e+01  -5.032088e+01
   3.224278e+01   5.749079e+01
  -1.344742e+01   1.101165e+02
  -1.206538e+02   9.928511e+01
  -1.279500e+02  -2.495958e+01
  -4.044454e+01  -3.614650e+01
   3.612876e+01  -2.047253e+00
   3.678219e+01   7.601015e+01
  -1.098255e+02   1.184317e+02
  -2.635129e+02  -4.301213e+00
  -2.028107e+02  -1.459678e+02
  -6.092033e+00  -2.452826e+02
   1.573193e+02  -2.207400e+02
   2.526740e+02  -1.028645e+02
   1.256099e+02   5.832825e+01
  -1.691315e+01   8.177174e+01
  -3.684565e+01   1.386021e+01
   6.647957e+01  -4.798982e+01
   1.838581e+02   1.409347e+01
   1.611477e+02   1.101979e+02
   6.187711e+01   1.504773e+02
  -5.890400e+01   1.265088e+02
  -1.172963e+02   1.859107e+01
  -6.592273e+01  -3.273626e+01
   3.024269e+01   3.224230e+01
  -5.871336e+00   8.305113e+01
  -1.108153e+02   1.288127e+02
  -2.072748e+02  -6.233541e+00
  -1.552609e+02  -1.317501e+02
  -1.952980e+01  -2.092133e+02
   1.725219e+02  -1.331469e+02
   1.804854e+02   9.443682e+00
   6.091434e+01   1.138459e+02
  -5.804398e+01   7.101412e+01
  -4.628447e+01   3.501369e+01
  -1.854741e+01  -4.477929e+01
   1.981472e+00  -6.378896e+00
  -2.984444e+01  -5.705503e+00
  -7.979406e+01  -1.282818e+00
  -7.167189e+01  -1.005211e+02
   2.912440e+01  -1.254878e+02
   1.008657e+02  -1.195838e+02
   2.305272e+02   2.831882e+01
   1.575870e+02   1.309158e+02
   1.016671e+01   2.373988e+02
  -1.002369e+02   1.594474e+02
  -9.233749e+01   2.971949e+01
  -9.665622e+01  -4.558914e+01
  -2.411623e+01  -3.973821e+01
  -5.378857e+01  -3.897995e-01
  -8.985660e+01   2.743122e+01
  -3.426286e+01  -3.686222e+01
   4.841126e+01  -6.970899e+01
   1.137698e+02  -5.267203e+01
   9.144175e+01   4.224792e+01
  -7.117649e+00   9.330635e+01
  -1.224982e+02   6.944789e+01
  -1.993068e+02  -4.317889e+01
  -8.543666e+01  -1.833283e+02
   1.207258e+02  -2.272123e+02
   2.241449e+02  -6.725174e+01
   2.815580e+02   8.639227e+01
   1.109377e+02   1.701441e+02
  -2.578684e+01   1.434237e+02
  -6.583997e+01   9.239524e+01
  -7.227814e+01   5.388265e+01
  -2.811397e+01   7.655780e+01
  -9.962960e+01   6.754260e+01
  -1.213861e+02   4.870561e+00
  -1.308207e+02  -1.417018e+02
  -1.005529e+01  -2.239922e+02
   1.125827e+02  -1.598947e+02
   1.589334e+02  -1.592995e+01
   1.288614e+02   1.547020e+02
  -1.573693e+00   1.328213e+02
  -6.279860e+01   8.713818e+01
  -3.344204e+01  -1.703120e+01
   8.261044e+00  -5.041143e+01
   2.736394e+01  -2.977411e+01
  -1.862071e+00   2.306199e+00
  -6.717316e+01  -1.407453e+00
  -4.460024e+01  -3.817146e+01
   7.547279e+01  -3.709112e+01
   1.347118e+02  -4.762799e+00
   1.255619e+02   6.261564e+01
   1.346674e+01   7.706405e+01
  -1.349127e+02   3.297916e+01
  -1.216013e+02   4.730054e+00
  -3.068372e+01  -3.561121e+01
   2.705960e+01  -3.934405e+01
   8.304132e+01   4.837136e+01
   2.520027e+01   8.019478e+01
  -7.935038e+01   6.389211e+01
  -9.821930e+01  -6.388027e+00
  -4.575944e+01  -6.586353e+01
  -3.961886e+01  -4.039220e+01
  -7.149445e+01  -1.986433e+01
  -6.810507e+01  -2.566596e+01
  -2.800500e+01  -5.279647e+01
   3.649139e+01  -1.411343e+02
   1.038691e+02  -1.121061e+02
   1.658851e+02  -3.337859e+01
   1.191394e+02   1.181853e+02
   1.101901e+00   1.026470e+02
  -6.865964e+01   9.622559e+01
  -6.119846e+01  -1.432851e+01
   1.728774e+01  -3.507170e+01
   8.127085e+01   7.320283e+01
   6.263916e+01   8.416816e+01
  -7.439523e+01   1.053242e+02
  -1.074465e+02   1.845097e+01
  -1.417949e+02  -3.066491e+01
  -1.569326e+01  -9.061968e+01
   3.602099e+01  -4.259320e+01
   4.198301e+01  -1.153017e+01
  -5.561781e+01   3.381955e+01
  -1.063997e+02  -5.329387e+01
  -2.860119e+01  -9.339994e+01
   6.476600e+01  -1.072498e+02
   1.326743e+02  -5.757929e+01
   9.153226e+01   8.848777e+01
   3.943884e+01   1.941276e+02
  -5.776565e+01   1.229750e+02
  -1.027698e+02  -4.627348e+01
  -3.140541e+01  -1.183759e+02
   1.468281e+01  -1.108822e+02
   2.523528e+01  -3.742862e+01
   5.627902e+01   3.639297e+01
  -5.470877e+00   3.279228e+01
   3.496039e+01  -1.856544e+01
   5.089590e+01   1.877118e+01
   6.563556e+01   1.208707e+02
   4.479823e+01   9.340982e+01
  -5.993784e+01   5.307861e+01
  -1.211734e+02  -1.405852e+01
  -1.350697e+02  -8.071839e+01
  -6.821350e+00  -4.546009e+01
   5.735347e+01  -4.145658e+01
   1.158345e+02   1.084807e+01
   1.666686e+01   2.312560e+01
  -1.560190e+01   1.466012e+01
   1.240364e+01   3.072690e+01
   2.632880e+01   1.073704e+01
   6.653543e+00   9.385829e+00
  -7.973514e+01   1.055071e+01
  -8.929178e+01  -8.529027e+00
  -2.843937e+01  -6.040443e+01
   1.277529e+02  -1.182763e+02
   2.000424e+02  -7.939912e+01
   1.381667e+02   5.638582e+01
   6.264110e+01   1.362586e+02
  -8.436538e+01   1.827092e+02
  -1.096571e+02   7.508191e+01
  -9.269084e+01  -6.830728e+00
  -4.252586e+01  -6.431200e+01
  -1.249694e+01  -4.590438e+01
  -1.860126e+01  -1.539943e+01
  -4.796702e+00  -6.314221e+01
  -1.955512e+01  -8.724468e+01
   2.501712e+01  -4.786099e+01
   7.825807e+01   2.384591e+01
   4.231223e+01   7.136971e+01
   2.262702e+01   1.067650e+02
  -6.838426e+01   2.636335e+01
  -9.953374e+01  -3.107811e+01
  -4.467420e+01  -7.750362e+01
   2.647263e+01  -3.927143e+01
   1.115964e+02   4.247305e-01
   3.161714e+01   4.528165e+01
  -2.486125e+01   6.469443e+01
  -3.753547e+01   4.508195e+01
   1.126438e+01  -2.569949e+01
   4.000263e+01   1.722550e+01
   3.797691e+01   1.948008e+01
  -8.283258e+01   6.812295e+01
  -1.426871e+02   8.010318e+01
  -8.406018e+01  -3.394394e+01
  -3.381905e+01  -8.107995e+01
   4.235905e+01  -7.293676e+01
   5.779214e+01  -1.614001e+01
  -3.828313e+00   5.637742e+01
  -1.849772e+01   3.843061e+01
  -3.531384e+01  -1.680940e+01
  -4.004465e+01  -8.896125e+01
   2.185539e+01  -3.848899e+01
   2.471783e+01  -2.602711e-01
   3.604822e+01   3.007990e+01
   5.301070e+01  -4.062446e+00
   1.520134e+01  -5.932311e+01
   9.888760e+00  -2.264379e+01
   3.570440e+00   4.619893e+01
  -2.407142e+01   6.938326e+01
  -3.784078e+01   2.365808e+01
  -2.587762e+01  -3.068433e+01
   7.133483e+00  -5.860105e+01
   4.838449e+01  -2.298540e+01
   6.050553e+01   7.223834e+00
  -3.186478e+00   7.706055e+01
  -6.013397e+01   3.555983e+01
  -7.215132e+01  -4.250011e+01
  -5.670766e+01  -3.258811e+01
   1.758082e+01  -6.833155e+01
   8.079028e+01  -1.497561e+01
   1.157481e+01  -3.412821e+01
  -2.862862e+01  -1.190375e+01
  -5.465728e+01  -1.560111e+01
   1.793516e+01  -9.469817e+00
   8.700517e+01  -2.521475e+01
