
 $NMID
 id='ANONYMOUS ', fmtdat='(2E16.6)'
 volume=1.0
 tramp=1.0
 $END
  -4.313707e+03  -6.417587e+02
  -2.174283e+03  -2.988496e+03
   1.095654e+03  -2.755354e+03
   2.062624e+03  -3.911082e+02
   9.171721e+02   7.455296e+02
  -8.018869e+02   5.350396e+02
  -8.248290e+02  -5.098529e+02
   2.599394e+02  -1.064785e+03
   9.392324e+02  -6.806777e+02
   9.818345e+02   2.197382e+02
   4.002597e+02   8.672433e+02
  -3.448325e+02   7.981162e+02
  -6.354097e+02   7.570171e+01
  -2.951629e+02  -7.385830e+02
   3.563307e+02  -7.037143e+02
   5.906902e+02   1.138125e+02
   1.710368e+02   6.913000e+02
  -3.577966e+02   6.090127e+02
  -5.953463e+02   5.709948e-01
  -3.221206e+02  -3.362052e+02
   3.631453e+01  -4.258673e+02
   2.789851e+02  -2.512888e+02
   2.351857e+02   2.671728e+01
  -1.143491e+02   9.512032e+01
  -4.121391e+02  -1.138418e+02
  -1.628864e+02  -4.623147e+02
   5.221001e+02  -4.048812e+02
   8.198556e+02   1.472727e+02
   3.019589e+02   6.044160e+02
  -4.547900e+02   4.218834e+02
  -7.261779e+02  -9.083197e+01
  -2.658386e+02  -5.454927e+02
   3.488761e+02  -5.213561e+02
   5.637310e+02  -1.589414e+02
   3.656892e+02   3.243757e+02
   3.713931e+01   4.725117e+02
  -2.617286e+02   2.342697e+02
  -1.673849e+02  -2.380264e+02
   1.729185e+02  -3.902318e+02
   4.584393e+02   3.190219e+01
   2.107917e+02   6.980895e+02
  -3.516877e+02   7.086207e+02
  -6.076854e+02  -7.302208e+01
  -2.438143e+02  -5.838779e+02
   3.274102e+02  -2.967695e+02
   3.856966e+02   3.485609e+02
  -1.167366e+02   5.609633e+02
  -5.355769e+02   8.972353e+01
  -5.663543e+02  -4.877132e+02
  -9.967160e+01  -5.768889e+02
   4.442817e+02  -3.143447e+02
   6.001885e+02   1.116523e+02
   3.311865e+02   4.582591e+02
  -2.060578e+02   3.472716e+02
  -4.498408e+02  -6.824944e+00
  -1.830793e+02  -2.865555e+02
   1.192345e+02  -1.143216e+02
   1.394019e+02   1.367530e+02
  -2.067148e+02   1.800741e+02
  -2.944251e+02  -1.046985e+02
  -1.295235e+02  -2.945179e+02
   1.892462e+02  -1.996869e+02
   3.053921e+02  -4.892668e+01
   1.897654e+02   8.354590e+01
  -4.016122e+01   1.907210e+02
  -2.304676e+02   2.731362e+02
  -3.124377e+02   1.503658e+02
  -2.761048e+02  -1.620221e+02
  -3.392263e+01  -4.453509e+02
   1.546946e+02  -3.711290e+02
   1.496711e+02  -8.011450e+01
   4.922540e+01   6.830420e+01
   3.135493e+01  -4.683470e+01
   1.691817e+02  -1.236541e+02
   2.691110e+02   4.828626e+01
   1.087069e+02   2.726899e+02
  -6.826421e+01   2.505324e+02
  -2.470012e+02  -1.092825e+00
  -1.953165e+02  -2.240506e+02
   2.750258e+01  -2.894159e+02
   2.846746e+02  -8.016108e+01
   3.428026e+02   1.834567e+02
   1.371665e+02   3.495105e+02
  -1.105019e+02   2.676204e+02
  -2.384161e+02   9.812158e+01
  -1.627562e+02   3.823966e+00
  -1.215782e+02   4.906829e+01
  -2.085920e+02  -3.842473e+00
  -3.828397e+02  -1.072781e+02
  -2.443557e+02  -3.095739e+02
   2.845023e+01  -4.093274e+02
   3.380683e+02  -3.171428e+02
   4.351482e+02  -1.336930e+02
   3.143545e+02   1.151601e+02
   4.441780e+01   2.853301e+02
  -1.241012e+02   2.242736e+02
  -1.024180e+02   3.972066e+01
   9.763565e+01  -1.397893e+02
   1.746117e+02  -8.102385e+00
   5.538712e+01   1.830332e+02
  -1.759438e+02   1.741468e+02
  -1.650210e+02  -5.641838e+01
   3.234103e+01  -1.601557e+02
   1.600563e+02   1.697790e+01
   1.329352e+02   2.321054e+02
  -6.229619e+01   3.360105e+02
  -2.157808e+02   1.716897e+02
  -3.042485e+02  -5.240481e+01
  -2.564978e+02  -2.293503e+02
  -7.100494e+01  -2.297201e+02
   9.009153e+01  -1.463933e+02
   1.944223e+02  -5.969359e+01
   7.186056e+01   1.838097e+01
  -8.381235e+01  -3.775124e+01
  -4.842227e+01  -1.044869e+02
   1.199533e+02  -1.166786e+02
   1.403326e+02   3.047764e+01
   2.597295e+01   7.911663e+01
  -7.860940e+01   9.540151e+00
  -6.974967e+01  -2.044412e+01
   8.673739e+01  -9.794448e+01
   2.669582e+02   4.250374e+00
   2.532429e+02   1.428128e+02
   3.585099e+01   2.727025e+02
  -1.862302e+02   2.463940e+02
  -2.927704e+02   1.062189e+02
  -1.639753e+02  -6.534246e+01
   4.522441e+00  -1.260830e+02
   7.891659e+01  -1.797886e+00
  -1.923454e+01   1.110245e+02
  -1.848178e+02   4.002047e+01
  -1.689105e+02  -9.203363e+01
  -4.793291e+01  -1.730713e+02
   7.768817e+01  -1.491418e+02
   1.299191e+02  -3.612401e+01
   1.005412e+02   5.895542e+01
  -2.364422e+01   9.481874e-01
  -3.659397e+01  -8.082283e+01
   6.619971e+01  -9.946681e+01
   1.955548e+02  -1.613474e+01
   1.644094e+02   9.539602e+01
   1.788179e+01   2.192183e+02
  -1.774067e+02   1.448371e+02
  -1.953158e+02  -5.438370e+00
  -7.534656e+01  -1.359411e+02
   5.835649e+01  -9.316823e+01
   6.227010e+01  -1.136787e+01
   1.635076e+01   2.333880e+01
  -1.225908e+01   4.427823e+01
   3.864963e+01  -1.482518e+01
   7.171708e+01   3.626372e+00
   3.935020e+01   7.283406e+01
  -2.336798e+01   1.224333e+02
  -1.568612e+02   1.161867e+02
  -2.285443e+02   1.745431e+00
  -1.414416e+02  -1.678480e+02
  -3.475753e+01  -2.120648e+02
   1.180608e+02  -1.564179e+02
   1.325270e+02  -1.942921e+01
   6.506450e+01   5.642382e+01
   3.176089e+01   4.433366e+01
   3.938671e+01  -1.194199e+00
   5.589070e+01  -1.623676e+01
  -1.888790e+00   5.845920e+01
  -7.631946e+01   7.812231e+01
  -6.912988e+01   3.006925e+01
  -6.152445e+01  -3.445731e+01
   2.373852e+01  -6.627720e+01
   1.204455e+02  -6.946519e+01
   1.684674e+02   6.095120e+01
   8.663036e+01   1.814765e+02
  -7.984441e+01   2.316436e+02
  -2.756903e+02   8.603167e+01
  -2.607320e+02  -1.277700e+02
  -1.005742e+02  -1.862330e+02
   7.911956e+01  -1.329004e+02
   9.173666e+01  -8.195419e+01
   8.134319e+01  -4.343187e+01
   6.361907e+01  -7.409689e+01
   1.019339e+02  -8.637481e+01
   1.274289e+02   2.693592e+01
   8.667535e+01   1.631769e+02
   6.100788e+01   2.141697e+02
  -9.353255e+01   1.438079e+02
  -1.545324e+02  -1.147965e+01
  -1.280398e+02  -1.304342e+02
   1.416258e+01  -1.742224e+02
   6.062404e+01  -1.065959e+02
   5.140230e+01  -4.290757e+00
   1.640940e+01   3.374641e+01
  -9.652674e+00   5.387175e+00
   2.237417e+01   2.621737e+01
   8.071564e+01   4.874627e+01
   2.053615e+01   1.891339e+01
  -7.510397e+01   3.636602e+01
  -1.329668e+02  -2.583631e+01
  -7.855169e+01  -3.762628e+01
   6.783081e+00  -8.223875e+01
   1.350371e+02  -3.372250e+01
   1.137758e+02  -1.563779e+01
   2.918032e+01   4.861667e+01
  -4.329811e+01   3.211583e+01
  -9.868595e+01  -2.825058e+01
  -1.616156e+01  -8.372965e+01
   6.966342e+01  -5.920280e+01
   6.257918e+01   2.014388e+01
   5.036480e+01   5.313333e+01
   3.289805e+01   5.119515e+01
   3.961793e+01   2.493005e+01
   4.894617e+01   2.632933e+01
   1.661801e+01   4.683729e+01
  -2.007795e+01   1.128980e+02
  -1.208278e+02   1.502794e+02
  -1.467232e+02   1.926373e+01
  -1.588874e+02  -8.671709e+01
   4.827911e+00  -1.084101e+02
   6.035969e+01  -3.536469e+01
   7.480075e+01   4.427500e+01
  -7.532110e+01   2.964369e+01
  -1.590539e+02  -5.308539e+01
  -8.661171e+01  -8.825600e+01
   1.004256e+02  -5.904188e+01
   1.535557e+02  -5.443284e+01
   1.482571e+02   4.974197e+01
   3.940871e+01   6.005633e+01
  -4.999286e+01   4.913207e+01
  -9.816982e+00   2.083023e+00
   3.303859e+01  -3.365140e+01
   1.124677e+02   3.373431e+01
   4.682063e+01   9.048170e+01
  -8.805029e+01   1.318126e+02
  -1.834757e+02   4.825138e+01
  -7.986646e+01  -1.015035e+02
   2.953428e+00  -1.777884e+02
   8.048054e+01  -1.402535e+02
   1.176506e+02   2.198160e+01
   6.356552e+01   1.292639e+02
  -7.045535e+00   1.082466e+02
  -3.945028e+01   5.108893e-01
  -3.521899e+01  -2.335697e+01
  -2.715077e+01  -1.421855e+01
  -7.032804e+00   5.114902e+01
  -1.531221e+01   5.478609e+00
  -4.857999e+01  -7.622670e+01
  -6.830093e+01  -1.101960e+02
   4.311308e+01  -5.121309e+01
   1.445554e+02   6.097452e+01
   1.275429e+02   1.082877e+02
   5.081532e+00   6.776802e+01
  -9.049494e+01  -1.834497e+01
  -7.615495e+01  -4.777328e+01
  -2.741955e+00  -8.337626e+00
  -5.006251e-01  -4.109944e+00
   3.476178e+01  -1.209245e+01
   6.534787e+00   2.249357e+00
   5.807489e-01   3.811755e+00
   8.960327e+01   8.163252e+00
   6.959272e+01   3.348046e+01
  -1.471307e+01   8.294130e+01
  -1.167257e+02   9.896040e+01
  -1.647115e+02   3.175755e+01
  -1.272055e+02  -1.123196e+02
  -1.365071e+01  -1.497241e+02
   8.093848e+01  -1.148254e+02
   1.033135e+02  -4.643792e+01
   4.893082e+01   3.334027e+01
  -8.465115e+00   2.807899e+01
   4.613533e+00  -2.914272e+00
   1.831258e+00  -1.701729e+01
   4.673856e+01   2.079630e+01
  -9.466384e+00   5.364406e+01
  -3.356935e+01   6.851009e+01
  -7.458920e+01  -1.336149e+01
  -3.233762e+01  -9.813147e+01
   7.742319e+00  -8.271337e+01
   6.152194e+01  -9.964085e+00
   1.079356e+02   1.013216e+02
   3.778153e+01   8.909833e+01
  -9.573127e+01   4.161259e+01
  -7.753226e+01  -4.079981e+01
  -4.097977e+01  -2.768777e+01
   4.229244e+01  -1.900985e+01
   4.045625e+01  -1.140270e+01
  -2.039943e+01  -3.551811e+00
  -6.061530e+01  -1.540347e+00
  -2.213734e+00  -2.867748e+01
   8.516899e+01  -5.924563e+01
   1.041425e+02  -5.256077e+01
   3.256162e+01   1.876752e+01
  -3.355227e+00   5.672016e+01
  -5.785448e+01   6.099370e+01
  -2.988697e+01   1.243251e+01
   1.890315e+01  -7.123618e+01
   9.535149e+00  -1.442254e+01
   3.964258e+01   6.272488e+00
   2.226937e+01   3.604532e+01
   2.150358e+01   4.543794e+01
   2.605938e+00  -2.921652e+01
  -2.350860e+01  -6.266191e+00
  -3.387283e+01   8.965837e+00
  -1.751712e+01  -9.678762e+00
   5.573330e+00  -5.314789e+00
   2.323251e+01  -3.193731e+01
   3.286664e+01  -2.817768e+01
   2.227328e+01   6.184655e+00
   2.215608e+01   6.763721e+01
  -1.049359e+01   6.123128e+01
  -4.351337e+01  -4.809363e+00
  -3.547892e+01  -2.502302e+01
   2.319026e+01  -8.732787e+01
   6.134330e+01  -1.058042e+01
   6.418761e+01   1.597219e+00
   2.806047e+01   3.411075e+01
  -6.270178e+01   2.400560e+01
  -6.027793e+01  -9.020351e+00
  -2.495605e+01  -1.271275e+01
   3.168793e+01  -6.924558e+00
   1.153168e+01   1.803729e+01
  -2.493283e+01   2.572262e+01
  -1.102674e+02  -1.170485e+01
