
 $NMID
 id='ANONYMOUS ', fmtdat='(2E16.6)'
 volume=1.0
 tramp=1.0
 $END
   3.624903e+03  -2.101276e+02
   2.181304e+03   1.858645e+03
  -1.989749e+02   2.175913e+03
  -1.681456e+03   1.032595e+03
  -1.001390e+03  -1.946361e+01
   2.355969e+01  -3.139925e+02
   5.377153e+02   7.619978e+00
   3.205043e+01   6.853021e+02
  -5.490599e+02   5.921354e+02
  -7.246676e+02   2.076485e+01
  -4.709646e+02  -5.746861e+02
   5.677097e+01  -7.918022e+02
   4.177538e+02  -1.639005e+02
   3.553478e+02   4.844886e+02
  -1.954966e+02   5.451273e+02
  -5.071536e+02   3.443831e+01
  -2.747060e+02  -5.155904e+02
   1.854707e+02  -6.291308e+02
   5.076218e+02  -1.921177e+02
   4.255431e+02   2.398825e+02
   1.248760e+02   3.740048e+02
  -1.005871e+02   2.967929e+02
  -1.249564e+02   6.581002e+01
   8.777958e+01   7.392395e+01
   2.468877e+02   2.436252e+02
   7.198269e+01   3.389643e+02
  -4.214324e+02   2.167129e+02
  -6.784267e+02  -1.728333e+02
  -3.036378e+02  -4.026641e+02
   3.303930e+02  -2.779230e+02
   5.489449e+02   1.083866e+02
   2.567950e+02   3.725045e+02
  -2.583476e+02   3.868335e+02
  -4.904305e+02   2.075939e+02
  -3.456829e+02  -1.422625e+02
  -1.218304e+02  -3.556358e+02
   8.210541e+01  -2.616265e+02
  -3.446839e+00   9.812661e+01
  -1.839842e+02   2.090182e+02
  -2.463421e+02  -8.727827e+01
  -3.625481e+01  -5.215578e+02
   2.462964e+02  -4.681668e+02
   3.903562e+02  -1.009759e+01
   1.660439e+02   3.682415e+02
  -1.872017e+02   2.332660e+02
  -2.033629e+02  -2.252837e+02
   5.869391e+01  -4.044309e+02
   4.240831e+02  -6.001641e+01
   4.601327e+02   3.225966e+02
   1.221134e+02   4.653009e+02
  -3.022622e+02   2.762605e+02
  -5.224688e+02  -1.703494e+01
  -3.187612e+02  -2.568864e+02
   9.909188e+01  -2.851150e+02
   3.205819e+02  -7.977917e+01
   2.163569e+02   7.455884e+01
  -3.749632e+01   8.034258e+01
  -1.079353e+02  -5.529193e+01
   9.771648e+01  -9.914859e+01
   2.816458e+02   1.506890e+01
   1.354716e+02   1.947005e+02
  -1.336588e+02   2.252977e+02
  -2.786936e+02   9.160116e+01
  -2.348937e+02  -9.880607e+01
   2.789414e+01  -2.523786e+02
   2.703419e+02  -3.198533e+02
   3.206373e+02  -1.233631e+02
   2.211602e+02   2.021925e+02
   4.626111e+01   3.803237e+02
  -6.410556e+01   3.374875e+02
  -5.792748e+01   1.197874e+02
  -3.706030e+01   6.946872e+01
  -1.311904e+02   8.597110e+01
  -1.623323e+02   1.234144e+02
  -2.217459e+02  -8.029477e+01
  -1.203580e+02  -2.174809e+02
   5.671744e+01  -1.856864e+02
   1.456370e+02   3.453956e+01
   1.139917e+02   1.850308e+02
  -4.664136e+01   2.528217e+02
  -2.231030e+02   5.686345e+01
  -2.892054e+02  -1.524815e+02
  -1.122711e+02  -2.891920e+02
   7.040061e+01  -2.914899e+02
   1.750547e+02  -1.399741e+02
   1.556652e+02  -5.664998e+01
   1.574732e+02  -5.806370e+01
   2.541585e+02  -7.224483e+01
   3.823831e+02   9.885172e+01
   2.009190e+02   3.346462e+02
  -3.299015e+01   4.013975e+02
  -4.069191e+02   2.925101e+02
  -4.352300e+02   1.753493e+02
  -2.956913e+02  -7.328478e+01
  -6.032761e+00  -2.505865e+02
   7.419953e+01  -1.879291e+02
   5.379229e+01  -3.617549e+01
  -1.134475e+02   2.523373e+01
  -1.248354e+02  -1.814060e+01
  -3.612012e+01  -1.498331e+02
   1.264605e+02  -1.272289e+02
   8.383708e+01   6.902365e+01
  -6.104217e+01   1.258825e+02
  -1.663255e+02   9.213782e+00
  -1.228873e+02  -2.187554e+02
   3.687058e+01  -3.269412e+02
   2.509730e+02  -1.706030e+02
   2.745484e+02   5.922299e+01
   2.384618e+02   2.087099e+02
   7.560541e+01   2.663040e+02
  -1.053510e+02   1.470607e+02
  -1.205330e+02   2.520240e+01
  -4.114769e+01   2.071644e-01
   5.980240e+01   5.505742e+01
  -6.073254e+00   7.387332e+01
  -1.237206e+02   6.933273e+01
  -1.372887e+02  -2.165546e+01
  -4.119197e+01  -2.595364e+01
   7.305243e+01   2.515627e+01
   3.005516e+01   1.077278e+02
  -1.316310e+02   5.543651e+01
  -2.724667e+02  -7.078236e+01
  -2.195453e+02  -1.638089e+02
  -1.955299e+01  -2.545564e+02
   1.512675e+02  -2.117668e+02
   2.634816e+02  -1.240094e+02
   1.102350e+02   2.715261e+01
  -1.151497e+01   9.270043e+01
  -4.201993e+01  -1.029651e+01
   6.340118e+01  -7.719996e+01
   1.600406e+02  -8.228859e+00
   1.633785e+02   1.227430e+02
   4.234100e+01   1.737072e+02
  -4.872353e+01   1.233850e+02
  -1.121249e+02   5.852745e+01
  -8.785717e+01   2.359791e+01
   3.395810e+01   2.230683e+01
   2.213669e+01   1.068224e+02
  -1.011664e+02   1.245658e+02
  -2.037211e+02   2.676578e+01
  -1.763044e+02  -1.383515e+02
  -1.096052e+00  -2.148446e+02
   1.590880e+02  -1.308860e+02
   1.801675e+02   1.190885e+01
   6.050973e+01   1.332529e+02
  -6.628856e+01   6.926411e+01
  -6.732428e+01   2.518024e+01
   2.682886e+01  -3.653550e+01
   3.761227e+01  -1.020130e+00
  -1.632589e+01   4.726849e+01
  -8.304279e+01  -2.152745e+01
  -7.330557e+01  -9.853727e+01
  -5.138486e+00  -1.578889e+02
   1.382044e+02  -1.031975e+02
   2.278209e+02  -2.875567e+01
   1.777633e+02   1.491844e+02
   3.700785e+01   2.214808e+02
  -1.009547e+02   1.745725e+02
  -1.483826e+02   3.031364e+01
  -5.268337e+01  -8.496088e+01
  -2.927470e+01  -4.385896e+01
  -4.801034e+01   2.752061e+01
  -6.259055e+01   1.291201e+01
  -5.530939e+01  -4.088175e+01
   3.398516e+01  -8.807136e+01
   9.120513e+01  -7.674039e+01
   1.252047e+02   2.625676e+01
  -2.538808e+01   1.094707e+02
  -1.571406e+02   8.124088e+01
  -1.822329e+02  -7.499798e+01
  -8.722953e+01  -1.959575e+02
   1.540372e+02  -2.014196e+02
   2.490830e+02  -5.395321e+01
   2.361419e+02   8.001078e+01
   9.047873e+01   1.566922e+02
  -4.645590e+01   1.124361e+02
  -7.950635e+01   6.800995e+01
  -8.282427e+01   7.860030e+01
  -3.389493e+01   8.840993e+01
  -9.183360e+01   5.707689e+01
  -1.314040e+02  -2.213302e+01
  -1.361554e+02  -1.412972e+02
  -4.356033e+01  -2.015998e+02
   9.505271e+01  -1.748643e+02
   1.510477e+02  -3.076312e-01
   1.148557e+02   9.526839e+01
   6.419898e+00   1.419988e+02
  -8.584798e+01   7.136274e+01
  -4.569079e+01  -6.563689e+00
  -9.805121e+00  -5.552604e+01
   5.694471e+01  -1.576016e+01
  -1.369030e+01   1.564147e+01
  -6.816570e+01  -7.204061e+00
  -8.730107e+00  -6.695238e+01
   8.761276e+01  -4.824273e+01
   1.301087e+02   3.150715e+00
   1.055421e+02   5.703379e+01
   2.919069e+01   8.298742e+01
  -1.209160e+02   4.839566e+01
  -1.296884e+02   4.590481e+00
  -3.711151e+00  -3.330442e+01
   5.303202e+01   9.573607e+00
   6.298742e+01   4.021606e+01
  -1.163131e+00   6.044296e+01
  -3.443652e+01   5.366614e+01
  -6.158398e+01   1.330448e+01
  -3.406077e+01  -4.178898e+01
  -4.226511e+01  -2.109581e+01
  -5.845360e+01   1.434851e+01
  -4.017851e+01   1.329056e+01
  -7.133620e+00  -9.617804e+01
   5.010380e+01  -1.352070e+02
   1.168604e+02  -1.351210e+02
   1.749191e+02  -2.991925e+01
   1.413270e+02   6.625030e+01
   1.062484e+01   1.126690e+02
  -9.701749e+01   7.482416e+01
  -4.459583e+01  -5.225565e+00
   4.858438e+01  -2.487910e+01
   1.055316e+02   6.033410e+01
   8.750118e+01   6.845593e+01
  -9.656583e+01   1.151469e+02
  -1.803359e+02   1.166389e+01
  -1.459639e+02  -2.338511e+00
  -3.740002e+01  -5.548474e+01
   5.209223e+01  -9.393277e+01
   2.855666e+01  -7.579681e+00
  -3.372359e+01   9.344176e+00
  -1.025339e+02  -4.243677e+00
  -2.980569e+01  -1.167720e+02
   7.737463e+01  -1.529570e+02
   1.681729e+02  -4.336552e+01
   1.008143e+02   1.024165e+02
  -2.592113e+01   1.586018e+02
  -8.027124e+01   1.571915e+02
  -1.055022e+02  -4.826484e-01
  -6.559699e+01  -1.218188e+02
  -9.227911e+00  -1.120622e+02
   7.392078e+01  -2.819945e+01
   5.210004e+01   3.285804e+01
   1.890711e+01  -4.907543e+00
   2.848694e+01  -2.639153e+01
   2.191824e+01   1.346517e+01
   3.553702e+01   8.842222e+01
   2.970671e+01   7.873090e+01
  -1.779872e+01   5.769282e+01
  -1.385447e+02   5.129461e+00
  -1.408449e+02  -4.179722e+01
  -4.959375e+01  -3.398239e+01
   8.273577e+01  -5.468915e+00
   1.240933e+02  -1.890090e+01
   1.541617e+01   1.163303e+01
  -3.820020e+01   4.031207e+01
  -2.824449e+00   5.603508e+00
   2.734261e+01   2.729093e+01
  -1.214815e+01   2.066657e+01
  -9.150789e+01  -4.214355e+00
  -9.085632e+01  -2.172348e+01
  -2.227237e+01  -9.740979e+01
   7.892658e+01  -1.161271e+02
   1.710294e+02  -4.630182e+01
   1.459876e+02   5.376090e+01
   2.572831e+01   1.416174e+02
  -8.209728e+01   1.611455e+02
  -1.481839e+02   6.763105e+01
  -7.665566e+01  -2.077052e+01
  -6.301820e+00  -3.701588e+01
   2.301025e+00   4.349728e+00
  -1.304390e+01   7.390474e+00
  -5.148153e+01  -4.984723e+01
  -1.672820e+01  -9.022230e+01
   3.347983e+01  -7.355502e+01
   8.189889e+01   1.607981e+01
   6.483892e+01   1.177813e+02
   1.275479e+01   9.588265e+01
  -5.949569e+01   5.509493e+01
  -8.021386e+01  -5.379084e+01
  -2.977602e+01  -5.960912e+01
   5.655000e+01  -6.140897e+01
   1.073564e+02  -5.018339e+00
   3.704727e+01   3.121283e+01
  -3.192020e+01   5.471404e+01
  -2.056667e+01   3.176456e+01
   6.633057e+00  -3.001937e+01
   7.121645e+01  -2.590797e+00
   4.145917e+01   9.617718e+00
  -5.920551e+01   8.684582e+01
  -9.604458e+01   7.316797e+01
  -7.592154e+01  -1.564976e+01
  -1.401442e+01  -8.211530e+01
   4.546454e+01  -1.069779e+02
   2.257165e+01  -2.912673e+01
   7.608611e+00   5.319104e+01
  -3.896452e+01   4.508914e+01
  -1.515361e+01  -1.833794e+01
  -9.685341e+00  -4.153236e+01
   9.249498e+00  -2.001209e+01
   4.348446e+01  -1.236116e+01
   3.399797e+01   3.219489e+01
   1.071969e+01  -5.193440e+00
   1.296083e+01  -4.637190e+01
  -2.598301e+01  -1.146847e+01
   2.147590e+01   3.201884e+01
   1.426490e-01   4.446844e+01
  -3.455133e+01   6.306354e+00
  -4.264088e+01  -2.442050e+01
   1.048222e+01  -6.558849e+01
   6.665248e+01  -2.192423e+01
   4.423365e+01   4.766150e+01
  -9.744988e+00   7.876794e+01
  -4.470583e+01   2.661302e+01
  -8.032194e+01  -3.530780e+01
  -3.227908e+01  -7.763894e+01
   1.450758e+01  -2.892318e+01
   5.208834e+01  -1.481795e+01
   1.726706e+01   7.929168e+00
  -1.319168e+01   2.233285e+01
  -3.600012e+01  -2.020436e+01
   1.069598e+01  -2.447443e+01
   7.381905e+01   8.967289e+00
