
 $NMID
 id='ANONYMOUS ', fmtdat='(2E16.6)'
 volume=1.0
 tramp=1.0
 $END
   3.679279e+03  -4.721651e+02
   2.244015e+03   2.255455e+03
  -4.233439e+02   2.456220e+03
  -1.836907e+03   8.145898e+02
  -8.998810e+02  -6.299012e+02
   5.568084e+02  -6.226199e+02
   8.581246e+02   3.473928e+02
   1.592240e+02   9.894707e+02
  -8.044452e+02   7.319252e+02
  -8.279868e+02  -1.074999e+02
  -4.399408e+02  -7.385490e+02
   2.544849e+02  -7.976487e+02
   5.757289e+02  -6.929114e+01
   3.790024e+02   6.384912e+02
  -2.916879e+02   6.655434e+02
  -5.821620e+02  -6.617309e+00
  -2.873062e+02  -6.241695e+02
   2.843945e+02  -5.374950e+02
   5.325839e+02  -6.838546e+01
   3.579556e+02   3.010673e+02
   3.999712e+01   3.957871e+02
  -2.428816e+02   2.781444e+02
  -2.202929e+02  -9.346356e+00
   9.543831e+01  -1.281953e+02
   3.607126e+02   4.455063e+01
   2.069591e+02   3.937741e+02
  -3.715714e+02   4.440231e+02
  -7.683187e+02   7.532442e+00
  -4.370561e+02  -5.018361e+02
   3.378993e+02  -4.996356e+02
   6.767849e+02  -6.353185e+00
   3.375799e+02   4.108237e+02
  -2.267227e+02   5.113024e+02
  -5.278028e+02   1.830621e+02
  -3.805243e+02  -2.546661e+02
  -5.507558e+01  -4.363512e+02
   2.659738e+02  -2.803947e+02
   2.040662e+02   1.853960e+02
  -1.131145e+02   4.309638e+02
  -4.107529e+02   4.470110e+01
  -2.899939e+02  -5.936227e+02
   2.516059e+02  -5.977053e+02
   5.299670e+02   2.624544e+01
   2.034323e+02   4.655116e+02
  -2.614280e+02   3.113480e+02
  -3.537880e+02  -2.958764e+02
   3.631028e+01  -4.743281e+02
   4.942132e+02  -1.777620e+02
   5.764963e+02   3.255777e+02
   1.647270e+02   5.092062e+02
  -3.075323e+02   3.643686e+02
  -5.280968e+02  -2.193730e+01
  -3.464848e+02  -2.748600e+02
   1.158612e+02  -3.523499e+02
   3.608655e+02  -7.606123e+01
   2.554051e+02   2.005888e+02
  -1.074054e+02   1.334386e+02
  -1.597371e+02  -1.072614e+02
   1.221219e+02  -1.855853e+02
   2.823179e+02   5.387142e+01
   1.170157e+02   2.763367e+02
  -1.504526e+02   2.603792e+02
  -2.421383e+02   4.786082e+01
  -1.910745e+02  -1.017130e+02
   9.345348e+00  -1.878600e+02
   1.275256e+02  -2.471599e+02
   2.669063e+02  -1.248591e+02
   2.572292e+02   1.096052e+02
   5.966527e+01   3.445350e+02
  -9.644143e+01   3.155899e+02
  -1.011758e+02   6.788304e+01
  -2.584738e-01  -5.440777e+01
  -5.629003e-01   7.312716e+01
  -1.298503e+02   1.427569e+02
  -2.397774e+02  -1.052538e+01
  -1.528150e+02  -2.171898e+02
   3.880376e+01  -2.171669e+02
   1.905202e+02  -2.487329e+01
   1.981815e+02   1.939332e+02
  -1.926313e+01   2.416571e+02
  -2.185950e+02   1.170402e+02
  -3.015258e+02  -1.441312e+02
  -1.386769e+02  -2.943664e+02
   9.778690e+01  -2.573467e+02
   1.928773e+02  -9.004178e+01
   1.550206e+02  -2.556161e+01
   6.923998e+01  -3.504536e+01
   1.765799e+02  -5.429895e+01
   3.327943e+02  -7.839996e+00
   2.610142e+02   2.388459e+02
   2.477801e+01   3.569815e+02
  -2.474032e+02   3.508119e+02
  -4.037154e+02   1.840781e+02
  -3.175855e+02  -7.076452e+01
  -7.195686e+01  -2.776374e+02
   1.016813e+02  -2.193199e+02
   4.006733e+01  -2.098213e+01
  -9.053068e+01   9.581785e+01
  -1.624917e+02   2.262976e+01
  -6.492776e+01  -1.702896e+02
   1.097852e+02  -1.523479e+02
   1.590120e+02   6.164111e+01
   1.160913e+01   1.725323e+02
  -1.795896e+02   3.183227e+01
  -1.523991e+02  -1.736228e+02
   3.456421e+01  -2.717061e+02
   1.709384e+02  -1.294292e+02
   2.817482e+02  -9.552705e+00
   2.356856e+02   1.992249e+02
   7.399978e+01   2.044346e+02
  -9.345730e+01   1.298728e+02
  -1.388993e+02   3.356211e+01
  -2.989839e+01  -2.575622e+01
   6.598519e+01   4.448814e+01
   3.521952e+01   1.044798e+02
  -9.404907e+01   7.369679e+01
  -1.550196e+02  -1.036620e+01
  -5.591761e+01  -6.488394e+01
   6.807669e+01  -3.168046e+01
   2.779400e+01   4.598433e+01
  -9.079885e+01   8.205085e+01
  -2.027522e+02   2.301660e+01
  -2.168400e+02  -1.256398e+02
  -9.652623e+01  -1.857061e+02
   9.677231e+01  -2.543692e+02
   2.256660e+02  -7.699438e+01
   1.418023e+02   2.935614e+01
  -1.013631e+01   7.656993e+01
  -1.014141e+02   7.878669e+00
   1.417177e+00  -8.484584e+01
   1.685329e+02  -7.634846e+01
   1.710090e+02   3.318910e+01
   5.126918e+01   1.525420e+02
  -7.088591e+01   1.310731e+02
  -9.435183e+01   1.811831e+01
  -5.075250e+01  -1.280292e+01
   2.488385e+01  -1.856472e+01
   3.256470e+01   4.053248e+01
  -5.914451e+01   7.592989e+01
  -1.666431e+02   3.269079e+01
  -1.323419e+02  -8.005536e+01
  -3.543938e+01  -1.680968e+02
   1.351174e+02  -1.369818e+02
   1.601708e+02  -5.767678e+00
   6.974725e+01   1.154863e+02
  -2.934765e+01   6.831430e+01
  -9.217954e+01   2.224183e+01
  -9.494900e+00  -3.308675e+01
   2.826297e+01  -1.292039e+01
   4.117155e+00  -3.146050e+01
  -6.268215e+01   4.839603e+00
  -7.509135e+01  -4.624742e+01
  -2.613219e+01  -1.109423e+02
   1.054251e+02  -1.413529e+02
   1.854079e+02  -3.074955e+01
   2.044251e+02   1.090980e+02
   4.777760e+01   2.004456e+02
  -6.381727e+01   1.356738e+02
  -1.360479e+02   1.629908e+01
  -2.534106e+01  -3.156948e+01
  -1.208769e+01  -5.612303e+01
  -7.782907e+01   2.901729e+01
  -3.856938e+01   9.074192e+00
  -3.780145e+01  -3.649378e+01
   9.404062e+00  -7.836318e+01
   8.881140e+01  -3.640735e+01
   6.283648e+01   2.485868e+01
  -7.571289e+00   1.005970e+02
  -1.031789e+02   8.358920e+01
  -1.366005e+02  -3.262078e+01
  -9.984235e+01  -1.659349e+02
   2.714699e+01  -1.842679e+02
   1.979305e+02  -6.713421e+01
   2.256608e+02   5.346271e+01
   1.121336e+02   1.248255e+02
  -1.544239e+01   1.170082e+02
  -5.226490e+01   7.642613e+01
  -4.867359e+01   8.017269e+01
  -7.397694e+01   1.012864e+02
  -8.059282e+01   7.472904e+01
  -9.516959e+01  -1.446686e+01
  -1.077662e+02  -1.314837e+02
  -2.362424e+01  -1.887989e+02
   4.571840e+01  -1.581125e+02
   1.497859e+02  -1.557898e+01
   9.990999e+01   9.914294e+01
   7.389644e+00   1.190126e+02
  -6.092052e+01   7.413022e+01
  -5.178763e+01  -1.418722e+01
  -8.223067e+00  -3.903823e+01
   9.512620e-01  -1.259309e+01
  -1.834001e+01   1.012673e+01
  -4.240539e+01  -1.133099e+01
  -3.361448e+01  -5.879559e+01
   3.072794e+01  -4.014776e+01
   1.362273e+02  -2.602280e+00
   1.283171e+02   1.565498e+01
   3.526059e+01   6.995135e+01
  -1.193783e+02   6.479573e+01
  -1.158756e+02   1.194425e+01
  -5.115754e+01  -4.627259e+01
   5.819883e+01  -3.002036e+01
   7.375703e+01   3.765904e+01
   1.451060e+01   7.989672e+01
  -2.928797e+01   2.560234e+01
  -2.826369e+01  -1.544566e+01
  -3.066424e+01  -3.579495e+01
  -2.121906e+01  -1.017303e+01
  -3.515850e+01   4.873909e-02
  -7.117424e+01  -1.072651e+01
   4.257146e+00  -9.099166e+01
   5.751416e+01  -1.109752e+02
   9.671035e+01  -1.160680e+02
   1.045391e+02  -1.032090e+01
   9.397312e+01   7.273539e+01
   2.055625e+01   8.167752e+01
  -7.623570e+01   6.510724e+01
  -2.397137e+01   1.554805e+01
   6.793640e+01  -4.033482e+01
   1.282710e+02   2.555073e+01
   5.518865e+01   8.372924e+01
  -5.712100e+01   7.748478e+01
  -1.173059e+02   5.573376e+01
  -1.202452e+02  -3.149406e+01
  -3.843255e+01  -7.954011e+01
   3.891943e+01  -3.981255e+01
   2.380734e+01  -1.358782e+01
  -5.170638e+01   2.230145e+01
  -8.919900e+01  -2.305560e+01
  -1.990012e+01  -8.648198e+01
   3.812014e+01  -1.296185e+02
   1.609331e+02  -5.798628e+01
   1.351717e+02   8.923833e+01
   2.778789e+01   1.629022e+02
  -4.954171e+01   1.212635e+02
  -7.016456e+01   1.923976e+01
  -9.227893e+01  -9.235303e+01
   8.855375e+00  -7.276394e+01
   5.843081e+01  -2.604412e+01
   6.434184e+01   3.382133e+01
   1.830973e+01   1.584699e+01
  -2.466657e+00  -1.102331e+01
   3.039951e+01  -1.633054e+01
   7.495769e+01   7.500393e+01
   4.817430e+01   8.520188e+01
  -4.948082e+01   5.532907e+01
  -1.042291e+02   8.263490e+00
  -1.008696e+02  -6.324816e+01
  -3.304635e+01  -5.066044e+01
   8.399198e+01  -1.575282e+01
   1.525151e+01  -1.473265e+01
  -1.233314e+01  -3.050740e+00
  -2.394228e+01   3.476074e+01
  -1.270243e+01   2.282391e+01
   1.581043e+01   2.913443e+01
  -2.537948e+01  -2.370038e+01
  -5.578242e+01  -4.059827e+01
  -9.369980e+01  -4.259675e+01
  -2.967144e+00  -9.218269e+01
   1.016397e+02  -9.738502e+01
   1.609058e+02  -5.589892e+01
   1.342309e+02   5.326053e+01
   3.981789e+01   1.286642e+02
  -6.660137e+01   1.161778e+02
  -6.490465e+01   3.031413e+01
  -5.171834e+01  -2.370720e+00
  -1.055001e+01  -6.979170e+00
   1.042216e+01  -6.608163e+00
  -2.929224e+01  -2.194227e+01
   8.087518e+00  -2.465675e+01
  -2.909764e-01  -7.850269e+01
   1.248086e+01  -7.574345e+01
   7.656888e+01   6.272501e+00
   6.375503e+01   1.268801e+02
   1.578009e+01   8.350230e+01
  -8.205949e+01   9.256155e+00
  -9.569097e+01  -4.754966e+01
   4.903595e+00  -4.872727e+01
   4.664093e+01  -5.069565e+01
   7.718833e+01   9.660547e+00
   2.351605e+01   3.835948e+01
  -2.559931e+01   2.056589e+01
  -1.454772e+01   2.729104e+01
   2.863164e+01   2.714777e+01
   6.879017e+01  -1.123838e+01
  -8.636454e+00   3.375200e+00
  -1.150021e+02   1.016511e+02
  -9.612971e+01   4.837798e+01
  -3.736248e+01  -3.274979e+01
   1.699005e+01  -6.111618e+01
   3.535467e+01  -3.224122e+01
  -4.395465e+00  -4.075709e+00
   6.553355e+00   6.176183e+01
  -4.580564e+01   3.189501e+01
  -1.003187e+01   1.215551e+00
  -1.624614e+01  -3.039158e+01
   3.281168e+00  -2.329451e+01
   2.857437e+01   1.550266e+01
   1.270130e+01   2.798768e+01
  -4.737939e+00  -1.372186e+00
   1.563651e+00   9.156569e+00
  -2.073626e+00  -8.200987e+00
   2.164167e+01   3.315434e+01
  -2.547135e+01   6.267301e+01
  -4.698554e+01  -3.079035e-02
  -4.465694e+01  -3.396685e+01
  -7.441539e+00  -5.351901e+01
   2.536608e+01  -1.361244e+01
  -6.997893e-01   3.492828e+01
  -3.182253e+01   6.590259e+01
  -7.345351e+01   5.243296e+01
  -5.549541e+01  -3.156868e+00
  -4.889773e+01  -4.811498e+01
   3.903618e+01  -6.139348e+01
   4.642446e+01   6.513376e+00
   6.209756e+00   3.563795e+00
  -4.421377e+01   1.228435e+01
  -5.106011e+01  -2.250484e+01
   4.525781e+00  -4.412554e+01
   1.140810e+02  -2.825542e+01
