
 $NMID
 id='ANONYMOUS ', fmtdat='(2E16.6)'
 volume=1.0
 tramp=1.0
 $END
   4.243512e+03  -3.023339e+02
   2.823041e+03   2.506432e+03
  -7.924322e+02   2.823336e+03
  -1.981891e+03   7.457646e+02
  -7.351065e+02  -7.909640e+02
   7.017307e+02  -5.952910e+02
   9.696597e+02   4.254219e+02
  -5.888862e+01   1.081434e+03
  -8.549749e+02   8.242641e+02
  -9.402280e+02  -1.997978e+02
  -4.887414e+02  -9.105428e+02
   2.221259e+02  -8.842227e+02
   6.882318e+02  -3.557987e+01
   3.829551e+02   8.124735e+02
  -3.065719e+02   7.557077e+02
  -6.675352e+02  -3.707007e+01
  -2.058240e+02  -6.722264e+02
   3.824038e+02  -5.969409e+02
   5.660830e+02  -9.615613e+01
   4.149397e+02   3.567116e+02
  -1.923012e+01   4.314938e+02
  -2.444962e+02   2.511067e+02
  -2.105453e+02  -9.831557e+00
   1.328527e+02  -1.433577e+02
   4.410014e+02   8.911783e+01
   2.334655e+02   4.793773e+02
  -4.520146e+02   4.373412e+02
  -8.937698e+02  -3.336556e+01
  -4.552359e+02  -5.979929e+02
   4.991420e+02  -4.730271e+02
   7.826735e+02   4.531299e+01
   3.239711e+02   5.253327e+02
  -2.790441e+02   5.551806e+02
  -6.087755e+02   1.883376e+02
  -4.320802e+02  -2.634039e+02
  -3.618556e+01  -5.023794e+02
   2.054762e+02  -2.969686e+02
   2.536160e+02   2.762578e+02
  -2.263215e+02   4.782396e+02
  -5.125879e+02   4.123210e+01
  -2.962992e+02  -7.106512e+02
   3.582243e+02  -7.203397e+02
   6.502840e+02   8.790280e+01
   2.341259e+02   6.168155e+02
  -3.296757e+02   2.960682e+02
  -4.399350e+02  -3.748595e+02
   1.012923e+02  -5.538695e+02
   5.825158e+02  -1.110320e+02
   5.571672e+02   4.445395e+02
   9.277942e+01   5.635463e+02
  -4.638347e+02   3.478800e+02
  -6.888843e+02  -1.167929e+02
  -3.294919e+02  -4.136903e+02
   2.543911e+02  -3.420691e+02
   4.436251e+02  -2.445721e+01
   2.134034e+02   2.560735e+02
  -1.441574e+02   6.803669e+01
  -8.919874e+01  -1.684716e+02
   2.271600e+02  -2.213986e+02
   3.611478e+02   9.348878e+01
   9.661151e+01   3.309707e+02
  -2.237841e+02   2.800698e+02
  -3.325370e+02   2.187910e+01
  -1.932452e+02  -9.267745e+01
   2.254326e+01  -2.307920e+02
   2.140900e+02  -3.197652e+02
   3.098055e+02  -2.247040e+02
   3.030666e+02   1.415544e+02
   8.778392e+01   4.491684e+02
  -9.898145e+01   3.642004e+02
  -1.354423e+02   6.529802e+01
  -4.818264e+01  -2.501190e+00
  -2.846345e+01   1.193553e+02
  -2.306998e+02   1.872248e+02
  -3.042353e+02  -6.519853e+01
  -1.573884e+02  -3.053517e+02
   7.240387e+01  -2.880214e+02
   2.747779e+02  -2.256664e+01
   2.177917e+02   2.584569e+02
  -8.688393e-01   2.873822e+02
  -2.858597e+02   1.055426e+02
  -3.619033e+02  -1.925347e+02
  -2.280285e+02  -3.558341e+02
   1.040840e+02  -2.958438e+02
   2.261821e+02  -1.086789e+02
   1.918226e+02   2.692912e+01
   8.591096e+01  -2.449973e+01
   2.091181e+02  -5.680811e+01
   3.804462e+02   7.091276e+01
   3.253780e+02   2.762715e+02
  -1.112623e+01   4.328252e+02
  -3.629778e+02   4.357290e+02
  -5.076981e+02   1.740097e+02
  -3.352502e+02  -1.036671e+02
  -7.220156e+01  -2.811050e+02
   1.675571e+02  -2.520327e+02
   1.187953e+02  -2.340406e+01
  -1.259145e+02   1.260483e+02
  -1.835688e+02  -1.407182e+01
  -3.372809e+01  -2.594804e+02
   1.971231e+02  -1.947594e+02
   2.118030e+02   7.714624e+01
  -2.900791e+01   2.014461e+02
  -2.320103e+02   5.765224e+01
  -1.471745e+02  -2.564699e+02
   3.389310e+01  -3.600338e+02
   2.243493e+02  -1.762955e+02
   3.323467e+02   7.036483e+01
   2.569563e+02   2.477328e+02
   7.993479e+01   2.628942e+02
  -1.018029e+02   1.552059e+02
  -1.566601e+02   8.701990e+00
  -7.277511e+01  -5.350677e+01
   7.125103e+01   4.148261e+01
   5.042419e+01   1.470467e+02
  -1.294017e+02   1.260279e+02
  -1.617905e+02  -1.607480e+01
  -5.312566e+01  -7.261570e+01
   7.539566e+01  -3.239524e+01
   7.307850e+01   6.477318e+01
  -1.012766e+02   9.003203e+01
  -2.656130e+02  -9.604749e+00
  -2.749234e+02  -1.400402e+02
  -5.710462e+01  -2.560817e+02
   1.820022e+02  -2.489816e+02
   2.993054e+02  -1.290817e+02
   1.355572e+02   6.120868e+01
  -1.412184e+01   1.406177e+02
  -9.233793e+01   1.390578e+01
   1.574858e+01  -1.172324e+02
   1.831636e+02  -7.763739e+01
   1.864048e+02   1.172180e+02
   5.578183e+01   2.197534e+02
  -9.959479e+01   1.725182e+02
  -1.518756e+02   5.018393e+01
  -9.257039e+01  -4.336171e+01
   1.967228e+01  -1.946370e+01
   2.338771e+01   8.135637e+01
  -5.216840e+01   9.589484e+01
  -1.981582e+02   3.310091e+01
  -1.665894e+02  -1.120426e+02
  -2.781048e+01  -2.047420e+02
   1.743156e+02  -2.021684e+02
   2.081736e+02   2.304251e+00
   5.776460e+01   1.247070e+02
  -9.056848e+01   1.108970e+02
  -8.912311e+01   3.448735e+01
  -1.281954e+01  -2.369570e+01
   1.358676e+01  -1.714089e+01
  -2.862345e+01   1.520380e+01
  -5.091105e+01  -1.080470e+01
  -6.938254e+01  -8.348480e+01
  -3.291737e+01  -1.377425e+02
   9.414560e+01  -1.396707e+02
   2.458450e+02  -3.979365e+00
   1.946832e+02   1.345046e+02
   3.043635e+01   2.397394e+02
  -1.217213e+02   1.744841e+02
  -1.602718e+02  -1.409991e+00
  -7.677416e+01  -7.067205e+01
  -1.314298e+01  -6.713371e+00
  -4.831167e+01   1.866509e+01
  -4.553572e+01   1.294554e+01
  -3.729644e+01  -4.016316e+01
   5.826182e+01  -8.466052e+01
   1.000407e+02  -5.626731e+01
   7.894872e+01   3.974153e+01
  -1.580486e+01   8.835698e+01
  -1.424845e+02   6.284323e+01
  -2.046612e+02  -4.704385e+01
  -8.923952e+01  -2.053692e+02
   1.040048e+02  -2.076306e+02
   2.864336e+02  -8.213236e+01
   2.118273e+02   1.050865e+02
   1.060517e+02   2.089381e+02
  -5.979847e+01   1.309220e+02
  -8.549922e+01   4.624101e+01
  -5.735438e+01   2.224368e+01
  -7.829423e+01   9.787213e+01
  -1.014281e+02   4.708665e+01
  -1.207953e+02  -1.544503e+00
  -1.330498e+02  -1.624259e+02
  -3.941116e+01  -2.323120e+02
   7.591824e+01  -1.672418e+02
   1.937210e+02  -2.521008e+01
   1.437552e+02   1.602281e+02
   3.818911e+01   1.737611e+02
  -7.542101e+01   7.634700e+01
  -6.794359e+01   5.635308e+00
   1.287309e+01  -6.468485e+01
   1.353169e+01  -4.845918e+01
  -4.288635e+01  -1.986995e+01
  -8.874162e+01  -3.932975e+01
  -3.921516e+01  -2.102470e+01
   4.134098e+01  -4.763834e+01
   1.505142e+02   1.145112e+01
   1.738424e+02   4.539217e+01
   5.959328e+00   1.079879e+02
  -1.321835e+02   7.346009e+01
  -1.714989e+02   2.524723e+01
  -5.463268e+01  -1.969001e+01
   5.011051e+01  -3.482550e+01
   7.823774e+01  -2.793291e+00
  -9.772467e+00   4.102023e+01
  -4.997551e+01   2.411811e+01
  -7.430946e+01  -1.384235e+01
  -3.671907e+01  -6.197033e+01
  -4.286917e+01  -2.179793e+01
  -5.679475e+01  -1.333794e+01
  -5.855891e+01  -3.467386e+01
  -1.556414e+01  -3.844487e+01
   5.810299e+01  -1.334647e+02
   1.052158e+02  -1.373601e+02
   1.597856e+02  -3.699828e+01
   1.191794e+02   8.032429e+01
   2.305600e+01   1.256597e+02
  -7.953442e+01   3.402768e+01
  -5.760840e+01  -7.342551e+00
   4.715417e+01  -5.298860e-01
   1.604462e+02   3.367243e+01
   1.040332e+02   9.834161e+01
  -1.057610e+02   1.363526e+02
  -2.210297e+02   3.468071e+01
  -2.030941e+02  -2.125842e+01
  -3.047372e+01  -8.641221e+01
   9.285564e+01  -6.575116e+01
   6.901297e+01   1.617054e+01
  -4.228778e+01   1.463049e+01
  -1.209164e+02  -1.835335e+01
  -4.431571e+01  -1.651052e+02
   1.076580e+02  -1.699326e+02
   1.721428e+02  -5.916366e+01
   1.273781e+02   1.002226e+02
  -1.453007e+01   1.892654e+02
  -5.006508e+01   1.252262e+02
  -1.064961e+02  -4.682091e+00
  -5.899852e+01  -1.158405e+02
   3.207459e+00  -1.116656e+02
   7.758694e+01  -3.357968e+01
   5.181973e+01   5.813470e+01
   3.667135e+01  -4.580958e+00
  -1.986177e+00  -2.726419e+01
   5.311557e+00   2.766471e+01
   5.282574e+01   9.350666e+01
   5.898382e+01   1.059291e+02
  -6.657100e+01   4.489446e+01
  -1.597484e+02  -3.051937e+01
  -1.476239e+02  -5.447265e+01
  -7.143243e+00  -8.209086e+01
   9.774006e+01  -8.536886e-01
   9.976615e+01   9.278648e+00
   6.478333e+00   2.002116e+01
  -4.042153e+01   1.416788e+01
  -1.473578e+01   1.097075e+01
   6.134899e+00  -2.552802e+00
   1.276605e+01   1.416955e+01
  -8.967711e+01  -8.908406e+00
  -8.860657e+01  -8.381218e+00
  -4.257139e+00  -9.082394e+01
   9.355321e+01  -9.377221e+01
   1.530791e+02  -7.251680e+01
   1.279284e+02   5.236581e+01
   3.443798e+01   1.918196e+02
  -5.654751e+01   1.418792e+02
  -1.134875e+02   5.174291e+01
  -4.936189e+01  -4.565045e+01
  -5.050314e+01  -2.430470e+01
  -2.754840e+01  -2.221705e+01
  -6.928345e+00  -1.650399e+01
  -4.160991e+01  -6.528078e+01
  -1.976493e+01  -8.426264e+01
   2.146719e+01  -8.222456e+01
   5.674315e+01   6.506227e+00
   5.584997e+01   1.053244e+02
   1.558095e+01   8.419238e+01
  -8.366628e+01   2.807144e+01
  -8.372581e+01  -5.312638e+01
  -3.270233e+00  -9.220898e+01
   7.461871e+01  -8.314046e+01
   1.003945e+02  -1.653898e+01
   7.889618e+01   3.481244e+01
  -4.889111e+01   4.324857e+01
  -3.047308e+01   2.692931e+01
   2.300610e+01   1.476503e+00
   4.777766e+01  -9.292618e+00
  -1.836067e+01   3.575821e+01
  -6.037777e+01   7.373409e+01
  -1.008062e+02   4.361894e+01
  -6.514394e+01  -4.061979e+01
   4.627839e+01  -9.659315e+01
   5.574420e+01  -9.759937e+01
   2.991341e+01   1.775847e+01
  -4.854774e+00   4.664796e+01
  -2.385530e+01   3.582179e+01
  -4.737214e+01  -2.402821e+01
  -2.131985e+01  -6.316808e+01
   2.113354e+00  -1.382859e+01
   1.522607e+01   6.840817e+00
   3.557531e+01   3.283324e+01
  -9.015825e-01   1.342315e+01
   2.555659e+01  -2.473868e+01
   2.098203e+01  -2.981338e+01
  -6.286823e+00   2.449070e+01
  -2.670063e+01   9.954505e+00
  -2.298075e+01   5.034909e+00
  -4.144561e+01  -5.251913e+01
   1.587423e+01  -6.723146e+01
   4.707141e+01  -1.538460e+01
   5.712482e+01   3.878107e+01
   2.368106e+01   6.329479e+01
  -7.543417e+01   3.726755e+01
  -8.127048e+01  -2.003890e-01
  -4.408102e+01  -5.702090e+01
   3.216155e+01  -6.154800e+01
   7.050339e+01  -6.253698e+00
   2.779897e+01  -1.202452e+01
  -2.104640e+00  -6.247436e+00
  -2.614901e+01  -9.538171e+00
   5.871910e+01  -3.115485e+01
   9.555297e+01  -3.102423e+00
