
 $NMID
 id='ANONYMOUS ', fmtdat='(2E16.6)'
 volume=1.0
 tramp=1.0
 $END
  -3.708059e+03   2.213422e+02
  -2.522477e+03  -1.894041e+03
   1.909649e+02  -2.396882e+03
   1.789872e+03  -1.065394e+03
   9.357029e+02   2.174447e+02
  -3.568288e+02   3.246686e+02
  -6.347583e+02  -2.579369e+02
  -1.729278e+01  -7.865917e+02
   6.444163e+02  -6.417491e+02
   7.217007e+02   1.189437e+02
   4.197829e+02   6.762250e+02
  -2.201106e+02   7.621805e+02
  -5.299521e+02   1.121663e+02
  -3.745116e+02  -6.120311e+02
   1.925996e+02  -6.645068e+02
   4.857569e+02  -1.309778e+01
   3.041157e+02   5.762666e+02
  -1.977571e+02   6.161466e+02
  -5.233999e+02   1.843361e+02
  -4.355265e+02  -2.528271e+02
  -4.615988e+01  -4.119650e+02
   2.263237e+02  -2.530031e+02
   1.422225e+02  -3.950928e+01
  -1.374614e+02  -8.602786e+00
  -3.417220e+02  -1.828098e+02
  -6.551741e+01  -4.098068e+02
   4.787909e+02  -2.513542e+02
   6.662385e+02   2.050572e+02
   3.042699e+02   4.150151e+02
  -3.881523e+02   2.824016e+02
  -6.235711e+02  -1.032830e+02
  -2.138835e+02  -4.121470e+02
   2.875940e+02  -4.722656e+02
   4.732354e+02  -1.785188e+02
   3.754532e+02   2.282570e+02
   7.677720e+01   3.815700e+02
  -1.450623e+02   2.300254e+02
  -4.706196e+01  -1.542064e+02
   1.475790e+02  -2.186093e+02
   2.803340e+02   1.062609e+02
   1.114061e+02   5.502774e+02
  -2.620359e+02   5.075959e+02
  -3.771100e+02  -2.636340e+01
  -1.138495e+02  -4.170246e+02
   2.076574e+02  -2.354224e+02
   2.493413e+02   2.656175e+02
  -9.309319e+01   4.644160e+02
  -4.472426e+02   6.170157e+01
  -5.049236e+02  -4.129642e+02
  -1.824436e+02  -5.091527e+02
   3.307520e+02  -2.770984e+02
   5.810629e+02   3.445327e+01
   3.201424e+02   2.988466e+02
  -8.904708e+01   3.090123e+02
  -3.477475e+02   1.060131e+02
  -1.769436e+02  -1.317264e+02
   8.116820e+01  -7.524715e+01
   9.337645e+01   9.435849e+01
  -1.278783e+02   9.222838e+01
  -3.059387e+02  -4.773910e+01
  -1.483345e+02  -2.343982e+02
   1.694002e+02  -2.270685e+02
   2.988810e+02  -1.116445e+02
   2.530734e+02   7.164557e+01
  -4.071471e+01   2.804358e+02
  -3.018181e+02   3.329184e+02
  -3.438067e+02   1.724260e+02
  -2.330366e+02  -1.677695e+02
  -5.657942e+01  -3.671475e+02
   4.819616e+01  -2.992260e+02
   4.196364e+01  -9.566732e+01
   4.464760e+01  -5.593763e+01
   9.025631e+01  -1.257467e+02
   2.329050e+02  -1.291073e+02
   2.488519e+02   9.509478e+01
   1.289161e+02   2.407355e+02
  -7.631751e+01   1.921530e+02
  -2.018051e+02  -1.088429e+01
  -1.351192e+02  -2.467561e+02
  -4.469816e-01  -2.871337e+02
   2.691697e+02  -5.081176e+01
   2.953183e+02   1.942867e+02
   1.588836e+02   3.018741e+02
  -9.146565e+01   2.568357e+02
  -1.850528e+02   1.487869e+02
  -1.439593e+02   3.719673e+01
  -1.495497e+02   2.860369e+01
  -2.469565e+02   5.068512e+01
  -3.815055e+02  -1.092445e+02
  -3.058071e+02  -3.197990e+02
   2.411900e+01  -4.304035e+02
   3.842478e+02  -3.824352e+02
   5.467824e+02  -1.284402e+02
   3.069124e+02   9.146708e+01
   6.397441e+01   2.604636e+02
  -1.053508e+02   2.033707e+02
  -6.778490e+01   5.507942e+01
   1.135913e+02  -5.417915e+01
   1.685541e+02   2.865561e+01
   2.176292e+01   1.374877e+02
  -1.589592e+02   1.227734e+02
  -1.219832e+02  -7.350961e+01
   5.866412e+01  -1.688444e+02
   1.621449e+02   7.636962e+00
   1.685556e+02   2.033620e+02
  -2.904415e+01   3.068357e+02
  -2.359656e+02   1.936138e+02
  -3.309995e+02  -3.413152e+01
  -2.701164e+02  -2.455994e+02
  -1.154579e+02  -2.814317e+02
   9.808546e+01  -1.530362e+02
   1.608415e+02  -1.109829e+01
   7.322897e+01   3.151087e+01
  -7.361125e+01  -3.408219e+01
  -3.119390e+01  -1.349272e+02
   1.313475e+02  -7.676115e+01
   1.920686e+02   8.418927e+00
   6.247984e+01   6.253297e+01
  -8.195491e+01   2.369997e+01
  -4.237231e+01  -7.222998e+01
   1.226366e+02  -1.083230e+02
   2.772725e+02   1.429613e+01
   2.702373e+02   1.686887e+02
   5.813473e+00   2.441297e+02
  -2.014720e+02   2.345868e+02
  -2.704862e+02   1.505111e+02
  -1.311301e+02  -3.407567e+01
   9.751149e+00  -7.128995e+01
   3.252671e+01   5.899559e+00
  -8.018774e+01   6.600830e+01
  -1.903809e+02   8.437766e+00
  -2.133607e+02  -1.496588e+02
  -5.410281e+01  -2.473807e+02
   7.831799e+01  -1.693188e+02
   1.083873e+02  -2.614013e+01
   4.899168e+01   8.136849e+00
  -4.697767e+01  -2.497947e+01
  -3.257765e+01  -8.886689e+01
   8.711159e+01  -1.117037e+02
   1.688861e+02  -2.475561e+01
   1.627960e+02   1.590018e+02
   3.615936e+01   1.895177e+02
  -1.589775e+02   1.457021e+02
  -1.607746e+02  -5.480106e+00
  -8.012609e+01  -9.680746e+01
   8.241326e+01  -1.206496e+02
   8.217721e+01  -1.888234e+01
  -2.704193e+01   2.778230e+01
  -2.220665e+01   8.827753e+00
   1.171808e+01  -5.911391e+00
   9.229981e+01   4.026045e+00
   1.029736e+02   8.258129e+01
   4.775032e+01   1.795021e+02
  -1.264370e+02   1.483515e+02
  -2.442960e+02   5.718790e+00
  -2.011968e+02  -1.542834e+02
  -3.000214e+01  -2.203775e+02
   9.005396e+01  -1.643853e+02
   1.389633e+02  -2.280168e+01
   5.954573e+01   6.093626e+01
   2.463387e+01   4.375102e+01
   6.486552e+01  -4.044946e+01
   9.718176e+01  -9.441172e+00
   4.669865e+01   4.207380e+01
  -2.990359e+01   1.155312e+02
  -1.144419e+02   4.508415e+01
  -7.461928e+01  -4.718049e+01
   1.450855e+01  -1.176607e+02
   1.501255e+02  -2.221341e+01
   1.869195e+02   7.444345e+01
   8.274218e+01   2.093353e+02
  -1.163864e+02   2.007716e+02
  -2.617458e+02   9.539558e+01
  -2.209208e+02  -6.956366e+01
  -8.771161e+01  -1.652911e+02
   1.433623e+01  -1.317783e+02
   6.029813e+01  -8.941428e+01
   8.487036e+01  -9.715331e+01
   6.924837e+01  -9.848293e+01
   1.133842e+02  -6.415770e+01
   1.237172e+02   4.519059e+01
   9.281364e+01   1.512767e+02
   4.364686e+00   1.873849e+02
  -1.084267e+02   1.568901e+02
  -1.663783e+02  -3.826516e+01
  -1.121512e+02  -1.066280e+02
   2.424714e+00  -1.502247e+02
   8.991627e+01  -9.010381e+01
   3.563566e+01  -3.530556e-01
  -1.416052e+01   2.947115e+01
  -8.348684e+00   4.312524e+01
   4.219044e+01   1.285533e+01
   6.035577e+01   3.106217e+01
   5.445955e+01   6.876859e+01
  -8.382702e+01   7.026451e+01
  -1.699840e+02   3.012629e+00
  -1.320277e+02  -6.410054e+01
  -2.258826e+01  -1.059870e+02
   1.438598e+02  -6.094829e+01
   1.362788e+02   5.935077e+00
   3.546158e+01   3.678032e+01
  -7.708731e+01  -1.952080e+00
  -1.106497e+02  -5.365172e+01
  -1.672346e+00  -5.352592e+01
   4.691256e+01  -4.543063e+01
   6.367295e+01  -1.973529e+00
   4.408899e+01   6.241578e+01
   1.219745e+01   5.037258e+01
   3.905933e+01   1.904009e+01
   6.420584e+01  -1.172050e+01
   1.787251e+01   5.432998e+01
  -2.722853e+01   1.408299e+02
  -9.501004e+01   1.204232e+02
  -1.998911e+02   7.165309e+01
  -1.166581e+02  -9.287316e+01
  -3.765865e+01  -1.042350e+02
   9.984943e+01  -8.474267e+01
   5.953068e+01  -1.359232e+00
  -3.089584e+01   2.589914e+01
  -9.283871e+01  -4.135158e+01
  -5.571003e+01  -1.108407e+02
   1.190099e+02  -1.120212e+02
   1.646907e+02  -6.980976e+01
   1.282813e+02   2.126119e+01
   6.571723e+01   8.462299e+01
  -5.588124e+01   4.063927e+01
  -4.713222e+01  -1.182163e+01
   1.290301e+01  -2.416335e+01
   7.763208e+01  -1.752112e+01
   6.546697e+01   1.342078e+02
  -4.103563e+01   1.584822e+02
  -1.618207e+02   7.370944e+01
  -1.010169e+02  -9.659742e+01
  -4.183609e+00  -1.738568e+02
   7.926091e+01  -1.525544e+02
   7.534369e+01   5.182040e+00
   5.992621e+01   1.222507e+02
  -9.887854e+00   1.075072e+02
  -5.021198e+01   1.876327e+01
  -2.728327e+01  -8.282457e+00
  -4.101707e+01  -9.152027e+00
  -2.814972e+01   2.294021e+01
  -2.576435e+01  -1.245711e+01
  -6.450661e+01  -9.406034e+01
  -4.750182e+01  -1.253515e+02
   5.451822e+01  -5.903968e+01
   1.442018e+02   3.758179e+01
   1.457842e+02   6.035459e+01
   2.912718e+01   7.287536e+01
  -7.409405e+01   2.495232e+01
  -6.906145e+01   4.011032e+00
  -9.754503e+00   4.802175e+00
   9.762654e+00  -5.951322e+01
  -8.443871e+00  -6.058903e+00
  -9.244852e+00  -8.463025e+00
   4.133695e+01   1.212743e+01
   5.982862e+01  -3.569272e+00
   8.772707e+01   3.585629e+01
  -3.696079e+00   7.573383e+01
  -9.329546e+01   1.277752e+02
  -1.993037e+02   3.166954e+01
  -1.417704e+02  -3.433200e+01
  -2.030407e+01  -1.662868e+02
   6.819269e+01  -1.041384e+02
   1.244848e+02  -6.319319e+01
   6.752771e+01   3.462529e+01
   4.303268e+01   5.352809e+01
   8.938803e+00   2.980954e+01
   2.816324e+01  -1.070664e+01
   4.187077e+01   6.141130e+01
   2.931679e+01   9.255735e+01
  -1.993636e+01   6.108558e+01
  -7.189307e+01  -2.782080e+01
  -6.948212e+01  -1.068360e+02
   1.203019e+01  -9.609295e+01
   7.059497e+01  -4.118991e+01
   7.798957e+01   4.320545e+01
  -4.652432e+00   7.596144e+01
  -5.975485e+01   6.825682e+01
  -9.548204e+01  -6.683852e+00
  -1.945909e+01  -4.009526e+01
   3.276670e+01  -4.399423e+01
   1.210397e+01  -3.924788e+01
  -2.668176e+01   9.811615e-01
  -4.055237e+01   2.192393e-01
   1.342777e+01  -5.057726e+01
   7.539642e+01  -5.505035e+01
   8.237720e+01  -5.101972e+01
   5.104842e+01   3.455767e+01
   1.118763e+00   8.016456e+01
  -4.719209e+01   8.022446e+01
  -2.747867e+01   4.830216e+00
   1.057887e+01  -5.247033e+01
   4.265226e+00  -2.737268e+01
   1.706135e+01  -2.089752e+01
   9.533448e+00   4.033761e+01
  -7.766374e+00   3.890409e+01
  -8.537736e+00  -1.102764e+01
  -3.883847e+01  -2.952967e+01
  -2.426169e+01   3.110497e+01
  -9.719318e-01   2.130544e+01
   1.588881e+01  -1.423290e+01
  -1.338805e+01  -4.136167e+01
   1.695427e+01  -6.910146e+01
   2.862916e+01  -3.382141e+01
   2.120151e+01   2.243102e+01
  -1.243993e+01   7.435370e+01
  -4.641259e+01   3.384498e+01
  -6.151091e+01  -6.145036e+01
  -1.366872e+01  -4.428354e+01
   5.468216e+01  -4.555811e+01
   8.571983e+01   1.497748e+01
   6.230606e+01   3.808016e+01
  -3.920686e+01   6.129111e+01
  -6.527470e+01   8.199139e+00
  -4.382533e+01   1.260254e+01
   3.462946e+01   5.325330e+00
   3.290493e+01   3.795334e+01
  -2.692678e+01   2.693563e+00
  -6.560372e+01   6.874899e+00
