
 $NMID
 id='ANONYMOUS ', fmtdat='(2E16.6)'
 volume=1.0
 tramp=1.0
 $END
  -3.505724e+03  -3.488586e+02
  -2.037374e+03  -2.060746e+03
   5.082050e+02  -2.298638e+03
   1.554372e+03  -8.867553e+02
   9.067114e+02   3.260792e+02
  -3.169116e+02   4.097589e+02
  -6.345843e+02  -2.696906e+02
  -7.180814e+01  -8.892230e+02
   6.835201e+02  -6.891366e+02
   7.945666e+02   7.847659e+01
   3.964246e+02   7.209425e+02
  -1.710300e+02   7.088255e+02
  -5.474604e+02   1.572709e+02
  -2.790570e+02  -6.098239e+02
   2.196908e+02  -6.830213e+02
   5.364858e+02   1.441225e+01
   2.513908e+02   5.935135e+02
  -2.638441e+02   6.650884e+02
  -5.583096e+02   1.361156e+02
  -4.226964e+02  -2.962595e+02
  -4.080101e+01  -4.210467e+02
   2.521754e+02  -2.644702e+02
   1.706325e+02  -2.064087e+01
  -1.584193e+02   5.918578e+01
  -3.741791e+02  -1.852796e+02
  -1.079037e+02  -4.000552e+02
   4.331651e+02  -3.352489e+02
   7.537815e+02   1.134172e+02
   3.711585e+02   4.848038e+02
  -3.847684e+02   4.046668e+02
  -6.428402e+02  -5.773127e+01
  -2.835050e+02  -4.749968e+02
   2.694634e+02  -4.588181e+02
   5.991340e+02  -1.867449e+02
   3.194239e+02   2.296971e+02
   8.382520e+01   4.382734e+02
  -1.681150e+02   2.043660e+02
  -7.365181e+01  -1.840122e+02
   1.666146e+02  -3.247716e+02
   3.374388e+02   9.658842e+01
   1.296272e+02   5.812071e+02
  -3.130886e+02   5.884752e+02
  -5.008972e+02   1.011081e+01
  -2.079863e+02  -4.574738e+02
   2.497453e+02  -2.844037e+02
   3.373567e+02   2.710681e+02
  -4.902182e+01   4.563901e+02
  -5.518301e+02   1.310299e+02
  -5.362513e+02  -4.251685e+02
  -1.862766e+02  -5.167784e+02
   3.763657e+02  -3.333667e+02
   5.863829e+02   9.887142e+01
   3.280965e+02   3.222669e+02
  -1.345771e+02   3.161844e+02
  -3.875163e+02   6.894545e+01
  -1.974496e+02  -1.156934e+02
   6.081589e+01  -8.779472e+01
   1.504118e+02   8.226841e+01
  -1.471875e+02   1.360135e+02
  -3.060657e+02  -4.887573e-01
  -1.166908e+02  -2.489648e+02
   2.125091e+02  -2.391531e+02
   3.519156e+02  -8.945076e+01
   2.470453e+02   1.187143e+02
  -1.358193e+01   2.524991e+02
  -2.982526e+02   3.281541e+02
  -3.747121e+02   1.893563e+02
  -2.391162e+02  -1.789486e+02
  -4.282957e+01  -3.839812e+02
   7.291821e+01  -2.811273e+02
   2.398824e+01  -1.132048e+02
   2.585094e+01  -3.881716e+01
   7.285580e+01  -1.099021e+02
   2.377142e+02  -9.837730e+01
   2.849985e+02   9.549742e+01
   1.512159e+02   2.678444e+02
  -1.178050e+02   2.387028e+02
  -2.353882e+02  -3.508268e+01
  -1.504567e+02  -2.485653e+02
   3.629263e+01  -2.752936e+02
   2.629065e+02  -8.627805e+01
   3.273889e+02   1.610514e+02
   1.627355e+02   3.307281e+02
  -9.676109e+01   2.790513e+02
  -2.150298e+02   1.499218e+02
  -1.800656e+02   3.488003e+01
  -1.200542e+02   8.381509e+00
  -2.213340e+02   2.165025e+01
  -3.588076e+02  -1.333873e+02
  -2.571085e+02  -3.185753e+02
   3.146189e+01  -4.784200e+02
   3.982493e+02  -4.053826e+02
   4.149850e+02  -1.863369e+02
   2.937360e+02   1.226823e+02
   7.430094e+00   2.621946e+02
  -1.410486e+02   2.311676e+02
  -8.200124e+01   2.117848e+01
   1.165519e+02  -8.065638e+01
   1.564052e+02   2.989107e+01
   4.464973e+01   2.111300e+02
  -1.492986e+02   1.291698e+02
  -1.433373e+02  -5.063641e+01
   1.302134e+01  -1.656437e+02
   1.728412e+02  -1.304704e+01
   1.370751e+02   2.252986e+02
  -5.378931e+01   3.577024e+02
  -2.500342e+02   1.852075e+02
  -3.287631e+02  -7.378943e+01
  -2.351488e+02  -2.722441e+02
  -8.877998e+01  -2.897527e+02
   1.394186e+02  -1.575210e+02
   1.669473e+02   9.003076e+00
   4.220522e+01   2.276137e+01
  -5.907085e+01  -4.005414e+01
  -2.710326e+00  -9.068329e+01
   1.155907e+02  -7.914516e+01
   1.645232e+02   1.713705e+01
   4.994201e+01   6.143270e+01
  -9.869103e+01   2.205275e+01
  -3.648151e+01  -7.082744e+01
   1.417840e+02  -6.500354e+01
   2.759162e+02   1.509702e+01
   2.474143e+02   1.315575e+02
   3.070443e+01   2.873156e+02
  -1.536746e+02   2.596224e+02
  -2.501229e+02   1.264573e+02
  -1.552156e+02  -3.056436e+01
   4.323703e+01  -1.226873e+02
   7.447809e+01  -4.856237e+01
  -6.835667e+01   1.188642e+02
  -1.803663e+02   9.102285e+01
  -1.956654e+02  -1.305646e+02
  -6.143864e+01  -1.978022e+02
   9.790373e+01  -1.237290e+02
   1.152011e+02  -3.697051e+01
   5.794725e+01   3.223438e+01
  -1.247155e+01  -1.669510e+01
  -3.140570e+01  -7.669263e+01
   7.051824e+01  -1.088644e+02
   1.768072e+02  -2.272125e+01
   1.917900e+02   1.278607e+02
   2.419879e+01   2.066421e+02
  -1.536086e+02   1.626763e+02
  -1.857346e+02  -1.219836e+00
  -6.063030e+01  -8.346953e+01
   5.558316e+01  -1.121794e+02
   8.534981e+01  -3.098647e+01
  -7.702889e+00   2.957690e+01
  -1.937857e+01   6.009050e+00
   1.696408e+01   7.639201e+00
   1.048466e+02  -1.327357e+01
   1.049804e+02   9.670363e+01
  -5.904564e+00   1.636028e+02
  -1.240475e+02   1.611697e+02
  -2.143931e+02   3.701058e+01
  -2.174207e+02  -1.491430e+02
   4.623433e+00  -2.288746e+02
   9.321808e+01  -1.611168e+02
   1.368219e+02  -1.521555e+01
   7.713845e+01   6.954887e+01
   1.055074e+01   2.902703e+01
   6.804429e+01  -6.778838e+00
   5.482080e+01  -2.819846e+00
   5.807291e+01   4.488408e+01
  -3.825446e+01   8.390989e+01
  -1.047810e+02   5.111334e+01
  -7.995515e+01  -5.258098e+01
   2.460267e+01  -1.349269e+02
   1.573628e+02  -6.937947e+01
   1.715661e+02   7.914555e+01
   9.589722e+01   2.168484e+02
  -1.080930e+02   2.375913e+02
  -2.672719e+02   7.978850e+01
  -2.528230e+02  -9.132229e+01
  -1.161389e+02  -1.906728e+02
   5.572583e+01  -1.365937e+02
   1.058862e+02  -7.732334e+01
   7.092377e+01  -7.338733e+01
   2.922009e+01  -1.071391e+02
   9.384192e+01  -8.696453e+01
   1.457085e+02   5.832346e+01
   1.193348e+02   1.811335e+02
  -3.049520e+00   2.398758e+02
  -7.592469e+01   1.636290e+02
  -1.544420e+02   3.596575e+01
  -1.413221e+02  -1.257727e+02
  -2.386477e+01  -1.441880e+02
   4.403472e+01  -8.811659e+01
   5.062435e+01   2.029190e+01
   3.777651e+00   6.752242e+01
  -3.227155e+01   3.857105e+01
   1.315813e+01   2.338786e+01
   7.166485e+01   1.537450e+01
   3.463090e+01   3.937519e+01
  -6.314231e+01   5.152558e+01
  -1.508720e+02   5.852142e+00
  -1.010029e+02  -8.669301e+01
  -2.805182e+01  -6.693747e+01
   1.050143e+02  -4.318196e+01
   1.380086e+02  -9.142523e+00
   3.092533e+01   2.858136e+01
  -4.636969e+01   4.869109e+01
  -7.827718e+01  -9.851198e+00
  -6.483472e+00  -4.465511e+01
   5.302724e+01  -7.453117e+01
   8.471800e+01   1.007707e+01
   4.174001e+01   6.624558e+01
   4.203225e+01   3.811733e+01
   5.220934e+01   2.267834e+01
   4.627109e+01   2.142859e+01
   3.524724e+01   5.183525e+01
  -4.658210e+01   1.279851e+02
  -1.004651e+02   1.156475e+02
  -1.359976e+02   7.753375e+00
  -9.377345e+01  -8.996333e+01
  -7.676341e+00  -1.203245e+02
   5.247284e+01  -5.339136e+01
   6.606488e+01   2.418665e+01
  -5.353482e+01  -1.495312e+00
  -1.163202e+02  -4.108629e+01
  -6.604280e+01  -1.112403e+02
   9.005785e+01  -1.388268e+02
   2.016508e+02  -5.314205e+01
   1.570041e+02   2.042163e+01
   3.815984e+01   8.539169e+01
  -7.973335e+01   4.185294e+01
  -4.214525e+01  -5.100122e+00
   4.038224e+01  -3.912985e+01
   9.615466e+01   9.378044e+00
   3.023507e+01   8.968605e+01
  -6.844149e+01   1.413415e+02
  -1.147190e+02   5.413579e+01
  -1.371211e+02  -1.140431e+02
  -3.125787e+01  -1.799742e+02
   4.669860e+01  -1.524827e+02
   1.252111e+02  -1.950313e+00
   4.670107e+01   1.470450e+02
   4.011808e+00   1.384841e+02
  -5.832825e+01   2.507607e+01
  -8.016274e+01  -2.407197e+01
  -1.503659e+01  -4.110350e+01
   1.063419e+01   2.180446e+01
  -8.016043e+00  -1.856655e+01
  -6.081690e+01  -7.327849e+01
  -3.864701e+01  -1.064230e+02
   7.641587e+01  -3.363295e+01
   1.264360e+02   1.045215e+01
   1.348807e+02   7.350212e+01
   3.787334e+01   3.720023e+01
  -6.905809e+01   1.268859e+01
  -8.938001e+01   9.648911e+00
  -8.068099e+00  -9.823793e+00
   5.369810e+01  -1.993143e+01
   3.699437e+01  -2.281850e+01
  -6.434983e+00   1.580495e+00
   5.567229e+00   4.076712e+01
   4.653567e+01  -3.917328e+00
   8.901294e+01   3.380401e+01
  -8.117159e+00   6.658862e+01
  -8.425200e+01   1.075323e+02
  -1.781737e+02   7.014454e+01
  -1.489049e+02  -6.224844e+01
  -5.121860e+01  -1.530446e+02
   8.802816e+01  -1.487386e+02
   1.212998e+02  -4.253044e+01
   1.042978e+02   5.646937e+01
   1.993447e+01   6.363475e+01
  -1.442420e+01   1.058801e+01
   1.976740e+01  -8.705972e-01
   2.106874e+01   4.071029e+01
   3.583410e+01   7.900779e+01
  -4.367883e+01   8.100503e+01
  -9.378977e+01  -3.392341e+01
  -8.642705e+01  -1.094558e+02
  -8.707961e+00  -1.130658e+02
   7.501273e+01  -1.794084e+01
   1.031024e+02   5.379877e+01
   3.993268e+01   8.904278e+01
  -9.747368e+01   7.595617e+01
  -1.100236e+02   1.626646e+01
  -7.037916e+01  -6.382577e+01
   7.892682e+00  -7.853083e+01
   2.018051e+01  -4.094627e+01
   6.727728e+00   2.963595e+01
  -7.685293e+01   5.742505e+00
   1.548397e+00  -2.509921e+01
   6.360166e+01  -6.787091e+01
   1.057492e+02  -8.070473e+01
   6.591366e+01   1.143055e+01
  -1.054213e+01   1.035040e+02
  -7.343921e+01   8.563187e+01
  -4.022888e+01   1.234504e+01
   2.455601e+01  -9.088525e+01
   4.472829e+01  -8.328394e+01
   1.394673e+01  -1.305765e+01
   3.038929e+01   5.016513e+01
  -3.775670e+00   6.637205e+01
  -3.182227e+01  -6.120265e+00
  -3.056230e+01  -4.425984e+00
  -3.219303e+00  -3.436991e+01
   3.740675e+00   4.621466e+01
   1.828671e+01  -6.757760e+00
  -2.032656e+01  -1.752386e+01
   8.593023e+00  -4.981919e+01
   3.164757e+01  -3.070270e+01
   3.045035e+01   3.216454e+01
   2.140330e+01   4.807057e+01
  -3.578352e+01   2.655567e+01
  -3.492252e+01  -1.540123e+01
  -1.332905e-01  -5.181393e+01
   5.486006e+01  -5.468297e+01
   9.015895e+01   2.346767e+01
   4.915001e+01   5.332930e+01
  -2.091812e+01   6.459319e+01
  -7.504423e+01   2.621963e+01
  -2.858715e+01   1.342138e+01
   2.655862e+01  -2.181204e+01
   4.245622e+01  -6.697999e+00
  -1.663005e+01   3.319603e+01
  -1.047309e+02   4.404462e+01
