
 $NMID
 id='ANONYMOUS ', fmtdat='(2E16.6)'
 volume=1.0
 tramp=1.0
 $END
   2.819280e+03   2.735835e+02
   1.732611e+03   1.399115e+03
   2.396420e+01   1.777239e+03
  -1.068981e+03   1.072252e+03
  -7.559308e+02   2.043906e+02
  -4.821893e+01  -5.902896e+01
   1.273505e+02   1.148506e+02
  -8.053035e+01   4.328981e+02
  -4.330898e+02   4.061540e+02
  -4.694667e+02   7.332188e+01
  -3.035254e+02  -3.920941e+02
   3.854266e+01  -4.862731e+02
   2.074447e+02  -1.778645e+02
   1.919095e+02   3.771431e+02
  -7.473031e+01   4.528476e+02
  -3.580625e+02   6.795244e+01
  -1.977026e+02  -4.182110e+02
   1.114935e+02  -5.010464e+02
   4.091817e+02  -2.286887e+02
   3.450273e+02   1.247168e+02
   1.051453e+02   3.232994e+02
  -1.078057e+02   1.915207e+02
  -8.256309e+01   1.074157e+02
   1.115139e+02   1.003515e+02
   2.205678e+02   2.605934e+02
  -5.701261e+01   3.286948e+02
  -4.511481e+02   1.175017e+02
  -4.409312e+02  -2.837263e+02
  -1.443667e+02  -2.970026e+02
   2.903013e+02  -1.719360e+02
   4.385538e+02   1.353758e+02
   1.065428e+02   3.066877e+02
  -2.762949e+02   2.648074e+02
  -3.629102e+02   4.959388e+01
  -2.456256e+02  -1.621869e+02
  -7.630159e+01  -2.604556e+02
   2.290108e+01  -1.572194e+02
  -2.543754e+01   8.300049e+01
  -1.647499e+02   1.376073e+02
  -1.354583e+02  -1.558581e+02
  -2.249447e+01  -4.559163e+02
   2.706395e+02  -2.948362e+02
   2.289862e+02   8.032940e+01
   5.247441e+01   2.733676e+02
  -2.057238e+02   7.691716e+01
  -1.314968e+02  -2.753888e+02
   1.593712e+02  -3.942721e+02
   3.881634e+02   6.889456e+00
   3.559114e+02   3.752427e+02
   1.056697e+02   3.991968e+02
  -2.738483e+02   1.908937e+02
  -4.415037e+02  -9.134561e+01
  -2.843157e+02  -1.710308e+02
   3.847266e+01  -1.827244e+02
   2.534033e+02  -1.154001e+02
   1.884990e+02  -2.075744e+01
  -4.103998e+00  -1.483352e+01
  -1.264170e+01  -7.649098e+01
   1.425534e+02  -2.460402e+01
   2.573096e+02   4.869198e+01
   1.022499e+02   2.163946e+02
  -1.647467e+02   2.580772e+02
  -3.163298e+02   1.087324e+02
  -1.945642e+02  -8.722681e+01
  -9.115040e+00  -2.805077e+02
   2.567077e+02  -2.938589e+02
   2.484959e+02  -1.444087e+02
   2.417104e+02   1.127336e+02
   3.264046e+01   3.030260e+02
  -2.221882e+01   2.864329e+02
  -4.181109e+01   1.786112e+02
  -4.133889e+01   9.618717e+01
  -1.305406e+02   1.176927e+02
  -2.258879e+02   6.786278e+01
  -2.523243e+02  -9.050779e+01
  -9.263249e+01  -2.797932e+02
   1.132976e+02  -1.742423e+02
   1.794220e+02   4.657018e+01
   1.085432e+02   2.388132e+02
  -4.077736e+01   1.905119e+02
  -1.765482e+02   4.067215e+01
  -2.369721e+02  -1.194393e+02
  -1.669823e+02  -2.243801e+02
   2.959206e+01  -2.648050e+02
   1.396540e+02  -8.335163e+01
   1.182307e+02  -7.473694e+01
   1.704790e+02  -4.331240e+01
   2.501925e+02  -2.992255e+01
   3.732035e+02   1.064091e+02
   3.165352e+02   2.940633e+02
  -8.632573e+00   3.890232e+02
  -3.341304e+02   2.830598e+02
  -4.053893e+02   1.252612e+02
  -2.527795e+02  -1.213834e+02
  -3.488964e+01  -2.067582e+02
   5.551912e+01  -1.756632e+02
   4.453098e+00  -2.029323e+01
  -9.001824e+01   6.936457e+00
  -1.040853e+02  -2.915756e+01
   1.428887e+01  -1.454914e+02
   8.686300e+01  -5.503257e+01
   9.896648e+01   8.202004e+01
  -2.664649e+01   1.023515e+02
  -1.345625e+02  -1.725010e+01
  -1.002636e+02  -2.428772e+02
   5.699512e+01  -2.632690e+02
   2.204586e+02  -1.828519e+02
   2.730976e+02   3.837087e+01
   2.360003e+02   2.148149e+02
   3.991743e+01   2.943682e+02
  -1.133907e+02   1.485215e+02
  -1.645386e+02   2.182936e+01
  -7.116390e+01  -6.755579e+00
   5.931283e+01   5.988407e+01
  -5.528461e+00   1.030758e+02
  -1.038902e+02   4.308725e+01
  -1.189364e+02  -2.608260e+01
  -2.261330e+01  -5.539575e+01
   4.520895e+01   2.003677e+01
   1.694088e+01   7.651778e+01
  -1.851868e+02   7.051502e+01
  -2.585641e+02  -2.907523e+01
  -2.488650e+02  -1.645786e+02
  -8.140116e+00  -2.391893e+02
   2.326726e+02  -2.038296e+02
   2.277008e+02  -1.055749e+02
   1.205439e+02   2.631072e+01
  -2.245154e+01   9.183303e+01
  -5.954991e+01  -1.781226e+01
   7.473285e+01  -6.332184e+01
   1.352074e+02  -8.033713e+00
   1.409087e+02   9.301485e+01
   3.672522e+01   1.595460e+02
  -6.492151e+01   1.004998e+02
  -1.316244e+02   3.358163e+01
  -3.802533e+01  -1.327739e+01
   1.755976e+01   4.952497e+01
   2.897192e+01   9.113512e+01
  -1.080021e+02   1.081810e+02
  -1.988747e+02   1.978822e+01
  -1.675569e+02  -9.290310e+01
  -2.594321e+01  -1.930305e+02
   1.019839e+02  -1.373648e+02
   1.483870e+02  -2.611304e+00
   6.500075e+01   6.085569e+01
  -4.246101e+01   6.119450e+01
  -4.803514e+01   2.668376e+01
   1.618303e+01  -4.766181e+00
   4.343206e+01  -2.695426e+00
  -1.398245e+01   3.355816e+01
  -8.472819e+01   1.252886e+01
  -7.939008e+01  -5.845203e+01
  -2.491944e-01  -1.589461e+02
   1.206297e+02  -1.351019e+02
   1.942152e+02  -2.635354e+01
   1.631179e+02   1.402986e+02
   5.484845e+01   1.736893e+02
  -9.022296e+01   1.631979e+02
  -1.234039e+02   6.051845e+01
  -9.160426e+01  -1.372630e+01
  -4.836096e+01  -3.021263e+01
  -5.417059e+01   1.820700e+01
  -1.143119e+02  -2.515059e+01
  -2.542588e+01  -5.297710e+01
   7.089862e+01  -9.503637e+01
   9.610919e+01  -9.147833e+01
   9.219151e+01   3.472579e+01
  -2.623359e+01   1.188361e+02
  -1.439263e+02   5.212055e+01
  -1.685957e+02  -9.404750e+01
  -6.044666e+01  -2.007378e+02
   1.192895e+02  -1.802680e+02
   2.229823e+02  -6.941833e+01
   2.224814e+02   1.017984e+02
   8.865733e+01   1.613940e+02
  -2.529695e+01   1.325384e+02
  -1.283916e+02   8.485763e+01
  -8.399087e+01   6.003407e+01
  -6.512808e+01   7.770373e+01
  -9.206695e+01   4.674692e+01
  -1.292836e+02  -4.099187e+01
  -1.165965e+02  -1.521944e+02
  -1.523429e+01  -2.032181e+02
   8.355180e+01  -1.300714e+02
   1.241034e+02  -1.466944e+01
   1.314728e+02   6.841254e+01
   2.412306e+01   1.222079e+02
  -3.414667e+01   1.117317e+02
  -5.585896e+01  -7.743035e+00
  -2.502753e+01  -4.252536e+01
  -1.310339e+01  -2.725243e+01
  -2.590929e+01  -5.030494e+01
  -3.404666e+01   1.673670e+01
  -2.947978e+01  -1.246085e+01
   7.613009e+01  -3.426469e+01
   1.765825e+02   1.942750e+00
   1.318718e+02   6.532846e+01
   2.664262e+01   9.337306e+01
  -1.097655e+02   5.780147e+01
  -1.355034e+02   5.296824e-01
  -5.057534e+01  -6.679406e+01
   4.612552e+01  -8.741544e+00
   9.565702e+01   1.038944e+01
   3.428195e+01   7.184556e+01
  -2.298145e+01   4.911513e+01
  -4.633895e+01   1.317415e+01
  -4.672815e+01  -4.367537e+01
  -3.188259e+01  -6.245320e+01
  -2.962251e+01   1.429347e+01
  -5.611223e+01   2.474300e+00
  -4.904417e+01  -4.159082e+01
   4.465457e+01  -1.400689e+02
   1.146946e+02  -1.188936e+02
   1.700467e+02  -4.825649e+01
   1.521913e+02   7.265061e+01
   4.230050e-01   1.005096e+02
  -7.822142e+01   6.085060e+01
  -6.575476e+01  -2.004015e+01
   7.719703e+01  -8.285018e+00
   1.102337e+02   2.789267e+01
   4.929895e+01   7.676159e+01
  -6.435058e+01   9.527664e+01
  -1.485293e+02   7.503080e+00
  -1.698559e+02  -3.060325e+01
  -9.992540e+00  -5.933656e+01
   6.419096e+01  -4.504937e+01
   4.694930e+01   7.849633e-01
  -5.185594e+01   1.686642e+01
  -6.929323e+01  -2.419708e+01
  -4.139443e+01  -9.689960e+01
   5.608934e+01  -1.292304e+02
   1.266314e+02  -3.423828e+01
   1.275530e+02   7.860386e+01
   1.111266e+01   1.768251e+02
  -1.022249e+02   9.654739e+01
  -4.821207e+01  -8.693314e+00
  -1.461611e+01  -9.967509e+01
  -4.409992e+00  -7.348243e+01
   3.314060e+01  -2.060810e+01
   4.021434e+01   2.487033e+01
   4.475521e+00   3.362334e+00
   4.232207e+01  -4.084130e+00
   2.569693e+01   5.841670e+01
   3.217828e+01   6.805788e+01
   1.420789e+01   9.128957e+01
  -4.937886e+01   3.420010e+01
  -1.372609e+02  -2.183643e+01
  -6.607759e+01  -4.631931e+01
   2.744376e+00  -1.844107e+01
   6.618246e+01  -8.314775e+00
   4.396689e+01  -3.247677e+00
   7.703669e+00  -8.060267e+00
  -2.284715e+01   9.865784e+00
  -1.267458e+01   2.555294e+01
   1.491192e+01   5.057114e+00
  -1.584008e+01  -6.346224e+00
  -7.980419e+01  -8.750902e+00
  -5.992565e+01  -2.823360e+01
   3.746264e+00  -5.785878e+01
   8.490090e+01  -1.049604e+02
   1.678211e+02  -5.039902e+01
   1.434632e+02   6.072528e+01
   2.310947e+01   1.477243e+02
  -5.261016e+01   1.480638e+02
  -1.288136e+02   4.617594e+01
  -1.024873e+02  -2.225792e+01
  -4.004343e+01   2.962791e+00
  -2.962305e+01  -1.533048e+01
  -2.041698e+01  -2.031469e+01
  -4.337955e+01  -7.288215e+01
  -1.405215e+01  -1.069321e+02
   2.591452e+01  -6.405716e+01
   8.431442e+01   3.384895e+01
   1.005331e+02   6.208885e+01
   1.087909e+01   9.663815e+01
  -6.316785e+01   2.458064e+01
  -9.384059e+01  -5.030386e+01
  -4.911332e+01  -9.179388e+01
   4.726574e+01  -5.147802e+01
   8.466354e+01  -5.359638e+00
   3.399455e+01   3.800475e+01
  -3.325686e+01   3.072221e+01
  -2.694830e+01   2.207835e+01
  -4.003555e-01  -2.776833e+00
   5.740305e+01  -1.848160e+01
   2.231869e+01   3.406778e+01
  -7.916282e+01   3.436789e+01
  -1.012120e+02   1.906294e+01
  -7.723307e+01  -3.091337e+01
   2.592486e+01  -8.547562e+01
   6.596182e+01  -1.014195e+02
   3.646669e+01  -7.776129e+00
  -7.378014e+00   2.053678e+01
  -2.434477e+01   2.744331e+01
   8.870992e+00  -6.325314e+00
  -7.256952e+00  -3.826436e+01
  -1.234797e+01  -1.080814e+01
   7.257507e+00  -2.647052e+00
   5.169840e+01  -2.835424e+00
   3.445814e+01  -9.401694e+00
  -1.308015e+01  -2.094284e+01
  -8.671526e+00   1.667384e+01
   1.029182e+01   4.239901e+01
   1.647825e+01   5.276671e+01
  -1.070873e+01   1.763491e+01
  -2.651101e+01  -2.246819e+01
  -2.905639e+01  -7.284823e+01
   2.309085e+01   1.212702e+01
   6.319216e+01   2.306968e+01
   1.941411e+01   5.932705e+01
  -4.946697e+01   5.812233e+01
  -1.157721e+02  -2.254402e+00
  -6.640748e+01  -6.087948e+01
   2.946789e+01  -2.126775e+01
   6.149005e+01  -6.066416e+01
   1.478363e+01  -9.214363e+00
  -2.214252e+01   6.797992e+00
  -5.261425e+01   7.780463e+00
   1.529647e+01  -2.558320e+01
   9.218498e+01  -2.466991e+01
