
 $NMID
 id='ANONYMOUS ', fmtdat='(2E16.6)'
 volume=1.0
 tramp=1.0
 $END
   5.111339e+03   3.612749e+02
   2.765772e+03   3.188814e+03
  -1.003996e+03   3.043660e+03
  -2.509647e+03   8.832101e+02
  -9.387847e+02  -9.658898e+02
   8.483988e+02  -6.741738e+02
   1.002877e+03   5.934685e+02
   4.237921e+01   1.215337e+03
  -8.681587e+02   8.704550e+02
  -1.118217e+03  -1.372667e+02
  -5.128722e+02  -9.994585e+02
   3.209781e+02  -9.906507e+02
   7.691249e+02  -7.779751e+01
   3.832108e+02   8.950323e+02
  -3.689780e+02   7.853753e+02
  -7.381938e+02  -8.306180e+01
  -2.771797e+02  -7.886205e+02
   4.505481e+02  -7.135821e+02
   6.438096e+02  -1.623659e+01
   3.376374e+02   4.535966e+02
  -7.584244e+01   4.920458e+02
  -3.614401e+02   2.515913e+02
  -2.935063e+02  -6.912776e+01
   1.364995e+02  -2.340995e+02
   5.498735e+02   7.506564e+01
   2.359269e+02   5.265846e+02
  -5.507175e+02   4.823813e+02
  -9.011881e+02  -1.591961e+02
  -5.049049e+02  -7.108586e+02
   4.505610e+02  -5.695070e+02
   8.862700e+02   6.489566e+01
   3.835062e+02   5.853274e+02
  -3.335992e+02   6.167996e+02
  -6.807166e+02   2.360187e+02
  -4.726578e+02  -2.669360e+02
   1.097688e+01  -5.841580e+02
   3.317424e+02  -2.901536e+02
   2.334846e+02   3.213111e+02
  -1.788185e+02   5.392500e+02
  -5.176491e+02  -2.539850e+01
  -3.699784e+02  -7.386457e+02
   3.825232e+02  -6.956361e+02
   6.733882e+02   3.985050e+01
   2.733058e+02   6.702831e+02
  -3.704756e+02   4.001368e+02
  -4.513448e+02  -4.024736e+02
   1.030466e+02  -5.984092e+02
   6.415444e+02  -1.968391e+02
   6.477062e+02   4.645099e+02
   1.487636e+02   6.373859e+02
  -4.401012e+02   4.354867e+02
  -7.171357e+02  -1.176766e+02
  -3.832145e+02  -4.395362e+02
   2.149960e+02  -4.476628e+02
   5.002416e+02  -6.788673e+01
   3.009716e+02   2.642874e+02
  -1.703718e+02   1.230241e+02
  -1.766228e+02  -1.669592e+02
   2.341245e+02  -2.166977e+02
   3.866810e+02   9.771848e+01
   1.404015e+02   3.917168e+02
  -2.210600e+02   2.591671e+02
  -3.387486e+02   6.416001e+01
  -2.334495e+02  -6.397788e+01
  -1.649017e+01  -2.349938e+02
   2.292941e+02  -3.697102e+02
   3.533226e+02  -2.354639e+02
   2.983030e+02   1.551594e+02
   6.850007e+00   4.648750e+02
  -1.455155e+02   3.790145e+02
  -1.575712e+02   4.284583e+01
  -4.198576e+00  -4.200501e+01
  -2.146046e+01   9.141440e+01
  -2.044461e+02   1.757247e+02
  -3.244298e+02  -6.191080e+01
  -1.824121e+02  -3.149797e+02
   9.954170e+01  -2.940575e+02
   3.030671e+02  -1.168546e+01
   2.534400e+02   2.475475e+02
  -1.735824e+01   3.307249e+02
  -3.217658e+02   1.507692e+02
  -4.268139e+02  -2.158450e+02
  -1.409535e+02  -4.144343e+02
   1.598493e+02  -3.317741e+02
   2.401045e+02  -7.602008e+01
   1.121578e+02   4.305937e+01
   3.836329e+01  -1.973017e+01
   2.250048e+02  -9.139243e+01
   4.001765e+02   5.318858e+01
   3.481201e+02   3.118930e+02
   1.350122e+01   4.811717e+02
  -4.231687e+02   4.070431e+02
  -5.304266e+02   1.561802e+02
  -3.536219e+02  -1.727565e+02
  -3.564058e+01  -3.514713e+02
   1.825229e+02  -2.884722e+02
   1.288539e+02  -2.093106e+01
  -1.085059e+02   1.749979e+02
  -2.199749e+02   7.549232e+00
  -8.364430e+01  -2.339222e+02
   2.080272e+02  -1.790889e+02
   2.196963e+02   6.422090e+01
  -2.627408e+01   2.083020e+02
  -2.375949e+02   5.081559e+01
  -1.546304e+02  -2.529393e+02
   3.796440e+01  -3.528111e+02
   2.451907e+02  -1.734783e+02
   3.471553e+02   6.011936e+01
   2.679010e+02   2.947936e+02
   5.539228e+01   2.898175e+02
  -1.611445e+02   1.608026e+02
  -1.874670e+02  -1.172216e+01
  -3.918767e+01  -2.913339e+01
   8.788026e+01   1.289201e+01
   2.247275e+01   1.486905e+02
  -1.271544e+02   1.221422e+02
  -1.980138e+02  -5.097610e+01
  -7.110001e+01  -5.776066e+01
   9.147360e+01  -3.124633e+01
   7.105756e+01   8.201022e+01
  -1.222451e+02   6.939354e+01
  -3.190487e+02  -1.116570e+01
  -2.524269e+02  -1.418508e+02
  -5.527667e+01  -2.880344e+02
   2.008914e+02  -2.822744e+02
   3.060251e+02  -9.193757e+01
   1.813524e+02   1.029736e+02
  -3.319149e+01   1.308292e+02
  -1.132712e+02   1.323961e+01
   5.775859e+01  -1.149907e+02
   1.918100e+02  -8.103174e+01
   2.134301e+02   1.086272e+02
   5.972067e+01   2.293201e+02
  -1.399531e+02   1.664745e+02
  -1.597453e+02   2.913117e+01
  -7.611966e+01  -6.012335e+01
   6.355598e+01  -2.921362e+00
   6.166386e+01   7.149712e+01
  -7.865428e+01   1.150510e+02
  -2.156978e+02  -6.318728e+00
  -1.829037e+02  -1.050332e+02
  -7.464511e+00  -2.341308e+02
   1.856426e+02  -1.604782e+02
   1.980378e+02  -1.116135e+01
   5.643932e+01   1.149460e+02
  -7.247877e+01   8.867261e+01
  -1.034146e+02   3.194966e+01
  -3.188934e+01  -3.375902e+01
   2.685818e+01  -2.021571e+01
  -1.933724e+00   1.609470e+01
  -6.891975e+01   2.968471e+01
  -1.227870e+02  -7.371993e+01
  -3.956927e+01  -1.135682e+02
   1.020558e+02  -1.721605e+02
   2.273001e+02  -3.406999e+01
   2.033040e+02   1.590175e+02
   4.117982e+01   2.471167e+02
  -1.433587e+02   1.748370e+02
  -1.559594e+02  -1.188542e+01
  -5.910290e+01  -7.326493e+01
  -1.548290e+01  -3.323730e+01
  -5.167591e+01   8.495206e+00
  -7.552314e+01  -4.530393e+00
  -3.617077e+01  -4.346489e+01
   2.807568e+01  -7.483944e+01
   8.959062e+01  -6.870460e+01
   9.627685e+01   2.795867e+01
  -9.701397e+00   1.037792e+02
  -1.269917e+02   7.647389e+01
  -2.069192e+02  -8.531780e+01
  -9.660595e+01  -2.164124e+02
   1.126275e+02  -2.284838e+02
   2.960692e+02  -1.119773e+02
   2.432818e+02   1.303746e+02
   1.049613e+02   1.953095e+02
  -5.222341e+01   1.726351e+02
  -8.198630e+01   8.244085e+01
  -7.538675e+01   6.646984e+01
  -8.725750e+01   7.738206e+01
  -6.238347e+01   7.265002e+01
  -1.284779e+02  -3.989256e-01
  -1.392788e+02  -1.587422e+02
  -4.844997e+01  -2.422374e+02
   8.420940e+01  -1.806217e+02
   2.256897e+02  -3.413339e+01
   1.408681e+02   1.288244e+02
   7.465088e+00   1.646056e+02
  -6.459632e+01   1.187698e+02
  -6.905515e+01   3.423374e+01
   3.438029e+01  -3.903995e+01
   1.911873e+01  -3.864166e+01
  -5.703982e+01  -9.936177e+00
  -7.510633e+01  -4.484734e+01
  -2.564252e+01  -5.310108e+01
   4.632489e+01  -3.828957e+01
   1.478122e+02   6.308533e+00
   1.302537e+02   7.471573e+01
   2.840181e+01   9.711081e+01
  -9.319394e+01   6.238818e+01
  -1.443236e+02   3.849798e+01
  -3.828582e+01  -6.172985e+01
   8.677730e+01  -3.366692e+01
   5.435319e+01   6.558055e+01
  -8.121119e+00   7.054968e+01
  -5.202502e+01   6.409018e+01
  -9.143268e+01  -6.024722e+01
  -5.975445e+01  -5.809310e+01
  -3.204966e+01  -2.015454e+01
  -7.222480e+01  -3.942892e+01
  -6.615657e+01   1.206791e+00
  -1.259277e+01  -7.084837e+01
   1.566236e+00  -1.294501e+02
   1.112514e+02  -1.678417e+02
   1.703175e+02  -2.712458e+01
   1.322270e+02   1.134114e+02
  -4.007237e+01   1.195442e+02
  -1.135521e+02   5.308178e+01
  -6.374896e+01  -5.478139e+01
   6.193915e+01  -4.061473e+01
   1.367041e+02   3.124538e+01
   8.603475e+01   1.337457e+02
  -7.828266e+01   1.470622e+02
  -1.904990e+02   4.740464e+01
  -2.055183e+02  -2.779651e+01
  -9.890368e+00  -1.271600e+02
   7.880539e+01  -7.148487e+01
   5.218181e+01  -6.455463e+00
  -2.172330e+01   4.232872e+01
  -1.006865e+02  -3.966589e+01
  -2.243499e+01  -1.394360e+02
   8.288644e+01  -1.683983e+02
   1.990188e+02  -7.339092e+01
   1.189842e+02   1.061354e+02
  -9.201549e+00   1.682664e+02
  -1.105666e+02   1.626449e+02
  -1.389084e+02  -3.589629e+01
  -5.205040e+01  -1.306513e+02
  -6.037805e+00  -1.417992e+02
   1.011690e+02  -5.876121e+00
   7.766467e+01   3.902251e+01
   2.722518e+01   2.542174e+01
  -9.879588e+00  -1.739902e+01
   1.624365e+00   6.755607e+00
   7.219311e+01   4.453291e+01
   4.893534e+01   1.037073e+02
  -5.400111e+01   6.923482e+01
  -1.540292e+02  -4.378346e+01
  -1.652739e+02  -1.184313e+02
  -2.955290e+01  -6.922618e+01
   1.381867e+02  -1.082147e+01
   9.654883e+01   2.414687e+01
   6.987314e+00   1.733790e+01
  -4.337651e+01   2.718149e+01
  -1.108566e+01   1.523672e+01
   6.855737e+00  -4.674280e+00
  -1.316440e+01  -8.652731e+00
  -6.395505e+01  -5.374335e+00
  -9.844239e+01   1.703901e+01
  -1.605190e+01  -1.132453e+02
   1.263587e+02  -1.156915e+02
   1.943827e+02  -4.933008e+01
   1.375132e+02   4.833749e+01
   2.931598e+01   1.610033e+02
  -4.651758e+01   1.335132e+02
  -1.121473e+02   6.846761e+01
  -9.541129e+01  -4.274769e+01
  -4.771224e+01  -4.066623e+01
  -2.469373e+00  -1.553025e+00
  -5.902456e+00  -1.466280e+01
  -4.395376e+01  -4.218636e+01
  -2.414946e+01  -7.393233e+01
   6.198387e+01  -7.914460e+01
   1.123197e+02   3.217554e+01
   8.232514e+01   1.551990e+02
  -7.752305e+00   1.079111e+02
  -1.069780e+02   1.099975e+01
  -9.931507e+01  -1.087525e+02
  -2.360836e+01  -1.201603e+02
   8.504082e+01  -7.933094e+01
   1.249425e+02  -2.011159e+01
   4.379042e+01   6.637684e+01
  -7.297909e+01   5.055451e+01
  -2.943955e+01   3.716600e+01
   3.039487e+01  -1.474871e+01
   7.567716e+01  -2.107340e+00
  -8.777552e+00   4.869404e+01
  -4.820639e+01   6.573894e+01
  -1.194421e+02   3.589456e+01
  -6.017798e+01  -3.537296e+01
   5.227379e+00  -7.912792e+01
   5.949408e+01  -7.713533e+01
   1.982424e+01   3.852802e+01
  -1.538539e+01   6.827003e+01
  -7.081044e+01   3.647328e+01
  -7.506620e+01  -5.180108e+01
  -1.728951e+01  -7.225869e+01
  -2.381729e+00  -2.616774e+01
   2.530095e+01   3.545130e+00
   2.532707e+01   3.438349e+01
   4.633350e+00   2.952137e+01
  -5.643260e+00  -2.475126e+01
  -4.285677e+00  -9.634773e+00
  -1.026923e+01   3.277668e+01
  -2.547209e+01   5.054249e+01
  -2.742202e+01   2.485842e+01
  -3.891602e+01  -6.083232e+01
   3.112151e+00  -8.571817e+01
   4.416502e+01  -5.948983e+01
   6.083403e+01   5.450694e+01
   5.813405e+00   9.316199e+01
  -6.443112e+01   2.622983e+01
  -1.368009e+02  -1.324167e+01
  -5.428052e+01  -5.705112e+01
   2.405036e+01  -5.394963e+01
   5.319733e+01  -1.327078e+01
   3.204348e+01  -2.457532e+01
  -2.175260e+01  -1.149270e+00
  -5.308944e+01  -1.172935e+01
   4.625275e+01  -2.429803e+01
   1.191220e+02  -1.596160e+01
