
 $NMID
 id='ANONYMOUS ', fmtdat='(2E16.6)'
 volume=1.0
 tramp=1.0
 $END
  -3.425917e+03  -3.555816e+00
  -2.011540e+03  -1.368870e+03
   9.012470e+01  -2.041668e+03
   1.295050e+03  -1.195711e+03
   7.970011e+02  -9.961252e+01
   3.430820e+01   1.661589e+02
  -2.784083e+02  -8.689397e+01
   5.385700e+00  -5.952581e+02
   4.536620e+02  -5.105990e+02
   5.782608e+02  -1.829062e+02
   3.668838e+02   3.949965e+02
   1.569739e+01   6.271668e+02
  -3.533363e+02   1.397266e+02
  -1.938046e+02  -4.410031e+02
   1.219441e+02  -5.277308e+02
   3.765953e+02  -8.854558e+01
   2.347988e+02   4.362972e+02
  -1.417884e+02   5.447293e+02
  -4.663091e+02   1.868502e+02
  -3.635060e+02  -1.944945e+02
  -1.298303e+02  -3.034070e+02
   1.495689e+02  -2.402539e+02
   1.007154e+02  -9.323858e+01
  -1.350873e+02  -4.574533e+01
  -2.369321e+02  -1.987982e+02
  -2.581747e+01  -3.476003e+02
   4.500972e+02  -1.487998e+02
   5.650369e+02   2.497027e+02
   1.655904e+02   3.833047e+02
  -3.717356e+02   1.870302e+02
  -5.052951e+02  -1.832831e+02
  -1.367872e+02  -3.933192e+02
   2.771267e+02  -3.393712e+02
   4.434486e+02  -9.114763e+01
   2.803456e+02   1.964606e+02
   5.385154e+01   3.093071e+02
  -6.903469e+01   1.650489e+02
   3.050484e+00  -1.085461e+02
   1.996730e+02  -1.700700e+02
   2.005025e+02   1.229743e+02
  -4.738568e+00   4.874449e+02
  -2.858561e+02   3.215444e+02
  -2.944090e+02  -8.745192e+01
  -6.243326e+00  -3.483570e+02
   1.795862e+02  -8.279335e+01
   2.153822e+02   3.036560e+02
  -1.256854e+02   3.585440e+02
  -4.003063e+02   5.601683e+01
  -3.869988e+02  -3.977574e+02
  -1.228832e+02  -4.500645e+02
   2.795941e+02  -2.324505e+02
   5.269917e+02   5.758424e+01
   3.082044e+02   2.322797e+02
  -3.313731e+01   2.205148e+02
  -3.281166e+02   1.055971e+02
  -2.310982e+02  -2.194477e+01
  -7.391854e-01  -1.800911e+01
   3.793650e+01   6.951378e+01
  -1.153448e+02   3.889075e+01
  -2.541884e+02  -5.531136e+01
  -9.421477e+01  -1.907926e+02
   1.599623e+02  -2.413248e+02
   3.059411e+02  -7.125485e+01
   2.357966e+02   1.028025e+02
   9.737138e+00   2.757684e+02
  -2.231833e+02   3.145636e+02
  -2.705054e+02   1.705298e+02
  -2.611377e+02  -1.834204e+02
  -5.360813e+01  -3.466255e+02
   4.259582e+01  -3.055453e+02
   4.662545e+01  -1.618863e+02
   3.128002e+01  -1.014611e+02
   1.285611e+02  -1.181636e+02
   2.466773e+02  -2.124391e+01
   2.364540e+02   1.045864e+02
   9.309997e+01   2.584911e+02
  -1.271695e+02   1.843443e+02
  -1.837419e+02  -2.031242e+01
  -1.316448e+02  -2.233416e+02
   3.222025e+01  -2.502708e+02
   2.374849e+02  -5.569701e+01
   2.721373e+02   1.596113e+02
   1.626931e+02   2.508326e+02
  -8.402431e+01   2.536737e+02
  -1.499200e+02   1.332748e+02
  -1.042341e+02   5.301056e+01
  -1.270406e+02   2.765637e+01
  -2.501588e+02   3.912177e+01
  -3.780579e+02  -1.132180e+02
  -2.705553e+02  -2.750691e+02
   2.023778e+01  -3.937214e+02
   3.642670e+02  -3.173773e+02
   4.328954e+02  -1.550480e+02
   2.414825e+02   1.349486e+02
  -1.604639e-01   2.436175e+02
  -7.488435e+01   1.855009e+02
  -3.585563e+01   1.675807e+01
   9.974683e+01  -5.299797e+01
   1.190588e+02   1.832414e+01
   1.812743e+01   1.191167e+02
  -1.231638e+02   1.055122e+02
  -8.106168e+01  -4.988951e+01
   5.419272e+01  -1.450504e+02
   1.573387e+02   4.559619e+01
   1.049367e+02   2.619085e+02
  -6.343241e+01   2.936301e+02
  -2.477620e+02   2.137606e+02
  -3.132388e+02  -3.760016e+01
  -2.663339e+02  -2.272994e+02
  -2.950771e+01  -2.682862e+02
   1.100780e+02  -1.729383e+02
   1.444922e+02   8.673759e+00
   3.582505e+01   1.523728e+01
  -4.377990e+01  -5.816806e+01
  -1.740247e+01  -9.851217e+01
   1.057937e+02  -7.702669e+01
   1.477180e+02   9.602486e+00
   4.725350e+01   5.450714e+01
  -8.728088e+01  -9.257177e+00
  -3.610085e+01  -7.574510e+01
   1.433377e+02  -8.409195e+01
   2.794622e+02   3.510167e+01
   2.576204e+02   1.443309e+02
   8.215611e+00   2.426032e+02
  -2.060717e+02   2.316422e+02
  -2.745604e+02   9.966929e+01
  -1.503742e+02  -1.297124e+01
   1.550808e+01  -6.791509e+01
   4.790687e+01  -8.862846e+00
  -4.682473e+01   3.340604e+01
  -1.305195e+02   6.916864e+01
  -1.521870e+02  -7.222955e+01
  -4.836052e+01  -1.742802e+02
   8.851115e+01  -8.165943e+01
   1.283714e+02  -3.599427e+01
   5.924675e+01   2.100726e+01
  -2.287288e+01  -2.539465e+01
  -1.128190e+01  -9.397805e+01
   8.116152e+01  -9.665897e+01
   1.910356e+02  -1.638984e+01
   1.993996e+02   1.244899e+02
   2.633089e+01   1.773728e+02
  -1.207392e+02   1.181421e+02
  -1.626931e+02  -1.346527e+01
  -7.125660e+01  -7.694211e+01
   3.063897e+01  -4.935303e+01
   7.795870e+01  -4.749542e+01
   9.000619e+00   2.392027e+01
  -5.471816e+01   3.574941e+00
  -1.713907e+01  -1.040504e+01
   7.022811e+01  -2.785733e+01
   9.809206e+01   7.664656e+01
  -3.334068e+00   1.410736e+02
  -1.305408e+02   1.381890e+02
  -2.072075e+02   3.159246e+00
  -1.624590e+02  -1.389538e+02
  -4.656621e+01  -1.907138e+02
   9.075899e+01  -1.547425e+02
   1.479333e+02  -2.870740e+01
   8.572353e+01   1.763569e+01
   4.162414e+01   2.814272e+01
   5.437408e+01   1.216610e+01
   7.042280e+01   2.539508e+01
   2.890641e+01   7.176584e+01
  -7.158721e+01   8.383371e+01
  -1.041194e+02   7.653496e+01
  -1.126889e+02  -4.705415e+01
  -1.933858e+01  -1.171005e+02
   1.288030e+02  -1.034672e+02
   1.737880e+02   4.600777e+01
   6.200844e+01   1.998755e+02
  -1.217512e+02   2.025377e+02
  -2.252243e+02   5.032223e+01
  -2.108971e+02  -6.880449e+01
  -7.913313e+01  -1.370932e+02
   2.641197e+01  -1.048157e+02
   9.831713e+01  -9.471691e+01
   8.715902e+01  -1.011521e+02
   6.990447e+01  -9.528306e+01
   6.949298e+01  -6.919261e+01
   1.589771e+02   9.610698e+00
   1.203782e+02   1.413790e+02
   3.412318e+01   2.169392e+02
  -8.131583e+01   1.431049e+02
  -1.598444e+02   4.446507e+01
  -1.175751e+02  -1.299419e+02
  -8.797397e+00  -1.326488e+02
   4.182229e+01  -9.634624e+01
   4.547688e+01   4.312973e+00
   1.786158e+01   2.897941e+01
  -2.053269e+01   2.063444e+01
   4.863167e+01   1.377241e+01
   6.395330e+01   3.045625e+01
   3.948652e+01   4.009596e+01
  -8.353952e+01   4.551957e+01
  -1.658297e+02  -1.634751e+01
  -1.253717e+02  -7.624820e+01
  -9.007539e+00  -7.601345e+01
   1.381381e+02  -5.425706e+01
   1.542071e+02  -2.808022e+01
   3.329116e+01   7.358331e+01
  -9.330516e+01   2.537851e+01
  -5.303091e+01  -4.190226e+01
  -1.331236e+01  -4.858268e+01
   2.415502e+01  -6.123109e+01
   5.432451e+01   1.073335e+01
   3.400967e+01   6.231028e+01
   3.300879e+01   1.546120e+01
   1.447407e+01  -2.459716e+00
   7.696233e+01  -6.232516e+00
   2.609312e+01   4.777498e+01
  -4.402675e+01   1.823127e+02
  -1.145594e+02   1.068435e+02
  -1.702160e+02   1.666485e+00
  -1.196535e+02  -7.892894e+01
  -4.325762e+00  -1.218081e+02
   7.709243e+01  -3.876987e+01
   7.750083e+01   2.944623e+01
  -7.582877e+01   1.027120e+01
  -1.238139e+02  -4.115673e+01
  -4.987341e+01  -9.974398e+01
   1.005568e+02  -1.061513e+02
   1.777536e+02  -3.890714e+01
   1.691577e+02   4.100188e+01
   3.529063e+01   7.825547e+01
  -5.984239e+01   7.368300e+01
  -3.946200e+01   1.017386e+01
   4.642370e+01  -1.838456e+01
   6.977298e+01   2.223289e+01
   3.061568e+01   1.136802e+02
  -6.273717e+01   1.461396e+02
  -1.552212e+02   3.221357e+01
  -1.180074e+02  -9.188230e+01
  -9.652529e+00  -1.841280e+02
   9.943726e+01  -1.287514e+02
   8.706374e+01   2.164119e+01
   4.751072e+01   9.351556e+01
   2.257076e+01   6.537531e+01
  -4.600076e+01  -6.416325e+00
  -4.227246e+01  -3.860463e+01
  -2.607024e+01  -2.318226e+01
  -3.892662e+01   3.339117e+01
  -3.971787e+01  -1.718407e+01
  -2.870408e+01  -6.660616e+01
  -2.345410e+01  -9.653654e+01
   6.384323e+01  -2.468836e+01
   1.278225e+02   3.648759e+01
   9.891825e+01   5.636988e+01
  -5.098912e+00   3.428462e+01
  -4.570961e+01   8.109881e+00
  -7.853909e+01   1.439823e+00
  -1.606549e+01  -2.139187e+01
   4.056120e+01  -2.869067e+01
   2.330050e+01  -2.448887e+01
   1.915745e+00  -1.734642e+01
  -2.803169e+00   1.688778e+01
   5.304873e+01   1.942712e+01
   8.599816e+01   5.544567e+01
  -1.052030e+01   9.955408e+01
  -1.031724e+02   1.057056e+02
  -1.780066e+02   6.497148e+01
  -1.084783e+02  -4.269806e+01
  -4.981596e+01  -1.534259e+02
   6.133918e+01  -1.395376e+02
   9.313128e+01  -5.940046e+01
   1.210149e+02   2.637148e+01
   5.265303e+01   3.302682e+01
  -2.104413e+01   3.303876e+01
   2.403591e+01  -1.851533e+00
   3.198835e+01   1.752174e+01
   1.896244e+01   9.448466e+01
  -5.126725e+01   9.789081e+01
  -1.199583e+02  -6.165090e+00
  -9.187498e+01  -8.682814e+01
  -8.786166e+00  -1.307359e+02
   7.505950e+01  -1.665250e+01
   9.914124e+01   6.993659e+01
   2.945386e+01   9.180186e+01
  -7.126604e+01   7.107226e+01
  -8.896597e+01  -3.615792e+01
  -3.523024e+01  -7.452390e+01
   2.718244e+01  -6.774966e+01
   3.804841e+01  -2.885519e+01
  -1.584797e+01   5.782639e+00
  -8.581806e+01   1.724837e+01
  -7.964318e+00  -2.340295e+01
   7.967250e+01  -5.170820e+01
   1.010132e+02  -4.444731e+01
   7.757644e+01   2.241257e+01
  -3.239837e+00   8.371770e+01
  -5.001379e+01   8.672983e+01
  -4.110751e+01   2.886449e+00
  -1.578197e+01  -4.964590e+01
   3.697603e+01  -5.890796e+01
   4.603951e+01   2.617038e+01
   4.301503e+01   5.155553e+01
   1.633570e+01   2.584505e+01
  -1.057702e+01   1.647927e+01
  -6.066554e+01  -2.184697e+01
  -2.516389e+01  -2.420629e+01
  -9.966722e+00  -3.652710e+00
  -1.219641e-01   4.495481e+00
  -1.436191e+01  -3.835928e+01
  -8.907484e+00  -3.643708e+01
   4.793840e+01  -4.895160e+01
   2.244061e+01   4.641835e+00
   2.354512e+01   3.534001e+01
  -4.364659e+01   1.418870e+00
  -3.652994e+01  -3.099960e+01
  -1.378167e+01  -6.112489e+01
   3.966959e+01  -2.080011e+01
   1.032802e+02   6.527818e+00
   7.706227e+01   4.399013e+01
  -3.382514e+01   4.363584e+01
  -6.162154e+01   1.890164e+01
  -3.841167e+00   1.489804e+01
   2.681259e+01  -2.018291e+01
   4.219310e+01   3.360892e+01
  -3.266933e+01   1.500280e+01
  -9.841999e+01   3.592327e+01
