
 $NMID
 id='ANONYMOUS ', fmtdat='(2E16.6)'
 volume=1.0
 tramp=1.0
 $END
  -2.998167e+03   3.733043e+02
  -2.069286e+03  -1.434102e+03
   1.020145e+02  -2.295961e+03
   1.192304e+03  -1.258599e+03
   8.791030e+02  -8.154892e+01
  -1.537998e+01   3.202360e+02
  -3.142379e+02  -9.385964e+01
  -2.298041e+01  -5.470600e+02
   4.661363e+02  -4.831570e+02
   5.889864e+02  -6.467701e+01
   4.393080e+02   4.685650e+02
   6.286531e+01   6.196224e+02
  -3.266482e+02   2.165648e+02
  -2.658641e+02  -2.692271e+02
   9.248965e+01  -5.153006e+02
   4.271828e+02  -8.632627e+01
   2.869456e+02   4.234520e+02
  -1.666958e+02   5.303269e+02
  -4.341264e+02   2.337683e+02
  -4.463558e+02  -1.788226e+02
  -1.022682e+02  -3.883216e+02
   1.385611e+02  -2.132670e+02
   9.991562e+01  -3.558440e+01
  -1.139149e+02  -1.229812e+01
  -2.498509e+02  -1.911678e+02
  -2.959458e+01  -3.024097e+02
   3.245032e+02  -1.470798e+02
   4.568331e+02   1.701521e+02
   1.858828e+02   3.379612e+02
  -2.744676e+02   1.941049e+02
  -4.327995e+02  -1.159226e+02
  -1.609036e+02  -3.148378e+02
   2.337248e+02  -2.949461e+02
   4.069135e+02  -1.060504e+02
   2.258709e+02   2.127609e+02
   5.209051e+01   3.097534e+02
  -9.104554e+01   1.745820e+02
   6.865583e+01  -1.029463e+02
   1.286846e+02  -1.753883e+02
   1.651744e+02   6.604400e+01
   3.739206e+01   4.438418e+02
  -2.277135e+02   4.012469e+02
  -3.309011e+02   6.123315e+00
  -1.386737e+02  -2.649512e+02
   1.315830e+02  -1.285907e+02
   1.827535e+02   2.317574e+02
  -1.129704e+02   3.414383e+02
  -4.278751e+02   6.703303e+01
  -3.656410e+02  -3.250834e+02
  -1.040874e+02  -4.497839e+02
   2.744246e+02  -2.838540e+02
   4.422862e+02   1.054319e+02
   2.970311e+02   2.404989e+02
  -6.588924e+01   2.155471e+02
  -2.859756e+02   7.933469e+01
  -2.383115e+02  -5.074334e+01
  -6.661952e+00  -4.794651e+01
   6.020846e+01   6.586509e+01
  -1.057884e+02   8.075485e+01
  -2.277178e+02  -6.783457e+01
  -1.199532e+02  -2.178362e+02
   1.351195e+02  -2.244740e+02
   3.167840e+02  -4.872307e+01
   2.390606e+02   1.294225e+02
  -3.701451e+01   2.673668e+02
  -2.438499e+02   2.980313e+02
  -3.160920e+02   1.044664e+02
  -2.154377e+02  -1.626475e+02
  -2.244117e+01  -3.198267e+02
   2.700662e+01  -2.940529e+02
   2.768241e+01  -1.449101e+02
   3.972188e+01  -8.754885e+01
   1.244738e+02  -8.755384e+01
   2.355795e+02  -3.416385e+01
   2.005388e+02   1.070307e+02
   1.002508e+02   2.367131e+02
  -9.570057e+01   1.823837e+02
  -1.653960e+02  -5.090891e+01
  -1.188672e+02  -2.188285e+02
   4.253580e+01  -2.118158e+02
   2.208629e+02  -4.687822e+01
   2.982085e+02   1.660538e+02
   1.085033e+02   3.287633e+02
  -8.465358e+01   2.054700e+02
  -1.478767e+02   9.318881e+01
  -1.612462e+02   3.605477e+01
  -1.256936e+02   1.968081e+01
  -2.289543e+02   2.152506e+01
  -3.035105e+02  -8.560272e+01
  -2.730535e+02  -2.714910e+02
   2.725731e+01  -4.058099e+02
   3.178970e+02  -2.820144e+02
   4.587784e+02  -1.173306e+02
   2.447031e+02   1.171261e+02
  -4.700571e+00   2.271828e+02
  -1.305874e+02   1.801918e+02
  -1.215273e+01   2.192744e+01
   8.908034e+01  -6.383356e+01
   1.283704e+02   5.067242e+01
   6.908671e+01   1.409817e+02
  -9.955942e+01   1.076622e+02
  -7.682446e+01  -4.265550e+01
   8.867141e+00  -1.304194e+02
   1.491327e+02  -1.013579e+01
   1.405949e+02   1.908634e+02
  -2.447689e+01   2.868214e+02
  -2.225253e+02   1.630567e+02
  -3.004649e+02  -5.790248e+01
  -2.356760e+02  -2.384377e+02
  -5.186944e+00  -2.836034e+02
   1.530231e+02  -1.082941e+02
   1.559258e+02   3.171964e+01
   1.802563e+01   4.943969e+01
  -4.778814e+01  -2.273568e+01
  -8.809319e+00  -1.273979e+02
   1.033589e+02  -6.827336e+01
   1.474605e+02   2.383336e+01
   6.057451e+01   3.744874e+01
  -7.287916e+01   1.853980e+01
  -3.195548e+01  -4.055953e+01
   1.602680e+02  -6.595689e+01
   2.723011e+02   4.710965e+01
   2.099271e+02   1.675556e+02
   2.706369e+01   2.229618e+02
  -1.770930e+02   2.211126e+02
  -2.335801e+02   3.590100e+01
  -1.216490e+02  -6.980512e+01
   2.835223e+01  -7.521284e+01
   3.720285e+01  -2.530077e+00
  -2.005436e+01   7.869977e+01
  -1.378158e+02   1.436568e+01
  -1.460861e+02  -7.529250e+01
  -7.292540e+01  -1.650018e+02
   9.606606e+01  -1.264707e+02
   1.147352e+02   1.064503e+01
   1.356052e+01   7.909795e+01
  -2.584222e+01   3.548285e+00
  -2.550521e+01  -8.941447e+01
   8.003342e+01  -1.251656e+02
   2.102394e+02  -1.633985e+01
   1.303153e+02   1.126925e+02
   5.983379e+00   2.231407e+02
  -1.269123e+02   1.367390e+02
  -1.552208e+02   2.096396e+01
  -5.068773e+01  -7.186517e+01
   6.458194e+01  -9.986476e+01
   7.319589e+01  -2.845952e+01
  -1.845897e+01   4.152224e+01
  -3.430278e+01  -1.614951e+01
   2.323147e+01  -3.624935e+01
   1.037587e+02   5.500195e+00
   1.031034e+02   8.020056e+01
  -4.131285e-01   1.627596e+02
  -1.247084e+02   1.292638e+02
  -2.007570e+02   2.260426e-02
  -1.822688e+02  -1.372474e+02
   1.231000e-01  -2.021354e+02
   6.065210e+01  -1.274228e+02
   1.336882e+02  -1.901956e+01
   5.648058e+01   2.242266e+01
   3.394343e+00   8.777784e+00
   5.336056e+01  -2.659456e+01
   9.038102e+01  -4.037522e+00
   3.953498e+01   5.157372e+01
  -6.281368e+01   1.202358e+02
  -1.332132e+02   4.881063e+01
  -7.783401e+01  -4.775131e+01
   6.179055e+00  -1.285618e+02
   1.077544e+02  -7.191192e+01
   1.759362e+02   5.040710e+01
   8.424622e+01   1.886360e+02
  -8.981849e+01   2.045071e+02
  -2.488162e+02   5.853607e+01
  -2.394973e+02  -9.814196e+01
  -6.568835e+01  -1.401296e+02
   3.369013e+01  -1.385675e+02
   7.459149e+01  -7.319716e+01
   5.327195e+01  -6.425506e+01
   6.126939e+01  -9.733818e+01
   8.931044e+01  -8.452448e+01
   1.100576e+02   5.693810e+01
   9.281060e+01   1.365213e+02
  -1.835219e+00   2.123478e+02
  -1.001731e+02   1.359255e+02
  -1.522762e+02   9.071336e+00
  -1.249896e+02  -1.129341e+02
  -2.614460e+00  -1.518802e+02
   8.907573e+01  -6.123395e+01
   5.935072e+01   1.564315e+01
  -2.154368e+01   6.815303e+01
  -4.374704e+01   2.229192e+01
   3.355139e+01  -1.048206e+01
   9.566936e+01   1.758855e+01
   5.122644e+01   4.110020e+01
  -5.605637e+01   2.601510e+01
  -1.526842e+02   1.424623e+01
  -1.343417e+02  -7.123134e+01
  -2.214027e+01  -1.023617e+02
   1.596202e+02  -7.362078e+01
   1.393594e+02  -6.082866e+00
   3.212281e+01   5.866366e+01
  -5.651376e+01   4.758609e+01
  -5.188633e+01  -1.786161e+00
  -3.522153e+00  -6.342676e+01
   3.137940e+01  -6.618948e+01
   7.474808e+01   1.649472e+01
   3.261283e+01   4.291040e+01
   2.424037e+01   6.433417e+01
   4.753058e+01  -3.963895e+00
   5.606785e+01   2.047495e+01
   3.434511e+01   6.034693e+01
  -4.110746e+00   1.313819e+02
  -1.221895e+02   1.390638e+02
  -1.536378e+02   1.561633e+01
  -9.688231e+01  -9.219901e+01
   4.879583e+00  -1.186473e+02
   4.527230e+01  -7.925215e+01
   5.588331e+01   2.042224e+01
  -5.764839e+01   2.698130e+01
  -9.208068e+01  -6.565766e+01
  -5.609833e+01  -1.115180e+02
   7.780658e+01  -1.058925e+02
   1.526961e+02  -3.507270e+01
   1.357769e+02   9.495940e+00
   3.522071e+01   7.448570e+01
  -4.591933e+01   5.621624e+01
  -1.023475e+01   1.656279e+01
   2.801490e+01  -2.338901e+01
   7.049448e+01   4.621138e+01
   2.427313e+01   1.116201e+02
  -7.794968e+01   1.212898e+02
  -1.133797e+02   5.897750e+01
  -8.871481e+01  -7.446111e+01
   8.927672e+00  -1.398858e+02
   5.119543e+01  -1.129659e+02
   9.339178e+01   1.249527e+01
   4.423735e+01   1.009689e+02
  -1.229881e+01   1.029655e+02
  -3.029616e+01   8.233263e+00
  -5.286826e+01  -4.070068e+01
  -5.168924e+00  -1.619804e+01
   2.344033e+01   1.132665e+01
  -2.467385e+01  -3.287613e+01
  -6.026136e+01  -7.403772e+01
  -2.960910e+01  -1.048919e+02
   8.487458e+01  -3.441207e+01
   1.144515e+02   8.370333e+00
   1.238609e+02   3.169946e+01
   2.466045e+01   6.850056e+01
  -7.223121e+01   6.645236e+00
  -7.532492e+01   4.113877e+00
  -1.275940e+01   8.268190e+00
   6.858804e+00  -3.091597e+01
  -6.963846e+00  -7.306138e+00
  -1.625070e+01  -1.909178e+01
   6.918404e-01  -1.119692e+01
   8.064880e+01  -1.094547e+00
   7.162860e+01   2.738010e+01
   3.015819e+01   9.297023e+01
  -9.050263e+01   9.481129e+01
  -1.997957e+02   8.725886e+01
  -9.684707e+01  -8.805183e+01
  -3.294367e+01  -1.583074e+02
   7.202029e+01  -8.961432e+01
   1.230486e+02  -6.055804e+01
   9.051570e+01   3.482784e+01
   3.026037e+01   2.013852e+01
   1.638642e+01  -1.440206e+01
   1.168637e+01  -1.020006e+01
   2.731942e+01   3.050528e+01
   3.051744e+01   9.244208e+01
  -2.729128e+01   7.764438e+01
  -7.563039e+01  -1.785703e+01
  -6.481328e+01  -9.049877e+01
   2.797841e+01  -9.884294e+01
   5.995224e+01  -2.344226e+00
   6.292912e+01   5.938736e+01
   2.694264e+01   9.958902e+01
  -9.965095e+01   5.732913e+01
  -9.229530e+01  -2.618198e+01
  -3.107159e+01  -7.449685e+01
   1.400722e+01  -4.169735e+01
   3.012766e+01  -3.722935e+01
  -1.925365e+01  -1.040131e+01
  -6.610680e+01  -2.951632e+00
   1.089218e+01  -5.143654e+01
   5.869863e+01  -6.507735e+01
   1.098174e+02  -3.073807e+01
   4.372212e+01   2.555390e+01
  -1.496164e+01   8.244620e+01
  -6.295606e+01   6.338819e+01
  -1.699762e+01   1.554870e+01
  -1.143767e+01  -5.108399e+01
   4.071162e+01  -5.865746e+01
   3.642162e+01  -1.575799e+01
   5.145900e+01   5.894885e+01
   1.131000e+01   2.595417e+01
  -2.933761e+01   1.365426e+01
  -2.626290e+01  -2.183774e+01
  -4.369596e+00  -6.391468e+00
   2.109987e+01   4.390909e+01
  -3.574145e+00   2.606839e+01
  -2.589344e+01  -2.530080e+01
   2.548727e+01  -4.620103e+01
   3.220817e+01  -2.788710e+01
   3.388049e+01   2.744157e+01
   2.292298e+01   9.856352e+01
  -4.492799e+01   3.417998e+01
  -5.190762e+01  -1.786617e+01
  -1.939625e+01  -5.290185e+01
   6.529328e+01  -2.714996e+01
   8.175892e+01  -2.434002e+00
   4.803880e+01   2.587037e+01
  -2.244297e+01   4.589463e+01
  -4.809944e+01   4.543783e+01
  -3.973450e+01   7.560544e+00
   3.043641e+01  -1.629057e+01
   4.757865e+01   2.707928e+01
  -1.792771e+01   2.705495e+01
  -6.145414e+01   3.680587e+01
