
 $NMID
 id='ANONYMOUS ', fmtdat='(2E16.6)'
 volume=1.0
 tramp=1.0
 $END
   2.727897e+03  -4.118147e+01
   1.640809e+03   1.599372e+03
  -3.308188e+02   1.854410e+03
  -1.235273e+03   8.914134e+02
  -8.115327e+02  -1.757326e+02
   2.408470e+02  -2.374245e+02
   3.452981e+02   1.936377e+02
  -2.063279e+01   6.050215e+02
  -4.712895e+02   4.562844e+02
  -5.399258e+02  -5.238794e+01
  -3.354063e+02  -4.643852e+02
   4.584822e+01  -6.742821e+02
   3.035174e+02  -1.235127e+02
   2.142965e+02   3.051647e+02
  -9.816740e+01   4.425841e+02
  -3.173375e+02   6.921259e+00
  -1.788576e+02  -4.048107e+02
   2.394423e+02  -4.376879e+02
   3.476360e+02  -9.506301e+01
   3.463575e+02   2.218291e+02
   2.336636e+01   3.204719e+02
  -1.278397e+02   1.692099e+02
  -1.070835e+02   5.081793e+01
   4.998574e+01   2.355749e+01
   2.199858e+02   1.123014e+02
   1.534159e+01   2.225459e+02
  -2.708293e+02   1.279681e+02
  -4.252231e+02  -1.225391e+02
  -1.719951e+02  -2.620407e+02
   1.980530e+02  -1.923847e+02
   3.902149e+02   2.761154e+01
   1.328412e+02   2.388314e+02
  -1.552967e+02   2.557513e+02
  -3.209005e+02   8.385595e+01
  -1.706081e+02  -1.459835e+02
  -3.686284e+01  -2.293158e+02
   2.917696e+01  -1.329024e+02
  -7.626834e+00   8.465581e+01
  -9.717325e+01   1.577010e+02
  -1.963629e+02  -5.155670e+01
  -7.969203e+01  -3.619510e+02
   1.839917e+02  -3.643628e+02
   3.371879e+02  -1.767656e+01
   1.224327e+02   2.466816e+02
  -1.309365e+02   1.181429e+02
  -1.723811e+02  -1.864788e+02
   8.210850e+01  -3.080865e+02
   3.007793e+02  -5.278550e+01
   2.670170e+02   2.510141e+02
   8.864641e+01   3.392361e+02
  -2.174390e+02   1.693724e+02
  -3.661929e+02  -5.965464e+01
  -2.575367e+02  -2.128533e+02
   8.212136e+01  -2.119392e+02
   2.840498e+02  -4.688514e+01
   1.839874e+02   7.478675e+01
  -1.475681e+01   4.108980e+01
  -5.781913e+01  -5.662321e+01
   6.967800e+01  -6.932504e+01
   1.783488e+02   6.360128e+01
   9.740783e+01   1.783052e+02
  -1.288538e+02   1.706917e+02
  -2.048994e+02   2.049383e+01
  -1.334196e+02  -6.753156e+01
   5.643126e+01  -1.558873e+02
   1.827394e+02  -2.001953e+02
   2.190756e+02  -9.868769e+01
   1.934797e+02   1.053682e+02
   3.975599e+01   2.799397e+02
  -5.685019e+00   3.044031e+02
  -2.722185e+01   1.005466e+02
  -6.511415e+01   4.906487e+01
  -9.644122e+01   4.272376e+01
  -1.374580e+02   2.061670e+01
  -1.424534e+02  -8.483716e+01
  -6.154280e+01  -1.734447e+02
   6.968328e+01  -1.335112e+02
   1.414924e+02   3.649178e+01
   7.846513e+01   1.603714e+02
  -6.422199e+01   1.703454e+02
  -1.486512e+02   3.300444e+01
  -1.763944e+02  -1.276457e+02
  -1.088653e+02  -2.228058e+02
   7.156604e+01  -2.018222e+02
   1.228516e+02  -8.166659e+01
   1.159114e+02  -3.589229e+01
   1.146344e+02  -2.319720e+01
   1.865538e+02  -9.763476e+00
   2.237365e+02   9.031968e+01
   2.105051e+02   2.443102e+02
  -5.300134e+01   2.959740e+02
  -2.246441e+02   1.908595e+02
  -3.050384e+02   9.962536e+01
  -1.906023e+02  -4.726580e+01
   1.803610e+01  -1.652709e+02
   6.871011e+01  -1.239662e+02
   1.043059e+01  -3.658552e-02
  -7.776233e+01   6.311957e+00
  -1.063249e+02  -1.201765e+01
  -3.653106e+01  -1.091011e+02
   7.793224e+01  -5.727479e+01
   5.109828e+01   3.321872e+01
  -2.681792e+00   8.900190e+01
  -9.330554e+01   1.176599e+01
  -7.419805e+01  -1.695815e+02
   7.599279e+01  -2.130793e+02
   1.888840e+02  -9.298821e+01
   2.227257e+02   1.099690e+02
   1.651225e+02   2.254993e+02
   3.329031e+01   2.290540e+02
  -1.342810e+02   9.697462e+01
  -1.205568e+02  -3.024343e+00
  -2.054602e+01  -3.169856e+01
   4.978462e+01   3.537877e+01
   2.145066e+01   4.297270e+01
  -9.404042e+01   3.901240e+01
  -1.068182e+02  -2.882851e+01
  -5.418740e+01  -4.305049e+01
   5.218012e+01  -5.199963e+00
   1.278684e+01   5.260390e+01
  -1.223441e+02   6.756494e+01
  -2.086469e+02  -6.044765e+01
  -1.472735e+02  -1.261259e+02
   9.489219e-01  -1.654450e+02
   1.560689e+02  -1.534959e+02
   2.082121e+02  -2.606067e+01
   1.109245e+02   4.126013e+01
  -1.552978e+01   5.373089e+01
  -4.866154e+01  -3.689391e-01
   2.565856e+01  -2.358009e+01
   1.160266e+02  -1.676629e+01
   1.172057e+02   6.462088e+01
   4.755569e+01   1.206332e+02
  -6.687731e+01   1.068445e+02
  -8.519344e+01   7.340105e+00
  -3.383412e+00  -3.958173e+01
   1.830478e+01   1.214402e+01
   1.667272e+00   7.107439e+01
  -4.354462e+01   6.711169e+01
  -1.356081e+02   2.208347e+01
  -9.586538e+01  -1.059357e+02
   1.823803e+01  -1.322588e+02
   1.059960e+02  -5.348644e+01
   1.207371e+02  -1.121040e+01
   2.084837e+01   5.993136e+01
  -3.182545e+01   4.364969e+01
  -4.428433e+01   1.199583e+01
   2.671739e+01   2.815243e+00
   3.170314e+01   2.649989e+00
  -2.382889e+01   8.927437e+00
  -7.206358e+01  -2.252204e+01
  -5.905588e+01  -8.898525e+01
   2.458001e+01  -1.450610e+02
   1.158879e+02  -9.553042e+01
   1.560859e+02   2.298596e+01
   9.706986e+01   1.094817e+02
   1.170137e+01   1.246056e+02
  -4.241478e+01   8.366274e+01
  -8.195681e+01   1.401455e+01
  -5.978420e+01  -2.706601e+01
  -4.562160e+01  -3.800682e+01
  -7.059276e+01   1.040368e+01
  -6.834688e+01  -1.873336e+01
  -1.173305e+01  -1.008231e+01
   6.552762e+01  -6.130611e+01
   7.646258e+01  -3.299269e+01
   5.825928e+01   5.739347e+01
  -2.564372e+01   7.346650e+01
  -1.092791e+02   3.728726e+01
  -1.346578e+02  -3.627245e+01
  -4.265634e+01  -1.562436e+02
   7.687597e+01  -1.539143e+02
   1.636564e+02  -7.510013e+01
   1.621895e+02   9.161609e+01
   6.686663e+01   1.057469e+02
  -2.628973e+01   8.779830e+01
  -6.005377e+01   6.654669e+01
  -5.653526e+01   3.644002e+01
  -5.481998e+01   5.816985e+01
  -7.251197e+01   5.175362e+01
  -1.003545e+02  -1.286797e+01
  -6.389909e+01  -1.062296e+02
   4.596549e+01  -1.798501e+02
   7.884705e+01  -1.220800e+02
   1.081069e+02  -4.912928e+00
   4.416388e+01   8.698794e+01
   1.189608e+01   1.031819e+02
  -5.501479e+01   5.168760e+01
  -6.142673e+01  -2.291970e-01
   1.314452e+01  -2.047316e+01
   4.248373e+00  -2.545638e+01
  -1.932099e+01  -1.116436e+00
  -6.043307e+01   8.999965e+00
  -4.221689e+01  -3.473177e+01
   3.229035e+01  -1.259159e+01
   1.371345e+02   1.582883e+01
   8.852322e+01   4.991955e+01
   1.199160e+01   5.780036e+01
  -1.008796e+02   3.653249e+01
  -9.913939e+01  -1.058088e+01
  -1.264047e+01  -4.802340e+01
   6.951473e+01  -1.010338e+01
   2.402953e+01   1.796614e+01
  -8.176265e+00   5.137467e+01
  -3.952268e+01   5.796688e+01
  -8.736563e+01  -6.481764e+00
  -2.589339e+01  -2.199073e+01
  -2.749205e+01  -4.489165e+01
  -5.704313e+01   1.652108e+01
  -3.833642e+01  -9.312563e+00
  -3.557900e+01  -5.591930e+01
   4.922241e+01  -1.207223e+02
   8.949709e+01  -9.998890e+01
   1.034573e+02  -4.161689e+00
   5.167649e+01   3.640082e+01
  -7.418080e-01   9.226385e+01
  -5.065726e+01   3.027022e+01
  -3.813566e+01  -1.928730e+01
   5.281550e+01  -2.091207e+01
   6.699421e+01   4.432817e+01
   1.819200e+01   8.526349e+01
  -8.310067e+01   8.546710e+01
  -1.471337e+02   1.106116e+00
  -1.122174e+02  -2.972468e+01
  -3.066687e+01  -4.767810e+01
   1.942446e+01  -7.985243e+01
   4.497258e+01  -4.824281e+00
  -9.208339e+00   1.403200e+01
  -6.160903e+01  -3.128650e+01
   8.677550e+00  -1.103576e+02
   7.190214e+01  -5.051471e+01
   1.000600e+02  -4.137790e+01
   8.404759e+01   6.473481e+01
  -3.010806e+00   1.206914e+02
  -4.602611e+01   6.716672e+01
  -5.875514e+01   3.593951e+00
  -1.349496e+01  -1.000203e+02
   8.405517e+00  -7.021709e+01
   2.617676e+00  -1.308552e+01
   3.950754e+01  -3.171566e+00
   2.531583e+01  -2.117087e+01
   3.180405e+00   2.415786e+01
   3.100803e+01   2.722432e+01
   3.750878e+01   5.978870e+01
   3.355799e+01   6.322364e+01
  -3.681729e+01   6.883943e+00
  -9.212404e+01  -3.958963e+01
  -7.963523e+01  -2.642590e+01
  -2.988250e+01  -3.776784e+01
   3.728685e+01   1.320206e+01
   4.216683e+01  -3.099880e+00
   5.157348e+00  -5.810324e+00
  -4.438413e+01  -7.559854e+00
   5.344051e+00  -1.404935e+01
   2.692025e+01  -1.313624e+00
  -4.071291e+01  -3.169669e+00
  -4.266547e+01   1.042582e+00
  -4.033461e+01  -2.506573e+01
   1.400374e+01  -1.030810e+01
   9.674984e+01  -8.447408e+01
   1.625821e+02  -6.434385e+01
   1.124158e+02   7.679802e+01
  -2.113210e+01   1.209889e+02
  -9.014222e+01   8.046331e+01
  -7.768259e+01   2.849118e+01
  -4.894310e+01  -1.717492e+01
   2.566978e+00   7.088634e+00
  -3.000029e+01  -2.822112e+01
  -3.409298e+01   2.137425e+01
  -4.717615e+01  -2.729371e+01
  -9.130511e+00  -6.007327e+01
   1.388078e+01  -5.188076e+01
   6.242318e+01   2.371721e+01
   4.611134e+01   6.710317e+01
   4.844114e+00   7.948133e+01
  -3.415626e+01   1.242895e+01
  -4.615091e+01  -4.188542e+01
  -2.541653e+01  -6.991035e+01
   2.425237e+01  -4.383831e+01
   8.447803e+01  -1.800049e+01
   5.352860e+01   4.061945e+01
  -2.402635e+01   4.281873e+01
  -1.331436e+01   3.164411e+00
   1.758869e+01   7.378192e+00
   3.720962e+01   1.219228e+00
  -1.062897e+01   3.062014e+01
  -7.440627e+01   2.696066e+01
  -8.940046e+01   1.645691e+01
  -2.630075e+01  -5.307515e+00
   4.619174e+01  -4.914749e+01
   6.307247e+01  -6.566633e+01
   2.496152e+01  -7.910871e+00
   7.598622e+00   2.741500e+01
  -3.760235e+01   2.305409e+01
  -1.535327e+01  -4.677410e+00
  -4.414531e+01  -7.961285e+00
   6.931438e+00   1.261016e+00
   2.519900e+01   2.458605e+01
   3.604995e+01   9.381900e+00
   3.287963e+01  -6.724096e+00
  -8.219509e-01  -9.533593e+00
   9.945014e+00   5.295551e+00
  -2.285087e+01   4.616960e+01
  -2.443237e+01   2.661053e+01
  -4.258236e+01   1.144764e+01
  -2.435757e+01  -3.671126e+01
   1.430639e+01  -5.030176e+01
   3.041737e+01  -2.413108e+01
   4.816668e+01   1.161512e+01
   2.905893e+01   5.384459e+01
  -4.267274e+01   4.581523e+01
  -6.636749e+01  -2.020213e+01
  -4.308686e+01  -5.706643e+01
   3.296624e+01  -5.478432e+01
   5.014196e+01  -3.414371e+00
   2.675303e+01  -7.196931e+00
  -4.300552e+01  -2.629201e+00
  -2.510160e+01  -1.598654e+00
   4.458356e+00  -2.514034e+01
   1.003392e+02  -7.294210e+00
