
 $NMID
 id='ANONYMOUS ', fmtdat='(2E16.6)'
 volume=1.0
 tramp=1.0
 $END
  -4.445652e+03  -1.743523e+02
  -2.458406e+03  -3.269834e+03
   8.287412e+02  -3.065447e+03
   2.427678e+03  -8.820381e+02
   1.024127e+03   7.197499e+02
  -8.108910e+02   6.035436e+02
  -9.535423e+02  -5.576976e+02
   1.563617e+01  -1.136527e+03
   8.459768e+02  -8.936635e+02
   1.016289e+03   2.819093e+01
   4.495341e+02   8.997819e+02
  -2.094451e+02   1.006233e+03
  -7.132629e+02   1.294796e+02
  -4.121205e+02  -7.385664e+02
   3.057267e+02  -8.072064e+02
   6.270737e+02  -1.360740e+01
   2.711643e+02   7.214551e+02
  -3.270383e+02   6.557789e+02
  -5.724934e+02   6.886223e+01
  -4.016597e+02  -3.438902e+02
  -1.663324e+01  -4.295309e+02
   2.292452e+02  -2.584580e+02
   2.491100e+02   1.693102e+01
  -9.823977e+01   1.639879e+02
  -4.510467e+02  -7.785974e+01
  -2.445865e+02  -4.168384e+02
   4.433390e+02  -4.358269e+02
   8.591586e+02   1.896285e+01
   4.938451e+02   5.707891e+02
  -4.173826e+02   4.894258e+02
  -7.300880e+02  -1.138465e+01
  -3.414417e+02  -4.842036e+02
   2.821553e+02  -5.311457e+02
   6.227137e+02  -2.297732e+02
   4.577115e+02   2.037822e+02
   8.852812e+01   4.482179e+02
  -2.201887e+02   2.902024e+02
  -2.154859e+02  -2.393127e+02
   1.486634e+02  -4.780432e+02
   5.380403e+02  -1.858809e+01
   2.665633e+02   7.058415e+02
  -3.383319e+02   7.609472e+02
  -6.724590e+02   1.461439e+01
  -2.932810e+02  -5.462409e+02
   2.395448e+02  -3.655903e+02
   4.052330e+02   3.078964e+02
  -1.932558e+01   5.377642e+02
  -5.338172e+02   1.454160e+02
  -5.578503e+02  -3.268903e+02
  -1.742199e+02  -5.688879e+02
   3.466172e+02  -3.537477e+02
   5.669069e+02   3.801040e+01
   3.813943e+02   4.123741e+02
  -1.584350e+02   3.688407e+02
  -4.151795e+02   2.223586e+01
  -2.718295e+02  -2.324494e+02
   1.562594e+02  -1.223390e+02
   1.441722e+02   1.792765e+02
  -1.876639e+02   1.870091e+02
  -3.071967e+02  -7.886631e+01
  -9.431990e+01  -3.296252e+02
   2.027665e+02  -2.209136e+02
   3.219889e+02  -6.850946e+01
   1.959860e+02   6.769768e+01
   4.169095e+00   2.077485e+02
  -1.580644e+02   3.598903e+02
  -3.255268e+02   2.722558e+02
  -3.230750e+02  -9.767389e+01
  -1.400693e+02  -4.272622e+02
   1.514526e+02  -4.087113e+02
   1.253787e+02  -1.067862e+02
   2.062375e+01   3.444959e+01
   2.179073e+01  -9.291243e+01
   1.506892e+02  -1.435624e+02
   2.507958e+02   2.589267e+01
   1.648235e+02   2.680500e+02
  -8.577706e+01   2.713411e+02
  -2.327088e+02   4.281554e+00
  -2.152625e+02  -1.920505e+02
  -2.346023e+01  -2.867776e+02
   2.532772e+02  -1.533017e+02
   3.393974e+02   1.432688e+02
   1.925499e+02   3.526153e+02
  -7.868096e+01   3.134587e+02
  -1.942161e+02   1.246520e+02
  -1.311071e+02   1.162807e+01
  -7.608457e+01   4.255129e+01
  -2.100499e+02   7.898409e+01
  -3.887609e+02  -2.565039e+01
  -3.704351e+02  -2.356435e+02
  -3.758104e+01  -4.522015e+02
   3.301569e+02  -3.923799e+02
   4.671767e+02  -2.047245e+02
   3.378344e+02   6.201571e+01
   9.501327e+01   2.613290e+02
  -1.482424e+02   2.607060e+02
  -8.276345e+01   3.575734e+01
   1.158020e+02  -1.374587e+02
   2.120401e+02  -1.845080e+00
   5.202394e+01   2.032228e+02
  -1.882264e+02   1.678007e+02
  -2.036721e+02  -3.739276e+01
   2.229229e+01  -2.113347e+02
   2.319388e+02  -6.269312e+01
   2.125624e+02   2.205476e+02
  -2.690766e+01   3.669122e+02
  -2.018612e+02   1.922285e+02
  -3.116649e+02  -2.811878e+01
  -2.834832e+02  -2.050839e+02
  -8.779469e+01  -2.376296e+02
   1.149764e+02  -1.762533e+02
   1.582786e+02  -3.792829e+01
   6.452667e+01   1.121668e+01
  -3.304485e+01  -3.032910e+01
  -5.083104e+01  -1.327732e+02
   1.335629e+02  -1.192519e+02
   1.442900e+02   2.172356e+01
   5.358359e+01   9.754563e+01
  -7.692529e+01   6.157862e+01
  -6.337463e+01  -8.794618e+01
   1.055399e+02  -1.004005e+02
   2.738576e+02   1.202352e+01
   2.597926e+02   1.256537e+02
   8.265593e+01   2.151957e+02
  -1.725256e+02   2.728502e+02
  -2.961197e+02   1.399666e+02
  -1.828214e+02  -6.095402e+01
   1.141652e+01  -1.157745e+02
   1.226373e+02   6.836849e+00
  -4.288900e+01   1.156517e+02
  -1.875884e+02   6.059334e+01
  -2.067404e+02  -7.929130e+01
  -8.538939e+01  -2.340408e+02
   1.101068e+02  -1.513982e+02
   1.582171e+02  -3.312573e+01
   6.024893e+01   4.397525e+01
  -4.423321e+01   2.203101e+01
  -5.533576e+01  -6.615966e+01
   5.528871e+01  -1.202693e+02
   1.751008e+02  -4.549374e+01
   1.833188e+02   6.200101e+01
   4.500773e+01   2.138265e+02
  -1.512701e+02   1.577842e+02
  -2.004098e+02   1.852303e+01
  -6.886932e+01  -1.138690e+02
   3.772127e+01  -1.327724e+02
   6.692923e+01  -3.421601e+01
   1.862548e+01   4.556207e+01
  -9.107067e+00   3.324340e+01
   5.925607e+00  -4.260151e+01
   2.071512e+01   2.453859e+01
   8.455499e+01   8.448914e+01
   2.943060e+00   1.408893e+02
  -1.103869e+02   1.572577e+02
  -2.210950e+02   2.754742e+01
  -2.159712e+02  -1.346646e+02
  -6.373061e+01  -2.564045e+02
   9.801047e+01  -1.624524e+02
   1.479880e+02   9.414537e+00
   5.911413e+01   5.329812e+01
   1.289900e+01   4.031997e+01
   6.472348e+01   5.552707e+00
   7.709116e+01   1.498522e+01
   6.239152e+01   3.701011e+01
  -2.200340e+01   6.928166e+01
  -9.433146e+01   6.735375e+01
  -8.213242e+01  -7.347318e+00
   1.108112e+01  -8.797378e+01
   1.254628e+02  -8.204216e+01
   1.884657e+02   2.874176e+01
   8.678902e+01   1.619107e+02
  -8.364765e+01   2.116730e+02
  -2.638505e+02   9.306631e+01
  -2.272314e+02  -7.933473e+01
  -1.023611e+02  -1.553481e+02
  -9.021527e+00  -1.383522e+02
   8.635775e+01  -1.228791e+02
   8.867684e+01  -7.314594e+01
   8.460756e+01  -6.564507e+01
   9.041830e+01  -6.301501e+01
   8.695302e+01   5.090370e+00
   1.241412e+02   1.301139e+02
   5.669359e+01   2.114491e+02
  -8.923867e+01   1.940518e+02
  -1.708353e+02   4.359402e+01
  -1.446254e+02  -1.224797e+02
  -2.258661e+01  -1.670811e+02
   4.673016e+01  -9.152338e+01
   4.549464e+01  -2.479434e+01
   2.368020e+01   4.664511e+01
  -3.883598e+01   3.693200e+01
   3.137051e+01   2.112074e+01
   8.852307e+01   2.252397e+01
   2.118330e+01   2.268551e+01
  -4.865486e+01   5.322836e+01
  -1.405198e+02   2.727437e+01
  -1.183647e+02  -3.662706e+01
  -3.217970e+01  -8.393846e+01
   1.071342e+02  -5.974789e+01
   1.295891e+02  -3.565736e+01
   7.513732e+01   4.292677e+01
  -6.489592e+01   2.467811e+01
  -6.968614e+01  -3.361588e+01
  -2.194617e+01  -6.410554e+01
   4.226365e+01  -9.845460e+01
   7.827152e+01   1.035976e+01
   4.975099e+01   5.319943e+01
   2.290567e+01   2.754174e+00
   4.219042e+01   2.208652e+01
   7.369554e+01   8.864307e+00
   1.107597e+01   5.353418e+01
  -1.477780e+01   1.208315e+02
  -1.222910e+02   1.465559e+02
  -1.459023e+02   5.754435e+01
  -1.267275e+02  -9.419020e+01
  -1.142504e+01  -1.312194e+02
   8.524188e+01  -5.841129e+01
   6.201349e+01   5.621604e+01
  -3.266578e+01   4.860764e+01
  -1.312083e+02  -2.218611e+01
  -1.072847e+02  -1.160584e+02
   5.322246e+01  -9.841502e+01
   1.551571e+02  -4.681486e+01
   1.379425e+02   1.335730e+01
   4.982895e+01   7.406022e+01
  -5.628869e+01   6.699423e+01
  -4.102986e+01   1.944912e+01
   3.179581e+01  -4.239465e+01
   9.184886e+01   2.021704e+01
   4.068553e+01   1.338235e+02
  -4.913955e+01   1.608033e+02
  -1.320259e+02   6.955727e+01
  -1.124757e+02  -6.877595e+01
  -2.851704e+01  -1.631235e+02
   8.248472e+01  -1.386537e+02
   9.933841e+01  -3.488739e+00
   8.728100e+01   1.076696e+02
   1.618960e+01   8.597810e+01
  -5.019536e+01   3.601172e+00
  -4.759019e+01  -1.037224e+01
  -2.741742e+01   1.062588e+01
   6.293640e+00   2.717154e+01
  -4.065574e+01  -5.442143e+00
  -9.111822e+01  -7.986804e+01
  -3.319347e+01  -1.195260e+02
   4.696001e+01  -4.225607e+01
   1.422694e+02   4.560676e+01
   1.116804e+02   1.200976e+02
  -1.536156e+01   4.969966e+01
  -8.880987e+01   2.586759e+01
  -1.090072e+02   2.423491e+01
  -1.722122e+00  -2.150590e+00
   6.197660e+01  -1.989254e+01
  -1.442349e+01  -2.882672e+01
  -2.029706e+01   1.373014e+01
   5.631118e+00   9.475944e+00
   5.999318e+01   1.639965e+01
   7.206085e+01   4.101611e+01
   8.120333e+00   7.584094e+01
  -1.410917e+02   1.007300e+02
  -1.703587e+02   7.849873e+01
  -1.341580e+02  -8.168122e+01
  -2.328587e+01  -1.381132e+02
   4.532775e+01  -1.354056e+02
   1.101268e+02  -4.052308e+01
   6.346208e+01   1.995140e+01
   4.856307e+01   3.742518e+01
  -9.227753e-01   1.660748e+01
   1.237417e+01  -2.999565e+01
   5.612154e+01   3.878639e+01
   5.432687e+01   7.953584e+01
  -4.208466e+01   9.342985e+01
  -8.695020e+01  -1.708139e+01
  -6.748654e+01  -1.244940e+02
   9.358631e+00  -1.082743e+02
   6.082274e+01  -9.733248e+00
   1.312847e+02   8.344489e+01
   2.515161e+01   1.074483e+02
  -8.012195e+01   8.388439e+01
  -1.054117e+02  -2.079143e+01
  -4.668352e+01  -4.350167e+01
   1.780695e+01  -6.355982e+01
   6.404917e+00  -4.192172e+00
  -2.747947e+01   3.560620e+00
  -6.506012e+01  -2.831532e-01
  -1.640830e+01  -4.366510e+01
   4.031293e+01  -5.758784e+01
   1.042989e+02  -7.683579e+01
   9.115617e+01   3.395268e+01
   2.964452e+01   1.077858e+02
  -4.571470e+01   6.386468e+01
  -2.709669e+01   5.163226e+00
  -2.335242e+01  -4.907765e+01
   1.772690e+01  -2.448479e+01
   5.546281e+01   2.996321e+01
   8.187212e+00   5.467887e+01
   3.035096e+01   3.993154e+01
   3.863851e+00   1.730656e+01
  -3.510858e+01  -1.160979e+01
  -3.958705e+01  -1.686026e+01
  -2.487858e+01  -9.937673e+00
   9.471555e+00  -1.354595e+01
  -2.552567e+01  -3.366547e+01
   1.642852e+01  -4.501883e+01
   2.145729e+01  -6.485626e+00
   2.920968e+01   4.822518e+01
  -9.191827e-01   6.063727e+01
  -2.988074e+01   2.512339e+01
  -4.040460e+01  -1.835669e+00
  -2.209767e+00  -7.222984e+01
   4.910512e+01  -3.790057e+01
   9.164095e+01  -1.677335e+00
   4.323826e+01   3.073942e+01
  -3.159962e+01   3.463457e+01
  -6.571673e+01  -4.023623e+00
  -2.766402e+01  -6.125713e-01
   4.261119e+01   2.284413e+01
   5.853243e+01   3.697399e+01
  -1.198232e+01   4.359224e+01
  -9.886424e+01   3.449621e+01
