
 $NMID
 id='ANONYMOUS ', fmtdat='(2E16.6)'
 volume=1.0
 tramp=1.0
 $END
   4.634746e+03   4.213615e+02
   2.466343e+03   3.264620e+03
  -1.172733e+03   3.008019e+03
  -2.506986e+03   9.078931e+02
  -9.174720e+02  -7.491307e+02
   7.819281e+02  -6.571053e+02
   9.963742e+02   5.929914e+02
  -4.645626e+01   1.195205e+03
  -9.392947e+02   8.273656e+02
  -1.002269e+03  -1.068259e+02
  -4.115331e+02  -9.411963e+02
   2.826794e+02  -9.082530e+02
   6.499968e+02  -7.839440e+01
   3.618955e+02   7.631110e+02
  -3.183703e+02   7.730341e+02
  -6.546210e+02  -3.236320e+01
  -2.758780e+02  -7.385378e+02
   3.137577e+02  -6.442107e+02
   6.045442e+02  -5.790616e+01
   4.074969e+02   3.754083e+02
   4.270142e+01   4.524563e+02
  -2.589786e+02   2.627106e+02
  -2.771964e+02  -3.454816e+01
   1.442377e+02  -1.733597e+02
   5.060591e+02   8.527405e+01
   2.825255e+02   4.715522e+02
  -4.516739e+02   4.313478e+02
  -8.832452e+02   6.291179e+00
  -4.253671e+02  -5.557367e+02
   4.260998e+02  -4.855501e+02
   7.371265e+02  -1.107484e+01
   3.542813e+02   5.400767e+02
  -3.196155e+02   5.778649e+02
  -5.996704e+02   2.110357e+02
  -4.923384e+02  -2.474780e+02
  -4.183995e+01  -5.204162e+02
   2.055089e+02  -2.370346e+02
   2.501015e+02   2.930805e+02
  -1.688196e+02   5.203677e+02
  -5.433846e+02   2.297134e+01
  -3.262180e+02  -8.036758e+02
   3.765569e+02  -7.376524e+02
   6.677116e+02  -3.344136e+00
   2.453232e+02   6.277089e+02
  -3.279506e+02   3.952820e+02
  -4.466799e+02  -3.438992e+02
   4.944125e+01  -5.659744e+02
   5.506205e+02  -1.867018e+02
   6.811894e+02   3.788148e+02
   2.071723e+02   6.289609e+02
  -4.045537e+02   3.961923e+02
  -6.537988e+02  -6.353672e+01
  -4.048188e+02  -4.295140e+02
   1.466720e+02  -4.086788e+02
   4.678469e+02  -7.305570e+01
   2.194343e+02   2.567930e+02
  -1.516006e+02   1.265607e+02
  -1.594710e+02  -1.511129e+02
   1.795325e+02  -2.006386e+02
   3.715101e+02   8.483335e+01
   1.288947e+02   3.132173e+02
  -1.920104e+02   2.539601e+02
  -3.214556e+02   7.417518e+01
  -2.046147e+02  -8.484070e+01
   1.177268e+01  -2.107470e+02
   1.815300e+02  -3.524105e+02
   3.806586e+02  -2.369632e+02
   3.151753e+02   1.274107e+02
   1.015487e+02   4.844432e+02
  -1.431987e+02   4.056356e+02
  -1.115314e+02   5.215072e+01
  -9.177259e+00  -5.020218e+01
   1.129905e+01   8.269868e+01
  -2.103269e+02   1.901813e+02
  -2.896351e+02  -1.848677e+00
  -1.626230e+02  -3.085052e+02
   8.953979e+01  -2.774684e+02
   2.376357e+02  -3.368541e+01
   2.524936e+02   2.517515e+02
  -1.312330e+01   3.370048e+02
  -2.879582e+02   1.722761e+02
  -4.060023e+02  -1.623671e+02
  -1.643047e+02  -3.720392e+02
   1.058540e+02  -2.748205e+02
   2.387133e+02  -1.144039e+02
   1.483251e+02   4.269661e+00
   4.219891e+01  -4.108829e+01
   2.023373e+02  -7.603717e+01
   4.018636e+02  -1.265182e+01
   3.661732e+02   2.678611e+02
   3.719371e+01   4.503215e+02
  -3.489993e+02   4.241795e+02
  -5.323379e+02   2.441691e+02
  -3.387908e+02  -1.116737e+02
  -5.989550e+01  -3.310603e+02
   1.872503e+02  -2.716912e+02
   1.140228e+02   1.379764e+01
  -9.316262e+01   1.576297e+02
  -2.377934e+02  -1.146645e+01
  -5.564008e+01  -2.323415e+02
   2.050408e+02  -2.017865e+02
   2.060931e+02   6.743238e+01
  -1.208483e+01   2.304964e+02
  -2.378822e+02   5.217520e+01
  -1.884803e+02  -2.558680e+02
  -1.493949e+01  -3.617343e+02
   2.308765e+02  -2.049523e+02
   3.264470e+02   1.918129e+01
   2.774653e+02   1.986484e+02
   1.144010e+02   2.355028e+02
  -1.084413e+02   1.827851e+02
  -2.049461e+02   1.544040e+01
  -7.557889e+01  -3.377522e+01
   8.863532e+01   1.652956e+01
   4.742487e+01   1.331469e+02
  -1.145512e+02   1.372906e+02
  -1.645768e+02  -3.456077e+01
  -6.311012e+01  -8.472054e+01
   9.534176e+01  -5.198025e+01
   6.676369e+01   8.523453e+01
  -9.597845e+01   1.126105e+02
  -2.815676e+02  -5.574681e+00
  -2.673088e+02  -1.605672e+02
  -5.635209e+01  -2.408938e+02
   1.738473e+02  -2.723454e+02
   2.784525e+02  -1.480618e+02
   2.024510e+02   6.426772e+01
  -2.956634e+01   1.084592e+02
  -1.073701e+02  -8.074013e+00
   1.459340e+01  -9.919556e+01
   2.200089e+02  -9.556988e+01
   2.478698e+02   1.233529e+02
   7.704700e+01   2.399066e+02
  -1.288119e+02   1.706805e+02
  -1.257154e+02   2.412936e+01
  -5.652538e+01  -2.231747e+01
   2.497978e+01   3.426570e+00
   5.747187e+01   8.683987e+01
  -7.317088e+01   1.099445e+02
  -1.805019e+02   2.537349e+01
  -1.902222e+02  -1.149193e+02
  -2.514576e+01  -2.192747e+02
   1.924192e+02  -1.629011e+02
   1.931846e+02   8.740812e-01
   5.227723e+01   1.124615e+02
  -8.550299e+01   1.276860e+02
  -9.260569e+01   3.037844e+01
  -2.332127e+01  -2.906923e+00
  -2.283409e-02  -4.420050e+01
  -3.783653e+01   2.149790e-01
  -6.212003e+01  -2.715617e+01
  -8.191180e+01  -7.549152e+01
  -2.825260e+01  -1.544749e+02
   1.299809e+02  -2.005515e+02
   2.264256e+02  -3.895262e+01
   2.163450e+02   1.351966e+02
   2.676730e+01   2.549906e+02
  -1.084917e+02   1.668099e+02
  -1.282139e+02   2.934831e+01
  -6.122833e+01  -7.586680e+01
  -3.297933e+01  -3.212333e+01
  -4.430597e+01   2.647391e+01
  -9.368979e+01  -5.128856e+00
  -3.092652e+01  -4.591746e+01
   8.263984e-01  -8.947060e+01
   9.362532e+01  -6.889633e+01
   6.113285e+01   4.159644e+01
  -1.889649e+01   1.181442e+02
  -1.331432e+02   7.726581e+01
  -1.913716e+02  -5.680307e+01
  -8.977660e+01  -1.934966e+02
   1.298442e+02  -2.327888e+02
   2.613939e+02  -1.132261e+02
   2.617810e+02   2.946870e+01
   1.158506e+02   1.686156e+02
  -2.784656e+01   1.526752e+02
  -1.251290e+02   8.327486e+01
  -8.389300e+01   8.731504e+01
  -4.938907e+01   1.126553e+02
  -7.972254e+01   4.838067e+01
  -9.054641e+01  -2.358492e+01
  -1.164423e+02  -1.208876e+02
  -2.080404e+01  -2.363169e+02
   9.111403e+01  -2.030071e+02
   1.960987e+02  -3.166167e+01
   1.226835e+02   1.399395e+02
   1.855568e+01   1.947499e+02
  -7.754408e+01   1.185376e+02
  -9.643534e+01   2.129222e+01
  -1.706714e+00  -4.741279e+01
   1.370813e+01  -3.350211e+01
  -2.222939e+01   6.996217e+00
  -7.079288e+01  -4.051914e+00
  -4.211739e+01  -3.423378e+01
   5.185188e+01  -3.377313e+01
   1.305326e+02   2.725182e+01
   1.500327e+02   5.304883e+01
   6.798432e+00   9.075782e+01
  -1.515981e+02   7.969037e+01
  -1.455833e+02   4.043232e+00
  -7.113817e+01  -6.191023e+01
   5.486778e+01  -3.757428e+01
   8.243459e+01   2.912714e+01
  -4.259751e+00   5.833394e+01
  -3.893210e+01   7.795603e+01
  -6.384622e+01   1.276850e+01
  -2.216138e+01  -4.925675e+01
  -4.423816e+01  -6.713574e+00
  -5.970027e+01  -1.506961e+01
  -7.860951e+01  -7.225548e+00
  -5.095538e+01  -5.223111e+01
   4.189674e+01  -1.344302e+02
   1.335575e+02  -1.376758e+02
   1.731638e+02  -4.718851e+01
   1.414011e+02   9.799310e+01
   3.120318e+01   1.514581e+02
  -9.296167e+01   9.782407e+01
  -7.404288e+01  -4.311267e+00
   3.030811e+01  -3.911437e+01
   1.514298e+02   4.609359e+01
   6.450298e+01   1.233084e+02
  -7.294887e+01   9.054347e+01
  -1.853473e+02   5.292279e+01
  -1.626845e+02  -1.757627e+01
   1.520660e+00  -1.155219e+02
   6.943499e+01  -7.687797e+01
   7.133975e+01  -1.091622e+01
  -2.465182e+01   5.803245e+01
  -9.985690e+01   7.421691e+00
  -2.661785e+01  -1.203810e+02
   8.481343e+01  -1.206422e+02
   1.626524e+02  -5.281272e+01
   1.275880e+02   9.679111e+01
   1.618640e+01   1.673384e+02
  -1.037359e+02   1.368700e+02
  -9.860005e+01   6.968055e-01
  -7.771320e+01  -9.875621e+01
  -9.233907e+00  -8.575766e+01
   6.325241e+01  -1.965943e+01
   5.436271e+01   3.861317e+01
   2.213953e+01   1.579421e+01
  -3.679518e+01  -1.844783e+01
   3.219179e+00   7.053267e-01
   5.455061e+01   9.273960e+01
   3.244906e+01   1.224863e+02
  -5.917020e+01   9.543258e+01
  -1.366399e+02  -5.056031e+01
  -1.392344e+02  -9.287578e+01
  -1.797276e+01  -5.109178e+01
   1.064567e+02   1.708035e+01
   1.014339e+02  -1.991237e+01
   7.191606e-01   1.058104e+01
  -6.962142e+01   4.507688e+01
  -1.541504e+01   2.372170e+01
   2.946503e+01  -2.257340e+01
   8.015344e+00  -1.605366e+01
  -9.083826e+01   5.684086e+00
  -6.779249e+01  -3.203270e+01
  -9.771581e+00  -8.275538e+01
   1.320589e+02  -1.072805e+02
   1.709708e+02  -5.957636e+01
   1.287997e+02   7.713397e+01
   4.260873e+01   1.378163e+02
  -9.825248e+01   1.281603e+02
  -9.945845e+01   1.737931e+01
  -8.141882e+01  -3.036069e+01
  -5.086360e+01  -4.365072e+01
   1.668126e+01  -9.969113e+00
  -2.511337e+01  -2.260591e+00
  -5.713140e+01  -3.657250e+01
  -3.810508e+01  -7.252523e+01
  -9.506516e+00  -7.530105e+01
   7.011630e+01   1.885669e+01
   6.230572e+01   1.130431e+02
  -1.237011e+01   9.349291e+01
  -8.136543e+01   3.103113e+01
  -1.062827e+02  -1.077528e+02
  -1.094332e+01  -9.438935e+01
   6.436650e+01  -6.939913e+01
   1.080112e+02   2.942876e+00
   6.003277e+01   6.420764e+01
  -4.090648e+01   5.145929e+01
  -1.788027e+01   2.507925e+01
   3.091339e+01   3.552924e+00
   3.087353e+01   7.947378e-01
  -6.632198e+00   3.578593e+01
  -4.316885e+01   4.322781e+01
  -9.570682e+01   6.736578e+01
  -6.911966e+01   5.276628e+00
  -1.210065e+01  -8.147162e+01
   4.798841e+01  -7.055143e+01
   1.541065e+01  -1.987683e+01
   1.085213e+00   3.569998e+01
  -3.549065e+01   4.087483e+01
  -5.765357e+01  -2.285209e+01
  -1.627771e+01  -7.346408e+01
  -9.269342e+00  -4.863229e+01
   4.395998e+01   1.127623e+00
   1.740233e+01   3.403464e+01
   2.481111e+01   2.462889e+00
   2.165113e+01  -9.335975e+00
   2.305909e+00   1.426648e+01
  -2.002602e+01   1.853799e+01
  -1.244500e+01   1.601786e+01
  -7.769893e+00   1.959137e+01
  -4.695026e+00  -3.512092e+01
   8.226081e-01  -3.055380e+01
   4.484662e+01  -4.539820e+01
   2.082183e+01   3.809257e+01
   2.399469e+01   6.479590e+01
  -4.796669e+01   3.034107e+01
  -8.351648e+01   9.534573e+00
  -4.603736e+01  -2.827694e+01
   7.628722e+00  -3.892555e+01
   5.487706e+01  -6.296447e+00
   1.126442e+01  -1.159665e+01
  -4.120418e+01   5.258660e+00
  -5.439424e+01  -1.460497e+01
   2.004998e+01  -4.727643e+01
   1.075580e+02  -1.819209e+01
