
 $NMID
 id='ANONYMOUS ', fmtdat='(2E16.6)'
 volume=1.0
 tramp=1.0
 $END
   3.513906e+03   2.472390e+02
   2.035994e+03   1.933205e+03
  -5.276247e+02   2.188131e+03
  -1.472168e+03   8.077005e+02
  -8.539967e+02  -7.487565e+01
   2.548285e+02  -2.089803e+02
   4.757584e+02   2.266472e+02
  -1.127725e+02   7.080482e+02
  -6.355707e+02   5.658538e+02
  -6.644354e+02   1.002809e+02
  -4.176284e+02  -6.170025e+02
   7.445905e+01  -6.533564e+02
   3.522544e+02  -1.436317e+02
   2.306378e+02   5.466448e+02
  -1.759560e+02   5.608878e+02
  -4.045423e+02   3.573963e+01
  -2.239865e+02  -4.820087e+02
   1.798886e+02  -5.948569e+02
   4.452465e+02  -1.451100e+02
   3.471622e+02   2.332057e+02
   8.877402e+01   2.794956e+02
  -1.102276e+02   2.128178e+02
  -1.122909e+02   9.935658e+01
   1.318220e+02   2.733804e+01
   2.738071e+02   2.303124e+02
   4.986293e+01   3.660308e+02
  -4.533118e+02   2.005569e+02
  -6.626311e+02  -9.851183e+01
  -2.464824e+02  -3.980566e+02
   3.116624e+02  -2.518448e+02
   4.988084e+02   1.140572e+02
   2.250036e+02   3.703576e+02
  -2.526843e+02   3.491611e+02
  -4.171624e+02   1.559463e+02
  -2.910104e+02  -1.642693e+02
  -6.873769e+01  -3.158500e+02
   9.469605e+01  -2.193615e+02
  -8.287135e+00   1.063249e+02
  -2.048664e+02   2.288711e+02
  -2.559803e+02  -1.257350e+02
   7.186954e+00  -5.017259e+02
   2.463384e+02  -4.816522e+02
   4.098283e+02  -3.320484e+00
   7.365203e+01   3.581445e+02
  -1.692780e+02   1.615320e+02
  -2.051989e+02  -2.286711e+02
   8.378280e+01  -3.579330e+02
   4.328209e+02  -5.872205e+01
   4.310774e+02   3.451108e+02
   1.169082e+02   4.607526e+02
  -3.277177e+02   2.260204e+02
  -4.757180e+02  -8.844202e+01
  -2.886103e+02  -3.000300e+02
   9.498315e+01  -2.519658e+02
   3.066724e+02  -5.279129e+01
   1.683029e+02   8.266016e+01
  -3.142425e+01   3.511554e+01
  -5.573476e+01  -6.255465e+01
   1.107556e+02  -5.381448e+01
   2.519958e+02   5.596075e+01
   6.724821e+01   2.432745e+02
  -1.767409e+02   2.145953e+02
  -3.297062e+02   8.794554e+01
  -2.564199e+02  -8.092392e+01
  -1.813054e+00  -2.590919e+02
   2.140809e+02  -3.254470e+02
   3.146914e+02  -1.859451e+02
   2.658357e+02   1.534425e+02
   8.369116e+01   3.460812e+02
  -6.643151e+01   3.583018e+02
  -8.989744e+01   1.756678e+02
  -4.805071e+01   6.467239e+01
  -1.124830e+02   1.116493e+02
  -2.111676e+02   8.676217e+01
  -1.909139e+02  -1.158940e+02
  -9.703093e+01  -2.662145e+02
   8.850389e+01  -2.067279e+02
   2.000598e+02   4.336425e+01
   1.365106e+02   2.603458e+02
  -4.693027e+01   2.373179e+02
  -2.516727e+02   6.737703e+01
  -2.863312e+02  -1.748767e+02
  -2.163724e+02  -3.053951e+02
   3.738033e+01  -2.661267e+02
   1.980604e+02  -1.572542e+02
   1.254134e+02  -8.368957e+01
   1.133404e+02  -5.277358e+01
   2.277277e+02  -5.261051e+01
   3.465899e+02   7.292938e+01
   2.444003e+02   3.213960e+02
  -1.778615e+01   3.929376e+02
  -2.933355e+02   3.447816e+02
  -4.285318e+02   1.166847e+02
  -2.775512e+02  -8.573325e+01
  -3.790811e+01  -2.390087e+02
   1.462159e+02  -1.679656e+02
  -4.807139e+00  -3.113823e+01
  -8.003956e+01   5.983568e+01
  -9.954380e+01  -3.635870e+01
  -1.164193e+01  -1.402260e+02
   9.808810e+01  -8.099868e+01
   9.362394e+01   5.106013e+01
  -2.086250e+01   1.440627e+02
  -1.397802e+02  -7.573969e+00
  -1.358701e+02  -1.980935e+02
   1.347107e+01  -3.164807e+02
   2.105068e+02  -1.812782e+02
   2.980751e+02   5.251016e+01
   2.246944e+02   2.306878e+02
   9.738990e+01   2.492718e+02
  -1.214066e+02   1.646862e+02
  -1.589698e+02   1.153831e+00
  -4.335103e+01  -1.372585e+01
   3.621265e+01   3.781975e+01
  -2.014679e+01   1.249437e+02
  -9.935183e+01   5.199102e+01
  -1.340634e+02  -7.876934e+00
  -3.631051e+01  -3.861105e+01
   6.176455e+01   2.315220e+01
   2.778698e+01   6.545820e+01
  -1.365597e+02   6.814608e+01
  -2.448467e+02  -1.577088e+01
  -2.583751e+02  -1.595717e+02
  -3.247369e+01  -2.229792e+02
   1.721634e+02  -2.066091e+02
   2.135193e+02  -1.240792e+02
   1.278838e+02   3.949860e+01
  -1.707782e+01   7.550123e+01
  -5.554243e+01   1.889351e+01
   5.241321e+01  -5.083958e+01
   1.612293e+02  -1.855651e+01
   1.661374e+02   1.143536e+02
   2.340600e+01   1.974195e+02
  -7.717699e+01   1.255377e+02
  -1.370880e+02  -8.990148e+00
  -5.073889e+01  -4.947276e+01
   3.478215e+01   1.710308e+01
   4.603712e+01   9.998457e+01
  -7.599273e+01   1.181328e+02
  -1.799365e+02   1.740623e+01
  -1.672507e+02  -1.581012e+02
  -1.236597e+01  -1.803424e+02
   1.459020e+02  -1.476209e+02
   1.546456e+02   3.221054e+01
   5.002400e+01   8.812853e+01
  -7.191582e+01   1.035412e+02
  -9.414576e+01   4.559264e+01
  -4.926986e+00  -4.433466e+00
   3.107452e+01  -4.032088e+01
   2.549243e-01  -5.216819e+00
  -7.902283e+01  -3.616835e+01
  -1.161347e+02  -8.676250e+01
  -1.657300e+01  -1.412570e+02
   1.493906e+02  -1.371879e+02
   2.091460e+02  -2.270752e+01
   1.799422e+02   1.434752e+02
   4.414461e+01   2.301825e+02
  -1.107223e+02   1.649392e+02
  -1.028687e+02   3.261340e+01
  -7.909009e+01  -4.529993e+01
  -3.573731e+01  -2.199615e+01
  -4.367687e+01   5.634914e+01
  -1.044664e+02  -6.379753e+00
  -4.950829e+01  -6.988046e+01
   4.084760e+01  -1.030797e+02
   1.038523e+02  -7.690832e+01
   9.976311e+01   3.747279e+01
  -1.012310e+01   1.245565e+02
  -1.471507e+02   9.246738e+01
  -2.010124e+02  -7.087581e+01
  -8.022028e+01  -1.688924e+02
   1.414904e+02  -2.034816e+02
   2.388416e+02  -9.466131e+01
   2.475882e+02   8.978136e+01
   1.056127e+02   1.681039e+02
  -1.071153e+01   1.445261e+02
  -1.127551e+02   9.500907e+01
  -8.172128e+01   9.502759e+01
  -8.001935e+01   8.830248e+01
  -1.032604e+02   6.225509e+01
  -1.332452e+02  -3.812368e+01
  -7.423467e+01  -1.459282e+02
  -7.119632e+00  -2.266822e+02
   7.375039e+01  -1.448839e+02
   1.596836e+02  -2.245690e+01
   1.267170e+02   1.413632e+02
  -9.861208e+00   1.443502e+02
  -7.567913e+01   1.046303e+02
  -7.683051e+01  -1.061291e+00
  -6.840515e+00  -2.259071e+01
  -5.094482e-02  -5.285043e+01
  -2.030717e+01  -2.294474e+01
  -8.647684e+01  -1.403109e+01
  -5.356012e+01  -5.047357e+01
   9.707782e+01  -2.611628e+01
   1.188609e+02   3.690272e+01
   9.671698e+01   5.728981e+01
  -8.656894e-01   7.595472e+01
  -1.525801e+02   3.501658e+01
  -1.565490e+02  -9.106937e+00
  -5.628734e+01  -6.587450e+01
   7.743765e+01  -5.405737e+01
   6.872492e+01   8.916134e+00
   4.325642e+01   6.773374e+01
  -7.800900e+01   6.751543e+01
  -5.902458e+01   3.983162e+00
  -3.436079e+01  -2.415835e+01
  -3.404156e+01  -6.400044e+00
  -7.321398e+01  -4.303408e+00
  -9.106318e+01  -6.289044e+00
  -5.027342e+01  -2.075024e+01
   4.816243e+01  -1.144779e+02
   1.361041e+02  -1.111258e+02
   1.767189e+02  -4.345554e+01
   9.623689e+01   1.061460e+02
   6.335454e+00   1.088060e+02
  -6.160118e+01   7.344235e+01
  -2.909276e+01  -1.098479e+01
   6.927405e+01   6.621843e+00
   1.216926e+02   4.607568e+01
   2.809328e+01   5.582987e+01
  -5.431062e+01   1.101060e+02
  -1.650832e+02   6.883644e+00
  -1.431033e+02  -2.505989e+01
  -2.077179e+01  -5.053596e+01
   4.294754e+01  -5.664572e+01
   4.533624e+01   4.635176e+00
  -3.407450e+01   1.840907e+01
  -6.927455e+01  -2.684850e+01
  -2.541070e+01  -1.000821e+02
   9.245485e+01  -1.576146e+02
   1.519327e+02  -5.661204e+01
   1.117744e+02   1.118416e+02
   8.128774e-01   1.611510e+02
  -6.104561e+01   1.449171e+02
  -6.208368e+01  -1.560620e+01
  -6.674697e+01  -8.984095e+01
  -3.351242e+00  -9.383133e+01
   3.775153e+01  -5.245123e+01
   5.346082e+01   1.331986e+01
   2.175052e+01   2.167762e+01
   1.244262e+01  -1.093332e+01
   2.087047e+01   1.670896e+01
   5.907097e+01   6.866436e+01
   2.248166e+01   7.731022e+01
  -3.145020e+01   2.625970e+01
  -1.298730e+02  -1.886673e+01
  -8.829485e+01  -9.029174e+01
  -2.592465e+01  -3.587350e+01
   1.072511e+02  -9.215711e+00
   3.780273e+01   5.412316e+00
   2.300788e+01  -9.527413e+00
  -1.130064e+01   3.061175e+01
  -1.964124e+01   3.132002e+01
   1.149385e+01   7.634105e+00
   3.729077e+00  -3.483068e+01
  -4.533111e+01   7.113819e+00
  -6.087065e+01  -3.602425e+01
   9.512103e+00  -6.804326e+01
   8.709441e+01  -9.414404e+01
   1.556906e+02  -5.882663e+01
   1.282626e+02   2.822908e+01
   2.092641e+01   1.723674e+02
  -3.142685e+01   1.445852e+02
  -1.099281e+02   7.628776e+01
  -6.632420e+01  -2.271203e+01
  -1.234470e+01  -2.624026e+01
  -4.069052e+01  -1.504480e+01
   6.496645e+00  -7.053653e+00
  -1.655772e+01  -5.262918e+01
  -1.183967e+01  -6.022730e+01
  -8.347779e+00  -5.201429e+01
   8.929889e+01   2.285721e+01
   8.301826e+01   5.795221e+01
  -1.765468e+01   9.494418e+01
  -6.352839e+01   1.818600e+01
  -1.061074e+02  -3.146831e+01
  -1.299577e+01  -8.430453e+01
   7.560692e+01  -4.472170e+01
   5.674123e+01  -4.214797e+01
   5.211658e+01   5.086247e+01
  -4.042184e+01   7.883839e+01
  -7.495830e+01   2.630824e+01
   1.049250e+01   1.491575e+01
   3.018092e+01  -2.617722e+01
   2.535102e+00   1.977053e+01
  -1.316026e+02   4.811520e+01
  -1.305835e+02   5.595783e+01
  -4.752789e+01  -1.412416e+01
   3.021525e+01  -7.333462e+01
   1.765190e+01  -1.070960e+02
   6.469504e+01   1.348267e+01
  -1.344752e+01   4.222004e+01
  -1.584839e+01   4.371860e+01
  -3.399096e+01  -1.706643e+01
  -2.475484e+01  -4.006518e+01
  -1.966854e+00  -4.089535e+01
   2.212063e+01   5.700598e+00
   4.361708e+01   2.387611e+01
   4.365665e+01   3.404551e+01
  -6.769798e+00  -1.251127e+01
  -1.045512e+01   2.246025e+01
  -2.591964e+01   3.247634e+01
  -3.701334e+01   4.471023e+01
  -2.789572e+01  -5.248939e+00
  -9.967710e+00  -4.594352e+01
  -8.958888e+00  -4.973863e+01
   6.346858e+01  -3.435176e+01
   5.023952e+01   3.248251e+01
   3.771173e+00   6.168805e+01
  -4.557279e+01   2.432267e+01
  -5.725874e+01  -1.028636e+01
  -2.417106e+01  -2.230219e+01
   9.305222e+00  -3.103612e+01
   3.615951e+01  -4.274161e+01
   2.863301e+01   5.292150e+00
  -2.631328e+00  -2.717700e+01
  -3.160790e+01   3.156805e+00
   3.602707e+01  -2.457939e+01
   8.366069e+01  -1.463879e+01
