
 $NMID
 id='ANONYMOUS ', fmtdat='(2E16.6)'
 volume=1.0
 tramp=1.0
 $END
   3.018805e+03  -2.444898e+02
   2.522955e+03   1.476123e+03
   1.910684e+02   2.255632e+03
  -1.261678e+03   1.144396e+03
  -1.041652e+03   2.253325e+02
  -7.235186e+01  -1.518313e+02
   2.648383e+02   1.205094e+02
   5.326321e+01   4.691082e+02
  -4.438183e+02   5.118099e+02
  -6.332855e+02   7.656341e+01
  -4.050722e+02  -5.065999e+02
   2.265649e+00  -6.127850e+02
   2.776351e+02  -2.315805e+02
   2.418804e+02   3.923261e+02
  -1.689663e+02   5.218784e+02
  -4.046731e+02   9.092449e+01
  -3.032858e+02  -4.050557e+02
   1.328741e+02  -5.753305e+02
   4.146581e+02  -2.458598e+02
   4.399425e+02   1.824541e+02
   1.610177e+02   3.075725e+02
  -1.016341e+02   2.615947e+02
  -5.886324e+01   1.043231e+02
   1.645475e+02   8.932047e+01
   2.165763e+02   2.961887e+02
  -4.219366e+01   3.046154e+02
  -4.577410e+02   1.519661e+02
  -4.717263e+02  -1.825582e+02
  -1.482090e+02  -3.474951e+02
   2.527597e+02  -1.450914e+02
   4.451980e+02   1.768337e+02
   1.487155e+02   3.245875e+02
  -2.765441e+02   2.930057e+02
  -3.416128e+02   1.081944e+02
  -2.962003e+02  -1.802110e+02
  -8.640798e+01  -2.503231e+02
   3.872509e+01  -1.554834e+02
  -5.744970e+01   9.027024e+01
  -9.858483e+01   1.111492e+02
  -1.339547e+02  -6.429864e+01
  -2.802641e+00  -3.470100e+02
   1.821608e+02  -3.926507e+02
   2.789053e+02   1.323522e+01
   8.781599e+01   2.144429e+02
  -1.243242e+02   6.039718e+01
  -1.316585e+02  -2.428569e+02
   1.066557e+02  -3.361911e+02
   3.447532e+02  -2.699843e+01
   3.357278e+02   3.201277e+02
   1.445178e+02   4.091954e+02
  -2.424446e+02   2.198948e+02
  -4.400426e+02  -4.009316e+01
  -3.009724e+02  -2.273183e+02
   3.418235e+01  -2.188582e+02
   2.554576e+02  -5.866425e+01
   2.163860e+02   8.229613e+00
   2.239601e+01   2.122517e+01
  -3.011645e+00   3.557635e+00
   1.041940e+02  -7.710527e+00
   2.017010e+02   5.199051e+01
   5.591770e+01   1.472418e+02
  -1.146396e+02   2.386396e+02
  -2.718674e+02   8.219696e+01
  -2.160435e+02  -1.299998e+02
   8.083340e+00  -3.217724e+02
   2.823694e+02  -3.032135e+02
   3.267271e+02  -1.720341e+02
   2.018831e+02   1.634604e+02
   2.916166e+01   3.509881e+02
  -1.987753e+01   3.061345e+02
  -7.037276e+01   1.626410e+02
  -3.704174e+01   1.025968e+02
  -1.507207e+02   7.243411e+01
  -2.301092e+02   1.888066e+01
  -1.852708e+02  -1.133870e+02
  -7.527988e+01  -2.077192e+02
   8.453152e+01  -1.127739e+02
   1.648200e+02   6.046223e+01
   8.705348e+01   2.508821e+02
  -6.797957e+01   1.984946e+02
  -2.182052e+02   2.736981e+01
  -2.850493e+02  -1.589503e+02
  -1.545573e+02  -2.898119e+02
   7.727816e+01  -2.313804e+02
   1.538045e+02  -1.199611e+02
   1.365737e+02  -8.235855e+01
   1.459213e+02  -6.135323e+01
   2.249141e+02  -3.871795e+01
   3.281926e+02   1.119073e+02
   2.159342e+02   2.852650e+02
  -5.906309e+01   3.517630e+02
  -3.252048e+02   2.837534e+02
  -3.601716e+02   1.266681e+02
  -2.328530e+02  -8.105901e+01
  -2.391199e+01  -1.872745e+02
   7.539070e+01  -1.338085e+02
  -2.768904e+00  -3.965121e+01
  -6.933706e+01   2.581052e+01
  -1.209513e+02  -4.385295e+01
  -1.232995e+01  -1.231819e+02
   1.176126e+02  -4.713383e+01
   4.641032e+01   5.818150e+01
  -4.701654e+01   1.421204e+02
  -1.250766e+02  -1.646930e+01
  -1.005533e+02  -2.106589e+02
   2.662043e+01  -2.841027e+02
   1.875329e+02  -1.360442e+02
   3.019540e+02   3.163711e+01
   2.161234e+02   2.004736e+02
   3.669710e+01   2.342912e+02
  -1.071648e+02   9.852591e+01
  -1.397162e+02   1.564359e+01
  -2.036616e+01  -9.544789e+00
   3.087635e+01   7.688679e+01
  -6.794096e+00   1.170671e+02
  -1.068778e+02   2.562082e+01
  -1.276866e+02  -1.453640e+01
  -5.030709e+01  -5.734963e+01
   8.106355e+01  -8.675514e-01
   1.793922e+01   8.722456e+01
  -1.789922e+02   9.783029e+01
  -2.462817e+02  -5.652362e+01
  -2.425080e+02  -1.673419e+02
  -3.698962e+01  -2.330629e+02
   2.292634e+02  -2.178198e+02
   2.457594e+02  -9.183598e+01
   1.628710e+02   3.480000e+01
  -3.600522e+01   8.668592e+01
  -5.000026e+01   1.306214e+01
   5.557752e+01  -6.741200e+01
   1.377292e+02  -7.564391e+00
   1.646403e+02   9.163881e+01
   6.306798e+01   1.625646e+02
  -6.851141e+01   1.291422e+02
  -1.168669e+02   1.508101e+01
  -2.867349e+00  -3.761162e+01
   5.699069e+01   1.018579e+01
   5.242376e+01   1.093956e+02
  -6.857823e+01   1.021235e+02
  -1.694951e+02   3.750746e+00
  -1.606958e+02  -1.210556e+02
  -2.648814e+01  -1.896216e+02
   1.271894e+02  -1.318190e+02
   1.491301e+02   2.829732e+01
   6.517434e+01   6.817297e+01
  -5.423323e+01   7.046140e+01
  -5.730830e+01   3.790465e+01
   1.796994e+01  -1.847015e+01
   4.492335e+01  -3.428285e+01
   1.205322e+01   2.297433e+01
  -7.869783e+01   2.653174e+01
  -8.754037e+01  -8.977772e+01
  -1.357898e+01  -1.662121e+02
   1.306932e+02  -9.756337e+01
   2.235985e+02   1.628727e+01
   1.545367e+02   1.769838e+02
   4.488762e+01   1.907521e+02
  -7.609042e+01   1.466981e+02
  -6.461146e+01  -4.965344e+00
  -8.405205e+01  -1.039348e+01
  -2.604561e+01  -2.516141e+01
  -5.432331e+01   1.658646e+01
  -6.238540e+01  -2.616875e+01
  -6.474106e+01  -7.851582e+01
   3.309462e+01  -6.664650e+01
   1.113820e+02  -5.726068e+01
   1.096052e+02   5.089232e+01
  -1.288061e+01   1.076513e+02
  -1.340408e+02   8.195135e+01
  -2.017838e+02  -1.980025e+01
  -8.656114e+01  -1.791037e+02
   1.204332e+02  -1.669884e+02
   2.496350e+02  -5.504081e+01
   1.624189e+02   9.199550e+01
   9.674284e+01   1.489702e+02
  -1.163469e+01   1.018122e+02
  -9.147626e+01   7.718150e+01
  -6.704165e+01   6.283009e+01
  -9.627766e+01   1.033354e+02
  -9.251996e+01   5.799213e+01
  -1.131744e+02  -3.013943e+01
  -8.346313e+01  -1.398789e+02
  -3.090656e+00  -2.197116e+02
   1.151629e+02  -1.386302e+02
   1.749879e+02   1.606543e+01
   1.234715e+02   1.317800e+02
   1.482068e+00   1.381585e+02
  -5.508278e+01   9.566585e+01
  -5.788762e+01   1.951481e+00
   1.500782e+00  -5.490090e+01
   2.311871e+01  -3.276120e+01
  -2.269350e+01  -1.847855e+01
  -1.003013e+02  -3.295955e+00
  -1.780808e+01  -5.819688e+01
   8.898443e+01  -3.527689e+01
   1.502278e+02  -3.379282e+00
   9.598148e+01   5.100694e+01
   1.768573e+01   6.773541e+01
  -1.022982e+02   7.572517e+01
  -1.645919e+02   6.145731e+00
  -5.590211e+01  -4.353586e+01
   6.778556e+01  -4.887757e+01
   8.224359e+01   7.589097e+00
   5.718226e+01   6.102824e+01
  -1.545042e+01   6.811556e+01
  -6.026412e+01   8.754535e+00
  -4.101020e+01  -5.634260e+01
  -5.372569e+01  -2.641645e+01
  -3.734980e+01  -1.364751e+00
  -5.343502e+01   1.241208e+01
  -5.091043e+01  -4.645565e+01
   1.938388e+01  -1.693351e+02
   1.419731e+02  -1.361637e+02
   1.569657e+02  -3.838787e+01
   1.207431e+02   1.109667e+02
   3.660756e+00   1.220417e+02
  -9.806206e+01   5.942224e+01
  -3.958041e+01  -2.094395e+01
   5.636782e+01  -2.946232e+01
   1.044095e+02   4.620015e+01
   6.473276e+01   1.145718e+02
  -7.145803e+01   6.794027e+01
  -1.802577e+02   1.842390e+01
  -1.519532e+02  -2.112347e+01
  -2.682232e+01  -8.685229e+01
   4.949503e+01  -5.627116e+01
   4.759127e+01   1.429065e+01
  -4.698026e+01   2.576613e+01
  -6.109802e+01  -3.346180e+01
  -6.073670e+00  -8.826144e+01
   7.934849e+01  -1.294123e+02
   1.352562e+02  -6.089486e+01
   1.282572e+02   8.947882e+01
  -1.913065e+00   1.901999e+02
  -8.433880e+01   1.390834e+02
  -1.074831e+02  -2.360190e+01
  -4.454634e+01  -1.131186e+02
  -1.343225e+01  -7.078176e+01
   2.458621e+01   3.490718e+00
   2.032349e+01   5.664672e+01
   1.152457e+01   1.437751e+01
  -2.289437e+01  -2.232322e+01
   2.817460e+01   1.619438e+01
   5.966539e+01   3.210296e+01
   2.634623e+01   8.176952e+01
  -6.652630e+01   1.996540e+01
  -1.429572e+02  -2.970530e+01
  -9.026483e+01  -5.279672e+01
  -1.336517e+01  -4.725060e+01
   7.047175e+01  -4.737880e+01
   6.838248e+01   3.269438e+00
   3.647583e+01   2.748930e+01
  -3.301529e+01   6.450051e+00
   1.061866e+01   2.073353e+01
   2.842441e+00  -2.964291e+01
   2.581922e+00   1.569656e+00
  -4.378457e+01   3.548505e+01
  -1.066123e+02   3.655414e+00
  -4.070624e+01  -7.888512e+01
   9.425545e+01  -1.064823e+02
   1.924463e+02  -5.077437e+01
   1.576211e+02   4.324085e+01
   5.545087e+01   1.643899e+02
  -6.779026e+01   1.391647e+02
  -9.596086e+01   6.782560e+01
  -8.074650e+01  -4.726041e+01
  -1.116187e+00  -3.909948e+01
  -2.769154e+01  -9.423738e+00
  -1.880363e+01   7.473268e+00
  -2.668636e+01  -6.680118e+01
  -2.901031e+01  -1.007330e+02
   2.365377e+01  -9.333500e+01
   1.259293e+02  -1.434396e+01
   8.230929e+01   9.155528e+01
   6.731470e+00   1.399405e+02
  -7.735277e+01   7.476165e+00
  -1.059965e+02  -6.404870e+01
  -5.441238e+01  -1.018017e+02
   6.582413e+01  -9.167594e+01
   8.063605e+01  -4.323920e+00
   3.920274e+01   5.407532e+01
  -3.186703e+01   7.572062e+01
  -4.959828e+01   4.907946e+00
   2.401825e+01  -3.581223e+01
   8.406107e+01   1.443791e+00
   5.628814e+01   2.363186e+01
  -1.180527e+02   7.111604e+01
  -1.184283e+02   4.996937e+01
  -6.155175e+01  -2.546872e+01
   4.477091e+01  -8.284139e+01
   2.412390e+01  -5.746164e+01
   3.997895e+01  -1.454631e+01
   4.671038e+01   4.620036e+01
  -4.135618e+01   2.301821e+01
  -1.679522e+01  -3.334822e+01
  -1.290583e+01  -5.103185e+01
   3.349682e+01  -4.634079e+01
   3.247020e+01   1.849977e+01
   4.355167e+01   3.639211e+01
   2.939366e+01   4.566456e+00
  -2.062262e+01  -2.906807e+01
  -6.793769e+00  -1.627136e+01
   9.319468e+00   2.604985e+01
  -3.403839e+01   6.103167e+01
  -1.742294e+01   4.463209e+01
  -2.607431e+01  -3.256286e+01
  -1.102012e+01  -5.258692e+01
   3.696556e+01  -1.770503e+01
   6.542087e+01   1.260058e+01
   4.259387e+01   9.533851e+01
  -1.697944e+01   4.267840e-01
  -1.050552e+02  -3.439801e+01
  -5.984526e+01  -5.142727e+01
   3.919521e+01  -4.628344e+01
   4.050003e+01  -1.760869e+01
   8.276303e+00  -1.874568e+01
  -2.550470e+01  -2.075588e+01
  -4.953236e+01  -1.725657e+01
   5.859833e+01  -2.071108e+01
   6.790876e+01  -1.680540e+01
