
 $NMID
 id='ANONYMOUS ', fmtdat='(2E16.6)'
 volume=1.0
 tramp=1.0
 $END
   3.039968e+03   2.313624e+02
   1.791952e+03   1.694026e+03
  -2.844613e+02   1.711712e+03
  -1.541029e+03   8.078900e+02
  -7.799290e+02  -1.446007e+02
   2.199445e+02  -2.676444e+02
   5.499787e+02   1.918226e+02
   1.066346e+02   7.199978e+02
  -4.846241e+02   6.234471e+02
  -6.524724e+02   1.427906e+01
  -3.767950e+02  -5.780804e+02
   8.549721e+01  -6.377788e+02
   4.235000e+02  -2.256976e+02
   3.714253e+02   4.284692e+02
  -1.036237e+02   5.438116e+02
  -4.490204e+02   4.071863e+01
  -2.395624e+02  -4.812675e+02
   1.684206e+02  -5.863333e+02
   4.399477e+02  -1.702792e+02
   3.535070e+02   2.681233e+02
   3.439592e+01   3.188493e+02
  -1.933982e+02   2.017200e+02
  -1.516060e+02   1.937552e+01
   1.570219e+02  -3.396612e+01
   3.288800e+02   1.658929e+02
   9.451655e+01   3.369597e+02
  -3.620259e+02   2.477035e+02
  -5.910769e+02   1.055083e+01
  -3.018344e+02  -3.460238e+02
   2.583482e+02  -3.050442e+02
   5.701535e+02   6.658986e+01
   2.872369e+02   3.714473e+02
  -2.002521e+02   3.603038e+02
  -4.694890e+02   1.902949e+02
  -3.060874e+02  -1.768660e+02
  -5.741145e+01  -3.389447e+02
   1.002745e+02  -2.114842e+02
   4.375134e+01   1.155447e+02
  -1.907762e+02   2.702810e+02
  -3.351087e+02  -1.062701e+02
  -1.437368e+02  -4.685598e+02
   1.935317e+02  -4.158558e+02
   4.099760e+02   1.713529e-01
   1.535504e+02   3.816905e+02
  -2.031531e+02   2.053869e+02
  -2.877068e+02  -2.016729e+02
   1.854326e+01  -3.912737e+02
   4.113578e+02  -9.564553e+01
   4.442578e+02   2.805720e+02
   1.537244e+02   4.190698e+02
  -2.819563e+02   3.015697e+02
  -5.281853e+02   1.681035e+00
  -2.739270e+02  -2.307570e+02
   7.099703e+01  -2.648873e+02
   2.997863e+02  -5.866464e+01
   1.991062e+02   1.174475e+02
  -7.982475e+01   1.047545e+02
  -1.131842e+02  -5.577334e+01
   5.740946e+01  -1.256900e+02
   2.377393e+02  -4.415963e+00
   1.325858e+02   1.577222e+02
  -1.309416e+02   2.373838e+02
  -2.730305e+02   1.027496e+02
  -2.191697e+02  -7.262228e+01
  -4.813405e+01  -2.136534e+02
   1.718574e+02  -3.255761e+02
   2.905591e+02  -1.791276e+02
   1.913392e+02   1.098354e+02
   1.067412e+02   3.217982e+02
  -6.223639e+01   3.199188e+02
  -6.223863e+01   9.205536e+01
  -1.152506e+01   1.778034e+01
  -4.831382e+01   3.989329e+01
  -1.250650e+02   7.436489e+01
  -2.199941e+02  -7.495854e+01
  -9.106632e+01  -2.161564e+02
   6.933040e+01  -2.256519e+02
   1.620729e+02  -2.085432e+00
   1.561442e+02   1.797376e+02
  -2.124337e+01   2.259180e+02
  -1.985326e+02   9.630912e+01
  -3.240952e+02  -1.237238e+02
  -1.994816e+02  -2.499500e+02
   2.186745e+01  -2.603966e+02
   1.727914e+02  -1.561803e+02
   1.500320e+02  -1.038418e+01
   7.827529e+01  -5.332069e+01
   1.838835e+02  -4.802508e+01
   3.354784e+02   2.674332e+01
   2.725467e+02   2.433977e+02
   6.752928e+00   3.392798e+02
  -2.538406e+02   3.475338e+02
  -3.918638e+02   2.124912e+02
  -2.434085e+02  -7.248971e+01
  -5.226698e+01  -2.115833e+02
   9.160826e+01  -1.670650e+02
   4.421943e+01  -4.097923e+01
  -8.197269e+01   5.588341e+01
  -1.052728e+02  -7.068890e+00
  -3.381794e+01  -1.139316e+02
   1.005192e+02  -1.010882e+02
   9.824810e+01   2.383817e+01
   1.975634e+01   1.352439e+02
  -1.319069e+02   5.730423e+01
  -1.395757e+02  -1.674518e+02
   2.079049e-01  -2.366164e+02
   1.606286e+02  -1.994434e+02
   2.584682e+02   3.712069e+01
   1.877645e+02   2.010146e+02
   8.230074e+01   2.154426e+02
  -1.186455e+02   1.283611e+02
  -1.135386e+02   1.976480e+01
  -2.140385e+01  -2.897919e+01
   4.671613e+01   2.801743e+01
   1.022631e+01   8.508644e+01
  -1.129294e+02   6.422674e+01
  -1.489466e+02  -3.106955e+01
  -3.593829e+01  -4.644338e+01
   8.205175e+01   1.396156e+01
   5.086023e+01   3.533710e+01
  -9.256365e+01   9.822613e+01
  -2.457434e+02  -1.380213e+01
  -1.936080e+02  -1.101415e+02
  -2.123915e+01  -2.112540e+02
   1.561043e+02  -2.047939e+02
   2.107831e+02  -7.851778e+01
   1.242560e+02   1.026381e+01
  -2.781739e+01   8.411146e+01
  -9.327122e+01   1.542698e+01
   3.439440e+01  -8.123184e+01
   1.538336e+02  -5.737530e+01
   1.793226e+02   5.343519e+01
   7.702601e+01   1.951677e+02
  -6.969292e+01   1.021247e+02
  -8.817981e+01   1.844368e+01
  -8.795615e+00  -3.503692e+01
   2.600084e+01   1.450461e+01
   6.659365e+01   5.829155e+01
  -3.341106e+01   1.194772e+02
  -1.695860e+02   4.166084e+01
  -1.759336e+02  -1.065164e+02
  -5.073958e+00  -1.812359e+02
   1.185383e+02  -1.311799e+02
   1.634718e+02  -3.305697e+00
   6.449024e+01   6.428012e+01
  -4.189079e+01   4.011623e+01
  -7.389784e+01   3.636785e+01
  -2.351305e+01  -6.081323e+00
   3.405553e+01  -1.437120e+01
  -8.476107e+00   1.404131e+01
  -7.471825e+01  -2.355647e+01
  -1.022389e+02  -7.801353e+01
  -2.953520e+00  -1.235781e+02
   1.389525e+02  -1.319499e+02
   2.105298e+02   1.665221e+01
   1.713380e+02   1.449832e+02
   2.956720e+01   1.948709e+02
  -6.367051e+01   1.143649e+02
  -9.913461e+01   5.251299e+01
  -4.744929e+01  -4.644598e+01
   1.217193e+01  -2.010015e+01
  -2.948690e+01   2.952385e+01
  -7.995915e+01   3.886593e+01
  -5.129749e+01  -5.009269e+01
   1.656035e+01  -9.402111e+01
   9.825037e+01  -4.931921e+01
   1.213558e+02   2.981091e+01
   5.091334e+00   8.326140e+01
  -9.811282e+01   1.012843e+02
  -1.567025e+02  -4.205502e+01
  -1.023294e+02  -1.773714e+02
   8.765548e+01  -1.808055e+02
   2.406193e+02  -8.137651e+01
   1.825870e+02   5.595646e+01
   9.280799e+01   1.329881e+02
  -5.961710e+01   1.120007e+02
  -4.990856e+01   7.695736e+01
  -5.454731e+01   5.343149e+01
  -2.618361e+01   6.156886e+01
  -8.068397e+01   7.126326e+01
  -1.108192e+02  -1.064643e+01
  -8.107147e+01  -1.084766e+02
   6.236296e+00  -1.854119e+02
   9.023074e+01  -1.430395e+02
   1.878033e+02  -1.633796e+01
   1.019536e+02   1.126031e+02
   4.824283e+00   1.525843e+02
  -5.560498e+01   7.862707e+01
  -4.736374e+01   8.507675e+00
  -2.122818e+00  -2.069807e+01
   2.435911e+01  -5.979445e+01
  -1.307399e+01  -1.206039e+01
  -6.106311e+01   8.970362e+00
  -4.495659e+01  -3.130894e+01
   4.249975e+01  -2.724155e+01
   1.559093e+02  -4.636891e+01
   1.195134e+02   1.779949e+01
   2.259120e+01   7.418448e+01
  -1.175201e+02   7.740816e+01
  -1.010434e+02  -6.495351e+00
  -4.399671e+01  -3.390195e+01
   5.869745e+01  -5.475669e+01
   3.794905e+01  -6.892768e+00
   1.293218e-01   4.770135e+01
  -2.421000e+01   5.307915e+01
  -5.210669e+01   1.969263e+01
  -7.480218e+01  -5.073456e+01
  -2.735001e+01  -4.314428e+01
  -6.070711e+01  -1.039821e+01
  -2.315217e+01  -9.659995e-01
  -5.594831e+01  -7.523239e+01
   2.644672e+01  -1.180853e+02
   1.115250e+02  -1.236017e+02
   1.431841e+02  -2.570466e+01
   1.071952e+02   7.768844e+01
   2.675995e+01   9.036364e+01
  -7.746900e+01   6.350056e+01
  -6.624541e+01  -9.521278e+00
   5.113153e+01  -3.803306e+01
   1.316758e+02  -4.513464e+00
   8.921822e+01   1.090273e+02
  -6.660506e+01   1.210366e+02
  -1.596743e+02   9.134127e+01
  -1.073064e+02  -7.367496e-01
  -4.013600e+01  -9.719948e+01
   6.327346e+01  -3.780888e+01
   7.176301e+01  -1.647871e+01
  -2.653316e+01   2.595291e+01
  -6.945970e+01  -8.326564e+00
  -2.387318e+01  -1.007034e+02
   6.093794e+01  -1.239777e+02
   1.188324e+02  -5.562044e+01
   1.052984e+02   7.237529e+01
   4.466370e+01   1.609896e+02
  -1.178196e+02   1.371686e+02
  -1.165631e+02   2.049871e+00
  -6.177225e+01  -9.303059e+01
  -1.567055e+01  -1.092776e+02
   1.733468e+01   1.232658e+01
   1.443673e+01   4.247647e+01
   2.069983e+01   2.678035e+01
   1.483526e+00   4.522918e+00
   1.927209e+01   2.001217e+01
   5.514095e+01   1.068240e+02
   2.771955e+01   7.807122e+01
  -5.861229e+01   5.548780e+01
  -1.207795e+02  -3.214546e+01
  -1.319954e+02  -6.177166e+01
  -1.421810e+00  -4.377914e+01
   7.989801e+01  -3.990807e+01
   6.574388e+01   2.186351e-01
  -3.258298e+00   1.535634e+01
  -5.325818e+01   3.568950e+01
  -3.087457e+01  -1.922562e+01
   4.463550e+00  -3.430853e+01
   1.227948e+01   1.367917e+00
  -5.283096e+01   2.545314e+01
  -8.413327e+01  -3.763001e+01
  -9.043474e+00  -8.737231e+01
   6.736774e+01  -8.450204e+01
   1.404491e+02  -6.595743e+01
   1.524897e+02   5.644089e+01
   2.642863e+01   1.387652e+02
  -5.672784e+01   1.623011e+02
  -1.307254e+02   3.522775e+01
  -5.800553e+01   1.757046e+00
  -1.471384e+01  -1.175100e+01
   2.865311e+00  -1.327856e+01
   6.113885e+00  -5.591012e-01
  -2.840548e+01  -2.551847e+01
  -2.095944e+01  -4.023369e+01
   1.589365e+01  -5.700676e+01
   4.956618e+01   3.815880e+00
   4.282957e+01   5.033506e+01
   3.051504e+01   1.027126e+02
  -5.959602e+01   3.904591e+01
  -1.000959e+02  -4.805064e+01
  -5.817477e+01  -6.952299e+01
   3.621021e+01  -5.619327e+01
   8.475346e+01  -1.734200e+01
   4.247275e+01   7.045032e+01
  -2.497458e+01   6.735149e+01
  -5.693328e+01   2.208296e+01
   2.643563e+01  -8.620403e+00
   4.172941e+01  -8.479387e+00
   1.459556e+01   1.210438e+01
  -6.376851e+01   4.780423e+01
  -1.115145e+02   3.539448e+01
  -3.747350e+01   1.747020e+01
   1.138078e+01  -5.256023e+01
   2.532811e+01  -4.803309e+01
   3.525965e+01  -4.974898e+00
   4.392502e+01   5.065152e+01
  -2.354170e+01   6.807437e+01
  -2.190245e+01  -1.762301e+01
  -3.359363e+00  -3.306442e+01
   1.483483e+01  -2.443290e+01
   3.787446e+01   3.217492e+01
   1.813441e+01   6.179569e+01
   2.599019e+01   2.574716e+01
  -6.871438e+00  -2.384626e+01
   2.222867e+01   1.396112e+01
  -7.179525e+00   3.256733e+01
  -2.434290e+01   4.893957e+01
  -2.342741e+01   1.350945e+01
  -4.116241e+01  -2.649357e+00
  -3.716644e+00  -5.364785e+01
   5.769264e+00  -1.580366e+01
   7.903984e+01   1.796861e+01
   5.083670e+01   8.667609e+01
  -5.706046e+01   5.402708e+01
  -7.578412e+01   2.419844e+01
  -3.425078e+01  -1.432592e+01
   2.546431e+01  -2.531568e+01
   3.456163e+01  -2.318422e+01
   1.052158e+01  -7.691793e+00
  -8.834587e+00   1.514180e+01
  -4.763419e+00  -3.168967e-01
   1.816635e+01  -1.339185e+01
   8.257550e+01   4.894903e-01
