
 $NMID
 id='ANONYMOUS ', fmtdat='(2E16.6)'
 volume=1.0
 tramp=1.0
 $END
   4.543144e+03  -3.072627e+02
   2.493500e+03   2.127572e+03
  -5.030692e+02   2.826439e+03
  -2.199503e+03   1.035636e+03
  -1.037420e+03  -4.745898e+02
   5.995931e+02  -6.323706e+02
   8.902629e+02   3.529989e+02
   9.378185e+01   1.091441e+03
  -8.383841e+02   8.364821e+02
  -1.053663e+03  -1.982785e+01
  -5.367459e+02  -8.718059e+02
   2.433065e+02  -9.305365e+02
   6.321707e+02  -1.833140e+02
   4.157580e+02   7.524094e+02
  -2.246250e+02   7.738990e+02
  -6.485002e+02   3.539711e+01
  -3.590406e+02  -6.534387e+02
   3.147611e+02  -6.992891e+02
   5.763185e+02  -2.074743e+02
   4.488438e+02   3.855829e+02
   3.693721e+01   4.805110e+02
  -2.676377e+02   2.826631e+02
  -2.515149e+02  -1.685560e+01
   1.528089e+02  -9.552508e+01
   4.510806e+02   1.375566e+02
   2.248744e+02   5.014246e+02
  -4.762469e+02   4.143788e+02
  -8.643334e+02  -5.988121e+01
  -4.615612e+02  -5.174782e+02
   3.544349e+02  -5.107980e+02
   7.566159e+02   2.085443e+01
   4.178215e+02   4.776523e+02
  -2.510113e+02   5.559638e+02
  -5.515134e+02   2.540670e+02
  -4.453217e+02  -2.223748e+02
  -3.763491e+01  -4.840603e+02
   1.880338e+02  -2.726422e+02
   1.582952e+02   2.167369e+02
  -1.598167e+02   4.322000e+02
  -4.705930e+02  -1.792185e+01
  -2.841524e+02  -6.728191e+02
   3.011778e+02  -6.832259e+02
   5.751284e+02  -6.054591e+01
   2.891889e+02   4.945202e+02
  -2.798196e+02   3.575560e+02
  -4.424090e+02  -3.103364e+02
   6.742307e+01  -5.551255e+02
   5.810182e+02  -1.619075e+02
   6.086812e+02   4.083636e+02
   1.996595e+02   6.723313e+02
  -4.450315e+02   3.906967e+02
  -6.618861e+02  -8.898817e+01
  -3.660200e+02  -4.515982e+02
   1.926983e+02  -3.870981e+02
   4.599614e+02  -2.365316e+01
   2.207580e+02   1.979406e+02
  -1.540565e+02   1.262858e+02
  -1.513118e+02  -1.356511e+02
   1.299239e+02  -2.002924e+02
   3.062790e+02   8.996110e+00
   1.476101e+02   3.332203e+02
  -2.051716e+02   2.880995e+02
  -3.081564e+02   1.198797e+02
  -2.778436e+02  -8.872492e+01
   2.051903e+01  -3.002267e+02
   2.318746e+02  -3.621174e+02
   3.527353e+02  -2.265451e+02
   3.164631e+02   1.629205e+02
   1.147642e+02   4.322183e+02
  -1.175358e+02   3.981675e+02
  -7.707645e+01   8.362972e+01
  -1.970049e+01   1.513607e+01
  -4.598291e+01   1.145716e+02
  -2.122407e+02   1.503233e+02
  -2.835462e+02  -3.950247e+01
  -1.738215e+02  -2.669629e+02
   4.191334e+01  -2.496598e+02
   2.320118e+02  -4.332391e+01
   2.112764e+02   2.029379e+02
   3.437462e+01   3.070912e+02
  -2.735097e+02   1.537402e+02
  -3.919242e+02  -1.932081e+02
  -1.971056e+02  -3.632946e+02
   9.938337e+01  -2.946903e+02
   2.540460e+02  -1.490459e+02
   1.552085e+02   3.899619e+00
   1.206302e+02  -3.916783e+01
   1.907208e+02  -8.680629e+01
   4.009119e+02   4.490374e+01
   3.688154e+02   2.646050e+02
  -6.296128e-01   4.988265e+02
  -3.589641e+02   4.828800e+02
  -4.924731e+02   2.219665e+02
  -3.229640e+02  -1.372933e+02
  -6.371420e+01  -3.210394e+02
   1.396807e+02  -2.687544e+02
   5.216176e+01  -2.552784e+01
  -5.303984e+01   1.205176e+02
  -2.097461e+02  -4.895325e+00
  -5.475759e+01  -1.779522e+02
   1.294160e+02  -1.809789e+02
   1.729606e+02   3.567657e+01
  -1.667332e+00   2.031292e+02
  -1.889542e+02   5.328344e+01
  -1.957008e+02  -2.372450e+02
   1.445630e+01  -3.833135e+02
   2.639858e+02  -2.136546e+02
   3.540621e+02   7.113861e+01
   3.140275e+02   2.733557e+02
   1.121271e+02   3.041515e+02
  -1.280076e+02   1.676190e+02
  -1.544121e+02   1.099219e+01
  -6.085000e+01  -5.995463e+01
   7.088336e+01   7.691924e+00
   5.977187e+01   1.526608e+02
  -1.289941e+02   9.997117e+01
  -1.942588e+02  -2.624888e+01
  -7.928293e+01  -9.702791e+01
   6.192702e+01  -4.232495e+01
   8.236414e+01   4.692482e+01
  -1.223852e+02   1.252984e+02
  -2.706472e+02   1.890266e+01
  -2.890531e+02  -9.250460e+01
  -7.616352e+01  -2.592258e+02
   1.673338e+02  -2.757967e+02
   2.664246e+02  -1.004609e+02
   1.909623e+02   8.336767e+01
  -3.636320e+01   1.024987e+02
  -1.209260e+02   4.465194e+01
  -4.039176e+00  -1.122121e+02
   1.993770e+02  -8.725404e+01
   2.348386e+02   1.006340e+02
   9.511343e+01   2.241311e+02
  -1.020887e+02   1.680381e+02
  -1.689043e+02   1.408340e+01
  -5.648563e+01  -4.869083e+01
   1.349065e+01  -3.823730e+00
   5.307298e+01   8.370596e+01
  -7.492133e+01   1.016890e+02
  -1.933589e+02   2.772248e+01
  -2.299595e+02  -1.662833e+02
   4.078160e+00  -2.137034e+02
   1.708643e+02  -1.557327e+02
   2.066710e+02  -1.623533e+01
   1.097938e+02   1.393225e+02
  -4.193881e+01   1.398833e+02
  -1.039609e+02   4.253271e+01
  -4.194529e+01  -8.562726e+00
   2.766505e+01  -1.509503e+01
  -7.352409e+00   2.083138e+01
  -1.063829e+02   5.806699e+00
  -1.295449e+02  -6.443318e+01
  -9.399053e-01  -1.248814e+02
   1.026054e+02  -1.492252e+02
   2.477934e+02  -1.513037e+01
   1.955938e+02   1.812692e+02
   7.904626e+01   1.961840e+02
  -1.304932e+02   1.735785e+02
  -1.511558e+02   1.327219e+01
  -9.490326e+01  -6.462777e+01
  -3.283271e+01  -4.807373e+01
  -1.919368e+01   2.544564e+01
  -3.737622e+01  -1.145160e+00
  -3.269015e+01  -3.360023e+01
   2.502653e+01  -1.144501e+02
   9.250821e+01  -5.997254e+01
   1.266839e+02   2.977237e+01
  -1.038019e+00   1.162570e+02
  -1.459560e+02   7.349319e+01
  -1.979698e+02  -3.146809e+01
  -9.026019e+01  -2.012179e+02
   1.066447e+02  -2.242554e+02
   2.908229e+02  -1.294000e+02
   2.890686e+02   8.266953e+01
   1.196643e+02   1.868687e+02
  -3.922530e+01   1.863596e+02
  -9.232817e+01   8.994767e+01
  -1.099796e+02   7.321884e+01
  -6.469983e+01   7.282849e+01
  -6.949180e+01   5.012407e+01
  -1.372588e+02   1.761475e+01
  -1.384840e+02  -1.384622e+02
  -1.695816e+01  -2.197508e+02
   9.300185e+01  -1.462952e+02
   1.568041e+02  -6.955127e+00
   1.608843e+02   8.040674e+01
   3.728214e+01   1.538070e+02
  -6.534587e+01   8.924015e+01
  -5.802137e+01   6.681194e+00
  -1.962409e+01  -1.698575e+01
   2.800788e+00  -3.827766e+01
  -1.382258e+01  -4.403478e+01
  -5.900991e+01  -5.956482e+00
  -5.754927e+01  -3.168197e+01
   4.140562e+01  -2.280458e+01
   1.503310e+02  -2.626768e+01
   1.431450e+02   3.622158e+01
   2.268490e+01   9.424985e+01
  -1.398861e+02   9.697277e+01
  -1.746000e+02   1.773360e+01
  -5.776209e+01  -5.501922e+01
   5.659600e+01  -3.135095e+01
   5.940966e+01   1.833381e+00
   1.665110e+01   9.099420e+01
  -3.706231e+01   6.785873e+01
  -8.736517e+01  -1.615848e+01
  -4.633949e+01  -6.014439e+01
  -6.690557e+01  -8.508202e+01
  -3.821327e+01  -1.000904e+01
  -8.291096e+01   4.619243e+00
  -6.176634e+01  -7.621234e+01
   8.613496e+00  -1.355470e+02
   1.077698e+02  -1.313188e+02
   1.537077e+02  -4.257816e+01
   1.424141e+02   4.870982e+01
   1.798701e+01   1.339101e+02
  -7.386434e+01   6.440605e+01
  -5.720558e+01   3.924572e+00
   4.478708e+01  -9.945376e-01
   9.766799e+01   6.513225e+01
   7.167996e+01   9.338297e+01
  -6.468061e+01   1.184571e+02
  -2.090693e+02   3.428685e+01
  -1.610699e+02  -2.692723e+01
  -2.917333e+01  -8.577793e+01
   5.110796e+01  -6.132672e+01
   4.513799e+01  -2.806854e+01
  -4.488174e+01   4.257859e+01
  -1.117600e+02   1.099699e+01
  -5.686434e+01  -9.073464e+01
   9.005561e+01  -1.502140e+02
   1.842014e+02  -4.876963e+01
   1.157664e+02   8.793736e+01
   7.351135e+00   1.702749e+02
  -8.346718e+01   1.371052e+02
  -1.364013e+02   2.156843e+01
  -9.687616e+01  -1.158225e+02
  -1.880822e-01  -9.927885e+01
   5.928564e+01  -2.817808e+01
   7.316057e+01   2.592613e+01
   3.172272e+01   2.313449e+01
  -3.131516e+00  -8.054401e+00
   1.460693e+01   1.846334e+01
   4.943305e+01   6.086662e+01
   4.040263e+01   9.779955e+01
  -6.091585e+01   6.388825e+01
  -1.201015e+02  -4.639563e+01
  -1.453805e+02  -8.839410e+01
  -1.029648e+01  -5.131486e+01
   1.234798e+02  -5.370774e+01
   7.459074e+01  -2.002094e+01
  -4.821568e+00  -7.048887e+00
  -6.292256e+01   5.020927e+01
  -1.697862e+01   1.898028e+01
   3.207693e+01   1.203259e+01
   9.440976e-01   1.135775e+00
  -7.535025e+01   6.685967e+00
  -1.124348e+02  -9.867653e+00
   8.909315e+00  -9.736822e+01
   1.107803e+02  -9.963686e+01
   1.755704e+02  -7.328640e+01
   1.944458e+02   5.593013e+01
   4.191446e+01   1.778589e+02
  -5.225879e+01   1.432901e+02
  -9.799367e+01   6.784303e+01
  -7.883385e+01   2.760871e+00
  -8.486506e+00  -6.320458e+01
  -4.798365e+00  -1.621973e+01
   4.962738e+01  -3.316403e+00
  -3.632595e+01  -4.894429e+01
  -3.804738e+01  -8.483884e+01
   2.435364e+01  -8.227718e+01
   8.531806e+01  -2.148063e+00
   7.423496e+01   9.128587e+01
   1.205222e+01   1.051881e+02
  -5.481184e+01   6.988326e+00
  -1.181625e+02  -6.725076e+01
  -4.029202e+01  -1.051615e+02
   6.250226e+01  -4.441376e+01
   8.534604e+01  -8.087831e+00
   6.226788e+01   1.853130e+01
  -3.362959e+01   4.891754e+01
  -4.374791e+01   4.382464e+01
   2.637457e+01  -3.780262e+00
   4.514465e+01  -2.094664e+01
   3.883047e+01  -2.438373e-01
  -7.071285e+01   6.825617e+01
  -1.003995e+02   7.443616e+01
  -4.446646e+01   8.660087e+00
   3.287733e+01  -7.712506e+01
   1.670024e+01  -5.742442e+01
   4.810375e+01   7.688894e-01
  -4.284776e+00   2.875878e+01
  -2.524513e+01   4.924608e+01
  -4.707328e+01  -3.374007e+01
  -4.878537e+01  -3.467056e+01
   1.832289e+01  -4.141458e+01
   4.632559e+01  -4.636597e+00
   4.281112e+01  -6.198277e+00
   4.281280e+01  -6.725187e+00
   1.194902e+01   8.005076e+00
  -1.751379e+01   3.576596e+01
  -1.666900e+01   2.611593e+01
  -1.334831e+01   5.399028e+01
  -1.954152e+01   2.442334e+01
  -4.387089e+01  -3.234694e+01
   1.289766e+00  -7.547889e+01
   4.640828e+01  -1.396859e+01
   4.783499e+01   3.969323e+01
   1.510821e+01   5.446369e+01
  -4.811402e+01   4.427387e+01
  -9.168182e+01  -2.587132e+01
  -5.476842e+01  -5.173118e+01
   2.845363e+01  -5.204605e+01
   5.017247e+01  -1.892518e+01
   3.830991e+01  -8.409131e+00
  -2.022323e+01  -3.797511e+00
  -1.204701e+01   8.620573e+00
   1.773214e+01  -1.826941e+01
   1.062889e+02  -4.816022e+01
