
 $NMID
 id='ANONYMOUS ', fmtdat='(2E16.6)'
 volume=1.0
 tramp=1.0
 $END
  -2.642488e+03   3.280108e+01
  -1.892410e+03  -1.353662e+03
  -1.073226e+02  -1.599295e+03
   9.459898e+02  -1.089755e+03
   8.586676e+02  -3.099420e+02
   2.114165e+02   1.357206e+02
  -2.115159e+02   1.222355e+02
  -1.396445e+02  -2.902820e+02
   2.790960e+02  -4.481134e+02
   5.396692e+02  -1.858130e+02
   4.368394e+02   4.168490e+02
   1.048585e+02   5.927323e+02
  -2.763219e+02   2.980127e+02
  -2.704581e+02  -3.526729e+02
   8.906940e+01  -4.614077e+02
   3.818523e+02  -1.434529e+02
   3.244249e+02   3.947693e+02
  -2.749966e+01   5.867033e+02
  -3.638623e+02   2.671708e+02
  -4.433839e+02  -9.603938e+01
  -1.058879e+02  -2.939421e+02
   9.852342e+01  -1.764356e+02
   3.891983e+01  -7.288062e+01
  -2.202599e+02  -5.983844e+01
  -2.370232e+02  -2.303889e+02
  -3.298873e+01  -2.471415e+02
   3.831126e+02  -1.402802e+02
   5.112422e+02   6.859615e+01
   2.018850e+02   2.681127e+02
  -2.665528e+02   1.911724e+02
  -4.152223e+02  -6.060198e+01
  -1.725355e+02  -3.204850e+02
   2.350486e+02  -3.186231e+02
   4.138433e+02  -9.949796e+01
   3.074575e+02   1.395248e+02
   8.282495e+01   2.243696e+02
   3.608693e+00   1.518510e+02
   5.194820e+01  -8.640438e+01
   1.545512e+02  -1.524980e+02
   2.064401e+02   1.079986e+02
   5.781340e+01   4.636848e+02
  -2.311024e+02   4.082106e+02
  -2.980406e+02   3.341186e+01
  -7.458379e+01  -2.176448e+02
   1.187583e+02  -9.831929e+01
   1.187000e+02   2.174312e+02
  -8.732170e+01   3.281319e+02
  -3.517274e+02   7.726895e+01
  -4.469466e+02  -2.418847e+02
  -1.973782e+02  -4.406978e+02
   2.378129e+02  -3.008086e+02
   4.776118e+02   1.826449e+01
   3.609977e+02   1.960455e+02
  -1.179988e+01   2.222820e+02
  -2.627811e+02   9.350526e+01
  -1.837232e+02  -2.093989e+01
  -1.782416e+01  -2.844571e+01
   5.828674e+01  -2.232688e+00
  -5.978387e+01   5.208026e+01
  -1.097190e+02  -1.065509e+01
  -1.277676e+02  -1.391631e+02
   4.320374e+01  -2.013256e+02
   2.925815e+02  -1.430558e+02
   2.427616e+02   3.774898e+01
   5.645209e+01   3.117352e+02
  -2.536530e+02   3.324402e+02
  -3.512215e+02   1.395049e+02
  -2.026828e+02  -1.331477e+02
  -3.522271e+01  -2.915307e+02
   5.032942e+01  -2.734316e+02
  -2.070590e+00  -1.669628e+02
   1.424232e+01  -1.013754e+02
   1.016820e+02  -8.651676e+01
   2.059939e+02  -2.362041e+01
   1.921042e+02   8.721905e+01
   1.219015e+02   1.800101e+02
  -1.082423e+02   1.867587e+02
  -1.628573e+02  -3.714218e+01
  -1.034216e+02  -1.990888e+02
   1.867348e+01  -2.085654e+02
   2.165660e+02  -5.476203e+01
   3.058092e+02   1.497970e+02
   1.672480e+02   2.243102e+02
  -1.098302e+01   2.666303e+02
  -1.500634e+02   1.838631e+02
  -1.491339e+02   1.076917e+02
  -1.334402e+02   3.945559e+01
  -2.299490e+02   1.612860e+01
  -3.655923e+02  -3.300448e+01
  -2.584285e+02  -2.273708e+02
  -1.770701e+01  -3.698486e+02
   3.254769e+02  -3.885936e+02
   3.929736e+02  -1.316416e+02
   2.776188e+02   8.247574e+01
   3.217700e+01   2.105608e+02
  -1.067267e+02   1.736261e+02
  -8.423174e+00  -4.299133e+00
   9.048794e+01  -3.083762e+01
   1.241590e+02   3.727939e+00
   4.551046e+01   1.179016e+02
  -9.079162e+01   8.702410e+01
  -8.418121e+01  -3.460563e+01
  -9.229031e-01  -1.126808e+02
   1.552137e+02  -1.616270e+00
   1.102172e+02   2.037531e+02
   3.304909e+01   2.863106e+02
  -2.076948e+02   2.252125e+02
  -3.426320e+02   5.793050e+00
  -2.412983e+02  -1.525432e+02
  -5.126873e+01  -2.481737e+02
   1.316015e+02  -1.421965e+02
   9.419473e+01  -1.796819e+01
   2.830296e+01   2.449955e+01
  -3.204387e+01  -5.608983e+01
  -1.737285e+01  -7.962200e+01
   7.118624e+01  -5.969494e+01
   1.126915e+02   2.281005e+01
   4.477228e+01   1.480209e+01
  -8.016612e+01   1.443795e+01
  -3.791926e+01  -7.754562e+01
   1.307690e+02  -7.240003e+01
   2.630603e+02  -1.283944e+01
   2.400222e+02   1.383377e+02
   2.902408e+01   2.199804e+02
  -1.673475e+02   2.128299e+02
  -2.544558e+02   7.710538e+01
  -1.195875e+02  -4.441472e+01
   2.991375e+01  -6.579002e+01
   6.431420e+01   1.473369e+01
  -4.510085e+01   5.994097e+01
  -1.692999e+02   2.764205e+01
  -1.923117e+02  -7.426994e+01
  -7.128683e+01  -1.424015e+02
   8.661761e+01  -9.552424e+01
   8.421446e+01  -3.101034e+01
   3.242465e+01   4.318279e+01
  -5.258614e+01  -5.164567e+01
  -2.423665e+01  -1.261525e+02
   8.123475e+01  -1.240960e+02
   2.160518e+02  -3.297251e+01
   1.726037e+02   1.209704e+02
   7.129106e+00   1.856418e+02
  -1.286268e+02   1.256566e+02
  -1.512199e+02   3.395145e+01
  -4.134243e+01  -1.028399e+02
   4.723547e+01  -8.740390e+01
   5.055560e+01  -3.372135e+01
   3.413077e+01   4.143032e+00
  -2.010943e+01   3.828613e+01
   1.701280e+00  -4.522564e+01
   5.592707e+01  -1.306731e+01
   1.051377e+02   8.503939e+01
   1.596001e+01   1.647494e+02
  -1.193209e+02   1.699961e+02
  -2.362363e+02   1.073548e+01
  -1.639409e+02  -1.210201e+02
  -5.296154e+01  -2.151831e+02
   9.643922e+01  -1.042216e+02
   8.675067e+01  -4.128138e+00
   5.651507e+01   3.551033e+01
   1.100368e+01   2.313519e+01
   3.059754e+01  -2.909314e+01
   6.447401e+01  -1.083102e+01
   5.364059e+01   4.073670e+01
  -3.635776e+01   8.321522e+01
  -1.029374e+02   7.386598e+01
  -5.940532e+01  -4.794247e+01
   2.415574e+01  -1.073333e+02
   1.540155e+02  -7.751813e+01
   1.930783e+02   6.736581e+01
   1.120454e+02   1.891358e+02
  -1.033251e+02   2.118075e+02
  -2.319042e+02   1.108225e+02
  -2.125842e+02  -5.570474e+01
  -7.475499e+01  -1.547791e+02
   2.774153e+01  -1.097689e+02
   5.969268e+01  -4.750289e+01
   4.006147e+01  -4.105779e+01
   5.603805e+01  -9.890235e+01
   9.764877e+01  -8.966609e+01
   1.498336e+02   1.695364e+01
   9.358512e+01   1.512868e+02
   1.905391e+01   2.078788e+02
  -1.261262e+02   1.196294e+02
  -1.650725e+02   6.350259e+00
  -1.181465e+02  -1.428860e+02
   1.538840e+01  -1.542338e+02
   8.234720e+01  -6.127169e+01
   7.406129e+01   2.304188e+01
  -1.673605e+01   7.160872e+01
  -2.653028e+01   3.480379e+01
   4.703234e+01   5.726759e-01
   8.191269e+01   6.095302e+00
   4.334545e+01   6.717700e+01
  -7.711630e+01   4.465562e+01
  -1.667295e+02  -1.690726e+01
  -1.212299e+02  -8.564626e+01
   1.124745e+01  -8.765698e+01
   1.269262e+02  -5.533376e+01
   8.770141e+01   2.337408e+01
   8.921200e+00   6.850920e+01
  -6.935437e+01   3.656141e+01
  -7.515191e+01  -9.130086e+00
  -1.155124e+01  -6.254778e+01
   1.306412e+01  -5.007643e+01
   6.067264e+01  -2.517891e+01
   3.699450e+01   2.631940e+01
   2.200095e+01   2.663329e+00
   3.145971e+01   7.374030e+00
   2.496863e+01  -2.011670e+01
   3.568995e+01   6.751939e+01
  -1.063471e+01   1.660166e+02
  -1.062547e+02   1.063884e+02
  -1.626967e+02   3.990372e+01
  -1.215283e+02  -4.743641e+01
  -4.220711e+00  -1.181159e+02
   6.397405e+01  -3.696433e+01
   2.306019e+01   1.874706e+01
  -5.680151e+01   3.003659e+00
  -8.882536e+01  -2.933881e+01
  -8.154360e+01  -8.117137e+01
   6.871393e+01  -9.806975e+01
   1.382786e+02  -3.304894e+01
   1.060027e+02   6.990556e+01
   1.468366e+01   1.148670e+02
  -6.576208e+01   4.631218e+01
  -3.668632e+01   4.225999e+00
   1.691630e+01  -3.755033e+01
   8.631817e+01  -6.061099e+00
   3.729940e+01   9.394717e+01
  -8.524015e+01   1.320293e+02
  -1.252755e+02   7.672193e+01
  -1.245986e+02  -6.616902e+01
   6.513420e+00  -1.546390e+02
   8.487020e+01  -1.044173e+02
   1.013509e+02   3.494765e+01
   8.929504e+01   9.516724e+01
  -3.232872e+01   8.959085e+01
  -4.149650e+01   3.357278e+00
  -3.258765e+01  -1.753263e+01
  -9.074186e-01  -1.040009e+01
  -2.865829e+00   1.697328e+01
  -4.101521e+01  -3.333016e+01
  -4.088512e+01  -6.090373e+01
  -1.822316e+01  -8.998087e+01
   5.610238e+01  -3.078386e+01
   8.975208e+01   1.309619e+01
   1.079974e+02   4.045834e+01
  -5.272199e+00   4.654156e+00
  -6.610317e+01   2.832707e+01
  -8.053814e+01   4.452415e+01
  -3.056974e+01  -1.956848e+01
   2.485827e+01  -1.378804e+01
   3.052772e+01  -1.436061e+00
  -2.032469e+01  -5.484909e+00
  -2.189796e+00  -1.905564e+01
   5.963498e+01  -1.061858e+01
   1.017923e+02   3.855392e+01
   2.628891e+01   7.380156e+01
  -7.876253e+01   1.160197e+02
  -1.865433e+02   5.440906e+01
  -1.300606e+02  -4.731482e+01
  -5.874421e+00  -1.240192e+02
   5.549085e+01  -1.676868e+02
   7.365514e+01  -6.863692e+01
   8.045527e+01  -9.131021e+00
   3.659307e+01   4.925410e+00
   7.653286e+00  -6.399190e+00
   2.043507e+01  -1.153451e+01
   1.855455e+01   3.817875e+01
  -6.618222e+00   7.071647e+01
  -1.850738e+01   5.277289e+01
  -9.599542e+01  -1.694675e+01
  -7.499427e+01  -6.778323e+01
  -5.942267e+00  -9.106376e+01
   4.449611e+01  -4.954328e+01
   1.050542e+02   3.131744e+01
   4.223219e+01   8.869551e+01
  -3.428387e+01   8.500324e+01
  -7.008830e+01  -7.361188e+00
  -5.523764e+01  -4.935857e+01
   2.886957e+01  -3.590573e+01
   1.834942e+01  -7.027048e+00
  -3.746165e+01   2.174544e+01
  -9.563640e+01  -1.291117e+00
  -1.737480e+01  -2.690327e+01
   5.218746e+01  -7.226841e+01
   9.670614e+01  -5.863508e+01
   6.049342e+01   1.700265e+01
  -2.924969e+01   5.774105e+01
  -5.669903e+01   7.315819e+01
  -5.408211e+01   2.867402e+01
  -5.187516e+00  -3.926462e+01
   1.908996e+01  -4.892904e+01
   3.995943e+01   3.719450e+01
   2.935917e+01   4.205255e+01
  -4.115984e+00   3.830021e+01
  -2.764854e+01   1.930520e+00
  -2.751418e+01  -3.244292e+01
  -3.064990e+01  -1.204942e+01
   4.190839e+00   1.871866e+01
  -3.723311e+00   1.213761e+01
  -2.365227e+01  -1.374326e+01
   7.689775e+00  -6.120000e+01
   2.496372e+01  -3.888374e+01
   6.994196e+01  -1.296200e-01
   3.831172e+01   5.760539e+01
  -6.381670e+01   2.186803e+01
  -6.921218e+01  -3.320484e+01
  -4.116579e+01  -6.292142e+01
   6.077763e+01  -4.637640e+01
   7.610635e+01  -2.952878e+00
   8.168807e+01   3.627466e+01
  -1.963672e+01   1.228895e+01
  -4.457526e+01   3.502145e+01
  -2.133063e+01   4.639115e+00
   2.805963e+01  -9.350405e+00
   4.327159e+01   8.134632e+00
  -3.908012e+01   3.293636e+01
  -1.210461e+02   2.858755e+01
