
 $NMID
 id='ANONYMOUS ', fmtdat='(2E16.6)'
 volume=1.0
 tramp=1.0
 $END
   3.153559e+03  -9.467693e+01
   1.797671e+03   1.792572e+03
   4.796836e+01   1.866233e+03
  -1.418551e+03   1.210196e+03
  -9.884147e+02   1.953278e+01
   3.696901e+01  -2.844794e+02
   5.142651e+02  -3.700213e+00
   1.473220e+02   5.661795e+02
  -3.821285e+02   6.392777e+02
  -7.231657e+02   1.400338e+02
  -4.660252e+02  -5.749949e+02
   2.332391e+01  -7.333474e+02
   4.548544e+02  -1.930217e+02
   3.283225e+02   5.131951e+02
  -1.125963e+02   6.223825e+02
  -5.212940e+02   1.232428e+02
  -3.793331e+02  -5.158947e+02
   1.855950e+02  -6.973077e+02
   4.983290e+02  -2.446246e+02
   4.848622e+02   2.113269e+02
   6.942886e+01   3.931860e+02
  -1.743319e+02   2.565012e+02
  -1.339526e+02   3.652002e+00
   2.119097e+02  -4.596721e+01
   3.436436e+02   1.691902e+02
   1.027244e+02   3.539642e+02
  -3.862635e+02   2.731689e+02
  -6.493586e+02  -4.273479e+01
  -2.295064e+02  -4.102194e+02
   3.077892e+02  -3.190685e+02
   5.332695e+02   9.475808e+01
   2.776823e+02   3.800088e+02
  -2.390924e+02   4.189577e+02
  -4.820127e+02   1.661299e+02
  -3.639524e+02  -1.866409e+02
  -1.059153e+02  -3.294074e+02
   8.864411e+01  -2.000753e+02
   5.050786e+01   1.392584e+02
  -1.331277e+02   2.026049e+02
  -2.975966e+02  -1.098800e+02
  -1.510357e+02  -5.233672e+02
   2.342132e+02  -5.249287e+02
   4.112216e+02  -5.403478e+01
   1.623234e+02   3.336861e+02
  -1.613676e+02   2.070494e+02
  -2.442577e+02  -2.473487e+02
   4.086483e+01  -4.355216e+02
   4.395837e+02  -1.152770e+02
   5.822196e+02   2.786724e+02
   2.106865e+02   4.769294e+02
  -2.679021e+02   3.220823e+02
  -5.572231e+02  -2.314840e+01
  -3.958215e+02  -2.263417e+02
   5.783402e+01  -2.796919e+02
   3.446731e+02  -8.078589e+01
   2.133461e+02   6.320310e+01
  -4.943355e+01   6.470532e+01
  -6.380686e+01  -6.571394e+01
   7.628568e+01  -8.575175e+01
   2.202579e+02   1.692902e+00
   1.462970e+02   1.740400e+02
  -1.202640e+02   2.869198e+02
  -2.933317e+02   1.351723e+02
  -2.877224e+02  -5.868645e+01
  -1.181529e+01  -3.147518e+02
   2.625040e+02  -3.828136e+02
   3.705279e+02  -1.812345e+02
   2.337704e+02   2.081294e+02
   6.859123e+01   3.669885e+02
  -5.268687e+01   2.967585e+02
  -4.283383e+01   1.165504e+02
  -1.383195e+01   8.666616e+00
  -5.449614e+01   8.250287e+01
  -2.296515e+02   1.287513e+02
  -2.132705e+02  -6.686628e+01
  -1.665754e+02  -2.193347e+02
   7.203597e+01  -2.279552e+02
   2.055540e+02  -1.926749e+01
   1.984760e+02   2.286419e+02
  -3.211451e+01   2.689099e+02
  -2.496182e+02   7.125594e+01
  -3.740444e+02  -1.337488e+02
  -1.832042e+02  -3.129308e+02
   5.453054e+01  -2.826836e+02
   1.702854e+02  -1.793534e+02
   1.410426e+02  -7.820764e+01
   8.928254e+01  -5.809147e+01
   2.031266e+02  -5.113569e+01
   3.663610e+02   2.718034e+00
   3.420175e+02   2.076626e+02
   4.539858e+01   4.417292e+02
  -3.360660e+02   4.485595e+02
  -4.403418e+02   1.894928e+02
  -2.854858e+02  -1.213141e+02
  -2.019185e+01  -2.572189e+02
   8.242334e+01  -1.919250e+02
   2.432433e+01  -5.039988e+00
  -1.061698e+02   8.764230e+01
  -1.481607e+02  -5.232869e-02
  -6.975900e+01  -1.298723e+02
   1.080869e+02  -1.371421e+02
   1.228422e+02  -6.728363e+00
   2.663393e+01   1.356332e+02
  -1.493303e+02   2.467390e+01
  -1.547762e+02  -2.128049e+02
  -2.107633e+01  -3.235708e+02
   2.113457e+02  -2.306582e+02
   3.433462e+02   8.576526e+00
   2.753405e+02   1.936548e+02
   7.896512e+01   2.838338e+02
  -1.049876e+02   1.355876e+02
  -1.416672e+02   1.827333e+01
  -2.227240e+01  -5.593414e+01
   8.810734e+01   3.094790e+01
   1.062957e+01   9.027734e+01
  -1.236037e+02   6.684320e+01
  -1.366224e+02  -7.854333e+00
  -3.294824e+01  -5.663604e+01
   7.622472e+01  -2.132226e+01
   8.849405e+01   6.890356e+01
  -1.556982e+02   1.073822e+02
  -2.733683e+02   1.717045e+01
  -2.526019e+02  -1.178223e+02
  -5.064477e+01  -2.691213e+02
   1.714964e+02  -2.246568e+02
   2.196520e+02  -1.073969e+02
   1.612771e+02   2.542458e+01
  -2.315679e+01   9.145519e+01
  -1.078654e+02  -9.357230e-01
   1.961783e+01  -8.836717e+01
   1.583260e+02  -8.335835e+01
   1.815840e+02   7.214159e+01
   1.015538e+02   1.846299e+02
  -5.770118e+01   1.198375e+02
  -1.402575e+02   3.598223e+01
  -5.246097e+01  -4.396810e+01
   4.621008e+01   2.493530e+00
   5.343901e+01   1.082824e+02
  -6.570354e+01   1.512569e+02
  -2.343058e+02   6.717747e+01
  -1.808466e+02  -1.062982e+02
  -4.672375e+01  -2.206078e+02
   1.713323e+02  -1.741284e+02
   1.891717e+02  -3.064837e+01
   4.496306e+01   1.339926e+02
  -4.685283e+01   8.529618e+01
  -8.207551e+01   2.482453e+01
  -2.212365e+01  -1.473230e+01
   3.644822e+01  -7.030820e+00
  -1.010933e+01   1.466823e+01
  -9.504421e+01   2.197262e-01
  -1.096884e+02  -7.420317e+01
  -4.114126e+01  -1.816470e+02
   1.233516e+02  -1.941489e+02
   2.809545e+02  -9.535495e+00
   1.789183e+02   1.319291e+02
   5.158229e+01   2.509632e+02
  -1.002378e+02   1.704812e+02
  -1.508869e+02   2.081643e+01
  -8.940330e+01  -3.949290e+01
  -2.081318e+01  -5.140003e+01
  -3.507485e+01   2.306712e+01
  -5.113504e+01   2.510207e+01
  -4.296204e+01  -4.101317e+01
   2.033455e+01  -1.130493e+02
   1.299732e+02  -5.530782e+01
   1.140264e+02   4.160058e+01
   2.072141e+01   1.264248e+02
  -1.388544e+02   9.044557e+01
  -2.311886e+02  -5.331217e+01
  -1.335266e+02  -1.807969e+02
   7.664494e+01  -2.336687e+02
   2.452876e+02  -1.134700e+02
   2.448597e+02   2.874814e+01
   7.915842e+01   1.299759e+02
  -2.129758e+01   1.077198e+02
  -5.544613e+01   9.491121e+01
  -5.782437e+01   5.347456e+01
  -1.315956e+01   7.906054e+01
  -7.000164e+01   9.748895e+01
  -1.499963e+02  -1.203522e+01
  -1.055456e+02  -1.536354e+02
  -4.915725e+01  -2.256963e+02
   8.885979e+01  -1.333330e+02
   1.695367e+02  -1.389402e+01
   1.411542e+02   1.603753e+02
  -7.416129e-01   1.548951e+02
  -8.812701e+01   6.956792e+01
  -6.390719e+01  -1.352448e+01
   1.605515e+01  -3.342698e+01
   1.570042e+01  -2.096244e+01
  -2.851355e+01  -1.061971e+01
  -6.032766e+01   8.950825e+00
  -6.987628e+01  -6.304386e+01
   6.640104e+01  -3.981874e+01
   1.700941e+02  -8.426508e+00
   1.602346e+02   6.200688e+01
   1.991106e+00   1.110788e+02
  -1.020707e+02   6.739543e+01
  -1.282479e+02   1.336101e-01
  -4.212698e+01  -6.678157e+01
   5.909161e+01  -6.075956e+01
   8.481649e+01  -1.777970e+00
   3.160778e+01   5.871341e+01
  -6.472916e+01   6.243941e+01
  -6.347851e+01   4.535363e+00
  -3.508327e+01  -1.401665e+01
  -1.931197e+01  -2.356743e+01
  -1.907379e+01   6.753855e-01
  -4.765729e+01   1.371075e+01
  -4.332975e+01  -5.940397e+01
   1.732469e+00  -1.276235e+02
   1.230889e+02  -1.287198e+02
   1.604760e+02  -5.063983e+01
   1.301895e+02   5.167571e+01
   1.897494e+01   1.488706e+02
  -1.032108e+02   6.349533e+01
  -5.897883e+01  -3.848284e+01
   5.969819e+00  -3.871252e+01
   1.092050e+02  -3.872241e+00
   6.213613e+01   1.028007e+02
  -8.790242e+01   1.594956e+02
  -1.399356e+02   1.793918e+01
  -1.221830e+02  -6.526592e+01
  -2.828676e+01  -8.341278e+01
   7.445373e+01  -3.924079e+01
   6.328931e+01   7.867186e+00
  -3.002887e+01   1.487329e+01
  -8.503375e+01  -6.431165e+00
  -7.065326e+01  -1.200256e+02
   9.542595e+01  -1.517992e+02
   1.532435e+02  -9.229484e+01
   1.088289e+02   8.870518e+01
   2.847128e+01   1.624398e+02
  -6.653589e+01   1.330480e+02
  -8.836207e+01  -1.715435e+01
  -6.817126e+01  -6.788449e+01
  -2.657966e+00  -9.433881e+01
   4.007293e+01  -3.125255e+01
   1.929626e+01  -3.477969e+00
   1.433647e+01  -3.301594e+01
   2.955684e+01   6.754440e+00
   2.361841e+01   3.712679e+01
   3.411988e+01   1.175347e+02
   3.346812e+01   1.219259e+02
  -5.689916e+01   2.296401e+01
  -1.029730e+02  -3.773833e+01
  -1.187594e+02  -4.918390e+01
  -1.390395e+01  -5.428893e+01
   5.357902e+01  -3.011672e+01
   7.991879e+01   1.282157e+01
   9.465491e+00   2.384292e+01
  -2.152480e+01   1.308602e+01
   1.898404e+01   3.142244e+00
  -5.676072e+00   2.143550e+01
  -9.956306e+00   1.055692e+01
  -7.515835e+01   2.191097e+01
  -1.068073e+02  -2.186856e+01
  -5.925795e+01  -7.208044e+01
   8.880239e+01  -9.395602e+01
   1.779796e+02  -8.375559e+01
   1.425815e+02   4.741517e+01
   4.549472e+01   1.373338e+02
  -3.869212e+01   1.527827e+02
  -8.985879e+01   5.755894e+01
  -1.010756e+02  -2.762909e+01
  -5.470017e+01   3.941401e+00
  -7.956200e+00  -2.200580e+01
   2.880992e+01   1.144859e+01
  -2.129787e+01   3.098825e-01
  -3.280787e+01  -9.766528e+01
   1.702608e+01  -8.393116e+01
   8.277677e+01   1.066092e+01
   7.198551e+01   8.995339e+01
   2.225290e+01   7.139614e+01
  -6.651241e+01   3.001271e+01
  -1.083313e+02  -6.663832e+01
  -3.608476e+01  -7.960134e+01
   3.310633e+01  -3.910208e+01
   6.238796e+01   8.847569e+00
   5.096938e+01   3.269404e+01
  -3.060694e+01   5.758363e+01
  -1.998425e+01   2.932752e+01
   1.807996e+01  -3.217580e+01
   8.693739e+01   9.534051e+00
   2.822036e+01   2.316991e+01
  -7.931984e+01   5.421760e+01
  -1.053267e+02   6.605829e+01
  -8.123147e+01  -9.982826e+00
   1.521587e+01  -4.816391e+01
   5.846921e+01  -5.347513e+01
   5.108378e+01  -9.373325e+00
   3.937355e+01   5.831346e+01
  -2.443574e+01   5.444830e+01
  -2.356627e+01   3.969564e+00
  -4.702229e+01  -3.291650e+01
   1.178737e+01  -5.808505e+01
   4.299275e+01   1.303297e+01
   3.248204e+01   1.052598e+01
   3.587921e+01  -7.120356e+00
  -1.184344e+01  -4.211664e+01
  -5.429153e+00  -1.452354e+01
   6.661001e+00   1.938567e+01
  -4.385744e+00   5.148510e+01
  -3.050705e+01   2.761993e+01
  -3.416173e+01  -1.796166e+01
   2.939563e+00  -5.072255e+01
  -1.352172e+01  -1.666061e+01
   6.363579e+01   2.885116e+01
   1.093679e+01   5.172713e+01
  -4.794277e+01   5.697868e+01
  -7.710299e+01  -1.706554e+01
  -6.203988e+01  -1.989660e+01
   2.900725e+01  -3.305320e+01
   4.895802e+01  -2.029948e+01
   1.743371e+01  -2.138202e+01
  -3.223857e+01   4.945518e+00
  -5.203027e+01   2.908168e+01
   2.133858e+01  -3.573378e+01
   8.566426e+01  -5.873455e+01
