
 $NMID
 id='ANONYMOUS ', fmtdat='(2E16.6)'
 volume=1.0
 tramp=1.0
 $END
  -2.976508e+03  -4.364071e+02
  -1.814393e+03  -1.555937e+03
   2.302735e+02  -1.808083e+03
   1.311831e+03  -9.538148e+02
   7.486367e+02  -1.035680e+02
  -8.521332e+00   3.002666e+02
  -4.689965e+02  -2.926675e+01
  -9.873451e+01  -6.204662e+02
   4.754455e+02  -5.358248e+02
   6.616883e+02  -4.675961e+01
   3.967599e+02   5.583748e+02
  -6.347907e+01   6.786392e+02
  -3.449472e+02   1.222200e+02
  -2.334366e+02  -4.281624e+02
   1.183168e+02  -5.309376e+02
   4.454132e+02  -7.578015e+01
   2.815340e+02   5.196354e+02
  -1.307143e+02   6.189480e+02
  -4.311201e+02   2.527438e+02
  -3.991148e+02  -1.764790e+02
  -8.405537e+01  -3.462737e+02
   1.578240e+02  -2.034593e+02
   8.296952e+01  -6.643324e+00
  -1.917081e+02  -7.865519e+01
  -2.990896e+02  -2.204508e+02
  -2.083400e+01  -3.576703e+02
   4.341340e+02  -1.789403e+02
   5.995070e+02   1.387404e+02
   2.341021e+02   3.518163e+02
  -3.467758e+02   2.495050e+02
  -4.804796e+02  -1.104888e+02
  -1.977962e+02  -3.478826e+02
   2.074329e+02  -3.526038e+02
   4.569219e+02  -1.507130e+02
   3.408933e+02   1.512271e+02
   4.631430e+01   2.953282e+02
  -1.521986e+01   1.939123e+02
   1.419537e+01  -7.888856e+01
   1.892945e+02  -1.795732e+02
   2.235599e+02   1.877523e+02
   2.550748e+01   5.260025e+02
  -2.868839e+02   4.153828e+02
  -2.992377e+02  -2.537055e+01
  -1.209606e+02  -2.946083e+02
   1.719835e+02  -1.161146e+02
   1.471500e+02   2.077166e+02
  -1.087120e+02   3.950600e+02
  -4.154187e+02   6.976901e+01
  -4.442605e+02  -2.587628e+02
  -1.106682e+02  -4.883990e+02
   2.921626e+02  -2.641582e+02
   4.637322e+02   1.357980e+02
   2.697993e+02   2.523287e+02
  -8.537687e+01   2.124660e+02
  -2.597091e+02   6.619125e+01
  -1.947788e+02  -8.006937e+01
   1.251266e+01  -3.072947e+01
   5.773356e+01   5.287716e+01
  -6.950980e+01   8.224177e+01
  -2.239652e+02  -6.093162e+00
  -1.157589e+02  -1.462784e+02
   1.120218e+02  -2.094935e+02
   3.197315e+02  -1.473554e+02
   3.107768e+02   8.867740e+01
   1.080406e+01   2.776498e+02
  -2.633701e+02   3.650107e+02
  -3.741639e+02   1.581528e+02
  -2.293740e+02  -1.612817e+02
  -1.751414e+01  -3.392269e+02
   6.486547e+01  -2.958748e+02
  -5.549443e+00  -1.155834e+02
  -1.297109e+01  -6.724935e+01
   1.035551e+02  -1.341361e+02
   2.208184e+02  -5.769949e+01
   2.145670e+02   1.171676e+02
   9.061995e+01   2.328457e+02
  -9.710178e+01   1.923748e+02
  -2.098881e+02   3.077998e+00
  -1.567000e+02  -2.127914e+02
   6.201871e+01  -2.465540e+02
   2.519485e+02  -9.636834e+01
   2.982949e+02   1.761522e+02
   1.970886e+02   3.277995e+02
  -5.401008e+01   2.627156e+02
  -1.585836e+02   1.391042e+02
  -1.331520e+02   9.790634e+01
  -1.442756e+02   9.141950e+01
  -2.751615e+02   1.419646e+01
  -3.874451e+02  -8.813754e+01
  -3.005741e+02  -3.161165e+02
   3.488582e+01  -3.924414e+02
   3.643169e+02  -4.026766e+02
   4.932705e+02  -1.461895e+02
   2.695589e+02   1.235065e+02
   1.509896e+01   2.247384e+02
  -1.229444e+02   2.157308e+02
  -6.448478e+00   5.880498e+01
   1.146279e+02  -3.594279e+01
   1.536450e+02  -2.199839e+00
   3.505620e+01   1.541573e+02
  -9.360128e+01   1.203870e+02
  -1.233762e+02  -9.303648e+00
   3.065715e+01  -1.587822e+02
   1.601841e+02  -4.641051e+00
   1.695188e+02   2.272680e+02
  -1.058590e+00   2.991692e+02
  -2.097454e+02   2.127100e+02
  -3.561144e+02  -3.849342e+01
  -2.882378e+02  -2.518260e+02
  -6.308494e+01  -2.311749e+02
   1.413454e+02  -1.320171e+02
   1.188810e+02   2.739920e+01
   1.497695e+01   1.978890e+01
  -3.827540e+01  -5.157860e+01
  -3.426041e+01  -1.179253e+02
   8.969349e+01  -7.115253e+01
   1.188073e+02  -5.972865e+00
   4.328250e+01   4.074471e+01
  -9.475832e+01   2.840975e+01
  -5.106455e+01  -6.602778e+01
   1.506795e+02  -8.853074e+01
   2.997350e+02  -5.072214e+00
   2.317027e+02   1.704624e+02
   2.394827e+01   2.734214e+02
  -2.242566e+02   2.294320e+02
  -2.285358e+02   7.914358e+01
  -1.345764e+02  -4.907058e+01
   7.006036e+01  -4.824594e+01
   7.382062e+01   3.177465e+00
  -3.176782e+01   9.426954e+01
  -1.668829e+02   4.809677e+01
  -1.773739e+02  -9.815995e+01
  -6.834228e+01  -1.944646e+02
   7.290015e+01  -1.028355e+02
   1.162646e+02   8.507871e+00
   3.491902e+01   5.374260e+01
  -5.713271e+01  -8.311702e+00
  -4.366208e+01  -1.033091e+02
   9.960829e+01  -1.013588e+02
   2.248777e+02  -1.573079e+01
   1.538578e+02   1.484882e+02
   2.714649e+00   1.751240e+02
  -1.297456e+02   1.136158e+02
  -1.817564e+02   9.210404e+00
  -6.417586e+01  -1.096096e+02
   7.541694e+01  -1.058145e+02
   9.443002e+01  -4.338812e+01
  -1.081343e+01   3.952376e+01
  -3.842316e+01   6.751364e+00
   1.540769e+00  -4.808532e+01
   8.631746e+01   1.450137e+00
   8.979318e+01   1.040828e+02
   2.114186e+01   1.275085e+02
  -1.452027e+02   1.192953e+02
  -2.040225e+02   7.554365e+00
  -1.952868e+02  -1.415952e+02
  -2.646033e+01  -1.976435e+02
   9.979216e+01  -1.497899e+02
   1.234020e+02  -1.587611e+01
   6.357579e+01   6.925871e+01
   1.442658e+01   2.723947e+01
   2.873778e+01  -2.153865e+00
   7.956275e+01   1.755659e+01
   8.067758e+01   5.163406e+01
  -2.968731e+01   8.035797e+01
  -1.368693e+02   5.365267e+01
  -1.123295e+02  -4.689179e+01
  -4.971654e+00  -1.397388e+02
   1.405525e+02  -9.294910e+01
   1.762515e+02   6.283462e+01
   1.091675e+02   2.159183e+02
  -1.674303e+02   2.214890e+02
  -2.446460e+02   9.346819e+01
  -1.997857e+02  -7.752085e+01
  -1.070781e+02  -1.353146e+02
   2.617598e+01  -1.268088e+02
   6.488573e+01  -3.352963e+01
   7.264783e+01  -3.153726e+01
   2.966191e+01  -1.073252e+02
   7.352411e+01  -1.093109e+02
   1.103829e+02   4.899281e-01
   1.145786e+02   1.372282e+02
   2.069124e+01   1.872404e+02
  -8.873266e+01   1.549638e+02
  -1.769742e+02   1.023379e+01
  -1.359381e+02  -9.194110e+01
  -2.874065e+01  -1.705277e+02
   6.408774e+01  -7.377221e+01
   7.612352e+01   2.997693e+01
  -4.078914e+01   5.181299e+01
  -3.445085e+01   4.291612e+00
   1.660286e+00  -1.032923e+01
   8.851981e+01   5.705606e+00
   7.854937e+01   2.554980e+01
  -7.333795e+01   4.833138e+01
  -1.218401e+02   1.462240e+01
  -1.184908e+02  -3.193186e+01
  -8.540274e+00  -8.450388e+01
   1.243397e+02  -4.776361e+01
   1.469979e+02   2.222238e+01
   1.570115e+01   1.001656e+02
  -7.735953e+01   4.489179e+01
  -6.948524e+01  -3.984875e+01
   3.257452e-01  -7.591119e+01
   3.865975e+01  -4.681203e+01
   7.386695e+01  -2.568903e+00
   4.414758e+01   2.330734e+01
   6.426311e+01   2.763187e+01
   7.244677e+01   1.165406e+01
   8.206414e+01   1.164105e+01
   4.418511e+01   6.042820e+01
  -3.530810e+01   1.499042e+02
  -1.483080e+02   1.095665e+02
  -1.841831e+02   3.590883e+01
  -1.454981e+02  -1.042047e+02
   8.762240e+00  -1.009309e+02
   9.003635e+01  -6.264893e+01
   4.410043e+01  -9.178626e+00
  -3.067283e+01   2.926536e+01
  -7.070075e+01  -1.313152e+01
  -6.602312e+01  -6.747761e+01
   9.050801e+01  -1.018732e+02
   1.609826e+02  -4.873562e+01
   1.275195e+02   5.048914e+01
   9.507618e+00   8.895444e+01
  -7.690700e+01   3.692553e+01
  -5.465706e+01  -5.136102e+00
   3.464415e+01  -4.348837e+01
   7.983407e+01   2.257645e+01
  -7.677200e+00   9.591900e+01
  -8.979590e+01   1.343662e+02
  -1.097922e+02   6.968515e+01
  -8.277613e+01  -5.687203e+01
   1.018445e+01  -1.745404e+02
   7.872265e+01  -1.028610e+02
   9.935780e+01  -3.946327e+00
   2.692256e+01   1.008448e+02
  -2.615721e+01   1.049332e+02
  -5.241917e+01  -1.827488e-01
  -4.432969e+01  -2.310244e+01
  -2.997937e+01  -9.355144e+00
  -1.487050e+01   1.309076e+01
  -3.640385e+01  -3.873403e+00
  -4.756848e+01  -7.186241e+01
  -1.473142e+01  -8.933813e+01
   5.285746e+01  -2.642626e+01
   1.673310e+02   4.270244e+01
   9.224275e+01   7.555537e+01
   9.267009e+00   3.617141e+01
  -7.313049e+01   3.267832e+01
  -8.105653e+01   2.987220e-01
  -1.777171e+01  -1.423259e+01
   2.702546e+01   4.312227e+00
   3.242193e+01  -2.948873e+01
   3.072810e-01   1.406776e+01
  -1.550387e+01   7.035260e+00
   8.253269e+01  -6.910720e+00
   8.427339e+01   2.985259e+01
   8.028894e+00   6.127375e+01
  -7.712584e+01   9.217684e+01
  -1.768927e+02   3.722156e+01
  -1.406561e+02  -6.258088e+01
  -2.552347e+01  -1.635528e+02
   6.715819e+01  -1.308421e+02
   1.344419e+02  -6.644785e+01
   7.908118e+01   2.976527e+01
   2.025999e+01   2.363727e+01
  -2.836769e+00   2.346831e+01
   3.179834e+01   5.173351e+01
   1.868808e+01   3.680711e+01
   2.959530e+01   6.588581e+01
  -2.935251e+01   6.093291e+01
  -4.953859e+01  -4.523017e+01
  -5.405640e+01  -9.652214e+01
  -1.201185e+01  -9.085696e+01
   4.649956e+01  -1.333716e+01
   1.000598e+02   5.303709e+01
   4.589677e+01   8.032737e+01
  -4.670235e+01   7.109994e+01
  -8.930252e+01   7.692606e+00
  -1.825446e+01  -5.830083e+01
   4.075075e+01  -3.975672e+01
   4.537698e+01  -1.151411e+01
  -2.996384e+01   1.163684e+01
  -8.954845e+01   1.734946e+01
  -1.520372e+01  -9.527674e+00
   4.740089e+01  -3.763974e+01
   1.195333e+02  -4.784696e+01
   4.274279e+01   1.952962e+00
  -4.724355e+00   7.043582e+01
  -1.915270e+01   9.167955e+01
  -4.092319e+01   7.731661e+00
  -1.458008e+01  -3.486432e+01
   2.369502e+01  -6.678347e+01
   3.833003e+01   2.572917e+01
   2.826131e+01   6.515980e+01
   4.618896e+00   3.264434e+01
  -3.722544e+01  -4.062204e+00
  -4.141669e+01  -2.857965e+01
   7.955820e+00  -4.490179e+01
   1.176759e+01   2.099476e+01
   8.213940e+00   4.753508e+01
  -9.918343e+00  -3.248009e+01
   1.548858e+01  -5.885106e+01
   4.641382e+01  -2.658910e+01
   5.965683e+01   1.690031e+01
  -6.628867e+00   5.606317e+01
  -5.888692e+01   2.767276e+01
  -5.820718e+01  -4.955143e+01
  -3.640425e+01  -7.954939e+01
   6.730823e+01  -3.876556e+01
   1.161841e+02  -2.407157e+01
   6.928984e+01   6.056701e+01
  -1.237894e+01   4.456048e+01
  -6.937610e+01   4.657986e+01
  -2.323686e+01   1.837027e+01
   3.636201e+01  -2.296092e+01
   2.700941e+01  -1.340077e+01
  -2.116135e+01   2.858646e+01
  -9.079224e+01   2.701527e+01
