
 $NMID
 id='ANONYMOUS ', fmtdat='(2E16.6)'
 volume=1.0
 tramp=1.0
 $END
   3.812313e+03   2.048124e+02
   2.339459e+03   2.284214e+03
  -9.426433e+02   2.575303e+03
  -1.989479e+03   7.896323e+02
  -9.414803e+02  -5.892789e+02
   5.449399e+02  -5.637242e+02
   8.279582e+02   2.330406e+02
   3.860932e+01   8.940036e+02
  -7.109626e+02   6.359234e+02
  -9.148630e+02  -8.206590e+01
  -3.674816e+02  -8.002564e+02
   2.163483e+02  -8.031913e+02
   6.047520e+02  -1.363938e+02
   3.933578e+02   6.569706e+02
  -2.590532e+02   6.592279e+02
  -5.682959e+02   1.462598e+01
  -2.466693e+02  -6.414496e+02
   3.015997e+02  -6.010986e+02
   5.575487e+02  -1.171712e+02
   3.739098e+02   3.086459e+02
  -1.588164e+01   4.395560e+02
  -2.820901e+02   2.422387e+02
  -2.269399e+02   1.571131e+01
   1.011791e+02  -8.696246e+01
   3.405219e+02   7.445390e+01
   1.748210e+02   3.945432e+02
  -3.741657e+02   3.932170e+02
  -7.578237e+02  -2.515210e+01
  -3.777263e+02  -5.211063e+02
   4.007931e+02  -4.499897e+02
   6.904364e+02   6.709783e+01
   2.712939e+02   4.640410e+02
  -2.535701e+02   5.012533e+02
  -5.024469e+02   1.162182e+02
  -3.493646e+02  -2.598136e+02
  -6.542872e+01  -4.486910e+02
   2.059880e+02  -2.511619e+02
   1.377354e+02   2.028363e+02
  -1.841558e+02   3.458050e+02
  -3.637215e+02  -6.534112e+01
  -1.431137e+02  -5.741399e+02
   2.569544e+02  -6.110337e+02
   5.381382e+02   3.219068e+01
   2.054178e+02   4.906410e+02
  -2.696275e+02   3.006541e+02
  -3.578502e+02  -2.962749e+02
   4.499678e+01  -4.531635e+02
   4.661232e+02  -1.082790e+02
   5.482058e+02   3.334004e+02
   1.453229e+02   5.497328e+02
  -4.076109e+02   3.392454e+02
  -5.388823e+02  -6.799991e+01
  -3.318000e+02  -3.393315e+02
   1.635928e+02  -3.225858e+02
   4.033650e+02  -5.990091e+01
   2.069486e+02   1.880607e+02
  -1.013323e+02   9.293848e+01
  -1.277970e+02  -1.492806e+02
   1.286420e+02  -1.858775e+02
   3.343205e+02   6.679229e+01
   1.473635e+02   2.911533e+02
  -1.605778e+02   2.535426e+02
  -3.513032e+02   6.674381e+01
  -1.923258e+02  -1.010654e+02
   3.911463e+01  -2.472803e+02
   2.237762e+02  -2.596455e+02
   3.163983e+02  -1.365491e+02
   2.771020e+02   1.483048e+02
   8.181661e+01   3.384717e+02
  -1.144660e+02   3.230101e+02
  -1.239338e+02   9.759399e+01
  -3.543584e+01   3.599300e+00
  -3.685864e+01   6.677023e+01
  -1.661149e+02   1.078188e+02
  -2.637868e+02  -3.107295e+01
  -1.668288e+02  -2.420906e+02
   8.153281e+01  -2.442981e+02
   2.011658e+02  -1.822636e+01
   1.585417e+02   2.390590e+02
  -3.008018e+01   2.871633e+02
  -2.592891e+02   1.243708e+02
  -3.046951e+02  -1.374874e+02
  -1.606652e+02  -3.132250e+02
   7.699109e+01  -2.738159e+02
   2.025566e+02  -1.151970e+02
   1.684437e+02   1.285011e+01
   6.333439e+01  -2.673976e+01
   1.985494e+02  -2.714983e+01
   2.840094e+02   9.457823e+01
   2.993794e+02   2.466190e+02
  -1.957312e+01   3.917372e+02
  -3.218439e+02   3.503460e+02
  -4.422300e+02   1.247646e+02
  -2.761445e+02  -9.683056e+01
  -5.342601e+01  -2.663091e+02
   1.270031e+02  -2.422393e+02
   1.014788e+02  -3.364706e+01
  -8.817795e+01   8.046767e+01
  -1.780768e+02  -3.417335e+00
  -5.867951e+01  -1.719152e+02
   1.276421e+02  -1.318146e+02
   1.522886e+02   2.599906e+01
  -4.459445e+01   1.837714e+02
  -1.834357e+02   6.638888e+00
  -1.125412e+02  -2.383284e+02
   7.031591e+01  -3.096654e+02
   2.409008e+02  -1.635875e+02
   3.133966e+02   6.299615e+01
   2.177751e+02   2.271754e+02
   4.301200e+01   2.464964e+02
  -1.196615e+02   1.384655e+02
  -1.759301e+02   1.027684e+01
  -4.780452e+01  -3.925411e+01
   5.741740e+01   3.621538e+01
   3.143169e+01   1.034529e+02
  -1.047505e+02   9.470389e+01
  -1.667816e+02  -3.803028e+01
  -1.121458e+01  -6.631459e+01
   7.055822e+01  -2.829357e+01
   4.617431e+01   1.034675e+02
  -9.834553e+01   8.795034e+01
  -2.666967e+02  -6.886671e+00
  -2.146379e+02  -1.557038e+02
  -5.217734e+01  -2.176670e+02
   1.935948e+02  -2.263293e+02
   2.646170e+02  -7.601157e+01
   1.622690e+02   2.849875e+01
  -3.214156e+01   1.189906e+02
  -7.864144e+01  -1.139107e+00
   4.243613e+01  -8.597623e+01
   1.626546e+02  -3.755492e+01
   2.076360e+02   5.741552e+01
   6.681802e+01   1.944407e+02
  -8.555351e+01   1.278344e+02
  -1.403890e+02   7.945751e+00
  -4.354511e+01  -4.196380e+01
   2.202151e+01  -1.049529e+01
  -6.081140e+00   7.717704e+01
  -5.895215e+01   9.943406e+01
  -1.820626e+02   2.261728e+01
  -1.559058e+02  -1.109824e+02
  -1.439693e+01  -1.846491e+02
   1.504072e+02  -1.622946e+02
   1.921330e+02  -3.423704e+01
   2.427346e+01   9.140074e+01
  -5.780479e+01   8.214250e+01
  -9.188045e+01   2.502207e+01
  -4.246519e+01  -2.176604e+01
   1.579565e+01   4.355612e+00
  -8.976807e-02  -3.021751e+01
  -5.389137e+01  -6.758505e+00
  -7.847061e+01  -7.258141e+01
  -9.783209e+00  -1.221630e+02
   1.105545e+02  -1.286784e+02
   1.945784e+02  -3.442864e+01
   1.845035e+02   1.174521e+02
   2.888826e+01   2.318888e+02
  -8.371081e+01   1.382147e+02
  -1.488094e+02   2.549546e+01
  -6.576295e+01  -5.984940e+01
  -3.484761e+01  -4.415867e+01
  -2.744522e+01   2.057006e+01
  -6.711008e+01   7.676976e+00
  -4.495484e+00  -4.697513e+01
   3.871243e+01  -6.571264e+01
   1.389797e+02  -5.891438e+01
   4.777111e+01   3.066060e+01
  -1.221633e+01   8.808224e+01
  -1.233870e+02   8.281250e+01
  -1.794735e+02  -6.336237e+01
  -6.187148e+01  -1.834721e+02
   9.975078e+01  -1.583697e+02
   2.320591e+02  -7.727729e+01
   2.334409e+02   7.241851e+01
   9.425376e+01   1.689221e+02
   1.493827e+01   1.374857e+02
  -9.339333e+01   7.338375e+01
  -4.948944e+01   6.076689e+01
  -8.883285e+01   1.060799e+02
  -1.161449e+02   7.153207e+01
  -1.445908e+02  -5.239169e+01
  -1.322330e+02  -1.499537e+02
  -2.084106e+01  -2.437661e+02
   9.186547e+01  -1.511008e+02
   1.542557e+02   4.397148e+00
   1.197141e+02   1.127997e+02
   1.148387e+01   1.365193e+02
  -4.630484e+01   5.191292e+01
  -5.849847e+01  -9.092230e-01
  -6.929126e+00   1.612493e-02
   2.718827e+01  -2.524846e+01
  -5.608987e+01   5.050543e+00
  -5.842046e+01  -1.878213e+01
  -4.851970e+01  -1.054204e+01
   6.334514e+01  -5.516529e+01
   1.281591e+02   3.599432e-01
   1.178794e+02   7.181386e+01
  -1.449961e+01   7.760017e+01
  -1.329026e+02   4.767562e+01
  -1.490893e+02  -1.596434e+01
  -5.466839e+01  -4.205735e+01
   8.258574e+01  -2.128493e+01
   6.745552e+01   4.881022e+01
  -2.262530e+00   6.727441e+01
  -5.714625e+01   1.234548e+01
  -4.864476e+01  -1.836689e+00
  -2.885398e+01  -3.268260e+01
  -1.966663e+01  -3.116968e+01
  -7.365408e+01  -1.144594e+01
  -5.642786e+01   8.562204e-01
  -3.901589e+01  -4.130338e+01
   2.453180e+01  -1.119951e+02
   9.618013e+01  -1.045159e+02
   1.130489e+02  -1.825452e+01
   9.114309e+01   1.175134e+02
   4.334374e+00   9.993258e+01
  -7.337871e+01   6.349473e+01
  -3.993672e+01  -1.203189e+01
   6.350787e+01   2.507116e+00
   1.017927e+02   4.331715e+01
   6.117470e+01   1.144913e+02
  -9.716676e+01   7.779561e+01
  -1.936859e+02   5.014515e+01
  -1.645761e+02  -3.077533e+01
   1.097641e+01  -8.983431e+01
   6.918916e+01  -2.358594e+01
   6.042600e+01  -4.646417e+00
  -3.408887e+01   1.867122e+01
  -8.652138e+01  -3.150268e+01
  -1.855429e+01  -9.081515e+01
   1.206412e+02  -1.421562e+02
   1.594353e+02  -4.883529e+01
   9.042415e+01   1.078421e+02
  -6.679158e+00   1.910704e+02
  -6.556886e+01   1.219711e+02
  -1.012222e+02  -3.324054e+01
  -5.091990e+01  -1.432576e+02
   1.982156e+01  -8.616551e+01
   3.730212e+01  -1.975330e+01
   6.121961e+01   5.243753e+01
   3.865853e+01  -2.963068e+00
   1.652966e+01  -3.285637e+01
   4.504714e+01   1.249646e+01
   3.989319e+01   7.087490e+01
   1.608370e+01   7.557095e+01
  -3.837984e+01   6.626074e+01
  -1.115522e+02  -3.612249e+01
  -1.034434e+02  -7.585468e+01
  -1.276885e+01  -1.219122e+01
   8.206726e+01  -1.427352e+01
   9.633143e+01   2.063653e+00
   1.226749e+01   1.247562e+01
  -4.525122e+01   1.257237e+01
  -2.027190e+01  -2.644692e+01
   3.467045e+01  -4.087299e+00
  -1.329745e+01  -1.997324e+01
  -5.947749e+01  -1.777452e+00
  -7.529516e+01  -7.316306e+00
  -1.541484e+01  -9.420928e+01
   1.129540e+02  -1.173633e+02
   1.713665e+02  -4.683829e+01
   1.080469e+02   1.027326e+02
   9.737744e+00   1.439466e+02
  -6.174197e+01   1.264818e+02
  -1.070924e+02   5.017325e+01
  -9.675759e+01  -4.233873e+01
   6.086038e+00  -3.769533e+01
   3.079320e-01   3.509691e+01
  -1.953728e+01  -1.226996e+01
  -4.048050e+01  -5.475246e+01
  -4.824795e+00  -9.884621e+01
   2.473206e+01  -8.202846e+01
   1.109740e+02   3.872007e+01
   3.237781e+01   8.456931e+01
  -2.676709e+01   9.046095e+01
  -7.742090e+01   2.814912e+01
  -9.440510e+01  -8.269655e+01
  -1.418025e+01  -9.077897e+01
   5.909655e+01  -6.317954e+01
   1.099651e+02  -3.793260e+00
   3.602683e+01   7.763076e+01
  -2.868383e+01   8.001585e+01
   4.985142e+00   1.312087e+01
   2.866561e+01   7.411086e+00
   5.031720e+01   9.141484e+00
   2.249672e+01   3.143492e+01
  -7.165388e+01   6.993494e+01
  -9.990083e+01   2.937778e+01
  -6.280157e+01  -9.650700e+00
   2.107349e+01  -8.574166e+01
   7.176479e+01  -5.903377e+01
   4.072285e+01  -9.019452e+00
  -9.063416e+00   4.963614e+01
  -1.589980e+01   5.001221e+01
  -2.420164e+01  -7.304931e-01
  -5.594004e+00  -6.339028e+01
   2.405653e+01  -1.633352e+01
   2.782330e+01   8.686457e+00
   2.421654e+01   1.314097e+01
   2.400084e+01  -1.472755e+00
   1.038973e+01  -3.055115e+01
  -4.024737e+00   1.133281e+01
   4.208153e+00   2.897876e+01
  -2.379702e+01   6.040622e+01
  -3.932043e+01   2.387375e+01
  -2.169571e+00  -5.432704e+01
   9.548216e+00  -7.773536e+01
   3.144820e+01  -9.942244e+00
   6.661433e+01   1.571802e+01
   8.693660e+00   6.961541e+01
  -5.589569e+01   2.841302e+01
  -9.765880e+01  -1.156272e+01
  -5.134263e+01  -2.918312e+01
   3.234657e+01  -1.593309e+01
   7.309067e+01   1.201679e+00
   3.448488e+01  -9.180563e+00
  -3.603748e+01  -2.117067e+01
  -4.002603e+01  -1.912821e+01
   2.128264e+01  -2.708772e+01
   8.266119e+01  -1.353379e+01
