
 $NMID
 id='ANONYMOUS ', fmtdat='(2E16.6)'
 volume=1.0
 tramp=1.0
 $END
  -3.969332e+03   2.831258e+02
  -2.534609e+03  -2.333186e+03
   8.944386e+02  -2.645266e+03
   2.064202e+03  -7.922730e+02
   1.050823e+03   6.722689e+02
  -6.162293e+02   6.537282e+02
  -8.687875e+02  -3.485784e+02
  -6.971111e+01  -9.736825e+02
   7.606077e+02  -7.502153e+02
   9.324227e+02   1.189582e+02
   3.506709e+02   8.943204e+02
  -2.513094e+02   9.189954e+02
  -6.390929e+02   1.164528e+02
  -4.127951e+02  -6.569651e+02
   2.929011e+02  -7.023109e+02
   6.000125e+02   4.687269e+00
   2.828749e+02   6.577852e+02
  -3.339279e+02   6.524220e+02
  -6.186375e+02   9.970696e+01
  -3.817459e+02  -3.469670e+02
   7.782087e+00  -4.096487e+02
   2.478742e+02  -2.542976e+02
   2.385173e+02  -2.889645e+01
  -1.042043e+02   6.705734e+01
  -3.970723e+02  -1.171649e+02
  -1.687202e+02  -3.923960e+02
   4.112494e+02  -3.985460e+02
   8.508926e+02   2.454689e+01
   4.576607e+02   5.587784e+02
  -3.889704e+02   5.459914e+02
  -6.968722e+02   3.395101e+01
  -3.563220e+02  -4.239502e+02
   2.387652e+02  -5.283164e+02
   5.702286e+02  -1.779430e+02
   3.782773e+02   2.292667e+02
   5.810135e+01   4.776816e+02
  -2.115382e+02   3.125744e+02
  -1.625884e+02  -2.127440e+02
   1.712254e+02  -3.786324e+02
   3.937072e+02   2.871841e+01
   1.980907e+02   6.037073e+02
  -2.794920e+02   6.708766e+02
  -6.278777e+02   2.912530e+01
  -3.137238e+02  -4.758788e+02
   2.850847e+02  -3.377922e+02
   3.940186e+02   2.649374e+02
  -1.441567e+01   4.955470e+02
  -5.129109e+02   1.253563e+02
  -5.968327e+02  -3.655240e+02
  -1.389837e+02  -6.106319e+02
   3.636779e+02  -3.700711e+02
   6.183826e+02   2.375935e+00
   3.822306e+02   3.530684e+02
  -1.352259e+02   3.848104e+02
  -4.512714e+02   8.868351e+01
  -2.392290e+02  -1.872144e+02
   1.002166e+02  -1.216146e+02
   1.408046e+02   1.390769e+02
  -1.217337e+02   1.494275e+02
  -3.231732e+02  -7.732276e+01
  -1.212169e+02  -2.981768e+02
   2.202845e+02  -2.839620e+02
   3.311541e+02  -7.535719e+01
   1.913441e+02   1.195220e+02
  -4.987081e+01   2.161002e+02
  -2.280580e+02   2.827538e+02
  -3.284173e+02   1.931261e+02
  -3.178596e+02  -1.324134e+02
  -8.134054e+01  -4.130505e+02
   1.108700e+02  -3.461849e+02
   1.243211e+02  -1.480762e+02
   3.561891e+01   1.097093e+01
   4.922473e+01  -7.739388e+01
   1.721796e+02  -1.100157e+02
   2.513095e+02   3.634695e+01
   1.569299e+02   2.265525e+02
  -7.688895e+01   2.380921e+02
  -2.362245e+02  -4.576108e+00
  -1.971904e+02  -2.053608e+02
  -9.113514e+00  -2.785714e+02
   2.586525e+02  -1.379344e+02
   3.389192e+02   1.515327e+02
   1.798672e+02   3.631048e+02
  -8.654045e+01   3.595753e+02
  -2.634115e+02   1.103873e+02
  -1.895111e+02  -2.863796e+01
  -1.106647e+02   1.848117e+01
  -2.399574e+02   4.011402e+01
  -3.287515e+02  -8.199354e+01
  -2.708221e+02  -2.898127e+02
   7.203571e+00  -4.353791e+02
   4.029498e+02  -4.135761e+02
   4.269536e+02  -1.606049e+02
   3.030741e+02   7.358185e+01
   3.925660e+01   2.768019e+02
  -1.458733e+02   2.417074e+02
  -9.830835e+01   3.233440e+01
   7.500205e+01  -1.120505e+02
   1.844692e+02   2.870306e+01
   7.228222e+01   1.750919e+02
  -1.391445e+02   1.586765e+02
  -1.701824e+02  -6.100627e+01
   2.439514e+01  -1.768035e+02
   1.870759e+02  -3.378626e+01
   1.590127e+02   2.214917e+02
  -6.205708e+01   3.515870e+02
  -2.683191e+02   1.991533e+02
  -3.061519e+02  -6.420723e+01
  -2.694026e+02  -2.431677e+02
  -7.392906e+01  -2.750580e+02
   1.275225e+02  -2.010394e+02
   1.925277e+02  -4.387723e+00
   5.277962e+01   5.491369e+01
  -4.617361e+01  -5.186126e+01
  -4.092788e+01  -1.228540e+02
   1.505094e+02  -9.570434e+01
   1.604339e+02   4.342110e+01
   6.903895e+01   7.684324e+01
  -8.710573e+01   1.428790e+01
  -6.526042e+01  -8.801500e+01
   1.339368e+02  -1.030166e+02
   2.744361e+02  -1.029419e+01
   2.399392e+02   1.377216e+02
   4.398037e+01   2.661200e+02
  -1.953000e+02   2.422540e+02
  -2.644212e+02   8.426403e+01
  -1.843281e+02  -4.503798e+01
  -1.474791e+01  -1.067745e+02
   7.909591e+01   1.117216e-01
  -4.670919e+01   1.099175e+02
  -1.773523e+02   5.161985e+01
  -1.943702e+02  -9.004302e+01
  -5.928882e+01  -1.979147e+02
   9.780461e+01  -1.602473e+02
   1.373506e+02  -4.291602e+01
   6.881414e+01   2.006976e+01
  -3.720485e+01   8.721498e+00
   1.647623e+01  -5.470036e+01
   8.605047e+01  -8.852394e+01
   1.759537e+02  -1.348341e+01
   2.141437e+02   1.107997e+02
   1.733257e+01   2.167403e+02
  -1.289075e+02   1.748215e+02
  -2.051134e+02   1.011798e+01
  -4.535507e+01  -1.052377e+02
   4.549752e+01  -1.304979e+02
   6.713760e+01  -3.415491e+01
   2.593775e+01   2.094793e+01
  -7.833407e+00   2.257145e+01
  -1.050128e+01  -1.625181e+01
   6.341979e+01  -4.368993e+00
   6.804234e+01   7.585428e+01
   9.142521e+00   1.390973e+02
  -1.240001e+02   1.383531e+02
  -2.218768e+02   6.923178e+00
  -2.058427e+02  -1.694948e+02
  -3.488850e+01  -2.424470e+02
   1.021007e+02  -1.758894e+02
   1.608771e+02  -5.014163e+01
   6.977130e+01   9.414321e+01
   3.219430e+01   4.143537e+01
   5.956541e+01   1.282722e+01
   6.903126e+01  -9.091812e+00
   1.870240e+00   3.459472e+01
  -5.983095e+01   8.700456e+01
  -1.221607e+02   4.700636e+01
  -6.512796e+01  -5.570782e+01
   7.730647e+00  -9.717158e+01
   1.336018e+02  -7.153277e+01
   1.966296e+02   4.424573e+01
   7.649858e+01   1.795292e+02
  -9.313783e+01   2.245980e+02
  -2.633448e+02   6.701125e+01
  -2.589151e+02  -1.005471e+02
  -1.020337e+02  -1.660814e+02
   1.454511e+01  -9.947890e+01
   7.619192e+01  -7.550517e+01
   6.438351e+01  -8.112608e+01
   8.009788e+01  -8.843057e+01
   1.132094e+02  -8.651102e+01
   1.308657e+02   2.762999e+01
   1.113611e+02   1.315282e+02
   4.270849e+01   2.249842e+02
  -8.930486e+01   1.616092e+02
  -1.656796e+02  -1.120479e+01
  -1.019505e+02  -1.259466e+02
  -1.667973e+01  -1.481847e+02
   5.157359e+01  -7.396192e+01
   6.384594e+01   7.946040e+00
   2.955106e+01   3.813269e+01
   3.695192e+00   7.278215e+01
   4.071225e+01  -1.621956e+00
   7.130158e+01   2.770880e+01
   3.166539e+01   4.202832e+01
  -7.606154e+01   4.951257e+01
  -1.457214e+02  -9.196137e+00
  -1.410364e+02  -3.111177e+01
  -8.569412e+00  -9.267888e+01
   9.598871e+01  -7.297768e+01
   1.461838e+02  -9.678272e+00
   1.849238e+01   5.782613e+01
  -2.828233e+01   2.070807e+01
  -8.906752e+01  -2.585809e+01
  -1.733675e+01  -8.509416e+01
   3.234102e+01  -4.827449e+01
   6.149165e+01  -1.709393e+00
  -2.934699e+00   5.644675e+01
   6.243627e+00   5.443540e+01
   5.861557e+01  -1.836227e+01
   6.365617e+01  -3.412632e+01
   6.005906e+01   8.522441e+01
  -3.065003e+01   1.151159e+02
  -8.555391e+01   1.336041e+02
  -1.283098e+02   2.578148e+01
  -1.455784e+02  -9.553839e+01
  -3.305483e+00  -1.129416e+02
   6.687387e+01  -6.510567e+01
   5.702176e+01   2.410693e+01
  -7.682398e+01   4.836942e+01
  -1.069797e+02  -2.829141e+01
  -5.285703e+01  -1.237697e+02
   1.013226e+02  -9.625580e+01
   1.794495e+02  -4.630919e+01
   1.683717e+02   1.682125e+01
   4.248523e+01   5.335484e+01
  -4.824315e+01   5.534465e+01
  -2.577517e+01   5.630264e+00
   2.938580e+01   7.395528e-01
   9.993796e+01   2.798198e+01
   2.992089e+00   1.296625e+02
  -8.534381e+01   1.389499e+02
  -1.835028e+02   6.754968e+01
  -1.233831e+02  -1.171654e+02
   6.485287e+00  -1.889540e+02
   1.053408e+02  -9.876775e+01
   1.212319e+02   3.487286e+01
   9.189002e+01   1.022593e+02
  -5.487365e-01   9.755199e+01
  -5.449052e+01   2.570364e+01
  -4.289895e+01  -4.233657e+01
  -9.039988e+00  -5.109876e+00
  -1.937427e+01   1.837229e+01
  -3.414916e+01  -1.670727e+00
  -6.689328e+01  -7.556263e+01
  -3.715393e+01  -1.032337e+02
   2.689844e+01  -5.714964e+01
   9.979760e+01   2.693108e+01
   1.263858e+02   8.609497e+01
  -4.008105e+00   3.928961e+01
  -9.488906e+01   1.765621e+01
  -1.042889e+02   4.225099e+01
  -3.855247e+01  -3.463160e+00
   5.127826e+01  -4.788433e+01
   1.492942e+00  -2.303473e+01
  -1.090251e+01   7.021315e+00
  -4.679580e+00   2.068018e+01
   7.236822e+01  -7.532693e+00
   6.980177e+01   4.226170e+01
   8.269283e+00   7.590195e+01
  -9.156900e+01   9.517583e+01
  -1.748317e+02   4.345990e+01
  -1.314997e+02  -9.995116e+01
  -1.009964e+01  -1.408724e+02
   5.630898e+01  -1.283813e+02
   1.197350e+02  -4.713123e+01
   9.191524e+01   1.810297e+01
   3.204642e+01   3.386961e+01
   2.445109e+01   1.953465e+01
   1.050645e+01   3.139076e+01
   3.578496e+01   2.976028e+01
  -9.065487e+00   5.905990e+01
  -1.304173e+00   6.404925e+01
  -7.856174e+01  -2.869814e+01
  -7.164262e+01  -1.010662e+02
   2.384447e+00  -8.601577e+01
   7.564103e+01  -1.600220e+01
   8.304394e+01   4.432095e+01
   2.946706e+01   9.895120e+01
  -7.702043e+01   5.687937e+01
  -1.020991e+02   3.308133e+01
  -4.505658e+01  -6.218738e+01
   1.930187e+01  -4.825617e+01
   2.199994e+01  -3.148074e+01
  -2.883137e+01   1.160811e+00
  -4.505937e+01  -1.834551e+01
  -2.664427e+01  -1.691182e+01
   4.958021e+01  -6.097843e+01
   9.922571e+01  -8.529109e+01
   7.898325e+01   4.800146e+01
   4.273303e+00   7.938083e+01
  -2.955684e+01   7.550236e+01
  -4.746580e+01   3.256042e+01
   3.819773e+01  -3.051446e+01
   1.765480e+01  -2.969068e+01
   4.606314e+01  -6.508290e+00
   3.614211e+01   6.853499e+01
   4.578450e+00   4.528630e+00
  -3.992847e+01  -3.505258e+01
  -5.571905e+01  -9.669661e+00
  -4.546204e+01   7.584978e+00
   2.742636e+00   4.916564e+01
   2.533394e+01  -1.279413e+01
  -1.404518e+01  -2.507228e+01
   2.183666e+01  -4.389307e+01
   1.229717e+01  -1.197684e+01
   1.581358e+01   7.823502e+01
  -4.483685e+00   5.746658e+01
  -3.897529e+01   7.219147e-01
  -6.147502e+01  -4.160299e+01
  -1.995288e+01  -5.438259e+01
   2.586957e+01  -2.546573e+01
   6.221500e+01   1.105327e+01
   2.753461e+01   3.586778e+01
  -4.304380e+01   2.367106e+01
  -2.870795e+01   2.665207e+01
  -5.944096e+01   1.593772e+01
   2.330717e+01   2.385485e+00
   3.887440e+01   2.059402e+01
  -3.251321e+01   1.818579e+01
  -5.949256e+01   2.669959e+01
