
 $NMID
 id='ANONYMOUS ', fmtdat='(2E16.6)'
 volume=1.0
 tramp=1.0
 $END
  -3.801229e+03   2.370181e+02
  -2.669778e+03  -2.312480e+03
   2.646793e+02  -2.411850e+03
   1.999116e+03  -1.102561e+03
   1.208089e+03   5.303223e+02
  -4.954537e+02   6.881561e+02
  -7.317520e+02  -2.518476e+02
  -1.077625e+02  -1.006559e+03
   6.819588e+02  -7.742898e+02
   9.192997e+02   1.470561e+01
   5.631895e+02   8.150000e+02
  -1.243195e+02   9.054180e+02
  -6.478032e+02   1.392385e+02
  -4.455837e+02  -6.932593e+02
   2.361778e+02  -7.159970e+02
   6.469046e+02  -5.476078e+01
   3.082600e+02   6.819128e+02
  -2.955130e+02   6.668856e+02
  -6.439704e+02   1.683998e+02
  -4.771615e+02  -3.354649e+02
  -7.367500e+01  -4.575495e+02
   2.279864e+02  -2.858188e+02
   1.794310e+02  -6.887988e+01
  -5.844313e+01   3.175313e+01
  -3.600659e+02  -1.396841e+02
  -1.701695e+02  -4.082973e+02
   4.599678e+02  -3.167704e+02
   8.425748e+02   1.032208e+02
   4.287033e+02   5.650511e+02
  -3.691894e+02   4.613706e+02
  -7.000258e+02  -4.940230e-01
  -3.749974e+02  -4.424875e+02
   2.686481e+02  -5.505963e+02
   5.511449e+02  -2.288966e+02
   4.348165e+02   2.212214e+02
   1.331045e+02   4.205189e+02
  -1.381778e+02   3.452918e+02
  -1.428497e+02  -1.756035e+02
   1.318297e+02  -4.153790e+02
   3.745532e+02  -8.718434e+00
   1.784181e+02   6.477447e+02
  -3.082100e+02   6.481566e+02
  -6.105493e+02  -1.701805e+01
  -2.854590e+02  -5.014262e+02
   2.826710e+02  -2.944589e+02
   3.467731e+02   2.570337e+02
  -2.940636e+00   5.764590e+02
  -5.743761e+02   1.904557e+02
  -5.973148e+02  -3.980238e+02
  -1.589643e+02  -5.782148e+02
   3.347343e+02  -3.673884e+02
   6.281926e+02   9.869603e+00
   4.198459e+02   3.283711e+02
  -1.041160e+02   3.471937e+02
  -3.937063e+02   7.469296e+01
  -2.295988e+02  -1.347046e+02
   8.417614e+01  -1.287196e+02
   1.645471e+02   8.346138e+01
  -9.576772e+01   1.582382e+02
  -3.022885e+02  -1.383131e+01
  -1.829125e+02  -2.487173e+02
   2.297105e+02  -2.480412e+02
   3.311280e+02  -9.805666e+01
   2.180097e+02   1.245821e+02
  -2.099414e+01   2.865593e+02
  -2.435788e+02   3.269273e+02
  -3.345739e+02   2.588356e+02
  -3.309175e+02  -1.480028e+02
  -9.138583e+01  -4.423530e+02
   1.029168e+02  -4.074001e+02
   1.161401e+02  -1.038414e+02
   3.465985e+01   2.092836e+01
   6.336307e+01  -7.231554e+01
   1.969038e+02  -9.820442e+01
   2.746840e+02   4.430856e+01
   1.637802e+02   2.448658e+02
  -7.530050e+01   2.349452e+02
  -2.035381e+02  -5.147452e+00
  -1.883281e+02  -2.230392e+02
   5.728803e-01  -2.804300e+02
   2.722782e+02  -8.764546e+01
   3.729365e+02   1.562161e+02
   1.819422e+02   3.558588e+02
  -9.982086e+01   3.177557e+02
  -2.460376e+02   1.192475e+02
  -1.612810e+02   4.672512e+01
  -1.449835e+02   4.957838e+01
  -2.369204e+02   1.020707e+02
  -4.300181e+02  -6.580162e+01
  -3.105508e+02  -2.788715e+02
  -1.426980e+01  -4.421060e+02
   3.674733e+02  -4.287628e+02
   4.258595e+02  -2.099474e+02
   3.346775e+02   3.487380e+01
   9.064463e+01   2.601468e+02
  -9.813812e+01   2.482620e+02
  -6.213696e+01   7.202428e+01
   1.156031e+02  -1.087109e+02
   1.788156e+02  -1.854045e+00
   5.754110e+01   1.961410e+02
  -1.409185e+02   1.663608e+02
  -1.607649e+02  -4.662719e+01
   2.376532e+01  -1.785016e+02
   1.665765e+02  -3.593339e+01
   1.400822e+02   2.720555e+02
  -3.215412e+01   3.576496e+02
  -2.592263e+02   2.047404e+02
  -3.625681e+02  -8.581332e+01
  -2.821594e+02  -2.405501e+02
  -7.309748e+01  -2.339871e+02
   9.606714e+01  -1.822694e+02
   1.632650e+02  -3.223470e+01
   8.408661e+01  -1.890182e+00
  -6.735887e+01  -5.270415e+01
  -2.538826e+01  -1.240342e+02
   1.427995e+02  -1.297643e+02
   1.628453e+02   2.233926e+01
   8.576380e+01   8.372340e+01
  -5.934874e+01   2.716728e+01
  -5.697727e+01  -5.882234e+01
   1.289333e+02  -9.077857e+01
   2.679326e+02   1.579632e+01
   2.725663e+02   1.241305e+02
   6.864269e+01   2.480821e+02
  -1.564138e+02   2.320066e+02
  -2.504944e+02   1.504329e+02
  -1.935843e+02  -1.923674e+01
   1.738902e+01  -8.783797e+01
   7.740711e+01  -7.234657e+00
  -4.338772e+01   8.432561e+01
  -2.122799e+02   5.429610e+01
  -2.200022e+02  -7.783785e+01
  -6.635953e+01  -2.135196e+02
   7.359929e+01  -1.447704e+02
   1.322758e+02  -1.311655e+01
   5.701777e+01   1.592279e+01
  -4.988665e+01  -1.663215e+01
  -1.393928e+01  -8.832628e+01
   9.678114e+01  -1.421650e+02
   1.900146e+02  -1.653394e+01
   2.154706e+02   1.177157e+02
   2.216775e+01   2.297129e+02
  -1.613676e+02   2.098243e+02
  -1.658849e+02   9.074317e+00
  -6.030360e+01  -1.348922e+02
   4.893102e+01  -1.169403e+02
   7.849215e+01  -1.080525e+01
  -1.471493e+01  -3.902567e+00
  -4.587502e+00   5.737895e+00
  -7.182344e+00  -1.996266e+01
   8.091361e+01   5.344434e+00
   1.217689e+02   8.578046e+01
   2.355213e+01   1.701704e+02
  -9.408700e+01   1.540838e+02
  -2.388990e+02   3.535501e+01
  -1.920803e+02  -1.461131e+02
  -5.429902e+01  -2.644110e+02
   1.213004e+02  -1.797725e+02
   1.274364e+02  -5.473225e+01
   5.335450e+01   6.280336e+01
   6.271831e+00   6.450811e+01
   6.079702e+01  -2.745721e+01
   9.541116e+01  -7.413507e+00
   4.714562e+01   7.601697e+01
  -2.891762e+01   9.152712e+01
  -1.420403e+02   3.271588e+01
  -1.043713e+02  -7.364622e+01
   3.518093e+01  -1.060265e+02
   1.467962e+02  -5.005298e+01
   2.088969e+02   5.065168e+01
   1.118353e+02   2.246224e+02
  -1.219065e+02   2.066779e+02
  -2.403965e+02   1.045453e+02
  -2.768213e+02  -8.444118e+01
  -1.296826e+02  -1.576217e+02
   3.746798e+01  -1.545356e+02
   9.732205e+01  -6.909071e+01
   3.190047e+01  -5.300279e+01
   7.133931e+01  -8.749795e+01
   6.234299e+01  -1.019431e+02
   9.230200e+01  -1.248128e+01
   1.316759e+02   1.065098e+02
   4.196293e+01   2.119427e+02
  -6.462124e+01   1.716695e+02
  -1.657615e+02   1.999861e+01
  -1.112863e+02  -1.201231e+02
  -1.307948e+01  -1.678037e+02
   8.198868e+01  -1.079534e+02
   8.407916e+01  -1.061048e+01
  -1.343645e+00   5.410342e+01
  -1.921266e+01   1.996162e+01
   1.509976e+01  -1.685003e+01
   7.508538e+01   1.423376e+01
   5.721993e+01   4.862851e+01
  -7.225935e+01   3.733038e+01
  -1.488900e+02   3.439438e+01
  -1.647252e+02  -4.599623e+01
   3.497933e+00  -9.970846e+01
   1.349621e+02  -5.155572e+01
   1.058787e+02  -2.221201e+01
   4.111669e+01   6.277934e+01
  -4.227330e+01   4.005986e+01
  -8.989725e+01   2.009901e+01
  -1.592401e+01  -4.237473e+01
   3.326000e+01  -7.976478e+01
   7.795454e+01   7.767888e+00
   2.673627e+01   4.540863e+01
   7.737620e+01   6.268320e+01
   3.945740e+01  -1.155036e+01
   8.404316e+01   1.354835e+01
   2.686717e+01   4.420505e+01
   5.768555e+00   1.697133e+02
  -1.138911e+02   1.293904e+02
  -1.554749e+02   4.520326e+01
  -1.143536e+02  -1.000263e+02
  -1.918176e+01  -1.339425e+02
   5.714666e+01  -4.243633e+01
   5.508283e+01   4.749029e+00
  -4.866122e+01   3.214415e+01
  -1.123709e+02  -5.848697e+01
  -7.873806e+01  -8.572108e+01
   6.790840e+01  -1.125991e+02
   1.848843e+02  -5.124164e+01
   1.511061e+02   2.861193e+00
   3.674419e+01   6.044507e+01
  -6.287907e+01   9.117108e+01
  -2.593837e+01   1.018208e+00
   3.094608e+01  -2.338386e+01
   1.015526e+02   2.084254e+01
   4.352726e+01   1.004712e+02
  -6.779990e+01   1.920170e+02
  -1.710135e+02   7.310417e+01
  -1.448965e+02  -8.514012e+01
  -1.777548e+00  -1.791866e+02
   9.043751e+01  -1.482304e+02
   1.141634e+02   7.999828e+00
   4.677403e+01   1.184546e+02
   6.140316e+00   1.081847e+02
  -4.325434e+01   2.641231e+01
  -6.231356e+01  -1.782083e+01
  -3.486267e+01  -3.143370e+01
  -1.575703e+01   2.856180e+01
  -4.128138e+01  -2.755515e+01
  -5.569284e+01  -5.063668e+01
  -5.797159e+01  -9.965224e+01
   1.413231e+01  -2.302649e+01
   1.677467e+02   4.226826e+01
   1.421931e+02   8.843155e+01
   6.066129e+00   8.620644e+01
  -1.059655e+02   2.520041e+01
  -9.136819e+01   4.188843e+01
  -1.699015e+01   3.449610e+00
   5.470307e+01  -2.929639e+01
  -2.251361e+00  -1.346848e+01
  -3.934400e+01  -1.441571e+01
   1.379876e+01  -7.597836e-01
   6.981058e+01   1.298989e+01
   8.053389e+01   2.655941e+00
  -7.333684e+00   6.190140e+01
  -9.588601e+01   8.308128e+01
  -1.934119e+02   7.579737e+01
  -1.343889e+02  -7.774688e+01
  -4.407290e+01  -1.595848e+02
   5.762921e+01  -1.429763e+02
   1.099068e+02  -5.306306e+01
   1.014385e+02   4.595029e+01
   3.388348e+01   4.220401e+01
  -1.615394e+01   2.717969e+01
  -3.851583e+00  -1.391567e+01
   2.547162e+01   6.286579e+01
   6.245906e+01   1.156914e+02
  -9.758995e+00   9.112428e+01
  -7.223551e+01   2.568687e+01
  -9.099497e+01  -9.631077e+01
  -1.734255e+01  -9.076847e+01
   8.450519e+01  -1.682457e+01
   7.003283e+01   7.156846e+01
   1.611007e+01   1.240608e+02
  -3.756168e+01   6.482274e+01
  -6.743239e+01   8.355928e-01
  -2.862081e+01  -5.125507e+01
   4.802760e+01  -4.850541e+01
   6.669424e+01  -2.396091e+00
  -1.314468e+01  -7.982374e+00
  -5.455046e+01   1.280638e+01
  -5.592112e+01  -1.335290e+01
   4.726905e+01  -6.962746e+01
   1.110965e+02  -5.907436e+01
   8.540798e+01   3.199603e+01
  -2.151488e+01   7.309418e+01
  -1.925290e+01   5.053732e+01
  -1.282138e+01   9.963305e+00
   6.527548e+00  -5.234793e+01
   9.047445e+00  -3.590651e+01
   6.335116e+01   4.618285e+01
   2.291867e+01   7.680765e+01
   1.553546e+01   2.904868e+01
  -3.566280e+01   2.357545e-01
  -4.276691e+01  -1.511027e+01
  -3.382441e+01   2.432394e+00
  -1.169157e+01   4.794517e+01
   1.943241e+01  -8.824110e+00
   2.700650e+01  -2.917497e+01
   1.302707e+01  -3.248579e+01
   3.510498e+01  -1.192781e+01
   6.852039e+01   3.440675e+01
   2.747956e+01   7.905743e+01
  -4.794864e+01   2.009653e+01
  -6.562466e+01  -3.405023e+01
   1.288298e+01  -8.785458e+01
   4.719594e+01  -3.108859e+01
   9.258420e+01   1.814490e+01
   6.127961e+01   7.255925e+01
  -7.451985e+01   3.580299e+01
  -8.456064e+01   1.922959e+01
  -2.897629e+01   1.994505e+01
   1.983027e+01  -2.089790e+01
   1.855365e+01  -2.783331e+01
  -2.361398e+01   2.424473e+01
  -8.743919e+01   3.109375e+01
