
 $NMID
 id='ANONYMOUS ', fmtdat='(2E16.6)'
 volume=1.0
 tramp=1.0
 $END
  -2.602818e+03   4.150965e+02
  -1.732177e+03  -1.009626e+03
  -2.807867e+02  -1.915309e+03
   1.033523e+03  -1.016475e+03
   8.067453e+02   2.181823e-01
   7.507527e+01   2.742505e+02
  -2.791408e+02   9.432914e+00
  -8.585590e+01  -4.554371e+02
   3.499746e+02  -5.629682e+02
   5.644465e+02  -1.663526e+02
   4.212702e+02   4.518554e+02
   4.447026e+01   5.411409e+02
  -3.052975e+02   1.737896e+02
  -2.541634e+02  -3.775520e+02
   5.353777e+01  -4.630569e+02
   4.004716e+02  -9.063681e+01
   2.812124e+02   4.142910e+02
  -7.293407e+01   5.174531e+02
  -3.866245e+02   2.239218e+02
  -4.017668e+02  -1.477890e+02
  -1.104821e+02  -3.227293e+02
   1.074055e+02  -2.058934e+02
   1.149320e+02  -6.998375e+01
  -5.645454e+01   1.775468e+01
  -2.592293e+02  -1.586007e+02
  -6.128197e+01  -2.836119e+02
   3.176511e+02  -2.125233e+02
   5.223676e+02   8.934556e+01
   2.724470e+02   2.571474e+02
  -1.706605e+02   2.422491e+02
  -4.701393e+02  -4.485991e+01
  -2.333998e+02  -2.823190e+02
   1.805588e+02  -3.490036e+02
   3.686353e+02  -1.159618e+02
   3.144307e+02   1.458993e+02
   1.085740e+02   3.110384e+02
  -4.662908e+01   1.933788e+02
  -1.773389e+01  -7.552634e+01
   7.421894e+01  -2.010425e+02
   1.920364e+02   1.333776e+01
   1.455331e+02   4.031311e+02
  -1.504095e+02   4.580420e+02
  -2.866576e+02   2.951526e+01
  -1.668839e+02  -3.024806e+02
   1.290996e+02  -1.830025e+02
   2.010417e+02   1.778760e+02
  -1.712851e+01   3.230532e+02
  -3.368834e+02   1.261185e+02
  -3.806923e+02  -3.027048e+02
  -1.257384e+02  -3.798054e+02
   2.378567e+02  -2.620592e+02
   3.890224e+02  -3.561667e+01
   3.151777e+02   2.317223e+02
  -2.651618e+01   2.365892e+02
  -2.703352e+02   1.063320e+02
  -1.905352e+02  -3.264029e+01
  -2.983351e-01  -1.062989e+00
   9.675937e+01   4.496899e+01
  -8.045638e+01   8.399559e+01
  -2.044322e+02  -6.535690e-01
  -1.450815e+02  -1.617468e+02
   9.180429e+01  -1.686236e+02
   2.770641e+02  -8.977559e+01
   1.869761e+02   1.110023e+02
  -1.331713e+01   2.521785e+02
  -1.969455e+02   2.505891e+02
  -2.753403e+02   1.314437e+02
  -1.688641e+02  -1.396870e+02
  -3.700010e+01  -2.666163e+02
   4.436445e+01  -2.115781e+02
   5.847272e+01  -8.498835e+01
   1.348658e+01  -4.068723e+01
   1.004868e+02  -9.156085e+01
   1.721041e+02  -8.798961e+01
   2.031173e+02   4.111427e+01
   9.823010e+01   1.896326e+02
  -6.759868e+01   2.209079e+02
  -1.811350e+02  -1.014554e+01
  -1.241227e+02  -1.953896e+02
   2.474081e+01  -1.637203e+02
   2.011732e+02  -1.018842e+02
   2.622633e+02   1.380326e+02
   1.691043e+02   2.338480e+02
  -2.504546e+01   2.265506e+02
  -1.287650e+02   1.217324e+02
  -1.004149e+02   3.880052e+01
  -1.105814e+02   7.567075e+01
  -1.786648e+02   5.196113e+01
  -3.330890e+02  -3.296956e+01
  -3.126919e+02  -1.771966e+02
  -7.971296e+01  -3.634510e+02
   2.878740e+02  -3.051021e+02
   3.745411e+02  -1.464412e+02
   2.557256e+02   5.552933e+01
   5.725185e+01   1.906267e+02
  -1.514946e+01   1.692925e+02
  -6.725498e+01   2.878673e+01
   5.071053e+01  -5.388442e+01
   6.888867e+01   1.460782e+00
   2.044800e+01   1.336271e+02
  -1.181143e+02   1.052965e+02
  -1.411561e+02  -1.695689e+01
  -3.511981e+00  -9.999543e+01
   1.161776e+02  -3.134826e+01
   1.328716e+02   1.641830e+02
  -1.295260e+01   2.499865e+02
  -1.616109e+02   1.767553e+02
  -2.551052e+02  -2.490000e+01
  -2.340345e+02  -1.904942e+02
  -5.591713e+01  -1.870453e+02
   9.688047e+01  -1.202318e+02
   1.223259e+02   4.335051e+00
  -2.052999e+00   1.192512e+01
  -5.054355e+01  -2.563974e+01
  -5.126947e-01  -9.116042e+01
   1.068490e+02  -5.162261e+01
   1.189486e+02   5.840710e+01
   1.450358e-01   4.960129e+01
  -8.362862e+01  -2.385872e+01
  -4.361331e+01  -8.716576e+01
   1.034013e+02  -9.487890e+01
   2.351090e+02  -2.564652e+01
   2.156223e+02   1.397659e+02
   5.048470e+01   2.063450e+02
  -1.494698e+02   2.099259e+02
  -2.377433e+02   8.195899e+01
  -1.211426e+02  -4.246569e+01
   3.375676e+01  -6.043437e+01
   6.146911e+01   1.043446e+01
  -4.968831e+01   8.707047e+01
  -1.464572e+02   5.913358e+01
  -1.788464e+02  -7.933023e+01
  -5.087000e+01  -1.271084e+02
   6.779051e+01  -1.258430e+02
   9.175707e+01  -1.966373e+01
   2.994056e+01   7.910514e+00
  -2.921037e+01   3.401141e+00
  -3.045839e+00  -9.589153e+01
   5.074276e+01  -9.784046e+01
   1.536475e+02  -2.335858e+01
   1.531821e+02   1.015053e+02
  -6.411932e+00   1.757811e+02
  -9.655572e+01   1.160615e+02
  -1.326652e+02  -3.211582e+01
  -1.303225e+01  -6.132553e+01
   6.167026e+01  -1.002127e+02
  -1.441501e+00  -3.355016e+01
   7.116492e+00   4.626374e+00
  -3.618150e+01  -5.922423e+00
  -6.507167e+00  -4.670757e+01
   5.670186e+01   6.483041e+00
   9.991936e+01   7.072624e+01
   3.029948e+01   1.336152e+02
  -1.106332e+02   1.024858e+02
  -1.855179e+02   1.844852e+01
  -1.588277e+02  -1.300638e+02
  -2.816520e+01  -1.840076e+02
   8.289784e+01  -1.207095e+02
   8.082443e+01  -4.929293e+01
   6.981942e+01   4.822845e+01
   4.415028e+01   3.218422e+01
   4.862152e+01  -2.037427e+01
   6.925214e+01  -2.100792e+01
   4.667822e+01   4.361891e+01
  -3.829585e+01   7.901401e+01
  -1.081308e+02   5.863811e+01
  -7.556850e+01  -3.260564e+01
  -8.730273e+00  -8.207148e+01
   1.289480e+02  -5.506894e+01
   1.665432e+02   5.114142e+01
   6.654260e+01   1.548914e+02
  -8.047944e+01   1.742225e+02
  -1.539682e+02   8.461745e+01
  -1.720502e+02  -1.317947e+01
  -1.109700e+02  -1.154953e+02
  -1.235141e+01  -9.656097e+01
   4.184761e+01  -6.413247e+01
   4.612807e+01  -3.566404e+01
   2.714910e+01  -9.787058e+01
   9.356149e+01  -4.213367e+01
   9.744112e+01   6.900155e+00
   1.003985e+02   9.919452e+01
   5.709343e+01   1.969199e+02
  -5.072233e+01   1.760595e+02
  -1.146105e+02   1.461356e+01
  -1.280914e+02  -7.435426e+01
  -1.565081e+01  -1.195244e+02
   7.655604e+01  -6.828299e+01
   5.245052e+01   4.049120e+01
   1.763909e+01   1.761718e+01
  -2.956284e+01   1.575719e+01
   2.551210e+01   5.702085e+00
   5.535022e+01  -1.555395e+00
   3.804680e+01   3.105269e+01
  -3.397854e+01   3.384105e+01
  -1.670175e+02   1.063698e+01
  -1.008522e+02  -5.187835e+01
  -5.633960e+00  -9.006096e+01
   1.019701e+02  -7.981799e+01
   1.009798e+02  -4.149612e+00
   2.658352e+01   6.146920e+01
  -8.817604e+01   1.995121e+01
  -5.484920e+01  -1.081089e+01
  -2.801071e+01  -6.656360e+01
   7.419302e+01  -4.302770e+01
   4.985426e+01  -1.681090e+01
   4.915780e+01   1.206711e+01
   2.004704e+01  -3.117761e+00
   6.756415e+01  -3.327619e+01
   4.422528e+01  -6.982427e+00
   5.437843e+01   7.352067e+01
  -4.604816e+01   1.422658e+02
  -7.771094e+01   1.651611e+02
  -1.401678e+02   5.340171e+01
  -9.373498e+01  -7.008775e+01
   1.919661e+01  -1.181362e+02
   7.937750e+01  -5.752497e+01
   2.328614e+01   1.309209e+01
  -4.529560e+01   1.993568e+01
  -1.145544e+02   6.723564e+00
  -5.665253e+01  -8.295425e+01
   6.928009e+01  -8.569748e+01
   1.248255e+02  -3.762529e+01
   1.245726e+02   2.767198e+01
   8.921132e+00   5.430400e+01
  -1.633305e+01   3.085804e+01
  -2.899423e+01   1.180044e+01
   3.594317e+01   1.878261e+00
   6.812289e+01   2.787023e+01
   4.694625e+01   8.535131e+01
  -3.248955e+01   1.153563e+02
  -1.123539e+02   4.310495e+01
  -8.123189e+01  -6.853345e+01
  -4.003597e+01  -1.478828e+02
   6.129507e+01  -9.724681e+01
   1.037751e+02   1.051180e+01
   5.794291e+01   8.653398e+01
  -3.429696e+00   7.233284e+01
  -3.457109e+01   1.400014e+01
  -1.083848e+01   4.827236e+00
  -8.220562e+00  -7.569336e-01
  -2.695429e+01   3.728066e+01
  -1.800325e+01  -2.220319e+01
  -4.576839e+01  -7.906090e+01
  -1.893551e+01  -5.930253e+01
   5.119483e+01  -3.920090e+01
   8.956983e+01   3.895060e+00
   8.997191e+01   2.955239e+01
   3.181245e+00   1.980161e+01
  -6.336034e+01   1.957150e+01
  -5.558299e+01  -5.586306e+00
  -2.571447e+00   1.662116e+01
   4.269943e+01  -1.984050e+01
   3.206696e+01   1.715341e-01
  -2.466334e+01  -6.122784e+00
  -1.668906e+00  -4.951448e+01
   5.568663e+01  -1.358764e+01
   9.973323e+01   2.733949e+01
   1.377871e+01   5.668104e+01
  -6.581378e+01   1.203197e+02
  -1.356001e+02   8.773967e+01
  -1.327908e+02  -1.970167e+01
  -6.616299e+01  -1.427044e+02
   1.508073e+01  -1.506426e+02
   1.047301e+02  -5.436347e+01
   6.299587e+01   9.981904e+00
   4.688304e+01   4.855469e+01
  -7.166792e+00  -1.480601e-01
  -8.221472e+00  -9.409086e+00
   3.336125e+01   2.947961e+01
   1.740143e+01   7.244309e+01
  -1.452610e+01   6.530027e+01
  -6.728028e+01   4.991615e-01
  -9.352273e+01  -4.654542e+01
  -1.174094e+01  -8.012386e+01
   3.965858e+01  -4.489584e+01
   9.820930e+01   3.409936e+01
   5.645584e+01   9.525638e+01
  -5.748342e+01   7.395561e+01
  -8.512024e+01   3.221705e+00
  -2.240718e+01  -5.513146e+01
   2.952984e+01  -6.475006e+01
   4.704117e+01   1.582501e+01
  -4.844305e+01   1.058221e+01
  -4.070500e+01   3.110471e-02
   7.196364e+00  -6.142303e+01
   4.548638e+01  -5.797489e+01
   1.056557e+02  -2.469519e+01
   6.548517e+01  -1.207073e+01
   1.838284e+01   5.282578e+01
  -5.647592e+01   6.006607e+01
  -3.110126e+01   8.945762e+00
  -2.454232e+01  -6.136239e+01
   4.057705e+01  -5.841297e+01
   4.449996e+01  -8.955221e+00
   2.179555e+01  -5.793018e+00
   2.594361e+01   6.029590e+01
  -4.313887e+01  -7.160205e+00
  -3.243642e+01  -2.627801e+01
  -1.617224e+00   2.628967e+01
   1.864690e+01  -8.098587e+00
  -1.369476e+01   5.377959e+00
  -2.233346e+01  -1.945444e+01
   4.304899e+00  -4.576453e+01
   1.849297e+00  -3.774714e+01
   3.918542e+01   1.250460e+01
   1.776857e+01   5.483636e+01
  -6.990009e+00   3.827031e+01
  -6.842190e+01  -4.270790e+01
  -2.827071e+01  -2.106026e+01
   2.309629e+01  -3.050593e+01
   7.732562e+01   1.895356e+00
   2.745149e+01   9.630368e+00
  -1.079789e+01   5.739370e+01
  -7.224804e+01   7.877249e+00
  -2.087351e+01  -1.744501e+01
   1.871255e+01  -1.272776e+01
   2.453127e+01   3.404493e+01
  -3.662002e+01   2.530306e+01
  -6.635276e+01   2.704276e+01
