
 $NMID
 id='ANONYMOUS ', fmtdat='(2E16.6)'
 volume=1.0
 tramp=1.0
 $END
   3.304809e+03  -4.721156e+02
   2.567982e+03   1.712586e+03
   2.478374e+02   2.171781e+03
  -1.235223e+03   1.377246e+03
  -1.086773e+03  -1.494586e+02
   1.658705e+02  -3.980029e+02
   5.068618e+02   1.239818e+02
   8.187978e+01   5.301176e+02
  -4.648099e+02   5.313278e+02
  -7.406004e+02   1.271868e+01
  -4.470350e+02  -6.040011e+02
  -2.276939e+01  -6.500383e+02
   3.401767e+02  -1.966383e+02
   3.726427e+02   4.492846e+02
  -1.141059e+02   5.986891e+02
  -4.779938e+02   1.226197e+02
  -3.390115e+02  -5.188877e+02
   1.689244e+02  -6.073913e+02
   4.900753e+02  -2.887138e+02
   4.249470e+02   1.915718e+02
   1.341608e+02   3.864508e+02
  -1.622124e+02   2.491915e+02
  -1.542846e+02   6.399518e+01
   1.368655e+02   7.440857e+01
   2.328006e+02   2.242502e+02
   2.345243e+01   3.262368e+02
  -4.318578e+02   2.313848e+02
  -5.911013e+02  -1.998743e+02
  -2.074522e+02  -3.689594e+02
   3.256039e+02  -3.073638e+02
   4.744148e+02   1.095808e+02
   2.089794e+02   3.587135e+02
  -2.567015e+02   3.755140e+02
  -4.343923e+02   1.758793e+02
  -3.517849e+02  -1.913322e+02
  -1.377712e+02  -3.231677e+02
   8.462375e+01  -2.275944e+02
   7.298171e+00   1.001324e+02
  -1.459805e+02   1.896871e+02
  -2.406587e+02  -1.099840e+02
  -1.051028e+02  -4.589239e+02
   2.750121e+02  -5.237794e+02
   4.208434e+02  -3.670883e+01
   1.366026e+02   3.436239e+02
  -1.563703e+02   2.453348e+02
  -2.100893e+02  -2.161723e+02
   8.993102e+01  -3.828848e+02
   3.851931e+02  -1.030776e+02
   4.626400e+02   3.633112e+02
   1.244329e+02   4.715220e+02
  -2.686412e+02   3.083824e+02
  -5.024946e+02   2.254035e+01
  -3.710567e+02  -2.430274e+02
   4.856835e+01  -2.513183e+02
   3.003251e+02  -7.984504e+01
   1.945595e+02   1.401987e+01
  -2.883550e+00   4.395637e+01
  -5.353057e+01  -4.162077e+01
   7.478375e+01  -9.400197e+01
   2.617566e+02   5.291854e+01
   1.542942e+02   1.930376e+02
  -1.044119e+02   2.448369e+02
  -2.845976e+02   1.265154e+02
  -2.230040e+02  -5.997668e+01
   2.966102e+01  -2.742600e+02
   2.692464e+02  -3.003960e+02
   3.221572e+02  -2.279591e+02
   2.461420e+02   1.134502e+02
   7.654064e+01   3.482323e+02
  -2.794514e+01   2.933405e+02
  -7.490646e+01   1.973720e+02
  -5.521283e+01   6.890834e+01
  -1.383860e+02   7.965481e+01
  -2.098947e+02   6.076126e+01
  -2.131561e+02  -1.162968e+02
  -1.022195e+02  -2.062731e+02
   5.488588e+01  -1.616436e+02
   1.348647e+02   2.828682e+01
   1.065057e+02   2.113159e+02
  -2.060747e+01   2.317088e+02
  -2.029730e+02   6.107992e+01
  -3.253337e+02  -1.532510e+02
  -1.622066e+02  -2.869968e+02
   8.509470e+01  -2.520852e+02
   2.127158e+02  -1.222298e+02
   1.651581e+02  -8.193275e+01
   1.291594e+02  -2.505185e+01
   2.733546e+02  -5.443185e+01
   4.059039e+02   1.041481e+02
   3.031881e+02   2.642669e+02
  -1.595197e+00   4.073356e+02
  -3.938621e+02   3.443220e+02
  -4.129789e+02   1.453641e+02
  -2.760677e+02  -8.212522e+01
  -2.191954e+01  -2.425143e+02
   1.111660e+02  -2.208833e+02
   2.496290e+01  -4.498780e+01
  -1.023327e+02   3.756551e+01
  -1.518676e+02  -5.358543e+01
  -8.825198e-01  -1.517484e+02
   1.170730e+02  -1.502637e+02
   1.218958e+02   6.316811e+01
  -2.066370e+01   1.587365e+02
  -1.270040e+02   9.908146e+00
  -1.236344e+02  -2.155477e+02
   4.282767e+01  -3.208736e+02
   2.570358e+02  -1.831902e+02
   3.404158e+02   5.775382e+01
   2.576260e+02   2.301551e+02
   6.078170e+01   2.271761e+02
  -1.218374e+02   1.096278e+02
  -1.333436e+02   1.701267e+01
  -3.580434e+01  -3.462492e+00
   4.096140e+01   4.999837e+01
   1.622661e+01   1.357713e+02
  -1.292116e+02   7.681763e+01
  -1.751018e+02  -3.275915e+01
  -4.304888e+01  -5.856973e+01
   6.337145e+01  -1.754111e+01
   3.267142e+01   3.994427e+01
  -1.692928e+02   1.104884e+02
  -2.808585e+02  -1.634514e+01
  -2.524317e+02  -1.524805e+02
  -3.254066e+01  -2.286294e+02
   2.126438e+02  -1.946657e+02
   2.421807e+02  -1.023317e+02
   1.619752e+02   2.507744e+01
  -4.253962e+01   4.201043e+01
  -7.548718e+01  -1.834043e+01
   4.672279e+01  -1.041411e+02
   2.017091e+02  -4.014210e+01
   1.849371e+02   1.323786e+02
   4.489921e+01   1.926748e+02
  -9.158054e+01   1.412512e+02
  -1.163457e+02   1.881158e+01
  -2.734344e+01  -2.062884e+01
   3.305092e+01   3.297487e+01
  -1.179712e+01   8.958780e+01
  -8.421872e+01   1.010704e+02
  -1.839187e+02   4.217418e+00
  -1.658320e+02  -1.125507e+02
  -1.964067e+01  -2.020073e+02
   1.440931e+02  -1.534133e+02
   1.641896e+02  -2.348228e+01
   3.942922e+01   6.187860e+01
  -1.845147e+01   7.481343e+01
  -8.577834e+01   2.014117e+01
   3.934104e+00   5.313473e+00
   1.512588e+01  -5.479443e+00
   9.557789e-01  -1.541721e+01
  -7.819470e+01   1.471882e+01
  -8.934308e+01  -1.189243e+02
   4.241880e+00  -1.624379e+02
   9.892263e+01  -1.333204e+02
   2.184125e+02  -7.542503e+00
   1.600722e+02   1.522438e+02
   1.911646e+01   2.176829e+02
  -1.061152e+02   1.459916e+02
  -1.205259e+02   4.162204e+01
  -7.174871e+01  -6.425296e+01
  -4.032063e+00  -3.533531e+01
  -6.438989e+01   4.364935e+01
  -9.451823e+01   1.425350e+00
  -6.003355e+01  -5.348309e+01
   5.504467e+00  -9.603347e+01
   1.552322e+02  -3.678098e+01
   8.959483e+01   4.649314e+01
  -1.381340e+01   1.269996e+02
  -1.796061e+02   7.403978e+01
  -1.963331e+02  -8.792949e+01
  -6.549728e+01  -2.287004e+02
   1.188553e+02  -2.206723e+02
   2.276017e+02  -7.826424e+01
   2.040310e+02   8.268883e+01
   7.063047e+01   1.403730e+02
  -2.735203e+01   1.335837e+02
  -4.199554e+01   9.750340e+01
  -4.541402e+01   6.525477e+01
  -5.506354e+01   8.983876e+01
  -8.565816e+01   7.943079e+01
  -1.403758e+02  -3.330384e+01
  -9.674251e+01  -1.380193e+02
  -4.158612e+01  -2.054728e+02
   6.371521e+01  -1.453989e+02
   1.310075e+02  -1.029145e+00
   1.065211e+02   1.164792e+02
  -3.471282e+00   1.444897e+02
  -7.456307e+01   6.130178e+01
  -5.648864e+01  -6.886475e+00
  -8.203518e+00  -4.563033e+01
   2.044083e+01  -2.567693e+01
  -1.714629e+01  -2.188361e+01
  -7.338429e+01  -5.680562e+00
  -7.065625e+01  -2.199739e+01
   7.464934e+01  -2.638162e+01
   1.522258e+02  -1.777191e+00
   1.133901e+02   7.325476e+01
  -1.626467e+01   8.589043e+01
  -1.121721e+02   9.119336e+01
  -1.755721e+02   1.723659e+01
  -5.690013e+01  -4.959534e+01
   4.928439e+01  -4.459250e+01
   7.706463e+01   3.046626e+01
  -3.151774e+00   1.038107e+02
  -2.922892e+01   8.768713e+01
  -7.421506e+01   1.040599e+01
  -2.413259e+01  -3.574879e+01
  -7.605430e+01  -5.302350e+01
  -5.960484e+01   1.198085e+01
  -8.297937e+01  -5.548963e+00
  -3.244785e+01  -7.348752e+01
   6.690584e+00  -1.214983e+02
   1.005909e+02  -1.230359e+02
   1.414108e+02  -5.564368e+01
   1.195772e+02   7.943121e+01
   1.104223e+01   1.287680e+02
  -6.177021e+01   7.071067e+01
  -6.031444e+01  -1.222988e+01
   3.937273e+01  -2.556878e+01
   1.288244e+02   2.091430e+00
   6.593831e+01   1.035745e+02
  -6.427543e+01   9.195433e+01
  -1.599631e+02   5.186816e+01
  -1.567984e+02  -2.799515e+01
  -4.068951e+01  -8.154186e+01
   5.806704e+01  -5.831530e+01
   2.630456e+01  -2.021506e+01
  -3.317801e+01   1.591903e+01
  -9.254720e+01  -4.074535e+01
  -2.864525e+01  -1.164534e+02
   9.263143e+01  -1.734062e+02
   1.241956e+02  -8.256094e+01
   1.309493e+02   7.941502e+01
  -9.407751e+00   1.767403e+02
  -5.811878e+01   1.351332e+02
  -1.152355e+02  -2.280070e+01
  -3.308784e+01  -1.207004e+02
   9.174598e+00  -7.420409e+01
   4.581652e+01  -2.494787e+01
   5.571214e+01   4.148087e+01
   3.855604e+01   5.023844e+00
   2.519801e+01  -3.083516e+00
   2.746724e+01   4.204141e+01
   6.969203e+01   5.725660e+01
   4.507856e+01   1.108480e+02
  -4.892138e+01   7.789569e+01
  -1.516711e+02  -2.801794e+01
  -1.147236e+02  -6.251014e+01
  -9.865251e+00  -6.814340e+01
   7.053062e+01  -2.971231e+01
   4.562954e+01  -2.036050e+01
   1.670655e+01  -1.402970e+01
  -1.314395e+01  -3.694155e+00
  -2.210713e+01   1.077640e+01
   3.708013e+01   1.906525e+01
  -2.415930e+01  -2.357919e+01
  -7.222649e+01  -9.570812e+00
  -5.680903e+01  -2.493449e+01
  -8.766325e+00  -7.220883e+01
   9.498418e+01  -1.003801e+02
   1.892537e+02  -8.211289e+01
   1.562731e+02   8.322669e+01
   4.361356e+01   1.619889e+02
  -9.736717e+01   1.831650e+02
  -1.127749e+02   4.880108e+01
  -6.630943e+01  -2.084862e+01
  -4.763981e-01  -5.035582e+01
  -2.732981e+00  -2.741946e+00
  -5.988084e+00  -8.373926e+00
  -4.656569e+01  -2.749076e+01
  -5.780386e+01  -8.846895e+01
   3.445276e+01  -1.078361e+02
   6.087235e+01   5.608628e+00
   3.959279e+01   9.647976e+01
   1.558087e+01   1.266305e+02
  -8.429902e+01   2.355846e+01
  -8.739782e+01  -6.484282e+01
  -2.150359e+01  -1.178621e+02
   4.368133e+01  -4.993349e+01
   6.155344e+01  -4.706899e+00
   6.907842e+01   1.833628e+01
  -2.948747e+01   4.963646e+01
  -3.343056e+01  -4.163713e+00
   1.183244e+01  -7.297376e+00
   5.188907e+01  -1.319153e+01
   4.482947e+00   1.752735e+01
  -6.474445e+01   7.446238e+01
  -1.091620e+02   5.655510e+01
  -5.061058e+01  -1.291854e+01
   9.960220e+00  -6.603706e+01
   6.005479e+01  -8.044167e+01
   2.781033e+01  -1.444145e+01
   1.850458e+01   4.005987e+01
  -2.361677e+01   2.458791e+01
  -3.063341e+01  -1.588671e+01
  -5.761643e+00  -6.634834e+00
  -1.383630e+01  -5.215819e+01
   3.038446e+01   1.877116e+00
   2.489273e+01   5.359672e+01
   2.521077e+01   1.716534e+01
   7.208833e+00  -1.391657e+01
  -2.890034e+00  -2.135614e+01
  -1.734820e+01   2.109554e+01
   4.266923e+01   5.688040e+01
  -3.032720e+01   3.851525e+01
  -6.545872e+01  -2.545875e+01
  -5.702730e+01  -4.709125e+01
   3.812872e+01  -8.984201e+00
   7.060340e+01   2.448726e+01
   1.822638e+01   5.184762e+01
  -6.346241e+01   4.597825e+01
  -8.265143e+01  -3.927925e+01
  -7.344059e+01  -4.361117e+01
   4.816798e+01  -4.787909e+01
   8.334950e+01  -5.468742e+01
   1.757021e+01   5.241784e+00
  -2.860176e+01   1.774118e+01
  -2.757272e+01  -1.405203e+01
   2.176846e+01  -4.533556e+01
   7.911794e+01  -3.101866e+01
