
 $NMID
 id='ANONYMOUS ', fmtdat='(2E16.6)'
 volume=1.0
 tramp=1.0
 $END
  -2.818398e+03   4.865648e+02
  -2.032845e+03  -1.301661e+03
  -2.648321e+02  -1.897497e+03
   9.103355e+02  -1.204603e+03
   7.658087e+02  -1.077172e+02
  -9.738130e+00   2.399147e+02
  -3.358795e+02  -3.285322e+01
  -7.116386e+01  -5.557058e+02
   3.675776e+02  -5.244836e+02
   5.600636e+02  -8.379919e+01
   3.434044e+02   4.250532e+02
   2.407033e+01   5.524756e+02
  -2.170116e+02   1.216317e+02
  -1.820088e+02  -3.164450e+02
   7.690908e+01  -4.265319e+02
   3.506455e+02  -9.384682e+01
   3.081223e+02   4.110882e+02
  -1.186609e+02   5.422773e+02
  -4.466058e+02   2.659249e+02
  -4.180356e+02  -1.860762e+02
  -9.522568e+01  -3.083063e+02
   7.264909e+01  -2.360023e+02
   2.477499e+01  -7.128464e+01
  -1.923591e+02  -1.184384e+02
  -2.048326e+02  -2.490546e+02
   4.938092e+01  -3.275262e+02
   4.152015e+02  -1.151466e+02
   5.579897e+02   1.677428e+02
   1.773079e+02   3.145045e+02
  -2.898411e+02   1.465371e+02
  -4.548103e+02  -1.337496e+02
  -1.246068e+02  -3.349581e+02
   2.785770e+02  -2.998694e+02
   3.877424e+02  -5.156344e+01
   2.486541e+02   1.658395e+02
   4.644093e+01   2.330617e+02
  -1.366111e+01   1.390703e+02
   1.741036e+01  -7.026757e+01
   1.144369e+02  -1.197388e+02
   1.757628e+02   1.459751e+02
  -3.911112e+00   4.011498e+02
  -2.382321e+02   3.842411e+02
  -2.615771e+02  -3.304510e+01
  -9.386882e+01  -2.981274e+02
   1.460483e+02  -1.165239e+02
   2.039267e+02   2.315702e+02
  -6.917648e+01   3.590693e+02
  -3.647865e+02   7.832965e+01
  -4.440299e+02  -3.422568e+02
  -1.878770e+02  -4.289542e+02
   2.487933e+02  -2.489311e+02
   4.324125e+02   5.858168e+01
   2.658008e+02   2.098144e+02
  -2.345030e+01   2.037084e+02
  -1.875433e+02   4.802767e+01
  -1.960272e+02  -1.730969e+01
   1.099381e+01   3.697208e+01
   5.349007e+01   6.582393e+01
  -9.400707e+01   6.397017e+01
  -1.982927e+02  -5.792464e+00
  -1.419366e+02  -1.669268e+02
   1.310941e+02  -2.344253e+02
   3.002130e+02  -1.282339e+02
   2.539927e+02   1.144088e+02
  -4.276363e+01   2.956580e+02
  -2.631728e+02   3.396518e+02
  -3.327977e+02   9.742827e+01
  -1.956864e+02  -1.047741e+02
  -1.669187e+01  -2.937352e+02
   2.186239e+01  -2.580428e+02
  -8.245813e+00  -1.391675e+02
   1.629177e+01  -1.101504e+02
   1.186437e+02  -1.050490e+02
   2.319041e+02  -4.464135e+01
   2.205543e+02   9.900245e+01
   9.888158e+01   2.320036e+02
  -9.866910e+01   1.785987e+02
  -1.406926e+02  -2.541892e+01
  -8.744805e+01  -1.930473e+02
   3.820254e+01  -1.805037e+02
   1.743766e+02  -6.118530e+01
   2.808973e+02   1.345737e+02
   1.544565e+02   2.198699e+02
  -4.155398e+01   1.944343e+02
  -1.576024e+02   1.320393e+02
  -1.427113e+02   5.483137e+01
  -1.070881e+02   6.991314e+01
  -2.151997e+02   9.281786e+00
  -3.264786e+02  -6.446794e+01
  -2.665049e+02  -2.398835e+02
   3.860505e+01  -4.416781e+02
   3.511760e+02  -3.585110e+02
   4.183191e+02  -6.617411e+01
   2.174695e+02   1.241774e+02
  -3.505277e+01   1.791047e+02
  -9.547073e+01   1.723011e+02
  -3.050561e+01   3.278733e+01
   9.759431e+01  -1.230806e+01
   9.799136e+01   7.156134e+01
  -1.793973e+01   1.130757e+02
  -1.438182e+02   7.395226e+01
  -1.062628e+02  -6.053474e+01
   3.762664e+01  -1.333490e+02
   1.544441e+02   1.853039e+01
   1.201026e+02   1.775398e+02
   8.507492e+00   3.148135e+02
  -2.135486e+02   1.739948e+02
  -2.847734e+02  -2.045801e+01
  -2.366825e+02  -2.526235e+02
  -2.882379e+01  -2.009883e+02
   1.382297e+02  -9.239940e+01
   8.844447e+01   2.545930e+00
   6.990614e+00   3.646129e+01
  -2.078901e+01  -8.007468e+01
  -3.165303e+01  -1.204520e+02
   9.038508e+01  -5.584855e+01
   1.081307e+02   7.834703e+00
   3.745084e+01   3.894185e+01
  -8.459689e+01  -3.045096e+01
  -3.894376e+01  -8.617207e+01
   1.330866e+02  -1.060237e+02
   2.658075e+02  -3.736807e+00
   1.863071e+02   1.589109e+02
  -2.074026e+00   2.326894e+02
  -1.873739e+02   1.970972e+02
  -2.108619e+02   8.065144e+01
  -1.130139e+02  -3.366720e+01
   4.231233e+01  -7.345861e+01
   4.687728e+01   1.805339e+01
  -5.393884e+01   5.606111e+01
  -1.500173e+02   5.614984e+00
  -1.589026e+02  -9.561847e+01
  -4.978638e+01  -1.749732e+02
   7.227047e+01  -1.241915e+02
   1.251491e+02  -2.119981e+01
   3.535717e+01   4.904132e+01
  -5.374600e+01  -4.213295e+00
  -3.257415e+01  -1.016308e+02
   9.563313e+01  -8.942850e+01
   1.743803e+02   2.273712e+01
   1.763204e+02   1.550359e+02
  -1.597975e+01   1.804351e+02
  -1.368370e+02   1.057894e+02
  -1.731187e+02  -2.714210e+01
  -5.678412e+01  -1.005794e+02
   5.242511e+01  -7.854765e+01
   7.981925e+01   8.967664e+00
  -1.175929e+01   3.847937e+01
  -4.178801e+01   7.264079e+00
   9.529791e+00  -6.133704e+01
   7.367382e+01   1.127129e+01
   1.060401e+02   1.019767e+02
   2.089479e+01   1.298943e+02
  -1.046257e+02   1.387443e+02
  -2.020092e+02   1.633743e+01
  -1.763796e+02  -1.247215e+02
  -9.596279e+00  -2.062391e+02
   8.920277e+01  -1.455638e+02
   1.151704e+02  -3.193259e+01
   6.467209e+01   4.119220e+01
   1.896834e+01   4.162404e+00
   3.840691e+01  -5.997438e+00
   6.646922e+01   2.290348e+01
   4.441086e+01   5.441232e+01
  -3.194586e+01   1.105549e+02
  -1.593933e+02   4.232114e+01
  -1.061999e+02  -4.779552e+01
   8.983794e+00  -1.140969e+02
   1.138796e+02  -1.132608e+02
   1.814618e+02   4.808958e+01
   9.255338e+01   2.036036e+02
  -1.250991e+02   1.844776e+02
  -2.267275e+02   7.086085e+01
  -2.128106e+02  -6.409023e+01
  -7.040620e+01  -1.378802e+02
   1.634657e+01  -1.477324e+02
   7.912727e+01  -6.296844e+01
   4.697735e+01  -6.604968e+01
   3.387841e+01  -8.784445e+01
   9.675908e+01  -7.448205e+01
   1.006949e+02   4.908263e+01
   1.096694e+02   1.370795e+02
  -2.909802e+00   1.898038e+02
  -7.283604e+01   1.437303e+02
  -1.193130e+02  -1.246282e+01
  -1.176210e+02  -1.102920e+02
   2.288005e+01  -1.050774e+02
   3.474629e+01  -6.686695e+01
   5.544419e+01   3.307014e+01
  -1.699924e+00   9.828514e+00
  -3.132699e+01   1.264378e+01
   4.529467e+01   2.503789e+01
   9.355575e+01   2.891415e+01
   4.650900e+01   6.442606e+01
  -8.861537e+01   2.621456e+01
  -1.708659e+02  -8.827358e+00
  -1.127199e+02  -6.531160e+01
  -2.558920e+01  -1.039020e+02
   1.273050e+02  -2.912169e+01
   1.261567e+02   2.977984e+01
   2.216056e+01   2.708897e+01
  -5.730622e+01   2.315398e+01
  -7.960255e+01  -3.651595e+01
   1.421978e+01  -4.164309e+01
   3.699686e+01  -4.156069e+01
   8.866162e+01  -1.200252e+01
   1.221854e+01   4.621209e+01
   5.998894e+01   4.995871e+01
   5.378171e+01  -2.113260e+00
   4.655052e+01   1.250996e+01
   4.694374e+01   7.909050e+01
  -3.140582e+01   1.390558e+02
  -8.318755e+01   9.358656e+01
  -1.241047e+02   1.609483e+01
  -9.263797e+01  -1.007495e+02
  -1.290191e+01  -1.130246e+02
   8.796607e+01  -4.188426e+01
   2.852710e+01   2.371001e+01
  -5.497005e+01   4.283399e+01
  -1.169832e+02  -3.957240e+01
  -4.620815e+01  -8.398472e+01
   7.076740e+01  -9.873819e+01
   1.479102e+02  -6.089839e+01
   1.200419e+02   3.413004e+00
  -6.926102e-01   7.425836e+01
  -3.340447e+01   3.648673e+01
  -2.308592e+01  -1.158989e+01
   4.159770e+01   5.989506e-01
   6.186406e+01   3.460933e+01
   3.632453e+01   1.072640e+02
  -4.322528e+01   1.414942e+02
  -1.235001e+02   8.242441e+01
  -8.665054e+01  -7.423510e+01
  -1.143876e+01  -1.607107e+02
   7.922188e+01  -1.178924e+02
   1.058544e+02   3.004445e+01
   3.737135e+01   1.315297e+02
  -2.013674e+01   1.002033e+02
  -7.023959e+01  -1.355707e+01
  -3.116318e+01  -3.858331e+01
   1.852816e+01   4.989328e+00
  -1.150627e+01   2.046288e+01
  -3.714438e+01  -2.394075e+01
  -6.686607e+01  -7.980321e+01
  -2.124089e+01  -1.173753e+02
   5.934251e+01  -4.886041e+01
   1.484823e+02   6.087724e+01
   1.067456e+02   6.126659e+01
   1.477389e+01   7.307538e+01
  -1.146451e+02   1.064044e+01
  -9.198828e+01   1.647430e+01
  -1.366782e+01  -1.746017e+01
   5.820807e+01  -7.068150e+00
   1.523462e+01  -2.008538e+01
  -2.197784e+01   2.768709e+01
   1.619794e+01   9.423912e+00
   5.141264e+01   6.043453e-01
   7.397570e+01  -8.175622e+00
   1.298120e+01   6.369391e+01
  -9.716250e+01   1.049725e+02
  -1.653876e+02   7.315243e+01
  -1.283095e+02  -5.733857e+01
  -6.072623e+00  -1.321834e+02
   8.460686e+01  -1.276405e+02
   1.348080e+02  -6.881909e+01
   5.911686e+01   2.168352e+01
   2.515304e+01   2.264245e+01
   1.120757e+01  -1.679184e+01
   2.394449e+01   1.008939e+01
   4.751749e+01   4.147796e+01
   2.924788e+01   9.081723e+01
  -3.252028e+01   8.187458e+01
  -7.837197e+01  -4.690284e+01
  -3.788800e+01  -1.270797e+02
  -3.746794e+00  -1.069191e+02
   7.790599e+01  -3.350463e+01
   1.143196e+02   5.076275e+01
   5.547422e+01   9.625421e+01
  -5.096605e+01   7.633480e+01
  -9.117442e+01  -2.825065e-01
  -2.872806e+01  -7.001455e+01
   4.731081e+01  -4.901132e+01
   4.655402e+01  -2.540114e+01
  -9.340945e+00   2.800932e+01
  -6.570396e+01   8.600026e+00
  -2.008175e+01  -3.224188e+01
   5.056144e+01  -4.955348e+01
   1.197177e+02  -5.289694e+01
   7.921555e+01   3.127715e+00
  -2.127404e+01   9.879377e+01
  -4.713530e+01   1.166240e+02
  -4.335528e+01   2.134311e+00
  -3.479105e+01  -2.626968e+01
   3.432035e+01  -3.838168e+01
   2.992843e+01   2.155457e+01
   1.886334e+01   3.762244e+01
  -2.717348e+01   1.780703e+01
  -6.219607e+01   3.745310e+00
  -3.260357e+01  -5.855413e+01
  -9.025043e+00  -2.978933e+01
   3.766440e+00   3.286367e+00
   3.209799e+01   2.503091e+01
  -2.746296e+01  -1.076658e+01
  -1.437284e+00  -6.510370e+01
   4.890122e+01  -1.185760e+01
   3.310804e+01   1.007310e+01
   1.327391e+01   6.611357e+01
  -4.631439e+01   2.249881e+01
  -7.358461e+01  -4.887010e+01
  -1.085393e+01  -4.553272e+01
   4.008997e+01  -1.177999e+01
   1.054357e+02   5.664713e+00
   7.540070e+01   5.505014e+01
   6.451780e+00   3.917934e+01
  -4.119426e+01   4.319040e+01
  -2.993038e+01   1.479407e+00
   4.315857e+00  -7.700394e+00
   2.376884e+01  -1.436701e+01
  -4.581631e+00   2.207385e+01
  -5.267703e+01   2.613851e+01
