
 $NMID
 id='ANONYMOUS ', fmtdat='(2E16.6)'
 volume=1.0
 tramp=1.0
 $END
  -1.595858e+03  -6.209019e+01
  -1.089116e+03  -5.738280e+02
  -4.375348e+02  -9.298796e+02
   3.818276e+02  -8.972505e+02
   5.118032e+02  -3.518114e+02
   2.237694e+02  -7.372338e+00
  -1.092549e+02   3.592296e+01
  -2.254109e+01  -2.254582e+02
   1.649910e+02  -4.046194e+02
   2.874081e+02  -1.309016e+02
   2.518533e+02   9.096274e+01
   1.017323e+02   3.080419e+02
  -2.812192e+01   8.471279e+01
  -1.542094e+01  -1.628374e+02
   5.927407e+01  -2.556664e+02
   1.644527e+02  -5.028044e+01
   1.473531e+02   1.983523e+02
  -4.758243e+00   3.417497e+02
  -1.761112e+02   2.340194e+02
  -2.198867e+02   1.779367e+01
  -1.740884e+02  -1.566395e+02
  -4.435379e+01  -1.457391e+02
  -3.693403e+01  -9.605206e+01
  -1.390112e+02  -1.728099e+02
  -1.615824e+02  -2.414398e+02
   7.136267e+01  -1.914266e+02
   3.138280e+02  -6.089364e+00
   3.063894e+02   1.918278e+02
   6.590306e+01   1.978589e+02
  -1.899776e+02   1.745815e+01
  -2.613494e+02  -1.133246e+02
  -6.833121e+01  -1.893393e+02
   1.553363e+02  -1.412226e+02
   2.173480e+02  -7.161357e+01
   1.164521e+02   3.920579e+01
   2.741359e+01   1.385194e+02
   2.212964e+01   6.202108e+01
   6.962551e+01  -3.899506e+01
   1.321230e+02  -2.920886e+01
   7.839792e+01   8.306180e+01
  -4.617671e+01   2.457622e+02
  -1.989600e+02   2.068277e+02
  -9.223370e+01  -4.415242e+01
  -2.575726e+01  -1.225686e+02
   8.449852e+01   1.147311e+01
   5.151629e+01   1.421135e+02
  -9.810212e+01   1.522062e+02
  -2.166070e+02   3.281965e+01
  -2.137876e+02  -2.319081e+02
  -7.144342e+01  -2.548984e+02
   1.811567e+02  -1.521215e+02
   2.533354e+02   5.565429e+01
   1.950997e+02   1.198463e+02
  -2.898585e+01   8.413286e+01
  -1.022808e+02   5.268335e+01
  -8.536091e+01   7.576912e+01
  -3.691994e+01   8.282216e-01
  -1.781895e+01  -1.125875e+01
  -4.816413e+01  -1.837805e+01
  -7.894861e+01  -5.779822e+01
  -8.658160e+01  -5.935657e+01
   5.333550e+01  -1.182567e+02
   1.841153e+02  -5.227527e+01
   1.685743e+02   6.253745e+01
   1.487899e+00   2.132857e+02
  -2.004380e+02   2.440283e+02
  -2.157596e+02   8.293147e+01
  -1.246465e+02  -9.838955e+01
  -4.144351e+01  -2.252424e+02
  -2.903040e+01  -1.364071e+02
  -1.065601e+01  -9.374559e+01
   1.084957e+01  -1.117754e+02
   1.047898e+02  -1.270268e+02
   2.155715e+02   4.518294e+00
   1.019195e+02   9.664043e+01
   4.265493e+01   1.365217e+02
  -5.700343e+01   1.030466e+02
  -1.099249e+02  -6.376157e+01
  -8.371939e+01  -1.379815e+02
   2.463345e+01  -1.431132e+02
   1.257409e+02  -4.963952e+01
   1.657950e+02   1.082770e+02
   8.215253e+01   1.541089e+02
  -5.355323e+01   1.357654e+02
  -6.931795e+01   8.529490e+01
  -6.655171e+01   6.340688e+01
  -9.173430e+01   8.169918e+01
  -1.954643e+02   4.237819e+01
  -2.935891e+02  -5.585296e+01
  -2.261690e+02  -2.250164e+02
  -4.249854e-01  -2.773497e+02
   2.438783e+02  -2.484112e+02
   3.115966e+02  -1.180079e+02
   1.586500e+02   5.568474e+01
  -1.254780e+01   1.443567e+02
  -6.259691e+01   1.134580e+02
   2.503413e+01   3.127331e+01
   9.759653e+01   3.873902e+01
   4.375618e+01   6.713952e+01
  -1.407983e+01   5.497081e+01
  -5.191100e+01   4.101191e+01
  -3.156316e+01  -2.459248e+01
   1.306925e+01  -5.734371e+01
   7.942014e+01   7.069230e+00
   8.803217e+01   1.498879e+02
  -1.621039e+01   2.133716e+02
  -1.565656e+02   1.301802e+02
  -2.231671e+02  -2.891087e+01
  -1.976769e+02  -1.759039e+02
  -5.308382e+01  -1.495630e+02
   9.569462e+01  -1.047430e+02
   6.868723e+01   1.998151e+00
  -1.047749e+00  -3.690849e+01
  -2.741515e+01  -4.301299e+01
   6.620772e+01  -6.875114e+01
   9.314553e+01   2.715341e+00
   6.363720e+01   5.615342e+01
   1.504788e+00   2.486907e+01
  -6.821449e+01  -5.934137e-01
  -3.703157e+01  -5.548738e+01
   1.166805e+02  -7.805080e+01
   2.007535e+02  -1.978205e+01
   1.675166e+02   1.017331e+02
   3.816765e+01   1.566973e+02
  -7.135320e+01   1.653543e+02
  -1.459544e+02   6.699544e+01
  -8.434386e+01  -2.592698e+01
   3.386223e-02  -1.543167e+01
   4.464156e+01   2.181753e+01
  -5.595857e+01   3.018644e+01
  -1.220001e+02   7.581662e+00
  -1.032932e+02  -7.101963e+01
  -5.544629e+01  -9.434921e+01
   3.484720e+01  -7.192126e+01
   9.500956e+01  -1.650315e+01
   2.192932e+01   3.323205e+01
  -2.047022e+01  -3.218948e+01
  -3.440115e+00  -1.137391e+02
   6.600256e+01  -6.460920e+01
   1.251093e+02  -1.497112e+01
   8.644157e+01   1.006999e+02
   2.322487e-02   9.535930e+01
  -8.610070e+01   6.691697e+01
  -1.021291e+02  -5.719372e+00
  -1.735282e+01  -5.087423e+01
   5.592495e+01  -5.191528e+01
   5.145739e+01  -6.241934e+00
  -1.531751e+01   3.216099e+01
  -3.466031e+01   2.590283e+01
  -1.571178e+01  -3.342396e+01
   4.272181e+01  -1.579021e+01
   4.792344e+01   7.263778e+01
   5.721283e+00   1.047099e+02
  -9.793376e+01   8.637307e+01
  -1.127487e+02  -7.110317e+00
  -8.262742e+01  -1.065007e+02
  -2.504177e+01  -1.395707e+02
   6.350064e+01  -7.980345e+01
   7.115792e+01  -2.207448e+01
   4.806452e+01   1.147991e+01
   1.581911e+01   8.030705e+00
   3.710516e+01  -3.192262e+00
   6.820310e+01   4.959647e+00
   1.828878e+01   3.293578e+01
  -3.220838e+01   7.975161e+01
  -8.815583e+01   3.516107e+01
  -5.918266e+01  -1.552172e+01
   2.266283e+01  -8.395036e+01
   1.097364e+02  -4.765424e+01
   1.246086e+02   2.642529e+01
   4.566198e+01   1.215955e+02
  -1.157317e+02   1.445972e+02
  -1.688661e+02   1.861365e+01
  -1.359837e+02  -4.185292e+01
  -7.723669e+01  -7.731914e+01
   7.712707e+00  -9.644605e+01
   4.948960e+01  -6.304516e+01
   7.361596e+01  -5.350432e+01
   2.017559e+01  -4.942993e+01
   7.010903e+01  -4.324871e+01
   6.845971e+01   1.335461e+01
   8.755673e+01   9.541365e+01
   3.918133e+01   1.094581e+02
  -1.389548e+01   1.075853e+02
  -7.862694e+01   3.229455e+01
  -7.749991e+01  -5.546288e+01
  -1.405349e+01  -6.987711e+01
   6.762527e+01  -4.853437e+01
   5.588713e+01   2.580502e+01
  -2.788433e+01   4.490740e+01
  -9.494217e+00   1.606668e+01
   6.490618e-01   3.764259e+00
   6.032602e+01  -2.085677e+01
   4.899457e+01   3.160008e+01
  -3.809060e+01   1.677705e+01
  -9.199223e+01   9.412702e+00
  -9.300722e+01  -3.752200e+01
  -1.157001e+00  -7.427758e+01
   5.560614e+01  -5.312423e+01
   4.895951e+01   2.101716e+01
   1.683498e+01   2.031018e+01
  -3.453489e+01   3.077489e+01
  -3.266065e+01  -1.773173e+01
   2.083465e+00  -2.403308e+01
   2.757102e+01  -2.021021e+01
   2.942453e+01   9.625326e-01
   4.517091e+01   5.607316e+01
   4.386249e+01   4.107324e+01
   3.521445e+01  -2.277886e+01
   8.039934e+00  -9.821080e+00
   7.736532e+01   3.307150e+01
   3.383290e+01   9.834942e+01
  -7.002136e+01   1.241579e+02
  -8.776346e+01   5.620099e+01
  -1.022212e+02  -6.230845e+01
  -2.218022e-01  -9.748649e+01
   3.379428e+01  -6.911186e+01
   7.422976e+00  -4.887605e+00
  -3.109193e+01   1.097937e+01
  -5.324363e+01  -1.196192e+01
  -4.890531e+01  -4.851677e+01
   5.410907e+01  -6.810178e+01
   7.184324e+01  -3.393954e+01
   6.882138e+01   2.735021e+01
   4.008115e+01   8.872464e+01
  -3.941864e+01   2.138816e+01
  -6.251323e+00  -2.439291e+00
  -9.560657e-01  -2.770462e+01
   4.923758e+01   7.016935e+00
   2.862139e+01   6.966839e+01
  -4.117175e+01   9.281509e+01
  -8.852634e+01   5.446121e+01
  -1.175997e+02  -1.426698e+01
  -5.436710e+01  -1.104076e+02
   3.541390e+01  -5.844791e+01
   9.059166e+01   2.119585e-01
   2.800855e+01   5.438238e+01
   7.840534e+00   5.709767e+01
  -3.581409e+01   2.258396e+01
  -2.789063e+01  -3.976820e+01
  -2.196531e+01   3.020989e+00
  -2.410447e+01  -6.297572e+00
   1.101259e+01  -1.315747e+01
  -4.714082e+01  -2.891629e+01
  -1.326460e+01  -6.067630e+01
   2.276225e+01  -3.156492e+01
   9.647054e+01   2.619599e+00
   5.528643e+01   2.815726e+01
   1.369371e+01   2.565019e+01
  -4.110138e+01   1.764758e+01
  -3.967395e+01  -1.316836e+01
  -3.837854e+00  -8.031672e+00
   5.496330e+00  -2.597573e+01
   2.096252e+01   1.100347e+01
  -2.921051e+00   1.842685e+01
   7.354763e+00  -2.435486e+00
   4.454518e+01   8.635184e+00
   4.453459e+01   6.992624e+00
   2.140601e+01   3.671449e+01
  -4.297274e+01   8.359927e+01
  -1.175526e+02   6.026238e+01
  -1.187462e+02  -3.416844e+01
  -2.539111e+01  -8.235855e+01
   1.289778e+01  -1.255143e+02
   3.012033e+01  -6.817818e+01
   5.849775e+01  -7.564290e+00
   3.200466e+01  -2.154753e+01
   2.622771e+00  -1.205234e+01
   9.751506e+00   5.537238e+00
  -1.932830e+00   6.526987e+01
   2.057786e+01   4.225676e+01
  -2.109719e+01   9.583601e+00
  -2.301798e+01   2.483451e+00
  -6.022694e+01  -6.426776e+01
  -6.956809e+00  -7.218405e+01
   1.543258e+01  -1.261971e+01
   6.276920e+01   2.656598e+01
   3.978993e+01   8.903003e+01
  -2.511082e+01   3.575713e+01
  -4.909202e+01   1.670309e+01
  -4.459526e+01  -2.187756e+01
   2.497805e+01  -2.983396e+01
   1.670564e+01  -1.186036e+01
  -1.088584e+01  -6.296867e+00
  -5.204193e+01   1.932314e+01
   6.386956e+00   8.432526e+00
   3.969727e+01  -3.178957e+01
   7.463206e+01  -3.082605e+01
   5.713583e+01   1.393410e+01
  -6.166765e+00   2.361236e+01
  -2.386579e+01   5.549668e+01
  -3.398768e+01  -2.627815e+00
  -5.147072e+00  -1.825574e+01
   1.617282e+01  -3.346250e+01
   9.460493e+00   1.578302e+01
   2.098442e+01   1.048915e+00
  -1.593047e-01   2.170537e+01
   6.247913e+00   3.593706e+00
  -3.700551e+01  -8.856223e+00
   8.669535e+00   1.506321e+01
   7.889315e+00  -5.464190e+00
  -6.855960e+00   3.256061e-01
   3.903093e-01   2.192244e+00
  -2.078610e+01  -4.733122e+01
   2.170144e+01  -3.282227e+00
   4.252008e+01   2.323479e+01
  -2.445690e+01   2.212621e+01
  -4.362470e+01   1.679612e+01
  -4.346306e+01  -2.598261e+01
  -3.800117e+01  -2.813533e+01
   2.017702e+01  -3.858409e+01
   5.865966e+01   7.589671e+00
   1.814428e+01   3.941904e+01
  -2.482536e+00   3.227765e+01
  -4.239138e+01   8.143788e+00
  -2.944918e+01   3.863102e+00
   2.381479e+01  -2.697506e+01
   1.327408e+01  -7.599218e+00
  -2.681541e+01  -3.779246e+00
  -2.528487e+01   1.685646e+01
