
 $NMID
 id='ANONYMOUS ', fmtdat='(2E16.6)'
 volume=1.0
 tramp=1.0
 $END
   1.519544e+03  -1.170770e+02
   1.322459e+03   6.697847e+02
   5.029244e+02   9.144919e+02
  -3.822430e+02   6.603140e+02
  -4.278053e+02   3.201980e+02
  -9.053768e+01   4.756954e+01
   1.143423e+02   8.172137e+01
   6.878077e+00   1.857195e+02
  -1.417774e+02   2.802626e+02
  -2.600083e+02   7.344980e+01
  -2.036080e+02  -1.499957e+02
  -1.192284e+02  -1.811743e+02
   2.673961e+00  -4.875265e+01
   6.700071e+01   1.294700e+02
  -4.854964e+01   2.355324e+02
  -1.326742e+02   3.083199e+01
  -1.124573e+02  -1.926586e+02
  -9.020116e+00  -2.438987e+02
   1.520373e+02  -2.008421e+02
   2.132181e+02  -1.236711e+01
   1.495678e+02   1.067453e+02
   3.182025e+01   1.125247e+02
   3.901897e+01   8.851166e+01
   9.409894e+01   1.486775e+02
   9.427214e+01   2.301300e+02
  -1.118779e+02   2.116957e+02
  -2.728291e+02  -1.251322e+00
  -3.212281e+02  -1.229324e+02
  -2.493309e+01  -1.617287e+02
   1.633374e+02  -1.119691e+01
   1.985752e+02   1.224049e+02
   6.667248e+01   1.686027e+02
  -1.349675e+02   7.206248e+01
  -1.764330e+02   5.157332e+01
  -1.312214e+02   9.236263e-01
  -3.021461e+01  -1.456868e+02
  -3.075159e+01  -6.948741e+01
  -8.246697e+01   4.574969e+01
  -1.342076e+02  -6.283767e+01
   1.248707e+01  -1.594761e+02
   6.732113e+01  -2.737069e+02
   1.797395e+02  -2.030299e+02
   1.342497e+02   2.112449e+01
   5.659439e+00   1.057892e+02
  -6.928445e+01  -3.862164e+01
   1.752117e+01  -1.175243e+02
   8.205107e+01  -1.508730e+02
   1.977946e+02  -2.758702e-01
   1.624755e+02   2.150650e+02
   5.137338e+01   2.493460e+02
  -1.351331e+02   1.063330e+02
  -2.034145e+02  -6.873768e+01
  -1.454075e+02  -8.957622e+01
   3.781468e+01  -7.456197e+01
   9.155276e+01  -2.225829e+01
   5.701172e+01  -5.804941e+01
   2.383535e+01  -8.440786e+01
   3.108279e+01  -6.330711e+00
   6.437022e+01   4.957424e+01
   6.215743e+01   6.837039e+01
   3.439657e+01   5.979635e+01
  -7.936447e+01   5.595889e+01
  -1.563043e+02   4.738476e+01
  -1.218402e+02  -4.817963e+01
   5.118074e+00  -1.914755e+02
   2.059388e+02  -1.964378e+02
   2.310307e+02  -5.566706e+01
   8.579312e+01   9.695905e+01
   2.085839e+01   1.908818e+02
   4.653156e+01   1.091681e+02
   6.837627e+00   8.801738e+01
  -1.932884e+01   9.290904e+01
  -9.699140e+01   1.047474e+02
  -1.896328e+02   1.907293e+01
  -9.746637e+01  -1.138268e+02
  -5.091988e+00  -1.545693e+02
   9.473804e+01  -6.871972e+01
   5.742244e+01   4.025991e+01
   5.799448e+01   1.312971e+02
  -2.807629e+01   9.778589e+01
  -1.286349e+02  -7.209424e+00
  -1.142282e+02  -1.036831e+02
  -5.160711e+01  -1.006834e+02
   3.507817e+01  -1.074250e+02
   9.942792e+01  -9.622232e+01
   2.115957e+01  -6.665177e+01
   1.258701e+02  -5.816116e+01
   1.737291e+02  -1.942300e+01
   2.728297e+02   8.742786e+01
   1.893630e+02   2.162579e+02
  -2.935617e+00   2.083344e+02
  -2.048311e+02   1.803741e+02
  -2.480411e+02   7.997112e+01
  -1.469552e+02  -6.114256e+01
   2.775265e+01  -1.194030e+02
   2.398514e+01  -9.133743e+01
  -4.360533e+00   1.748122e+00
  -5.286129e+01  -1.593375e+01
  -3.899459e+01  -3.567647e+01
  -1.237210e+01  -4.535118e+01
   4.776443e+01  -1.380952e+01
  -3.024050e+00   4.183670e+01
  -3.899634e+01   3.291151e+01
  -9.052266e+01  -3.329204e+01
  -4.579445e+01  -1.570269e+02
   7.019005e+00  -1.665611e+02
   1.914004e+02  -1.106669e+02
   2.443007e+02   2.530298e+01
   1.837832e+02   1.411433e+02
   4.980501e+01   1.346024e+02
  -5.996384e+01   8.897798e+01
  -3.830426e+01   9.105311e+00
  -1.562168e+01   3.081776e+01
   4.286521e+00   5.134095e+01
  -3.466634e+01   4.928988e+01
  -7.586049e+01  -2.163075e+01
  -7.493492e+01  -3.991601e+01
  -1.121282e+01   1.280769e+00
   4.973890e+01   1.934389e+01
   7.884613e+00   3.191201e+01
  -1.021330e+02   4.521372e+01
  -1.866934e+02   1.745434e+01
  -1.335168e+02  -9.231793e+01
  -3.150239e+01  -1.644959e+02
   8.436673e+01  -1.225288e+02
   1.297035e+02  -1.008404e+02
   7.076795e+01   1.169820e+01
  -4.802799e+00   1.987940e+01
  -2.070801e+01  -2.672452e+01
   5.013644e+01  -3.102079e+01
   1.130514e+02  -1.938662e+01
   1.186343e+02   4.332529e+01
   5.742280e+00   1.006460e+02
  -4.754070e+00   3.217951e+01
  -2.091290e+01   2.801855e+01
   8.846352e+00  -8.814922e+00
   1.279161e+01   2.258871e+01
  -1.834925e+01   1.035455e+02
  -8.696102e+01   6.061761e+01
  -1.469807e+02   6.264286e+00
  -8.583063e+01  -8.697156e+01
   1.808066e+01  -7.518664e+01
   8.120705e+01  -7.329146e+01
   8.186984e+01  -3.596745e+00
   2.206861e+01   3.599493e+01
  -1.661780e+01   4.603155e+01
  -3.310605e+01  -3.398545e+00
  -2.166164e+01  -1.516551e+01
   1.236835e+01   8.715960e-01
  -2.876275e+01   3.598054e+01
  -5.900831e+01  -1.108578e+01
  -4.020021e+01  -5.114726e+01
   4.213055e+00  -8.059464e+01
   9.108782e+01  -6.090048e+01
   1.033916e+02  -1.746752e+01
   6.348011e+01   5.679486e+01
   1.661480e+01   8.439949e+01
  -4.261609e+01   6.534349e+01
  -7.039195e+01   1.931277e+00
  -4.029934e+01  -8.372719e+00
  -3.349740e+01  -2.643975e+01
  -2.019469e+01   6.459864e+00
  -3.480301e+01  -2.613630e+01
   1.002164e+01  -3.604572e+01
   4.760642e+01  -5.633441e+01
   7.603932e+01  -3.500480e+01
   5.543255e+01   2.816335e+01
  -3.287394e+01   7.234573e+01
  -9.929407e+01   4.888065e+01
  -9.767000e+01  -3.406100e+01
  -2.543924e+01  -1.146683e+02
   7.508166e+01  -1.054102e+02
   1.385364e+02  -1.919019e-01
   1.058231e+02   6.520049e+01
   6.862980e+01   7.464014e+01
   2.057572e+01   5.479565e+01
  -3.218835e+01   6.923202e+01
  -6.924423e+01   6.561470e+01
  -4.249466e+01   2.744595e+01
  -8.305158e+01   4.269368e+01
  -7.839389e+01   3.312318e-02
  -3.994865e+01  -1.085610e+02
  -2.676456e+01  -9.539371e+01
   1.589629e+01  -5.956125e+01
   5.121856e+01  -6.925243e+00
   3.522764e+01   4.020462e+01
   8.676138e+00   6.890440e+01
  -1.808489e+01   6.479990e+01
  -4.429227e+01  -2.177162e+01
   6.993882e+00  -6.254907e+01
   1.815970e+01  -2.962023e+01
  -3.627836e+01  -3.172019e+01
  -4.306079e+01  -1.721228e+01
   7.377992e-01   1.202216e+00
   7.815389e+01   3.535868e+00
   5.622037e+01  -4.762986e+00
   6.214393e+01   1.944064e+01
  -1.454441e+01   5.256957e+01
  -8.790244e+01   1.517549e+01
  -3.582461e+01  -2.421429e+01
  -1.887772e+01  -2.395792e+01
   6.073847e+01  -2.367687e+01
   4.489137e+01  -8.214732e+00
   1.745824e+01   4.002987e+01
  -3.277743e+01   2.656024e+01
  -1.846695e+01   3.871449e-01
  -4.783738e+01  -2.451573e+01
  -4.438615e+01  -3.514104e+01
  -5.101939e+01   1.008158e+01
  -2.921960e+01   2.982986e+00
  -3.119913e+01  -7.024837e+01
  -3.692576e+00  -9.464658e+01
   9.267189e+01  -6.339786e+01
   1.071477e+02  -5.968699e+01
   5.605539e+01   2.470987e+01
   4.308358e+00   1.067187e+02
  -3.646104e+01   3.621949e+01
  -1.289962e+01  -7.683560e+00
   2.543872e+01  -1.142683e+01
   7.446923e+01   1.961885e+01
   4.438314e+01   4.650260e+01
  -8.560443e+01   5.111953e+01
  -6.955260e+01  -7.971927e+00
  -6.790672e+01  -4.799735e+01
   3.277855e+00  -2.748663e+01
   4.958669e+01  -8.598095e+00
   1.555212e+01  -2.255413e+01
  -8.588458e+00   3.614677e+01
  -6.227452e+01  -2.719061e+01
  -3.047627e+01  -7.198934e+01
   4.404581e+01  -7.957138e+01
   9.861734e+01  -7.164203e+01
   4.371049e+01   1.715451e+01
   4.089852e+01   9.645874e+01
  -4.835170e+01   4.846795e+01
  -6.311463e+01  -1.807050e+01
  -1.667355e+01  -7.293813e+01
   2.504213e+01  -3.305888e+01
   3.835678e+01   2.756748e+00
  -1.620597e+01   1.484474e+01
   2.337234e+01  -5.733795e+00
   7.107189e+00  -1.459980e+00
   1.823449e+01   1.032347e+01
   5.574150e+01   3.793940e+01
   1.665798e+01   5.789523e+01
  -1.797778e+01   1.848179e+01
  -9.413872e+01   2.179888e+00
  -7.990581e+01  -1.560712e+01
   8.912658e-01  -9.844733e+00
   4.328213e+01  -3.441939e+01
   5.481487e+01   8.899818e+00
   1.990902e+01  -2.885333e+00
  -1.354381e+01   2.551729e+01
  -1.259912e+01  -1.492296e+01
  -9.461027e+00  -1.302231e+01
  -1.704528e+01  -1.146728e+01
  -4.484416e+01   1.456943e+01
  -3.892755e+01  -3.211270e+00
  -6.369973e+00  -4.584968e+01
   4.099791e+01  -7.636579e+01
   1.069638e+02  -5.415664e+01
   9.334832e+01   2.617194e+00
   5.251604e+01   1.072756e+02
  -1.552943e+01   1.207613e+02
  -8.534097e+01   3.887705e+01
  -5.633796e+01  -2.726403e+01
  -2.002204e+00  -5.692816e+00
  -1.861556e+01   2.428995e+01
  -2.495621e+01   1.628088e+01
  -1.449796e+01  -6.027474e+00
  -5.020319e+00  -6.473563e+01
   4.237292e+01  -6.250961e+01
   1.874849e+01  -3.249550e-02
   5.573781e+01   5.618569e+01
   2.166769e-02   6.336701e+01
  -1.255436e+01   1.788386e+01
  -5.876344e+01  -2.231656e+01
  -4.317403e+01  -8.873994e+01
   3.619363e+01  -2.972340e+01
   4.652232e+01   5.258058e-01
   2.742625e+01   5.655079e+01
  -1.336617e+01   4.916172e+01
  -2.916217e+01   3.406254e+01
   1.969496e+01  -1.279326e+01
   5.153823e+01  -3.018080e+00
   7.517356e+00   1.162377e+01
  -4.292621e+01   6.253188e+01
  -5.275351e+01   1.869150e+01
  -2.160050e+01   5.054728e+00
   9.225846e+00  -4.413285e+01
   1.359029e+01  -1.628123e+01
   2.708703e+01  -4.114896e+00
  -1.216126e+01   1.379249e+01
  -5.847320e+01  -7.935268e+00
  -2.031647e+01  -2.296456e+01
   5.885739e+00  -1.416010e+01
   2.722291e+01  -1.642232e+01
   4.161663e+00   7.951980e+00
   1.259652e+01   4.569963e+00
   1.270740e+01   6.468037e+00
  -2.486105e+01   1.689638e+01
   1.153646e+01  -2.473921e+00
   5.207080e+00  -3.637962e+00
   2.452646e+01   3.470780e+01
  -9.335688e+00   1.546948e+01
  -4.952846e+01   6.447337e+00
  -2.402918e+01  -2.707537e+01
   1.010152e+00  -1.240714e+01
   3.929859e+01  -4.734557e+00
   2.234905e+01  -1.162298e+01
  -1.574667e+01   1.513713e+01
  -6.138794e+01  -5.532565e+00
  -6.189784e+01  -1.382318e+01
   1.113618e+01   5.190921e+00
   4.611111e+01  -4.691557e+00
  -8.868952e-01  -6.464488e+00
  -6.644401e+00   3.220649e+01
  -8.775360e+00   1.059240e+01
  -1.497390e+01   5.376886e+00
   2.927806e+01  -1.625361e+01
