
 $NMID
 id='ANONYMOUS ', fmtdat='(2E16.6)'
 volume=1.0
 tramp=1.0
 $END
   2.163929e+03   4.131918e+02
   1.234548e+03   1.307232e+03
  -3.085819e+02   1.483170e+03
  -7.808659e+02   6.166141e+02
  -4.503369e+02  -8.510997e+01
  -2.045095e+01  -5.490630e+01
   2.505899e+02   9.588551e+01
  -3.872879e+01   4.924310e+02
  -3.628633e+02   4.350019e+02
  -4.869890e+02   2.296463e+01
  -1.889323e+02  -4.424987e+02
   3.450665e+01  -4.648530e+02
   2.378417e+02  -7.154781e+01
   1.108634e+02   4.090894e+02
  -1.258018e+02   3.641130e+02
  -3.249866e+02  -5.556090e+01
  -1.704358e+02  -3.547396e+02
   1.425466e+02  -3.576603e+02
   3.214720e+02  -1.295281e+02
   2.675913e+02   1.518727e+02
   3.876174e+01   2.726193e+02
  -1.433996e+02   1.726293e+02
  -7.729922e+01   8.928775e+00
   9.279521e+01   3.878511e+01
   2.002200e+02   2.403182e+02
  -5.346414e+01   2.451689e+02
  -3.505062e+02   7.335816e+01
  -4.083146e+02  -2.617514e+02
  -1.204314e+02  -2.579722e+02
   2.358416e+02  -1.198137e+02
   3.346724e+02   1.351398e+02
   3.774170e+01   3.018214e+02
  -2.658836e+02   2.042759e+02
  -3.133694e+02  -4.007596e-01
  -1.617890e+02  -9.202683e+01
  -3.306182e+01  -2.091559e+02
   5.009785e+01  -1.031760e+02
  -5.358688e+01   8.893716e+01
  -1.801507e+02   8.693897e+01
  -1.284373e+02  -1.897945e+02
   6.265508e+01  -3.646969e+02
   2.622162e+02  -2.546349e+02
   1.910110e+02   3.631835e+01
   5.660362e+01   2.446044e+02
  -1.382238e+02   8.328416e+01
  -1.078859e+02  -1.622607e+02
   1.287194e+02  -2.623621e+02
   3.182350e+02   3.919010e+00
   2.792504e+02   2.987621e+02
   5.385385e+01   3.308469e+02
  -2.394568e+02   1.264962e+02
  -3.597741e+02  -8.941666e+01
  -1.947022e+02  -2.327512e+02
   1.204677e+02  -1.614832e+02
   1.552735e+02   1.204232e+01
   1.343400e+02   1.046043e+01
   1.805319e+01  -3.084041e+01
   2.390014e+01  -7.153337e+01
   1.263411e+02  -3.177137e+00
   1.916592e+02   4.057716e+01
   7.238909e+01   1.506085e+02
  -1.487606e+02   1.378790e+02
  -2.094399e+02   1.778485e+01
  -1.698602e+02  -1.204375e+02
   5.620551e+01  -1.963394e+02
   2.612272e+02  -2.086845e+02
   2.112604e+02  -5.337818e+01
   9.672204e+01   1.626257e+02
   2.235067e+01   1.787950e+02
  -3.685702e+01   1.716572e+02
  -1.474467e+01   1.294954e+02
  -4.284378e+01   1.020516e+02
  -1.198526e+02   8.415703e+01
  -2.148693e+02   4.060399e+01
  -1.532009e+02  -1.295803e+02
  -4.186267e+01  -2.004573e+02
   1.163854e+02  -1.543437e+02
   1.618056e+02   5.891007e+01
   4.327657e+01   2.004230e+02
  -7.746251e+01   1.541012e+02
  -1.672758e+02  -1.304395e+01
  -1.916172e+02  -1.520113e+02
  -1.163675e+02  -1.638461e+02
   4.830782e+01  -1.419731e+02
   9.828522e+01  -9.175830e+01
   9.692222e+01  -3.958966e+01
   1.342765e+02  -7.611224e+01
   2.010033e+02   4.280407e+00
   3.211324e+02   1.249605e+02
   1.932574e+02   2.860909e+02
  -1.074432e+02   3.050635e+02
  -2.822756e+02   2.108931e+02
  -3.532163e+02   4.740818e+01
  -1.514163e+02  -1.278428e+02
   5.679634e+01  -1.440669e+02
   7.870848e+01  -8.004180e+01
   2.844123e+01   1.894985e+01
  -8.727377e+01   3.757338e+01
  -8.050074e+01  -7.833584e+01
   3.168987e+01  -9.972146e+01
   1.116735e+02  -3.773962e+01
   4.945630e+01   7.108855e+01
  -2.381617e+01   9.565474e+01
  -1.208961e+02  -3.944369e+01
  -3.045572e+01  -1.898493e+02
   8.393884e+01  -2.398634e+02
   1.894963e+02  -1.102829e+02
   2.527722e+02   9.063620e+01
   1.458506e+02   2.119551e+02
  -1.236009e+01   2.009908e+02
  -8.149187e+01   6.541616e+01
  -9.036728e+01  -4.839042e+01
  -1.926650e+01  -1.600084e+01
   6.492962e+00   4.885215e+01
  -1.998321e+01   8.610386e+01
  -8.209479e+01   2.845884e+01
  -9.765434e+01  -4.052523e+01
  -1.399864e+01  -5.392953e+01
   6.614169e+01   3.677191e+01
   1.681358e+01   8.379386e+01
  -1.262933e+02   4.314385e+01
  -1.647796e+02  -5.615519e+01
  -1.595335e+02  -1.757010e+02
  -2.109464e+01  -2.062371e+02
   1.701509e+02  -1.195300e+02
   2.173849e+02  -7.238211e+01
   6.485294e+01   5.486581e+01
  -2.769756e+01   4.629986e+01
  -5.657611e+01  -2.678248e+01
   8.957762e+01  -3.372346e+01
   1.481140e+02   7.982655e+00
   1.045444e+02   1.066818e+02
   1.730581e+01   1.540478e+02
  -6.727726e+01   6.848177e+01
  -1.016510e+02  -1.283349e+01
  -3.211614e+01  -2.538873e+01
   1.959062e+01  -1.090306e+01
  -1.395255e+00   8.336736e+01
  -6.344562e+01   5.324249e+01
  -1.286946e+02  -4.251426e+00
  -1.090997e+02  -1.157418e+02
   3.347347e+01  -1.387440e+02
   1.254593e+02  -6.762324e+01
   1.321377e+02   3.158301e+00
  -1.643959e+01   6.750647e+01
  -7.044295e+01   5.668220e+01
  -4.653372e+01   1.740862e+00
   1.569074e+01  -8.633873e+00
   4.623652e+01   1.854883e+01
  -2.345042e+01   2.171099e+01
  -4.149282e+01  -1.602926e+01
  -4.399919e+01  -7.788213e+01
   1.164889e+01  -1.010903e+02
   1.513466e+02  -8.806418e+01
   1.685566e+02   1.235802e+01
   1.026287e+02   1.535188e+02
  -1.094044e+01   1.515198e+02
  -9.400076e+01   1.099769e+02
  -1.130091e+02   3.547270e+00
  -5.228594e+01  -6.880991e+01
  -2.752045e+01  -3.779410e+01
  -3.346352e+01  -1.190882e+01
  -6.810583e+01  -2.894182e+01
  -2.209910e+01  -6.018795e+01
   6.457276e+01  -7.913508e+01
   1.016489e+02  -3.611633e+01
   6.138399e+01   3.911137e+01
  -7.380372e+00   8.966796e+01
  -1.665340e+02   6.851454e+01
  -1.566403e+02  -7.936756e+01
  -2.929752e+01  -1.745027e+02
   9.555036e+01  -1.367968e+02
   2.075111e+02  -5.047013e+01
   1.551727e+02   7.979271e+01
   6.321028e+01   1.302676e+02
  -5.714842e+01   8.490347e+01
  -5.988084e+01   6.905956e+01
  -4.964831e+01   5.015422e+01
  -5.355057e+01   4.833086e+01
  -8.544214e+01   5.187647e+00
  -1.205421e+02  -4.976461e+01
  -7.359898e+01  -1.225988e+02
   7.181870e+00  -1.512629e+02
   6.965310e+01  -1.018555e+02
   1.381939e+02   4.996869e+00
   6.006944e+01   1.106239e+02
  -2.687519e+01   1.375355e+02
  -5.378874e+01   3.877044e+01
  -6.624341e+01  -3.202268e+01
   1.103272e+01  -3.252907e+01
   2.832052e+01  -3.679483e+01
  -3.035150e+01   2.873852e+00
  -4.628968e+01  -1.864474e+01
  -4.361545e+00  -4.008239e+01
   4.693373e+01  -1.420654e+01
   1.314843e+02   5.311284e+00
   9.129625e+01   7.728376e+01
  -2.353595e+01   1.026795e+02
  -1.127970e+02   4.955051e+01
  -1.162900e+02  -2.006222e+01
  -3.267310e+01  -5.279780e+01
   5.125744e+01  -4.686891e+01
   2.779295e+01   2.967169e+01
   3.422317e+01   9.982725e+00
  -5.263333e+01   1.452187e+01
  -6.502036e+01  -8.156367e-01
  -6.781103e+01  -3.578874e+01
  -1.932785e+01  -2.958905e+01
  -1.382345e+01   1.178162e+01
  -6.306494e+01  -1.376338e+01
  -4.216116e+01  -7.077054e+01
   2.787125e+01  -1.288010e+02
   9.875978e+01  -1.013134e+02
   1.230197e+02  -1.475386e+01
   8.028112e+01   7.573275e+01
  -1.503624e+01   1.198009e+02
  -6.956748e+01   2.598390e+01
  -5.136490e+01  -1.662728e+01
   1.860247e+01   5.643288e+00
   1.083838e+02   3.973563e+01
   3.040639e+01   9.326940e+01
  -7.702320e+01   8.461412e+01
  -1.487635e+02  -1.545861e+01
  -1.048891e+02  -5.740812e+01
  -1.371424e+01  -4.452344e+01
   2.682887e+01  -2.354691e+01
   1.698565e+01   2.121056e+01
  -4.001238e+01   2.563242e+01
  -6.564042e+01  -4.177421e+01
  -2.990587e+00  -9.263945e+01
   7.254615e+01  -9.383547e+01
   1.256988e+02  -1.903834e+01
   8.018260e+01   4.507500e+01
  -1.037534e+01   1.213623e+02
  -9.648328e+01   8.685814e+01
  -7.541980e+01  -3.894704e+01
  -2.056583e+01  -7.904280e+01
   1.451117e+01  -8.237749e+01
   6.541477e+01  -3.077102e+01
  -3.874361e+00   2.414665e+01
   5.882511e+00  -4.803045e+00
  -9.936473e+00  -1.329437e+01
   1.739707e+01  -2.214086e+00
   2.029763e+01   7.641903e+01
   4.249170e-01   9.877451e+01
  -3.934917e+01   3.913469e+01
  -8.100344e+01  -4.992163e+01
  -9.417792e+01  -7.147328e+01
  -2.038789e+01  -7.142949e+01
   4.211849e+01  -3.745193e+00
   7.866855e+01   4.812233e+01
  -1.700140e+01   4.779546e+00
  -5.529144e+01   3.205356e+01
  -2.493975e+01  -5.872945e-01
   3.599341e+01   3.503896e-01
   1.576582e-01   2.988688e-01
  -5.755329e+01   3.873878e+00
  -6.109837e+01  -1.588280e+01
  -6.267302e-01  -8.127097e+01
   9.229407e+01  -6.412478e+01
   1.582474e+02  -4.354758e+01
   9.517962e+01   7.517021e+01
  -7.215210e+00   1.428934e+02
  -7.438697e+01   1.025154e+02
  -1.013473e+02   1.120562e+01
  -4.238888e+01  -3.122335e+01
  -3.748249e+00   9.382750e+00
  -1.623916e+00  -1.816104e+01
  -1.844004e+01   1.392989e+01
  -1.903328e+01  -5.550194e+01
   3.550355e+00  -7.998438e+01
   4.140374e+01  -5.179424e+01
   3.522175e+01   3.480529e+01
   4.781617e+01   7.645475e+01
  -2.198785e+01   9.971753e+01
  -5.901535e+01   1.046571e+01
  -6.567810e+01  -3.584662e+01
  -2.557721e+01  -8.996413e+01
   6.690561e+01  -5.193747e+01
   7.233768e+01   2.512262e+01
   1.994258e+01   4.363855e+01
  -1.531536e+01   3.030294e+01
  -2.543243e+01  -3.822286e+00
   1.367339e+01   9.369493e+00
   3.876725e+01   1.249035e+01
  -1.161660e+01   4.916593e+01
  -6.541427e+01   3.961165e+01
  -5.908280e+01   9.459857e+00
  -4.986261e+01  -1.014064e+01
   9.091316e+00  -8.715847e+01
   8.122371e+01  -6.290960e+01
   3.675046e+01   2.754319e+01
   2.883104e+01   5.891179e+01
  -4.313421e+00   7.046209e+01
  -3.164063e+01   1.736923e+01
  -7.185075e+00  -2.698617e+01
   2.750915e+00  -4.694124e+00
   4.463336e+01  -7.692534e+00
   1.789270e+01  -7.897343e+00
   3.557660e+00  -2.686194e+01
  -3.642892e+01  -3.816068e+01
   2.417385e+01  -1.764482e+01
   2.158183e+01   3.578537e+01
   2.176983e+01   3.927650e+01
  -1.308231e+01   1.331285e+01
  -3.786560e+01  -2.616433e+01
  -3.775487e+01  -5.268137e+01
   2.498549e+01  -1.950759e+01
   5.887507e+01   4.808113e+01
  -1.120420e+00   3.445713e+01
  -3.605173e+01   2.328700e+01
  -7.749504e+01  -2.915128e+01
  -2.916338e+01  -2.877816e+01
   2.775105e+01  -2.729359e+01
   3.885835e+01  -2.204104e+01
   3.482574e+01   1.785620e+01
  -1.723806e+01  -1.886901e+01
  -1.769545e+01   3.687176e+01
   2.603221e+00   1.254887e+01
   4.601859e+01  -2.039492e+00
