
 $NMID
 id='ANONYMOUS ', fmtdat='(2E16.6)'
 volume=1.0
 tramp=1.0
 $END
   2.959016e+03  -1.370844e+02
   1.701984e+03   1.484857e+03
  -1.185282e+02   1.615250e+03
  -1.211402e+03   8.654401e+02
  -8.343806e+02   6.629824e+01
   7.536928e+01  -2.143336e+02
   3.568297e+02   2.088550e+02
  -3.746063e+01   4.558161e+02
  -5.200004e+02   4.566241e+02
  -5.349754e+02   3.746414e+01
  -2.984117e+02  -4.083732e+02
   4.202924e+01  -4.667651e+02
   2.433725e+02  -1.124539e+02
   1.931631e+02   3.720389e+02
  -1.503266e+02   4.601855e+02
  -3.665280e+02   1.373911e+01
  -1.929127e+02  -4.999773e+02
   1.788419e+02  -5.092015e+02
   4.140750e+02  -1.629499e+02
   3.753066e+02   1.750517e+02
   5.231047e+01   2.990837e+02
  -1.616017e+02   1.784938e+02
  -4.008187e+01   2.942426e+01
   1.448438e+02   8.698082e+01
   2.300356e+02   2.469225e+02
  -6.264593e+01   3.274788e+02
  -4.192287e+02   9.378720e+01
  -4.914996e+02  -2.321629e+02
  -1.243058e+02  -3.558644e+02
   3.236319e+02  -1.778763e+02
   4.510687e+02   1.891857e+02
   1.420245e+02   3.685662e+02
  -2.768880e+02   2.778674e+02
  -4.063898e+02   7.639627e+01
  -3.268047e+02  -1.578999e+02
  -4.169133e+01  -2.766732e+02
   5.268144e+01  -1.823016e+02
  -2.712721e+01   6.748162e+01
  -1.300090e+02   1.292001e+02
  -1.768543e+02  -1.516261e+02
   4.229551e+01  -4.517222e+02
   2.941974e+02  -3.253070e+02
   2.956963e+02   6.173813e+01
   2.479363e+01   3.547590e+02
  -1.837097e+02   8.926842e+01
  -1.454175e+02  -2.966194e+02
   1.515996e+02  -3.598359e+02
   4.303317e+02  -3.820566e+01
   3.966679e+02   4.350966e+02
   5.088331e+01   4.542980e+02
  -2.866018e+02   2.127674e+02
  -4.996267e+02  -8.651822e+01
  -2.642149e+02  -2.483433e+02
   5.682796e+01  -1.677798e+02
   2.543908e+02  -6.133375e+01
   1.415153e+02   9.203059e+01
  -1.764964e+01   2.529531e+01
  -5.220488e+01  -9.263433e+01
   1.174834e+02  -8.961089e+01
   1.922916e+02   3.389455e+01
   8.895151e+01   1.912566e+02
  -1.644034e+02   1.241513e+02
  -2.630546e+02   7.665075e+01
  -1.913492e+02  -8.960073e+01
   2.117567e+01  -2.460927e+02
   2.417268e+02  -2.723467e+02
   2.547047e+02  -1.503375e+02
   1.549466e+02   1.478923e+02
   5.806779e+01   2.602922e+02
  -1.119728e+01   2.650268e+02
  -2.614410e+01   1.234325e+02
  -5.034191e+01   7.993482e+01
  -1.101777e+02   1.108569e+02
  -2.212512e+02   1.330642e+01
  -2.000345e+02  -1.122882e+02
  -4.128849e+01  -2.416104e+02
   6.802680e+01  -1.126682e+02
   1.418646e+02   6.140546e+01
   5.876604e+01   2.235398e+02
  -6.751808e+01   1.930209e+02
  -2.349999e+02   3.584869e+01
  -2.644128e+02  -1.745702e+02
  -9.137503e+01  -2.314559e+02
   7.654791e+01  -2.142218e+02
   1.586883e+02  -1.011281e+02
   1.122447e+02  -4.948157e+01
   9.722890e+01  -7.555143e+01
   2.487178e+02  -4.651964e+01
   4.082141e+02   1.052710e+02
   2.229479e+02   2.735851e+02
  -5.625109e+01   3.565616e+02
  -3.626910e+02   2.953354e+02
  -4.472861e+02   1.050830e+02
  -2.533443e+02  -1.033267e+02
   9.707923e+00  -2.297081e+02
   8.119477e+01  -1.562221e+02
   5.087529e+01   1.156017e+01
  -8.513949e+01   2.779249e+01
  -1.133843e+02  -6.839710e+01
  -1.233248e+01  -1.596216e+02
   1.048688e+02  -1.007889e+02
   1.036900e+02   3.361564e+01
  -2.556806e+01   1.164741e+02
  -1.373918e+02   3.380473e+00
  -1.257607e+02  -2.050411e+02
   7.640743e+01  -2.928513e+02
   2.068164e+02  -1.427040e+02
   2.795732e+02   8.972911e+01
   2.213581e+02   2.295460e+02
   1.895347e+00   1.762121e+02
  -1.088235e+02   8.485972e+01
  -1.072958e+02  -1.569800e+01
  -2.278883e+01   1.069551e+01
   4.019414e+01   8.360432e+01
  -2.384039e+01   1.147941e+02
  -1.191821e+02   4.394443e+01
  -1.138607e+02  -5.439412e+01
   1.675942e+01  -6.005823e+01
   6.071218e+01   1.299175e+01
   3.368650e+01   9.290812e+01
  -1.388992e+02   6.090953e+01
  -2.256373e+02  -1.331690e+01
  -1.682536e+02  -1.639709e+02
  -2.235670e+01  -2.312554e+02
   1.866900e+02  -1.886266e+02
   2.132984e+02  -2.806557e+01
   8.828177e+01   3.507348e+01
  -1.847739e+01   7.352624e+01
  -5.821123e+01  -4.669905e+01
   6.612989e+01  -8.636322e+01
   1.317053e+02  -1.757531e+01
   1.275418e+02   8.663384e+01
   2.556799e+01   1.515169e+02
  -1.130201e+02   8.958589e+01
  -1.117863e+02  -3.700050e+00
  -1.807828e+01  -5.500588e+01
   3.407729e+01   2.379622e+01
   2.827260e+00   8.649591e+01
  -9.555286e+01   9.967207e+01
  -2.201259e+02  -1.708490e+01
  -1.403590e+02  -1.226974e+02
  -9.368322e+00  -1.970651e+02
   1.695637e+02  -1.111240e+02
   1.386684e+02   3.250563e+00
   5.200179e+01   5.813241e+01
  -8.400454e+01   4.432326e+01
  -5.983440e+01   1.642111e+00
  -8.056290e+00  -2.859352e+01
   3.288764e+01   3.846864e+01
  -2.610677e+00   5.161632e+00
  -1.056793e+02   1.054986e+01
  -8.853491e+01  -8.045210e+01
  -3.029710e+01  -1.682178e+02
   1.267027e+02  -1.191554e+02
   2.086131e+02  -1.009133e+01
   1.567410e+02   1.220404e+02
   2.396403e+01   2.135716e+02
  -8.044327e+01   9.777485e+01
  -1.091234e+02   4.216954e+00
  -4.669016e+01  -5.478374e+01
   2.685785e+00  -4.166384e+01
  -5.577659e+01   3.552819e+01
  -1.110155e+02   3.161342e+00
  -3.125515e+01  -5.090616e+01
   2.826913e+01  -9.745285e+01
   9.281146e+01  -6.373969e+01
   1.001313e+02   4.757856e+01
  -3.041256e+01   1.147199e+02
  -1.616902e+02   6.561607e+01
  -1.766975e+02  -8.503595e+01
  -3.861952e+01  -1.928443e+02
   1.349335e+02  -1.679654e+02
   2.196414e+02  -1.944612e+01
   2.158409e+02   7.405406e+01
   5.007572e+01   1.482650e+02
  -3.888229e+00   8.316816e+01
  -6.103397e+01   4.348280e+01
  -5.105011e+01   7.698574e+01
  -3.016180e+01   8.967445e+01
  -9.633981e+01   8.773009e+01
  -1.355892e+02  -2.505689e+01
  -1.036769e+02  -1.351620e+02
  -1.776308e+01  -2.271438e+02
   7.487113e+01  -1.447473e+02
   1.367279e+02  -1.634425e+00
   1.091480e+02   1.273208e+02
  -1.515345e+01   1.573787e+02
  -6.886088e+01   4.595485e+01
  -1.579390e+01  -1.422254e+01
  -1.628884e+00  -3.751947e+01
  -1.731666e+01  -2.201367e+01
  -3.600187e+01   1.482625e+01
  -6.184903e+01   1.081424e+01
  -4.787832e+01  -5.429578e+01
   9.642189e+01  -3.888345e+01
   1.483129e+02   2.729621e+00
   1.120616e+02   7.854118e+01
  -3.983685e+01   9.105991e+01
  -9.324487e+01   5.895768e+01
  -1.257681e+02   7.072407e+00
  -2.763966e+01  -4.197925e+01
   7.175342e+01  -2.957511e+01
   7.647834e+01   2.930800e+01
  -1.115334e+01   6.699860e+01
  -3.700238e+01   2.572749e+01
  -5.230805e+01   2.034908e+00
  -2.173650e+01  -4.898505e+01
   2.859051e+00  -6.395230e+01
  -3.718832e+01   9.159327e+00
  -4.513747e+01   1.279015e+01
  -7.691507e-01  -7.894353e+01
   2.012199e+01  -1.082426e+02
   9.758435e+01  -1.184147e+02
   1.515529e+02   1.841578e+00
   1.130988e+02   9.367041e+01
  -2.685851e+01   1.024931e+02
  -7.083250e+01   6.092421e+01
  -3.228604e+01  -2.414439e+01
   8.299556e+01  -3.069832e+00
   1.157688e+02   4.909574e+01
   7.074327e+01   9.633542e+01
  -8.920364e+01   9.668409e+01
  -1.543860e+02   3.507907e+01
  -1.285290e+02  -3.745778e+01
  -1.185608e+01  -1.004852e+02
   5.377539e+01  -2.899850e+01
   2.927671e+01  -2.540164e+00
  -1.988478e+01   4.062359e+01
  -9.219417e+01  -2.309750e+00
  -1.094904e+01  -1.046877e+02
   7.040306e+01  -1.250144e+02
   1.578676e+02  -2.103390e+01
   4.216469e+01   1.176759e+02
  -3.801447e+01   1.477171e+02
  -8.811513e+01   1.137095e+02
  -6.940445e+01  -1.650142e+01
  -4.856846e+01  -1.057780e+02
   1.807515e+01  -6.536326e+01
   2.354155e+01   1.979963e+00
   5.023609e+01   1.412575e+01
   1.028639e+01   1.452050e+01
   2.417534e+01  -2.358412e+01
   5.753393e+01   2.390475e+01
   3.451087e+01   5.822373e+01
   1.918530e+01   1.202831e+02
  -6.389115e+01   3.649215e+01
  -1.303210e+02  -5.273872e+01
  -1.196874e+02  -6.493062e+01
   3.615058e+01  -5.509558e+01
   1.012208e+02  -3.005044e+01
   6.469087e+01   2.104216e+01
   2.427235e+01   2.034944e+00
  -6.049863e+01  -3.344600e+00
   2.537892e+01  -2.755211e+00
   1.338430e+01  -2.088836e+01
  -4.631978e+00  -1.954628e+01
  -6.005671e+01  -2.381031e+01
  -1.043647e+02  -1.158671e+01
   1.602449e-01  -6.170804e+01
   1.378359e+02  -1.042546e+02
   1.761001e+02  -2.280447e+01
   9.348910e+01   8.314007e+01
  -1.063027e+01   1.538046e+02
  -8.982248e+01   1.007659e+02
  -8.408837e+01   7.175620e+01
  -8.994543e+01   2.946270e+00
  -5.263721e+00  -3.357987e+01
   1.516052e+01  -7.326252e+00
  -4.526293e+01  -2.465214e+01
  -3.929390e+01  -1.169876e+01
  -2.070277e+01  -7.522260e+01
   3.340414e+01  -7.210790e+01
   7.108434e+01   1.038748e+01
   6.880958e+01   9.562488e+01
   7.682943e+00   1.016991e+02
  -7.269621e+01   4.250406e+00
  -8.360451e+01  -8.109381e+01
  -2.513138e+01  -5.785240e+01
   5.162171e+01  -4.703383e+01
   7.791073e+01   1.199082e+00
   4.452295e+01   4.241705e+01
  -4.728587e+01   6.807073e+01
  -3.882297e+01   1.211896e+01
   4.074392e+01   5.974116e+00
   7.563070e+01   8.332651e+00
   3.452856e+01   3.894651e+01
  -6.342792e+01   5.461271e+01
  -7.979803e+01   1.139557e+01
  -3.581043e+01   4.277069e+00
   5.055332e+00  -6.411351e+01
   3.846533e+01  -3.023371e+01
   2.228705e+01  -2.070174e+01
  -2.619171e+01   7.103117e+01
  -2.048993e+01   4.567979e+01
  -3.623139e+01  -2.426667e+01
   1.978443e+00  -2.705226e+01
  -1.705319e+01  -4.830083e+01
   1.809604e+01   1.114207e+01
   1.280272e+01   3.684683e+01
   1.656506e+01  -1.209426e+01
   4.067670e+01  -9.111546e+00
   7.815841e+00   1.852295e+01
  -3.631890e+00   3.354788e+01
  -2.478634e+00   2.387311e+01
  -2.039237e+01   4.653780e+01
  -1.599454e+01  -9.039706e+00
  -2.537297e+00  -5.339284e+01
   2.301036e+01  -6.358580e+00
   7.515145e+01   4.786214e+01
  -8.011946e+00   6.730509e+01
  -7.760361e+01   4.463516e+01
  -7.376760e+01  -4.644287e+01
  -4.064649e+01  -6.365676e+01
   3.486124e+01  -2.392552e+01
   5.333137e+01  -8.065958e+00
   1.303260e+01  -1.174281e+01
  -3.301176e+01  -3.448855e+01
  -2.703091e+01  -2.028254e+01
   4.727379e+01  -3.247524e+01
   6.233782e+01  -2.817997e+01
