
 $NMID
 id='ANONYMOUS ', fmtdat='(2E16.6)'
 volume=1.0
 tramp=1.0
 $END
   2.870837e+03   3.961287e+02
   1.741957e+03   1.508209e+03
  -1.596849e+01   1.961598e+03
  -8.721983e+02   1.078214e+03
  -7.109274e+02   2.950577e+02
  -3.205971e+01  -9.367532e+01
   2.247944e+02   1.525625e+02
   1.809993e+01   4.364561e+02
  -4.165255e+02   4.614097e+02
  -4.722990e+02   5.932532e+01
  -3.140895e+02  -3.962616e+02
  -9.647617e+01  -5.954408e+02
   2.012701e+02  -1.542320e+02
   1.367634e+02   3.211743e+02
   1.290262e+00   3.989563e+02
  -2.416867e+02   3.931071e+01
  -2.177628e+02  -4.049851e+02
   1.086422e+02  -4.777749e+02
   3.496265e+02  -1.861247e+02
   3.625101e+02   1.458959e+02
   8.994507e+01   2.742067e+02
  -6.806959e+01   1.875652e+02
  -2.145599e+01   7.358813e+01
   1.759375e+02   1.225825e+02
   1.838838e+02   2.575631e+02
  -4.626891e+01   3.083013e+02
  -4.129967e+02   3.703814e+01
  -4.529071e+02  -2.705714e+02
  -1.489840e+02  -2.567407e+02
   2.733212e+02  -8.960003e+01
   3.839015e+02   9.351311e+01
   1.292880e+02   2.933301e+02
  -2.138783e+02   2.104336e+02
  -3.852837e+02   6.766150e+01
  -2.416773e+02  -1.271836e+02
  -4.319297e+01  -2.501113e+02
   1.043244e+01  -1.171731e+02
  -7.814878e+01   5.131497e+01
  -1.843093e+02   5.600169e+01
  -1.453181e+02  -1.734597e+02
   3.716621e+01  -3.725027e+02
   2.239583e+02  -2.737300e+02
   2.210031e+02   3.527249e+01
   5.357274e+01   1.824621e+02
  -8.990768e+01   7.635961e+01
  -1.715855e+02  -2.400991e+02
   1.116577e+02  -3.196379e+02
   3.522537e+02  -4.749016e+01
   3.560725e+02   2.559575e+02
   1.093695e+02   3.552877e+02
  -2.075917e+02   2.548478e+02
  -3.914853e+02  -1.766650e+01
  -2.685937e+02  -1.541596e+02
   2.994729e+01  -1.731642e+02
   2.056083e+02  -9.973157e+01
   1.812060e+02   3.990568e+00
  -6.151440e+00  -7.241064e+00
  -3.639479e+01  -4.334462e+01
   2.523360e+01  -6.470263e+01
   2.203259e+02   2.247169e+01
   1.167177e+02   1.364403e+02
  -1.295430e+02   2.179464e+02
  -2.617001e+02   1.111933e+02
  -2.213781e+02  -9.049990e+01
   1.292153e+01  -2.501554e+02
   2.550187e+02  -2.968289e+02
   2.742440e+02  -1.155737e+02
   1.803992e+02   1.148267e+02
   1.304868e+01   3.107241e+02
  -6.756414e+01   2.700564e+02
   5.899655e+00   1.774921e+02
  -2.374119e+01   1.107517e+02
  -9.686739e+01   9.239717e+01
  -2.321380e+02   3.519485e+01
  -2.190263e+02  -1.564386e+02
  -8.588707e+01  -2.619359e+02
   1.009876e+02  -1.610245e+02
   1.717437e+02   4.681334e+01
   1.171257e+02   2.096650e+02
  -6.925758e+01   2.513130e+02
  -1.696939e+02   5.472128e+01
  -2.913408e+02  -1.449296e+02
  -1.530757e+02  -2.687449e+02
   1.347333e+01  -2.463432e+02
   1.522860e+02  -1.171697e+02
   7.380565e+01  -7.279414e+01
   1.359446e+02  -3.623189e+01
   2.249894e+02  -3.348094e+01
   2.935558e+02   1.309068e+02
   2.913948e+02   2.477818e+02
  -3.461309e+01   3.485804e+02
  -3.417307e+02   2.532650e+02
  -3.563511e+02   1.230429e+02
  -2.372940e+02  -9.793555e+01
  -1.101731e+00  -2.130948e+02
   7.324726e+01  -1.374038e+02
   2.390895e+00  -2.403655e+01
  -1.217009e+02  -1.977486e+00
  -8.778279e+01  -3.162375e+01
  -4.209314e+00  -1.456490e+02
   1.051969e+02  -7.440777e+01
   8.192248e+01   5.122579e+01
  -2.303078e+00   1.080814e+02
  -1.392126e+02  -1.077859e+01
  -9.355953e+01  -1.939035e+02
   2.118600e+01  -2.836182e+02
   1.771321e+02  -1.933106e+02
   2.997567e+02   1.674660e+01
   2.371670e+02   1.912888e+02
   5.836115e+01   2.418977e+02
  -1.308737e+02   1.253170e+02
  -1.352681e+02   9.335291e+00
  -4.400011e+01  -5.181017e+00
   2.186191e+01   4.142306e+01
  -1.809720e+01   1.098601e+02
  -1.220193e+02   5.159229e+01
  -1.248707e+02  -3.878008e+01
  -2.278529e+00  -6.008755e+01
   8.351371e+01   3.002790e+01
   3.377583e+01   8.908192e+01
  -1.500295e+02   1.017363e+02
  -2.416437e+02  -3.781238e+00
  -2.143810e+02  -1.456646e+02
  -4.016022e+01  -1.924255e+02
   2.107720e+02  -2.091917e+02
   2.350696e+02  -1.039477e+02
   1.011133e+02   4.796287e+01
  -4.482647e+01   6.019368e+01
  -5.142147e+01   3.148815e+01
   5.529013e+01  -7.013378e+01
   1.395168e+02  -3.134331e+01
   1.598109e+02   8.130931e+01
   4.741764e+01   1.784940e+02
  -8.127803e+01   1.381800e+02
  -9.502205e+01  -2.679556e+01
  -4.590937e+01  -7.138777e+01
   5.666478e+01  -2.685116e+01
   3.622740e+01   9.075696e+01
  -7.626014e+01   9.530254e+01
  -1.977708e+02   3.502929e+01
  -1.996644e+02  -1.289617e+02
   1.842351e+01  -1.927567e+02
   1.378935e+02  -1.521987e+02
   1.549446e+02   8.555737e+00
   1.469961e+01   8.413667e+01
  -8.266945e+01   8.093482e+01
  -7.624987e+01  -1.131041e+01
   1.872798e+01  -3.831694e+01
   6.411446e+01  -9.202159e+00
  -4.442569e+01   5.139993e+01
  -7.312130e+01   2.947136e+01
  -1.012881e+02  -8.216132e+01
  -2.235986e+01  -1.498310e+02
   1.096856e+02  -1.235807e+02
   2.086952e+02  -1.661913e+01
   1.789268e+02   1.460005e+02
   2.556185e+01   1.667528e+02
  -7.381695e+01   1.466497e+02
  -9.143279e+01   1.641905e+01
  -4.945172e+01  -3.673841e+01
  -3.838824e+00  -4.091581e+01
  -3.407886e+01   9.324277e+00
  -7.572744e+01  -1.705476e+01
  -7.403323e+01  -4.892159e+01
   6.057184e+01  -8.684572e+01
   1.314273e+02  -7.498268e+01
   9.914380e+01   2.321593e+01
  -9.207407e+00   1.036104e+02
  -1.581156e+02   9.498990e+01
  -1.812042e+02  -6.704941e+01
  -3.769167e+01  -1.868152e+02
   1.353840e+02  -1.416529e+02
   2.255425e+02  -1.042420e+02
   1.988134e+02   4.096221e+01
   5.172592e+01   1.249451e+02
  -2.198905e+01   1.042171e+02
  -8.036324e+01   8.119627e+01
  -4.615811e+01   6.001682e+01
  -6.474209e+01   9.396236e+01
  -6.680784e+01   6.979612e+01
  -9.421124e+01  -1.659831e+01
  -1.082102e+02  -1.234983e+02
  -1.764105e+01  -1.795264e+02
   7.796366e+01  -1.465487e+02
   1.375891e+02   8.179771e+00
   1.195432e+02   1.147152e+02
  -2.602352e+00   1.444774e+02
  -3.682327e+01   7.862283e+01
  -1.014703e+02  -2.329115e+01
  -8.976347e+00  -4.667504e+01
   3.620500e+01  -1.052581e+01
  -1.616396e+01  -9.737191e+00
  -9.495283e+01  -2.939126e+01
  -3.424150e+01  -2.109270e+01
   9.246183e+01  -1.400082e+01
   1.728179e+02  -2.050424e+01
   1.233979e+02   7.394889e+01
  -1.019771e+01   7.530127e+01
  -1.342841e+02   6.853682e+01
  -1.288757e+02   2.894797e+01
  -5.442987e+01  -3.556618e+01
   5.768800e+01  -2.065901e+01
   6.188781e+01   5.683932e+00
   5.535342e+01   4.240653e+01
  -2.108273e+01   3.756418e+01
  -5.107980e+01   4.155479e+00
  -5.471940e+01  -4.166130e+01
  -2.378470e+01  -6.815784e+01
  -2.242683e+01   2.143802e+01
  -7.705484e+01   1.840414e+01
  -5.182983e+01  -8.099229e+01
   1.828899e+01  -1.761517e+02
   1.416921e+02  -1.764633e+02
   1.401183e+02  -1.670986e+01
   1.049817e+02   8.861912e+01
  -2.495198e+01   1.247831e+02
  -5.708884e+01   4.555136e+01
  -6.608372e+01  -5.125823e+00
   4.778561e+01  -3.481121e+01
   6.926327e+01   2.933670e+01
   6.443636e+01   1.041020e+02
  -4.379299e+01   9.979384e+01
  -1.800825e+02   4.112345e+01
  -1.650861e+02  -4.932081e+01
  -1.925005e+01  -4.311381e+01
   5.804567e+01  -4.779963e+01
   6.170756e+01   5.921299e+00
  -2.722685e+01   4.279938e+01
  -1.027737e+02  -5.059882e+01
  -2.991004e+01  -1.050028e+02
   7.546561e+01  -1.470413e+02
   1.064417e+02  -1.197370e+02
   1.212748e+02   8.600020e+01
   2.480562e+01   1.583364e+02
  -7.377556e+01   1.337943e+02
  -7.751805e+01  -9.042116e+00
  -3.381365e+01  -1.265388e+02
   9.230907e+00  -5.966190e+01
   4.575322e+01   1.412966e+01
   2.338967e+01   2.664450e+01
   9.576596e+00   2.722416e+01
   9.761071e+00  -1.470641e+01
   5.496252e+01   2.531002e+01
   5.773167e+01   4.890536e+01
   3.628752e+01   1.114868e+02
  -4.752294e+01   2.923491e+01
  -1.127361e+02  -5.356196e+01
  -1.151987e+02  -1.614442e+01
   1.865557e+01  -6.991780e+01
   8.011911e+01  -2.721867e+01
   5.592915e+01  -1.463019e+01
   2.833032e+00   7.944150e+00
  -2.753548e+01   5.616352e+00
  -4.497604e+01   1.068105e+01
   9.946008e+00  -1.108922e+01
  -9.332017e+00  -2.473873e+01
  -4.062646e+01   2.087542e+01
  -6.090398e+01   1.844096e+00
  -2.652787e+01  -7.040455e+01
   9.466699e+01  -1.015458e+02
   1.859058e+02  -3.856371e+01
   1.224256e+02   5.177413e+01
   5.297244e+01   9.991834e+01
  -9.597328e+01   1.032080e+02
  -6.628933e+01   7.899329e+00
  -4.714026e+01  -5.134208e+00
  -1.592961e+01  -1.432262e+01
  -2.827211e+01  -4.349523e+00
  -5.110320e+01  -2.375412e+00
  -3.016651e+01  -5.042968e+01
  -3.250536e+01  -6.785385e+01
   1.895487e+01  -7.304652e+01
   4.647674e+01   6.960288e+00
   5.278061e+01   1.140876e+02
  -1.215203e+01   1.347033e+02
  -6.038615e+01   2.570571e+01
  -8.810897e+01  -5.586962e+01
  -3.284560e+01  -6.044036e+01
   5.460630e+01  -4.629981e+01
   9.530627e+01  -1.610287e+01
   6.772253e+01   4.000783e+01
   3.432079e+00   5.256034e+01
  -3.568790e+01   4.009631e+01
   9.523343e+00   8.339490e+00
   4.461089e+01  -1.500449e+01
   2.753657e+01   3.086894e+00
  -5.798124e+01   6.581669e+01
  -8.706254e+01   3.181832e+01
  -4.560347e+01  -2.300675e+01
   1.748734e+01  -1.074774e+02
   4.507038e+01  -5.878772e+01
   3.163816e+01  -3.931805e+00
  -1.051976e+00   3.397472e+01
  -1.102975e+00   2.212890e+01
  -3.332282e+01   2.818148e+00
  -2.765483e+01  -3.168960e+01
  -2.574877e+01  -3.898918e+01
   5.079460e+00   9.965175e+00
   3.343178e+01   2.662592e+01
   3.767530e+01   6.516233e+00
   2.768778e+01  -3.243038e+01
   6.068399e+00   7.084650e+00
   7.588332e+00   3.452947e+01
  -1.163435e+01   4.927958e+01
  -5.070724e+01   2.894931e+01
  -7.251519e+01  -4.917573e+00
  -2.816959e+01  -7.230991e+01
   1.275968e+01  -5.760665e+00
   5.489119e+01   5.181578e+01
   1.292743e+01   7.273756e+01
  -6.409374e+01   2.012313e+01
  -7.142040e+01  -2.165242e+01
  -5.593426e+01  -2.670703e+01
   4.388554e+01  -6.388889e+01
   6.118839e+01  -1.631012e+01
   2.373359e+01   1.962844e+01
  -2.135046e+01   1.014896e+01
  -1.910025e+01  -1.871556e+01
   2.683527e+01  -4.099328e+01
   6.367233e+01  -2.147507e+01
