
 $NMID
 id='ANONYMOUS ', fmtdat='(2E16.6)'
 volume=1.0
 tramp=1.0
 $END
  -2.790216e+03  -4.403313e+02
  -1.630420e+03  -1.331416e+03
   6.431831e+01  -2.061026e+03
   1.212886e+03  -1.109121e+03
   7.379904e+02  -2.381353e+02
   7.251740e+01   1.135980e+02
  -2.253862e+02  -2.108875e+02
   1.984642e+01  -4.896328e+02
   4.765840e+02  -4.802320e+02
   5.167507e+02   2.822753e+00
   2.795422e+02   4.568799e+02
  -8.015395e+01   5.514943e+02
  -3.049418e+02   1.820117e+02
  -2.175626e+02  -4.179074e+02
   4.285354e+01  -4.174101e+02
   3.349526e+02  -5.030358e+01
   2.589573e+02   3.993069e+02
  -3.400686e+01   4.983995e+02
  -4.604527e+02   2.577061e+02
  -4.136353e+02  -1.733433e+02
  -9.866290e+01  -3.105366e+02
   1.019992e+02  -1.802705e+02
   2.493840e+01  -6.017014e+01
  -1.830885e+02  -1.096996e+02
  -2.167614e+02  -2.910976e+02
   4.700290e+01  -3.144974e+02
   4.048836e+02  -7.604687e+01
   4.422565e+02   2.718991e+02
   1.240103e+02   3.230758e+02
  -2.995722e+02   9.267043e+01
  -3.665634e+02  -2.021885e+02
  -8.636234e+01  -3.476088e+02
   2.955999e+02  -2.840408e+02
   3.990270e+02  -7.679721e+01
   2.244414e+02   2.054412e+02
   3.593529e+01   2.571597e+02
  -6.080179e+01   1.704238e+02
   9.309162e+01  -4.575740e+01
   1.748829e+02  -9.549444e+01
   1.845383e+02   2.089761e+02
  -7.603332e+01   3.564850e+02
  -2.639479e+02   2.615788e+02
  -1.719800e+02  -1.860644e+01
  -3.389996e+01  -1.860132e+02
   1.269381e+02  -9.873103e+01
   1.071667e+02   2.610801e+02
  -1.391051e+02   3.348965e+02
  -3.993740e+02   3.193173e+01
  -3.523187e+02  -3.377345e+02
  -9.683446e+01  -4.356781e+02
   3.045326e+02  -2.290291e+02
   4.016947e+02   4.619053e+01
   2.808324e+02   1.970495e+02
  -3.530008e+01   1.780006e+02
  -2.108240e+02   7.070607e+01
  -1.624826e+02   9.298512e+00
   2.004551e+01   2.217550e+00
   4.442548e+01   3.267685e+01
  -1.094004e+02   4.835331e+01
  -2.243218e+02  -3.018149e+01
  -1.430563e+02  -1.618422e+02
   1.774922e+02  -2.445610e+02
   3.158039e+02  -9.239443e+01
   2.449957e+02   1.177417e+02
  -2.390129e+01   2.742802e+02
  -2.938249e+02   3.137988e+02
  -3.286314e+02   7.210060e+01
  -1.802063e+02  -1.423967e+02
   8.687189e+00  -2.870012e+02
   5.012192e+01  -2.425432e+02
  -2.376123e+01  -1.797083e+02
   2.116971e-01  -1.209593e+02
   1.509750e+02  -1.056845e+02
   2.796395e+02  -3.851935e+01
   2.183096e+02   1.735318e+02
   7.613121e+01   2.585306e+02
  -7.989772e+01   1.758340e+02
  -1.709207e+02  -5.064023e+01
  -1.114940e+02  -2.202759e+02
   8.781751e+01  -2.338738e+02
   1.852184e+02  -2.605496e+01
   2.673132e+02   1.364924e+02
   1.285110e+02   2.682141e+02
  -4.320492e+01   2.157212e+02
  -1.489816e+02   1.108487e+02
  -1.162250e+02   6.560072e+01
  -1.262834e+02   5.892319e+01
  -2.482408e+02   4.625309e+01
  -3.550282e+02  -1.224403e+02
  -2.880317e+02  -2.947779e+02
   4.337034e+00  -4.103610e+02
   3.634058e+02  -2.605320e+02
   4.195798e+02  -1.151843e+02
   2.218452e+02   1.005762e+02
  -2.737222e+01   2.140414e+02
  -9.128131e+01   1.580167e+02
   1.681926e+01  -3.634170e+00
   1.368262e+02  -1.778462e+00
   7.355902e+01   6.619072e+01
  -2.461042e+01   1.418938e+02
  -1.207105e+02   7.969801e+01
  -7.854807e+01  -3.658458e+01
   3.074258e+01  -1.158436e+02
   1.353718e+02   1.263928e+01
   1.353662e+02   1.835898e+02
  -8.003761e+01   3.095297e+02
  -2.248196e+02   1.680840e+02
  -3.006769e+02  -6.115338e+01
  -2.306883e+02  -2.200482e+02
  -7.082988e+01  -2.011137e+02
   9.787042e+01  -1.087041e+02
   1.118009e+02   5.024821e+00
  -2.116579e+01  -1.485484e+01
  -3.832297e+01  -8.230632e+01
   2.303596e+00  -1.051515e+02
   1.203836e+02  -4.659197e+01
   1.347414e+02   3.601038e+01
   2.127075e+01   2.012776e+01
  -1.096054e+02  -2.099289e+01
  -6.762173e+01  -1.166293e+02
   1.456438e+02  -7.373245e+01
   2.363107e+02   5.206274e+00
   2.203958e+02   1.893915e+02
  -3.512023e+00   2.286666e+02
  -1.933037e+02   2.311332e+02
  -2.365314e+02   8.507824e+01
  -1.127885e+02  -6.958331e+01
   2.276014e+01  -7.487961e+01
   4.938942e+01  -1.107482e+01
  -2.998155e+01   6.051827e+01
  -1.443870e+02  -2.586913e+00
  -1.360318e+02  -1.003228e+02
  -4.149209e+01  -1.796038e+02
   9.179885e+01  -1.497698e+02
   1.090025e+02  -3.024698e+01
   1.508250e+01   5.892253e+01
  -5.650090e+01  -1.137257e+01
  -2.905483e+01  -9.100120e+01
   9.090804e+01  -9.981231e+01
   2.144548e+02  -6.599243e+00
   1.790678e+02   1.416314e+02
  -4.505241e+00   2.288375e+02
  -1.732293e+02   1.458361e+02
  -1.458757e+02   5.147591e+00
  -5.738849e+01  -9.591458e+01
   6.355387e+01  -9.788471e+01
   9.328276e+01   6.637414e-02
  -4.341482e+00   2.640157e+01
  -6.749142e+01   7.085495e+00
  -1.037498e+01  -4.836644e+01
   6.955336e+01  -3.423010e+01
   8.161010e+01   9.360181e+01
   2.443603e+01   1.575622e+02
  -1.191821e+02   1.319571e+02
  -2.108383e+02   3.779759e+01
  -1.623853e+02  -1.518646e+02
  -2.116193e+01  -2.292203e+02
   8.285961e+01  -1.502128e+02
   9.681451e+01  -4.486716e+01
   6.962690e+01   6.997742e+01
  -2.965254e+00   1.027387e+01
   3.812618e+01  -2.735900e+00
   6.092957e+01   5.333083e+00
   4.458059e+01   3.858925e+01
  -2.961697e+01   1.049553e+02
  -1.054208e+02   7.368122e+01
  -1.131895e+02  -3.061039e+01
   1.628812e+01  -1.255256e+02
   1.304478e+02  -6.062979e+01
   1.812775e+02   7.688776e+01
   4.847252e+01   2.071987e+02
  -1.427157e+02   1.953861e+02
  -2.090375e+02   5.886104e+01
  -1.915838e+02  -9.575025e+01
  -7.133930e+01  -1.433602e+02
   3.399727e+01  -1.222380e+02
   1.049265e+02  -8.474158e+01
   7.308100e+01  -8.222587e+01
   6.394581e+01  -1.434250e+02
   1.069783e+02  -4.308886e+01
   1.081515e+02   4.159658e+01
   1.166031e+02   1.319488e+02
   4.808383e-01   2.056266e+02
  -7.890694e+01   1.377014e+02
  -1.685351e+02  -3.189163e+01
  -1.286213e+02  -1.432867e+02
   1.019387e+01  -1.566948e+02
   8.909779e+01  -9.689994e+01
   5.036052e+01   3.579633e+01
   4.204941e+00   4.342392e+01
  -2.204838e+01   1.354148e+01
   4.900865e+01   9.402930e+00
   7.555188e+01   2.210369e+01
   5.604838e+01   3.324662e+01
  -1.019334e+02   1.238846e+01
  -1.668695e+02  -3.564099e+00
  -1.510672e+02  -8.711129e+01
   8.035241e+00  -1.012765e+02
   1.197870e+02  -8.285157e+01
   1.422943e+02  -1.632679e+00
   3.244927e+01   4.995102e+01
  -5.084224e+01   4.465697e+01
  -5.530336e+01  -1.648215e+01
  -1.604373e+01  -6.693420e+01
   4.756638e+01  -4.926511e+01
   7.421714e+01   4.388701e+00
   2.561284e+01   5.926143e+01
   1.996659e+01   3.626380e+01
   2.652855e+01  -1.248058e+01
   8.709432e+01  -2.152459e+01
   6.758809e+01   3.600712e+01
  -3.143646e+01   1.701675e+02
  -1.153428e+02   1.483344e+02
  -1.913439e+02   2.485920e+01
  -1.242631e+02  -1.019728e+02
   5.701230e+00  -1.303614e+02
   8.239696e+01  -5.284135e+01
   7.136187e+01   3.669647e+01
  -5.654860e+01   3.844137e+01
  -1.319117e+02  -3.488652e+01
  -5.441353e+01  -1.020376e+02
   7.336269e+01  -1.238775e+02
   1.685174e+02  -3.089994e+01
   1.500414e+02   3.979884e+01
   3.674075e+01   6.001091e+01
  -5.420760e+01   4.457637e+01
  -2.259248e+01  -1.291732e+01
   4.190258e+01   5.683036e+00
   6.651211e+01   2.481553e+01
   1.003940e+01   1.123641e+02
  -5.688982e+01   1.365908e+02
  -1.454603e+02   7.913575e+01
  -1.336036e+02  -7.803816e+01
  -6.134879e+01  -1.586673e+02
   8.555263e+01  -1.221451e+02
   9.509572e+01   2.955125e+01
   1.315772e+01   1.020476e+02
  -2.340654e+01   7.563758e+01
  -4.584432e+01  -3.447060e+00
  -3.718949e+01  -6.345577e+01
   6.560634e+00  -9.126544e+00
  -1.670155e+01  -1.871109e-01
  -2.593227e+01  -1.457631e+01
  -6.030149e+01  -8.152643e+01
  -9.521712e+00  -9.530660e+01
   4.672143e+01  -1.597398e+01
   1.146521e+02   6.174882e+01
   8.219699e+01   8.604207e+01
   6.471462e+00   3.990454e+01
  -7.209652e+01  -1.767258e+01
  -1.956373e+01   1.064481e+01
   4.614258e+00   7.200593e+00
   3.368565e+01   1.417865e+01
   8.286921e+00  -1.634953e+01
  -1.908576e+01  -1.141840e+01
   1.922551e+01   1.280341e+01
   5.898153e+01   3.688107e+00
   5.148658e+01  -1.947270e+00
   1.758571e+01   1.053652e+02
  -8.637216e+01   1.093595e+02
  -1.880598e+02   5.594948e+01
  -1.256417e+02  -2.805346e+01
  -5.047673e+01  -1.559513e+02
   9.734535e+01  -1.136403e+02
   1.019738e+02  -5.469972e+01
   7.742935e+01   3.105291e+01
   3.571560e+01   6.166945e+00
   3.887402e+01  -6.583735e+00
   4.247429e+01   5.137673e+00
   1.019027e+01   6.978823e+01
   1.561433e+01   1.044462e+02
  -2.236684e+01   8.165817e+01
  -6.451161e+01  -4.801311e+01
  -5.977792e+01  -9.234756e+01
   5.149097e+00  -8.468073e+01
   7.619466e+01  -3.023635e+01
   9.624279e+01   7.207972e+01
   4.894736e+01   8.103032e+01
  -4.313006e+01   3.908896e+01
  -8.029435e+01   1.687608e+01
  -3.233082e+01  -1.604142e+01
   1.362678e+01  -6.188453e+01
   5.818315e+01  -2.374580e+01
  -1.670676e+01  -3.090986e+01
  -5.214212e+01   1.728060e+01
  -8.699528e+00  -8.084256e-01
   6.219635e+01  -6.245692e+01
   1.062761e+02  -2.764731e+01
   9.166303e+01   2.453601e+01
  -3.233490e+01   8.495764e+01
  -4.856107e+01   8.559842e+01
  -3.264506e+01   3.793226e+00
   1.478409e+01  -3.722095e+01
   4.284232e+01  -5.108805e+01
   1.072866e+01   1.466535e+01
   1.418676e+01   2.995061e+01
   9.154070e+00   1.716036e+01
  -1.443650e+01  -6.185580e+00
  -2.869466e+01  -5.405087e+01
   9.516248e+00   4.584395e+00
   3.080634e-01   6.017267e+00
   5.893221e+00   9.589604e+00
  -3.323789e+01  -4.961666e+01
   1.753492e+01  -6.853440e+01
   2.213975e+01   2.557400e-01
   4.322879e+01   5.754159e+01
   3.774599e+01   3.080420e+01
  -1.984197e+01   2.312088e+01
  -6.716537e+01  -5.482908e+01
  -4.191378e+01  -4.194027e+01
   4.455975e+01  -3.795836e+01
   1.176044e+02   1.939526e+01
   5.793976e+01   5.028901e+01
  -2.369828e+01   5.870375e+01
  -6.159769e+01   6.043352e+01
  -4.377960e+01  -2.393160e+01
   2.358919e+00  -3.402551e+01
   4.818061e+01   2.633654e+00
  -7.119974e+00   3.164230e+01
  -5.599832e+01   2.356163e+00
