
 $NMID
 id='ANONYMOUS ', fmtdat='(2E16.6)'
 volume=1.0
 tramp=1.0
 $END
   2.715022e+03  -1.752869e+02
   1.386525e+03   1.104054e+03
   9.356468e+01   1.918837e+03
  -9.045613e+02   1.000909e+03
  -6.753080e+02   2.416496e+02
  -7.940239e+01  -6.660407e+01
   1.713795e+02   1.564035e+02
  -1.486055e+01   5.349675e+02
  -3.989306e+02   4.189833e+02
  -4.978186e+02  -1.794179e+01
  -2.878356e+02  -4.395886e+02
   3.251841e+01  -5.263522e+02
   1.904743e+02  -1.084612e+02
   1.958007e+02   3.469294e+02
  -5.221381e+01   4.323030e+02
  -3.112719e+02   6.995295e+01
  -3.116870e+02  -4.160270e+02
   5.809007e+01  -4.584503e+02
   4.021235e+02  -2.433706e+02
   3.569285e+02   1.816244e+02
   1.011258e+02   2.951334e+02
  -1.294443e+02   1.995865e+02
  -6.491800e+00   6.987096e+01
   1.739196e+02   1.580547e+02
   2.249553e+02   3.681022e+02
  -1.049138e+02   3.361541e+02
  -4.344473e+02   8.340600e+01
  -4.620339e+02  -2.590605e+02
  -5.319088e+01  -2.849565e+02
   2.563359e+02  -1.432407e+02
   4.034121e+02   1.643676e+02
   1.614707e+02   3.581242e+02
  -2.861501e+02   2.892524e+02
  -3.722698e+02   7.175895e+01
  -2.430514e+02  -2.094945e+02
  -2.272079e+01  -2.531347e+02
   4.885807e+01  -1.401183e+02
  -5.438763e+01   6.149900e+01
  -1.629944e+02   6.169817e+01
  -1.314652e+02  -2.023882e+02
   2.788198e+01  -3.694032e+02
   2.893234e+02  -2.405940e+02
   1.532350e+02   4.307758e+01
   3.857059e+01   2.406733e+02
  -1.182083e+02   5.353206e+01
  -1.386363e+02  -1.976539e+02
   1.601697e+02  -3.233009e+02
   4.232480e+02  -5.223866e+01
   3.587592e+02   3.693715e+02
   1.275858e+02   4.544154e+02
  -2.940936e+02   2.348930e+02
  -4.288027e+02  -5.286279e+01
  -3.286976e+02  -1.649555e+02
   4.462798e+01  -1.849627e+02
   1.688673e+02  -1.006338e+02
   1.720105e+02  -3.528736e+01
   1.263001e+00   7.365935e-01
  -1.390770e+01  -1.529556e+01
   1.209622e+02  -5.192943e+01
   1.941019e+02   2.035539e+01
   1.152591e+02   1.164870e+02
  -1.464011e+02   2.308684e+02
  -2.956076e+02   1.574831e+02
  -2.722679e+02  -9.141368e+01
   2.126771e+01  -2.767136e+02
   3.281190e+02  -3.065548e+02
   3.173413e+02  -8.334766e+01
   1.701309e+02   1.543691e+02
   2.313509e+01   2.650536e+02
   5.003394e+00   2.857978e+02
   2.161101e+01   1.692236e+02
  -2.347971e+01   1.375820e+02
  -1.443655e+02   1.326740e+02
  -2.329487e+02  -1.387795e+01
  -1.944338e+02  -1.271602e+02
  -8.605921e+01  -2.383817e+02
   7.500911e+01  -1.589850e+02
   1.574822e+02   4.472202e+01
   1.168716e+02   1.889419e+02
  -6.355934e+01   2.057964e+02
  -1.801695e+02   5.318801e+01
  -2.539595e+02  -1.633569e+02
  -1.219150e+02  -2.479107e+02
   4.962386e+01  -1.844291e+02
   1.342768e+02  -1.019527e+02
   1.165398e+02  -7.900883e+01
   1.513509e+02  -5.109443e+01
   2.301238e+02  -5.262762e+01
   3.617446e+02   1.034454e+02
   2.911545e+02   3.213552e+02
  -5.584560e+01   4.025181e+02
  -4.011376e+02   2.656422e+02
  -4.241855e+02   1.413738e+02
  -2.280249e+02  -9.116778e+01
   1.908912e+01  -2.203439e+02
   7.591608e+01  -1.687565e+02
   5.384901e+00  -1.887237e+01
  -1.108499e+02  -1.324075e+01
  -1.125148e+02  -4.465016e+01
   2.278423e+01  -1.423622e+02
   1.232747e+02  -9.025954e+01
   7.211596e+01   5.030266e+01
  -4.487991e+01   1.223706e+02
  -1.396803e+02  -1.450018e+00
  -1.394518e+02  -1.560730e+02
   2.704931e+01  -3.078565e+02
   2.286095e+02  -1.449962e+02
   3.011428e+02   3.293583e+01
   2.148098e+02   2.192534e+02
   3.784033e+01   2.258785e+02
  -1.207119e+02   7.318430e+01
  -1.077919e+02  -1.585104e+01
  -1.988067e+00  -4.497334e+00
   1.820101e+01   8.051586e+01
  -2.172050e+01   1.170680e+02
  -1.369164e+02   2.186821e+01
  -1.214697e+02  -7.445657e+01
  -1.549187e+01  -6.766326e+01
   1.116887e+02   6.291884e+00
   2.332266e+01   1.031951e+02
  -1.418449e+02   9.788688e+01
  -2.702733e+02  -2.668339e+01
  -1.919446e+02  -1.206831e+02
   5.968449e+00  -1.974149e+02
   2.146783e+02  -1.980728e+02
   2.493485e+02  -7.778688e+01
   1.409943e+02   8.191049e+01
  -3.757840e+01   7.175069e+01
  -5.208737e+01  -1.241136e+01
   7.165478e+01  -4.595821e+01
   1.571311e+02  -2.855305e+01
   1.631219e+02   1.218143e+02
   6.040640e+01   2.047851e+02
  -1.013428e+02   1.364239e+02
  -1.318799e+02   3.910731e+00
  -4.408763e+01  -4.381387e+01
   7.142347e+01   3.067291e+00
   3.627831e+01   9.735128e+01
  -7.429460e+01   8.816857e+01
  -2.054746e+02  -2.907454e+01
  -1.731698e+02  -1.763943e+02
  -5.259019e+00  -2.141854e+02
   1.593049e+02  -1.321526e+02
   1.806576e+02   1.525888e+01
   5.855068e+01   1.009416e+02
  -5.654820e+01   1.147494e+02
  -6.370990e+01   3.377661e+00
   9.463926e+00  -2.892586e+01
   2.177559e+01  -1.604515e+01
  -2.867136e+00   3.383748e+01
  -9.436407e+01  -1.226745e+01
  -7.397014e+01  -9.596552e+01
   7.810275e+00  -1.603015e+02
   8.973237e+01  -1.391310e+02
   2.065912e+02   2.358603e+01
   1.714478e+02   1.532125e+02
   2.497828e+01   2.424670e+02
  -8.631496e+01   1.294597e+02
  -1.283778e+02   3.692575e+01
  -6.081488e+01  -3.644424e+01
  -5.494459e+01  -4.652575e+01
  -4.451124e+01   8.975588e+00
  -6.498048e+01   4.361033e+00
  -6.058492e+01  -3.894770e+01
   4.218388e+01  -1.107758e+02
   1.213376e+02  -6.080836e+01
   1.018565e+02   2.855212e+01
   6.922406e+00   1.097804e+02
  -1.513868e+02   8.831515e+01
  -2.020598e+02  -3.144806e+01
  -7.677536e+01  -2.184999e+02
   1.416067e+02  -1.769632e+02
   2.400600e+02  -7.956969e+01
   2.158254e+02   8.075886e+01
   9.171881e+01   1.584589e+02
  -2.052634e+01   1.336892e+02
  -7.451586e+01   8.003300e+01
  -7.467043e+01   6.667378e+01
  -6.990146e+01   1.245346e+02
  -1.019447e+02   4.478363e+01
  -1.201429e+02  -3.991430e+01
  -8.341996e+01  -1.601085e+02
   1.323187e+01  -2.142857e+02
   1.240338e+02  -1.404898e+02
   1.138901e+02   3.861934e+01
   1.124970e+02   1.087406e+02
  -4.584375e+00   1.202227e+02
  -6.434061e+01   7.433391e+01
  -6.523524e+01  -2.271746e+01
  -9.841548e+00  -6.414130e+01
   1.715206e+01  -2.413465e+01
  -4.775178e+01   4.444431e+00
  -9.162678e+01  -3.275328e+01
  -3.628410e+01  -4.673576e+01
   7.619802e+01  -5.317542e+01
   1.865026e+02  -1.298496e+01
   1.556349e+02   6.018544e+01
   3.101925e+01   9.429293e+01
  -1.311275e+02   6.806528e+01
  -1.573100e+02   2.348601e+01
  -4.902264e+01  -5.078176e+01
   6.281289e+01  -5.463325e+01
   5.124612e+01   2.833774e+01
  -4.658744e+00   5.039583e+01
  -6.749483e+01   7.348997e+01
  -6.440348e+01  -2.863738e+01
  -5.673889e+01  -3.359487e+01
  -4.025739e+01  -4.952814e+01
  -1.678481e+01   3.149338e+01
  -6.208344e+01   1.593915e+01
  -4.918429e+01  -4.764551e+01
  -8.108876e+00  -1.240800e+02
   1.018373e+02  -1.576462e+02
   1.479895e+02   3.357639e+00
   1.371491e+02   9.073884e+01
   2.364812e-01   1.312907e+02
  -1.009373e+02   4.745549e+01
  -4.746095e+01  -5.623065e+01
   3.832028e+01  -4.761085e+01
   1.405102e+02   2.257573e+01
   5.961798e+01   1.131086e+02
  -6.468935e+01   1.373561e+02
  -1.964415e+02   4.506443e+01
  -1.616066e+02  -3.420842e+01
  -1.633408e+01  -7.104378e+01
   5.123874e+01  -3.889419e+01
   3.770930e+01   2.519841e+01
  -5.140490e+01   1.663747e+01
  -8.337987e+01  -4.099605e+01
  -2.343592e+01  -1.151208e+02
   7.927147e+01  -1.481061e+02
   1.576312e+02  -5.766691e+01
   1.195836e+02   8.806306e+01
   4.223051e+00   1.758815e+02
  -1.033980e+02   9.897166e+01
  -1.217721e+02  -3.215768e+01
  -2.569978e+01  -1.061429e+02
   2.667533e+01  -7.815654e+01
   3.681559e+01   2.332303e+01
   1.246821e+01   6.727986e+01
   1.318605e+01  -1.224390e+01
   2.333785e+01  -5.552210e+00
   3.852312e+01   2.152732e+01
   2.399412e+01   8.546949e+01
   4.024857e+01   1.095114e+02
  -6.007271e+01   1.795205e+01
  -1.279582e+02  -3.608162e+01
  -1.007940e+02  -8.866612e+01
  -2.621525e+01  -3.316355e+01
   6.737303e+01  -2.381430e+01
   5.664654e+01  -8.534956e+00
   1.139390e+01  -1.294362e+01
  -2.985194e+01  -1.223283e+01
  -3.183540e+01   1.843778e+01
   4.197896e+01   1.967634e+01
  -1.374207e+00  -4.634029e+00
  -3.903997e+01   1.020292e+01
  -7.452960e+01  -2.659133e+01
  -3.802870e+01  -5.964639e+01
   8.881892e+01  -9.063574e+01
   1.729678e+02  -8.803911e+01
   1.508025e+02   5.150599e+01
   6.257022e+01   1.548091e+02
  -8.223116e+01   1.604078e+02
  -1.322435e+02   4.672761e+01
  -5.893942e+01  -1.135449e+01
   2.080119e+01  -4.540303e+01
  -1.809875e+01  -1.080845e+01
  -1.907402e+01   2.292573e+01
  -4.485005e+01  -4.963502e+01
  -9.792940e+00  -8.548145e+01
   4.646632e+01  -9.732898e+01
   8.012134e+01   1.843553e+01
   4.261774e+01   8.884682e+01
  -2.403466e+00   9.982867e+01
  -6.862592e+01   1.389022e+01
  -9.372504e+01  -6.740471e+01
  -5.766010e+01  -1.391947e+02
   8.514661e+01  -5.051175e+01
   4.738871e+01   4.875016e-01
   5.030679e+01   5.395202e+01
  -4.153143e+01   5.941933e+01
  -4.712647e+01   3.266886e+01
   2.246447e+01  -1.485845e+00
   3.350634e+01   6.256444e+00
   2.504870e+01   3.637274e+01
  -8.123499e+01   5.733806e+01
  -1.078991e+02   4.208293e+01
  -5.017946e+01  -3.967161e+01
   3.189812e+01  -1.105398e+02
   3.526470e+01  -1.101695e+02
   3.928692e+01  -2.407316e+01
   6.979408e+00   1.687540e+01
   8.545121e+00   4.812259e+01
  -1.536690e+01   4.642006e+00
  -4.710381e+00  -3.976248e+01
   2.053438e+01  -1.634599e+01
   4.439939e+01  -8.442643e+00
   2.722073e+01   4.347251e+01
   1.691298e+01   1.412976e+01
   4.040861e-01  -4.673806e+00
  -1.736623e+01  -5.100236e+00
   3.152964e+01   5.059121e+01
  -1.399877e+01   5.867737e+01
  -1.900126e+01   3.421115e+01
  -3.025499e+01  -2.851367e+01
  -4.229609e+01  -1.581021e+01
   6.999345e+01  -2.660422e+01
   5.876707e+01   3.888023e+01
   1.880835e+01   4.891151e+01
  -3.378425e+01   5.115450e+00
  -7.499239e+01  -9.677659e+00
  -5.149422e+01  -3.663277e+01
   1.197091e+01  -4.406012e+01
   4.036450e+01  -2.594303e+01
   3.550700e+01   6.512052e+00
  -2.663795e+01   2.529756e+01
  -3.354622e+01  -4.608763e+00
   6.349464e+00  -3.036552e+01
   5.327018e+01  -4.092697e+01
