
 $NMID
 id='ANONYMOUS ', fmtdat='(2E16.6)'
 volume=1.0
 tramp=1.0
 $END
  -2.686729e+03   9.543851e+01
  -1.503585e+03  -1.508733e+03
   3.376966e+02  -1.400027e+03
   1.131548e+03  -8.513921e+02
   5.984958e+02  -1.407500e+02
  -1.051582e+02   2.322651e+02
  -1.759977e+02  -3.155759e+02
   1.103438e+02  -4.615652e+02
   4.722182e+02  -3.468324e+02
   4.520877e+02   5.957908e+01
   1.954759e+02   5.105657e+02
  -1.119329e+02   4.881226e+02
  -2.715105e+02   5.940635e+01
  -1.464860e+02  -4.011840e+02
   1.757021e+02  -3.793336e+02
   3.053159e+02  -2.352150e+01
   1.248374e+02   4.618415e+02
  -1.500102e+02   4.308762e+02
  -3.466370e+02   1.074954e+02
  -2.615302e+02  -1.617104e+02
  -1.419379e+01  -2.541774e+02
   1.227590e+02  -1.496634e+02
   3.358643e+01  -4.520837e+00
  -1.369345e+02  -7.670591e+01
  -1.564178e+02  -2.455899e+02
   8.623719e+01  -2.978566e+02
   4.442554e+02  -7.528612e+01
   4.634183e+02   3.185502e+02
   8.726013e+01   3.211632e+02
  -3.096733e+02   1.365717e+02
  -4.321259e+02  -2.004186e+02
  -8.459231e+01  -2.910316e+02
   2.465372e+02  -2.706520e+02
   3.427683e+02  -7.171873e+01
   2.434299e+02   1.410850e+02
  -1.499383e+00   2.600612e+02
  -4.144918e+01   1.382064e+02
   2.704588e+01  -7.058853e+01
   1.387141e+02  -9.961641e+01
   1.240739e+02   7.409579e+01
  -1.278113e+01   4.125841e+02
  -2.558332e+02   3.095022e+02
  -2.639992e+02  -8.776311e+01
  -3.756701e+01  -2.941571e+02
   1.823839e+02  -8.229171e+01
   1.445728e+02   2.160663e+02
  -1.314305e+02   3.322873e+02
  -4.019843e+02  -4.663755e+01
  -3.754535e+02  -3.888668e+02
   8.519135e+00  -4.135645e+02
   2.841567e+02  -1.672364e+02
   4.186027e+02   9.798732e+01
   2.231594e+02   2.542809e+02
  -9.551884e+01   1.847257e+02
  -2.108818e+02   1.945223e+01
  -1.299831e+02  -5.555104e+01
   2.066460e+01   1.563675e+01
   1.637415e+01   9.709421e+01
  -1.334010e+02   2.910797e+01
  -1.748049e+02  -4.934682e+01
  -9.450494e+01  -1.772305e+02
   1.700223e+02  -1.532556e+02
   2.707179e+02  -5.779243e+01
   1.723044e+02   1.087108e+02
  -3.688544e+01   1.968714e+02
  -2.391411e+02   2.519425e+02
  -2.224720e+02   8.811725e+01
  -1.509841e+02  -1.294306e+02
  -5.137475e+01  -2.472880e+02
   4.714251e+01  -2.489146e+02
   7.466971e+00  -1.174498e+02
   2.518470e+01  -1.028950e+02
   1.215149e+02  -7.810152e+01
   2.109043e+02  -4.056017e+01
   1.787701e+02   1.315004e+02
   3.683704e+01   2.233000e+02
  -1.044878e+02   1.332689e+02
  -1.359482e+02  -6.481461e+01
  -7.376430e+01  -2.252815e+02
   7.062715e+01  -2.331280e+02
   2.198469e+02  -9.334136e+00
   2.077122e+02   1.773093e+02
   1.096243e+02   2.168033e+02
  -8.366226e+01   2.019026e+02
  -1.122412e+02   8.220043e+01
  -5.974680e+01   4.185022e+01
  -1.364653e+02   8.272238e+01
  -2.427702e+02   2.725571e+01
  -3.558335e+02  -1.281128e+02
  -2.113572e+02  -2.666160e+02
   8.258086e+01  -3.653212e+02
   3.241624e+02  -2.425389e+02
   3.623398e+02  -6.085965e+01
   2.243280e+02   1.268178e+02
  -3.221768e+00   1.945412e+02
  -9.613513e+01   1.341446e+02
  -1.760803e+01   7.400014e+00
   1.161108e+02  -9.877775e+00
   1.000176e+02   5.118346e+01
  -2.111479e+01   1.639683e+02
  -1.094782e+02   9.209561e+01
  -5.564647e+01  -7.578624e+01
   3.927702e+01  -1.251140e+02
   1.074791e+02  -5.143077e-01
   9.748578e+01   1.762862e+02
  -8.690751e+01   2.667873e+02
  -1.829076e+02   1.253852e+02
  -2.753286e+02  -1.147084e+02
  -1.730785e+02  -2.030052e+02
  -2.514757e+01  -2.004067e+02
   1.160445e+02  -7.959539e+01
   1.085698e+02   2.137852e+01
  -1.737581e+01   6.297316e+00
  -3.560237e+01  -4.525883e+01
   6.231306e+01  -8.849536e+01
   1.408891e+02  -4.440560e+01
   1.497947e+02   6.187070e+01
   1.229479e+01   3.292941e+01
  -8.371253e+01  -4.336948e+01
  -8.403218e+00  -8.836017e+01
   1.149138e+02  -3.508398e+01
   2.344335e+02   1.096162e+01
   1.672957e+02   1.599068e+02
  -1.912086e+00   2.465384e+02
  -1.771061e+02   1.509226e+02
  -2.162478e+02  -1.025986e+00
  -9.625229e+01  -7.838442e+01
   4.712836e+01  -6.710380e+01
   4.210128e+01   1.651968e+01
  -8.974182e+01   6.230726e+01
  -1.375879e+02  -1.919393e+01
  -1.193307e+02  -1.114187e+02
  -1.335961e+01  -1.675549e+02
   6.342559e+01  -8.299993e+01
   1.040729e+02   2.949963e+01
   4.551751e+01   2.838707e+01
  -2.987725e+01  -1.700450e+01
   9.442323e+00  -7.735764e+01
   9.235289e+01  -9.700812e+01
   1.808459e+02   4.350791e+01
   1.372911e+02   1.381682e+02
  -3.909178e+01   1.649998e+02
  -1.328443e+02   7.738686e+01
  -1.442829e+02  -3.008386e+00
  -2.764872e+01  -1.096287e+02
   6.437463e+01  -8.343844e+01
   4.689303e+01   2.526790e+01
   4.454222e+00   6.311105e+01
  -3.419627e+01  -1.537590e+01
   7.492663e+00  -1.530916e+01
   7.396223e+01   7.841017e-01
   6.268772e+01   8.260192e+01
   7.081364e-01   1.434184e+02
  -1.716378e+02   1.323484e+02
  -2.260658e+02  -1.320109e+01
  -1.510535e+02  -1.363775e+02
  -3.307461e+01  -1.877878e+02
   9.361915e+01  -1.148869e+02
   1.060275e+02  -2.487673e+00
   1.077101e+01   3.682070e+01
   2.952926e+01   8.224143e+00
   3.494919e+01   6.005351e+00
   9.586354e+01   1.994383e+01
   3.524585e+01   6.194217e+01
  -4.307722e+01   8.712665e+01
  -9.798829e+01   5.357208e+01
  -6.659012e+01  -6.781992e+01
   2.465007e+01  -1.175171e+02
   1.343702e+02  -6.390543e+01
   2.057022e+02   8.035055e+01
   3.093091e+01   1.837708e+02
  -1.429057e+02   1.744217e+02
  -2.369283e+02   2.309740e+01
  -1.598494e+02  -8.781384e+01
  -5.129048e+01  -1.407531e+02
   4.049138e+01  -1.052983e+02
   9.074058e+01  -7.836582e+01
   5.438920e+01  -2.620696e+01
   4.715838e+01  -9.247612e+01
   6.477036e+01  -4.726611e+01
   8.771748e+01   1.471824e+01
   9.807157e+01   1.331193e+02
   2.945389e+01   1.855999e+02
  -7.532316e+01   9.971223e+01
  -1.175692e+02  -2.451309e+01
  -1.058362e+02  -9.991035e+01
   8.553586e+00  -1.348076e+02
   1.144954e+02  -4.238031e+01
   4.594169e+01   1.857782e+01
   1.574085e+01   2.317253e+01
  -1.576909e+00   4.310729e+01
   2.837795e+01  -1.055763e+01
   6.256562e+01   5.639338e+01
   1.209482e+01   4.459116e+01
  -7.235129e+01   2.647164e+01
  -1.320919e+02  -9.240268e+00
  -1.095862e+02  -8.408648e+01
  -2.917188e+01  -5.765613e+01
   9.335956e+01  -7.236044e+01
   1.138060e+02   2.769105e+01
   2.882914e-01   5.178571e+01
  -6.709641e+01   1.064227e+01
  -5.897159e+01  -4.940345e+01
  -3.119003e+00  -8.781562e+01
   5.181916e+01  -4.244620e+01
   7.385030e+01   2.088859e+01
   1.102453e+01   2.962280e+01
   9.795306e+00   5.971110e+01
   5.451916e+01   7.938909e+00
   5.293311e+01   6.078323e+00
   2.307444e+01   6.202988e+01
  -5.571250e+01   1.016215e+02
  -1.018905e+02   1.047477e+02
  -1.579349e+02  -1.251590e+01
  -9.029327e+01  -1.083346e+02
  -3.879335e+00  -8.331967e+01
   6.451309e+01  -2.421501e+01
   5.087930e+01   3.004225e+01
  -2.229933e+01   2.970256e+01
  -1.373948e+02   2.396390e+00
  -6.201716e+01  -8.109419e+01
   6.714428e+01  -9.174082e+01
   1.327453e+02  -3.130598e+01
   1.085538e+02   4.326925e+01
  -2.736483e+01   3.686594e+01
  -4.670936e+01   3.453710e+01
  -1.537974e+01  -6.122075e+00
   6.190659e+01  -2.384408e+01
   6.552652e+01   3.131602e+01
   1.140679e+01   1.094312e+02
  -6.613923e+01   1.087130e+02
  -1.484356e+02   4.005691e+01
  -8.050044e+01  -6.317487e+01
   2.604213e+01  -1.244988e+02
   1.096358e+02  -8.446960e+01
   8.090391e+01   3.001827e+01
   2.522882e+01   1.395004e+02
  -3.117325e+01   7.762884e+01
  -3.393146e+01   1.334860e+01
  -1.896357e+01  -1.309390e+01
  -1.726895e+01  -2.458421e+01
  -9.966181e+00   2.008955e+01
  -4.703352e+01  -3.202801e+00
  -2.944073e+01  -7.579043e+01
   1.636978e+01  -8.297932e+01
   4.735215e+01  -3.398875e+01
   1.198300e+02   5.559686e+01
   1.221142e+02   5.615904e+01
  -1.962105e+01   1.266759e+01
  -1.017750e+02   6.559513e+00
  -6.951935e+01  -8.165050e+00
   7.529051e+00  -1.213681e+01
   3.768719e+01  -2.193702e+01
  -2.237020e+00  -4.676064e+00
  -8.785678e+00  -4.772106e-01
  -2.351358e+01  -9.020154e-01
   3.618315e+01   2.434083e+01
   8.126593e+01   4.177037e+01
  -5.238832e+00   3.825111e+01
  -9.450481e+01   9.429651e+01
  -1.501214e+02   3.714448e+01
  -1.271400e+02  -6.106346e+01
  -6.178666e+00  -1.308974e+02
   1.032089e+02  -9.960397e+01
   8.559054e+01  -6.692764e+01
   4.838274e+01   2.822703e+01
  -4.253650e+00   2.037019e+01
  -7.230271e+00   4.611017e+00
   2.097621e+01   1.035375e+01
   7.417539e+00   4.469462e+01
  -7.531490e+00   6.860784e+01
  -2.069845e+01   4.715730e+01
  -5.705447e+01  -9.495922e+00
  -4.998977e+01  -7.406767e+01
   7.426789e+00  -9.258540e+01
   7.026658e+01  -1.081885e+01
   6.628040e+01   7.005239e+01
   2.627717e+01   7.511132e+01
  -5.352497e+01   5.626490e+01
  -4.586876e+01  -1.455223e+01
  -3.744814e+01  -4.216762e+01
   3.615685e+01  -4.744984e+01
   2.506044e+01  -2.788893e+01
  -3.218757e+01   2.419296e+01
  -6.216175e+01  -2.514285e+01
  -3.126724e+01  -1.845073e+01
   7.855511e+01  -4.066111e+01
   9.696361e+01  -7.394938e+00
   5.367344e+01   1.482935e+01
  -4.732193e+00   8.251530e+01
  -5.651061e+01   6.865870e+01
  -4.814426e+01   1.636882e+01
   1.764603e-01  -5.276753e+01
  -6.457431e+00  -2.814727e+01
   3.164100e+01   2.391891e+01
   1.018580e+01   5.490836e+01
  -9.615378e+00   2.216871e+01
  -4.038383e+01  -2.372889e+01
  -1.989624e+00  -6.759939e-01
  -5.793946e+00   2.063119e+01
   6.822461e+00   3.046358e+01
   3.982307e+00   7.212577e+00
  -1.470175e+01  -3.108934e+01
   2.205099e+00  -6.270985e+01
   7.482942e+00  -2.416964e+01
   3.618529e+01   4.949843e+01
  -1.906016e+00   5.806473e+01
  -2.295242e+01   8.180706e+00
  -4.755530e+01  -4.151339e+01
  -4.349313e+00  -5.815641e+01
   5.661804e+01  -8.990472e+00
   5.857151e+01   1.114825e+00
   2.783970e+01   5.025902e+01
  -3.799534e+01  -3.978613e+00
  -5.074555e+01   7.139390e+00
  -1.533290e+01  -9.098315e+00
   2.580321e+01   8.731442e+00
   1.520464e+01   6.261935e+00
  -2.408279e+01   2.525538e+01
  -6.188055e+01   7.293428e+00
