
 $NMID
 id='ANONYMOUS ', fmtdat='(2E16.6)'
 volume=1.0
 tramp=1.0
 $END
   2.668769e+03  -1.869200e+02
   1.975088e+03   1.150374e+03
   1.731634e+02   1.495599e+03
  -8.267516e+02   1.063090e+03
  -6.346665e+02   3.361267e+02
   3.540169e+01  -1.004952e+02
   2.170875e+02   6.402565e+01
   3.584190e+01   4.050228e+02
  -3.495608e+02   3.720812e+02
  -3.799216e+02   1.444133e+02
  -2.558549e+02  -2.216132e+02
  -1.493427e+02  -4.389203e+02
   9.521473e+01  -2.106257e+02
   1.510275e+02   1.674767e+02
   1.741076e+01   3.167373e+02
  -2.129602e+02   5.162742e+01
  -1.726497e+02  -2.407535e+02
   3.116854e+01  -3.720168e+02
   2.613368e+02  -2.041159e+02
   3.292764e+02   8.698283e+01
   1.373721e+02   1.850677e+02
  -5.695637e+01   1.690349e+02
  -2.309437e+01   1.346429e+02
   6.820764e+01   7.606968e+01
   1.083449e+02   1.974382e+02
  -1.849722e+01   2.123559e+02
  -2.917138e+02   3.154720e+01
  -3.150450e+02  -1.095810e+02
  -1.320967e+02  -1.514485e+02
   1.946038e+02  -8.764409e+01
   3.284469e+02   1.457631e+02
   1.122245e+02   2.071922e+02
  -1.690207e+02   2.345141e+02
  -3.282039e+02   1.249672e+02
  -2.124800e+02  -2.484896e+01
  -1.039740e+02  -2.397788e+02
  -2.162517e+01  -8.910247e+01
  -6.362385e+01   1.259439e+01
  -1.291154e+02   6.198338e+01
  -9.328028e+01  -6.122456e+01
  -2.344356e+01  -2.682650e+02
   1.272741e+02  -2.575158e+02
   1.909426e+02  -1.102670e+01
   2.057642e+01   1.940864e+02
  -7.858006e+01   8.817517e+01
  -2.605130e+01  -2.663326e+02
   9.267428e+01  -2.370987e+02
   2.959446e+02  -3.631833e+00
   3.128043e+02   2.218406e+02
   1.306081e+02   2.696091e+02
  -1.919137e+02   2.102334e+02
  -3.288006e+02  -1.343276e+01
  -2.422365e+02  -1.727815e+02
  -5.750288e+00  -1.420179e+02
   1.831363e+02  -7.819258e+01
   1.274028e+02  -2.227894e+01
   3.967424e+01  -1.467599e+01
  -2.555460e+00  -2.917000e+01
   8.627431e+01  -4.317604e-01
   1.805633e+02   3.710827e+01
   4.336588e+01   1.206511e+02
  -8.934836e+01   1.525642e+02
  -2.002065e+02   1.015794e+02
  -1.519136e+02  -4.201012e+01
   4.836869e+00  -2.091288e+02
   1.601879e+02  -2.429857e+02
   2.683331e+02  -1.544128e+02
   1.901177e+02   6.415736e+01
   1.037141e+02   2.443751e+02
  -6.711749e+00   2.265720e+02
   2.044874e+01   1.462830e+02
  -5.338072e+01   1.228779e+02
  -1.306155e+02   9.462918e+01
  -1.953400e+02   3.641828e+01
  -1.568889e+02  -1.223896e+02
  -5.848802e+01  -1.694891e+02
   8.364629e+01  -1.047382e+02
   1.095293e+02   5.923179e+01
   9.682528e+01   1.834722e+02
  -2.912756e+01   2.051011e+02
  -1.974913e+02  -3.638149e+00
  -1.847663e+02  -1.119572e+02
  -1.338800e+02  -2.020754e+02
   2.313409e+01  -1.812588e+02
   9.191481e+01  -1.015857e+02
   8.494780e+01  -1.019858e+02
   9.022791e+01  -7.097828e+01
   2.616548e+02  -6.199468e+01
   3.134168e+02   6.022958e+01
   1.962679e+02   2.350168e+02
  -3.552513e+01   2.868623e+02
  -2.106725e+02   2.443600e+02
  -3.041522e+02   1.213884e+02
  -1.862744e+02  -3.980162e+01
  -2.468360e+01  -1.663831e+02
   5.790835e+00  -1.087628e+02
  -3.553644e+01  -2.189407e+01
  -9.515908e+01   1.350347e+01
  -4.221554e+01  -3.442703e+01
   1.408964e+01  -8.281672e+01
   4.148091e+01  -6.506034e+01
   4.433406e+01   3.147607e+01
  -6.437888e-01   8.538647e+01
  -1.018696e+02   5.598824e+00
  -7.705460e+01  -1.820150e+02
   1.220211e+01  -2.557987e+02
   1.800394e+02  -1.957836e+02
   2.458210e+02   4.073737e+01
   2.128144e+02   1.592535e+02
   8.112140e+01   1.714495e+02
  -8.731492e+01   1.248053e+02
  -8.796800e+01   3.760295e+01
  -3.917104e+01   1.727678e+01
   4.548268e+01   2.532021e+01
  -2.781053e+01   7.922105e+01
  -1.131468e+02   5.747054e+01
  -1.138370e+02  -3.511156e+01
   5.513650e+00  -2.911632e+01
   6.549509e+01   2.000534e+01
   1.697700e+01   5.488057e+01
  -1.169811e+02   7.099057e+01
  -2.273265e+02  -2.506866e+01
  -2.138292e+02  -1.345431e+02
  -2.655129e+01  -1.494744e+02
   1.655428e+02  -1.607320e+02
   1.935510e+02  -7.944052e+01
   7.198581e+01   2.412304e+01
  -5.017417e+00   6.204369e+01
  -1.623782e+01  -2.405635e+01
   5.332480e+01  -5.408327e+01
   1.220940e+02  -1.612695e+00
   1.178196e+02   7.059007e+01
   3.671900e+01   1.470732e+02
  -6.946220e+01   8.161131e+01
  -9.022612e+01  -1.534057e+01
   3.129057e+00  -1.977449e+01
   2.769334e+01   9.826083e+00
   1.640040e+01   8.592615e+01
  -6.589497e+01   9.926991e+01
  -1.448429e+02  -4.352841e+00
  -1.258491e+02  -1.287791e+02
  -2.993390e+01  -1.341157e+02
   1.214881e+02  -9.922878e+01
   1.257724e+02  -1.192285e+00
   1.843066e+01   6.795263e+01
  -1.597997e+01   3.923524e+01
  -3.401207e+01   2.520148e+01
   1.259633e+01   9.465624e+00
   1.762658e+01   2.278127e+01
  -1.523386e+01  -1.291167e+00
  -5.441374e+01   4.721362e+00
  -7.159273e+01  -5.517530e+01
  -1.526680e+01  -1.445591e+02
   1.096484e+02  -1.135285e+02
   1.643858e+02   4.742281e+00
   1.360995e+02   9.149748e+01
   4.036597e+01   1.757085e+02
  -8.356791e+01   1.254912e+02
  -9.288179e+01   3.487602e+01
  -4.856397e+01  -2.503098e+01
  -7.233288e+01  -2.727995e+01
  -8.197825e+01   1.403737e+01
  -5.328957e+01  -1.846536e+00
  -1.604544e+00  -3.136927e+01
   4.186708e+01  -9.969088e+01
   1.001489e+02  -4.187507e+01
   6.225642e+01   6.592280e+01
   8.052056e+00   8.529073e+01
  -1.217111e+02   5.224071e+01
  -1.676253e+02  -3.482958e+01
  -8.070744e+01  -1.325603e+02
   9.609239e+01  -1.573513e+02
   1.812317e+02  -7.691032e+01
   2.057749e+02   5.216342e+01
   6.285964e+01   1.189615e+02
  -3.209354e+01   9.372118e+01
  -7.413292e+01   7.745245e+01
  -7.393373e+01   5.311648e+01
  -5.527764e+01   4.668303e+01
  -4.350618e+01   5.122126e+01
  -1.151386e+02  -3.534514e+01
  -5.958500e+01  -1.121875e+02
  -2.781865e+01  -1.790647e+02
   3.937909e+01  -1.342311e+02
   7.794229e+01  -3.839341e+01
   7.858165e+01   5.420861e+01
   5.392558e+01   1.434041e+02
  -4.871853e+01   6.594598e+01
  -2.994083e+01   1.408197e+01
   1.989635e+01  -2.964562e+01
  -3.445029e+00  -3.321001e+01
   1.352588e+01  -3.504960e+01
  -5.292017e+01  -2.705399e+01
  -2.960348e+01  -1.942447e+01
   6.057769e+01  -2.171980e+01
   1.405263e+02   2.844276e+01
   1.054116e+02   5.774098e+01
  -3.027236e+01   5.376657e+01
  -9.498049e+01   5.617492e+01
  -9.454747e+01  -1.430772e+01
  -3.590627e+01  -1.154905e+01
   3.389907e+01  -3.540103e+01
   4.802789e+01   4.332516e+00
   2.226025e+01   6.725947e+01
  -2.161422e+01   4.593700e+01
  -4.548764e+01   3.002657e+00
  -3.921699e+01  -4.165473e+01
  -5.564797e+01  -7.390004e+01
  -4.726990e+01  -1.157092e+01
  -5.027042e+01  -3.013264e+01
  -2.135346e+01  -5.372972e+01
   4.038162e+01  -1.341343e+02
   9.369391e+01  -1.316015e+02
   1.729107e+02  -2.235952e+00
   9.332726e+01   1.122870e+02
  -2.727480e+01   9.588851e+01
  -4.403171e+01   5.031391e+01
  -6.204995e+01   1.902833e+01
   3.527569e+01  -1.822989e+00
   9.546692e+01   1.285192e+01
   5.588145e+01   5.944761e+01
  -3.474992e+01   6.349538e+01
  -1.531490e+02   6.833154e+01
  -1.198456e+02  -4.159683e+01
  -1.825708e+01  -8.048050e+01
   6.027846e+01  -2.912779e+01
   1.453133e+01  -6.283930e+00
  -1.936342e+01   2.742701e+01
  -5.568788e+01  -1.423977e+01
  -4.146106e+01  -6.748667e+01
   6.958279e+01  -9.646800e+01
   1.150067e+02  -6.653918e+01
   9.807510e+01   6.315386e+01
   3.717364e+01   1.434774e+02
  -5.671014e+01   1.106145e+02
  -7.262421e+01   8.735165e+00
  -7.847867e+01  -8.169942e+01
  -4.998681e+00  -8.225548e+01
   4.437107e+01  -1.934115e+01
   4.853549e+01   5.411780e+00
   1.287619e+01   2.053122e+01
   1.743026e+00   5.601483e-01
   2.603024e+01   1.320956e+01
   1.779737e+01   6.502889e+01
   1.063371e+01   4.270056e+01
  -5.459496e+01   1.747377e+01
  -1.384809e+02  -2.270928e+01
  -5.780389e+01  -4.742140e+01
  -1.855934e+01  -4.053587e+01
   6.549835e+01   5.587865e-01
   4.754653e+01  -1.952068e+01
   3.415766e+01   1.244088e+01
  -1.392541e+01   9.847841e+00
  -2.793432e+01   3.561441e+01
   9.111558e+00   1.222186e+01
  -4.611248e+01  -1.867634e+01
  -3.634576e+01  -4.272609e+00
  -7.274638e+01  -9.061420e+00
   2.089059e+00  -1.021564e+02
   7.743129e+01  -1.177832e+02
   1.387095e+02  -2.994390e+01
   1.071923e+02   1.852555e+01
   3.536619e+01   8.753991e+01
  -5.129736e+01   1.204817e+02
  -8.829618e+01   7.101172e+01
  -6.010572e+01   1.192175e+01
  -5.102701e+00   1.362053e+00
  -1.786503e+01  -1.832773e+00
  -2.143187e+01  -1.118853e+01
  -2.012283e+01  -4.135951e+01
  -1.700156e+01  -6.112778e+01
   1.147760e+01  -4.127526e+01
   5.884086e+01  -3.574561e+00
   4.705523e+01   7.693241e+01
   2.918529e+01   6.282612e+01
  -5.172208e+01   1.873206e+01
  -7.658574e+01  -3.252345e+01
  -3.529163e+01  -5.962459e+01
   2.307564e+00  -4.161926e+01
   5.641720e+01  -6.362370e+00
   3.121075e+01   1.287748e+01
  -2.219571e+01   4.431779e+01
   1.729483e+01   1.835156e+01
   1.110723e+01  -4.630599e-01
   6.203146e+01   5.312389e-01
  -3.204155e+00   1.713862e+01
  -7.137371e+01   4.674614e+01
  -8.749787e+01   4.216090e+01
  -4.703364e+01  -2.117242e+00
  -1.460467e+01  -3.278070e+01
   4.040809e+01  -7.312695e+01
   3.643851e+01  -3.372616e+01
   3.495980e+01   5.314642e+01
  -2.326675e+00   4.736189e+01
  -1.202660e+01  -1.250617e+00
  -3.082791e+01  -1.941998e+01
  -2.406399e+01  -4.654349e+01
   2.159268e+01  -4.937727e-01
   5.982941e+01   1.249483e+01
   4.380277e+01  -8.495917e+00
  -1.326306e+01  -1.703204e+01
  -4.409916e+01  -1.106199e+01
  -2.364746e+01   2.657833e+01
  -1.045999e+01   5.949076e+01
  -1.338116e+01   1.424827e+01
  -2.384157e+01  -1.738623e+01
  -3.175448e+01  -6.410068e+01
   3.811520e+01  -2.183049e+01
   4.884920e+01   6.210481e+01
   2.260229e+01   3.623339e+01
  -3.033486e+01   3.831656e+01
  -4.418570e+01  -8.296654e+00
  -3.085915e+01  -1.501514e+01
   3.413125e+01  -1.150678e+01
   3.736554e+01  -4.729146e-02
   1.116999e+01   9.656777e+00
  -3.247687e+01  -9.197946e+00
  -2.168737e+01   1.017945e+01
   1.212622e+01  -9.290288e+00
   7.534327e+01  -1.253519e+01
