
 $NMID
 id='ANONYMOUS ', fmtdat='(2E16.6)'
 volume=1.0
 tramp=1.0
 $END
  -2.316217e+03  -5.105885e+02
  -1.511905e+03  -1.515753e+03
  -1.954171e+02  -1.486470e+03
   8.899061e+02  -8.448886e+02
   5.819458e+02  -3.443016e+02
   2.554629e+02  -1.074590e+02
  -1.304588e+02   2.117183e+01
  -3.130593e+00  -3.683679e+02
   3.136457e+02  -3.718190e+02
   3.308793e+02  -4.892897e+01
   2.801449e+02   3.079026e+02
  -4.116806e+01   4.594547e+02
  -2.017119e+02   1.095016e+02
  -1.166987e+02  -2.725830e+02
   6.867939e+01  -3.801032e+02
   2.407056e+02  -6.466985e+01
   2.077577e+02   3.328520e+02
  -7.174467e+01   4.275436e+02
  -3.242362e+02   1.970207e+02
  -2.929492e+02  -8.290564e+01
  -7.175709e+01  -2.216590e+02
   4.400356e+01  -1.449240e+02
  -1.436198e+01  -1.135732e+02
  -1.619825e+02  -1.150945e+02
  -1.473610e+02  -2.804334e+02
   9.363110e+01  -2.088576e+02
   4.035415e+02  -1.130902e+01
   3.826973e+02   1.937370e+02
   9.006929e+01   2.169424e+02
  -2.362890e+02   2.474480e+01
  -3.229024e+02  -9.219371e+01
  -1.103360e+02  -1.992329e+02
   1.806409e+02  -2.200215e+02
   2.698592e+02  -4.575284e+01
   2.000121e+02   1.116833e+02
   2.675888e+01   1.321211e+02
  -1.802337e+01   9.197163e+01
   7.137578e+01  -3.255113e+01
   1.177838e+02  -4.168352e+01
   9.646938e+01   1.063438e+02
  -4.635380e+01   3.335459e+02
  -1.261123e+02   2.201624e+02
  -1.270188e+02  -2.487762e+01
  -1.015662e+02  -6.621971e+01
   5.414418e+01  -5.324401e+01
   6.576743e+01   1.898457e+02
  -1.280442e+02   2.160635e+02
  -2.753107e+02   4.317636e+01
  -3.205194e+02  -2.943049e+02
  -1.261017e+02  -3.244262e+02
   1.882095e+02  -2.059656e+02
   3.881087e+02   2.557935e+01
   2.327106e+02   1.490605e+02
  -8.472523e+00   1.401584e+02
  -2.424091e+02   7.432235e+01
  -1.922474e+02   7.068465e+00
  -5.901733e+01   2.244944e-01
   1.584774e+01   2.220596e+01
  -4.813892e+01  -1.141767e+01
  -1.492226e+02  -3.483940e+01
  -5.597791e+01  -1.408833e+02
   1.227861e+02  -2.014497e+02
   2.721122e+02  -1.028820e+02
   2.084610e+02   9.229270e+01
  -4.682410e+00   2.623899e+02
  -2.426124e+02   2.291644e+02
  -2.870467e+02   1.300962e+02
  -1.777595e+02  -1.179000e+02
  -4.259872e+00  -2.339691e+02
   4.060899e+01  -2.538856e+02
   3.954169e+01  -1.470917e+02
   4.210864e+01  -1.126974e+02
   1.225014e+02  -6.223455e+01
   1.763048e+02   1.091055e+00
   1.639119e+02   1.202922e+02
   1.810692e+01   1.936248e+02
  -8.097081e+01   1.351124e+02
  -1.297545e+02  -5.937592e+01
  -5.263451e+01  -1.976614e+02
   7.558918e+01  -1.761479e+02
   1.858229e+02  -1.257769e+01
   2.200248e+02   9.801037e+01
   1.611176e+02   2.063940e+02
  -4.451161e+01   1.645074e+02
  -1.142366e+02   1.155940e+02
  -1.046078e+02   5.226598e+01
  -1.341718e+02   2.318456e+01
  -2.256015e+02  -2.465588e+00
  -2.734560e+02  -9.166588e+01
  -1.752164e+02  -2.223688e+02
   2.672643e+01  -3.213605e+02
   3.114459e+02  -2.457559e+02
   3.418240e+02  -1.140629e+02
   1.675375e+02   9.465539e+01
  -7.601550e+00   1.448792e+02
  -1.208328e+01   1.450947e+02
   1.186027e+01   4.460311e+01
   3.831781e+01   9.755639e+00
   4.862180e+01   6.467557e+01
   1.129903e+01   6.051769e+01
  -6.631343e+01   5.764436e+01
  -1.487282e+01  -4.683098e+01
   2.697390e+01  -7.528264e+01
   1.214418e+02   2.614006e+01
   8.998830e+01   1.641877e+02
  -4.591105e+01   2.090594e+02
  -1.692499e+02   1.474135e+02
  -2.567274e+02  -5.462934e+01
  -1.785639e+02  -2.084914e+02
  -4.066567e+01  -2.228306e+02
   1.105525e+02  -1.158903e+02
   9.229444e+01  -3.967966e+00
   5.345153e+01   5.876204e+00
  -2.418829e+01  -5.590826e+01
   2.035510e+00  -1.002290e+02
   9.867573e+01  -3.918527e+01
   8.033846e+01  -9.865744e+00
  -5.057915e+00   1.967629e+01
  -6.770591e+01  -2.898846e+01
  -8.519433e+00  -6.083481e+01
   1.418609e+02  -2.990094e+01
   2.166804e+02   5.437582e+01
   1.444859e+02   1.502371e+02
   2.866319e-01   1.807309e+02
  -1.472038e+02   2.048259e+02
  -1.985981e+02   7.146469e+01
  -8.673873e+01  -4.020128e+01
   2.129778e+01  -5.697130e+01
   4.494825e+01  -3.428917e+01
  -3.944389e+01   5.484546e+01
  -1.145928e+02   1.991998e-01
  -9.045944e+01  -8.712872e+01
  -4.764437e+01  -8.497919e+01
   8.452702e+01  -1.249060e+02
   7.066701e+01   1.000950e+01
   9.328134e+00   4.373490e+01
  -3.581065e+01  -2.047230e+01
   1.061940e+01  -9.880211e+01
   7.922395e+01  -7.647480e+01
   1.471740e+02   1.744440e+01
   1.214008e+02   1.096138e+02
  -2.922761e+00   1.603481e+02
  -1.222138e+02   8.277735e+01
  -1.168556e+02  -7.422165e+00
  -1.370383e+00  -4.851877e+01
   2.907954e+01  -3.105913e+01
   4.487863e+01  -2.993148e+01
  -1.788753e+01  -9.288154e+00
  -1.709035e+01  -2.103527e+01
   2.395498e+01  -3.346908e+01
   8.243159e+01   3.971767e+01
   9.962616e+01   7.533506e+01
  -1.142137e+01   1.801951e+02
  -1.287520e+02   1.251203e+02
  -1.468863e+02  -1.154146e+01
  -1.222521e+02  -1.044757e+02
   2.058050e+01  -1.591755e+02
   7.067109e+01  -1.283002e+02
   5.962720e+01   5.221582e+00
   5.728338e+01   1.972359e+01
   5.378254e+01   2.089600e+01
   3.113205e+01   2.316205e+00
   4.691640e+01  -2.678906e+00
   2.626001e+01   4.263934e+01
  -3.884015e+01   4.808681e+01
  -1.104207e+02   2.902330e+01
  -6.019128e+01  -4.752347e+01
   4.860164e+01  -8.977150e+01
   1.296984e+02  -5.314750e+01
   1.401176e+02   7.493198e+01
   6.162872e+01   1.618711e+02
  -9.737646e+01   1.307878e+02
  -1.965505e+02   2.630131e+01
  -1.691646e+02  -7.623810e+01
  -8.370504e+01  -9.554095e+01
   5.276566e+01  -9.267464e+01
   7.669629e+01  -6.030602e+01
   6.149728e+01  -5.486395e+01
   7.720608e+01  -8.375209e+01
   4.828754e+01  -5.376697e+01
   1.050502e+02   2.739400e+01
   7.819888e+01   1.310530e+02
   1.143344e+01   1.717725e+02
  -5.390404e+01   8.957816e+01
  -1.417008e+02  -9.708278e+00
  -1.014623e+02  -1.207032e+02
   8.025699e+00  -1.042553e+02
   5.462069e+01  -5.299432e+01
   4.997743e+01   2.453806e+01
   2.303374e+01   1.419557e+01
  -7.289632e+01   1.812944e+01
   1.653738e+01   9.178487e+00
   6.728280e+01   6.724358e+00
   2.983436e+01   2.492813e+00
  -6.380916e+01   1.932241e+01
  -1.402557e+02   1.217931e+00
  -7.733927e+01  -5.579944e+01
  -1.689891e+01  -3.266093e+01
   8.287419e+01  -3.656187e+01
   1.037533e+02  -3.914331e+01
   2.834695e+01   3.422121e+01
  -4.546937e+01   3.989377e+01
  -2.914047e+01   3.473644e+00
  -3.649537e+01  -4.340306e+01
   6.740728e+00  -6.389016e+01
   5.363693e+01  -1.734328e+01
   4.913258e+01   3.230542e+01
   5.200060e+01   2.678943e+01
   1.738536e+01   1.438021e+01
   1.353804e+01  -1.491761e+01
   2.356318e+01   6.410672e+01
  -1.862862e+01   1.192958e+02
  -9.372008e+01   8.900895e+01
  -1.327584e+02   8.006883e+00
  -5.885301e+01  -8.489579e+01
   1.033326e+01  -7.926748e+01
   7.375589e+01  -5.177834e+01
   5.233753e+01  -1.229079e+01
  -4.793204e+01   1.980224e+00
  -1.062338e+02  -4.285891e+01
  -1.890845e+01  -8.670463e+01
   4.123360e+01  -7.028946e+01
   1.454631e+02  -3.409211e+00
   1.038138e+02   3.358965e+01
   2.422828e+01   5.452421e+01
  -3.240190e+01   6.043277e+01
  -4.534405e+01  -9.949458e+00
   5.102081e+00  -1.463290e+01
   7.940717e+01  -1.005270e+01
   4.986590e+01   5.738347e+01
  -8.417638e+01   1.372111e+02
  -7.675314e+01   6.392983e+01
  -1.080843e+02  -5.759445e+01
  -1.696464e+01  -1.378021e+02
   5.385109e+01  -1.191875e+02
   9.395930e+01  -1.869291e+00
   1.472794e+01   6.982511e+01
  -5.579673e+00   5.313814e+01
  -3.068981e+01   3.331527e+01
  -1.834174e+01  -2.288660e+01
  -1.230367e+01  -2.165932e+01
  -2.082805e+01  -3.326971e+01
  -2.337030e+01  -5.345328e+01
  -1.171464e+01  -6.946528e+01
  -3.941316e+00  -1.085537e+02
   3.741303e+01  -5.657694e+00
   8.569546e+01   3.994092e+01
   6.624423e+01   5.233174e+01
   1.947486e+00   5.952274e+01
  -6.175861e+01  -2.884910e+00
  -3.183398e+01   2.664323e+01
  -4.304558e+01  -1.359988e+01
   2.662336e+01  -2.945076e+01
   3.196198e+01  -4.390870e+00
   9.491752e+00   4.603073e+00
   1.542159e+01   1.691675e+01
   4.780874e+01  -3.394545e+01
   8.613292e+01   9.332038e+00
   2.204460e+01   7.653574e+01
  -9.058974e+01   8.312182e+01
  -1.446728e+02   5.793818e+01
  -1.246784e+02  -5.572423e+01
  -2.983591e+01  -1.261759e+02
   6.578986e+01  -1.250562e+02
   8.596022e+01  -4.842916e+01
   5.561329e+01  -9.482512e+00
   2.660805e+01   3.938655e+01
   3.509964e+00   7.164772e+00
   1.541497e+01  -4.289885e+00
   2.221249e+01   2.604110e+01
   1.243087e+01   6.962547e+01
  -1.336720e-01   3.095053e+01
  -4.527465e+01   5.641273e+00
  -3.194386e+01  -8.433699e+01
  -1.312141e+01  -1.018197e+02
   7.154117e+01  -2.435355e+01
   5.909248e+01   6.615497e+01
   3.575341e+01   8.080598e+01
  -5.782519e+01   5.622075e+01
  -4.343090e+01  -1.455266e+00
  -1.867035e+01  -3.625249e+01
   4.040960e+01  -5.025267e+01
   4.476764e+01  -2.646582e+01
  -2.919837e+01  -2.792760e+01
  -2.436042e+01  -1.200516e+01
  -3.991762e+00  -2.348483e+01
   6.253953e+01  -6.287248e+01
   1.007608e+02  -5.893996e+01
   2.778365e+01   2.782904e+01
  -1.118895e+01   9.406347e+01
  -4.061266e+01   7.159010e+01
  -2.516334e+01   4.965237e+00
  -7.437784e+00  -4.743826e+01
   3.616382e+01  -7.160902e+01
   3.782332e+01   3.268060e+01
   1.195461e+01   1.679043e+01
   3.533087e+00   4.277335e+01
  -2.981419e+01  -1.808774e+01
  -4.386947e+01  -1.829089e+01
  -8.741744e+00   1.312539e+01
  -1.461112e+00   3.800358e+01
  -4.354327e+00   3.418124e+00
   3.383430e+00  -6.184745e+01
   1.327200e+01  -1.777667e+01
   2.031924e+01  -2.594895e+01
   6.547029e+01   2.050313e+01
   3.354006e+01   3.395539e+01
  -4.142779e+01   2.638176e+01
  -3.952912e+01  -3.326510e+01
   9.526072e+00  -1.882142e+01
   3.858925e+01  -2.103057e+01
   4.755401e+01   9.778275e+00
   2.088799e+01   2.339541e+01
  -1.274411e+01   1.431653e+01
  -3.925639e+01   4.123214e+00
  -2.348959e+01   1.887564e+01
   6.959865e+00   8.201109e+00
   2.864216e+01   1.489458e+01
  -3.027240e+01   2.931649e+01
  -3.330660e+01   6.024522e+00
