
 $NMID
 id='ANONYMOUS ', fmtdat='(2E16.6)'
 volume=1.0
 tramp=1.0
 $END
   2.542001e+03   4.223917e+02
   1.574021e+03   1.338482e+03
   1.096983e+02   1.680985e+03
  -9.246882e+02   9.882628e+02
  -6.946970e+02   4.183161e+02
  -2.618679e+02   5.725464e+01
   1.037963e+02   5.383872e+01
  -8.481643e+00   3.592099e+02
  -3.104634e+02   3.945482e+02
  -2.859031e+02   7.651445e+01
  -2.476441e+02  -3.048507e+02
   3.307725e+00  -3.725539e+02
   1.597948e+02  -9.889967e+01
   1.368425e+02   2.790488e+02
  -5.337065e+01   3.735337e+02
  -2.294827e+02   7.322742e+01
  -1.863925e+02  -3.558205e+02
   8.384603e+01  -4.650193e+02
   4.097469e+02  -2.459299e+02
   3.435326e+02   1.339914e+02
   1.010897e+02   2.461888e+02
  -3.239378e+01   1.832044e+02
   4.002140e+01   1.214274e+02
   8.852925e+01   1.714297e+02
   1.003826e+02   2.804448e+02
  -8.071234e+01   2.086360e+02
  -3.899165e+02   5.046800e+01
  -3.316345e+02  -1.988388e+02
  -7.087574e+01  -2.268474e+02
   2.175510e+02  -4.621034e+01
   3.520581e+02   1.383451e+02
   6.509690e+01   1.851915e+02
  -2.028437e+02   2.283978e+02
  -2.064159e+02   6.728657e+01
  -2.277797e+02  -1.244275e+02
  -6.179298e+01  -1.587232e+02
  -9.125368e+00  -9.633466e+01
  -8.500124e+01   5.425506e+00
  -1.368507e+02   3.868071e+01
  -4.853320e+01  -1.149521e+02
   1.425646e+01  -3.430846e+02
   1.928471e+02  -2.476401e+02
   1.402553e+02  -1.607224e+01
   9.235207e+01   1.419974e+02
  -4.865515e+01   3.778334e+01
  -7.523451e+01  -1.837335e+02
   1.286748e+02  -2.323635e+02
   3.114822e+02  -2.743454e+01
   2.957796e+02   2.730794e+02
   1.139586e+02   3.337364e+02
  -2.173172e+02   2.053917e+02
  -3.587562e+02  -3.436208e+01
  -2.723290e+02  -1.873684e+02
   1.678641e+00  -1.269454e+02
   2.181790e+02  -7.160537e+01
   1.547990e+02  -1.935666e+01
   6.878994e+01  -1.840658e+01
  -2.923899e+01  -9.882840e+00
   6.770931e+01   2.024158e+01
   1.428935e+02   7.758751e+01
   6.651668e+01   1.599879e+02
  -1.666690e+02   1.669552e+02
  -2.751599e+02   9.375762e+01
  -2.307735e+02  -7.948550e+01
   3.449116e+01  -2.720398e+02
   2.453055e+02  -2.736508e+02
   3.167637e+02  -9.592778e+01
   1.778640e+02   1.832409e+02
  -1.936064e+00   2.845116e+02
  -5.210338e+01   2.720783e+02
   4.772927e+00   1.726016e+02
  -3.210845e+01   1.249099e+02
  -1.678889e+02   5.947138e+01
  -2.052424e+02  -2.373170e+01
  -1.282984e+02  -1.436913e+02
  -3.120290e+01  -2.077886e+02
   8.792194e+01  -1.263195e+02
   1.352199e+02   7.038708e+01
   8.174536e+01   1.937640e+02
  -5.715603e+01   1.892980e+02
  -1.513933e+02   1.027308e+01
  -2.160435e+02  -1.357038e+02
  -1.351526e+02  -2.287663e+02
   3.644279e+01  -1.915791e+02
   1.612709e+02  -1.216424e+02
   1.192480e+02  -7.734628e+01
   1.525958e+02  -1.189218e+01
   1.764670e+02   1.158940e+01
   2.718254e+02   1.128388e+02
   2.159701e+02   2.650312e+02
  -4.575961e+01   3.097954e+02
  -2.934765e+02   2.344904e+02
  -3.515622e+02   8.650553e+01
  -2.274235e+02  -7.931755e+01
   1.334223e+00  -1.555532e+02
   4.805789e+01  -1.475137e+02
  -2.996157e+00  -1.475478e+01
  -6.826649e+01   2.125713e+01
  -6.093342e+01  -4.948545e+01
   2.737249e+01  -9.068779e+01
   6.824353e+01  -3.779790e+01
   5.852983e+01   3.708511e+01
  -3.838041e+00   6.785744e+01
  -9.757885e+01  -2.532443e+01
  -9.981063e+01  -1.773409e+02
   2.570684e+01  -2.098263e+02
   1.925924e+02  -1.266398e+02
   2.906130e+02   6.417593e+01
   1.729354e+02   2.271917e+02
   5.306070e+01   1.977713e+02
  -8.766643e+01   1.009059e+02
  -9.420519e+01   8.808349e+00
   4.201506e+00  -6.456954e+00
   5.712622e+00   5.713741e+01
  -9.186800e+00   1.200397e+02
  -9.083515e+01   3.941677e+01
  -6.602847e+01   2.296397e+01
   5.671342e+00  -3.485606e+01
   4.647358e+01   2.180142e+01
   3.107619e+01   4.870619e+01
  -1.540617e+02   1.620664e+01
  -2.115465e+02  -8.475562e+01
  -1.669766e+02  -1.413746e+02
   2.664832e+01  -1.706889e+02
   1.395496e+02  -1.864337e+02
   1.917622e+02  -5.846477e+01
   1.011012e+02   1.596767e+01
   1.260376e+01   3.102732e+01
  -1.276919e+01  -9.226643e+00
   3.695150e+01  -3.483941e+01
   1.217853e+02   3.524867e+01
   7.906702e+01   9.938623e+01
  -4.030391e+00   9.786465e+01
  -8.571253e+01   1.209127e+02
  -9.880573e+01   8.609257e+00
  -2.469527e+01  -4.148038e+01
   3.167064e+01   4.338075e+01
   8.616196e+00   8.213644e+01
  -7.219983e+01   6.682267e+01
  -1.707146e+02  -1.661674e+00
  -1.466650e+02  -1.494704e+02
  -9.351936e-01  -1.559606e+02
   1.089381e+02  -1.080851e+02
   1.173627e+02   1.313018e+01
   3.139564e+01   6.347144e+01
  -2.853132e+01   5.185841e+01
  -2.647345e+01   2.955316e+00
   4.524688e+01  -2.759339e+00
   1.481931e+01   4.235975e+00
  -2.962121e+01   3.495663e+01
  -6.853731e+01  -6.566109e+00
  -7.611734e+01  -9.108236e+01
   1.510749e+01  -1.477604e+02
   1.209709e+02  -8.791393e+01
   1.647552e+02   2.143599e+01
   1.365080e+02   1.584207e+02
   2.553953e+01   1.800298e+02
  -7.068878e+01   1.028523e+02
  -1.152953e+02   2.587919e+01
  -7.879537e+01  -3.172573e+01
  -1.915959e+01  -3.089854e+01
  -3.385704e+01   2.756711e+00
  -7.066769e+01  -2.428159e+01
  -4.581500e+01  -8.751402e+00
   3.187048e+01  -7.033573e+01
   1.284136e+02  -5.228198e+01
   8.775231e+01   4.584797e+01
  -8.499200e+00   8.586497e+01
  -1.336464e+02   5.675199e+01
  -1.548693e+02  -8.831302e+01
  -7.216391e+01  -1.632111e+02
   1.263955e+02  -1.511308e+02
   2.177554e+02  -5.129419e+00
   1.908419e+02   7.772032e+01
   5.672226e+01   1.038374e+02
  -4.713937e+01   1.193732e+02
  -8.210800e+01   6.508217e+01
  -6.916772e+01   8.019585e+01
  -7.092452e+01   9.726126e+01
  -6.355935e+01   6.144125e+01
  -1.133848e+02  -9.178055e+00
  -7.486679e+01  -1.414319e+02
  -9.041697e+00  -1.856169e+02
   7.832776e+01  -9.184098e+01
   1.310442e+02   1.124169e+01
   1.135219e+02   9.203348e+01
   3.112731e+00   1.064817e+02
  -6.718501e+01   4.750918e+01
  -4.649131e+01  -9.433343e+00
  -2.452348e+01  -4.656241e+01
   5.277034e+01  -5.022419e+01
  -5.324179e+01  -2.219602e+01
  -8.005617e+01  -5.176813e+01
  -3.258128e+01  -1.709300e+01
   7.429316e+01  -1.749246e+01
   1.469924e+02   3.688725e+01
   1.080773e+02   7.768776e+01
  -3.236442e+00   7.285116e+01
  -1.056645e+02   4.788603e+01
  -1.051581e+02   1.456016e+01
  -3.222856e+01  -4.161309e+01
   5.637571e+01  -2.089685e+01
   5.546921e+01   8.361495e+00
   2.921373e+01   3.976044e+01
  -9.472665e+00   7.056134e+01
  -6.603419e+01   1.650559e+01
  -7.147884e+01  -4.511958e+01
  -3.541705e+01  -4.423535e+01
  -3.473422e+01  -1.907955e+00
  -6.647556e+01   9.753415e+00
  -4.188343e+01  -6.359192e+01
   2.760127e+01  -1.366495e+02
   1.198145e+02  -7.088016e+01
   1.650454e+02   5.450762e+00
   1.058028e+02   7.058973e+01
   1.642136e+01   1.259404e+02
  -5.888661e+01   3.825436e+01
  -6.535990e+01  -1.942214e+01
   3.977204e+01  -1.869267e+01
   9.774928e+01   2.791047e+01
   7.973933e+01   9.075003e+01
  -8.987111e+01   6.613885e+01
  -1.667145e+02   3.720122e+01
  -1.449798e+02  -4.428870e+01
  -1.994801e+01  -4.595043e+01
   5.502431e+01  -9.238904e+01
   4.834337e+01  -1.286501e+00
   1.372602e+00  -1.670686e+01
  -4.489081e+01  -9.313007e-01
  -2.576617e+01  -6.104558e+01
   3.981854e+01  -1.374440e+02
   1.284079e+02  -6.801322e+01
   9.340373e+01   1.008216e+02
   1.887656e+01   1.529675e+02
  -4.856461e+01   9.532561e+01
  -5.925544e+01  -1.678494e+01
  -5.022192e+00  -8.998247e+01
   3.975708e+01  -6.219126e+01
   2.196344e+01  -3.467761e+01
   5.418625e+01   4.170433e+01
   9.478690e+00  -8.229868e+00
  -3.466290e+00   3.069554e+01
   2.679870e+01   3.001718e+01
   2.697094e+01   8.726615e+01
   7.562531e+00   7.217522e+01
  -6.542488e+01   2.533310e+01
  -8.402629e+01  -2.398824e+01
  -8.741147e+01  -6.643662e+01
  -2.222335e+01  -3.971739e+01
   6.022989e+01   6.583798e+00
   7.029510e+01  -1.989097e+01
   4.457213e+01  -1.558826e+01
  -4.575448e+01  -1.533587e+01
  -1.268239e+01   1.621948e+01
  -1.213370e+01   1.423260e+01
  -3.445680e+01  -1.557834e+01
  -1.272615e+01   2.052867e+01
  -7.326676e+01  -1.767088e+00
   1.991938e+00  -8.539029e+01
   7.528598e+01  -8.830688e+01
   1.564144e+02  -3.411419e+01
   1.138071e+02   3.439821e+01
   2.340528e+01   1.346302e+02
  -7.696355e+01   1.298587e+02
  -8.217258e+01   5.425410e+01
  -6.604370e+01   7.137395e+00
  -3.278535e+01  -5.393708e+01
  -2.151416e+01  -3.111615e+01
  -2.089422e+00  -3.542569e+01
   8.656137e+00  -6.027237e+01
  -1.507747e+01  -7.018675e+01
   1.065577e+01  -4.657203e+01
   6.050168e+01   3.422569e+01
   5.692268e+01   7.363731e+01
   1.352855e+01   8.063071e+01
  -5.905018e+01   7.603533e+00
  -7.303023e+01  -4.634951e+01
  -3.440144e+01  -7.119991e+01
   4.815988e+01  -5.155596e+01
   6.254627e+01   4.861811e-01
   3.505378e+01   4.021155e+01
  -2.012974e+01   5.330643e+01
  -1.501861e+01   4.636681e+01
  -7.402045e+00   1.216268e+01
   3.767029e+01  -2.912768e+00
   1.518398e+01   2.225391e+01
  -6.010701e+01   1.094626e+01
  -7.166940e+01   5.049940e+01
  -4.491722e+01  -3.025704e+01
  -1.215672e+01  -6.141136e+01
   4.484315e+01  -7.116578e+01
   3.028726e+01   1.206345e+01
  -3.213615e+00   1.153174e+01
  -1.557215e+01   2.676192e+01
  -4.162321e+01  -2.271966e+01
  -9.461294e-01  -3.602425e+01
   9.233169e+00  -1.734014e+01
   2.199412e+01   1.407037e+01
   2.766642e+01   4.426948e+01
   1.015058e+01  -1.248644e+01
   2.070693e+01   9.931174e+00
  -1.240405e+01   7.284911e+00
  -1.573378e+01   6.715426e+01
   5.891444e+00   2.973394e+01
  -2.515441e+01   1.272790e+01
  -3.478391e+01  -3.630186e+01
  -2.549173e+01  -4.945368e+01
   2.580597e+01   1.636666e+01
   3.277893e+01   3.098472e+01
   1.889887e+01  -1.538898e+00
  -6.147464e+01  -1.916453e+01
  -9.380260e+01  -2.805296e+01
  -2.342927e+01  -2.076953e+01
   1.891765e+01  -2.281897e+01
   6.328456e+01  -1.955028e+01
   9.104953e+00  -1.517664e+01
   2.846895e+00   2.179224e+01
  -2.274798e+01  -4.565504e+00
   1.834464e+01  -2.154752e+01
   4.179680e+01  -4.381716e+01
