
 $NMID
 id='ANONYMOUS ', fmtdat='(2E16.6)'
 volume=1.0
 tramp=1.0
 $END
   2.412920e+03  -4.629481e+02
   1.790401e+03   1.019644e+03
   2.527734e+02   1.324160e+03
  -7.817565e+02   1.147717e+03
  -7.026070e+02   3.005434e+02
  -8.825623e+01  -2.038475e+02
   2.459282e+02   1.341485e+01
   9.591121e+01   3.168996e+02
  -2.565525e+02   4.341333e+02
  -4.320958e+02   9.028002e+01
  -3.882729e+02  -3.823185e+02
  -5.634699e+01  -4.794499e+02
   1.720796e+02  -1.505180e+02
   2.539625e+02   2.520572e+02
  -4.406209e+01   3.523037e+02
  -2.640592e+02   1.221314e+02
  -2.855926e+02  -3.076569e+02
   2.723664e+01  -5.691214e+02
   3.556860e+02  -2.913285e+02
   4.280185e+02   8.121098e+01
   1.156590e+02   2.792302e+02
  -1.216139e+02   1.839274e+02
  -6.409017e+01   5.906293e+01
   1.498493e+02   1.289256e+02
   1.964364e+02   2.533305e+02
  -4.864589e+01   2.705651e+02
  -3.126948e+02   1.275390e+02
  -3.248243e+02  -8.753478e+01
  -1.408119e+02  -2.576879e+02
   1.853925e+02  -1.385701e+02
   3.211865e+02   7.453634e+01
   9.615747e+01   2.428420e+02
  -1.625722e+02   2.577013e+02
  -3.274893e+02   9.696523e+01
  -2.569986e+02  -1.021012e+02
  -8.779621e+01  -1.813203e+02
   1.700254e+01  -4.424059e+01
  -9.343335e+01   2.634578e+00
  -2.110361e+02   6.510358e+01
  -1.196089e+02  -1.695500e+02
   2.745726e+01  -3.338176e+02
   1.223330e+02  -1.786533e+02
   1.994173e+02  -2.407740e+01
   4.567197e+01   1.635291e+02
  -8.116852e+01   1.078972e+02
  -4.643074e+01  -1.741255e+02
   8.347940e+01  -2.852950e+02
   3.233200e+02  -6.940862e+00
   3.406611e+02   2.476779e+02
   1.472662e+02   3.602648e+02
  -2.014108e+02   2.382524e+02
  -3.425602e+02  -7.117851e+01
  -2.414982e+02  -1.831892e+02
   7.492854e+00  -1.517030e+02
   1.568925e+02  -7.640156e+01
   1.346219e+02  -6.126458e+01
   7.789686e+01   1.764966e+01
  -3.463075e+01   1.322620e+01
   8.010296e+01  -1.723231e+01
   1.452772e+02   3.148380e+01
   1.217649e+02   1.218578e+02
  -1.360019e+02   2.158721e+02
  -2.783896e+02   1.481996e+02
  -2.207067e+02  -1.021410e+02
   2.830748e+01  -2.951930e+02
   2.407452e+02  -2.449159e+02
   2.954292e+02  -1.052431e+02
   1.743646e+02   1.255154e+02
   3.081421e+01   2.375882e+02
   6.133585e+01   2.313449e+02
   4.420751e+00   1.446534e+02
  -5.387461e+01   9.685270e+01
  -1.639991e+02   1.027006e+02
  -1.749757e+02   1.495913e+01
  -1.575473e+02  -1.282044e+02
  -3.046206e+01  -2.388728e+02
   9.590050e+01  -1.471718e+02
   1.296027e+02   4.849019e+01
   6.414529e+01   1.903302e+02
  -2.847867e+01   2.069856e+02
  -1.837635e+02   5.477460e+01
  -2.237792e+02  -1.115503e+02
  -1.171390e+02  -2.040278e+02
  -3.510027e+00  -1.455981e+02
   9.099002e+01  -1.476080e+02
   1.093726e+02  -1.253195e+02
   1.202124e+02  -1.166449e+02
   2.598771e+02  -7.229271e+01
   3.455663e+02   9.294043e+01
   2.351956e+02   2.647948e+02
  -4.871140e+01   3.726419e+02
  -3.407105e+02   2.948326e+02
  -4.060084e+02   1.367545e+02
  -2.145980e+02  -1.045648e+02
   7.446845e+00  -1.923545e+02
   9.030063e+01  -1.204612e+02
   2.147797e+01  -2.421147e+01
  -8.029538e+01   2.135550e+01
  -6.982789e+01  -3.882121e+01
  -4.430133e+00  -1.101178e+02
   4.275526e+01  -5.871218e+01
   3.358334e+01   2.054493e+01
  -5.437044e+01   9.049856e+01
  -1.218359e+02  -1.627494e+01
  -8.954537e+01  -1.581289e+02
   4.949062e+01  -2.180701e+02
   2.021454e+02  -1.667263e+02
   2.839208e+02   6.459549e+01
   1.987051e+02   2.196555e+02
   9.014668e+00   2.060667e+02
  -9.855217e+01   8.760088e+01
  -8.332161e+01  -2.534909e+01
  -2.921063e+01   1.068375e+01
   2.639080e+01   8.035735e+01
   6.530321e+00   8.641386e+01
  -9.092073e+01   3.808497e+01
  -8.458544e+01  -4.032633e+01
   1.238428e+01  -2.708575e+01
   7.942712e+01   4.778896e+00
   3.882785e+01   8.275655e+01
  -1.223618e+02   1.041219e+02
  -2.317859e+02  -2.399264e+01
  -1.845134e+02  -1.363423e+02
  -2.466846e+01  -2.430243e+02
   1.651549e+02  -1.559466e+02
   1.664331e+02  -5.433481e+01
   9.161771e+01   4.762835e+01
  -4.119266e+01   7.175705e+01
  -3.952170e+01  -1.978250e+01
   5.288058e+01  -7.714735e+01
   1.673324e+02  -3.995741e+01
   1.230532e+02   5.142627e+01
   3.755642e+01   1.324487e+02
  -4.173314e+01   1.026941e+02
  -5.772880e+01   5.415449e+00
  -2.889991e+01  -3.786632e+01
   3.765219e+01   8.821172e+00
   4.294119e+01   1.162804e+02
  -4.981054e+01   8.759625e+01
  -1.724724e+02   1.408447e+01
  -1.263593e+02  -1.193863e+02
  -3.831704e+01  -1.601949e+02
   1.233469e+02  -1.069789e+02
   1.208078e+02  -5.417095e-01
   3.924994e+01   3.806681e+01
  -1.984821e+01   5.989215e+01
  -2.984846e+01   3.930590e+01
  -1.477708e+01  -2.570267e+01
   2.830904e+01  -2.252298e+01
   4.169731e+00   1.558591e+01
  -7.889827e+01   2.270547e+00
  -7.611509e+01  -6.471290e+01
  -3.357665e+01  -1.190663e+02
   1.106400e+02  -1.134172e+02
   1.386832e+02  -6.457654e+00
   1.077472e+02   1.098965e+02
   3.677813e+01   1.434246e+02
  -6.470781e+01   9.330443e+01
  -8.052307e+01   3.818045e+01
  -6.672644e+01  -3.227858e+01
  -3.300773e+01  -5.328481e+01
  -4.054179e+01  -8.481259e-01
  -7.849835e+01   2.285962e+01
  -1.330013e+01  -6.682976e+01
   3.512918e+01  -1.177882e+02
   9.301632e+01  -6.097072e+01
   1.026742e+02   4.481786e+01
  -2.679357e+01   9.868240e+01
  -1.547374e+02   4.532125e+01
  -1.656398e+02  -5.644791e+01
  -7.224787e+01  -1.482054e+02
   8.876479e+01  -1.741076e+02
   2.183883e+02  -3.673544e+01
   1.363493e+02   8.715407e+01
   5.495571e+01   1.047007e+02
  -1.784501e+01   1.040688e+02
  -3.554338e+01   6.129261e+01
  -6.949369e+01   4.639938e+01
  -3.235531e+01   6.476090e+01
  -9.434082e+01   9.572681e+01
  -8.458567e+01  -1.321547e+01
  -8.700577e+01  -1.399278e+02
  -2.925360e+01  -1.712783e+02
   7.095319e+01  -1.421780e+02
   1.296745e+02  -3.557300e+00
   1.183445e+02   1.142608e+02
   2.800777e+01   1.378153e+02
  -6.691513e+01   4.411095e+01
  -3.203784e+01  -2.557546e+01
   1.180717e+01  -4.272503e+01
   2.608275e+01  -4.894370e+00
  -1.622599e+01  -8.966323e+00
  -6.489350e+01  -5.991212e+00
  -6.110103e+01  -4.665460e+01
   7.738166e+01  -4.512041e+01
   1.531462e+02   2.176589e+01
   1.060724e+02   7.241606e+01
  -9.731598e+00   7.075547e+01
  -8.236875e+01   4.365864e+01
  -9.016845e+01  -1.421827e+01
  -4.765957e+01  -8.555761e+01
   3.365220e+01  -5.579672e+01
   7.462024e+01   2.473788e+01
  -6.453221e+00   5.506724e+01
  -6.669661e+01   7.585157e+01
  -7.681946e+01   1.484597e+01
  -6.763067e+01  -6.252756e+01
  -1.904663e+01  -2.742471e+01
  -4.828836e+01  -7.255227e+00
  -5.741998e+01  -8.409890e+00
  -4.582832e+01  -5.600167e+01
   4.673100e+01  -1.338403e+02
   9.123667e+01  -1.356631e+02
   1.340695e+02  -4.129988e+01
   1.012390e+02   5.402702e+01
  -4.471719e+00   1.193392e+02
  -9.083900e+01   4.429496e+01
  -5.635912e+01  -3.781058e+01
   2.835550e+01   2.179920e+00
   9.443171e+01   2.217838e+01
   6.627572e+01   6.784615e+01
  -6.154720e+01   9.963823e+01
  -1.453260e+02   3.454106e+01
  -1.289952e+02  -2.685370e+01
  -3.333634e+01  -5.618407e+01
   5.802531e+01  -4.740959e+01
   4.815453e+01   1.293600e+01
  -3.302332e+01   2.039628e+01
  -7.330738e+01  -7.178475e+00
  -2.304997e+01  -9.841358e+01
   6.669660e+01  -1.010485e+02
   1.298791e+02  -7.905883e+01
   1.292763e+02   5.950593e+01
   1.200767e+01   1.405075e+02
  -6.842655e+01   1.167115e+02
  -8.556575e+01  -1.368652e+01
  -5.775862e+01  -7.355998e+01
  -8.033512e+00  -9.880405e+01
   4.906395e+01  -3.338352e+01
   4.380756e+01   3.168932e+01
   1.698874e+01   1.245897e+01
   4.240315e+00  -2.452208e+01
   2.256208e+01  -1.185480e+01
   7.587124e+01   7.274203e+01
   1.449734e+00   9.066181e+01
  -5.737687e+01   4.304526e+01
  -9.557765e+01  -1.255177e+01
  -8.658538e+01  -8.224376e+01
  -1.629215e+01  -3.965653e+01
   5.202557e+01   1.097191e+01
   8.853611e+01   2.239555e+01
   2.239557e+01   2.426943e+01
  -1.690735e+01   1.571743e+01
   1.633289e+01   1.540931e+01
   6.248540e+00  -2.241474e+00
   2.168864e+01  -9.280969e+00
  -1.027853e+01  -1.743836e+01
  -6.227851e+01  -2.403570e+01
  -9.228492e+00  -6.786157e+01
   5.801736e+01  -1.200651e+02
   1.387958e+02  -5.765513e+01
   1.145699e+02   1.834896e+01
   2.009337e+01   1.049969e+02
  -6.378739e+01   1.026518e+02
  -7.986532e+01   6.115335e+01
  -4.692565e+01  -3.430759e+01
  -3.726144e+01  -5.416439e+01
   6.310087e+00  -2.682678e+01
  -2.358893e+01  -4.352967e+01
  -1.288309e+01  -3.599210e+01
  -6.523544e+00  -8.934653e+01
   3.022044e+01  -5.490049e+01
   4.700864e+01   2.526608e+01
   3.763405e+01   7.571844e+01
   1.794756e+01   9.011105e+01
  -8.671635e+01   3.065057e+01
  -1.043446e+02  -5.774514e+01
  -3.512657e+01  -1.089109e+02
   7.043627e+01  -4.762954e+01
   1.040038e+02  -3.606381e+01
   2.935343e+01   5.830825e+01
  -4.263022e+01   9.036398e+01
  -2.815425e+01   2.857084e+01
  -2.555240e+01  -3.266577e+01
   5.388068e+01  -1.944988e+01
   3.918358e+01   1.760304e+01
  -6.500091e+01   4.222342e+01
  -9.706929e+01   3.238310e+01
  -5.788796e+01   4.608385e-01
  -6.919926e+00  -5.982477e+01
   4.848359e+01  -3.818401e+01
   5.008231e+01   5.773413e+00
  -5.284229e+00   5.450221e+01
  -3.944495e+01   3.776394e+01
  -3.369328e+01  -7.980471e+00
  -1.498481e+01  -4.953572e+01
  -1.901123e+00  -2.969629e+01
   3.424586e+01   3.960428e+00
   2.889001e+01   1.460917e+01
   1.262133e+01   1.490250e+01
   9.987278e+00  -1.198400e+01
  -1.380332e+00  -2.674739e+01
   1.202420e+01   2.687722e+01
   3.606608e+01   1.260354e+01
  -2.607010e+01   1.227955e+01
  -3.262766e+01  -2.495138e+01
  -1.318102e+01  -5.946256e+01
   2.015312e+01  -4.173594e+01
   6.255998e+01   2.004573e+01
   1.829571e+01   7.820068e+00
  -3.305309e+01   1.333039e+01
  -7.781196e+01   3.996341e+01
  -6.052059e+01  -2.890284e+01
  -1.186212e+01  -4.593099e+01
   2.758597e+01  -5.051869e+01
   2.136554e+01  -2.278112e+01
  -8.091088e+00   3.192169e+01
   1.455817e+01  -2.535983e+01
   5.747074e+00  -1.260271e+01
   4.519828e+01  -2.570025e-01
