
 $NMID
 id='ANONYMOUS ', fmtdat='(2E16.6)'
 volume=1.0
 tramp=1.0
 $END
   1.424997e+03  -4.589255e+01
   7.919163e+02   7.122139e+02
   1.113750e+02   7.402922e+02
  -2.530659e+02   4.042811e+02
  -3.124886e+02   1.371285e+02
   1.492421e+00   2.523194e+01
   2.206069e+02   9.110251e+01
  -1.104321e+02   2.751957e+02
  -2.376307e+02   2.231284e+02
  -2.072357e+02   4.718662e+01
  -1.700614e+02  -2.302611e+02
  -3.585733e+01  -2.580170e+02
   8.981407e+01   8.383488e+00
   7.147691e+01   1.409232e+02
  -5.495271e+01   1.713873e+02
  -1.390669e+02   3.386929e+01
  -7.745392e+01  -1.736635e+02
   7.453133e+01  -2.287973e+02
   1.891891e+02  -8.734614e+01
   1.661102e+02   6.532592e+01
   4.575990e+01   9.363646e+01
  -1.642110e+01   8.466790e+01
  -2.213518e+01   5.414360e+00
   9.160423e+01   4.115962e+01
   9.567828e+01   1.062770e+02
  -3.161405e+01   1.139219e+02
  -1.523079e+02   4.482703e+01
  -2.392951e+02  -4.453039e+01
  -9.924086e+01  -1.722417e+02
   9.160510e+01  -7.672361e+01
   1.729055e+02   4.410159e+00
   5.947779e+01   1.448155e+02
  -7.492602e+01   1.205836e+02
  -1.818495e+02   2.834099e+01
  -8.893517e+01  -6.865400e+01
  -8.232177e+01  -8.937689e+01
  -1.762572e+01  -8.520322e+01
   1.463625e+00   2.835604e+01
  -4.283908e+01   4.240553e+01
  -7.986611e+01  -6.958581e+01
   3.981776e+01  -2.014668e+02
   4.878711e+01  -1.509223e+02
   9.733051e+01   1.620999e-01
   4.639627e+01   9.239074e+01
  -8.045867e+01   8.058767e+01
  -6.934655e+01  -7.954019e+01
   9.343585e+01  -1.470030e+02
   1.732067e+02  -2.589803e+01
   1.303126e+02   1.223326e+02
   5.154114e+01   1.360395e+02
  -7.556080e+01   6.567236e+01
  -1.587615e+02   1.078658e+01
  -9.438871e+01  -6.958502e+01
  -7.988591e+00  -5.510038e+01
   8.534117e+01  -3.892633e+00
   6.791296e+01   9.011770e+00
  -1.366753e+00  -1.567889e+01
   1.928553e+01  -1.534565e+01
   4.647379e+01   2.689658e+01
   7.973842e+01   3.458127e+01
   3.683013e+01   4.283436e+01
  -4.470737e+01   5.585632e+01
  -1.295187e+02   5.026023e+01
  -8.333385e+01  -9.780696e+00
  -9.658873e-02  -7.645203e+01
   5.874604e+01  -1.391333e+02
   1.398297e+02  -8.917329e+01
   8.522210e+01   1.938610e+01
   5.149321e+01   1.323115e+02
  -2.525993e+01   1.489188e+02
  -2.515283e+00   6.220530e+01
  -5.195630e+01   2.071738e+01
  -6.656105e+01   2.842359e+01
  -8.169507e+01  -1.533098e+01
  -9.317016e+01   5.180060e+00
  -1.744643e+01  -9.465627e+01
  -1.090882e+01  -5.319634e+01
   3.872115e+01   3.122495e+00
   4.995066e+01   8.259574e+01
  -4.588392e+00   9.978378e+01
  -7.936881e+01   3.638845e+01
  -8.965177e+01  -6.793722e+01
  -1.026889e+02  -1.206772e+02
   4.306597e+01  -1.126987e+02
   6.226178e+01  -7.357242e+01
   6.467769e+01   2.646884e+01
   7.644314e+01   8.368283e+00
   4.278357e+01   2.599739e+01
   1.961673e+02   4.357301e+01
   1.253104e+02   9.599178e+01
   5.638944e+00   1.309539e+02
  -9.908097e+01   1.241921e+02
  -2.056270e+02   1.203886e+02
  -1.035133e+02  -9.468498e+00
  -1.864270e+01  -5.492363e+01
   4.015797e+00  -1.101402e+02
  -9.140880e+00  -3.135543e+01
  -4.805068e+01  -1.657339e+01
  -5.727775e+01  -1.360010e+00
   2.106350e+01  -4.725072e+01
   5.958608e+01  -5.123950e+01
   1.129536e+01   2.378837e+01
  -2.950270e+01   1.462768e+01
  -3.814373e+01  -1.326731e+01
  -5.001869e+01  -7.443895e+01
  -3.480320e+01  -9.477847e+01
   6.591305e+01  -6.396746e+01
   1.414762e+02   1.475814e+01
   9.110206e+01   9.757754e+01
   5.605913e+01   1.154949e+02
  -4.485522e+01   7.320136e+01
  -3.861584e+01  -4.090602e+00
  -3.542160e+01   5.619600e+00
  -1.242353e+00   3.186505e+01
  -2.064742e+01   4.086810e+01
  -3.125049e+01   2.506835e+01
  -5.114084e+01  -8.195985e+00
  -3.171758e+01  -1.159136e+01
   2.428328e+01   4.951975e+01
   5.039775e+00   2.806408e+01
  -6.252848e+01   1.458710e+01
  -6.082170e+01  -1.545018e+01
  -1.069887e+02  -4.881580e+01
  -4.370461e+00  -8.396461e+01
   5.594895e+01  -8.445936e+01
   7.530087e+01  -2.891003e+01
   1.367866e+01  -2.572816e+00
   1.226325e+01   2.166868e+01
  -4.653742e+01   2.200271e+01
   3.935203e+01   3.562914e+00
   5.228691e+01  -3.390304e+01
   3.958406e+01  -5.222036e+00
   2.839763e+01   2.834018e+01
  -3.470949e-01   8.247105e+00
  -3.920094e+01   3.574668e+01
  -1.682337e+01   2.523792e+01
   5.698462e+00  -5.667340e+00
   1.134667e+01   3.425373e+01
  -1.078210e+01   2.512020e+01
  -8.021335e+01   1.415770e+01
  -4.268463e+01  -1.769153e+01
  -4.244191e+00  -7.243012e+01
   5.513651e+01  -3.766740e+01
   5.198348e+01  -8.142663e+00
   3.960307e+01   3.226790e+01
  -1.180733e+01   3.363816e+01
  -3.808123e+01   3.645238e+01
  -2.269831e+01  -1.403292e+01
   3.438429e-01   2.462529e+01
  -2.274572e+01  -2.150539e+01
  -3.202209e+01   1.772992e+00
  -5.263600e+01   1.019588e+00
  -9.261222e+00  -6.115507e+01
   3.588428e+01  -5.584756e+01
   8.141202e+01  -2.642693e+01
   6.691514e+01   6.828043e+01
  -1.282464e+00   8.019421e+01
  -8.943491e+00   2.636456e+01
  -3.346740e+01   2.413433e+01
  -1.707690e+01  -3.645403e+00
  -3.082120e+00  -3.205846e+00
  -1.397337e+01  -1.590842e+01
  -1.820746e+01   3.222130e+01
  -2.068444e+01  -1.933987e+01
   4.031648e+01  -4.259098e+00
   2.177161e+01  -6.972400e+00
  -3.714140e+00   3.433660e+01
  -1.641363e+01   4.684588e+01
  -5.390296e+01   2.293262e+01
  -8.569280e+01  -1.606708e+01
  -5.336885e+01  -7.396071e+01
   3.805803e+01  -7.094788e+01
   1.165652e+02  -7.925393e+01
   7.325599e+01   1.816337e+01
   4.791879e+01   3.896573e+01
  -1.349896e+01   5.419041e+01
  -3.635521e+01   5.518511e+01
  -6.028365e+01   1.699479e+01
  -7.050234e+00   1.735221e+01
  -1.491395e+01   1.685893e+01
  -2.288375e+01  -2.464857e+00
  -5.000588e+01  -3.152886e+01
   1.721532e+01  -5.557458e+01
   1.661835e+01  -4.831067e+01
   4.733158e+01  -1.282842e+01
   4.662162e+01   1.563512e+01
  -8.371284e+00   5.308293e+01
  -1.122523e+01   1.730189e+01
  -3.962409e+01   1.805866e+00
   2.313277e+00  -1.571774e+01
   3.244443e+01  -1.961569e+01
  -2.238856e+01  -2.316335e+00
  -3.466038e+01   1.891973e+00
  -1.348081e+01  -1.409206e+01
   2.918538e+01  -7.892153e+00
   5.380391e+01  -1.238372e+01
   5.191665e+01   4.082902e+01
   2.200020e+00   2.315734e+01
  -3.062306e+01   5.972375e+01
  -3.488232e+01   6.033094e+00
  -3.880475e+01   1.015205e+01
   1.014918e+01  -3.012595e+01
  -3.389020e+01   1.602636e+01
  -5.836626e+00   3.013676e+00
  -1.978292e+01   1.581325e+01
  -4.997285e+01   5.195472e-01
  -2.756584e+01  -1.807190e+01
  -3.088169e+00  -2.147249e+01
  -2.247132e+01   5.384334e+00
  -2.630452e+01  -6.206460e+00
  -6.509110e+00  -3.624717e+01
   2.635705e+01  -5.376062e+01
   9.295102e+00  -4.664043e+01
   7.195415e+01  -2.815133e+01
   3.859258e+01   3.403000e+01
   1.070708e+01   4.710815e+01
  -1.215632e+01   3.242912e+01
  -1.627737e+01   1.349890e+00
   4.693209e+01   1.320762e+01
   5.213756e+01   2.129142e+01
   4.687154e+01   4.814978e+01
  -3.080424e+01   3.104285e+01
  -6.512216e+01  -3.047718e+00
  -4.913207e+01  -1.903991e+00
  -4.358602e+00  -4.566003e+01
   5.139857e+00  -2.810586e+01
   2.325475e+00  -2.988371e+01
  -1.096252e+00   1.940545e+00
  -2.178001e+01   9.906776e+00
  -5.516383e+00  -4.530372e+01
   2.876459e+01  -6.652915e+01
   8.026864e+01  -2.725591e+01
   4.098692e+01   3.117994e+01
  -1.768833e+01   6.222342e+01
   1.119867e+01   6.110264e+01
  -3.205529e+01   3.073593e+00
  -1.189107e+01  -4.166547e+01
  -3.193778e+00  -4.964963e+01
   1.092255e+01  -2.201974e+01
   4.664410e+00   1.903440e+01
   1.644290e+01   1.909082e+01
   1.307342e+01  -2.175607e+01
  -3.926498e+00  -4.437552e+00
  -9.775246e+00   2.269029e+01
  -3.960795e-01   3.437429e+01
   1.078728e+01  -1.521213e+01
  -4.935196e+01  -2.528345e+01
  -3.626073e+01  -6.732093e+00
  -2.526282e+01  -2.014586e+01
   4.433974e+01  -1.910379e+01
   3.965653e+00   8.563576e+00
   5.844498e-02  -1.913833e+01
  -1.140890e+01  -1.176880e+01
  -1.511508e+01   1.944440e+01
   3.356132e+01   3.742139e+00
   3.482210e+00   2.338399e+00
  -1.579028e+00  -3.574982e+00
  -7.762462e+00  -1.592088e+01
   2.028757e+01  -1.186664e+01
   2.591938e+01  -4.411344e+01
   7.502687e+01  -1.197817e+01
   2.374257e+01   3.018479e+01
   3.283271e+01   5.615274e+01
   2.881119e+00   7.835973e+01
  -3.683617e+01   3.444423e+01
  -5.121918e+00   8.099015e+00
  -2.299666e+01  -1.651259e+01
  -9.941157e+00  -7.623985e+00
  -2.691932e+01   5.875896e+00
   5.908112e+00  -1.377231e+01
   4.256882e+00  -2.509848e+01
   1.697125e+00  -1.575369e+01
   1.380117e+01   2.664121e+01
   4.626173e+01   2.603053e+01
   2.422762e+01   3.680601e+01
  -1.245247e+01  -8.413105e+00
  -3.012050e+01  -1.730456e+01
  -1.678712e+01  -1.413363e+01
   4.592380e+01  -2.479923e+00
   5.243637e+01   1.878833e+01
   1.478460e+01  -6.944240e+00
  -3.040107e+01   6.091907e+00
  -1.635765e+01   7.798807e+00
   2.445636e+01   2.689385e+01
   3.124845e+01   2.245480e+01
   3.493265e+01   6.436982e+00
  -4.496290e+00   4.644988e+00
  -3.521237e+01   7.481942e+00
  -5.034926e+01  -1.003922e+01
  -1.401352e+01  -5.288844e+01
   1.611309e+01  -1.174314e+01
   4.666751e+01   9.861742e+00
   1.743943e+01   2.059011e+01
   2.209274e+01  -4.143263e+00
  -1.215884e+01  -7.968256e+00
   9.893441e+00   1.456802e+00
   6.923464e+00  -3.547558e+00
   7.871116e+00  -3.694443e+00
   3.939261e+01  -4.978061e+00
   2.317306e+00  -1.198895e+01
   9.534042e+00   2.889161e+00
   4.310351e+00  -1.676406e+01
  -1.262245e+00   1.990833e+01
  -3.266770e+01  -2.400218e+01
  -6.803835e+00   6.053087e+00
  -2.989323e+01  -2.032550e+01
   1.597595e+01  -6.610930e+00
   6.728399e+00   7.586523e+00
   7.689130e+00   1.341560e+01
  -1.187153e+01   3.065434e+01
  -3.613436e+01   9.250632e+00
  -3.190697e+01  -9.780183e+00
  -1.503239e+01  -3.916217e+01
   1.849941e+01  -8.686351e+00
   4.385363e+00   5.948624e+00
   2.145725e+00  -2.111535e+00
  -9.727228e+00  -1.457981e+01
  -4.880290e+00   1.901811e+01
  -1.046505e+01   2.589198e+01
   2.991630e+00   5.092076e+00
