
 $NMID
 id='ANONYMOUS ', fmtdat='(2E16.6)'
 volume=1.0
 tramp=1.0
 $END
   2.063762e+03   2.391068e+02
   1.207412e+03   1.019429e+03
   4.159606e+01   8.575627e+02
  -8.083160e+02   5.979863e+02
  -4.197500e+02   1.322738e+02
  -5.631625e+00  -7.150142e+01
   1.727450e+02   1.871488e+02
  -7.138439e+01   3.615527e+02
  -2.839163e+02   1.776413e+02
  -2.869091e+02   1.970855e+00
  -1.783326e+02  -2.748213e+02
  -1.064404e-01  -2.372807e+02
   9.450092e+01  -7.101764e+01
   7.384236e+01   2.280251e+02
  -1.243994e+02   2.536112e+02
  -1.893654e+02   6.502818e-01
  -8.331407e+01  -2.285506e+02
   2.590102e+01  -2.631373e+02
   1.159161e+02  -1.010709e+02
   1.371542e+02   2.213808e+01
   8.906596e+01   6.849931e+01
   2.899607e+00   1.141902e+02
   8.974757e+00   1.263016e+02
   2.732244e+01   9.580455e+01
   8.349625e+01   1.175290e+02
  -4.891668e+01   1.147118e+02
  -2.294997e+02   4.350921e+01
  -2.500952e+02  -1.080431e+02
  -1.402803e+02  -7.357241e+01
   1.521444e+02  -6.604517e+00
   1.993611e+02   1.106283e+02
   1.042965e+02   9.648695e+01
  -8.301824e+01   1.250554e+02
  -1.713022e+02   8.031489e+01
  -1.168002e+02  -1.300005e+01
  -8.654112e+01  -1.302504e+02
  -3.207245e+01  -1.089002e+02
  -5.169939e+01   1.095791e+01
  -6.293148e+01   8.242350e+01
  -8.007977e+01   4.603853e+00
   1.318461e+00  -2.580610e+02
   1.197599e+02  -1.958591e+02
   1.592537e+02   4.696738e+01
   3.297440e+01   1.567085e+02
  -5.486470e+01   6.338480e+01
  -5.418695e+01  -1.259783e+02
   9.379756e+01  -1.510119e+02
   1.731354e+02   5.931152e+01
   2.108286e+02   1.579060e+02
   7.450779e+01   1.854118e+02
  -1.483908e+02   6.232860e+01
  -1.932289e+02  -1.752510e+01
  -1.198994e+02  -1.082602e+02
  -2.187581e+01  -1.011888e+02
   1.354747e+02  -4.579524e+01
   1.174195e+02  -2.916403e+01
  -1.480404e+00   4.671358e+00
  -2.899085e+01  -1.146659e+01
   9.610672e+01   8.576260e+00
   8.621411e+01   3.672209e+01
   7.706379e+01   7.792489e+01
  -6.829541e+01   5.243122e+01
  -8.584114e+01   3.182577e+01
  -6.542376e+01  -1.290616e+01
   3.022400e+01  -9.232689e+01
   1.322539e+02  -1.568158e+02
   1.427283e+02  -1.438814e+02
   1.136411e+02   2.582914e+01
   6.741550e+01   2.112066e+02
  -2.587469e+01   2.227796e+02
  -6.047108e+01   9.548358e+01
  -5.588010e+01   6.428491e+01
  -9.719009e+01   4.746223e+01
  -1.387035e+02   3.357124e+01
  -1.234834e+02  -4.362458e+01
  -2.780560e+01  -9.954101e+01
   3.725395e+01  -1.099255e+02
   4.017006e+01   1.495374e+01
   5.568701e+01   1.173306e+02
   1.023735e+01   1.309818e+02
  -1.089646e+02   1.663853e+01
  -1.465814e+02  -1.006281e+02
  -5.969833e+01  -1.507607e+02
   2.961427e+01  -1.230737e+02
   7.923888e+01  -7.311821e+01
   8.406463e+01  -6.267816e+01
   9.093213e+01  -3.416574e+01
   1.358939e+02  -3.344368e+01
   2.357146e+02   5.667245e+01
   1.935048e+02   1.891766e+02
   1.479526e+01   1.710472e+02
  -1.890508e+02   1.467180e+02
  -2.290861e+02   7.216640e+01
  -1.200133e+02  -3.975721e+01
  -1.895865e+01  -1.075344e+02
   8.992179e+00  -1.105139e+02
   1.585661e+01  -6.389637e+00
  -5.184111e+01   1.377875e+01
  -6.479245e+01   1.586964e+01
   4.008528e+01  -6.190353e+01
   6.650479e+01  -5.399205e+01
   3.079361e+01   5.317082e+01
  -3.959851e+01   6.899379e+01
  -6.619484e+01  -6.232398e+00
  -5.167995e+01  -1.217443e+02
   1.352659e+01  -1.105572e+02
   8.281931e+01  -1.021825e+02
   1.684328e+02   5.959618e+01
   1.520578e+02   8.559421e+01
   4.168733e+01   9.056983e+01
  -2.585890e+01   8.909593e+01
  -6.842190e+01   4.143862e+01
  -4.465109e+01   2.759295e+01
  -1.075959e+01   3.253223e+01
  -1.955103e+01   3.436814e+01
  -4.287237e+01   3.364859e+01
  -8.571860e+01  -1.865569e+01
  -1.902415e+00   1.309233e+01
  -5.023114e+00   5.728288e+01
  -4.828470e+00   3.221756e+01
  -6.586055e+01  -5.242926e+00
  -1.323036e+02  -3.680402e+01
  -1.008232e+02  -7.985934e+01
  -1.072427e+01  -9.779620e+01
   9.524630e+01  -6.865726e+01
   8.389507e+01  -9.240498e+01
   8.813342e+01  -3.354764e+01
   1.705877e+01   2.891636e+01
  -1.081196e+01   1.241508e+01
   5.508427e+01  -3.354094e+01
   5.890085e+01  -1.818845e+01
   8.016395e+01   4.797957e+01
   5.341397e+01   8.687403e+01
  -2.350591e+01   4.511930e+01
  -2.148079e+01   8.697598e+00
  -7.976868e+00   8.213881e+00
   1.847800e+01   1.997929e+01
   1.020683e+01   3.570294e+01
  -5.668948e+01   3.906597e+01
  -6.562655e+01  -9.053562e+00
  -9.130683e+01  -7.323646e+01
   7.054676e-01  -9.168070e+01
   5.573111e+01  -5.276745e+01
   7.739021e+01  -1.406211e+01
   2.286417e+01   7.514649e+01
  -2.844397e+01   2.882254e+01
  -2.665710e+01   2.286433e+01
   1.418697e+01  -1.262045e+01
   2.346027e+01   6.344022e+00
   1.806427e+01  -5.686391e+00
  -3.829875e+01  -1.184567e+01
  -4.547719e+01  -3.300745e+01
   1.357832e+01  -8.327316e+01
   7.189831e+01  -4.056472e+01
   1.010790e+02  -9.220354e+00
   5.113942e+01   6.318042e+01
   1.930569e+01   8.551542e+01
  -4.545113e+01   6.856631e+01
  -7.189274e+01   2.854256e+01
  -4.317363e+01   6.112340e+00
  -3.787815e+01   5.340306e+00
  -4.941804e+01   1.002478e+01
  -4.272021e+01  -2.819019e+00
  -3.185720e+01  -2.826356e+01
   3.878952e+01  -2.294365e+01
   5.490494e+01  -1.990409e+01
   4.927893e+01   2.225060e+01
  -1.103412e+01   3.528469e+01
  -7.659923e+01   3.943185e+01
  -9.331254e+01  -2.406641e+01
  -1.600033e+01  -7.301868e+01
   5.408840e+01  -8.737625e+01
   9.535328e+01  -3.463704e+01
   1.067720e+02   2.084723e+01
   3.233542e+01   7.189063e+01
   4.644020e+00   6.849703e+01
  -2.175762e+01   5.612514e+01
  -1.322547e+01   6.095301e+01
  -1.992074e+01   5.566116e+01
  -4.124659e+01   2.018740e+01
  -4.889189e+01  -4.238405e+01
  -3.397644e+01  -7.141829e+01
  -3.933239e+01  -9.265689e+01
   5.088499e+01  -3.981511e+01
   5.496674e+01  -4.716947e+00
   3.996411e+01   6.630433e+01
   1.658945e+01   4.696646e+01
  -2.811912e+01   4.709974e+01
  -2.377784e+01  -1.548273e+01
   6.821877e+00  -8.168826e+00
   5.865386e+00  -2.339492e+01
  -1.689732e+01   9.253521e-01
  -5.997725e+01  -3.157363e+01
  -9.358017e+00  -1.177324e+01
   7.518269e+01  -1.816860e+01
   6.797121e+01   9.018268e+00
   5.713584e+01   5.131632e+01
   2.141478e+00   2.829232e+01
  -7.561777e+01   3.964587e+01
  -7.582121e+01  -2.030344e+01
   3.025369e+00  -3.730376e+00
   2.031217e+01  -2.385012e+01
   4.227786e+01   1.042388e+01
   3.044531e+00   2.943887e+01
  -1.271900e+01   1.101593e+01
  -3.716532e+01   2.286162e+01
  -3.498622e+01   6.022296e+00
  -2.589828e+01  -2.123448e+01
  -2.670272e+01  -1.432789e+01
  -2.086558e+01   9.687711e+00
  -1.553053e+01  -3.579144e+01
   1.751593e+01  -9.943351e+01
   4.772459e+01  -5.483458e+01
   8.634396e+01  -7.073562e+00
   4.100771e+01   6.038059e+01
  -1.356209e+01   7.301219e+01
  -4.796456e+01   3.246589e+01
  -2.974338e+01  -6.899980e+00
   2.025589e+01   1.749400e+01
   4.201060e+01   3.325332e+00
   5.506310e+01   3.258598e+01
  -3.634667e+01   4.045513e+01
  -7.803331e+01   1.289077e+01
  -8.265403e+01  -2.853609e+01
  -4.698613e+01  -2.297150e+01
   1.865158e+01  -3.592054e+01
   6.794083e+00  -3.388144e+01
  -7.303289e+00   1.439043e+01
  -2.004135e+01  -4.721815e+00
  -2.031466e+01  -2.209267e+01
   2.089455e+01  -4.638421e+01
   5.978911e+01  -4.884836e+01
   4.979405e+01   4.520924e+01
   1.779327e+01   7.961852e+01
  -1.614625e+01   3.721556e+01
  -6.374001e+01   1.492252e+01
  -2.972784e+01  -2.457281e+01
   1.514974e+01  -2.786127e+01
   4.633438e+01  -3.085640e+01
   6.728033e+00   1.961467e+01
   1.799600e+00   1.609179e+01
  -2.362862e+01  -1.586916e+01
  -3.196099e+01   1.610778e+01
  -1.668403e+00   3.781174e+01
   9.288326e+00   2.165305e+01
   4.175599e-01   1.467826e+01
  -8.024130e+01  -9.741324e+00
  -8.515896e+01  -1.876270e+01
   5.044071e+00  -3.302884e+01
   4.768838e+01  -3.407347e+01
   4.791957e+01   6.937340e+00
  -2.542205e+01  -2.011249e+01
  -2.012136e+01   2.461114e+00
  -2.399047e+00   3.701134e+01
   2.423902e+01   7.575473e+00
   1.397879e+01  -1.381313e+00
  -2.074889e+01  -2.211660e+01
  -7.160554e+01  -4.179008e+01
   8.321201e+00  -3.162364e+01
   8.161589e+01  -5.451004e+01
   1.075914e+02  -2.767946e+01
   8.738443e+01   3.681956e+01
   9.914812e+00   5.766554e+01
  -3.863461e+01   7.333312e+01
  -3.380559e+01   4.875836e+01
  -4.177588e+01   2.764240e+01
  -2.118429e+01  -1.019876e+01
   4.975943e+00  -4.386668e+00
   7.138603e+00   1.630993e+01
  -1.259756e+01  -4.827707e+01
  -2.738753e+00  -5.894914e+01
   2.374536e+01  -1.645835e+01
   2.025445e+01  -2.914020e+00
   5.194752e+01   5.646986e+01
  -2.452762e-01   3.091820e+01
  -2.489216e+01   2.624426e+01
  -5.734699e+01  -3.331784e+01
  -6.791170e+01  -5.213341e+01
   1.548552e+01  -3.654139e+01
   2.658143e+01  -2.904709e+00
   3.510587e+01   2.944096e+01
  -1.294111e+01   3.070796e+01
  -3.052490e+01   1.661934e+01
   3.193262e+01  -5.978809e+00
   4.594043e+01  -5.734217e+00
  -2.834811e+00  -9.270033e+00
  -2.185353e+01   3.790385e+01
  -4.871743e+01   2.833083e+01
  -2.316065e+01   6.216353e+00
   1.600193e+01  -3.761373e+01
   4.120036e+01  -6.415390e+00
   2.525511e+01  -1.369327e+01
  -2.156963e+01   2.151580e+01
   2.130682e+01   3.808217e+01
  -8.097691e+00   1.201967e+01
  -1.951384e+01  -1.028673e+01
  -2.160505e+01  -3.856772e+01
  -7.995356e+00  -2.471681e+01
   2.610923e+01  -1.781657e+01
   3.074306e+01  -2.706170e+01
   5.477765e+00   2.086183e+01
  -1.058047e+01  -3.909635e+00
  -5.199834e+00   1.777776e+01
  -2.522702e+01   1.373313e+01
  -1.359720e+01   9.144654e+00
  -1.053107e+01  -2.909209e+01
   2.184110e+01  -5.107533e+01
   2.176491e+00  -2.014646e+00
   9.928648e+00   9.483021e-01
  -1.188950e+00  -8.665146e+00
  -2.341334e+01   2.177180e+01
  -1.235981e+01  -2.691770e+01
  -1.538295e+01   2.179695e+00
   4.043545e+01   1.709013e+01
   1.734225e+01   1.179357e+01
   2.064066e+01  -4.089994e+00
  -4.373780e+01  -3.465499e+01
  -3.348953e+00   1.150727e+01
   4.501746e+00   2.630723e+01
   2.484411e+01  -1.723262e+01
