
 $NMID
 id='ANONYMOUS ', fmtdat='(2E16.6)'
 volume=1.0
 tramp=1.0
 $END
  -3.767443e+07  -4.788052e+05
  -2.340538e+07  -2.120489e+07
   3.200742e+06  -2.471162e+07
   1.761045e+07  -1.214857e+07
   1.207306e+07   2.116179e+06
  -9.630903e+05   6.433861e+06
  -7.002423e+06   9.398324e+05
  -3.475243e+06  -6.321535e+06
   3.162274e+06  -7.986014e+06
   6.720818e+06  -2.705639e+06
   5.275852e+06   4.520360e+06
   6.011892e+05   6.715814e+06
  -3.131552e+06   1.739451e+06
  -2.260878e+06  -4.931131e+06
   2.407753e+06  -5.818637e+06
   5.719014e+06   2.415982e+05
   3.662891e+06   7.120451e+06
  -2.254137e+06   8.535557e+06
  -7.016567e+06   4.115286e+06
  -7.288533e+06  -1.816807e+06
  -3.809615e+06  -5.213372e+06
   6.452065e+04  -5.106689e+06
   1.249866e+06  -3.231353e+06
  -4.837326e+05  -2.199453e+06
  -1.936398e+06  -3.152318e+06
   3.334905e+05  -4.405860e+06
   5.415543e+06  -3.246152e+06
   8.144043e+06   4.798121e+05
   5.102279e+06   3.718878e+06
  -8.600388e+05   3.756924e+06
  -3.884995e+06   1.208642e+06
  -1.894887e+06  -1.225703e+06
   1.857742e+06  -1.701926e+06
   3.412557e+06  -1.179020e+05
   2.058087e+06   2.445347e+06
  -3.448503e+05   3.944761e+06
  -1.864307e+06   2.515449e+06
  -1.662609e+06  -9.388758e+05
  -2.477855e+05  -2.597048e+06
   6.523892e+05  -2.706518e+05
  -3.422722e+05   2.937795e+06
  -2.177187e+06   2.222166e+06
  -2.062690e+06  -2.063618e+06
   8.943849e+05  -4.271383e+06
   3.865712e+06  -9.605784e+05
   3.284371e+06   4.333196e+06
  -9.268692e+05   5.608766e+06
  -5.121964e+06   1.676115e+06
  -5.636062e+06  -3.211279e+06
  -2.075516e+06  -4.786154e+06
   2.617313e+06  -2.656122e+06
   4.678018e+06   6.675458e+05
   2.604716e+06   2.541163e+06
  -1.402346e+06   1.876992e+06
  -3.378125e+06  -3.366201e+05
  -1.695997e+06  -1.779785e+06
   1.149335e+06  -1.044526e+06
   1.643246e+06   7.027741e+05
  -4.105226e+05   1.128911e+06
  -1.892949e+06  -2.980337e+05
  -5.336373e+05  -1.779243e+06
   2.350308e+06  -1.574826e+06
   3.663242e+06   2.454134e+05
   1.950138e+06   2.505420e+06
  -1.575457e+06   4.029873e+06
  -4.519276e+06   3.713556e+06
  -5.114047e+06   9.891023e+05
  -3.236282e+06  -2.859300e+06
  -4.662887e+05  -5.027576e+06
   1.157753e+06  -4.063194e+06
   1.051346e+06  -1.695068e+06
   5.461072e+05  -6.304572e+05
   1.075643e+06  -1.112382e+06
   2.328961e+06  -1.044750e+06
   2.753080e+06   6.858572e+05
   1.531667e+06   2.529658e+06
  -5.569938e+05   2.337350e+06
  -2.008679e+06   4.292675e+04
  -1.755756e+06  -2.347031e+06
   2.111684e+05  -2.853337e+06
   2.634014e+06  -1.144780e+06
   3.594353e+06   1.460315e+06
   2.204641e+06   3.142239e+06
  -2.441972e+05   3.018776e+06
  -1.601966e+06   1.808074e+06
  -1.428612e+06   9.289213e+05
  -1.366690e+06   8.561624e+05
  -2.618342e+06   6.936441e+05
  -3.988701e+06  -5.135301e+05
  -3.277546e+06  -2.474048e+06
  -1.704020e+05  -3.892281e+06
   3.126219e+06  -3.678904e+06
   4.131807e+06  -1.778010e+06
   2.448754e+06   7.469045e+05
  -1.129869e+05   2.239615e+06
  -1.335640e+06   1.673982e+06
  -4.999139e+05  -1.603555e+05
   1.145727e+06  -1.182236e+06
   1.726976e+06  -3.270054e+05
   7.017303e+05   1.090889e+06
  -6.118383e+05   1.073137e+06
  -6.218083e+05  -3.287347e+05
   6.719840e+05  -9.954775e+05
   1.744548e+06   4.476246e+05
   1.280183e+06   2.769106e+06
  -5.925568e+05   3.565245e+06
  -2.642015e+06   1.928939e+06
  -3.561180e+06  -8.368259e+05
  -2.721017e+06  -2.734018e+06
  -6.020629e+05  -2.767414e+06
   1.296473e+06  -1.440505e+06
   1.589988e+06  -1.386376e+05
   4.752438e+05   4.632204e+04
  -3.523625e+05  -7.141106e+05
   3.153505e+05  -1.196589e+06
   1.663752e+06  -5.412325e+05
   1.870133e+06   7.002515e+05
   4.486163e+05   1.238819e+06
  -1.080981e+06   5.979690e+05
  -9.814685e+05  -4.160956e+05
   7.191652e+05  -7.102869e+05
   2.272637e+06   4.130854e+04
   2.005957e+06   1.292298e+06
  -6.771759e+04   2.114561e+06
  -2.253786e+06   1.770205e+06
  -2.708413e+06   3.195407e+05
  -1.154730e+06  -1.141404e+06
   8.281568e+05  -1.320173e+06
   1.354937e+06  -1.495224e+05
   1.138575e+05   9.610416e+05
  -1.428488e+06   6.796403e+05
  -1.666476e+06  -6.798656e+05
  -4.589028e+05  -1.572265e+06
   9.373036e+05  -1.075323e+06
   1.249218e+06   1.334741e+05
   3.591910e+05   6.955702e+05
  -6.860423e+05   7.840969e+04
  -6.734863e+05  -9.910742e+05
   5.907053e+05  -1.345828e+06
   1.946762e+06  -4.722642e+05
   1.933795e+06   1.037733e+06
   3.668123e+05   1.975716e+06
  -1.335659e+06   1.579731e+06
  -1.640931e+06   2.561368e+05
  -5.400664e+05  -8.065909e+05
   6.028998e+05  -8.109307e+05
   6.877456e+05  -6.875929e+04
  -4.640900e+04   4.835763e+05
  -5.815474e+05   3.459477e+05
  -3.421751e+05  -9.662014e+04
   3.143832e+05  -1.174866e+05
   5.651836e+05   4.899294e+05
  -8.612847e+04   1.116570e+06
  -1.290627e+06   8.962799e+05
  -2.008176e+06  -3.760880e+05
  -1.407453e+06  -1.867138e+06
   2.111948e+05  -2.372223e+06
   1.579661e+06  -1.471540e+06
   1.739575e+06   3.933908e+04
   9.901570e+05   9.615712e+05
   3.615069e+05   8.672921e+05
   3.412819e+05   3.609559e+05
   4.576756e+05   2.506834e+05
   6.532943e+04   6.426498e+05
  -7.989039e+05   8.996449e+05
  -1.430652e+06   3.973585e+05
  -1.128897e+06  -7.242236e+05
   1.663804e+05  -1.538903e+06
   1.680500e+06  -1.132345e+06
   2.231000e+06   4.401603e+05
   1.174458e+06   2.008915e+06
  -8.623373e+05   2.283343e+06
  -2.375679e+06   1.083161e+06
  -2.335859e+06  -5.114448e+05
  -1.101856e+06  -1.288492e+06
   1.022629e+05  -1.063824e+06
   4.795051e+05  -6.337468e+05
   2.673060e+05  -7.167393e+05
   1.967678e+05  -1.150816e+06
   6.192237e+05  -1.159589e+06
   1.194433e+06  -2.781201e+05
   1.268287e+06   1.061819e+06
   5.228752e+05   1.846802e+06
  -6.223075e+05   1.394673e+06
  -1.259734e+06   2.189178e+04
  -8.204433e+05  -1.188471e+06
   2.875557e+05  -1.343277e+06
   1.019561e+06  -5.005708e+05
   7.707347e+05   5.089322e+05
  -5.241615e+03   9.473207e+05
  -3.735713e+05   7.763420e+05
  -2.194842e+04   4.621060e+05
   3.932585e+05   3.592078e+05
   3.997129e+04   3.858312e+05
  -1.063141e+06   2.214318e+05
  -1.929220e+06  -2.944262e+05
  -1.566354e+06  -9.562381e+05
  -5.115638e+04  -1.322045e+06
   1.436929e+06  -1.073246e+06
   1.737902e+06  -3.337091e+05
   8.401856e+05   3.590184e+05
  -2.067257e+05   4.948401e+05
  -4.634275e+05   8.106654e+04
   8.763612e+03  -3.374222e+05
   4.695964e+05  -2.291911e+05
   4.526139e+05   3.358001e+05
   1.565915e+05   7.294586e+05
   9.499964e+03   4.729089e+05
   1.427387e+05  -1.527914e+05
   3.385526e+05  -3.600391e+05
   2.839010e+05   2.160035e+05
  -1.821750e+05   9.889024e+05
  -8.715163e+05   1.017303e+06
  -1.221644e+06   1.077866e+05
  -7.234737e+05  -8.953283e+05
   4.073023e+05  -1.024513e+06
   1.165484e+06  -2.400324e+05
   6.988123e+05   5.872662e+05
  -6.614546e+05   6.467600e+05
  -1.583687e+06  -4.671096e+04
  -1.093290e+06  -8.175438e+05
   3.870215e+05  -1.033565e+06
   1.482926e+06  -5.866342e+05
   1.279239e+06   1.229753e+05
   1.750830e+05   5.215448e+05
  -6.230408e+05   3.026636e+05
  -3.462146e+05  -2.609355e+05
   6.121718e+05  -4.672756e+05
   1.146657e+06   1.453657e+05
   5.755843e+05   1.188297e+06
  -6.718252e+05   1.629867e+06
  -1.497236e+06   8.037640e+05
  -1.222139e+06  -7.784362e+05
  -1.794407e+05  -1.776310e+06
   7.328094e+05  -1.310666e+06
   9.223872e+05   1.253054e+05
   4.727846e+05   1.164265e+06
  -1.508399e+05   9.890867e+05
  -5.317075e+05   1.093985e+05
  -5.060706e+05  -3.837160e+05
  -2.149214e+05  -1.527712e+05
  -2.701665e+04   1.103344e+05
  -1.952440e+05  -2.542595e+05
  -4.675870e+05  -9.353251e+05
  -2.493154e+05  -1.072224e+06
   6.284959e+05  -3.968791e+05
   1.458864e+06   4.646349e+05
   1.316566e+06   8.267882e+05
   1.865200e+05   6.741426e+05
  -8.934404e+05   4.028725e+05
  -9.877577e+05   1.955137e+05
  -3.095076e+05  -2.251290e+04
   1.646677e+05  -2.156513e+05
  -2.589726e+04  -2.316717e+05
  -3.253624e+05  -1.289252e+05
  -2.350391e+04  -1.353405e+05
   7.209765e+05  -2.031859e+05
   1.019112e+06   3.874449e+04
   3.248164e+05   6.728864e+05
  -8.963509e+05   1.110946e+06
  -1.630986e+06   6.807284e+05
  -1.302666e+06  -4.717991e+05
  -2.332275e+05  -1.392996e+06
   7.475275e+05  -1.321641e+06
   1.033301e+06  -4.764432e+05
   6.503493e+05   2.680582e+05
   1.013857e+05   3.519655e+05
  -1.234638e+05   2.885822e+04
   5.931861e+04  -5.716191e+04
   3.199070e+05   3.443289e+05
   2.600581e+05   7.941915e+05
  -1.942214e+05   6.517728e+05
  -6.793664e+05  -1.647060e+05
  -6.816781e+05  -9.793839e+05
  -3.977589e+04  -1.007078e+06
   7.762377e+05  -1.815631e+05
   9.905849e+05   7.675122e+05
   2.945666e+05   1.069006e+06
  -7.152136e+05   6.162870e+05
  -1.068474e+06  -1.001512e+05
  -4.828930e+05  -5.675708e+05
   2.845792e+05  -6.112746e+05
   3.296679e+05  -3.444099e+05
  -2.929466e+05  -2.983265e+04
  -6.506006e+05   2.461661e+04
  -1.233754e+05  -2.939176e+05
   8.155162e+05  -6.649955e+05
   1.196214e+06  -5.550701e+05
   6.952047e+05   1.424544e+05
  -1.072991e+05   8.315944e+05
  -5.060469e+05   8.130941e+05
  -3.698774e+05   1.179505e+05
  -2.230796e+04  -4.911847e+05
   2.484304e+05  -3.979620e+05
   3.474155e+05   1.914222e+05
   2.367238e+05   5.702631e+05
  -6.834216e+04   3.783445e+05
  -3.813398e+05  -6.683842e+04
  -4.476279e+05  -2.491966e+05
  -2.358583e+05  -6.932720e+04
   9.384773e+03   1.133899e+05
   7.868710e+04  -2.813862e+04
   5.217117e+04  -3.760633e+05
   1.415883e+05  -4.922138e+05
   3.439700e+05  -1.316536e+05
   3.883457e+05   4.294782e+05
   6.988672e+04   6.449216e+05
  -4.259702e+05   2.831710e+05
  -6.200236e+05  -3.100920e+05
  -2.211827e+05  -5.827869e+05
   4.881996e+05  -3.466546e+05
   8.391240e+05   1.028512e+05
   4.530041e+05   3.763550e+05
  -2.926309e+05   3.569292e+05
  -6.178960e+05   1.770966e+05
  -2.119154e+05   7.888718e+03
   3.882548e+05  -2.966461e+04
   4.185897e+05   1.144406e+05
  -2.059161e+05   3.134585e+05
  -7.951240e+05   2.582900e+05
