
 $NMID
 id='ANONYMOUS ', fmtdat='(2E16.6)'
 volume=1.0
 tramp=1.0
 $END
  -3.949556e+07  -2.280451e+05
  -2.437436e+07  -2.315142e+07
   4.038071e+06  -2.635232e+07
   1.892937e+07  -1.180650e+07
   1.234374e+07   3.355286e+06
  -1.546113e+06   6.729330e+06
  -7.247731e+06   2.221142e+05
  -2.972985e+06  -6.796996e+06
   3.812359e+06  -7.684697e+06
   6.998627e+06  -2.248570e+06
   5.266358e+06   4.601531e+06
   5.709867e+05   6.632134e+06
  -3.078393e+06   1.848071e+06
  -2.101155e+06  -4.638588e+06
   2.634295e+06  -5.495406e+06
   5.837099e+06   5.455889e+05
   3.544008e+06   7.369424e+06
  -2.497806e+06   8.693522e+06
  -7.247994e+06   4.246675e+06
  -7.600536e+06  -1.702194e+06
  -4.263006e+06  -5.340530e+06
  -2.043863e+05  -5.621648e+06
   1.563157e+06  -3.778834e+06
   2.489730e+05  -2.221832e+06
  -1.438441e+06  -2.627535e+06
   2.041873e+05  -3.903957e+06
   4.914742e+06  -3.195491e+06
   7.780894e+06   2.208367e+05
   5.144646e+06   3.498468e+06
  -4.711564e+05   3.732274e+06
  -3.447387e+06   1.426228e+06
  -1.826043e+06  -7.632751e+05
   1.375342e+06  -1.256259e+06
   2.758893e+06  -1.276268e+05
   1.837071e+06   1.951137e+06
  -7.128025e+04   3.533286e+06
  -1.663585e+06   2.636236e+06
  -1.916431e+06  -5.830418e+05
  -6.419732e+05  -2.607750e+06
   5.755706e+05  -7.147332e+05
  -1.718422e+05   2.499097e+06
  -2.084872e+06   2.017495e+06
  -1.989192e+06  -2.212875e+06
   1.250196e+06  -4.446617e+06
   4.402001e+06  -9.342291e+05
   3.528932e+06   4.659816e+06
  -1.106335e+06   5.943635e+06
  -5.305923e+06   1.735968e+06
  -5.484767e+06  -3.305938e+06
  -1.789390e+06  -4.737306e+06
   2.658031e+06  -2.416535e+06
   4.430615e+06   9.009202e+05
   2.306322e+06   2.621355e+06
  -1.580155e+06   1.808135e+06
  -3.409095e+06  -4.846739e+05
  -1.616732e+06  -1.900828e+06
   1.210348e+06  -1.043236e+06
   1.519530e+06   7.517220e+05
  -6.571986e+05   9.893909e+05
  -1.929960e+06  -6.945162e+05
  -1.860926e+05  -2.136292e+06
   2.795208e+06  -1.565654e+06
   3.826215e+06   5.377851e+05
   1.887877e+06   2.709823e+06
  -1.511549e+06   3.994827e+06
  -4.256845e+06   3.644062e+06
  -4.938744e+06   1.076645e+06
  -3.290617e+06  -2.681788e+06
  -5.254864e+05  -4.881110e+06
   1.287532e+06  -3.897220e+06
   1.198656e+06  -1.411966e+06
   4.254297e+05  -2.991663e+05
   6.811706e+05  -9.195371e+05
   1.897444e+06  -1.104433e+06
   2.477190e+06   3.950664e+05
   1.477573e+06   2.131900e+06
  -3.790308e+05   2.041494e+06
  -1.690400e+06   4.161486e+04
  -1.530855e+06  -2.083290e+06
   1.685508e+05  -2.606175e+06
   2.430307e+06  -1.153020e+06
   3.486285e+06   1.270984e+06
   2.269642e+06   3.027853e+06
  -1.645610e+05   3.077585e+06
  -1.643160e+06   1.902911e+06
  -1.534411e+06   9.106187e+05
  -1.394144e+06   7.245218e+05
  -2.490624e+06   5.420043e+05
  -3.730733e+06  -5.839003e+05
  -3.013760e+06  -2.374373e+06
  -9.438008e+04  -3.611212e+06
   2.912406e+06  -3.366788e+06
   3.783955e+06  -1.657369e+06
   2.265263e+06   6.135543e+05
  -2.286698e+04   2.020851e+06
  -1.162228e+06   1.570496e+06
  -4.667047e+05  -1.150584e+05
   1.038715e+06  -1.093977e+06
   1.626163e+06  -2.991215e+05
   6.904006e+05   1.028667e+06
  -5.439084e+05   9.761294e+05
  -5.068192e+05  -3.330906e+05
   7.517403e+05  -8.226894e+05
   1.642615e+06   6.741326e+05
   9.631993e+05   2.769176e+06
  -8.891578e+05   3.223693e+06
  -2.605803e+06   1.493865e+06
  -3.173689e+06  -1.000893e+06
  -2.304262e+06  -2.550866e+06
  -4.572326e+05  -2.485615e+06
   1.183801e+06  -1.296394e+06
   1.442192e+06  -1.284005e+05
   4.369845e+05   4.852842e+04
  -3.131735e+05  -6.665540e+05
   3.292458e+05  -1.131186e+06
   1.594185e+06  -4.874719e+05
   1.747501e+06   7.160381e+05
   3.768748e+05   1.190328e+06
  -1.021815e+06   5.233382e+05
  -8.611596e+05  -4.090967e+05
   7.113566e+05  -5.835093e+05
   2.050646e+06   1.591508e+05
   1.730012e+06   1.235612e+06
  -1.534390e+05   1.887102e+06
  -2.099159e+06   1.544194e+06
  -2.491775e+06   2.381957e+05
  -1.057184e+06  -1.091961e+06
   7.950338e+05  -1.247623e+06
   1.296486e+06  -1.350491e+05
   1.197848e+05   9.099574e+05
  -1.335812e+06   6.177987e+05
  -1.526550e+06  -6.736509e+05
  -3.595422e+05  -1.467538e+06
   9.208984e+05  -9.401799e+05
   1.144443e+06   1.952435e+05
   2.846238e+05   6.696075e+05
  -6.609436e+05   5.787498e+04
  -6.202773e+05  -9.295858e+05
   5.506014e+05  -1.240439e+06
   1.796049e+06  -4.248999e+05
   1.777184e+06   9.740642e+05
   3.130518e+05   1.834529e+06
  -1.270111e+06   1.441463e+06
  -1.526104e+06   1.970122e+05
  -4.698701e+05  -7.634801e+05
   5.791166e+05  -7.289495e+05
   6.104209e+05  -5.239962e+04
  -7.636547e+04   4.045498e+05
  -5.120964e+05   2.606728e+05
  -2.413954e+05  -9.153920e+04
   3.362122e+05  -4.723035e+04
   4.990654e+05   5.124290e+05
  -1.299852e+05   1.041366e+06
  -1.217017e+06   7.995316e+05
  -1.846875e+06  -3.818423e+05
  -1.273948e+06  -1.742763e+06
   2.279824e+05  -2.171863e+06
   1.473559e+06  -1.298729e+06
   1.570706e+06   9.095154e+04
   8.432532e+05   8.750429e+05
   2.943185e+05   7.299152e+05
   3.420668e+05   2.849186e+05
   4.675588e+05   2.482164e+05
   6.220454e+04   6.226230e+05
  -7.647151e+05   8.100373e+05
  -1.316356e+06   3.182061e+05
  -9.919303e+05  -6.785174e+05
   2.036250e+05  -1.376722e+06
   1.561918e+06  -9.882985e+05
   2.031148e+06   4.472390e+05
   1.029423e+06   1.876496e+06
  -8.624970e+05   2.096707e+06
  -2.232999e+06   9.400344e+05
  -2.128768e+06  -5.466018e+05
  -9.398321e+05  -1.210726e+06
   1.459291e+05  -9.338832e+05
   4.224949e+05  -5.278595e+05
   1.938871e+05  -6.528464e+05
   1.615732e+05  -1.089841e+06
   5.923254e+05  -1.088349e+06
   1.120942e+06  -2.515867e+05
   1.161035e+06   9.887349e+05
   4.607767e+05   1.702638e+06
  -5.856103e+05   1.273580e+06
  -1.156085e+06  -5.584480e+03
  -7.299399e+05  -1.124244e+06
   3.122720e+05  -1.238777e+06
   9.839680e+05  -4.158180e+05
   7.135389e+05   5.323922e+05
  -5.123030e+04   9.067948e+05
  -4.026224e+05   7.089199e+05
  -4.848985e+04   4.081580e+05
   3.643450e+05   3.238414e+05
   3.688704e+04   3.501780e+05
  -9.983015e+05   1.852958e+05
  -1.795196e+06  -3.036354e+05
  -1.430513e+06  -9.172274e+05
  -2.947279e+03  -1.243135e+06
   1.369527e+06  -9.824942e+05
   1.618573e+06  -2.635178e+05
   7.623796e+05   3.824243e+05
  -2.099333e+05   4.728648e+05
  -4.400710e+05   5.367499e+04
  -2.797967e+03  -3.320360e+05
   4.210219e+05  -2.099980e+05
   4.164946e+05   3.130396e+05
   1.627998e+05   6.602360e+05
   2.988691e+04   4.291631e+05
   1.325938e+05  -1.180108e+05
   2.968338e+05  -2.985877e+05
   2.530978e+05   2.062635e+05
  -1.669930e+05   8.947998e+05
  -8.149113e+05   9.299962e+05
  -1.156235e+06   1.078964e+05
  -6.881288e+05  -8.263259e+05
   3.834239e+05  -9.642214e+05
   1.090311e+06  -2.372344e+05
   6.383153e+05   5.382949e+05
  -6.246631e+05   5.809024e+05
  -1.443680e+06  -8.197727e+04
  -9.554068e+05  -7.786086e+05
   4.014431e+05  -9.236588e+05
   1.367427e+06  -4.763908e+05
   1.149312e+06   1.553965e+05
   1.375677e+05   4.762635e+05
  -5.816276e+05   2.559721e+05
  -3.254693e+05  -2.521709e+05
   5.520886e+05  -4.341918e+05
   1.051096e+06   1.246440e+05
   5.399371e+05   1.082657e+06
  -6.021438e+05   1.495471e+06
  -1.365113e+06   7.387171e+05
  -1.112151e+06  -7.162962e+05
  -1.473930e+05  -1.623033e+06
   6.884992e+05  -1.176727e+06
   8.406204e+05   1.451438e+05
   3.999535e+05   1.077579e+06
  -1.768772e+05   8.934162e+05
  -4.973278e+05   8.413807e+04
  -4.402015e+05  -3.557055e+05
  -1.740009e+05  -1.386524e+05
  -3.467621e+04   9.543149e+04
  -2.067194e+05  -2.454229e+05
  -4.289666e+05  -8.669405e+05
  -1.904572e+05  -9.836774e+05
   6.091018e+05  -3.551536e+05
   1.326449e+06   4.424698e+05
   1.172842e+06   7.757341e+05
   1.607435e+05   6.249443e+05
  -8.023014e+05   3.585278e+05
  -9.002997e+05   1.589741e+05
  -3.019732e+05  -3.408875e+04
   1.449781e+05  -1.968378e+05
   4.411192e+03  -2.035760e+05
  -2.693087e+05  -1.110253e+05
  -3.001541e+04  -1.213353e+05
   6.337673e+05  -1.853577e+05
   9.357921e+05   3.668394e+04
   3.298188e+05   6.188336e+05
  -8.049204e+05   1.022360e+06
  -1.515605e+06   6.308628e+05
  -1.219624e+06  -4.247395e+05
  -2.114160e+05  -1.272858e+06
   7.020556e+05  -1.214509e+06
   9.492619e+05  -4.455349e+05
   5.882413e+05   2.373421e+05
   1.011156e+05   3.223898e+05
  -8.932371e+04   3.745661e+04
   6.542909e+04  -3.579404e+04
   2.795561e+05   3.276298e+05
   2.215698e+05   7.317233e+05
  -1.773794e+05   6.006301e+05
  -6.141407e+05  -1.399427e+05
  -6.299700e+05  -8.841956e+05
  -5.677244e+04  -9.223096e+05
   6.946010e+05  -1.823573e+05
   9.072543e+05   6.874572e+05
   2.785131e+05   9.810669e+05
  -6.535041e+05   5.772605e+05
  -9.897508e+05  -9.071602e+04
  -4.547926e+05  -5.383773e+05
   2.638092e+05  -5.806356e+05
   3.238686e+05  -3.213923e+05
  -2.452250e+05  -2.404332e+04
  -5.902459e+05   2.068167e+04
  -1.192041e+05  -2.734797e+05
   7.528125e+05  -6.005916e+05
   1.121703e+06  -4.861935e+05
   6.606012e+05   1.498069e+05
  -1.010679e+05   7.700192e+05
  -4.876075e+05   7.534826e+05
  -3.595385e+05   1.245668e+05
  -2.744930e+04  -4.396517e+05
   2.245459e+05  -3.744533e+05
   3.131138e+05   1.583706e+05
   2.162114e+05   5.230875e+05
  -5.722982e+04   3.636232e+05
  -3.487302e+05  -5.496298e+04
  -4.175773e+05  -2.441828e+05
  -2.177164e+05  -7.744220e+04
   2.008181e+04   1.180818e+05
   7.725145e+04   6.798043e+03
   2.456227e+04  -3.276620e+05
   9.070023e+04  -4.664265e+05
   2.983532e+05  -1.529230e+05
   3.762653e+05   3.686012e+05
   9.492561e+04   5.833123e+05
  -3.805923e+05   2.653841e+05
  -5.778602e+05  -2.727312e+05
  -2.083559e+05  -5.259570e+05
   4.551214e+05  -3.186743e+05
   7.791077e+05   8.849781e+04
   4.189085e+05   3.462705e+05
  -2.681287e+05   3.404652e+05
  -5.701193e+05   1.779367e+05
  -2.095138e+05   1.149842e+04
   3.317091e+05  -3.789516e+04
   3.711041e+05   8.614728e+04
  -1.744801e+05   2.701185e+05
  -7.005602e+05   2.287310e+05
