
 $NMID
 id='ANONYMOUS ', fmtdat='(2E16.6)'
 volume=1.0
 tramp=1.0
 $END
  -2.477138e+07   1.527630e+06
  -1.612907e+07  -1.423863e+07
   1.963531e+06  -1.703956e+07
   1.181753e+07  -7.536497e+06
   7.750625e+06   2.424467e+06
  -1.075377e+06   4.311803e+06
  -4.534797e+06  -1.044293e+05
  -1.686608e+06  -4.317247e+06
   2.486965e+06  -4.543843e+06
   4.320076e+06  -1.278318e+06
   3.291324e+06   2.616915e+06
   5.383581e+05   3.871827e+06
  -1.723010e+06   1.277409e+06
  -1.273057e+06  -2.496084e+06
   1.565546e+06  -3.151380e+06
   3.599822e+06   3.301587e+05
   2.296291e+06   4.450182e+06
  -1.350008e+06   5.389997e+06
  -4.322285e+06   2.884806e+06
  -4.791966e+06  -6.497355e+05
  -3.047259e+06  -3.087080e+06
  -5.426026e+05  -3.679009e+06
   9.778741e+05  -2.711754e+06
   5.850582e+05  -1.405785e+06
  -5.536705e+05  -1.187049e+06
  -6.139429e+04  -1.967860e+06
   2.469078e+06  -1.992958e+06
   4.362669e+06  -2.857970e+05
   3.193128e+06   1.748712e+06
   1.181003e+05   2.188596e+06
  -1.678082e+06   1.083902e+06
  -1.027194e+06  -7.287236e+04
   4.730048e+05  -4.429956e+05
   1.178428e+06  -1.241468e+05
   9.654840e+05   7.702119e+05
   2.368983e+05   1.795455e+06
  -7.502642e+05   1.694786e+06
  -1.310478e+06  -1.167583e+04
  -7.484151e+05  -1.506111e+06
   2.287559e+05  -7.503034e+05
   6.701388e+04   1.171804e+06
  -1.124143e+06   1.120615e+06
  -1.219748e+06  -1.359902e+06
   8.283813e+05  -2.840158e+06
   2.966322e+06  -7.299811e+05
   2.456067e+06   2.862776e+06
  -5.558060e+05   3.823939e+06
  -3.223098e+06   1.269905e+06
  -3.277843e+06  -1.859838e+06
  -1.021228e+06  -2.747367e+06
   1.547429e+06  -1.363869e+06
   2.512693e+06   5.689950e+05
   1.259341e+06   1.561889e+06
  -1.008578e+06   1.096042e+06
  -2.078907e+06  -2.735293e+05
  -9.814288e+05  -1.167318e+06
   7.273460e+05  -6.660833e+05
   8.471902e+05   4.397485e+05
  -5.412989e+05   5.330409e+05
  -1.229858e+06  -6.226062e+05
   3.158400e+04  -1.543043e+06
   1.923077e+06  -1.055851e+06
   2.433379e+06   3.821195e+05
   1.188407e+06   1.697154e+06
  -7.222496e+05   2.399477e+06
  -2.231764e+06   2.243783e+06
  -2.773166e+06   8.558123e+05
  -2.073594e+06  -1.355678e+06
  -5.084861e+05  -2.780009e+06
   7.381545e+05  -2.257589e+06
   7.916554e+05  -6.947225e+05
   1.854023e+05   4.935951e+04
   1.132629e+05  -4.033274e+05
   7.842593e+05  -7.287158e+05
   1.270709e+06  -3.079487e+04
   8.819873e+05   9.437842e+05
  -5.485697e+04   1.006002e+06
  -7.812687e+05   5.593786e+04
  -8.030194e+05  -1.020663e+06
   1.497965e+03  -1.379988e+06
   1.263623e+06  -7.583672e+05
   2.027236e+06   5.138475e+05
   1.490261e+06   1.639714e+06
   6.715055e+04   1.872379e+06
  -9.348526e+05   1.258329e+06
  -9.582586e+05   5.897436e+05
  -8.351007e+05   3.883515e+05
  -1.386536e+06   2.904034e+05
  -2.064952e+06  -2.910825e+05
  -1.681314e+06  -1.262185e+06
  -1.028866e+05  -1.954997e+06
   1.494186e+06  -1.866548e+06
   1.961531e+06  -1.002442e+06
   1.229661e+06   2.092423e+05
   1.007916e+05   1.042768e+06
  -5.248658e+05   8.878591e+05
  -2.547008e+05  -2.324916e+04
   5.128763e+05  -6.158200e+05
   8.889973e+05  -2.058053e+05
   4.330045e+05   5.458468e+05
  -2.503417e+05   5.259874e+05
  -2.324400e+05  -1.930466e+05
   4.890995e+05  -4.001144e+05
   9.468613e+05   5.125808e+05
   4.448273e+05   1.640842e+06
  -6.550918e+05   1.732971e+06
  -1.509614e+06   6.694522e+05
  -1.664337e+06  -6.341194e+05
  -1.151166e+06  -1.344913e+06
  -2.323680e+05  -1.277803e+06
   5.931332e+05  -7.017237e+05
   7.512158e+05  -1.064675e+05
   2.351344e+05   1.862078e+04
  -1.776863e+05  -3.557614e+05
   1.724711e+05  -6.395168e+05
   8.875959e+05  -3.009721e+05
   9.794962e+05   3.875093e+05
   2.106244e+05   6.670991e+05
  -5.545509e+05   2.889730e+05
  -4.412016e+05  -2.188048e+05
   4.082915e+05  -2.815836e+05
   1.079464e+06   1.257507e+05
   8.733424e+05   6.590127e+05
  -1.056449e+05   9.755684e+05
  -1.106530e+06   8.193598e+05
  -1.329489e+06   1.520289e+05
  -5.939843e+05  -5.870386e+05
   4.132619e+05  -7.160037e+05
   7.271377e+05  -1.096942e+05
   1.023220e+05   5.010625e+05
  -7.138660e+05   3.622249e+05
  -8.327105e+05  -3.558437e+05
  -1.858199e+05  -7.955903e+05
   5.152857e+05  -4.947068e+05
   6.190615e+05   1.289052e+05
   1.377740e+05   3.763655e+05
  -3.752322e+05   4.028062e+04
  -3.582127e+05  -4.933225e+05
   2.660536e+05  -6.796491e+05
   9.525971e+05  -2.683858e+05
   9.757717e+05   4.873416e+05
   1.995725e+05   9.864711e+05
  -6.720370e+05   7.988195e+05
  -8.257806e+05   1.185403e+05
  -2.529900e+05  -4.136502e+05
   3.096153e+05  -3.940389e+05
   3.084356e+05  -3.437708e+04
  -5.908878e+04   1.900875e+05
  -2.539348e+05   1.069726e+05
  -7.550560e+04  -5.077761e+04
   2.195390e+05   8.186835e+03
   2.697878e+05   3.092987e+05
  -7.896547e+04   5.750107e+05
  -6.534316e+05   4.433247e+05
  -9.994875e+05  -1.816464e+05
  -7.137169e+05  -9.175329e+05
   8.978553e+04  -1.161226e+06
   7.723096e+05  -6.933304e+05
   8.236390e+05   5.047497e+04
   4.217635e+05   4.432063e+05
   1.420125e+05   3.334810e+05
   2.078383e+05   1.046861e+05
   2.934234e+05   1.295275e+05
   5.423329e+04   3.548225e+05
  -4.110220e+05   4.425000e+05
  -6.989800e+05   1.692566e+05
  -5.136943e+05  -3.492520e+05
   1.136869e+05  -7.155785e+05
   8.245554e+05  -5.305940e+05
   1.084461e+06   2.183271e+05
   5.639404e+05   1.000626e+06
  -4.573060e+05   1.146161e+06
  -1.208468e+06   5.233584e+05
  -1.143020e+06  -2.942848e+05
  -4.805741e+05  -6.470018e+05
   9.611503e+04  -4.730521e+05
   2.019592e+05  -2.497199e+05
   4.685106e+04  -3.445733e+05
   3.941917e+04  -6.086435e+05
   3.024904e+05  -6.157545e+05
   6.092282e+05  -1.632529e+05
   6.435057e+05   5.064184e+05
   2.769264e+05   9.015890e+05
  -2.892589e+05   6.900032e+05
  -6.177059e+05   8.340612e+03
  -4.038957e+05  -6.065294e+05
   1.695509e+05  -6.764993e+05
   5.532745e+05  -2.184650e+05
   4.043688e+05   3.137545e+05
  -3.533924e+04   5.166285e+05
  -2.413717e+05   3.904825e+05
  -3.788145e+04   2.087947e+05
   2.047945e+05   1.579673e+05
   2.881429e+04   1.824826e+05
  -5.453628e+05   1.135478e+05
  -9.855414e+05  -1.371534e+05
  -7.840745e+05  -4.809461e+05
  -3.681121e+03  -6.881986e+05
   7.418342e+05  -5.620542e+05
   8.762606e+05  -1.529415e+05
   4.138971e+05   2.243630e+05
  -1.129959e+05   2.733853e+05
  -2.458973e+05   2.574384e+04
  -2.054607e+04  -1.929504e+05
   2.109895e+05  -1.220360e+05
   2.314230e+05   1.591421e+05
   1.181844e+05   3.385387e+05
   4.318781e+04   2.222090e+05
   7.055974e+04  -4.953477e+04
   1.421433e+05  -1.413486e+05
   1.352069e+05   1.099067e+05
  -6.597917e+04   4.711210e+05
  -4.208746e+05   5.153507e+05
  -6.387487e+05   9.809201e+04
  -4.072935e+05  -4.230739e+05
   1.837086e+05  -5.427313e+05
   5.885516e+05  -1.701552e+05
   3.518984e+05   2.692599e+05
  -3.315580e+05   3.178094e+05
  -7.666670e+05  -3.571378e+04
  -4.952222e+05  -4.146487e+05
   2.264732e+05  -4.873757e+05
   7.254325e+05  -2.433761e+05
   6.007237e+05   8.657851e+04
   6.811382e+04   2.499906e+05
  -3.121219e+05   1.359936e+05
  -1.869672e+05  -1.345879e+05
   2.744229e+05  -2.491776e+05
   5.612227e+05   3.164885e+04
   3.247032e+05   5.549295e+05
  -2.695535e+05   8.108446e+05
  -7.000729e+05   4.299136e+05
  -6.042288e+05  -3.538201e+05
  -1.081100e+05  -8.561412e+05
   3.494588e+05  -6.262833e+05
   4.494410e+05   7.832649e+04
   2.165628e+05   5.727752e+05
  -1.008626e+05   4.726230e+05
  -2.710257e+05   4.641863e+04
  -2.256207e+05  -1.823392e+05
  -7.843075e+04  -6.989969e+04
  -2.393418e+04   4.810964e+04
  -1.386700e+05  -1.320671e+05
  -2.521725e+05  -4.566129e+05
  -9.839087e+04  -5.215198e+05
   3.402211e+05  -2.011330e+05
   7.098931e+05   2.133680e+05
   6.195158e+05   3.975266e+05
   9.484197e+04   3.340850e+05
  -4.050052e+05   2.023256e+05
  -4.720283e+05   9.257189e+04
  -1.765103e+05  -1.884775e+04
   6.729458e+04  -1.073528e+05
   1.918609e+04  -1.039555e+05
  -1.233332e+05  -4.878173e+04
  -2.541411e+04  -6.089556e+04
   3.112261e+05  -1.124526e+05
   4.996668e+05  -4.681930e+03
   2.165077e+05   3.189911e+05
  -3.874089e+05   5.665097e+05
  -8.038723e+05   3.826831e+05
  -6.784525e+05  -1.851839e+05
  -1.441486e+05  -6.679962e+05
   3.534085e+05  -6.679315e+05
   4.935185e+05  -2.689928e+05
   3.122084e+05   1.047296e+05
   6.855469e+04   1.677811e+05
  -2.730844e+04   2.871385e+04
   4.366867e+04  -8.977807e+03
   1.478275e+05   1.770074e+05
   1.246963e+05   3.872315e+05
  -7.748861e+04   3.263136e+05
  -3.226130e+05  -5.027641e+04
  -3.611680e+05  -4.423230e+05
  -7.025347e+04  -4.863475e+05
   3.500128e+05  -1.262296e+05
   4.986068e+05   3.289337e+05
   1.807894e+05   5.141894e+05
  -3.293159e+05   3.335055e+05
  -5.362821e+05  -2.014506e+04
  -2.668613e+05  -2.868773e+05
   1.253150e+05  -3.314131e+05
   1.796787e+05  -1.855869e+05
  -1.128814e+05  -5.643601e+03
  -3.086356e+05   2.476967e+04
  -7.566372e+04  -1.447813e+05
   3.888777e+05  -3.328502e+05
   6.043724e+05  -2.731052e+05
   3.745667e+05   7.477859e+04
  -3.461089e+04   4.181024e+05
  -2.565620e+05   4.216941e+05
  -2.020939e+05   9.008437e+04
  -3.079075e+04  -2.242558e+05
   1.061319e+05  -2.121399e+05
   1.651336e+05   6.318535e+04
   1.282927e+05   2.725926e+05
  -1.517955e+04   2.072094e+05
  -1.856554e+05  -1.515403e+04
  -2.353163e+05  -1.300999e+05
  -1.201000e+05  -4.586253e+04
   2.378053e+04   7.209190e+04
   4.787037e+04   2.607276e+04
  -1.206924e+04  -1.598135e+05
   4.581771e+03  -2.587363e+05
   1.388429e+05  -1.125082e+05
   2.232584e+05   1.649911e+05
   8.897724e+04   2.989203e+05
  -1.871697e+05   1.548283e+05
  -3.207282e+05  -1.199486e+05
  -1.283645e+05  -2.672067e+05
   2.391535e+05  -1.828367e+05
   4.235641e+05   2.101685e+04
   2.347877e+05   1.735480e+05
  -1.322353e+05   1.982630e+05
  -2.998190e+05   1.220315e+05
  -1.223815e+05   1.624090e+04
   1.558768e+05  -3.516985e+04
   1.883320e+05   2.257300e+04
  -7.603103e+04   1.338509e+05
  -3.452504e+05   1.317528e+05
