
 $NMID
 id='ANONYMOUS ', fmtdat='(2E16.6)'
 volume=1.0
 tramp=1.0
 $END
  -4.730084e+03  -1.382964e+02
  -2.742590e+03  -2.583563e+03
   9.794680e+02  -3.005738e+03
   2.155054e+03  -9.631412e+02
   1.046803e+03   7.272474e+02
  -8.852883e+02   5.799488e+02
  -1.024529e+03  -4.404207e+02
   1.449118e+02  -1.153466e+03
   8.822227e+02  -1.044478e+03
   1.008486e+03  -1.713167e+02
   6.373212e+02   9.649012e+02
  -1.544881e+02   1.031797e+03
  -7.253605e+02   1.536048e+02
  -4.264184e+02  -8.781718e+02
   1.474911e+02  -8.667721e+02
   9.203162e+02  -9.163264e+01
   3.559780e+02   7.892949e+02
  -3.718855e+02   7.460290e+02
  -4.379807e+02   1.102758e+02
  -1.907204e+02  -5.008106e+02
   2.730818e+01  -5.351300e+02
   3.046224e+02  -2.269703e+02
   2.329342e+02   9.917328e+01
  -1.841746e+02   2.070382e+02
  -4.264058e+02   2.072107e+01
  -4.598649e+02  -4.435160e+02
   3.623883e+02  -4.363394e+02
   9.232993e+02   5.061255e+01
   5.995709e+02   6.385301e+02
  -4.587947e+02   6.124053e+02
  -6.955595e+02  -4.885878e+01
  -4.231960e+02  -4.736467e+02
   2.583105e+02  -5.280507e+02
   6.822549e+02  -1.463354e+02
   3.412558e+02   2.436560e+02
   2.055398e+01   4.942362e+02
  -3.262478e+02   3.164785e+02
  -2.347856e+02  -2.917397e+02
   1.708654e+02  -5.737084e+02
   5.404011e+02  -4.655677e+01
   2.740248e+02   8.156554e+02
  -4.023653e+02   8.079310e+02
  -7.063363e+02  -5.172863e+01
  -2.584827e+02  -6.921854e+02
   4.106840e+02  -3.701257e+02
   5.146554e+02   3.544043e+02
  -5.136712e+01   6.297937e+02
  -6.267991e+02   1.703184e+02
  -6.709315e+02  -4.108912e+02
  -1.884773e+02  -6.386439e+02
   4.319794e+02  -4.020086e+02
   7.517548e+02   8.424285e+01
   3.739035e+02   4.746576e+02
  -1.997992e+02   4.459061e+02
  -4.824222e+02   3.253845e+01
  -1.985303e+02  -2.787516e+02
   1.947273e+02  -1.507056e+02
   1.752647e+02   2.517915e+02
  -2.042275e+02   2.921216e+02
  -4.111742e+02  -5.378342e+00
  -2.113297e+02  -3.618899e+02
   2.095259e+02  -3.056574e+02
   3.506810e+02  -7.445986e+01
   1.950112e+02   1.019399e+02
  -5.722262e+01   2.445785e+02
  -2.348328e+02   4.019400e+02
  -4.148252e+02   2.284860e+02
  -3.271311e+02  -1.715143e+02
  -5.522743e+01  -5.342108e+02
   1.710375e+02  -4.179895e+02
   1.599806e+02  -6.883945e+01
   1.582044e+01   6.188379e+01
   2.665586e+01  -1.338220e+02
   1.933620e+02  -1.517570e+02
   3.145656e+02   6.211071e+01
   1.857475e+02   3.961002e+02
  -4.025144e+01   2.595941e+02
  -2.894024e+02   4.945448e+01
  -2.614505e+02  -2.406624e+02
  -7.522439e+01  -3.451740e+02
   2.543291e+02  -1.788296e+02
   3.832290e+02   1.264600e+02
   2.429350e+02   3.727309e+02
  -5.261389e+01   2.880552e+02
  -2.294752e+02   9.143991e+01
  -1.383234e+02  -5.642603e+00
  -9.921389e+01   1.160499e+02
  -2.850832e+02   1.304054e+02
  -4.259272e+02  -3.746534e+01
  -3.605207e+02  -2.750636e+02
   2.934936e+01  -4.394208e+02
   3.804292e+02  -3.870697e+02
   5.894321e+02  -2.632785e+02
   3.462152e+02   1.283286e+02
  -5.267214e+00   2.953996e+02
  -1.850259e+02   2.925011e+02
  -8.801678e+01   6.039124e+01
   1.265144e+02  -1.356840e+02
   2.585347e+02   8.285920e+00
   5.213340e+01   1.731797e+02
  -1.803541e+02   1.739828e+02
  -2.193082e+02  -1.143110e+02
   3.912464e+01  -2.136493e+02
   2.468050e+02  -5.328912e+01
   2.131990e+02   3.041802e+02
  -1.523705e+00   3.837850e+02
  -2.311078e+02   1.732931e+02
  -3.397513e+02  -7.596285e+01
  -3.234340e+02  -2.751511e+02
  -1.135586e+02  -2.575195e+02
   1.311305e+02  -1.760970e+02
   2.524550e+02   3.553932e+01
   8.785129e+01   6.652164e+01
  -9.355869e+01  -5.097114e+01
  -2.678263e+01  -1.388897e+02
   1.602330e+02  -8.439628e+01
   1.575119e+02   4.922155e+01
  -5.510583e+00   5.527279e+01
  -1.330346e+02   4.391625e+00
  -3.224354e+01  -9.892071e+01
   2.065506e+02  -1.415788e+02
   3.195157e+02  -1.984031e+01
   2.484994e+02   1.578469e+02
   5.226723e+01   2.281835e+02
  -1.525823e+02   3.199904e+02
  -2.528794e+02   1.354470e+02
  -2.226583e+02  -6.234817e+01
   4.753730e+01  -1.119631e+02
   8.720577e+01   8.062674e+00
  -4.579940e+01   1.211959e+02
  -2.216481e+02   8.626679e+01
  -2.203802e+02  -1.703299e+02
  -4.392560e+01  -2.074374e+02
   1.029883e+02  -1.595799e+02
   1.779386e+02   2.969994e+00
   7.853618e+01   5.022193e+01
  -7.162762e-01   2.816620e+01
  -3.379100e+01  -6.158305e+01
   4.910177e+01  -8.278638e+01
   2.002995e+02  -2.794150e+01
   2.078932e+02   1.141674e+02
   3.237963e+01   2.338151e+02
  -1.884101e+02   1.721905e+02
  -1.874946e+02  -1.164689e+01
  -6.223067e+01  -1.127585e+02
   5.039043e+01  -1.566852e+02
   5.421528e+01  -3.461722e+01
   9.373197e+00  -5.512041e+00
  -4.147084e+01   2.674639e+01
   1.075356e+01  -3.909571e+01
   1.234472e+02  -1.876646e+01
   1.006547e+02   1.127431e+02
   2.930344e+01   1.377398e+02
  -1.186338e+02   1.773322e+02
  -2.352244e+02   4.535091e+01
  -2.418069e+02  -9.866796e+01
  -5.737268e+01  -2.588997e+02
   1.081907e+02  -1.749366e+02
   1.522934e+02  -2.526049e+01
   6.305137e+01   1.889578e+01
  -1.433493e+00   1.401403e+01
   3.905829e+01  -3.874703e+01
   7.524866e+01   1.887819e+01
   2.105392e+00   7.657370e+01
  -3.510159e+01   7.734838e+01
  -1.059890e+02   4.473872e+01
  -9.109944e+01  -6.989196e+01
   9.979282e+00  -7.092252e+01
   1.500342e+02  -6.497617e+01
   1.805532e+02   3.104830e+01
   9.861341e+01   1.983790e+02
  -1.130817e+02   2.559688e+02
  -3.316390e+02   1.076175e+02
  -2.636178e+02  -1.148301e+02
  -1.075884e+02  -1.788509e+02
   4.150741e+01  -1.249659e+02
   1.025985e+02  -1.150718e+02
   9.081478e+01  -3.460252e+01
   8.528357e+01  -1.088293e+02
   1.248983e+02  -3.903552e+01
   1.192927e+02   8.591013e+01
   1.162734e+02   1.560547e+02
   1.352128e+01   2.608947e+02
  -1.073083e+02   1.919455e+02
  -2.109544e+02   1.783265e+01
  -1.477946e+02  -1.246337e+02
  -1.210167e+01  -1.828308e+02
   1.119149e+02  -8.405215e+01
   7.949388e+01   1.670170e+01
  -8.756972e+00   7.441025e+01
   1.071345e+01  -2.267405e+01
   5.844207e+01  -3.317490e+00
   9.638429e+01   6.272313e+01
   9.098365e+01   6.767846e+01
  -7.412331e+01   9.029049e+01
  -1.543932e+02   1.283620e+01
  -1.407713e+02  -3.049759e+01
  -1.715625e+01  -8.858040e+01
   1.235250e+02  -8.262844e+01
   1.532015e+02  -4.338361e+01
   5.781184e+01   4.473695e+01
  -1.026244e+02   3.969365e+01
  -6.118822e+01  -1.695988e+01
   2.147910e+01  -1.210123e+02
   1.457479e+02  -4.139943e+01
   9.781388e+01   1.098604e+01
   2.605716e+01   7.277135e+01
   2.372808e+01   5.575004e+01
   7.675411e+01  -4.634979e+00
   9.098669e+01  -2.113587e+01
   3.942731e+01   8.452186e+01
  -7.483362e+00   1.454450e+02
  -1.026055e+02   1.413896e+02
  -1.537274e+02   3.306217e+01
  -1.058423e+02  -1.076715e+02
  -2.567377e+01  -1.731803e+02
   4.037153e+01  -7.180170e+01
   6.910841e+01   2.311759e+01
  -3.607696e+01   4.507835e+01
  -1.508165e+02  -4.495824e+01
  -5.774883e+01  -1.364213e+02
   9.404612e+01  -1.121491e+02
   2.070268e+02  -8.547169e+01
   1.775725e+02   2.560327e+01
   5.858120e+01   7.729547e+01
  -7.022835e+01   1.143813e+02
  -1.907016e+01   4.314757e+01
   2.918049e+01  -3.826343e+00
   7.641844e+01   4.919858e+01
   4.008834e+01   8.509375e+01
  -1.190965e+02   1.425852e+02
  -1.627237e+02   9.603300e+01
  -1.638034e+02  -1.127437e+02
  -5.684482e+01  -1.718479e+02
   1.206398e+02  -1.489766e+02
   1.128216e+02   3.920840e+01
   8.295928e+01   1.185694e+02
  -2.531309e+01   9.704561e+01
  -7.194386e+01   5.026755e+01
  -8.842596e+01  -5.291400e+01
  -7.516974e+01  -4.612519e+01
  -1.093234e+00  -1.148634e+01
  -4.104797e+01  -3.483786e+01
  -4.660873e+01  -8.589414e+01
  -7.610261e+01  -6.224279e+01
   6.125651e+01  -8.583791e+01
   1.227442e+02   1.582005e+01
   8.995056e+01   6.095862e+01
   7.774315e+00   6.188295e+01
  -8.435814e+01   6.632291e+01
  -1.011131e+02   4.313271e+01
   1.376405e+01  -4.774863e+01
   6.043498e+01  -3.936319e+01
  -8.005116e+00  -2.650000e+01
  -2.655875e+01  -8.683173e+00
   4.035022e+01  -4.290053e-01
   9.389902e+01  -5.612669e+00
   8.700051e+01   5.042251e+01
  -1.864126e+01   7.430522e+01
  -1.089878e+02   1.038532e+02
  -1.972073e+02   1.048853e+02
  -1.423349e+02  -6.382634e+01
  -3.232938e+01  -1.474092e+02
   4.845081e+01  -1.608191e+02
   1.233288e+02  -5.526065e+01
   8.917892e+01   5.459235e+01
   4.413135e+01   5.966206e+01
  -1.988987e+01   1.414348e+01
  -6.319513e+00   6.122284e+00
  -1.334486e+01   4.781054e+01
  -2.578394e+01   4.428296e+01
  -2.230428e+01   5.146408e+01
  -5.508875e+01  -6.333999e+01
  -4.714265e+01  -1.009431e+02
  -1.200143e+01  -1.098982e+02
   8.479529e+01  -5.671220e+00
   1.168282e+02   5.468437e+01
   3.333073e+01   8.098889e+01
  -3.731175e+01   7.682965e+01
  -1.003565e+02   1.617191e+01
  -1.367688e+01  -6.856601e+01
   3.392717e+01  -5.019431e+01
   4.333862e+01  -2.884020e+01
  -5.245605e+00  -1.029833e+01
  -4.279516e+01   8.705405e+00
  -1.431422e+01  -1.590742e+01
   7.596307e+01  -7.856718e+01
   1.192249e+02  -3.210448e+01
   4.033698e+01   3.492918e+01
  -1.030524e+01   8.294547e+01
  -3.296811e+01   8.980360e+01
  -4.772272e+01   2.375248e+01
  -2.027683e+01  -8.557289e+01
   3.713776e+01  -1.879044e+01
   2.989753e+01  -4.710619e+01
   5.349088e+01   6.629092e+01
   6.530541e+00   1.728968e+01
  -8.120715e+01  -3.571527e+01
  -5.359577e+01  -3.699131e+01
  -1.876303e+01  -3.265533e+00
  -1.165832e+01  -3.453587e+00
   5.046430e+01  -2.563393e+01
   4.574873e+01  -6.305359e+01
   2.860486e+01  -3.949062e+01
   5.516388e+01   1.659391e+01
   3.930623e+01   5.798201e+01
  -4.982880e+01   8.207780e+01
  -7.769625e+01   1.286042e+01
  -6.421569e+01  -6.677194e+01
  -6.062559e+00  -4.431723e+01
   8.639490e+01  -1.518264e+01
   8.600258e+01  -3.348004e+01
   5.253892e+01   5.686683e+01
  -7.211133e+01   1.186434e+01
  -3.376205e+01   1.196397e+01
  -1.079813e+01  -2.607015e+01
   8.777009e+01   3.023675e+00
   2.174962e+01   5.803319e+01
  -7.175395e+01   2.499700e+01
  -1.112824e+02   2.563257e+01
