
 $NMID
 id='ANONYMOUS ', fmtdat='(2E16.6)'
 volume=1.0
 tramp=1.0
 $END
   2.555203e+03   1.629796e+02
   1.759869e+03   1.241916e+03
   5.221816e+01   1.576834e+03
  -9.939554e+02   1.061208e+03
  -9.324627e+02   2.989364e+02
  -1.310526e+02  -7.086218e+00
   2.275770e+02   6.480456e+01
   6.561268e+00   4.289410e+02
  -3.946325e+02   5.024019e+02
  -6.572787e+02   6.242752e+01
  -3.714257e+02  -6.173431e+02
  -8.939936e+01  -5.651616e+02
   3.528040e+02  -2.137256e+02
   2.747835e+02   3.437281e+02
  -1.417965e+02   5.562981e+02
  -3.119765e+02   7.515958e+00
  -3.784275e+02  -3.887748e+02
  -5.612063e+01  -5.086542e+02
   4.863055e+02  -3.047247e+02
   3.429289e+02   2.056758e+02
   1.158894e+02   3.480006e+02
  -2.022375e+02   1.858296e+02
  -1.736723e+01   2.258903e+02
   1.564293e+02   1.216029e+02
   1.202133e+02   3.201399e+02
  -1.176915e+02   3.501908e+02
  -4.360945e+02   1.453353e+02
  -4.822465e+02  -2.987151e+02
  -9.954061e+01  -3.083859e+02
   3.707875e+02  -1.094735e+01
   3.141500e+02   1.914569e+02
   1.380902e+02   3.373787e+02
  -1.761212e+02   1.769586e+02
  -4.262147e+02   9.802488e+01
  -2.450265e+02  -1.198009e+02
  -1.211112e+02  -1.711837e+02
  -2.684311e+01  -6.979561e+01
  -1.403104e+01  -3.889458e+01
  -7.145542e+01   3.278073e+00
  -1.222185e+02  -1.333810e+02
  -2.676281e+01  -3.123065e+02
   1.269460e+02  -3.329854e+02
   1.901915e+02  -2.817588e+01
   1.262359e+02   1.250150e+02
  -7.318625e+01   6.777649e+01
  -1.164378e+02  -1.897877e+02
   6.904963e+01  -2.571831e+02
   3.607477e+02  -2.648255e+01
   4.166354e+02   2.991597e+02
   1.236850e+02   3.559266e+02
  -2.590807e+02   1.753050e+02
  -4.183989e+02  -7.666802e+01
  -2.816993e+02  -1.840636e+02
   5.389367e+01  -1.607355e+02
   2.290147e+02  -6.544238e+01
   1.619512e+02  -7.188806e+01
   3.579429e+01  -2.377405e+01
  -1.292477e+01  -3.882732e+01
   1.023994e+02   1.365528e+01
   1.664726e+02   4.528001e+01
   7.697656e+01   1.784520e+02
  -1.513243e+02   2.169111e+02
  -2.824886e+02   1.582399e+02
  -2.181551e+02  -6.461938e+01
   3.428616e+01  -3.010314e+02
   2.952884e+02  -3.599787e+02
   2.877037e+02  -1.656603e+02
   1.640563e+02   1.107749e+02
   5.914435e+01   2.923744e+02
   1.559405e+01   3.237973e+02
  -6.574098e+00   1.874180e+02
  -3.367575e+01   1.475546e+02
  -1.276964e+02   7.775254e+01
  -1.691553e+02   1.884716e+01
  -1.705119e+02  -1.271374e+02
  -8.397968e+01  -1.953415e+02
   4.296618e+01  -1.817568e+02
   1.828860e+02   7.442492e+01
   9.536884e+01   2.411598e+02
  -1.358100e+01   2.095938e+02
  -2.389821e+02   4.476023e+01
  -2.829640e+02  -1.852885e+02
  -1.430236e+02  -2.679779e+02
   5.200244e+01  -2.356680e+02
   1.119495e+02  -1.465074e+02
   1.078242e+02  -7.446264e+01
   1.765719e+02  -1.109347e+01
   2.794509e+02   5.750217e+00
   4.044355e+02   9.871380e+01
   3.042212e+02   2.769853e+02
   1.476352e+01   3.446154e+02
  -3.111075e+02   3.439676e+02
  -4.493005e+02   1.944089e+02
  -3.097514e+02  -1.416425e+01
  -7.033927e+01  -1.876648e+02
   3.034795e+01  -1.624349e+02
   9.660195e+00  -1.018995e+02
  -1.074671e+02   1.302619e+01
  -9.206925e+01  -9.140986e+01
   1.092162e+01  -1.068976e+02
   1.217226e+02  -1.002879e+02
   9.571399e+01   6.018553e+01
  -4.461605e+01   1.112457e+02
  -1.415880e+02   1.693789e+01
  -1.596066e+02  -1.970039e+02
   7.927485e+00  -3.213663e+02
   1.817075e+02  -1.982912e+02
   3.019618e+02   2.268847e+01
   3.024417e+02   2.638323e+02
   6.125465e+01   2.868848e+02
  -1.240599e+02   1.444195e+02
  -1.365642e+02   6.721885e+01
  -4.923540e+01  -2.193645e+00
   1.683500e+01   1.597751e+01
  -4.417662e+00   9.099898e+01
  -1.333079e+02   2.933578e+01
  -1.201298e+02  -6.958035e+01
  -2.336708e+01  -3.793438e+01
   8.462268e+01   3.533040e+01
   1.929593e+01   7.767817e+01
  -1.250308e+02   1.156886e+02
  -3.245943e+02   1.353422e+01
  -2.504921e+02  -1.743500e+02
  -6.261644e+01  -2.368260e+02
   1.616507e+02  -2.102594e+02
   2.634459e+02  -1.058483e+02
   1.667338e+02   7.645378e+01
   5.944026e+00   7.807276e+01
  -6.230972e+01   1.297317e+01
   4.977443e+00  -3.140501e+01
   1.277568e+02  -2.559392e+01
   1.782030e+02   5.971304e+01
   5.850510e+01   1.710080e+02
  -4.013905e+01   1.075607e+02
  -6.645707e+01  -1.363422e+01
  -4.948407e+01  -3.144785e+01
   2.748693e+01   4.905115e+01
   1.977980e+01   1.309116e+02
  -8.570340e+01   1.582176e+02
  -1.968177e+02  -2.672306e+01
  -1.447613e+02  -1.499744e+02
  -4.106540e+01  -2.317985e+02
   1.154560e+02  -1.229906e+02
   1.824640e+02   3.514310e+01
   7.437019e+01   6.896786e+01
  -4.186436e+01   9.897988e+01
  -9.075795e+01   3.915157e+01
  -3.206623e+01  -2.439954e+01
   3.176447e+01   2.493770e+00
   3.403882e+01   7.297225e+01
  -5.094247e+01   4.001050e+00
  -9.181116e+01  -8.264110e+01
  -3.401461e+01  -1.381548e+02
   9.995212e+01  -1.203401e+02
   2.191718e+02   6.104936e-01
   1.641104e+02   1.388023e+02
   4.672790e+01   2.124444e+02
  -9.296468e+01   1.655933e+02
  -1.383037e+02   4.125453e+01
  -5.625321e+01  -5.656360e+01
  -3.933343e+01  -4.753790e+01
  -6.840652e+01  -1.014945e+01
  -8.008909e+01   1.197725e+01
  -7.789678e+01  -4.823532e+01
   8.843544e+00  -7.519068e+01
   1.303973e+02  -7.696787e+01
   8.958743e+01   5.690922e+01
   1.255080e+00   1.190678e+02
  -1.256569e+02   9.570617e+01
  -1.794903e+02  -4.491393e+01
  -9.068618e+01  -1.959456e+02
   1.011241e+02  -2.340213e+02
   2.390914e+02  -8.882370e+01
   1.906461e+02   5.661637e+01
   9.874134e+01   1.475783e+02
  -1.754637e+01   1.419809e+02
  -7.688791e+01   6.846401e+01
  -2.465524e+01   7.916393e+01
  -5.300181e+01   7.285317e+01
  -8.750101e+01   9.684452e+01
  -1.477146e+02   2.699688e+00
  -1.178780e+02  -1.349367e+02
  -2.440478e+01  -1.790172e+02
   8.738742e+01  -1.584415e+02
   1.445973e+02  -7.124679e+00
   1.069197e+02   8.308701e+01
   2.757422e+01   1.233080e+02
  -5.536494e+01   6.372951e+01
  -8.840140e+01   1.040923e+01
   5.762371e+00  -1.719122e+01
   5.994351e+00  -5.923100e+01
  -1.499814e+01  -1.413557e+01
  -4.758416e+01  -3.192660e+01
  -1.153278e+01  -5.598920e+00
   5.935292e+01  -4.646117e+01
   1.169037e+02  -1.766729e+00
   1.283501e+02   1.181299e+02
  -2.264460e+01   1.072208e+02
  -8.317821e+01   7.258067e+01
  -1.121645e+02  -2.037515e+01
  -1.528191e+01  -6.209019e+01
   7.153829e+01  -9.145765e+01
   7.798016e+01   8.231092e+00
   4.772844e+00   6.530149e+01
  -4.452407e+01   6.366204e+01
  -8.196822e+01   2.757346e+01
  -7.003140e+01  -6.606288e+00
  -6.148884e+01  -3.405104e+01
  -6.906172e+01  -1.849953e+01
  -3.859121e+01  -3.992293e+01
  -4.540838e+01  -9.542759e+01
   5.309037e+00  -1.667575e+02
   9.863688e+01  -1.161175e+02
   1.766483e+02   3.548653e+01
   1.566530e+02   1.256846e+02
   1.631526e+01   1.219933e+02
  -5.977682e+01   5.679580e+01
  -8.040045e+01  -8.162002e+00
   2.055247e+01  -3.504973e+01
   1.157220e+02   2.435322e+01
   7.458407e+01   7.870443e+01
  -5.383375e+01   7.038822e+01
  -1.484644e+02   4.836954e+01
  -1.344188e+02  -4.808015e+01
  -5.074331e+01  -6.307190e+01
   6.524555e+01  -3.299832e+01
   4.831982e+01   1.958921e+01
  -1.688892e+01  -6.058471e+00
  -1.028024e+02  -5.057538e+00
  -4.113564e+01  -1.180543e+02
   7.364255e+01  -1.353132e+02
   1.368656e+02  -6.312329e+01
   1.264821e+02   9.745390e+01
   4.930418e+01   1.694606e+02
  -8.620436e+01   1.388965e+02
  -8.703539e+01   1.609988e+01
  -8.283829e+01  -1.039916e+02
  -3.056387e+01  -4.891811e+01
   2.848504e+01  -4.073179e+01
   3.974182e+01  -2.858658e+01
  -2.621845e+01  -4.866181e+01
   1.017728e+01  -1.743338e+01
   6.061617e+01  -2.298770e+01
   6.597151e+01   7.477544e+01
   3.075851e+01   1.245188e+02
  -5.667384e+01   6.851028e+01
  -1.227633e+02  -3.976107e+01
  -9.915691e+01  -4.919598e+01
  -3.815237e+01  -7.267231e+01
   5.462775e+01  -4.879601e+01
   6.800224e+01  -4.016716e+00
   2.239845e+01   2.665203e+01
  -4.500798e+01   4.000476e+01
  -1.458996e+01   5.609186e+01
   1.699592e+01   4.145009e+00
  -2.126799e+01   1.614403e+01
  -4.363946e+01  -3.048923e+01
  -5.292200e+01  -1.717335e+01
  -1.478577e+01  -9.803864e+01
   9.042068e+01  -1.029032e+02
   1.821585e+02  -4.957039e+01
   1.649676e+02   6.369895e+01
   4.541757e+01   1.712311e+02
  -8.287185e+01   1.468399e+02
  -1.190557e+02   4.617944e+01
  -7.277650e+01  -6.245752e+00
  -2.486086e+01  -2.617246e+01
  -1.704490e+01  -3.265353e+01
  -6.733134e+01  -1.798918e+01
  -5.754975e+01  -2.391413e+01
  -2.270966e+01  -1.028691e+02
   2.263313e+01  -7.028204e+01
   4.609775e+01   7.425876e+00
   7.393837e+01   8.331069e+01
   1.160022e+01   8.501686e+01
  -6.572821e+01   4.524443e+01
  -1.018423e+02  -3.599878e+01
  -3.352321e+01  -8.207217e+01
   7.288458e+01  -7.984996e+01
   1.119783e+02   4.455192e+01
   5.740600e+01   4.168808e+01
  -5.437638e+01   6.462552e+01
  -5.305284e+01   2.463021e+01
  -1.610380e+01  -2.671146e+01
   4.556224e+01  -2.353133e+00
   5.052695e+01   2.479718e+01
  -6.992857e+01   3.700337e+01
  -9.166130e+01   5.824369e+01
  -3.136933e+01  -8.539849e+00
   3.271176e+01  -9.555944e+01
   4.169103e+01  -6.480305e+01
   2.158237e+01  -2.149710e+01
  -2.684244e+01   5.737034e+01
  -2.862702e+01   5.997989e+01
  -1.807826e+01   1.744536e+01
  -1.395280e+00  -2.229569e+01
  -2.165165e+01  -3.863644e+01
   4.008828e+01  -1.628365e+01
   2.576841e+01  -2.239156e+00
   4.407612e+01   1.411875e+00
  -9.199915e+00  -3.500140e+01
  -3.930216e+01  -8.601879e+00
   1.188707e+01   1.885150e+01
   4.968277e+01   6.881654e+01
  -1.936942e+01   1.397090e+01
  -3.829489e+01  -2.884202e+01
  -9.402514e+00  -4.726363e+01
   2.696660e+01  -2.155451e+01
   7.280191e+01   3.385527e+01
   1.263702e+01   3.902699e+01
  -4.926916e+01   4.637906e+01
  -8.341126e+01   1.472491e+01
  -6.104545e+01   8.954074e+00
   1.330952e+01  -4.112266e+00
   6.290286e+01  -3.497268e+01
  -1.024417e+01  -4.827485e+01
  -4.609417e+01  -6.830481e-01
  -2.549407e+00   4.977677e+00
   3.769434e+01  -1.988609e+01
   9.336412e+01  -3.731274e+00
