
 $NMID
 id='ANONYMOUS ', fmtdat='(2E16.6)'
 volume=1.0
 tramp=1.0
 $END
   4.188475e+03   7.932879e+01
   2.637554e+03   2.167565e+03
  -5.319890e+02   2.760551e+03
  -1.666513e+03   1.166079e+03
  -1.136527e+03  -4.025256e+02
   5.045321e+02  -5.301726e+02
   7.401628e+02   3.405489e+02
   2.476518e+01   8.219105e+02
  -6.851831e+02   7.066124e+02
  -9.040771e+02   6.949461e+01
  -3.878683e+02  -6.625542e+02
   3.528235e+01  -8.020384e+02
   5.173496e+02  -1.059981e+02
   3.148554e+02   6.892013e+02
  -8.375752e+01   6.060681e+02
  -3.212971e+02   3.768373e+01
  -2.329546e+02  -6.845920e+02
   2.046831e+02  -7.389142e+02
   4.347439e+02  -6.705319e+01
   4.406793e+02   2.113043e+02
   1.343749e+02   4.695877e+02
  -1.862704e+02   3.015379e+02
  -3.030760e+02   2.252977e+02
   1.711262e+02  -2.151593e+01
   4.664451e+02   1.066179e+02
   1.813677e+02   3.599619e+02
  -4.254458e+02   4.383801e+02
  -7.071522e+02   5.011546e+01
  -3.840557e+02  -4.815276e+02
   2.576347e+02  -4.983023e+02
   5.926524e+02   1.014257e+02
   2.967408e+02   3.280844e+02
  -2.501975e+02   4.837645e+02
  -5.515573e+02   1.618101e+02
  -4.609609e+02  -1.722885e+02
   1.249053e-01  -4.200777e+02
   2.488330e+02  -2.515028e+02
   1.125605e+02   1.864587e+02
  -1.487074e+02   3.944985e+02
  -3.298507e+02  -3.516870e+01
  -1.473294e+02  -6.157985e+02
   2.790332e+02  -6.953873e+02
   5.080774e+02   1.087423e+01
   2.146573e+02   4.900282e+02
  -2.324716e+02   2.958049e+02
  -3.601318e+02  -3.297093e+02
   7.107941e+01  -5.265712e+02
   5.412821e+02  -1.083029e+02
   5.928024e+02   3.493790e+02
   2.314446e+02   5.368855e+02
  -3.247320e+02   3.281321e+02
  -5.888426e+02  -6.411746e+01
  -3.724307e+02  -3.175121e+02
   1.368695e+02  -3.353267e+02
   4.202581e+02  -8.038232e+01
   2.433376e+02   1.345173e+02
  -9.159039e+01   9.753516e+01
  -1.427926e+02  -1.182618e+02
   1.690441e+02  -1.408425e+02
   3.680168e+02   7.124900e+01
   2.044859e+02   2.523028e+02
  -1.836387e+02   2.298902e+02
  -3.121788e+02   1.066928e+02
  -2.347852e+02  -2.477400e+01
   2.536404e+01  -2.209343e+02
   2.688243e+02  -3.181681e+02
   3.107331e+02  -1.899080e+02
   2.685248e+02   1.559563e+02
   4.573836e+01   4.070068e+02
  -1.073956e+02   3.842778e+02
  -9.973449e+01   1.257079e+02
  -4.070579e+01   9.918700e+00
  -9.162915e+01   1.496816e+01
  -1.822094e+02   8.149048e+01
  -2.292780e+02  -5.080763e+01
  -1.404762e+02  -2.500247e+02
   5.676544e+01  -2.426178e+02
   1.710284e+02  -3.269497e+01
   1.721628e+02   1.891968e+02
   9.298918e+00   2.670657e+02
  -2.647641e+02   1.107872e+02
  -3.411898e+02  -1.515006e+02
  -1.416445e+02  -2.981132e+02
   1.270929e+02  -3.023823e+02
   1.976768e+02  -1.443598e+02
   1.240186e+02  -1.205746e+01
   5.624671e+01  -3.542175e+01
   2.165709e+02  -7.557758e+01
   3.994639e+02   7.146371e+01
   3.311014e+02   2.783905e+02
   2.744201e+01   4.498007e+02
  -3.170849e+02   3.648455e+02
  -4.996170e+02   1.661578e+02
  -3.406090e+02  -1.288573e+02
  -3.370986e+01  -3.188920e+02
   1.680942e+02  -2.336576e+02
   1.292266e+02   2.257506e+01
  -1.077707e+02   1.560439e+02
  -2.073534e+02  -4.960159e+00
  -7.427962e+01  -1.859612e+02
   1.655131e+02  -1.954386e+02
   1.617576e+02   7.101151e+00
  -3.374895e+01   1.930650e+02
  -1.736238e+02   3.982688e+01
  -1.499833e+02  -2.085451e+02
   1.361428e+01  -3.076558e+02
   2.537641e+02  -1.701024e+02
   3.786242e+02   5.029508e+01
   2.904203e+02   2.709818e+02
   4.595574e+01   2.788893e+02
  -1.435097e+02   1.721516e+02
  -1.815545e+02   1.184977e+01
  -2.874062e+01  -3.203831e+01
   6.334454e+01   7.009679e+01
   1.099552e+01   1.296303e+02
  -1.380572e+02   8.662241e+01
  -1.505144e+02  -1.609153e+01
  -2.776975e+01  -2.366453e+01
   8.658600e+01   7.709027e+00
   2.767579e+01   6.981091e+01
  -8.553519e+01   6.165439e+01
  -1.872761e+02   1.028492e+01
  -2.524889e+02  -1.076222e+02
  -8.089542e+01  -1.857656e+02
   1.309151e+02  -2.363409e+02
   2.543378e+02  -1.078035e+02
   1.653495e+02   1.252230e+01
  -1.448232e+01   1.167299e+02
  -5.226019e+01   1.960007e+01
   5.480630e+01  -9.219174e+01
   2.047516e+02  -7.532663e+01
   2.139273e+02   9.570451e+01
   5.525058e+01   2.207074e+02
  -9.726079e+01   1.193624e+02
  -1.573294e+02   2.954762e+01
  -4.156438e+01  -6.021189e+01
   4.822208e+01   1.958042e+01
   8.188029e+01   6.680524e+01
  -9.773013e+01   1.260192e+02
  -1.911492e+02   3.544030e+01
  -1.573083e+02  -7.768941e+01
   1.991620e+01  -2.024498e+02
   1.605923e+02  -1.378924e+02
   1.649127e+02   7.728847e+00
   3.074616e+01   1.210559e+02
  -1.089373e+02   9.493829e+01
  -9.500489e+01  -1.300883e+01
   5.248413e+01  -7.270044e+01
   7.442467e+01   1.320836e+00
  -9.939018e-01   2.096656e+01
  -1.007259e+02  -1.291891e+01
  -1.178687e+02  -6.291861e+01
  -2.625708e+01  -1.302278e+02
   1.489908e+02  -1.561889e+02
   2.402705e+02  -1.526596e+01
   1.714002e+02   1.333850e+02
   4.726466e+01   2.023882e+02
  -1.300411e+02   1.486361e+02
  -1.726281e+02  -2.002006e+01
  -7.809146e+01  -7.072817e+01
   1.546303e+01  -7.839381e+01
  -5.260819e+00   3.797387e+01
  -5.800351e+01   6.082407e+01
  -5.106414e+01  -1.800246e+01
   1.217166e+01  -9.394917e+01
   8.926235e+01  -6.748154e+01
   6.343413e+01   7.078412e+00
   6.370357e+00   1.008177e+02
  -1.262502e+02   7.967114e+01
  -1.916386e+02  -1.354146e+01
  -6.812144e+01  -1.699443e+02
   9.117399e+01  -2.033106e+02
   2.319037e+02  -9.722906e+01
   1.708083e+02   8.328110e+01
   7.913147e+01   1.773805e+02
  -2.817500e+01   1.243341e+02
  -1.160954e+02   5.932717e+01
  -6.668409e+01   6.802646e+01
  -3.728387e+01   7.824759e+01
  -5.772961e+01   8.994737e+01
  -1.119534e+02  -1.755400e+01
  -1.201363e+02  -1.191408e+02
  -3.916031e+01  -2.181044e+02
   7.134202e+01  -2.008065e+02
   1.540297e+02  -6.596380e+00
   9.627442e+01   1.178372e+02
   1.030625e+01   1.286776e+02
  -2.340007e+01   4.051475e+01
  -4.044442e+01  -1.706795e+01
  -1.098328e+01  -4.020774e+01
   5.105400e+01  -4.572699e+01
   7.087912e+00  -3.033847e-01
  -7.332113e+01  -4.335578e+00
  -5.325830e+01  -2.688876e+01
   7.411685e+01  -1.765906e+01
   1.573754e+02   4.535601e+00
   1.054991e+02   3.605652e+01
   4.799956e+01   8.502711e+01
  -1.429524e+02   8.284553e+01
  -1.639837e+02   4.496190e+01
  -4.706361e+01  -8.404308e+01
   7.381003e+00  -3.878333e+01
   7.362439e+01   4.659179e+01
   2.821670e+01   4.977479e+01
  -7.182505e+01   6.111064e+01
  -6.157319e+01  -4.638687e+01
  -5.208594e+01  -8.125785e+01
  -4.908679e+01  -4.777133e+01
  -3.171531e+01   3.785207e+00
  -5.373554e+01   3.742989e+00
  -3.075980e+00  -1.151512e+01
   2.031890e+01  -1.195732e+02
   8.407878e+01  -1.094245e+02
   1.190734e+02  -4.958866e+01
   1.155963e+02   1.039231e+02
  -2.201708e+01   1.089087e+02
  -9.500564e+01   2.460211e+01
  -4.383976e+01  -1.183097e+01
   7.509875e+01  -3.708040e+01
   1.179801e+02   5.523035e+01
   7.877180e+01   8.380473e+01
  -8.819405e+01   9.994028e+01
  -1.774344e+02   7.478854e+01
  -1.667374e+02  -2.831379e+01
  -5.380125e+01  -8.324053e+01
   3.540691e+01  -7.091747e+01
   2.224981e+01  -2.174508e+01
  -4.743148e+01   1.614445e+01
  -5.645268e+01  -2.476866e+01
  -2.877011e+01  -7.378638e+01
   5.661863e+01  -1.506363e+02
   1.456518e+02  -4.873078e+01
   9.585558e+01   9.180725e+01
  -3.409770e+00   1.313159e+02
  -6.121285e+01   7.758445e+01
  -8.031864e+01  -4.884038e+01
  -5.402783e+01  -9.093373e+01
   1.876657e+01  -3.383230e+01
   6.395115e+01  -1.852027e+01
   7.947277e+01   1.735432e+01
   1.358326e+01  -1.607409e+00
  -3.420550e+01  -2.250450e+01
   5.120506e+01   3.850072e+01
   6.061508e+01   6.244956e+01
   5.742127e+01   1.190458e+02
  -3.721814e+01   5.497182e+01
  -1.435373e+02  -6.180169e+01
  -1.373496e+02  -1.190614e+02
  -3.726304e+00  -7.649773e+01
   6.727567e+01  -5.976905e+01
   7.057688e+01  -1.427055e+01
  -1.437101e+01   3.620645e+01
  -2.782988e+01   2.654458e+01
   1.181528e+01   6.717022e+00
   3.402502e+01  -2.331798e+01
  -2.173728e+00   2.476968e+00
  -1.001515e+02   1.198393e+01
  -1.000927e+02  -5.288618e+01
  -4.423897e+01  -1.010617e+02
   8.986463e+01  -1.015809e+02
   1.752532e+02  -7.369213e+01
   1.298102e+02   6.077785e+01
   3.096373e+01   1.774071e+02
  -5.439125e+01   1.494127e+02
  -1.033164e+02   6.841890e+01
  -7.838517e+01  -6.092100e+01
  -4.914633e+01   3.995500e+00
   7.195185e+00   1.942191e+01
   2.339917e+01   5.094034e+00
   2.123694e+00  -3.865498e+01
  -6.790234e+01  -1.078563e+02
   3.838570e+01  -7.184052e+01
   6.278776e+01  -5.571041e+01
   7.941092e+01   9.664058e+01
   6.525548e+00   9.572244e+01
  -3.414316e+01   6.304379e+01
  -8.418159e+01  -6.416742e+01
  -2.892150e+01  -1.260915e+02
   9.311531e+01  -6.891661e+01
   1.229059e+02  -3.165468e+01
   7.439463e+01   2.894350e+01
  -2.251823e+01   5.330425e+01
  -3.111624e+01   5.568160e+01
   4.151948e+01   3.609969e+01
   6.667014e+01   2.298999e+01
   6.574985e+00   5.423406e+01
  -9.978041e+01   5.043544e+01
  -1.234905e+02   5.678250e+01
  -8.931591e+01  -2.109088e+01
   2.201501e+01  -7.677261e+01
   1.572488e+01  -7.884128e+01
   4.356073e+01   1.896953e+01
  -5.865799e+00   4.663140e+01
  -2.428115e+01  -1.215702e+00
  -1.760704e+01  -2.852202e+01
  -4.292420e+01  -4.783126e+01
  -3.007440e+01  -8.334937e+00
   5.180974e-01  -1.440113e+01
   4.180854e+01   2.417127e+01
   3.139102e+01  -1.491196e+01
  -7.446352e+00  -3.663483e+01
   1.816896e-01  -6.653883e+00
   3.446417e+01   5.077257e+01
  -8.989127e+00   5.416795e+01
  -6.687796e+01   4.847243e+00
  -4.108126e+01  -5.307378e+01
  -2.664942e+01  -8.472784e+01
   3.745702e+01   6.586936e+00
   7.449589e+01   6.983788e+01
   5.776413e+00   5.958572e+01
  -1.872671e+01   5.635946e+01
  -1.420003e+02  -2.761692e+01
  -7.713997e+01  -4.133587e+01
   3.565906e+01  -5.209751e+01
   5.366402e+01  -1.442149e+01
   1.187061e+01   1.230802e+01
  -5.406726e+00   5.557945e+00
  -2.772370e+01  -5.720314e+01
  -4.445120e+00  -4.978182e+01
   1.040446e+02  -3.228298e+01
