
 $NMID
 id='ANONYMOUS ', fmtdat='(2E16.6)'
 volume=1.0
 tramp=1.0
 $END
  -3.082679e+03   2.040725e+02
  -2.095062e+03  -1.742556e+03
   4.007292e+01  -2.205536e+03
   1.479057e+03  -9.779620e+02
   8.722231e+02   2.490614e+02
  -3.874091e+02   4.186285e+02
  -5.594499e+02  -2.579857e+02
  -2.062316e+00  -6.157201e+02
   6.188051e+02  -5.808366e+02
   7.159512e+02  -2.657072e+01
   3.796598e+02   6.056972e+02
  -6.592330e+01   7.964214e+02
  -5.116561e+02   7.584027e+01
  -2.990873e+02  -4.997182e+02
   2.531621e+02  -5.571730e+02
   3.340590e+02   3.354367e+01
   3.182077e+02   4.925999e+02
  -1.616328e+02   6.630323e+02
  -6.013583e+02  -3.343641e+01
  -2.676678e+02  -2.568525e+02
  -2.706283e+01  -4.272376e+02
   2.026041e+02  -2.911395e+02
   1.407769e+02   1.504381e+01
  -8.696518e+01   1.043394e+02
  -4.499107e+02  -1.208678e+02
  -1.175108e+02  -5.049396e+02
   5.004135e+02  -2.655181e+02
   6.315342e+02   2.093927e+02
   3.095442e+02   3.918302e+02
  -3.389684e+02   1.830365e+02
  -6.397288e+02  -1.365921e+02
  -1.481120e+02  -4.442191e+02
   3.345200e+02  -4.084897e+02
   4.659174e+02  -2.124844e+02
   4.271327e+02   2.064734e+02
   1.500284e+02   4.480798e+02
  -7.376238e+01   1.647311e+02
   1.312029e+01  -1.162663e+02
   1.658132e+02  -1.648453e+02
   2.272650e+02   1.414901e+02
   1.139719e+02   5.662325e+02
  -3.082556e+02   5.297727e+02
  -4.485046e+02   5.113478e+01
  -2.039103e+02  -3.870777e+02
   1.813391e+02  -2.717246e+02
   2.194487e+02   2.487810e+02
  -1.142562e+02   4.320931e+02
  -5.070608e+02   1.467166e+02
  -5.452581e+02  -3.273546e+02
  -1.784170e+02  -5.777067e+02
   3.163128e+02  -3.954284e+02
   5.576572e+02  -1.857575e+01
   3.274074e+02   2.460335e+02
  -7.272516e+01   2.786512e+02
  -2.818553e+02   8.667091e+01
  -1.890283e+02  -1.069523e+02
   2.804824e+01  -8.642744e+01
   9.695685e+01   5.089051e+01
  -7.889683e+01   9.402036e+01
  -1.844869e+02  -4.007830e+00
  -1.048240e+02  -2.136672e+02
   1.474656e+02  -2.808642e+02
   3.068036e+02  -8.549357e+01
   2.423178e+02   1.641962e+02
  -1.726830e+00   3.389828e+02
  -2.565752e+02   3.824664e+02
  -3.811960e+02   1.375309e+02
  -3.026691e+02  -1.878000e+02
  -1.188964e+02  -3.675001e+02
   6.183680e+01  -2.928389e+02
   7.673939e+01  -1.292493e+02
   8.711103e+00  -9.526707e+01
   7.605584e+01  -1.585746e+02
   1.950822e+02  -8.641224e+01
   2.293989e+02   1.144330e+02
   1.221436e+02   2.851120e+02
  -9.492890e+01   2.188618e+02
  -2.579504e+02   1.773939e+01
  -1.534087e+02  -2.075984e+02
   3.903562e+01  -2.596749e+02
   2.524222e+02  -1.123107e+02
   2.875865e+02   1.710292e+02
   9.972284e+01   3.114611e+02
  -8.366473e+01   2.753929e+02
  -1.884313e+02   1.044110e+02
  -1.549619e+02  -3.695852e+00
  -9.581559e+01   5.577251e+01
  -2.258303e+02   9.509367e+01
  -3.513145e+02  -6.764352e+01
  -3.022231e+02  -2.983520e+02
   1.137939e+01  -3.760300e+02
   3.180802e+02  -3.475529e+02
   4.601628e+02  -1.421262e+02
   2.781525e+02   9.331938e+01
   3.247480e+01   2.272677e+02
  -1.254726e+02   1.836848e+02
  -6.111629e+01   3.239184e+01
   9.651771e+01  -3.478132e+01
   1.301896e+02   5.421648e+01
   3.745026e+01   1.343632e+02
  -8.391076e+01   1.061172e+02
  -1.512392e+02  -6.746799e+01
   3.418632e+01  -1.386348e+02
   2.168264e+02  -3.581497e+01
   1.408026e+02   2.148359e+02
  -1.801345e+01   2.923807e+02
  -2.168225e+02   1.929423e+02
  -3.418875e+02  -5.479061e+01
  -2.346540e+02  -2.390759e+02
  -4.891659e+01  -2.605305e+02
   7.653027e+01  -1.447299e+02
   1.610946e+02  -1.280251e+01
   3.593070e+01   5.679293e+00
  -5.558248e+01  -9.701506e+01
   6.547640e+00  -1.274248e+02
   1.403995e+02  -6.120640e+01
   1.782463e+02   4.675761e+01
   5.784706e+01   6.446912e+01
  -9.642489e+01  -2.461005e+01
  -1.726144e+01  -7.729985e+01
   1.151460e+02  -6.497190e+01
   2.543173e+02   5.489540e+00
   2.525590e+02   1.784675e+02
   8.090878e+00   2.399857e+02
  -1.675936e+02   2.193690e+02
  -2.115128e+02   6.814320e+01
  -1.525412e+02  -5.879919e+01
   4.505524e+01  -1.145866e+02
   6.673511e+01  -1.751698e+01
  -4.164569e+01   9.240100e+01
  -1.550388e+02   2.869830e+01
  -1.750891e+02  -1.108547e+02
  -5.972143e+01  -1.581043e+02
   8.077550e+01  -1.061428e+02
   8.524931e+01   4.007083e+01
   6.856272e+01   6.126890e+01
   7.716477e+00   2.494344e+01
  -2.308841e+01  -1.033607e+02
   5.124979e+01  -1.198216e+02
   1.568755e+02  -7.414307e+01
   1.638249e+02   1.234366e+02
   4.258413e+01   1.749210e+02
  -1.422143e+02   1.690852e+02
  -1.919052e+02   1.155188e+00
  -2.585062e+01  -1.287862e+02
   4.955428e+01  -5.364362e+01
   8.530527e+01  -4.537394e+01
   4.434094e+01   1.086927e+01
  -4.956717e+01  -1.702391e+00
   3.302785e+01   5.502288e+00
   7.135436e+01   1.880975e+01
   7.932765e+01   1.242549e+02
  -8.205118e+00   1.397441e+02
  -1.650428e+02   1.165044e+02
  -2.376120e+02   2.116476e+01
  -1.686382e+02  -1.359481e+02
  -3.962679e+01  -1.725403e+02
   8.884432e+01  -1.240940e+02
   1.504694e+02  -2.258670e+00
   5.945475e+01   3.477088e+01
   6.022973e+01  -1.725757e+01
   4.203144e+01  -2.748669e+01
   7.083491e+01  -1.911348e+01
   1.325271e+01   9.464079e+01
  -2.626167e+01   1.212026e+02
  -1.004041e+02   6.248242e+01
  -1.093504e+02  -5.653143e+01
   1.976734e+01  -1.220047e+02
   1.337276e+02  -1.326263e+02
   2.010465e+02   4.837423e+01
   5.560334e+01   2.339635e+02
  -1.281764e+02   1.929195e+02
  -2.553767e+02   7.726834e+01
  -2.026716e+02  -1.456002e+02
  -3.659100e+01  -1.875946e+02
   6.683909e+01  -1.452226e+02
   1.085536e+02  -6.598501e+01
   3.302578e+01  -3.568879e+01
   5.714670e+01  -6.530665e+01
   7.151315e+01  -3.231076e+01
   1.067259e+02   2.170282e+01
   1.359947e+02   1.476793e+02
   5.043639e+01   2.280612e+02
  -1.058584e+02   1.620735e+02
  -1.550768e+02  -1.826912e+01
  -1.268301e+02  -1.170484e+02
   1.288103e+01  -1.739330e+02
   7.262610e+01  -6.402642e+01
   5.268169e+01   5.358858e+01
  -7.840765e+00   5.943636e+01
  -5.839728e+01   4.427416e+01
   5.259813e+01   3.857786e+01
   7.068573e+01  -4.333715e+00
  -3.016041e+00   2.195272e+01
  -4.886189e+01   4.886310e+00
  -1.669902e+02   2.388015e+01
  -1.293146e+02  -1.057699e+02
   2.169767e+01  -7.111935e+01
   1.175725e+02  -5.969413e+01
   1.092089e+02   2.197668e+01
   1.941445e+01   5.447859e+01
  -1.305205e+01   4.912820e+01
  -5.348770e+01   3.440347e+01
  -6.787526e+00  -1.141965e+02
   5.938562e+01  -3.931143e+01
   5.917102e+01   2.923783e+01
   5.265561e+01   3.457080e+01
   3.596881e+01   4.333152e+01
   3.703313e+01   1.409427e+00
   4.732991e+01  -2.467142e+01
   3.084944e+01   5.496764e+01
  -1.197556e+01   1.314958e+02
  -1.128294e+02   1.219375e+02
  -1.628319e+02  -9.318402e+00
  -1.334879e+02  -7.493129e+01
   6.760638e+00  -6.570922e+01
   7.069706e+01  -7.018376e+01
   5.593563e+01   2.841300e+00
  -4.152752e+01  -3.771508e+00
  -1.009182e+02  -3.708810e+01
  -8.677790e+01  -1.131462e+02
   7.236310e+01  -9.528287e+01
   1.502760e+02   1.720424e+01
   1.504142e+02   4.913762e+01
   2.362496e+00   1.214911e+02
  -7.325254e+01   6.273126e+01
  -1.143877e+01  -2.964381e+01
   4.527826e+01   3.079824e+00
   9.579583e+01   6.797264e+00
   6.327406e+01   7.591624e+01
  -7.620780e+01   1.435805e+02
  -1.346991e+02   6.639918e+01
  -8.825733e+01  -6.852575e+01
  -6.214689e+00  -1.541080e+02
   1.073093e+02  -1.242035e+02
   8.601375e+01   1.224600e+01
   4.507867e+01   1.233570e+02
  -1.931614e+01   9.083257e+01
  -7.437162e+01  -1.291340e+01
  -2.179500e+00  -2.696222e+01
  -3.022574e-01  -1.119213e+01
  -2.807513e+01   1.108102e+01
  -5.458079e+01   4.408526e+01
  -6.757071e+01  -6.944805e+01
  -3.757121e+01  -6.610503e+01
   4.056700e+01  -8.724243e+01
   1.334511e+02   3.825396e+01
   1.013942e+02   7.854033e+01
   2.833133e+01   5.218253e+01
  -3.342323e+01   3.759706e+01
  -5.757275e+01   2.712438e+01
  -2.374894e+01  -2.001201e+01
   6.422971e+01   1.675040e+01
   1.632863e+01  -4.398298e+00
  -5.354290e+01   6.209415e+00
  -1.792319e+01   1.498108e+01
   5.659377e+01  -1.233376e+00
   6.294608e+01   2.794922e+01
  -1.397310e+01   7.284930e+01
  -1.072131e+02   7.905862e+01
  -1.763820e+02   5.420077e+01
  -1.368887e+02  -6.027261e+00
  -4.880461e+01  -1.059469e+02
   3.760060e+01  -1.215359e+02
   1.391692e+02  -3.963524e+01
   7.168420e+01  -2.506529e+01
   5.124740e+01   5.464744e+00
   2.361285e+01   1.805716e+01
  -2.102928e+01  -3.199120e+01
   1.339593e+01   7.041593e+01
  -1.970471e+00   1.320014e+02
  -8.537981e+01   5.763162e+01
  -9.741715e+01  -3.852505e+01
  -7.973365e+01  -7.672647e+01
   2.031862e+01  -9.888554e+01
   5.500564e+01  -6.871262e+00
   1.119223e+02   6.026517e+01
   3.291602e+01   1.044581e+02
  -3.594176e+01   5.959284e+01
  -6.082002e+01  -4.939476e-01
  -6.684839e+01  -8.796056e+00
   6.479236e+01  -3.333960e+01
   4.560783e+01  -1.738919e+01
  -3.873658e+01  -1.308235e+01
  -6.852034e+01  -6.606807e+00
  -3.309626e+01  -6.995833e+01
   2.770163e+01  -8.798365e+01
   9.413033e+01  -6.561273e+01
   3.504847e+01   1.631130e+01
  -2.283373e+01   1.052836e+02
  -6.440871e+01   1.212251e+02
  -6.514325e+01   1.353572e+01
  -1.178756e+01  -6.160277e+01
   4.292303e+01  -6.016233e+01
   1.395123e+01   1.949001e+01
   3.425224e+01   4.049246e+01
   2.743949e+01   1.153602e+01
  -2.279734e+01  -1.501483e+01
  -2.402169e+01  -6.023501e+00
  -3.717030e+01   1.076167e+01
  -9.070091e+00   4.185782e+01
  -5.419207e+01   4.003792e+01
   5.531067e+00  -4.365401e+01
   7.395516e+00  -4.023549e+01
   2.368767e+01  -1.963036e+01
   2.076335e+01   8.348664e+00
   8.128025e+01   4.682246e+01
  -4.824003e+01   2.459915e+00
  -9.794710e+01  -5.429710e+01
  -1.162118e+01  -4.861935e+01
   5.381457e+01   7.345010e+00
   8.071593e+01   6.654457e-01
   1.083101e+02   2.147640e+01
  -3.058745e+01   4.976607e+01
  -1.082525e+01   2.071512e+01
   1.441743e+01  -5.973929e+00
   2.394870e+01  -5.122848e+00
   5.316883e+01   8.807837e+00
  -4.467992e+01   5.084493e+00
  -1.058495e+02  -5.187638e+00
