
 $NMID
 id='ANONYMOUS ', fmtdat='(2E16.6)'
 volume=1.0
 tramp=1.0
 $END
  -5.016536e+03  -1.662609e+01
  -2.618774e+03  -2.980735e+03
   7.510243e+02  -3.026053e+03
   2.216890e+03  -6.597195e+02
   9.012387e+02   8.717960e+02
  -7.200129e+02   5.738686e+02
  -1.058088e+03  -4.910289e+02
   1.203493e+01  -1.147398e+03
   9.603111e+02  -7.777887e+02
   1.091948e+03   9.340841e+01
   3.824555e+02   9.876838e+02
  -1.959400e+02   1.006479e+03
  -7.416222e+02   1.422149e+02
  -3.326190e+02  -7.904226e+02
   1.224816e+02  -9.311684e+02
   8.926741e+02   3.053682e+01
   2.237519e+02   7.585488e+02
  -4.130977e+02   5.148040e+02
  -7.828800e+02   7.854425e+00
  -3.987025e+02  -4.785520e+02
   9.803834e+01  -4.259165e+02
   3.312193e+02  -1.913679e+02
   3.017790e+02  -2.471257e+01
   6.579337e+01   1.417424e+02
  -3.491018e+02   5.041865e+01
  -3.770977e+02  -3.433178e+02
   4.903162e+02  -4.530651e+02
   8.775896e+02   1.275080e+01
   4.202647e+02   5.036972e+02
  -4.351070e+02   4.967604e+02
  -8.081752e+02   1.357141e+01
  -3.586274e+02  -6.650797e+02
   3.042299e+02  -4.378789e+02
   5.327175e+02  -2.199499e+02
   4.292132e+02   2.644126e+02
   1.130901e+02   6.040261e+02
  -1.722478e+02   4.141146e+02
  -2.027540e+02  -2.522436e+02
   7.956703e+01  -5.070545e+02
   4.577124e+02  -4.167378e+01
   2.949351e+02   7.507491e+02
  -3.797088e+02   7.923525e+02
  -7.085753e+02   6.187417e-01
  -2.502018e+02  -6.319697e+02
   3.299970e+02  -3.664507e+02
   4.533346e+02   3.428912e+02
  -4.708808e+01   6.166595e+02
  -6.088400e+02   1.748596e+02
  -6.550079e+02  -4.630045e+02
  -2.321191e+02  -6.283807e+02
   3.769891e+02  -4.037974e+02
   6.727627e+02   1.049342e+02
   4.247040e+02   4.397056e+02
  -2.107338e+02   3.669584e+02
  -5.226715e+02  -4.274290e+00
  -2.893061e+02  -2.704276e+02
   1.550278e+02  -1.391735e+02
   1.478158e+02   1.725500e+02
  -1.685308e+02   2.040329e+02
  -3.569056e+02  -1.355431e+02
  -1.648664e+02  -3.640673e+02
   2.629277e+02  -2.685896e+02
   3.646286e+02  -7.466688e+01
   1.604761e+02   8.458093e+01
  -4.179559e+01   2.337636e+02
  -1.949311e+02   3.318667e+02
  -3.394050e+02   2.314247e+02
  -3.224746e+02  -1.484653e+02
  -1.099826e+02  -4.638188e+02
   1.133151e+02  -4.270779e+02
   1.348668e+02  -1.581281e+02
   5.006339e+01   7.514533e+00
   1.703989e+01  -6.920506e+01
   2.204740e+02  -1.496736e+02
   2.842020e+02   9.903163e-01
   2.075833e+02   2.828909e+02
  -6.214410e+01   3.126203e+02
  -2.433192e+02   6.645853e+01
  -2.559843e+02  -2.690893e+02
  -9.611452e-01  -3.856182e+02
   2.643369e+02  -2.116301e+02
   3.736908e+02   2.104881e+02
   2.167795e+02   3.958536e+02
  -1.086389e+02   2.739786e+02
  -2.197854e+02   4.752580e+01
  -1.145395e+02  -3.856266e+01
  -8.774152e+01   6.161359e+01
  -2.078136e+02   1.404755e+02
  -4.366626e+02  -4.600664e+01
  -3.942934e+02  -3.022271e+02
  -3.676823e+01  -5.149377e+02
   3.748654e+02  -4.634132e+02
   5.202206e+02  -2.471248e+02
   3.646937e+02   9.794972e+01
   5.298682e+01   3.096378e+02
  -1.631870e+02   2.739291e+02
  -1.211684e+02  -2.023393e+01
   8.414362e+01  -8.405767e+01
   2.327658e+02  -2.143468e-01
   3.605656e+01   1.339097e+02
  -2.188997e+02   1.449840e+02
  -2.141410e+02  -1.271519e+02
   3.530221e+00  -2.484624e+02
   2.620867e+02  -8.038427e+01
   2.206505e+02   2.434505e+02
   5.242381e+00   3.753974e+02
  -2.248637e+02   2.026990e+02
  -3.580083e+02  -6.864232e+01
  -3.081974e+02  -2.426644e+02
  -1.044957e+02  -2.910478e+02
   7.383243e+01  -2.159193e+02
   1.787956e+02  -5.148098e+01
   7.529633e+01  -7.459602e+00
  -7.615469e+01  -5.373462e+01
  -3.110668e+01  -1.310997e+02
   9.982174e+01  -1.499256e+02
   2.085854e+02  -2.045432e+00
   9.225041e+01   6.069300e+01
  -7.371187e+01   2.732650e+01
  -7.426161e+01  -7.333091e+01
   1.262943e+02  -9.413554e+01
   3.093383e+02   1.704929e+00
   2.725677e+02   1.219860e+02
   4.688401e+01   2.737816e+02
  -2.246733e+02   3.078387e+02
  -3.303791e+02   1.041400e+02
  -1.908261e+02  -9.335802e+01
  -7.348374e+00  -1.319134e+02
   7.162510e+01  -1.523188e+00
  -6.584480e+01   9.815136e+01
  -2.115528e+02   4.589053e+01
  -2.329786e+02  -1.198901e+02
  -4.185153e+01  -2.541563e+02
   9.389693e+01  -1.822077e+02
   1.342693e+02  -5.674810e+00
   8.180732e+01   1.698807e+01
  -6.186579e+00   6.330307e+00
  -2.490468e+01  -6.678949e+01
   4.347461e+01  -1.111235e+02
   1.720399e+02  -3.814270e+01
   2.133567e+02   1.359471e+02
   4.114249e+01   2.036136e+02
  -1.614874e+02   1.246522e+02
  -1.902015e+02   6.413819e+00
  -1.573936e+01  -1.036846e+02
   4.293346e+01  -1.047718e+02
   8.868675e+01   1.968856e+01
   2.495771e+01   2.994880e+01
   1.166988e+01   2.370518e+01
   6.146897e+00  -1.411359e+01
   8.122436e+01   3.945100e+01
   3.731463e+01   5.867424e+01
   1.914048e+01   1.466361e+02
  -1.160151e+02   1.343481e+02
  -2.274185e+02   4.328461e+01
  -2.017045e+02  -1.959488e+02
  -1.499057e+01  -3.174314e+02
   1.652758e+02  -1.903235e+02
   1.521866e+02  -1.504690e+01
   5.573713e+01   8.853365e+01
   6.861900e+01   5.110909e+01
   6.792838e+01  -3.291584e+00
   9.423436e+01  -1.017574e+01
   4.359588e+01   8.433892e+01
  -1.591163e+01   8.208735e+01
  -1.365014e+02   1.191657e+01
  -8.442690e+01  -1.725839e+01
   2.091460e+01  -7.043451e+01
   1.505800e+02  -8.432029e+01
   2.305655e+02   1.080222e+01
   1.111848e+02   1.798644e+02
  -9.011940e+01   2.378534e+02
  -2.808652e+02   1.012062e+02
  -2.315913e+02  -6.242424e+01
  -6.487723e+01  -1.688042e+02
   4.060518e+01  -1.388923e+02
   1.201503e+02  -1.183043e+02
   7.314299e+01  -5.950177e+01
   9.201403e+01  -9.967404e+01
   7.678791e+01  -8.743677e+01
   1.337739e+02   3.546576e+01
   1.524659e+02   1.766061e+02
   7.695924e+01   2.498819e+02
  -7.624883e+01   1.607583e+02
  -1.951893e+02   5.803418e+01
  -1.700979e+02  -1.257635e+02
  -3.962811e+00  -1.926143e+02
   1.004126e+02  -7.883413e+01
   7.512249e+01   1.451699e+01
  -2.265494e+01   3.582609e+01
  -2.153319e+01   1.248306e+01
   1.084356e+01   2.685720e+01
   8.254819e+01   3.570346e+00
   5.793787e+01   1.550728e+01
  -8.472321e+01   1.943716e+01
  -1.366395e+02   6.774429e+00
  -7.504699e+01  -4.855634e+01
  -9.021263e+00  -7.489875e+01
   1.278126e+02  -6.825753e+01
   1.131089e+02   1.002319e+01
   3.980590e+01   6.418275e+01
  -2.786417e+01   5.986768e+01
  -1.133089e+02  -3.862957e+01
  -1.773369e+01  -6.944482e+01
   6.316753e+01  -6.763479e+01
   1.011449e+02   3.833042e+01
   3.951277e+01   4.441706e+01
   7.148051e+00   6.062463e+01
   6.444510e+01   2.136695e+01
   2.974394e+01   3.153365e+01
   4.464083e+01   5.817586e+01
  -2.906910e+01   1.291705e+02
  -1.257211e+02   1.030059e+02
  -1.824003e+02   5.379603e+01
  -1.151497e+02  -9.990949e+01
   3.508619e+01  -1.296580e+02
   1.474763e+02  -6.586048e+01
   5.229613e+01  -1.737010e+01
  -9.016929e+01   1.951607e+01
  -1.602012e+02  -3.881698e+01
  -5.539199e+01  -1.121950e+02
   1.071650e+02  -1.196029e+02
   1.701083e+02  -7.021241e+01
   1.288797e+02   1.176594e+01
   7.480579e+01   4.713319e+01
  -3.805150e+00   6.806739e+01
  -1.898754e+00   2.731218e+01
   3.481372e+01   1.768931e+01
   7.257019e+01   4.462447e+01
   5.239517e+01   1.300365e+02
  -1.085355e+02   1.845777e+02
  -1.725585e+02   7.767952e+01
  -1.339377e+02  -8.660670e+01
  -6.005536e+00  -2.091761e+02
   9.296380e+01  -1.317951e+02
   1.061127e+02   1.428480e+01
   5.261936e+01   1.313208e+02
   7.802867e+00   1.236437e+02
  -5.277877e+01   1.067449e+01
  -5.658453e+01  -1.716771e+01
  -1.436758e+00   3.559486e+01
   3.687581e+01   7.447315e+01
  -4.300194e+01  -2.060983e+01
  -8.528729e+01  -7.325045e+01
  -5.608017e+01  -7.187187e+01
   6.904388e+01  -7.435934e+01
   1.799291e+02   4.400906e+01
   1.087220e+02   1.304862e+02
  -6.270632e-01   7.108778e+01
  -6.535816e+01   5.177760e+01
  -1.054660e+02   3.040643e+01
  -1.495670e+01  -7.500883e+01
   2.846805e+01  -4.982121e+01
   3.505412e+01  -2.831469e+01
  -1.809504e+01  -7.982058e+00
   2.670190e+01   8.814044e-01
   6.580212e+01   5.845409e+01
   6.821464e+01   6.045844e+01
   9.612343e+00   1.135464e+02
  -9.622487e+01   1.140948e+02
  -2.092423e+02   8.802446e+01
  -1.418425e+02  -3.922704e+01
  -2.367011e+01  -1.137913e+02
   5.196006e+01  -1.447407e+02
   8.458309e+01  -8.322913e+01
   6.169831e+01  -5.165963e+01
   6.608127e+00   5.561030e+01
   5.233688e+00   1.344444e+01
   1.686493e+01   1.375461e+01
   2.560765e+01   4.463215e+01
   1.200282e+01   1.103991e+02
  -2.303974e+01   5.700811e+01
  -6.430649e+01  -4.508338e+01
  -4.676980e+01  -1.159816e+02
   2.803275e+01  -1.067582e+02
   1.102140e+02  -3.389796e+01
   7.439538e+01   8.423982e+01
  -1.818437e+01   9.760786e+01
  -8.066349e+01   7.997452e+01
  -8.863048e+01  -2.949829e+01
  -3.304604e+01  -4.755050e+01
   2.587435e+01  -4.921387e+01
   3.930737e+01  -3.241842e+01
  -5.344693e+01  -9.367895e+00
  -4.481173e+01   2.903295e+01
  -3.241595e+01  -2.410795e+01
   8.970513e+01  -5.982117e+01
   9.449306e+01  -4.572668e+01
   2.833094e+01   4.162901e+01
  -7.260267e+01   7.338986e+01
  -6.381923e+01   7.264448e+01
  -3.229522e+01   1.352654e+01
   1.951618e+01  -6.164876e+01
   3.009530e+01  -4.980165e+01
   5.225818e+01   4.416748e+01
   3.904625e+01   2.552891e+01
   4.575885e+00   1.678923e+01
  -3.053352e+01  -1.683215e+01
  -4.936530e+01  -2.459675e+01
  -6.218480e+01  -3.195142e+01
   1.402541e+01   2.267641e+01
   8.198777e-01  -1.265425e+00
   9.322505e+00  -8.750782e+01
   4.831953e+01  -1.291607e+01
   8.777612e+01   6.312800e+01
   3.864852e+01   1.036680e+02
   1.267033e+00   6.876428e+01
  -2.317972e+01   5.197206e+00
  -9.996663e+01  -3.652487e+01
  -2.299367e+01  -5.082397e+01
   2.186864e+01  -3.347730e+01
   3.076851e+01  -6.664383e+00
   1.386850e+01   5.932443e+01
  -5.477514e+01   1.458597e+01
  -5.841894e+01  -5.716215e+00
   9.992128e+00  -8.055340e+00
   7.978813e+01   2.420456e+01
   5.710306e+01   3.319896e+01
  -6.135080e+01   3.166657e+01
  -9.166441e+01   1.814111e+01
