
 $NMID
 id='ANONYMOUS ', fmtdat='(2E16.6)'
 volume=1.0
 tramp=1.0
 $END
  -3.725476e+03  -9.676652e+01
  -2.202155e+03  -1.896686e+03
   1.403798e+02  -2.411965e+03
   1.658879e+03  -1.436248e+03
   8.703656e+02  -5.094858e+01
  -2.075818e+02   2.588120e+02
  -4.264855e+02  -7.372646e+01
   3.619653e+01  -6.126369e+02
   4.570426e+02  -6.849821e+02
   6.010707e+02   4.576328e+01
   4.399739e+02   5.386758e+02
  -8.368368e+01   7.981639e+02
  -4.273291e+02   1.449914e+02
  -2.170641e+02  -6.032800e+02
   1.311286e+02  -6.593822e+02
   4.855121e+02   7.741546e+01
   2.489453e+02   4.688101e+02
  -3.144344e+02   6.808441e+02
  -4.720397e+02   1.570625e+02
  -4.894722e+02  -8.135263e+01
  -2.527853e+01  -4.913186e+02
   2.442078e+02  -3.256298e+02
   1.402061e+02   7.792092e+01
  -4.369080e+01  -1.392949e+02
  -2.378137e+02  -3.010210e+02
  -6.108624e+01  -3.902513e+02
   4.769367e+02  -1.919195e+02
   6.302328e+02   1.671790e+02
   4.036754e+02   5.360378e+02
  -2.947766e+02   3.185339e+02
  -7.120337e+02  -9.196661e+01
  -2.759566e+02  -4.444531e+02
   1.974082e+02  -4.183458e+02
   4.699196e+02  -2.213366e+02
   3.877755e+02   1.493386e+02
   2.189381e+02   2.713203e+02
  -1.406971e+02   1.763023e+02
  -4.118247e+01  -1.764273e+02
   1.286553e+02  -2.205167e+02
   3.420381e+02   1.104765e+02
   1.524300e+02   5.505187e+02
  -2.897997e+02   4.033226e+02
  -3.724009e+02  -1.879245e+01
  -1.676753e+02  -3.754228e+02
   1.382506e+02  -2.244031e+02
   2.018018e+02   1.908024e+02
  -1.240047e+02   3.228257e+02
  -4.110985e+02   5.669894e+01
  -4.266444e+02  -3.834071e+02
  -1.448648e+02  -5.006277e+02
   3.410856e+02  -3.483586e+02
   5.815218e+02   2.308429e+01
   4.221355e+02   3.140013e+02
  -7.123050e+00   3.377586e+02
  -3.031294e+02   1.532551e+02
  -2.242143e+02  -3.887086e+01
  -1.592940e+01  -5.135111e+01
   9.254222e+01   9.124177e+01
  -1.082318e+02   1.091473e+02
  -2.677741e+02  -3.819701e+01
  -1.806330e+02  -2.396007e+02
   1.131349e+02  -3.116166e+02
   3.418105e+02  -1.383826e+02
   3.198711e+02   7.871161e+01
   2.983580e+01   3.328456e+02
  -2.485925e+02   3.544308e+02
  -3.749207e+02   1.715462e+02
  -2.724304e+02  -1.336339e+02
  -3.478922e+01  -3.668156e+02
   3.814080e+01  -3.422638e+02
   6.918244e+01  -1.286344e+02
   1.404372e+01  -3.911392e+01
   8.207619e+01  -8.656829e+01
   2.644373e+02  -1.023558e+02
   2.464692e+02   4.563440e+01
   1.065863e+02   2.488908e+02
  -7.590132e+01   2.425878e+02
  -2.155726e+02   4.576730e+01
  -1.743870e+02  -2.328478e+02
   1.512837e+01  -2.550561e+02
   2.111779e+02  -9.888834e+01
   2.641465e+02   1.594023e+02
   1.331756e+02   2.722723e+02
  -4.625036e+01   2.541826e+02
  -1.720851e+02   1.368338e+02
  -1.210981e+02   2.986664e+01
  -1.345516e+02   5.385333e+01
  -2.924617e+02   1.363360e+01
  -4.288451e+02  -1.021137e+02
  -3.190949e+02  -2.867088e+02
  -1.344201e+01  -4.597819e+02
   3.897832e+02  -4.280840e+02
   4.947004e+02  -2.073631e+02
   2.726568e+02   9.590527e+01
   2.465300e+01   2.647063e+02
  -1.410481e+02   1.973525e+02
  -3.455210e+01   1.815865e+01
   1.045858e+02  -9.364216e+01
   1.195259e+02  -2.984185e+00
  -2.752850e+00   1.296920e+02
  -1.426346e+02   6.903408e+01
  -1.075924e+02  -1.169386e+02
   4.789715e+01  -1.667337e+02
   1.771522e+02  -8.238560e+00
   1.969125e+02   2.736944e+02
   2.748200e+01   3.754126e+02
  -2.384542e+02   2.051146e+02
  -3.763492e+02  -5.905759e+01
  -3.127106e+02  -2.910315e+02
  -4.384522e+01  -2.516586e+02
   1.216585e+02  -1.531026e+02
   1.619050e+02  -2.304996e+01
   4.708942e+01  -1.136914e+01
  -8.057896e+01  -3.885095e+01
   1.974434e+01  -1.072793e+02
   1.222982e+02  -3.888555e+01
   1.290911e+02   6.873839e+01
   3.561297e+01   6.323020e+01
  -1.331884e+02   2.224422e+01
  -5.910140e+01  -1.014279e+02
   1.001252e+02  -8.194063e+01
   2.406452e+02   6.535802e+00
   2.761836e+02   1.045981e+02
   5.027347e+01   2.351179e+02
  -1.772503e+02   2.137796e+02
  -2.434991e+02   9.417501e+01
  -1.491591e+02  -1.315069e+01
   2.648882e+01  -6.014763e+01
   1.083772e+02  -9.047193e+00
  -3.663370e+01   2.533137e+01
  -1.849816e+02  -2.044061e+01
  -1.847253e+02  -8.672165e+01
  -6.457927e+01  -1.869364e+02
   1.612957e+02  -1.296169e+02
   1.349193e+02   1.118003e+01
   7.643552e+01  -9.292801e+00
  -2.730861e+01  -2.643412e+01
  -1.491720e+01  -1.010717e+02
   1.506272e+02  -1.056043e+02
   2.107306e+02   5.303314e+01
   1.120823e+02   1.281706e+02
  -6.477752e+00   1.679241e+02
  -1.435697e+02   1.286103e+02
  -1.608848e+02  -5.575300e+01
  -2.318882e+01  -1.018854e+02
   5.775585e+01  -6.174370e+01
   6.290475e+01  -5.520744e+01
  -8.057041e+00   2.660604e+01
  -2.655240e+01   1.020292e+01
  -1.300233e+00  -6.999414e+01
   8.512567e+01   2.544301e+01
   1.116373e+02   5.465520e+01
   1.616087e+01   1.507070e+02
  -1.624357e+02   1.542037e+02
  -2.272973e+02  -2.433449e+01
  -1.602650e+02  -1.715692e+02
  -1.459141e+01  -2.480002e+02
   9.586556e+01  -1.381445e+02
   1.107419e+02   1.205808e+01
   1.031613e+02   4.152187e+01
   4.528814e+01   4.060628e+01
   5.234814e+01  -3.861758e+01
   4.402121e+01  -7.854245e+00
   5.076698e+01   6.901148e-01
  -3.734811e+01   1.006204e+02
  -5.565288e+01   3.192600e+01
  -6.508001e+01  -7.675478e+01
   4.321226e+01  -1.189319e+02
   1.936951e+02  -6.348131e+01
   1.769637e+02   1.238054e+02
   7.110362e+01   2.355057e+02
  -1.035824e+02   2.079015e+02
  -2.481991e+02   7.340385e+01
  -2.244474e+02  -8.536834e+01
  -1.085710e+02  -1.544013e+02
   2.707554e+01  -1.713483e+02
   1.144681e+02  -1.176621e+02
   6.331975e+01  -6.566057e+01
   8.117116e+01  -7.374929e+01
   1.085410e+02  -1.021423e+02
   1.161350e+02   3.736578e+01
   1.006723e+02   1.006875e+02
   3.056061e+01   1.888313e+02
  -9.982389e+01   1.247297e+02
  -2.276303e+02  -2.393959e+01
  -1.397491e+02  -1.662378e+02
  -2.164918e+01  -1.713536e+02
   6.423216e+01  -8.437611e+01
   5.842573e+01  -5.348694e+00
   2.700601e+01   3.623148e+01
  -4.567838e+00   4.267476e+01
   4.768020e+01   1.721038e+01
   1.480788e+01   2.204184e+01
   2.868791e+01   5.300097e+01
  -8.515959e+01   7.301148e+01
  -1.848715e+02   5.481371e+00
  -1.266065e+02  -7.080721e+01
  -1.143132e+01  -7.845851e+01
   1.122739e+02  -5.267619e+01
   1.381811e+02   2.876408e+01
   4.751799e+01   5.486021e+01
  -4.845785e+01   5.665320e+01
  -8.518341e+01  -2.527435e+01
  -4.362039e+01  -7.705000e+01
   3.288737e+01  -6.324133e+01
   7.431850e+01  -6.104345e+00
   8.179118e+01   6.140554e+01
   4.792709e+01   4.624300e+01
   4.962419e+01  -4.268281e+00
   5.779400e+01   4.544900e+00
   7.928439e+01   4.854982e+01
  -1.648859e+00   1.289979e+02
  -1.214863e+02   1.395429e+02
  -1.632583e+02   5.173773e+01
  -1.218541e+02  -8.608393e+01
  -1.180545e+01  -1.352235e+02
   6.622315e+01  -8.390202e+01
   4.140655e+01  -3.223591e+01
  -5.335900e+01   6.718361e+01
  -9.122935e+01  -3.136670e+01
  -6.475880e+01  -8.294484e+01
   6.898890e+01  -1.071908e+02
   1.264956e+02  -6.307389e+01
   1.816935e+02   2.973662e+01
   5.194914e+01   7.348296e+01
  -4.985688e+01   8.731467e+01
  -8.138096e+01  -9.497522e+00
  -2.879132e+00  -3.291677e+01
   5.517883e+01  -1.513024e+01
   5.533574e+00   9.760376e+01
  -7.925736e+01   1.175484e+02
  -1.407805e+02   5.444100e+01
  -9.286074e+01  -1.067381e+02
   9.434237e+00  -1.520808e+02
   5.703634e+01  -1.453392e+02
   7.384323e+01  -4.207926e+01
   5.099319e+01   1.241082e+02
   1.280010e+01   9.247193e+01
  -4.023581e+01   4.492284e+01
  -7.233331e+01  -3.174516e+01
  -1.490863e+01  -2.036586e+01
  -2.786924e+01   2.269832e+01
  -2.123805e+01  -3.580146e+01
  -1.696891e+01  -5.847697e+01
  -4.939182e+01  -1.175278e+02
   1.836439e+01  -9.029581e+01
   1.371628e+02   3.253165e-01
   1.552188e+02   8.230418e+01
   2.446005e+01   6.345684e+01
  -6.029442e+01  -1.894906e+00
  -7.314446e+01   5.849083e+00
  -2.107529e+01  -3.250009e+01
  -3.672078e+01  -2.735861e+01
  -1.737284e+01  -2.572960e+01
  -1.443291e+01  -3.950825e+01
   3.533673e+01  -1.686539e+01
   6.464147e+01  -1.208773e+01
   4.824695e+01   3.386896e+01
   3.109227e+01   7.711604e+01
  -7.933533e+01   9.806034e+01
  -1.788774e+02   2.601640e+01
  -1.277841e+02  -7.407814e+01
  -3.704005e+01  -1.803811e+02
   7.934294e+01  -1.233641e+02
   7.979244e+01  -5.181654e+01
   1.031216e+02  -2.541485e+00
  -9.396161e+00   5.589087e+01
  -3.847181e+01   1.591347e+01
   4.367461e+00  -4.876351e+00
   4.195051e+00   4.882565e+01
   3.629051e+01   6.231551e+01
  -4.825021e+00   5.059820e+01
  -6.118567e+01  -3.328814e+01
  -7.009863e+01  -8.015439e+01
  -2.400629e+00  -7.735028e+01
   8.709648e+01  -3.658040e+01
   1.223983e+02   4.712290e+01
   1.852517e+01   1.294441e+02
  -6.651739e+01   4.525957e+01
  -6.084672e+01  -1.597898e+01
  -8.237064e-01  -5.778017e+01
   4.885608e+01  -4.804020e+01
   2.475351e+01  -3.853862e+01
  -3.480764e+01   3.494504e+01
  -6.810965e+01   1.654811e+01
   8.690661e+00   3.371899e+00
   5.908711e+01  -4.357473e+01
   8.431204e+01  -3.767646e+01
   4.700756e+01   3.298084e+01
  -8.122184e+01   9.437869e+01
  -6.013992e+01   9.746659e+01
  -6.374451e+01   1.044126e+01
  -2.347252e+01  -6.770248e+01
  -8.996563e+00  -7.350855e+01
   8.697427e+01  -1.301789e+00
   7.423788e+01   5.291582e+01
  -1.579843e+01   2.792119e+01
  -4.882661e+01   5.580872e+00
  -7.077019e+01  -1.495702e+01
  -9.733252e+00  -1.299933e+01
   3.204831e+01   1.848824e+01
   2.856744e+01   3.040150e+01
  -1.085193e+01  -1.352028e+01
  -1.906818e+01  -4.054016e+01
   8.308071e+00  -7.629450e+00
   1.866677e+01   2.225266e+00
  -1.358151e+01   2.893436e+01
   1.704843e+00   5.856138e+01
  -5.486297e+01   7.406945e+00
  -2.567211e+00  -8.766619e+01
   4.434460e+01  -2.928962e+01
   9.965897e+01   1.180633e+01
   9.524596e+01   7.525580e-01
  -3.198024e+01   7.634488e+01
  -6.099607e+01   2.802033e+01
  -5.168562e+01   2.202033e+01
   2.210819e+01   1.105452e+01
   1.643273e+01   1.796363e+00
   1.650022e+01   6.257389e+01
  -5.091652e+01   4.662968e+01
