
 $NMID
 id='ANONYMOUS ', fmtdat='(2E16.6)'
 volume=1.0
 tramp=1.0
 $END
  -3.352522e+03   1.549357e+02
  -2.109659e+03  -1.753182e+03
   2.903002e+02  -2.240831e+03
   1.374903e+03  -9.066921e+02
   8.317278e+02   2.650731e+02
  -9.838572e+01   2.079992e+02
  -5.253545e+02  -3.120323e+02
  -2.620612e+02  -6.390583e+02
   5.850482e+02  -6.423022e+02
   7.310993e+02   6.543508e+01
   3.552579e+02   6.301364e+02
  -1.949970e+02   7.034660e+02
  -4.037645e+02   1.841344e+02
  -5.119966e+01  -4.827311e+02
   1.303480e+02  -5.371530e+02
   4.810704e+02   8.424882e+01
   7.447687e+01   4.813619e+02
  -3.280896e+01   4.746270e+02
  -6.388608e+02   1.550240e+02
  -4.307291e+02  -2.605956e+02
  -3.534349e+01  -4.006679e+02
   1.914894e+02  -1.973660e+02
  -2.525381e+00   1.066676e+01
  -2.913439e+02  -1.304930e+01
  -4.128084e+02  -2.179449e+02
  -8.184324e+01  -4.070108e+02
   5.562084e+02  -2.281658e+02
   6.031430e+02   1.259614e+02
   2.502216e+02   5.037910e+02
  -2.269940e+02   1.929017e+02
  -6.767052e+02  -1.096535e+02
  -1.748240e+02  -3.057185e+02
   3.219663e+02  -4.033529e+02
   3.130004e+02  -1.804646e+02
   3.873049e+02   2.628733e+02
   1.802192e+02   2.400019e+02
  -4.246150e+01   1.546566e+02
   4.045306e+01  -1.357827e+02
   1.763483e+02  -1.880172e+02
   2.380438e+02   1.241335e+02
   5.663115e+01   4.962905e+02
  -3.229748e+02   4.826301e+02
  -3.691305e+02  -2.044044e+01
  -5.942039e+01  -3.646229e+02
   2.307714e+02  -1.365184e+02
   2.336902e+02   3.047770e+02
  -1.305588e+02   4.132458e+02
  -5.430144e+02   1.483691e+02
  -4.834646e+02  -3.915829e+02
  -1.673581e+02  -4.955474e+02
   3.389162e+02  -2.698084e+02
   5.436440e+02   4.948238e+01
   3.679729e+02   2.608232e+02
  -6.148704e+01   2.284660e+02
  -3.163140e+02   1.134836e+02
  -1.930053e+02  -2.650966e+01
  -2.100432e+01   2.528022e+00
   1.345048e+01   1.206429e+02
  -1.689852e+02   2.301049e+01
  -2.374181e+02  -1.517750e+02
  -1.445275e+02  -2.471390e+02
   1.834697e+02  -2.180320e+02
   3.489192e+02  -1.974282e+02
   2.284551e+02   1.028933e+02
   2.798015e+00   3.563456e+02
  -2.202838e+02   3.501618e+02
  -3.305709e+02   1.821406e+02
  -2.469701e+02  -1.733343e+02
  -4.793965e+01  -3.812684e+02
   5.144999e+01  -3.431641e+02
   3.254452e+01  -1.212284e+02
   6.085588e+01  -4.661552e+01
   1.309380e+02  -1.001594e+02
   2.269192e+02  -3.653505e+01
   2.216512e+02   7.446371e+01
   9.878656e+01   1.829980e+02
  -8.858724e+01   2.239586e+02
  -2.210668e+02   8.399034e+00
  -1.500163e+02  -2.304340e+02
   7.058869e+01  -2.487075e+02
   3.168066e+02  -7.645442e+01
   3.654894e+02   1.451339e+02
   6.345216e+01   3.204272e+02
  -1.013322e+02   3.044281e+02
  -2.251251e+02   1.439840e+02
  -1.632444e+02   1.541980e+01
  -9.503323e+01   5.470793e+01
  -2.118771e+02   9.591529e+00
  -3.909987e+02  -9.935860e+01
  -3.294717e+02  -2.335202e+02
   2.989404e+01  -4.404334e+02
   3.423166e+02  -4.332777e+02
   5.008427e+02  -1.849859e+02
   3.023636e+02   1.138644e+02
   5.122184e+01   3.190080e+02
  -6.441493e+01   2.293354e+02
  -2.796372e+00   1.333212e+01
   1.088882e+02  -6.421147e+01
   1.526403e+02   2.194819e+01
  -1.553617e+01   1.820424e+02
  -1.129753e+02   1.891709e+02
  -1.170314e+02  -3.333893e+01
   1.958231e+01  -1.718696e+02
   1.688919e+02  -6.377578e+01
   1.608434e+02   2.556190e+02
   2.704369e+01   3.704347e+02
  -1.866659e+02   2.400067e+02
  -3.419683e+02  -4.970586e+01
  -2.988899e+02  -2.913323e+02
  -1.019097e+02  -2.512390e+02
   1.798126e+02  -7.923455e+01
   1.871232e+02   3.994643e+01
   3.383790e+01   1.469293e+01
  -7.396130e+01  -5.805991e+01
  -6.262605e+01  -1.449723e+02
   1.581866e+02  -6.711007e+01
   2.074247e+02   3.184658e+01
   4.440299e+01   7.025952e+01
  -1.346736e+02  -8.922453e+00
  -6.553018e+01  -1.140051e+02
   1.500887e+02  -6.314727e+01
   2.869943e+02   1.099144e+01
   2.850249e+02   2.124427e+02
  -2.140101e+00   2.506465e+02
  -2.473760e+02   2.184338e+02
  -2.809069e+02   6.706686e+01
  -1.135333e+02  -5.711542e+01
   3.816270e+01  -1.242238e+02
   7.908900e+01   1.604350e+01
  -2.239973e+00   8.962468e+01
  -1.831327e+02   9.407823e+00
  -1.849032e+02  -1.250638e+02
  -1.621965e+01  -2.094192e+02
   1.327824e+02  -1.057880e+02
   1.521154e+02   3.334312e+01
   6.948848e+01   7.719952e+01
  -5.206558e+01   7.396380e+00
  -4.750018e+01  -7.900187e+01
   9.091082e+01  -1.011784e+02
   2.276493e+02  -1.052707e+01
   1.554029e+02   1.144446e+02
  -9.871223e-01   2.172015e+02
  -1.505550e+02   1.346274e+02
  -2.016264e+02   3.159576e+01
  -7.434858e+01  -7.370036e+01
   5.078735e+01  -1.275769e+02
   5.690156e+01  -2.910845e+01
   2.634818e+01   3.251817e+01
  -4.587163e+01  -2.822130e+01
  -2.408196e+01  -2.645823e+01
   5.957130e+01   1.608472e+01
   9.958615e+01   6.461652e+01
  -3.436275e+01   1.621509e+02
  -1.335143e+02   1.414060e+02
  -2.683404e+02   2.718071e+00
  -1.544339e+02  -1.568311e+02
  -8.722846e+00  -2.444947e+02
   1.443065e+02  -1.335746e+02
   1.341834e+02  -4.120902e+01
   6.266509e+01   8.753005e+01
   3.508453e+01   3.681729e+01
   5.693256e+01  -9.308658e+00
   6.982041e+01  -4.701046e+01
   9.296315e+00   8.173218e+01
  -6.378052e+01   1.282316e+02
  -9.603538e+01   7.841647e+01
  -1.114132e+02  -6.600605e+01
   1.737719e+01  -1.411781e+02
   1.157453e+02  -9.096935e+01
   1.880897e+02   7.202492e+01
   1.179919e+02   1.616276e+02
  -1.379316e+02   1.819234e+02
  -2.556239e+02   5.612760e+01
  -2.504413e+02  -1.051705e+02
  -7.071437e+01  -1.239075e+02
   7.914575e+01  -1.491888e+02
   1.135357e+02  -4.944756e+01
   7.051391e+01  -1.015058e+02
   5.507615e+01  -1.082436e+02
   6.289511e+01  -6.867687e+01
   1.429473e+02   2.883652e+01
   1.126719e+02   1.857360e+02
  -1.542834e+00   1.915354e+02
  -1.041908e+02   1.008869e+02
  -9.192801e+01   2.351227e+01
  -1.201972e+02  -1.347464e+02
   1.381756e+01  -1.876219e+02
   7.641640e+01  -7.708352e+01
   8.092128e+01  -8.388411e+00
   5.214250e+01   5.468028e+01
   3.016422e+01   8.076752e+01
   1.810879e+01   6.560957e+01
   1.143591e+02  -3.094242e+01
   2.738053e+01   5.983360e+01
  -7.675503e+01   6.770821e+01
  -1.509184e+02   1.869110e+01
  -1.227618e+02  -2.734524e+01
  -2.831338e+01  -7.656235e+01
   9.804546e+01  -5.557447e+01
   1.385074e+02   1.640931e+01
   3.007276e+01   6.008236e+00
  -1.611277e+01   3.001313e+00
  -6.171367e+01  -2.673675e+01
   1.081595e+01  -7.442462e+01
   7.322866e+01  -2.878231e+01
   6.756211e+01  -4.669617e-01
   5.619746e+01   4.871659e+01
   6.207983e+01   3.579306e+01
   1.591097e+01  -2.758982e+01
   9.584794e+01  -9.648978e+00
   2.921029e+01   3.297153e+01
  -2.025434e+01   1.386839e+02
  -1.326635e+02   1.458099e+02
  -1.714084e+02   6.042153e+01
  -1.053629e+02  -1.110666e+02
   2.963880e+01  -1.521550e+02
   1.254545e+02  -5.508476e+01
   6.947753e+01   3.440102e+01
  -4.539206e+01   4.539672e+01
  -1.136288e+02  -2.714581e+01
  -1.179653e+02  -1.292898e+02
   5.979550e+01  -1.102944e+02
   1.912994e+02  -3.534778e+00
   1.467182e+02   7.687500e+01
   7.407048e+01   1.024866e+02
  -5.360423e+01   6.921768e+01
  -8.874709e+01   8.093335e+00
   4.233783e+01  -2.446757e+01
   1.112314e+02   5.032393e+01
   3.698432e+01   1.240627e+02
  -9.160655e+01   1.590440e+02
  -1.761119e+02   1.415067e+01
  -9.987236e+01  -1.207050e+02
   7.847126e+00  -1.943396e+02
   8.338648e+01  -1.243266e+02
   1.102478e+02   4.570765e+01
   6.832993e+01   9.712517e+01
  -1.697351e-01   1.229672e+02
  -4.905452e+01   2.124736e+01
  -4.707007e+01  -1.426011e+00
  -1.156914e+01  -4.810330e+01
  -2.450020e+00  -1.881873e+01
  -1.712215e+01  -1.589373e+01
  -7.267744e+01  -3.109015e+01
  -1.916750e+01  -7.971942e+01
   8.406495e+01  -1.266062e+01
   1.784438e+02   2.694627e+01
   1.287583e+02   8.692051e+01
  -8.684967e+00   2.856531e+01
  -1.024309e+02   1.874886e+01
  -1.148342e+02   2.510734e+00
  -3.299524e-01   7.465531e+00
   5.539402e+01  -2.581166e+01
   9.366564e+00   7.751662e+00
  -6.004973e+01   1.921197e+01
  -6.481995e+00  -2.195821e+01
   2.881396e+01  -8.310864e+00
   5.575236e+01  -1.979304e+01
   2.735009e+01   7.719991e+01
  -1.123241e+02   9.697185e+01
  -1.681275e+02   5.778070e+01
  -1.268499e+02  -3.761221e+01
  -3.880132e+01  -1.826328e+02
   9.168960e+01  -1.510504e+02
   1.003564e+02  -7.974838e+01
   9.811076e+01   2.059380e+01
   6.691985e+01   2.987532e+01
   3.204893e+00   6.440033e+01
   4.219387e+01   1.697063e+01
   2.413758e+01   6.937807e+01
   3.530888e+01   9.901129e+01
  -5.866407e+01   4.471643e+01
  -9.097839e+01  -1.483067e+01
  -8.748583e+01  -8.628201e+01
   1.125524e+01  -9.974527e+01
   5.138395e+01  -2.710763e+01
   9.954416e+01   3.797756e+01
   4.554292e+01   8.216781e+01
  -2.044409e+01   3.406408e+01
  -1.176111e+02  -4.128245e+01
  -3.658169e+01  -2.845041e+01
   2.510223e+01  -4.389581e+01
   8.028610e+01   1.696445e+01
  -2.983937e+01  -3.196426e+01
  -7.736710e+01   1.788012e+01
  -4.918337e+01   1.155625e+01
   9.711117e+01  -6.411537e+01
   1.165577e+02  -9.058743e+01
   7.579247e+01   5.835839e+01
  -5.718630e+01   5.631095e+01
  -3.813280e+01   1.001216e+02
  -7.605407e+01   4.726933e+01
   2.246892e+01  -5.728196e+01
  -4.013377e+00  -5.678473e+01
   5.930206e+01   7.594211e+00
   1.714910e+01   6.009876e+01
  -1.036870e+01   2.992885e+01
  -7.663429e+01  -2.749586e+01
  -8.597070e+01   2.345031e+01
  -4.865055e+01  -1.004969e+01
   5.162007e+01  -2.728801e+00
  -2.219545e+00  -4.739337e+01
  -1.604671e+01  -3.220494e+01
  -2.649515e-01  -6.411727e+01
   4.713072e+01  -2.472253e+01
   6.449831e+01   4.861912e+01
  -1.034149e+01   7.787761e+01
  -2.944241e+01   5.388684e+01
  -5.779284e+01   4.671328e+00
   5.500127e-01  -8.048382e+01
   3.896699e+01  -4.744765e+01
   1.083468e+02  -1.086081e+00
   3.473125e+01   5.054841e+01
  -1.072594e+01   3.293838e+01
  -5.746467e+01   4.568022e+01
  -1.886126e+01   1.682741e+01
   5.275828e+01  -5.765513e+00
   3.901699e+01  -1.803252e+00
   1.753799e+01   4.339107e+00
  -8.740853e+01   1.763202e+01
