
 $NMID
 id='ANONYMOUS ', fmtdat='(2E16.6)'
 volume=1.0
 tramp=1.0
 $END
   4.326460e+03  -5.098042e+01
   2.491723e+03   2.560094e+03
  -6.421925e+02   3.000279e+03
  -2.119615e+03   1.105553e+03
  -1.069369e+03  -3.145993e+02
   5.322284e+02  -3.699115e+02
   8.746427e+02   3.429947e+02
  -1.174967e+02   1.024368e+03
  -8.461474e+02   7.460379e+02
  -9.210336e+02  -1.713965e+02
  -4.121627e+02  -7.592866e+02
   2.025284e+02  -9.112475e+02
   5.682138e+02  -1.529769e+02
   2.607014e+02   6.392870e+02
  -2.149821e+02   6.480943e+02
  -5.228127e+02  -9.232936e+01
  -3.924624e+02  -5.115543e+02
   2.057118e+02  -7.161263e+02
   4.977451e+02  -1.111627e+02
   5.936454e+02   1.609574e+02
   2.307666e+02   3.140180e+02
  -2.348874e+02   3.153172e+02
  -1.598182e+02  -9.654405e+01
  -1.687504e+01  -1.073736e+02
   4.263450e+02   7.722014e+01
   2.542039e+02   5.380475e+02
  -5.106337e+02   4.546387e+02
  -9.524448e+02  -2.069453e+02
  -4.584085e+02  -5.572715e+02
   4.379418e+02  -3.662655e+02
   7.791705e+02  -8.642235e+01
   4.215882e+02   4.697519e+02
  -2.189587e+02   5.359141e+02
  -6.550613e+02   3.009135e+02
  -3.894520e+02  -3.341242e+02
  -4.384748e+01  -5.127567e+02
   1.711351e+02  -2.125213e+02
   1.838945e+02   2.397158e+02
  -1.532721e+02   4.664995e+02
  -3.992308e+02   7.180545e+01
  -2.737779e+02  -6.364967e+02
   3.615221e+02  -6.295728e+02
   5.707179e+02  -1.883822e+01
   2.794678e+02   6.195176e+02
  -2.597072e+02   3.677753e+02
  -4.033459e+02  -3.542261e+02
   1.181710e+02  -5.458689e+02
   5.365793e+02  -1.043189e+02
   6.199825e+02   5.350748e+02
   1.678722e+02   6.437952e+02
  -4.632965e+02   3.411412e+02
  -6.340588e+02  -1.070526e+02
  -4.569785e+02  -3.695128e+02
   1.370827e+02  -3.952101e+02
   4.112073e+02  -9.258145e+01
   2.719759e+02   1.708929e+02
  -7.917263e+01   7.657256e+01
  -1.132709e+02  -1.417423e+02
   1.892041e+02  -1.659228e+02
   3.450790e+02   1.002837e+02
   1.374252e+02   3.253356e+02
  -3.046881e+02   2.728485e+02
  -4.164079e+02   6.542605e+01
  -1.869190e+02  -1.079780e+02
   2.235730e+01  -2.794368e+02
   2.401358e+02  -3.761988e+02
   3.098215e+02  -1.962527e+02
   2.993972e+02   1.312734e+02
   5.663217e+01   4.388554e+02
  -1.061878e+02   4.204651e+02
  -1.343908e+02   1.381501e+02
  -2.728622e+01   8.819705e+00
  -1.127699e+02   4.516774e+01
  -2.350454e+02   1.075044e+02
  -2.655148e+02  -8.239400e+01
  -1.287773e+02  -2.543180e+02
   8.202791e+01  -2.504951e+02
   2.307295e+02   1.420190e+01
   1.787287e+02   2.564275e+02
  -1.195862e+01   2.804205e+02
  -2.711230e+02   1.393549e+02
  -3.824217e+02  -1.493514e+02
  -1.920366e+02  -3.164232e+02
   9.491830e+01  -3.137185e+02
   1.858909e+02  -1.319662e+02
   1.681146e+02  -8.260241e+00
   1.255382e+02  -4.057217e+01
   2.188822e+02  -3.496203e+01
   3.829926e+02   8.155735e+01
   3.424248e+02   2.988652e+02
   4.271241e+01   4.261395e+02
  -4.008058e+02   4.281420e+02
  -5.315455e+02   2.353996e+02
  -3.247606e+02  -7.879408e+01
  -4.027328e+01  -3.047772e+02
   1.671664e+02  -2.372320e+02
   6.725312e+01  -1.273093e+01
  -1.573397e+02   8.869342e+01
  -2.665252e+02  -1.358484e+01
  -4.869440e+01  -1.859038e+02
   1.630947e+02  -1.511844e+02
   1.898908e+02   5.882270e+01
  -3.819779e+00   1.482460e+02
  -1.506081e+02   1.099371e+01
  -1.592114e+02  -2.097513e+02
   2.105699e+01  -3.470075e+02
   1.939753e+02  -1.569302e+02
   3.508887e+02   6.877105e+01
   2.891854e+02   2.669993e+02
   4.719283e+01   2.708168e+02
  -1.653225e+02   1.685435e+02
  -1.860616e+02   2.928077e+00
  -5.564983e+01  -6.573762e+01
   3.873469e+01  -3.535608e+00
   2.800612e+01   1.144734e+02
  -1.178908e+02   8.426987e+01
  -1.449204e+02   8.251456e+00
  -5.058869e+01  -5.616542e+01
   7.031034e+01  -1.692587e+01
   7.630868e+01   4.656927e+01
  -1.388134e+02   7.582249e+01
  -2.691641e+02  -5.493678e+00
  -2.570892e+02  -9.961657e+01
  -4.118091e+01  -2.039682e+02
   1.954175e+02  -2.622942e+02
   2.871500e+02  -9.356271e+01
   1.578217e+02   6.031453e+01
  -2.802889e+01   1.057329e+02
  -7.286044e+01   4.772485e+01
   6.437088e+01  -4.213388e+01
   2.008708e+02  -2.544889e+01
   1.728156e+02   1.097594e+02
   6.678095e+01   2.048004e+02
  -9.743537e+01   1.696037e+02
  -1.496788e+02   6.564492e+01
  -7.430367e+01  -3.690145e+00
   4.339687e+01   5.922411e+00
   5.404999e+00   7.583420e+01
  -1.494809e+02   1.364872e+02
  -2.627254e+02   4.488048e+01
  -2.088722e+02  -1.448887e+02
  -3.870802e+01  -2.286058e+02
   2.068755e+02  -1.486504e+02
   2.167478e+02   1.291477e+01
   6.708538e+01   1.098941e+02
  -4.622484e+01   9.079712e+01
  -4.681114e+01   3.807711e+01
  -2.965402e+01  -4.575782e+00
   3.077443e+01  -1.466280e+01
  -2.805087e+01   2.561466e+01
  -8.552052e+01   4.146918e+00
  -1.102653e+02  -7.960968e+01
  -6.703617e-01  -1.841507e+02
   1.489801e+02  -1.944508e+02
   2.500945e+02  -4.212654e+01
   1.790151e+02   1.748180e+02
   4.096536e+00   2.563987e+02
  -1.278710e+02   1.916234e+02
  -1.363074e+02   4.851711e+01
  -6.803318e+01  -4.874126e+01
  -7.093064e+00  -2.199006e+01
  -7.835177e+01  -1.631925e+01
  -5.989661e+01  -2.099914e+01
  -4.962762e+01  -3.654495e+01
   6.063444e+01  -7.789392e+01
   1.239797e+02  -1.102069e+00
   8.265534e+01   4.528056e+01
  -3.253503e+01   1.179655e+02
  -1.875367e+02   8.716564e+01
  -2.269026e+02  -5.272019e+01
  -6.044320e+01  -2.194715e+02
   1.165723e+02  -1.932906e+02
   2.714355e+02  -1.192694e+02
   2.948736e+02   7.310230e+01
   9.416134e+01   1.868760e+02
  -3.719456e+01   1.498732e+02
  -7.211966e+01   9.697204e+01
  -4.517861e+01   8.663727e+01
  -5.818891e+01   1.393499e+02
  -8.889431e+01   1.090477e+02
  -1.789600e+02  -3.554281e+01
  -1.235796e+02  -1.915733e+02
  -1.635048e+01  -2.499885e+02
   1.010628e+02  -1.923059e+02
   1.611355e+02  -2.197255e+01
   1.460744e+02   1.412185e+02
   3.981295e+01   1.819898e+02
  -6.742074e+01   7.398860e+01
  -6.137289e+01  -2.075710e+00
   4.732746e+00  -6.412077e+01
  -3.531173e+01  -8.206950e+01
  -4.300826e+01  -4.807522e+01
  -9.231046e+01  -1.736454e+01
  -6.398207e+01  -4.791132e+01
   7.219072e+01  -5.663199e+01
   1.278144e+02  -3.591612e+01
   1.178129e+02   2.163186e+00
   4.268585e+00   6.234525e+01
  -1.184695e+02   6.888627e+01
  -1.244110e+02   5.733837e+01
  -2.363292e+01  -1.855019e+00
   6.163351e+01  -3.038332e+01
   1.437836e+02  -2.662625e+01
   2.078266e+01   5.473819e+01
  -4.743647e+01   4.776916e+01
  -4.697766e+01  -1.870244e+01
  -3.981365e+01  -3.332339e+01
   1.941676e+00  -1.978509e+01
  -1.736234e+01   4.758627e+01
   6.399142e+00   1.210059e+01
  -2.519522e+01  -8.788657e+01
   2.917458e+01  -1.369021e+02
   8.233056e+01  -1.315455e+02
   1.453983e+02  -3.509845e+01
   9.997131e+01   8.731284e+01
   2.869810e+01   1.486075e+02
  -3.993610e+01   8.675668e+01
  -5.392418e+01   1.415849e-01
   2.837771e+01  -6.406697e+01
   1.238088e+02   1.674882e+01
   1.030093e+02   6.852436e+01
  -6.893409e+01   1.167524e+02
  -1.816718e+02   7.698231e+01
  -1.768179e+02  -6.129059e+00
  -3.863426e+01  -7.283337e+01
   8.062836e+01  -9.667223e+01
   4.312254e+01  -7.012771e+00
  -7.255071e+01   1.360184e+01
  -1.147791e+02   1.177169e+01
  -1.827297e+01  -1.373317e+02
   8.694684e+01  -1.301854e+02
   1.731772e+02  -6.990530e+01
   1.275781e+02   1.096963e+02
   3.896745e+00   2.173107e+02
  -1.016235e+02   1.645712e+02
  -1.380481e+02  -8.634641e+00
  -8.378792e+01  -1.495405e+02
   1.508522e+01  -9.395091e+01
   8.427982e+01  -2.384883e+01
   5.710052e+01   2.102984e+01
   8.912338e+00  -8.118592e+00
  -9.410451e+00  -2.435902e+01
   1.636156e+01   1.917517e+01
   5.279839e+01   1.118449e+02
   8.148327e+01   1.361598e+02
  -3.338176e+01   4.743274e+01
  -1.057543e+02  -6.169984e+01
  -1.494710e+02  -1.298141e+02
  -1.304902e+01  -9.223023e+01
   8.183940e+01  -6.764268e+01
   1.040408e+02  -6.829646e+01
   4.091190e+01  -2.228668e+01
  -3.034299e+01  -1.177211e+01
   3.286688e+01   3.109036e+01
   3.058634e+01  -1.979652e+01
   5.798990e+00  -3.090933e+00
  -8.840246e+01   2.519810e+01
  -9.105254e+01  -9.219890e+00
   3.778876e+01  -7.106979e+01
   1.481534e+02  -1.221746e+02
   1.661453e+02  -9.221841e+01
   1.256280e+02   3.004218e+01
   2.404394e+01   1.564366e+02
  -7.029763e+01   1.617250e+02
  -7.118577e+01   7.005553e+01
  -6.687499e+01  -4.396878e+01
  -2.391595e+01  -2.171248e+01
  -1.383910e+01   2.359857e+01
   6.471093e+00   3.561266e+01
  -1.489117e+01  -3.912085e+01
  -3.028807e+01  -9.561152e+01
   2.792145e+01  -6.525642e+01
   5.118135e+01   2.966126e+01
   8.238800e+01   1.143044e+02
  -5.871892e+00   1.131271e+02
  -7.295358e+01  -1.884984e+01
  -1.020463e+02  -1.031363e+02
  -3.838364e+01  -1.297464e+02
   9.425559e+01  -7.313210e+01
   1.238394e+02   1.072651e+01
   3.325638e+01   8.442791e+01
  -5.087918e+01   8.060902e+01
  -6.169681e+01   1.967630e+01
   5.751029e+01  -1.937412e+01
   5.147818e+01  -6.977598e+01
   3.398461e-02   4.647973e+01
  -7.551606e+01   3.619261e+01
  -1.209560e+02   6.281048e+01
  -9.371932e+01  -1.607748e+01
   3.762231e+01  -1.121154e+02
   3.889692e+01  -6.439534e+01
   4.782098e+01  -3.468273e+01
  -2.844771e+00   7.242182e+01
  -4.208165e+01   3.942015e+01
  -7.189185e+01   2.784970e+00
  -1.962760e+01  -8.382405e+01
  -4.218866e+01   9.412974e+00
   7.354385e+00  -1.470379e+00
   5.397221e+01  -8.359639e-01
   6.262248e+01  -2.073722e+01
   3.452637e+01  -5.831131e+01
  -2.242089e+01   1.388461e+00
  -4.961150e+01   3.504209e+01
  -1.355982e+01   4.247517e+01
  -1.952992e+01   9.306034e+00
  -2.591895e+01  -5.182034e+01
  -3.021955e+01  -4.258920e+01
   2.491634e+01  -1.736855e+01
   6.920598e+01   4.945806e+01
  -1.148210e+01   4.729466e+01
  -6.791077e+01   5.917687e+00
  -8.736141e+01   1.241880e+01
  -6.474884e+01  -5.208005e+01
   6.354424e+01  -3.273124e+01
   7.490940e+01  -4.935278e+01
   5.160992e+01  -1.943855e+01
   2.659053e+00   2.238060e+01
  -4.473869e+00  -4.033970e+00
   4.163230e+01   3.044508e+01
   7.840178e+01   8.945036e+00
