
 $NMID
 id='ANONYMOUS ', fmtdat='(2E16.6)'
 volume=1.0
 tramp=1.0
 $END
   4.315689e+03   1.158382e+02
   2.795898e+03   2.935924e+03
  -9.073890e+02   3.027130e+03
  -2.147973e+03   8.946839e+02
  -8.635787e+02  -7.461613e+02
   7.001267e+02  -4.907376e+02
   1.081450e+03   5.947741e+02
  -8.009965e+01   1.199865e+03
  -8.765382e+02   8.406204e+02
  -9.104283e+02  -7.760866e+01
  -4.998837e+02  -9.511922e+02
   3.146058e+02  -9.532335e+02
   6.575409e+02  -3.490786e+01
   3.966073e+02   7.376466e+02
  -5.428596e+02   6.784623e+02
  -5.708231e+02  -1.047517e+02
  -1.592213e+01  -7.192550e+02
   1.782695e+02  -5.779122e+02
   5.813734e+02  -1.544946e+02
   4.306696e+02   3.119258e+02
  -1.010296e+02   2.848520e+02
  -3.231506e+02   3.939428e+02
  -2.259974e+02   4.137927e+01
   1.320657e+02  -3.681688e+01
   5.785783e+02   1.339712e+02
   1.905772e+02   4.473057e+02
  -4.322863e+02   5.614628e+02
  -9.118066e+02   3.696497e+01
  -6.436003e+02  -6.371711e+02
   4.256840e+02  -6.484773e+02
   8.072135e+02  -1.597656e+02
   4.074359e+02   4.856717e+02
  -1.980211e+02   5.250450e+02
  -5.213782e+02   2.452817e+02
  -3.676636e+02  -2.530281e+02
  -1.430534e+02  -5.077644e+02
   2.443143e+02  -3.603276e+02
   2.331632e+02   1.888274e+02
  -2.465551e+02   4.824539e+02
  -4.832404e+02  -3.524484e+01
  -2.748903e+02  -7.677194e+02
   3.812790e+02  -7.511383e+02
   6.716269e+02  -3.666747e+00
   3.394094e+02   6.729574e+02
  -2.861898e+02   3.976031e+02
  -4.686331e+02  -3.296503e+02
  -9.724610e+00  -6.287336e+02
   6.274953e+02  -2.021944e+02
   6.446725e+02   4.023757e+02
   1.600027e+02   6.448069e+02
  -3.860998e+02   3.814891e+02
  -6.150702e+02  -6.921273e+01
  -3.185795e+02  -3.722788e+02
   2.383120e+02  -3.539074e+02
   4.770349e+02  -1.415909e+01
   2.040548e+02   2.565988e+02
  -2.116636e+02   1.766553e+02
  -1.842809e+02  -1.042416e+02
   1.315603e+02  -2.016276e+02
   3.662117e+02   6.863911e+01
   1.463146e+02   2.719845e+02
  -2.104886e+02   2.617338e+02
  -3.399083e+02   9.499012e+01
  -2.422486e+02  -4.863288e+01
   2.379637e+01  -2.801900e+02
   1.895932e+02  -3.270953e+02
   3.461776e+02  -1.914034e+02
   3.183776e+02   1.861157e+02
   1.177622e+02   4.223028e+02
  -1.340860e+02   3.885873e+02
  -1.699597e+02   1.297480e+02
  -6.514332e+01  -8.586228e+01
  -3.178628e+01   3.085637e+01
  -1.545027e+02   8.287620e+01
  -2.395031e+02  -1.109530e+01
  -1.864561e+02  -2.166561e+02
   1.123129e+02  -2.638538e+02
   2.883299e+02   5.382107e-02
   2.169337e+02   2.770514e+02
  -2.665588e+01   3.020145e+02
  -2.770648e+02   1.229521e+02
  -3.851379e+02  -1.529863e+02
  -1.896719e+02  -3.432711e+02
   1.181132e+02  -2.719594e+02
   2.062739e+02  -1.697617e+02
   2.104813e+02  -4.459234e+01
   9.244891e+01  -2.933260e+01
   2.025810e+02  -3.343315e+01
   3.935237e+02   4.809075e+01
   3.206434e+02   2.822072e+02
   5.152107e+01   4.573920e+02
  -3.664216e+02   4.380467e+02
  -5.183827e+02   2.176647e+02
  -3.755034e+02  -1.089437e+02
  -4.279254e+01  -3.213136e+02
   1.598375e+02  -2.433585e+02
   8.729139e+01  -2.209205e+01
  -1.287085e+02   8.737755e+01
  -1.964090e+02  -9.961008e+00
  -6.299184e+01  -1.843493e+02
   1.758584e+02  -1.422606e+02
   1.894560e+02   5.184618e+01
  -3.401324e+01   2.208221e+02
  -2.492274e+02   4.546547e+01
  -2.023626e+02  -2.477761e+02
   2.751442e+01  -3.429644e+02
   2.393224e+02  -1.972729e+02
   3.479538e+02   7.691756e+01
   2.724660e+02   2.416623e+02
   9.403588e+01   2.598366e+02
  -9.107237e+01   1.579458e+02
  -1.843542e+02   4.224265e+01
  -4.930170e+01  -1.980883e+01
   3.746887e+01   3.432053e+01
   3.586944e+01   6.006316e+01
  -1.080999e+02   7.105430e+01
  -1.868014e+02   6.645057e+01
  -9.755383e+01  -3.111095e+01
   8.640152e+01  -3.053690e+01
   3.907110e+01   7.774208e+01
  -1.233734e+02   7.705359e+01
  -2.804100e+02   1.047419e+01
  -2.621003e+02  -1.473822e+02
  -4.756752e+01  -2.540384e+02
   2.085227e+02  -2.562739e+02
   2.685428e+02  -1.108083e+02
   1.063529e+02   6.974165e+01
  -4.651175e+01   1.032206e+02
  -1.165465e+02   2.255973e+01
   3.400046e+01  -1.159100e+02
   2.157116e+02  -9.624883e+01
   1.658952e+02   9.287438e+01
   3.060251e+01   2.201155e+02
  -1.291183e+02   1.905266e+02
  -1.638978e+02  -1.032859e+01
  -7.256323e+01  -8.119629e+01
   6.138383e+01  -1.837450e+01
   8.248010e+01   1.032240e+02
  -8.882413e+01   1.409005e+02
  -2.061485e+02   6.701838e+01
  -2.146155e+02  -1.540790e+02
  -9.441898e+00  -2.179289e+02
   1.835771e+02  -1.687289e+02
   2.606553e+02   1.425480e+01
   5.686327e+01   9.794548e+01
  -1.109332e+02   1.476954e+02
  -1.391516e+02   7.442100e+01
  -5.375501e+01  -6.012456e+01
   2.134905e+01  -4.330427e+01
   2.236211e+01   3.345327e+00
  -6.500458e+01   3.890968e+01
  -9.428460e+01  -3.970730e+01
  -3.445982e+01  -1.241797e+02
   1.568364e+02  -1.910657e+02
   2.489429e+02  -4.832737e+01
   1.813726e+02   1.749500e+02
   1.455482e+01   2.615127e+02
  -9.319585e+01   2.180897e+02
  -1.632618e+02   8.047968e+01
  -1.007058e+02  -7.310354e+01
   7.139739e+00  -4.540726e+01
  -4.595037e+01   1.097180e+01
  -9.107342e+01   2.041874e+01
  -1.488029e+01  -3.357941e+01
  -6.345943e+00  -1.198578e+02
   1.003506e+02  -3.112971e+01
   9.773407e+01   4.493360e+01
  -5.924886e+00   1.158041e+02
  -1.479364e+02   9.563239e+01
  -2.095574e+02  -6.527794e+01
  -1.519184e+02  -1.848711e+02
   9.686645e+01  -1.914589e+02
   2.940502e+02  -6.839452e+01
   2.940918e+02   4.872468e+01
   1.070951e+02   1.609752e+02
  -6.760613e+01   1.194074e+02
  -1.018268e+02   6.866307e+01
  -8.571289e+01   4.938758e+01
  -4.946089e+01   9.165082e+01
  -7.188830e+01   6.558440e+01
  -8.906209e+01  -3.547169e+01
  -1.201307e+02  -1.255664e+02
   1.763587e+01  -2.019722e+02
   1.297087e+02  -1.359865e+02
   1.586127e+02   3.574763e+00
   9.952470e+01   1.140004e+02
  -1.071921e+00   1.129095e+02
  -5.544987e+01   6.514258e+01
  -6.413440e+01   2.431076e+01
   6.434333e+00  -4.560563e+01
   2.067646e+01  -3.158200e+01
  -3.044477e+01  -2.710838e+00
  -9.498488e+01   3.148269e+00
  -3.210563e+01  -3.282654e+00
   4.642504e+01   1.139625e+01
   1.264507e+02   4.033775e+00
   1.038943e+02   5.814582e+01
  -3.478689e+01   5.067594e+01
  -1.414309e+02   6.055455e+01
  -1.399971e+02  -2.254803e+01
  -5.124829e+01  -6.584953e+00
   7.306293e+01  -2.752278e+01
   1.017537e+02   6.103084e+00
   6.336648e+01   3.902442e+01
  -1.575976e+01   1.019359e+02
  -4.970730e+01   2.545578e+01
  -4.924233e+01  -1.791925e+01
  -8.146310e+01  -2.514107e+01
  -1.306377e+02   1.522991e+00
  -1.049846e+02  -7.354298e+00
  -2.119287e+01  -1.095500e+02
   2.272247e+01  -9.875226e+01
   1.213511e+02  -1.480729e+02
   2.042830e+02  -6.987338e+00
   1.002614e+02   1.150447e+02
   1.071488e+01   1.384177e+02
  -1.378496e+02   5.393334e+01
  -3.964745e+01  -4.483870e+01
   7.746892e+01  -3.156125e+01
   1.400433e+02   3.493479e+01
   7.289061e+01   1.332004e+02
  -9.561004e+01   1.355153e+02
  -1.700282e+02   5.234595e+01
  -1.784244e+02  -6.578828e+01
  -3.533403e+01  -9.721657e+01
   5.346662e+01  -9.223137e+01
   5.177582e+01  -9.862539e+00
  -5.482287e+01   5.244978e+01
  -6.135045e+01  -4.017477e+01
  -6.696131e+01  -1.339511e+02
   9.189510e+01  -1.122247e+02
   1.515323e+02  -5.958264e+01
   1.440036e+02   5.561390e+01
   4.888450e+01   2.526905e+02
  -5.399168e+01   1.481076e+02
  -9.227430e+01  -1.047870e+01
  -7.853673e+01  -8.788260e+01
  -1.585758e+01  -1.018515e+02
   9.779689e+00  -2.808586e+01
   1.541586e+01   8.278162e+00
   2.953818e+01   6.004387e+00
   4.529902e+01   2.379535e-01
   2.660023e+01   4.358327e+01
   7.868060e+01   1.264442e+02
   4.104506e+01   1.216962e+02
  -7.764671e+00   2.786327e+01
  -1.425050e+02   1.633929e+01
  -1.301205e+02  -5.567929e+01
  -1.638580e+01  -4.360276e+01
   5.618074e+01  -2.212184e+01
   9.825019e+01   1.286580e+01
   5.402680e+01  -2.528913e+01
   1.918828e-01   1.969314e+01
  -3.035763e+01   1.757960e+01
  -7.747746e+00  -1.573626e+01
  -7.203901e+00   1.235795e+01
  -4.871606e+01  -1.195689e+01
  -4.910819e+01  -2.121562e+01
  -9.323872e+00  -1.244765e+02
   1.077364e+02  -1.172690e+02
   1.737544e+02  -4.612261e+01
   1.124753e+02   4.819853e+01
   2.575944e+01   1.480220e+02
  -5.867129e+01   1.584041e+02
  -1.173886e+02   1.358574e+01
  -3.148732e+01  -2.674221e+01
   1.465313e+01  -3.551296e+01
  -6.916963e-01  -9.204591e+00
  -2.374449e+01   1.078660e+01
  -8.403252e+01  -3.098417e+01
  -5.712162e+01  -8.612930e+01
   1.635343e+01  -5.206111e+01
   1.151608e+02   2.194827e+01
   1.276795e+02   1.032614e+02
   2.260046e+01   7.821370e+01
  -1.057499e+02   2.049757e+01
  -8.166905e+01  -3.500971e+01
  -4.979414e+01  -1.081233e+02
   7.526075e+01  -8.481835e+01
   1.226897e+02   3.982761e+01
   3.650426e+01   4.424224e+01
  -3.397228e+01   5.830957e+01
   7.530806e+00   3.391679e+01
   3.613178e+01   2.187722e+01
   5.556642e+01  -3.575507e+01
   1.285394e+01   9.659983e+00
  -6.849039e+01   2.671648e+01
  -9.152497e+01   7.591922e+01
  -5.543884e+01   1.248639e+01
   1.541986e+01  -5.628377e+01
   1.914192e+01  -8.405218e+01
  -1.254611e+01  -4.249482e+01
   8.941007e+00   2.993635e+01
   5.676139e+00   4.304518e+01
  -3.220683e+01  -3.039745e+01
   3.985388e+00  -7.666701e+01
   3.213868e+01  -1.252702e+01
   6.457759e+01   6.068336e+00
   9.187664e+00  -8.703666e+00
   2.184557e+01  -2.218301e+01
  -1.167627e+01  -1.020463e+01
  -1.449984e+01   7.983118e+00
  -3.189853e+01   1.736276e+01
   1.557909e+01   1.538943e+01
  -1.495885e+01  -3.342042e+01
   2.738530e+01  -7.257663e+01
   3.709367e+01  -5.143611e+01
   2.671312e+01   9.900228e+00
   4.937294e+01   4.306652e+01
   1.362499e+01   4.126764e+01
  -3.146391e+01   2.042602e+01
  -1.017252e+02   8.087465e+00
  -5.004335e+01  -1.460623e+01
   5.144244e+01  -2.734421e+01
   6.926976e+01  -3.487310e+01
   4.613075e+00   1.126871e+01
  -6.043511e+01  -4.590565e+01
   2.060273e+00  -3.865704e+01
   8.739926e+01  -2.943039e+01
   1.027134e+02   1.713123e+00
