
 $NMID
 id='ANONYMOUS ', fmtdat='(2E16.6)'
 volume=1.0
 tramp=1.0
 $END
  -3.665715e+03  -9.657665e+01
  -2.248172e+03  -2.183737e+03
   1.051809e+02  -2.370722e+03
   1.790985e+03  -1.350961e+03
   7.901897e+02   2.454100e+02
  -2.690927e+02   2.667267e+02
  -5.460785e+02  -2.790953e+02
  -4.310915e+01  -7.382453e+02
   6.290529e+02  -7.029468e+02
   5.790744e+02   9.411548e+01
   4.960863e+02   6.886666e+02
   2.630703e+00   8.842139e+02
  -3.866570e+02   3.086153e+02
  -2.765191e+02  -7.684849e+02
   3.761830e+02  -5.824218e+02
   3.855306e+02  -8.917447e+01
   1.482381e+02   4.461542e+02
  -2.908170e+02   5.564056e+02
  -3.463891e+02  -3.672161e+01
  -4.076144e+02  -4.068695e+02
  -5.975924e+01  -4.798443e+02
   1.622697e+02  -1.973686e+02
   1.775104e+02  -1.116552e+02
   8.206108e+01   5.718670e+01
  -3.257850e+02  -1.878825e+02
  -3.029603e+02  -4.129643e+02
   4.863557e+02  -3.513196e+02
   6.722415e+02   1.897407e+02
   3.601011e+02   4.783911e+02
  -2.743266e+02   4.040088e+02
  -6.470163e+02  -9.886968e+01
  -1.726094e+02  -3.176234e+02
   3.897103e+02  -4.696286e+02
   4.470868e+02  -1.704918e+02
   4.053226e+02   1.160685e+02
   3.363216e+01   4.117463e+02
  -1.574958e+02   2.112611e+02
   7.088428e+00  -1.479603e+02
   1.965924e+02  -3.371891e+02
   3.943380e+02   9.393887e+01
   2.069102e+02   6.101545e+02
  -2.390851e+02   6.016732e+02
  -4.334824e+02  -8.044746e+01
  -1.702118e+02  -4.510013e+02
   2.020089e+02  -1.667493e+02
   2.802281e+02   3.898940e+02
  -8.581871e+01   5.146397e+02
  -4.690997e+02   1.227550e+02
  -5.162182e+02  -3.703975e+02
  -1.368534e+02  -5.590408e+02
   3.204791e+02  -3.690183e+02
   5.415276e+02  -3.246275e+00
   3.345837e+02   3.216156e+02
  -1.056322e+02   3.535254e+02
  -3.633068e+02   1.340861e+02
  -2.215933e+02  -1.472156e+02
   7.133894e+01  -1.077916e+02
   1.107453e+02   6.071788e+01
  -1.584962e+02   1.359124e+02
  -3.129193e+02  -3.364955e+01
  -1.557049e+02  -2.490566e+02
   1.659335e+02  -2.900875e+02
   3.459563e+02  -1.422384e+02
   2.822834e+02   6.407198e+01
   2.320497e+01   2.976957e+02
  -2.479645e+02   3.518129e+02
  -3.971735e+02   1.896721e+02
  -2.884987e+02  -1.881495e+02
  -5.891186e+01  -4.344375e+02
   7.744690e+01  -3.188714e+02
   5.911800e+01  -1.403443e+02
   1.469017e+01  -4.739887e+01
   8.007218e+01  -1.171239e+02
   2.172865e+02  -7.706186e+01
   2.754220e+02   1.286258e+02
   6.023220e+01   2.336176e+02
  -1.621881e+02   1.764514e+02
  -2.428014e+02  -8.361801e+01
  -1.326905e+02  -3.072188e+02
   6.389184e+01  -3.202161e+02
   2.675887e+02  -8.883647e+01
   3.529357e+02   1.574036e+02
   2.156256e+02   2.810515e+02
  -8.780910e+01   2.418524e+02
  -1.670878e+02   1.247164e+02
  -1.329015e+02   3.250640e+01
  -1.060433e+02   5.224334e+01
  -2.146976e+02   5.307485e+01
  -3.793369e+02  -6.314263e+01
  -3.176176e+02  -2.760402e+02
   3.514705e+01  -4.540355e+02
   3.767934e+02  -3.582379e+02
   4.908420e+02  -1.495778e+02
   3.427130e+02   9.354485e+01
   5.127388e+00   2.265846e+02
  -1.043208e+02   1.849356e+02
  -1.098696e+02   2.963675e+01
   9.837757e+01  -6.294814e+00
   1.208053e+02   2.697930e+01
   5.340533e+01   1.115556e+02
  -1.702973e+02   3.082724e+01
  -1.588977e+02  -9.329484e+01
   1.039544e+01  -1.502435e+02
   1.990028e+02   7.739043e+00
   1.538418e+02   1.848973e+02
  -2.251310e+01   2.777111e+02
  -2.310591e+02   1.001694e+02
  -3.048637e+02  -6.116093e+01
  -2.236148e+02  -2.190934e+02
  -6.930389e+01  -2.412319e+02
   1.053565e+02  -1.381911e+02
   1.196122e+02  -1.897851e+01
   3.170358e+01   5.773549e+01
  -6.085590e+01  -3.440667e+01
  -7.129066e+01  -1.083396e+02
   1.237442e+02  -2.089664e+01
   1.641255e+02   4.888103e+01
   2.667161e+01   8.520234e+01
  -1.285152e+02  -1.058002e+01
  -6.821263e+01  -9.994862e+01
   1.180379e+02  -1.291234e+02
   2.511286e+02  -1.513021e+01
   2.556391e+02   1.660133e+02
   4.340305e+01   2.126906e+02
  -1.702432e+02   2.211559e+02
  -3.067715e+02   1.483390e+02
  -1.961320e+02  -6.781071e+01
   2.148793e+01  -9.987940e+01
   9.745734e+01  -1.505239e+01
   9.446994e+00   9.143205e+01
  -1.191472e+02   6.444000e+01
  -2.246778e+02  -9.586382e+01
  -4.473305e+01  -1.771376e+02
   8.175229e+01  -1.450390e+02
   1.462495e+02  -6.789535e+00
   4.816890e+01   3.679927e+01
  -7.845395e+01   2.030587e+01
  -3.013804e+01  -1.013353e+02
   6.566882e+01  -1.282605e+02
   1.819098e+02  -2.917230e+01
   1.995511e+02   1.362527e+02
   1.226862e+01   2.271430e+02
  -1.531150e+02   1.775312e+02
  -1.202930e+02  -1.330562e+01
  -7.387550e+01  -8.805266e+01
   4.922937e+01  -1.076599e+02
   8.879977e+01  -4.905552e+01
   1.602158e+01  -3.274336e+01
   1.215851e+01  -3.389606e+01
   6.962725e+00  -2.146760e+01
   4.126880e+01   2.173318e+01
   1.087118e+02   1.326827e+02
  -1.585728e+00   2.035434e+02
  -1.282047e+02   1.692998e+02
  -2.333301e+02   4.227464e+01
  -2.066848e+02  -1.653747e+02
  -4.441213e+01  -1.930011e+02
   7.919282e+01  -1.126228e+02
   1.060882e+02  -4.914882e+01
   4.801815e+01   2.741729e+01
   2.020235e+01  -4.320172e+01
   2.877220e+01  -2.092561e+01
   8.423845e+01   1.765959e+01
   2.512897e+01   8.456135e+01
  -3.055795e+01   1.014017e+02
  -1.246814e+02   4.577822e+01
  -9.987337e+01  -4.016158e+01
   2.080808e+01  -1.404130e+02
   2.064140e+02  -7.430753e+01
   1.587607e+02   1.825638e+01
   1.257095e+02   1.819088e+02
  -1.167831e+02   2.444671e+02
  -2.247525e+02   5.525642e+01
  -2.222866e+02  -6.026485e+01
  -1.366793e+02  -1.675833e+02
   5.816442e+01  -1.100207e+02
   9.388719e+01  -6.677656e+01
   5.203371e+01   2.597306e+00
   3.932229e+01  -5.837399e+01
   5.557017e+01  -1.049256e+02
   1.365312e+02   2.984124e+01
   1.230293e+02   1.478942e+02
   5.844084e+01   2.346329e+02
  -7.560162e+01   1.706145e+02
  -1.460466e+02   3.415167e+00
  -1.223538e+02  -1.483299e+02
  -1.184490e+01  -1.642630e+02
   6.449184e+01  -8.074171e+01
   4.673024e+01  -2.703143e+01
   2.924348e+01   4.653027e+01
  -2.557195e+01   5.563560e+01
  -2.666975e+01  -1.835024e+01
   8.779652e+01   3.801759e+01
   2.356909e+01   5.042679e+01
  -7.097508e+01   1.146572e+02
  -1.714198e+02   3.332154e+01
  -2.240991e+02  -7.252623e+01
  -5.926665e+00  -1.278883e+02
   1.369393e+02  -6.838868e+01
   1.253706e+02  -1.405404e+01
   5.526283e+01   6.493825e+01
  -5.628636e+01   7.578849e+01
  -1.182597e+02  -5.818888e+01
  -6.277063e+01  -9.038911e+01
   4.120435e+01  -7.000392e+01
   3.038553e+01   1.653893e+00
   7.584075e+01   4.244798e+01
   5.851401e+01   7.120345e+01
   3.023495e+01   1.472496e+01
   2.857851e+01  -3.461782e-01
   5.162696e+01   6.715619e+01
  -6.878391e+01   9.853765e+01
  -1.291718e+02   8.966898e+01
  -1.322821e+02   4.126615e+01
  -1.027137e+02  -7.921821e+01
  -2.049009e+01  -9.519777e+01
   7.264514e+01  -7.439052e+01
   6.934217e+01   2.399052e+01
  -4.731618e+01  -1.261668e+01
  -1.039505e+02  -3.508914e+01
  -7.153516e+01  -9.707065e+01
   1.249678e+02  -1.091442e+02
   1.831479e+02  -3.021300e+01
   1.513433e+02   6.358753e+01
   8.448991e+01   6.553081e+01
  -3.782698e+01   3.598404e+01
  -6.228024e+01   2.849282e+01
   7.039182e+01  -4.829058e+01
   9.016889e+01   1.625141e+01
   7.725780e+01   1.329129e+02
  -5.396834e+01   1.623938e+02
  -1.301731e+02   9.008047e+01
  -1.263049e+02  -7.455735e+01
   2.858263e+01  -1.702701e+02
   8.327068e+01  -1.344015e+02
   1.069428e+02   2.500228e+01
   9.752490e+01   1.303729e+02
   3.304055e+01   1.251831e+02
  -3.050178e+01   5.766344e+01
  -4.599785e+01  -9.928295e+00
  -1.655771e+01  -5.917728e+01
   1.081467e+01   7.930948e+00
  -5.783228e+01   1.111382e+01
  -5.686976e+01  -8.876368e+01
  -6.838803e+01  -9.747410e+01
   3.030947e+01  -5.740397e+01
   1.255988e+02   2.184059e+01
   1.500664e+02   9.231448e+01
  -2.347699e+01   4.132153e+01
  -7.510825e+01   3.763293e+01
  -8.253179e+01   1.159175e+01
  -4.484866e+01  -4.712105e+01
   2.896037e+01  -1.820155e+01
   4.957853e+01  -1.185289e+00
  -1.469906e+01  -1.885253e+00
   2.723156e+01   2.815649e-01
   6.691250e+01   2.474357e+01
   9.293628e+01  -2.738576e+01
  -6.044121e+00   1.293469e+02
  -8.996224e+01   1.135150e+02
  -1.678662e+02   6.996462e+01
  -1.282981e+02  -5.551997e+01
   2.363555e+01  -1.595532e+02
   9.093271e+01  -1.347319e+02
   1.185428e+02  -5.458411e+01
   6.567123e+01   2.563033e+00
  -3.930386e+00   1.014594e+02
   7.374640e+00   1.448672e+01
   4.017270e+01   1.616415e+01
  -3.603994e+00   3.790753e+01
   9.153386e+00   6.064977e+01
  -5.517512e+01   1.302957e+01
  -5.921314e+01  -4.288986e+01
  -9.306957e+01  -1.470035e+02
   1.460458e+01  -8.429380e+01
   8.321087e+01  -2.643705e+01
   8.029327e+01   5.636194e+01
   2.580210e+00   7.342704e+01
  -9.086732e+01   2.208073e+01
  -8.434490e+01  -2.698490e+01
  -1.115382e+01  -3.862602e+01
   1.721627e+01  -4.179868e+01
   4.215765e+01  -6.258458e+01
  -2.743176e+01   3.405420e+01
  -6.455238e+01   8.670012e+00
  -4.484662e+01   1.381585e+01
   6.732638e+01  -6.869129e+01
   7.920175e+01  -6.026412e-01
   2.886747e+01  -1.077381e+00
  -4.499698e+01   4.462785e+01
  -4.895005e+01   1.072577e+02
  -5.818607e+01  -1.659698e+01
  -5.702272e+00  -8.141908e+01
   5.033824e+01  -2.936874e+01
   7.973679e+01   2.310811e+01
   3.490633e+01   8.150001e+01
   3.145271e+01   7.336857e+01
  -5.229159e+01   2.657413e+01
  -3.189724e+01  -2.544493e+01
  -2.659493e+01   4.940266e+00
  -5.836244e+00   1.680564e+01
   4.179045e+00   2.382211e+01
   5.213266e-01  -4.990272e+01
  -1.243068e+01  -4.191940e+01
   5.147704e+01  -2.399480e+01
   2.085576e+01   4.268852e+01
   2.602643e+00   2.253766e+01
  -5.434198e+01   3.455581e+01
  -1.054994e+02  -2.907083e+01
  -3.099682e+01  -8.781497e+01
   3.518110e+01  -5.279442e+01
   1.362093e+02   3.596646e+01
   5.436897e+01   6.876043e+01
  -3.419129e+01   6.893434e+01
  -7.299099e+01   2.743426e+00
  -6.021090e+01   6.133597e+00
   4.571757e+01  -3.530691e+01
   2.562401e+01   6.751064e+00
  -1.938026e+01   2.390881e+01
  -6.911648e+01  -2.006933e+01
