
 $NMID
 id='ANONYMOUS ', fmtdat='(2E16.6)'
 volume=1.0
 tramp=1.0
 $END
  -4.419700e+03  -5.493687e+01
  -2.663963e+03  -2.617444e+03
   8.442867e+02  -2.911657e+03
   2.278342e+03  -8.438375e+02
   8.339101e+02   8.115260e+02
  -8.202074e+02   6.309206e+02
  -1.200878e+03  -5.476449e+02
  -3.257946e+00  -1.220618e+03
   8.972747e+02  -7.235172e+02
   1.106963e+03   2.736149e+02
   4.815916e+02   9.688395e+02
  -4.094404e+02   1.069646e+03
  -6.380575e+02   8.477691e+01
  -2.640399e+02  -7.386652e+02
   2.180070e+02  -8.610860e+02
   5.962742e+02   2.446760e+02
   1.887279e+02   7.342712e+02
  -2.977982e+02   4.696677e+02
  -6.347637e+02   1.292812e+02
  -4.101214e+02  -2.128214e+02
  -1.129876e+02  -5.079476e+02
   2.365640e+02  -3.625677e+02
   3.666049e+02   4.331051e+01
  -2.702892e+02   2.387734e+02
  -5.300675e+02   5.166817e+01
  -1.655265e+02  -5.245474e+02
   5.132630e+02  -3.882215e+02
   9.649695e+02  -2.053603e+01
   5.329205e+02   5.755592e+02
  -3.924575e+02   4.807120e+02
  -7.466135e+02  -1.112492e+01
  -3.297428e+02  -5.930161e+02
   3.664255e+02  -4.933047e+02
   6.524747e+02  -2.094439e+02
   5.557711e+02   3.354278e+02
   1.206572e+02   5.563764e+02
  -2.633154e+02   3.275348e+02
  -2.442831e+02  -3.118970e+02
   1.344452e+02  -5.053419e+02
   4.594172e+02  -8.064930e+01
   2.764115e+02   6.668247e+02
  -2.886792e+02   7.694126e+02
  -7.019755e+02   3.871030e+01
  -3.317852e+02  -6.235696e+02
   3.213769e+02  -4.567036e+02
   4.083517e+02   2.392176e+02
  -4.199364e+01   5.832946e+02
  -5.568501e+02   1.895086e+02
  -5.711701e+02  -4.209156e+02
  -1.133766e+02  -6.677535e+02
   4.663360e+02  -4.368253e+02
   6.887586e+02   8.014922e+01
   4.078717e+02   4.434404e+02
  -9.368671e+01   4.445626e+02
  -4.546202e+02   1.347191e+02
  -3.094238e+02  -1.588976e+02
   1.418918e+02  -1.545829e+02
   1.819736e+02   1.201886e+02
  -1.501317e+02   1.785596e+02
  -4.061579e+02  -5.745282e+01
  -1.931251e+02  -2.682511e+02
   2.397178e+02  -3.096813e+02
   3.860380e+02  -1.113428e+02
   2.696044e+02   9.259148e+01
  -1.738372e+01   2.633110e+02
  -2.118390e+02   3.653674e+02
  -3.502665e+02   2.256628e+02
  -2.964937e+02  -1.232355e+02
  -8.857008e+01  -4.175354e+02
   1.356763e+02  -3.800776e+02
   1.238311e+02  -1.242717e+02
   6.496510e+01   1.221703e+01
   4.492161e+01  -7.139452e+01
   1.862899e+02  -9.889654e+01
   2.980017e+02   2.288403e+01
   1.457118e+02   2.704590e+02
  -1.086169e+02   2.409089e+02
  -2.669739e+02  -2.553908e+01
  -2.097560e+02  -2.246244e+02
   4.476161e+00  -3.402449e+02
   3.391758e+02  -1.370217e+02
   4.081622e+02   1.612779e+02
   1.641554e+02   3.651127e+02
  -1.394864e+02   3.525347e+02
  -2.510874e+02   1.436485e+02
  -1.523067e+02  -5.310808e+01
  -3.008709e+01  -1.175128e+01
  -2.250194e+02   5.325401e+01
  -3.620249e+02  -1.360073e+01
  -3.166613e+02  -2.894147e+02
   4.185344e+01  -4.640482e+02
   3.953089e+02  -4.176634e+02
   4.922366e+02  -1.934421e+02
   2.523328e+02   1.499303e+02
   4.903821e+01   3.232681e+02
  -1.492392e+02   2.692556e+02
  -7.210022e+01   2.622534e+00
   1.366336e+02  -1.295879e+02
   1.842450e+02   3.435972e+01
   5.294303e+00   1.850180e+02
  -2.270388e+02   1.983457e+02
  -1.901997e+02  -2.351032e+01
   3.493998e+01  -2.004905e+02
   2.446363e+02  -2.782806e+01
   1.468144e+02   1.956088e+02
  -4.152435e+01   3.135845e+02
  -2.164434e+02   2.134287e+02
  -2.871776e+02  -5.152491e+01
  -2.769588e+02  -2.363834e+02
  -5.420348e+01  -2.429387e+02
   1.287035e+02  -1.472656e+02
   2.058307e+02   2.668718e+01
   4.711705e+01   3.142154e+01
  -9.826341e+01  -9.034520e+00
  -4.629390e+01  -1.402970e+02
   8.688204e+01  -8.795616e+01
   1.917611e+02   3.357998e+01
   8.795430e+01   1.081478e+02
  -4.426088e+01   2.054102e+01
  -2.756529e+01  -8.692043e+01
   9.386059e+01  -1.131114e+02
   2.399001e+02  -2.164667e+01
   2.875176e+02   1.507044e+02
   6.445732e+01   2.843114e+02
  -1.226912e+02   2.398306e+02
  -3.128753e+02   1.058103e+02
  -1.916268e+02  -7.114155e+01
   1.013031e+01  -1.443014e+02
   9.224989e+01  -1.561797e+00
  -1.517526e+01   1.291976e+02
  -2.107676e+02   3.463112e+01
  -2.387926e+02  -8.311302e+01
  -4.988226e+01  -2.053685e+02
   1.227131e+02  -2.069177e+02
   1.876955e+02  -4.687075e+01
   8.152427e+01   5.224670e+01
  -1.490119e+01   4.850991e+01
  -5.372774e+01  -4.570983e+01
   2.023108e+01  -1.318923e+02
   1.873584e+02  -6.706493e+01
   1.991412e+02   1.105692e+02
   2.098065e+01   2.120661e+02
  -1.758627e+02   1.800899e+02
  -2.273510e+02   1.532177e+01
  -7.334072e+01  -1.110614e+02
   6.948961e+01  -1.814078e+02
   1.201490e+02  -4.906546e+01
   5.092647e+01   1.632613e+01
  -3.338338e+01   7.731477e+01
  -1.944119e+01   3.462120e+00
   8.314769e+01   4.984778e+01
   9.981040e+01   9.278914e+01
   3.548606e+01   1.399063e+02
  -1.318044e+02   1.350260e+02
  -2.245142e+02   1.366359e+01
  -2.206156e+02  -1.375686e+02
  -2.795087e+01  -2.259010e+02
   1.051001e+02  -1.296360e+02
   1.433823e+02  -2.797090e+01
   4.468027e+01   5.249157e+01
   2.640232e+01  -7.997864e+00
   2.313417e+01  -1.764912e+01
   9.498667e+01  -4.475914e+01
   7.461822e+01   1.194715e+01
   3.543634e+00   7.905267e+01
  -8.806156e+01   8.264379e+01
  -7.425730e+01   1.816513e+01
   3.034901e+01  -8.399325e+01
   1.434618e+02  -9.631958e+01
   1.911386e+02   6.292766e+01
   6.937865e+01   1.880039e+02
  -1.070961e+02   2.357032e+02
  -2.710638e+02   5.071685e+01
  -2.537554e+02  -9.753715e+01
  -1.066403e+02  -1.901161e+02
   4.520118e+01  -1.596457e+02
   1.248863e+02  -9.237049e+01
   9.571346e+01  -4.149192e+01
   8.635838e+01  -6.079383e+01
   8.309016e+01  -7.413912e+01
   5.723107e+01   2.066769e+01
   1.035268e+02   1.513254e+02
   3.509992e+01   1.895246e+02
  -8.605461e+01   1.338864e+02
  -1.588000e+02  -1.659253e+01
  -1.759933e+02  -1.329758e+02
  -3.541120e+01  -1.624219e+02
   8.550487e+01  -9.671648e+01
   7.190153e+01  -2.619388e+01
   1.750211e+01   3.276113e+01
   1.448579e+01  -4.373602e+00
   3.010154e+01   6.068638e+01
   7.661646e+01   3.912903e+01
   3.677336e+01   4.393209e+01
  -4.895074e+01   3.782971e+01
  -1.563059e+02  -1.546028e+01
  -2.029203e+02   2.927596e+01
  -7.766609e+00  -6.399922e+01
   1.100321e+02  -8.086657e+01
   9.788060e+01  -4.482927e+01
   7.849011e+01   3.306535e+01
  -6.666985e+01   7.174915e+01
  -5.524187e+01  -1.540852e+01
  -2.179435e+01  -5.340543e+01
   5.439405e+01  -1.023236e+02
   4.120126e+01  -1.122209e+01
   6.549316e+01   4.997716e+01
   6.015674e+01   8.927132e+01
   1.006347e+02   1.154973e+01
   4.665785e+01  -1.925107e+00
   6.093606e+00   9.908947e-01
  -4.609895e+01   1.003619e+02
  -7.337878e+01   1.390651e+02
  -1.014766e+02   3.247409e+01
  -1.253008e+02  -2.963327e+01
  -3.752422e+01  -8.287020e+01
   4.959895e+01  -8.562379e+01
   6.887497e+01  -2.886229e+01
  -5.273106e+01  -3.885645e+00
  -1.019708e+02  -1.182257e+01
  -3.747449e+01  -1.003647e+02
   4.358120e+01  -8.560851e+01
   1.610360e+02  -2.211199e+01
   1.476626e+02   2.754834e+01
   5.532485e+01   7.162697e+01
  -2.575617e+01   8.413449e+01
  -6.408424e+01   3.065018e+01
   2.192454e+01  -4.627475e+01
   5.883386e+01  -3.271269e+01
   3.682633e+01   7.229035e+01
  -4.700718e+01   1.366551e+02
  -1.233199e+02   7.870846e+01
  -1.029871e+02  -7.075469e+01
  -4.629069e+00  -1.739645e+02
   5.635637e+01  -1.286245e+02
   1.012260e+02  -3.325074e+00
   5.449532e+01   1.554454e+02
  -7.661753e+01   1.455379e+02
  -3.592115e+01   3.105743e+01
  -8.350612e+01  -3.933948e+01
  -1.917983e+01  -1.645156e+01
   1.889859e+01   4.246992e+01
   1.883701e+00  -1.629793e+01
  -8.239529e+01  -8.739173e+01
  -1.087992e+02  -1.076891e+02
   5.469996e+01  -5.682508e+01
   1.762477e+02   1.661733e+01
   1.087278e+02   4.921270e+01
   1.957698e+01   4.478998e+01
  -6.126400e+01   2.286342e+01
  -8.667894e+01   9.368222e+00
  -3.885216e+01  -7.581962e+00
   6.800769e+01  -4.940953e+01
   1.444665e+01   2.312200e+01
   9.885162e+00  -1.602521e+01
   1.912256e+01   4.238763e+01
   5.968294e+01   2.379820e+01
   9.087292e+01  -2.126600e-01
   2.619776e+01   6.487490e+01
  -1.105363e+02   1.209770e+02
  -1.784118e+02   5.966434e+01
  -1.073468e+02  -7.420670e+01
  -2.163854e+01  -1.607836e+02
   9.222113e+01  -1.151115e+02
   7.310951e+01  -5.022992e+01
   3.106467e+01   9.402463e+00
  -1.332590e+01   2.399656e+01
   1.696012e+00  -2.919008e+00
   1.604184e+01  -1.006910e+01
   5.904623e+01   5.415146e+01
  -2.675575e+01   8.508517e+01
  -3.394588e+01   5.869306e+01
  -6.901582e+01  -5.830877e+01
  -6.026929e+01  -1.041685e+02
   3.013086e+00  -1.116521e+02
   9.339736e+01  -6.437285e+00
   9.327128e+01   1.006886e+02
   1.389709e+01   9.989290e+01
  -1.135404e+02   7.128741e+01
  -6.040047e+01   2.043781e+00
  -6.524237e+01  -4.775773e+01
   2.092157e+01  -5.933201e+01
  -5.977067e+00  -5.864003e+01
  -4.890971e+01   1.417673e+01
  -1.064333e+02  -1.702921e+01
  -3.441458e+01   6.995284e+00
   9.470475e+01  -2.665622e+01
   1.196271e+02  -7.330253e+01
   3.845695e+01   9.945879e+00
  -2.663616e+01   3.650775e+01
  -3.067199e+01   7.103046e+01
  -2.574814e+01   4.189200e+01
   2.365974e+01  -2.167773e+01
   4.152253e+01  -7.172495e+01
   5.747663e+01   4.706551e+00
   1.526325e+01   6.358532e+01
  -1.068337e+01   4.505143e+01
  -4.324611e+01   1.133431e+01
  -2.146590e+01  -2.072002e+00
  -6.325607e+00  -5.917701e+00
  -4.500937e+01   2.760658e+01
  -1.907956e+01   1.943530e+01
   1.228191e+01  -3.259087e+01
   3.516503e+01  -7.225700e+01
   6.145559e+01   1.347877e+01
  -1.776339e+01   5.665225e+01
   3.124086e+01   4.056244e-01
  -4.835477e+01   3.060034e+01
  -3.480225e+01  -1.568911e+01
  -2.546062e+01  -4.498927e+01
   6.961395e+01  -4.308894e+01
   8.085889e+01   5.009071e+01
   3.046521e+01   3.439666e+01
  -6.296018e+01   7.847668e+01
  -5.947896e+01   1.459266e+01
  -5.165105e+01   1.846072e+01
   7.198878e+01   3.972828e+01
   6.876256e+01   2.290733e+01
  -2.694423e+01   3.563435e+01
  -1.081132e+02   2.951686e+01
