
 $NMID
 id='ANONYMOUS ', fmtdat='(2E16.6)'
 volume=1.0
 tramp=1.0
 $END
  -3.319852e+03  -4.281213e+00
  -2.338522e+03  -1.606155e+03
  -1.118001e+01  -2.213188e+03
   1.425617e+03  -1.185159e+03
   9.763875e+02  -1.107909e+02
   4.355682e+01   2.086760e+02
  -5.606318e+02  -1.704705e+02
  -9.633547e+01  -5.963515e+02
   6.081742e+02  -6.976051e+02
   5.817252e+02  -1.116604e+02
   4.885594e+02   5.633387e+02
   1.169977e+02   8.129676e+02
  -1.550576e+02   1.761202e+02
  -3.526361e+02  -4.733287e+02
   2.401555e+02  -4.723902e+02
   2.988428e+02  -1.001871e+02
   2.459712e+02   5.709024e+02
  -1.857630e+02   6.824509e+02
  -3.148238e+02   2.982197e+02
  -5.339185e+02  -7.978255e+01
  -1.590574e+01  -3.898424e+02
   1.716504e+02  -3.800158e+02
   9.964812e+01  -7.643713e+01
  -1.936293e+02  -2.353383e+00
  -3.357002e+02  -3.071452e+02
  -2.603902e+01  -5.137599e+02
   4.088439e+02  -1.139315e+02
   7.315262e+02   1.682845e+02
   1.461177e+02   3.912679e+02
  -2.698124e+02   2.643277e+02
  -4.118777e+02  -2.094497e+01
  -1.489240e+02  -4.082901e+02
   2.754000e+02  -3.003543e+02
   5.363941e+02  -2.287402e+02
   3.697906e+02   1.737195e+02
   2.253534e+01   3.639949e+02
  -9.000324e+00   2.730256e+02
  -3.950196e+01  -1.624930e+02
   1.983065e+02  -1.813332e+02
   2.611402e+02   1.065163e+02
   8.564617e+01   5.054038e+02
  -2.556248e+02   5.413865e+02
  -4.158133e+02   6.649967e+01
  -1.817195e+02  -3.700978e+02
   1.168576e+02  -2.303212e+02
   2.257656e+02   2.335603e+02
  -7.881270e+01   3.972573e+02
  -4.507145e+02   5.230595e+01
  -5.090408e+02  -4.043900e+02
  -1.498786e+02  -5.530216e+02
   3.148345e+02  -2.473917e+02
   5.585089e+02   1.294538e+02
   3.265833e+02   3.070659e+02
  -8.948559e+01   2.337501e+02
  -3.464446e+02   3.107651e+01
  -2.373227e+02  -7.583230e+01
   4.920482e-01   1.155045e+01
   7.450338e+01   7.762936e+01
  -1.037002e+02   3.078504e+01
  -2.651881e+02  -1.042605e+02
  -1.778846e+02  -1.848538e+02
   1.421528e+02  -2.040195e+02
   3.300543e+02  -1.595988e+02
   2.427615e+02   2.079975e+01
  -2.675699e+01   2.665690e+02
  -2.626312e+02   3.534983e+02
  -3.358975e+02   1.591321e+02
  -1.947103e+02  -2.141946e+02
  -1.283444e+01  -3.864371e+02
   5.259850e+01  -3.021552e+02
   1.224597e+01  -8.592825e+01
  -1.529881e+00  -8.985231e+01
   1.251312e+02  -1.884522e+02
   2.855394e+02  -1.516336e+02
   2.497011e+02   1.254369e+02
   1.078095e+02   2.795450e+02
  -1.041943e+02   2.115098e+02
  -1.962812e+02  -8.818221e+01
  -1.364576e+02  -2.509250e+02
   9.317705e+01  -2.629704e+02
   2.583636e+02  -9.273558e+01
   3.145571e+02   1.539398e+02
   1.883417e+02   3.113537e+02
  -2.851935e+01   2.672009e+02
  -1.550187e+02   1.656769e+02
  -1.351460e+02   6.748301e+01
  -1.104493e+02   9.437814e+01
  -2.806848e+02   8.188305e+01
  -4.484585e+02  -8.051089e+01
  -4.023312e+02  -2.865666e+02
  -9.064427e+00  -4.416052e+02
   3.879886e+02  -4.013769e+02
   5.085215e+02  -1.341616e+02
   3.247272e+02   8.113449e+01
   3.778675e+01   2.339809e+02
  -1.522163e+02   1.883172e+02
  -5.715732e+01   5.339995e+01
   6.664321e+01  -7.834185e+01
   1.696289e+02   1.268960e+01
   3.489194e+01   1.308138e+02
  -5.798120e+01   9.811330e+01
  -1.144006e+02  -2.470627e+01
  -2.470541e+01  -1.284813e+02
   1.655771e+02   2.358986e+01
   1.373095e+02   2.699580e+02
  -3.197978e+01   3.344716e+02
  -2.502305e+02   2.157043e+02
  -3.467766e+02  -7.184458e+01
  -2.488390e+02  -2.547586e+02
  -7.901640e+01  -2.739924e+02
   8.594422e+01  -1.409135e+02
   1.308379e+02   1.643929e+01
   1.695223e+01   2.121893e+01
  -4.939462e+01  -7.810965e+00
  -3.970839e+01  -9.018331e+01
   1.433180e+02  -6.347143e+01
   1.151498e+02   2.308649e+01
   3.704643e+01   4.943021e+01
  -1.059876e+02   4.330880e-01
  -6.467283e+01  -8.223388e+01
   1.284886e+02  -1.101038e+02
   2.965759e+02   2.300637e+01
   2.619515e+02   1.415912e+02
   3.951744e+01   2.620626e+02
  -1.785403e+02   2.247628e+02
  -2.185029e+02   1.142997e+02
  -1.259484e+02  -3.874524e+01
   1.725105e+01  -9.107676e+01
   9.009284e+01   5.276772e+00
  -1.975643e+01   7.730182e+01
  -1.394298e+02   7.533446e+01
  -1.848310e+02  -7.907307e+01
  -7.017271e+01  -1.791577e+02
   5.686008e+01  -1.621864e+02
   1.308385e+02  -4.191425e+01
   2.733697e+01   5.204504e+01
  -3.249328e+01   1.153631e+01
  -4.568846e+01  -9.821412e+01
   8.662282e+01  -1.548975e+02
   2.208298e+02   3.738568e+00
   1.986565e+02   1.359285e+02
   7.170526e+00   2.004025e+02
  -1.207164e+02   1.653062e+02
  -1.846147e+02   1.102309e+01
  -8.188533e+01  -6.270308e+01
   6.464631e+01  -1.082705e+02
   7.946923e+01  -3.051106e+01
   1.137507e+01  -9.615496e+00
  -5.208272e+01   1.585078e+01
   2.284713e+01   6.746627e+00
   9.194307e+01   9.953310e+00
   1.018354e+02   9.304281e+01
  -4.740125e+01   1.504311e+02
  -1.275171e+02   1.456242e+02
  -2.337759e+02   1.417351e+00
  -1.694135e+02  -1.924229e+02
  -7.232038e+00  -2.631994e+02
   1.103902e+02  -1.602562e+02
   1.052118e+02   1.961493e+01
   8.963937e+01   3.813327e+01
   2.918586e+01   1.555022e+01
   3.921851e+01  -1.892512e+01
   6.877708e+01  -3.277262e+01
   7.533057e+01   8.093333e+01
  -1.740328e+01   1.552605e+02
  -1.280783e+02   7.226721e+01
  -9.387350e+01  -1.568506e+01
  -3.880447e+01  -8.441049e+01
   1.147850e+02  -6.626175e+01
   1.934668e+02   7.177592e+01
   1.108477e+02   2.108463e+02
  -1.432344e+02   2.023703e+02
  -2.477100e+02   7.226032e+01
  -2.324411e+02  -1.041471e+02
  -6.943421e+01  -1.650871e+02
   3.293856e+01  -1.251566e+02
   7.744409e+01  -4.126479e+01
   6.096961e+01  -4.151933e+01
   7.455262e+01  -8.151089e+01
   7.195365e+01  -9.554031e+01
   8.877939e+01  -1.969435e+01
   7.932881e+01   1.750815e+02
  -2.856067e+01   2.304726e+02
  -8.480197e+01   1.414574e+02
  -1.605667e+02  -1.823491e+01
  -1.141819e+02  -1.224261e+02
  -4.131123e+01  -1.520154e+02
   7.920981e+01  -9.485258e+01
   1.056968e+02   4.831821e+01
   1.379858e+00   3.396186e+01
  -1.571312e+01   3.805704e+00
   4.010068e+01   7.367602e+00
   6.834937e+01  -2.356054e+01
   1.006872e+02   7.024348e+01
  -2.907857e+01   6.218698e+01
  -1.606036e+02   2.924566e+01
  -1.245583e+02  -4.746669e+01
   1.118826e+01  -8.131287e+01
   1.004446e+02  -6.779237e+01
   1.334485e+02   8.352920e+00
   1.223693e+01  -1.834025e+00
  -1.113013e+02   5.460288e+01
  -1.046637e+02  -3.316052e+00
  -1.919589e+01  -8.230067e+01
   6.476652e+01  -6.918350e+01
   5.407916e+01   3.741102e+00
   3.712978e+01   9.539265e+01
   1.818230e+01   5.244194e+01
   1.022923e+01  -9.626067e+00
   4.048091e+01   6.100345e+00
   6.953177e+00   6.826156e+01
  -3.407616e+01   1.381285e+02
  -9.432356e+01   1.815654e+02
  -1.720942e+02   6.034586e+00
  -1.200080e+02  -1.117595e+02
  -4.348327e+00  -1.292154e+02
   1.183026e+02  -7.230239e+01
   5.585817e+01   4.896413e+01
  -2.249819e+01   4.614374e+01
  -1.391935e+02  -1.471767e+01
  -3.106969e+01  -7.228423e+01
   8.947478e+01  -1.226195e+02
   2.180667e+02  -8.799355e+01
   1.894861e+02   2.904985e+01
   1.084939e+01   1.077756e+02
  -7.779816e+01   9.821305e+01
  -3.180363e+01   3.329943e+00
   3.047438e+01  -1.025108e+01
   8.252768e+01   3.343677e+01
   3.296697e+01   9.903525e+01
  -7.319259e+01   1.617986e+02
  -1.487112e+02   7.228609e+01
  -1.396942e+02  -6.648513e+01
  -1.750504e+01  -1.831677e+02
   8.591574e+01  -1.108301e+02
   1.278169e+02   2.475078e+01
   6.755448e+01   1.021861e+02
  -6.176869e+00   9.188361e+01
  -3.475907e+01  -8.064631e+00
  -2.972303e+01  -3.827278e+01
   1.489043e+01  -3.076856e+01
   4.637082e+01  -1.747662e+00
  -1.460045e+01  -1.247214e+01
  -5.462823e+01  -1.318390e+02
  -2.241336e+01  -7.933973e+01
   3.700816e+01  -2.138813e+01
   1.279213e+02   1.527113e+01
   1.439821e+02   5.237141e+01
   5.160917e+00   3.769881e+01
  -1.170339e+02   2.748654e+01
  -8.993292e+01  -8.288319e+00
  -3.218030e+01   5.826703e+00
  -7.371865e+00  -2.556868e+01
   4.003263e+01  -3.149387e+01
  -4.358356e+01   7.527181e+00
   2.242367e+00   1.680105e+01
   4.320381e+01  -1.468047e+01
   8.711515e+01  -3.466860e+00
   6.209925e+01   8.921682e+01
  -6.866891e+01   1.153367e+02
  -1.341475e+02   7.216152e+01
  -1.662285e+02  -5.706322e+01
  -7.616397e+01  -1.152021e+02
   8.609105e+01  -1.546625e+02
   1.212286e+02  -6.750726e+01
   8.743403e+01   4.305462e+01
   4.392280e+01   6.341163e+01
  -1.136198e+00   2.767656e+01
   5.025482e+00   8.631416e-01
   4.451075e+01   2.363835e+01
   2.655883e+01   7.303081e+01
   3.211883e+01   4.522720e+01
  -4.746654e+01  -1.869967e+01
  -9.837873e+01  -6.427363e+01
  -9.327160e+00  -1.181238e+02
   6.296326e+01  -1.081166e+01
   7.792842e+01   5.850583e+01
   7.866607e+01   7.514598e+01
  -8.522585e+01   8.910746e+01
  -1.098524e+02   7.715529e+00
  -5.126474e+01  -7.015799e+01
   4.458377e+01  -5.309077e+01
   7.745483e+01  -1.016105e+01
  -2.438449e+01   5.711550e+00
  -1.006543e+02  -2.153280e+01
  -9.226079e+00  -3.046916e+01
   2.926703e+01  -7.690517e+01
   1.047056e+02  -5.638149e+01
   1.095795e+02  -1.114536e+00
   5.926107e+00   8.824493e+01
  -2.782329e+01   6.823867e+01
  -5.723922e+01   1.375494e+01
   2.758646e+01  -5.146236e+01
   1.284390e+01  -4.609078e+01
   3.230271e+01   2.613385e+01
   1.284299e+00   9.928589e+01
  -1.698421e+01   4.402365e+01
  -2.042288e+01  -5.497703e+00
  -5.432756e+01  -3.450088e+01
  -1.473357e+01  -3.937054e+01
   7.702017e+00   1.880411e+01
   3.432375e+01   2.740814e+01
  -3.358181e+00  -1.905334e+01
  -1.875379e+01  -8.168123e+01
   4.538223e+01  -3.521169e+01
   4.122404e+01   1.447930e+01
   3.951017e+01   5.071537e+01
  -6.074809e+01  -9.926174e+00
  -5.274125e+01  -2.143804e+01
  -2.829892e+01  -4.064502e+01
   2.174282e+01  -4.258227e+01
   1.029609e+02   2.476918e+00
   3.786708e+01   3.583349e+01
  -3.956597e+01   3.964776e+01
  -8.543478e+01   2.936137e+01
  -1.007425e+01   1.821175e+01
   1.707913e+01   6.613624e+00
   2.568520e+01   1.915231e+01
  -1.682964e+01   1.678707e+01
  -7.815309e+01  -2.058116e+01
