
 $NMID
 id='ANONYMOUS ', fmtdat='(2E16.6)'
 volume=1.0
 tramp=1.0
 $END
  -3.645676e+03   1.381343e+02
  -2.170899e+03  -1.882643e+03
   2.067398e+02  -2.082322e+03
   1.604631e+03  -1.087323e+03
   1.108553e+03   2.581604e+02
  -1.294261e+02   2.588362e+02
  -6.316752e+02  -1.600550e+02
  -1.198707e+02  -6.979001e+02
   6.000368e+02  -6.940021e+02
   6.169377e+02   4.106617e+01
   4.428119e+02   5.177182e+02
   3.425599e+01   9.683846e+02
  -4.953261e+02   6.799617e+01
  -2.948392e+02  -5.655275e+02
   1.043480e+02  -5.039142e+02
   6.122785e+02  -1.386828e+02
   3.740508e+02   5.933133e+02
  -2.692354e+02   7.485705e+02
  -5.497750e+02   1.799909e+02
  -4.770477e+02  -3.374734e+01
  -1.230143e+02  -3.222554e+02
   1.745889e+02  -1.117377e+02
   1.821162e+02  -1.694235e+02
  -1.580591e+02  -1.157657e+02
  -2.388090e+02  -1.580013e+02
  -1.320510e+02  -4.479484e+02
   4.023066e+02  -2.900945e+02
   6.392049e+02   5.059544e+01
   3.656662e+02   2.133455e+02
  -2.861847e+02   2.543555e+02
  -5.350170e+02  -7.946117e+01
  -2.645966e+02  -3.553340e+02
   2.200398e+02  -4.306008e+02
   4.780342e+02  -1.326186e+02
   3.514465e+02   2.459435e+02
   1.499184e+02   4.663944e+02
  -4.419825e+01   2.063184e+02
  -2.354884e+01  -1.172721e+02
   1.611310e+02  -2.255774e+02
   2.858163e+02   7.887068e+01
   1.059198e+02   5.381976e+02
  -2.522769e+02   5.199241e+02
  -3.817917e+02  -4.337866e+00
  -1.774856e+02  -3.418120e+02
   1.651381e+02  -2.214431e+02
   2.429624e+02   2.625969e+02
  -8.685971e+01   4.089530e+02
  -4.611743e+02   9.703953e+01
  -5.297428e+02  -3.211441e+02
  -2.125508e+02  -5.273712e+02
   3.040510e+02  -3.043619e+02
   5.944030e+02   7.983200e+01
   3.973962e+02   3.155025e+02
  -5.391303e+01   2.941761e+02
  -3.716507e+02   7.170864e+01
  -2.275952e+02  -5.944316e+01
   4.551181e+01   2.890512e+01
   1.119633e+02   1.538261e+02
  -1.043577e+02   1.396917e+02
  -2.781658e+02  -3.000041e+01
  -1.215143e+02  -1.777307e+02
   1.574053e+02  -1.750565e+02
   3.280607e+02  -8.090181e+01
   2.217356e+02   7.705722e+01
  -4.544685e+01   3.060513e+02
  -2.835170e+02   3.416752e+02
  -3.261610e+02   1.905115e+02
  -2.465290e+02  -1.450782e+02
  -4.513146e+01  -3.775774e+02
   2.261052e+01  -3.289087e+02
  -1.501642e+01  -1.405573e+02
   2.003506e+01  -7.360161e+01
   6.254688e+01  -1.523138e+02
   2.268883e+02  -1.808996e+02
   2.409343e+02   6.086823e+01
   1.273894e+02   2.388012e+02
  -2.417101e+01   1.906830e+02
  -1.811824e+02   4.064038e+00
  -1.832200e+02  -1.709367e+02
  -8.513846e-01  -2.298676e+02
   2.187641e+02  -5.374549e+01
   3.068547e+02   1.947099e+02
   1.647301e+02   3.306323e+02
  -7.324371e+01   2.984870e+02
  -1.787164e+02   1.254648e+02
  -1.346133e+02  -2.947416e+00
  -1.210551e+02   3.945483e+01
  -2.486561e+02   6.876579e+01
  -4.095556e+02  -6.496208e+01
  -3.573453e+02  -3.005043e+02
   3.678540e+01  -4.709772e+02
   4.109191e+02  -4.417519e+02
   4.930519e+02  -2.364162e+02
   2.997641e+02   5.877324e+01
   2.798739e+01   2.620001e+02
  -1.004225e+02   2.089489e+02
  -1.476075e+01   3.294168e+01
   1.422815e+02  -1.857388e+01
   1.971774e+02   3.718162e+01
   3.952807e+01   1.943635e+02
  -1.444718e+02   1.466170e+02
  -1.170871e+02  -3.652234e+01
   7.665608e+00  -1.463700e+02
   1.893270e+02   6.654539e+00
   1.191210e+02   2.514052e+02
  -6.751181e+01   3.350818e+02
  -2.298118e+02   2.337431e+02
  -3.454926e+02  -6.837957e+01
  -2.858162e+02  -2.828492e+02
  -6.870682e+01  -2.774805e+02
   9.953441e+01  -1.536442e+02
   1.785350e+02   1.283854e+01
   6.266288e+01   1.354802e+01
  -2.091434e+01  -5.689446e+01
   5.677921e-01  -1.216743e+02
   1.102801e+02  -6.585300e+01
   1.406673e+02   8.984308e+00
   4.801070e+01   5.669533e+00
  -9.909119e+01  -5.274008e+00
  -2.109536e+01  -7.166397e+01
   1.476886e+02  -5.761171e+01
   2.648806e+02   1.003299e+01
   2.348481e+02   1.597881e+02
   2.056234e+01   2.619863e+02
  -1.725772e+02   2.457927e+02
  -2.691473e+02   8.326892e+01
  -1.429533e+02  -4.641222e+01
  -1.431210e+01  -5.956122e+01
   5.283466e+01   2.034373e+00
  -3.720335e+01   1.218256e+02
  -1.724650e+02   4.376936e+01
  -1.765717e+02  -1.290896e+02
  -3.639584e+01  -1.666452e+02
   9.647707e+01  -1.804864e+02
   1.011322e+02  -3.380540e+01
   6.002088e+01  -3.665734e+00
  -1.244262e+01  -4.718063e+01
  -5.587355e+01  -1.148346e+02
   9.996075e+01  -1.135847e+02
   2.523618e+02  -1.715045e+01
   2.118069e+02   1.520301e+02
   4.039481e-01   2.398283e+02
  -2.040227e+02   1.511755e+02
  -2.068052e+02  -4.559233e+00
  -3.467871e+01  -7.675641e+01
   5.143485e+01  -9.532377e+01
   5.812125e+01  -4.423494e+00
  -8.824812e+00   6.545320e+01
  -2.970505e+01   1.719496e+01
   3.035727e+01  -4.188610e+01
   7.515864e+01  -1.573443e+01
   7.951256e+01   9.213135e+01
   1.128925e+01   1.489685e+02
  -1.504341e+02   1.342569e+02
  -2.114007e+02   3.148818e+00
  -1.783825e+02  -1.523224e+02
   1.313573e+00  -2.200397e+02
   1.232276e+02  -1.434379e+02
   1.009902e+02  -2.466349e+01
   4.927099e+01   8.725998e+01
   4.987217e+01   4.949533e+01
   7.383491e+01   1.502574e+01
   5.467255e+01  -1.338873e+00
   2.645706e+01   1.777768e+01
  -4.908803e+01   8.093371e+01
  -1.308998e+02   2.912068e+01
  -9.077697e+01  -3.421814e+01
   1.508220e+01  -9.564692e+01
   1.659754e+02  -6.624705e+01
   1.923329e+02   7.277704e+01
   5.026664e+01   2.067836e+02
  -1.446385e+02   1.969199e+02
  -2.305084e+02   8.505284e+01
  -2.396918e+02  -1.200630e+02
  -8.278772e+01  -1.591912e+02
   4.529138e+01  -1.542815e+02
   8.903581e+01  -1.015763e+02
   7.553634e+01  -6.288159e+01
   5.826047e+01  -7.729857e+01
   1.186883e+02  -4.985538e+01
   1.554126e+02   4.369685e+01
   1.002973e+02   1.705400e+02
   1.217807e+01   1.855754e+02
  -1.000815e+02   1.498297e+02
  -1.887811e+02   1.307273e+01
  -1.024361e+02  -1.419901e+02
   3.467091e+00  -1.645699e+02
   1.022455e+02  -2.849769e+01
   7.515228e+01   3.862807e+01
  -1.774132e+01   6.027081e+01
  -2.416165e+01   5.053416e+01
   2.685931e+01   2.286855e+01
   6.346041e+01   5.950061e+01
   6.259432e+01   1.541400e+01
  -9.006035e+01   4.507803e+01
  -2.148202e+02   5.139746e+00
  -1.496882e+02  -7.042765e+01
   9.665919e+00  -1.069116e+02
   1.550236e+02  -8.083908e+01
   1.279300e+02   3.915750e+00
   2.657696e+01   7.085955e+01
  -6.463108e+01   5.568251e+01
  -1.139527e+02  -2.787048e+01
  -1.075591e+01  -6.076402e+01
   8.169524e+01  -8.741104e+01
   5.391416e+01   9.659151e-01
   4.870609e+01   5.101230e+00
   1.777907e+01   3.048635e+01
   3.011301e+01   4.202608e+01
   3.134087e+01  -3.215064e+01
   5.558489e+01   5.087098e+01
   3.075244e+01   1.507323e+02
  -1.335739e+02   1.398542e+02
  -1.708219e+02   1.945805e+01
  -1.261120e+02  -6.902025e+01
  -1.195898e+01  -1.191826e+02
   7.557587e+01  -2.422518e+00
   4.399066e+01   1.459968e+01
  -1.110079e+02   1.913671e+01
  -1.010791e+02  -4.363322e+01
  -7.856179e+01  -1.380112e+02
   9.502937e+01  -1.211511e+02
   1.811916e+02  -7.485004e+01
   1.335021e+02   3.226812e+01
   1.139604e+01   8.635143e+01
  -8.014918e+01   6.076519e+01
  -3.918379e+01   9.049998e+00
   1.708868e+01   4.138823e+00
   7.225164e+01   4.098883e+00
   6.045822e+01   8.999443e+01
  -8.231141e+01   1.282929e+02
  -1.335954e+02   5.181883e+01
  -9.770963e+01  -7.347595e+01
  -1.700886e+01  -2.008316e+02
   6.505515e+01  -1.261822e+02
   8.166798e+01  -6.834139e+00
   5.355833e+01   1.020132e+02
   1.996895e+01   9.067168e+01
  -1.078845e+02   9.658985e+00
  -4.913039e+01  -4.034750e+01
  -5.776033e+01   5.119405e+00
  -8.874515e-01   9.019558e+00
   3.668654e+01  -5.716023e+01
  -1.966270e+01  -8.932693e+01
   3.085721e+01  -7.747742e+01
   8.235884e+01   5.251239e+00
   1.140149e+02   5.770410e+01
   9.935180e+01   7.421578e+01
   1.251377e+01   6.946599e+01
  -7.469814e+01   1.447297e+01
  -8.385681e+01   4.955825e+01
  -4.946076e+01   1.729010e+01
   1.616558e+01  -1.722120e+01
   2.988994e+01  -4.499859e+01
  -2.505494e+01  -7.806074e+01
  -3.751865e+01   1.238622e-01
   4.946385e+01  -2.304268e+01
   1.333961e+02   2.670965e+01
   3.981810e+01   8.577400e+01
  -9.926206e+01   1.237879e+02
  -1.887609e+02   5.343399e+01
  -1.575792e+02  -9.137723e+01
  -2.058735e+01  -1.661820e+02
   7.484665e+01  -1.746018e+02
   1.194798e+02  -3.905314e+01
   1.037232e+02   6.909013e+00
   5.923905e+01   7.794137e+01
   2.715154e+01   3.490372e+01
  -1.619237e+00   1.420766e+01
   2.372812e+01  -6.858054e+00
   8.702428e+00   1.233632e+02
  -4.056582e+01   7.664713e+01
  -8.248900e+01  -1.310658e+01
  -6.624507e+01  -8.864585e+01
   1.834286e+01  -1.331131e+02
   8.151794e+01  -4.184898e+00
   7.833362e+01   4.865072e+01
  -2.619676e+00   9.275912e+01
  -5.374068e+01   2.197624e+01
  -6.846380e+01   9.151653e+00
  -7.232662e+00  -9.252501e+00
   2.293366e+01  -4.564933e+01
  -1.226773e+01  -6.173187e+01
  -2.244117e+01   4.307810e+00
  -6.773395e+01  -2.287206e+01
  -4.722815e+01  -5.248630e+01
   1.258892e+02  -9.178952e+01
   1.302007e+02  -6.794914e+01
   6.832765e+01   1.184316e+01
  -2.840349e+00   1.092194e+02
  -8.374311e+01   1.236354e+02
  -4.494144e+01   1.978111e+01
   2.923094e+01  -4.501575e+01
  -3.005942e+01  -8.792476e+01
  -9.968327e-01  -1.402783e+01
  -2.265494e+00   4.025328e+01
  -3.355867e+01   1.169337e+01
  -6.727617e+00  -4.342938e+01
  -3.112198e+01  -3.974268e+01
  -5.575678e+01  -9.038400e+00
  -9.494158e+00  -4.202420e+00
  -6.563734e+00  -8.170387e+00
  -2.859440e+01  -5.269578e+01
  -8.717093e+00  -5.273030e+01
   4.290915e+01  -3.313349e+01
   4.275970e+01   4.747021e+01
   5.937301e+01   5.258794e+01
  -4.583601e+01   2.477682e+01
  -1.015110e+02  -3.250345e+01
  -3.753748e+01  -3.416981e+01
   5.553744e+01   6.746445e+00
   8.390966e+01   5.251376e+00
   4.226684e+01   4.173446e+01
  -7.917882e+01   7.643982e+01
  -7.437201e+01   2.195505e+01
  -4.375340e+01  -1.567516e+01
   2.552800e+01  -1.343381e+01
   1.642312e+01  -2.945204e+01
  -6.796610e+01   8.431918e+00
  -1.425414e+02   1.339633e+01
