
 $NMID
 id='ANONYMOUS ', fmtdat='(2E16.6)'
 volume=1.0
 tramp=1.0
 $END
  -3.122547e+03  -4.054296e+01
  -2.078532e+03  -1.765000e+03
   3.009334e+02  -1.928793e+03
   1.077571e+03  -9.110162e+02
   9.158745e+02  -4.803557e+01
  -3.300657e+02   1.876454e+02
  -4.972031e+02  -1.761562e+01
   2.524787e+01  -5.586538e+02
   4.899267e+02  -5.242045e+02
   6.051627e+02   8.741194e+01
   4.344193e+02   5.757613e+02
  -7.317564e+00   6.352804e+02
  -5.471905e+02   1.022893e+02
  -3.773721e+02  -4.698064e+02
   1.086874e+02  -5.006147e+02
   5.472108e+02  -9.610780e+00
   2.893160e+02   3.688310e+02
  -2.354586e+02   5.543524e+02
  -4.245666e+02   9.970531e+01
  -3.936560e+02  -1.893150e+02
  -3.016600e+02  -2.734359e+02
   8.270889e+01  -3.456008e+02
   2.003124e+02  -1.417203e+02
  -1.617700e+02  -1.746742e+02
  -1.888200e+02  -2.607290e+02
   4.316195e+01  -3.975559e+02
   3.631536e+02  -4.703772e+01
   5.719656e+02   2.563538e+02
   2.983346e+02   2.846484e+02
  -3.642003e+02   3.721125e+02
  -4.394271e+02  -1.213580e+02
  -3.316171e+02  -2.554553e+02
   1.204711e+02  -4.366555e+02
   4.879733e+02  -1.250948e+02
   2.621469e+02   7.949921e+01
   4.619799e+01   3.390270e+02
  -1.474489e+02   1.016524e+02
  -1.116148e+02  -2.427429e+02
   2.018045e+02  -2.068161e+02
   2.891714e+02   1.134696e+02
   8.835502e+01   4.972802e+02
  -1.717330e+02   4.433368e+02
  -3.870602e+02   1.350384e+01
  -1.977132e+02  -3.227714e+02
   1.380787e+02  -1.496939e+02
   2.331837e+02   2.405356e+02
  -4.319639e+01   3.427791e+02
  -3.943782e+02   6.866321e+01
  -4.657145e+02  -3.483513e+02
  -1.098454e+02  -4.748895e+02
   3.245055e+02  -2.577773e+02
   5.212281e+02   7.662046e+01
   3.048357e+02   2.633092e+02
  -8.664937e+01   2.004779e+02
  -2.638941e+02   4.084404e+01
  -1.588413e+02  -7.535560e+00
  -8.385320e+00  -2.890236e+00
   5.693058e+01   5.237680e+01
  -1.389220e+02   1.836995e+01
  -2.678960e+02  -1.081804e+02
  -1.246696e+02  -2.047601e+02
   2.049152e+02  -1.954489e+02
   3.722657e+02  -1.325299e+02
   2.712919e+02   5.485201e+01
  -3.343500e+00   3.029642e+02
  -2.458579e+02   3.567356e+02
  -2.824889e+02   1.887348e+02
  -2.055605e+02  -9.979623e+01
  -7.254252e+01  -2.959391e+02
  -1.290555e+01  -2.375642e+02
   6.575578e+00  -1.594106e+02
   2.267096e+01  -1.238525e+02
   9.300403e+01  -1.305903e+02
   2.126000e+02  -6.603367e+01
   2.273055e+02   1.099464e+02
   7.240243e+01   2.561569e+02
  -9.020550e+01   1.647563e+02
  -1.603240e+02  -4.193516e+01
  -1.115122e+02  -2.420456e+02
   7.525276e+01  -2.492335e+02
   2.385270e+02  -7.013940e+01
   2.824623e+02   1.875082e+02
   1.883577e+02   2.713764e+02
  -2.587506e+01   2.119252e+02
  -1.554671e+02   1.261546e+02
  -1.585280e+02   7.690240e+01
  -1.534650e+02   7.406789e+01
  -2.326009e+02   7.991138e+00
  -3.127027e+02  -1.240427e+02
  -2.405770e+02  -2.789225e+02
   4.531492e+01  -3.821033e+02
   3.502770e+02  -3.221670e+02
   3.994848e+02  -1.396483e+02
   2.439618e+02   1.122301e+02
   1.669466e+01   2.195124e+02
  -1.049139e+02   1.895046e+02
  -6.953625e+01   1.588908e+01
   9.323580e+01  -8.456405e+01
   1.253471e+02  -7.298731e+00
   4.952775e+01   7.603038e+01
  -9.906432e+01   1.354211e+02
  -1.097626e+02   2.690444e+01
   5.011029e+01  -9.098397e+01
   1.609362e+02  -1.924524e+00
   8.653311e+01   1.551408e+02
  -6.267270e+01   2.552589e+02
  -2.206358e+02   1.580969e+02
  -3.040186e+02  -6.065558e+01
  -2.145047e+02  -2.404779e+02
  -1.776870e+01  -2.569393e+02
   1.072903e+02  -1.051198e+02
   1.417198e+02  -1.313375e+01
   3.203909e+01   6.273341e+00
  -2.544970e+01  -3.648354e+01
  -2.749482e+01  -1.365593e+02
   1.294496e+02  -1.205391e+02
   1.747598e+02  -7.568781e-01
   8.153168e+01   9.101887e+01
  -6.050963e+01  -1.382312e+01
  -4.218598e+01  -7.052552e+01
   9.853666e+01  -5.716145e+01
   2.544822e+02   4.832087e+01
   2.327172e+02   1.599619e+02
   2.865602e+01   1.992841e+02
  -1.948497e+02   1.858811e+02
  -2.049633e+02   9.333543e+01
  -1.092863e+02  -3.728059e+01
   5.557418e+01  -8.638808e+01
   6.029344e+01  -6.017478e+00
  -7.075073e+01   4.955530e+01
  -1.559270e+02   5.933876e+00
  -1.434336e+02  -5.894134e+01
  -5.360871e+01  -1.689259e+02
   6.546512e+01  -1.161119e+02
   8.550186e+01   7.347521e+00
   5.565165e+01   4.936599e+01
  -2.108319e+01  -5.144684e+01
  -4.692655e-01  -1.239759e+02
   1.099662e+02  -1.438837e+02
   1.830166e+02   1.461686e+01
   1.903490e+02   1.175422e+02
   3.599600e+01   1.743442e+02
  -8.263399e+01   1.521128e+02
  -1.420271e+02   4.660203e+01
  -2.432225e+01  -6.003020e+01
   5.657405e+01  -7.203074e+01
   7.039230e+01   1.056781e+01
   6.114012e+00   6.034269e+01
  -3.642593e+01   2.249038e+01
  -1.315073e+01   1.372161e+01
   5.750965e+01  -7.532993e+00
   4.899125e+01   4.067921e+01
  -2.045059e+00   1.217543e+02
  -1.412909e+02   1.230650e+02
  -2.366854e+02  -1.874505e+01
  -1.799959e+02  -1.745035e+02
  -1.218876e+01  -2.339703e+02
   8.172849e+01  -1.703491e+02
   1.635003e+02  -4.006329e+01
   1.249752e+02   7.932662e+01
   3.399444e+01   5.729747e+01
   4.902672e+00   3.291830e+00
   7.009000e+01  -1.938116e+01
   4.071939e+01   4.634305e+01
  -2.980226e+01   1.128307e+02
  -1.355259e+02   4.845581e+01
  -8.038614e+01  -4.278382e+01
   7.671646e+00  -1.231820e+02
   1.371459e+02  -3.917670e+01
   1.779554e+02   4.627054e+01
   1.064047e+02   1.715966e+02
  -9.008955e+01   1.774612e+02
  -2.233882e+02   6.818874e+01
  -2.174150e+02  -6.178756e+01
  -7.475539e+01  -1.207144e+02
   4.953188e+00  -1.104040e+02
   5.869649e+01  -1.126496e+02
   5.377654e+01  -9.013918e+01
   3.415470e+01  -7.511290e+01
   9.136543e+01  -9.362819e+01
   1.307981e+02   3.148163e+01
   1.039374e+02   1.512199e+02
  -1.813744e+01   2.182496e+02
  -1.137620e+02   1.282823e+02
  -1.750767e+02   3.737362e+01
  -1.179965e+02  -1.475918e+02
  -1.803741e+01  -1.661092e+02
   8.825746e+01  -5.979818e+01
   5.155910e+01   7.097740e+00
   3.076276e+01   3.084429e+01
  -2.544557e+01   4.061339e+01
   5.066459e+01  -1.357491e+01
   9.773300e+01   1.788690e+01
   7.300022e+01   3.674725e+01
  -6.200824e+01   7.122175e+01
  -1.081529e+02   3.156317e+01
  -1.239542e+02  -6.876185e+01
   1.561719e+01  -6.133195e+01
   1.196455e+02  -5.309884e+01
   1.445642e+02  -1.508969e+01
   4.662779e+01   5.340844e+01
  -4.748918e+01   3.902870e+01
  -1.245741e+02  -9.017856e+00
  -2.498611e+01  -6.275617e+01
   4.406779e+01  -7.250398e+01
   6.366972e+01  -5.090896e+00
   4.038929e+01   3.129428e+01
   4.082256e+01   5.892542e+01
   6.968019e+00  -2.351525e+00
   6.486803e+01  -4.087791e+01
   5.576755e+01   4.604022e+01
  -1.269471e+01   1.442516e+02
  -1.101873e+02   1.205370e+02
  -1.370501e+02   8.343391e+00
  -1.327772e+02  -8.655825e+01
   7.402549e+00  -1.273580e+02
   5.912601e+01  -5.615964e+01
   4.573131e+01   2.391931e+01
  -6.446879e+01   3.010318e+01
  -1.144769e+02  -3.703780e+01
  -3.372365e+01  -1.015976e+02
   8.039835e+01  -9.338268e+01
   1.131331e+02  -3.208018e+01
   1.017011e+02  -1.390182e+00
   6.975185e+01   6.533330e+01
  -5.216762e+01   5.273284e+01
  -5.315779e+01   5.006670e+00
   1.470674e+01  -3.166286e+01
   7.426387e+01   2.639335e+01
   8.489695e+01   1.427564e+02
  -6.879987e+01   9.728669e+01
  -1.256769e+02   6.847064e+01
  -7.525671e+01  -8.185066e+01
   1.119249e+01  -1.245426e+02
   8.346979e+01  -1.189226e+02
   9.276039e+01  -2.458758e+01
   2.769756e+01   1.084051e+02
  -5.168139e+01   6.699634e+01
  -1.079665e+01  -6.093606e+00
  -2.988379e+01   1.643807e+01
  -5.471044e+01   1.092015e+01
  -6.394144e+01  -9.200446e+00
  -6.550315e+01  -4.904214e+01
  -6.731309e+01  -1.187450e+02
  -1.137943e+01  -7.684171e+01
   6.887109e+01  -3.780389e+01
   1.022733e+02   5.963441e+01
   4.770717e+01   4.726206e+01
  -4.174057e+01   4.647664e+01
  -1.068031e+02  -1.199175e+01
  -8.247422e+01  -7.834592e+00
   2.385984e+01  -1.343385e+01
   1.016997e+02  -2.568565e+01
   3.231169e+01   4.466265e+00
  -9.646952e+00   2.252650e+01
  -7.749224e+00  -4.344296e+01
   6.875318e+01  -3.426339e+01
   6.933152e+01   3.813372e+01
   5.106731e+01   1.039298e+02
  -1.098959e+02   1.014398e+02
  -1.787149e+02   3.034424e+01
  -1.397548e+02  -1.006754e+02
  -3.772745e+01  -1.293657e+02
   1.084157e+02  -1.259432e+02
   1.088006e+02  -2.605749e+01
   7.465754e+01   9.016455e+00
   7.858429e+00  -2.859187e+00
   1.773548e+00  -1.465301e+00
   1.730169e+01  -2.718197e+01
   2.090732e+01   6.765916e+01
   2.932203e+01   7.241531e+01
  -5.419423e+01   9.583371e+01
  -8.959487e+01  -1.114786e+01
  -6.880040e+01  -9.170617e+01
   2.214459e+01  -1.209618e+02
   1.242784e+02  -4.377656e+01
   1.104778e+02   9.583348e+01
   2.987772e+01   1.087166e+02
  -4.043820e+01   4.536647e+01
  -8.902603e+01   1.387391e+01
  -5.808027e+01  -4.917108e+01
   2.300737e+01  -7.594135e+01
   1.767680e+01  -1.134405e+01
  -2.931413e+01   4.327532e+01
  -8.529528e+01  -1.489526e+01
   9.342769e+00  -2.354038e+01
   4.636640e+01  -8.465237e+01
   1.248693e+02  -7.272621e+01
   7.804657e+01   6.686475e-02
  -5.581466e-02   9.372596e+01
  -3.965315e+01   5.175456e+01
  -3.767638e+01   1.859331e+00
   2.377646e+01  -3.566493e+01
   3.768258e+01  -1.091404e+01
   2.698021e+01   3.641858e+01
  -1.074860e+01   4.138784e+01
   1.313868e+01   1.111278e+01
  -2.424827e+01  -3.496908e+01
  -5.214102e+01  -3.440254e+01
   1.766852e+01  -1.270660e+01
   1.914430e+01  -1.273251e+01
   3.251150e+01   1.134930e+01
  -5.512956e+01  -4.322970e+01
   1.101746e+00   1.288750e+00
   3.166969e+01  -2.889149e+01
   2.558449e+01   4.050735e+01
   2.166368e+01   3.023232e+01
  -5.832812e+01   3.183729e+01
  -9.017119e+01  -2.030786e+01
  -2.796141e+01  -7.117263e+01
   5.695085e+01  -5.977027e+01
   9.420159e+01   6.176490e+00
   2.833591e+01   2.039484e+01
  -6.198360e+01   3.732291e+01
  -8.060322e+01   1.546184e+01
  -1.099394e+01   4.583877e+01
   1.106034e+01   2.495535e+01
   2.978943e+01  -1.358663e+01
  -2.126348e+01   2.654836e+01
  -6.850270e+01   9.128917e+00
