
 $NMID
 id='ANONYMOUS ', fmtdat='(2E16.6)'
 volume=1.0
 tramp=1.0
 $END
   4.492551e+03  -1.480150e+02
   2.718090e+03   2.586008e+03
  -9.242677e+02   3.215251e+03
  -2.406155e+03   9.765217e+02
  -9.007987e+02  -8.106459e+02
   8.136181e+02  -6.463594e+02
   1.024306e+03   4.795165e+02
   5.468686e+01   1.169826e+03
  -9.502105e+02   9.288117e+02
  -1.025231e+03   1.088446e+02
  -3.275323e+02  -1.027199e+03
   2.402720e+02  -9.254942e+02
   8.028854e+02  -1.074057e+02
   4.726440e+02   6.795099e+02
  -3.633374e+02   7.806823e+02
  -6.197808e+02   5.472524e+01
  -3.901852e+02  -7.914838e+02
   2.850842e+02  -9.285935e+02
   6.218705e+02  -7.184390e+01
   3.489884e+02   5.589939e+02
   9.627315e+01   4.971866e+02
  -3.188097e+02   2.096511e+02
  -2.312996e+02  -9.791936e+01
   1.895839e+02  -9.427870e+01
   3.374303e+02   1.381995e+02
   1.600632e+02   4.632916e+02
  -4.612579e+02   3.553719e+02
  -8.104460e+02  -1.292685e+02
  -3.895502e+02  -6.562497e+02
   4.622267e+02  -5.213649e+02
   8.462133e+02  -3.898974e+01
   3.054784e+02   5.295502e+02
  -3.322077e+02   5.544881e+02
  -6.251373e+02   2.561386e+02
  -3.791810e+02  -2.462881e+02
  -1.515658e+01  -4.325109e+02
   2.248438e+02  -2.408369e+02
   1.518086e+02   2.996121e+02
  -1.987308e+02   5.163570e+02
  -4.674946e+02   2.373823e+01
  -2.548011e+02  -7.061497e+02
   3.104080e+02  -7.774292e+02
   6.147424e+02   1.699626e-01
   3.373734e+02   6.306923e+02
  -3.065369e+02   3.649441e+02
  -4.776769e+02  -3.823758e+02
   1.724683e+01  -6.109624e+02
   5.620055e+02  -1.360946e+02
   6.401470e+02   4.607736e+02
   1.516852e+02   6.297053e+02
  -4.432085e+02   3.393523e+02
  -6.591940e+02  -1.230148e+02
  -3.731135e+02  -3.654588e+02
   1.822773e+02  -3.512510e+02
   4.619624e+02  -4.611822e+01
   2.424516e+02   1.944189e+02
  -1.312687e+02   6.087413e+01
  -1.615732e+02  -1.998476e+02
   1.852408e+02  -2.234883e+02
   3.782729e+02   8.952527e+01
   1.591762e+02   2.991386e+02
  -1.935508e+02   2.582184e+02
  -3.695741e+02   5.868705e+01
  -1.759676e+02  -4.333418e+01
   4.548684e+01  -1.665621e+02
   2.385422e+02  -3.227847e+02
   3.346927e+02  -2.234967e+02
   2.938751e+02   1.301972e+02
   9.433375e+01   4.456956e+02
  -1.865542e+02   4.194379e+02
  -1.215066e+02   9.580153e+01
  -3.053707e+01  -5.809151e+01
  -1.212478e+01   8.816405e+01
  -1.971752e+02   1.695724e+02
  -3.074863e+02  -1.065033e+01
  -1.816652e+02  -3.099720e+02
   5.317502e+01  -2.706420e+02
   2.376189e+02  -1.784772e+01
   2.120437e+02   2.702899e+02
   1.183691e+00   3.386611e+02
  -3.249390e+02   1.306747e+02
  -3.960825e+02  -1.669857e+02
  -1.886230e+02  -3.735530e+02
   1.123280e+02  -2.937556e+02
   1.901689e+02  -6.162216e+01
   1.160352e+02   3.987366e+01
   6.622451e+01  -8.190925e+01
   2.339897e+02  -1.291570e+02
   4.275959e+02   3.623688e+01
   2.882917e+02   2.972047e+02
   1.489348e+01   4.890959e+02
  -3.215194e+02   4.181681e+02
  -5.165682e+02   2.510252e+02
  -3.187518e+02  -6.342754e+01
  -4.847576e+01  -3.662801e+02
   1.441543e+02  -2.482146e+02
   1.243210e+02   1.772463e+01
  -1.443106e+02   1.327359e+02
  -2.845556e+02  -2.137644e+01
  -4.854304e+01  -2.295905e+02
   2.265790e+02  -1.912946e+02
   2.482810e+02   9.986556e+01
   1.580028e+01   1.999222e+02
  -2.285257e+02   3.356059e+01
  -1.654975e+02  -2.805366e+02
   1.028158e+02  -3.466226e+02
   2.158844e+02  -1.486710e+02
   3.063291e+02   9.737835e+01
   2.696268e+02   2.779365e+02
   1.158382e+02   2.442618e+02
  -3.876105e+01   1.530339e+02
  -2.133819e+02  -2.915596e+01
  -3.157738e+01  -4.416931e+01
   5.036257e+01   7.206320e+01
  -6.638019e+00   1.550812e+02
  -1.507607e+02   1.713029e+02
  -2.241040e+02  -1.049952e+00
  -1.204434e+02  -1.534128e+02
   7.436028e+01  -6.329845e+01
   6.094180e+01   2.807414e+01
  -1.069534e+02   7.349834e+01
  -2.555114e+02  -2.397743e+00
  -2.931018e+02  -1.413828e+02
  -4.375031e+01  -2.423803e+02
   1.759930e+02  -2.915055e+02
   2.864794e+02  -1.254677e+02
   1.630978e+02   8.593250e+01
  -5.416873e+01   1.217262e+02
  -7.389783e+01   1.967823e+01
   1.675530e+01  -1.083083e+02
   2.135966e+02  -1.186149e+02
   2.343921e+02   1.059319e+02
   8.812355e+01   2.515152e+02
  -7.797947e+01   2.328197e+02
  -1.642319e+02   6.480402e+01
  -8.577357e+01  -2.172789e+01
  -5.567233e+01   3.943688e+01
   5.541535e+00   1.403930e+02
  -1.027202e+02   1.373146e+02
  -2.176843e+02  -9.057814e+00
  -2.160712e+02  -1.597545e+02
  -1.854881e+01  -2.101303e+02
   1.547355e+02  -1.804148e+02
   2.042496e+02  -4.189188e+01
   6.420674e+01   3.145022e+01
  -2.986191e+01   1.250777e+02
  -6.844171e+01   2.977005e+01
  -2.824869e+01   2.444629e+01
   3.859900e+01   1.597503e+01
  -6.576970e+00   2.323024e+01
  -4.777717e+01  -2.117545e+01
  -9.942671e+01  -9.993025e+01
  -1.636658e+01  -1.736160e+02
   1.298836e+02  -1.486711e+02
   2.385595e+02   1.003123e+01
   2.258069e+02   1.830185e+02
   4.627773e+01   2.928181e+02
  -1.009341e+02   1.860110e+02
  -9.492957e+01   5.296073e+01
  -1.025986e+02  -7.120045e+01
  -3.166344e+01  -4.151853e+01
  -7.618484e+01  -1.166988e+01
  -7.528800e+01  -2.875911e+01
   3.516694e+00  -4.610584e+01
   5.906789e+01  -9.361667e+01
   9.899649e+01  -9.710578e+01
   1.118560e+02   3.017163e+01
   4.727615e+01   8.499608e+01
  -1.402444e+02   1.047368e+02
  -1.843957e+02  -4.541603e+01
  -1.454228e+02  -2.232910e+02
   9.459473e+01  -2.092094e+02
   2.845372e+02  -1.002601e+02
   2.853067e+02   1.065224e+02
   1.001088e+02   2.213101e+02
  -1.700634e+01   1.614172e+02
  -1.253766e+02   8.176039e+01
  -6.844620e+01   9.536356e+01
  -6.445777e+01   7.589170e+01
  -1.457252e+02   1.110227e+02
  -1.475670e+02   4.426638e+01
  -1.114104e+02  -1.206546e+02
  -5.990917e+01  -2.413619e+02
   5.228460e+01  -1.809692e+02
   1.506247e+02  -4.292638e+01
   1.643182e+02   8.436372e+01
   4.922987e+00   1.244678e+02
  -1.185140e+02   5.711082e+01
  -5.618402e+01   3.291220e+01
  -9.507669e+00  -4.784974e+01
   2.895027e+01   2.699883e+00
  -1.216779e+01  -5.413336e+01
  -6.404089e+01  -7.851724e+01
  -6.549493e+01  -9.099782e+01
   6.588950e+01  -5.231165e+01
   1.568130e+02  -2.041473e+01
   2.057787e+02   8.046344e+01
   1.445756e+01   7.666980e+01
  -8.593776e+01   1.343032e+02
  -1.251747e+02   1.026005e+01
  -6.451587e+01  -4.201214e+01
   1.128187e+00  -4.582020e+01
   5.867677e+01   5.766361e+00
  -1.878463e+01   6.583572e+01
  -5.993080e+01   5.632845e+01
  -2.821598e+01  -2.068069e+01
  -2.397691e+01  -2.760281e+01
  -1.935655e+01  -5.784272e+01
  -7.398674e+01  -3.992080e+00
  -7.478622e+01  -3.211926e+01
  -3.784222e+01  -1.003445e+02
   5.301622e+01  -1.005150e+02
   1.214561e+02  -1.550260e+02
   1.596828e+02  -3.532348e+01
   1.465760e+02   8.070659e+01
   5.455425e+01   1.115460e+02
  -5.429631e+01   3.314550e+01
  -8.106546e+01  -1.553999e+01
   1.501232e+01  -1.878857e+01
   1.436148e+02   4.722723e+01
   6.902116e+01   1.456711e+02
  -8.008708e+01   1.534375e+02
  -2.562814e+02   7.141506e+01
  -2.032347e+02  -8.797881e+01
  -4.400491e+01  -1.467604e+02
   9.468744e+01  -7.511804e+01
   9.118925e+01  -3.609669e+01
  -3.311056e+01   4.475566e+01
  -1.034605e+02  -8.212278e+00
  -2.193193e+01  -1.323464e+02
   9.286251e+01  -1.851263e+02
   1.946402e+02  -3.630206e+01
   1.296136e+02   8.798934e+01
  -2.711807e+01   1.836412e+02
  -1.296504e+02   1.104034e+02
  -8.309498e+01  -2.195334e+01
  -4.856050e+01  -1.276710e+02
   1.456015e+01  -8.799365e+01
   6.036958e+01  -5.406172e+00
  -9.155359e-01   3.215953e+01
  -1.176130e+01  -1.014586e+01
   1.342975e+01   2.805051e+01
   1.771702e+01   4.858456e+01
   5.912987e+01   1.328124e+02
   3.311469e+01   9.129048e+01
  -4.161203e+01   5.233945e+01
  -1.560941e+02  -5.633316e+01
  -1.695118e+02  -4.884953e+01
  -1.015012e+01  -7.986102e+01
   7.856370e+01  -2.306357e+01
   1.315468e+02  -4.186534e+01
   2.039555e+01   1.914270e+01
  -4.390522e+01   7.160220e+01
  -1.328393e+00   6.131047e+00
   2.812545e+01  -6.936074e+00
   7.277937e+00   6.270611e+00
  -4.009634e+01   1.451542e+01
  -1.439308e+02  -1.410203e+01
  -1.278148e+01  -5.340365e+01
   1.018248e+02  -1.097180e+02
   2.384872e+02  -4.402004e+01
   1.700393e+02   1.124833e+02
   6.237820e+01   1.944163e+02
  -8.559052e+01   1.409365e+02
  -1.262785e+02   5.319957e+01
  -9.928709e+01  -6.735372e+01
  -1.131976e+01  -4.697238e+01
  -5.539544e+00   2.371042e+01
  -2.608003e+01   3.489894e+01
  -3.456655e+01  -3.464098e+01
  -1.899807e+01  -1.081060e+02
   1.601087e+01  -1.396794e+02
   1.381714e+02  -1.350111e+01
   1.084535e+02   7.570471e+01
  -8.166520e-01   1.427254e+02
  -1.094883e+02   4.061494e+01
  -1.421359e+02  -9.692228e+01
  -5.744715e+01  -1.164274e+02
   8.612872e+01  -9.553512e+01
   1.323886e+02  -2.011643e+00
   5.168883e+01   4.460008e+01
  -1.445833e+01   1.465052e+01
  -5.726404e+01   4.202273e+01
   2.129127e+00  -6.097356e+01
   5.882466e+01  -2.432023e+01
   1.817968e+01   4.304736e+01
  -5.215066e+01   4.597895e+01
  -1.066985e+02   8.035562e+01
  -9.749557e+01   2.814532e+01
  -1.238377e+01  -6.701768e+01
   9.681601e+01  -7.132481e+01
   3.050459e+01   4.958361e+00
  -1.898847e+01   7.063183e+01
  -3.719938e+01   5.886165e+01
  -7.336424e+01  -2.340037e+01
  -1.694643e+01  -3.515235e+01
   7.986612e-01  -6.075222e+01
   5.966936e+01  -7.875352e+00
   3.441946e+01   1.606552e+01
   1.566944e+01   1.079629e+01
  -9.679296e+00   4.972076e-01
   1.071169e+01   6.197123e-01
   1.464610e+00   1.203942e+01
   3.234854e+01   8.046330e+01
  -2.016210e+01  -2.416370e+01
  -2.414737e+01  -2.687904e+01
   7.228797e+00  -1.581921e+01
   3.950189e+01  -3.934407e+01
   3.354946e+01   2.898099e+01
   3.869954e+01   1.213602e+02
  -4.522707e+01   3.801592e+01
  -8.760787e+01  -6.243223e+00
  -4.045587e+01  -6.591162e+01
   3.567885e+01  -3.662336e+01
   5.659101e+01   4.000894e+01
  -4.180148e+00   7.199830e+00
  -4.183987e+01  -4.505289e+01
  -5.540565e+01  -9.046144e+00
   5.606069e+01  -6.722210e+01
   6.763332e+01  -1.637976e+01
