
 $NMID
 id='ANONYMOUS ', fmtdat='(2E16.6)'
 volume=1.0
 tramp=1.0
 $END
   4.206372e+03   1.539976e+02
   2.531011e+03   2.243482e+03
  -3.555637e+02   2.662028e+03
  -1.739085e+03   1.466009e+03
  -9.512052e+02  -5.572338e+01
   3.410161e+02  -3.493269e+02
   6.395445e+02   2.558529e+02
  -1.933495e+01   7.875613e+02
  -6.953470e+02   6.907480e+02
  -8.561793e+02   1.345591e+01
  -4.019504e+02  -7.153173e+02
   3.428493e+02  -7.369685e+02
   3.797008e+02  -2.586740e+02
   3.378158e+02   5.281359e+02
  -6.738353e+01   7.972411e+02
  -4.583100e+02  -1.620018e+02
  -4.853604e+02  -5.586186e+02
   4.091685e+02  -6.001492e+02
   4.703103e+02  -1.488043e+02
   5.622634e+02   1.226283e+02
   7.388838e+01   2.172266e+02
  -2.082161e+02   2.459310e+02
  -1.073473e+02  -4.128775e+01
   1.875081e+02   8.533116e+01
   2.095279e+02   1.660981e+02
   6.429113e+01   3.971612e+02
  -5.177235e+02   2.100141e+02
  -7.381197e+02  -2.177333e+02
  -2.244989e+02  -2.892843e+02
   3.945786e+02  -3.151458e+02
   7.517401e+02   2.531134e+02
   3.252425e+02   5.507401e+02
  -2.719368e+02   3.485118e+02
  -5.123025e+02   8.316786e+01
  -4.912681e+02  -2.064664e+02
  -1.076124e+02  -4.487087e+02
   5.928250e+01  -1.600993e+02
  -1.255141e+01   1.251766e+02
  -2.472428e+02   2.300288e+02
  -3.902229e+02  -1.807260e+02
  -7.000591e+01  -6.463870e+02
   3.711699e+02  -5.410211e+02
   5.083400e+02  -1.461576e+01
   2.219446e+02   4.312644e+02
  -1.295619e+02   2.790600e+02
  -2.685642e+02  -2.261967e+02
   9.078333e+01  -4.669193e+02
   4.399227e+02  -6.950074e+01
   5.257238e+02   4.051712e+02
   1.249946e+02   5.892882e+02
  -3.472392e+02   3.294242e+02
  -5.722658e+02  -9.377274e+01
  -3.681176e+02  -3.886235e+02
   4.790357e+01  -3.248778e+02
   3.609484e+02  -9.768403e+01
   2.181483e+02   1.025564e+02
  -7.912606e+00   9.125439e+01
  -9.141933e+01  -1.076633e+02
   1.904363e+02  -1.325753e+02
   3.126330e+02   3.511084e+01
   1.081377e+02   2.121788e+02
  -2.033095e+02   2.391776e+02
  -3.108235e+02   1.226727e+02
  -2.058329e+02  -4.613810e+01
   9.919767e+00  -2.295347e+02
   2.807375e+02  -3.735795e+02
   4.157122e+02  -2.004724e+02
   3.511139e+02   1.936229e+02
   4.927832e+01   4.439244e+02
  -1.483881e+02   3.930149e+02
  -7.658883e+01   1.554488e+02
  -2.560242e+01   9.534556e+01
  -8.169467e+01   8.894833e+01
  -2.404088e+02   6.245704e+01
  -2.544459e+02  -9.369758e+01
  -1.180033e+02  -2.339215e+02
   9.160221e+01  -2.326634e+02
   2.252071e+02   1.607369e+01
   1.771757e+02   2.772177e+02
  -5.415107e+01   2.770171e+02
  -2.580110e+02   1.102287e+02
  -3.152915e+02  -1.707109e+02
  -1.995410e+02  -3.276478e+02
   7.035166e+01  -3.098064e+02
   1.939670e+02  -1.710273e+02
   1.595435e+02  -2.836548e+01
   1.601888e+02  -6.647813e+01
   3.011955e+02  -4.521884e+01
   4.046248e+02   1.004414e+02
   3.602592e+02   3.492669e+02
  -2.573535e+01   4.909334e+02
  -4.194051e+02   3.811148e+02
  -4.882374e+02   1.416562e+02
  -3.328747e+02  -9.098885e+01
  -5.198471e-01  -3.016318e+02
   1.392706e+02  -2.371212e+02
   7.112831e+01  -1.933973e+01
  -1.175393e+02   5.586460e+01
  -1.639867e+02  -1.528013e+01
  -4.630936e+01  -1.269003e+02
   1.490387e+02  -9.985214e+01
   1.319182e+02   8.091720e+01
  -3.433722e+01   1.986771e+02
  -2.038742e+02   4.210817e+00
  -1.973146e+02  -2.575898e+02
   2.109927e+01  -3.781934e+02
   2.640341e+02  -2.102712e+02
   3.499497e+02   6.386374e+01
   2.749371e+02   2.579280e+02
   8.925678e+01   2.409897e+02
  -8.803972e+01   1.480579e+02
  -1.796965e+02   7.237289e+00
  -3.525697e+01   1.397058e+01
   8.481632e+01   5.384492e+01
   2.423331e+01   1.454677e+02
  -1.377037e+02   7.729037e+01
  -1.193706e+02  -4.681979e+01
  -3.815667e+01  -8.758549e+01
   1.138021e+02  -1.824128e+01
   3.460281e+01   8.662667e+01
  -1.478318e+02   1.132550e+02
  -3.579662e+02   2.382224e+01
  -2.639386e+02  -1.621943e+02
  -5.565178e+01  -2.398115e+02
   1.999896e+02  -2.696780e+02
   2.915389e+02  -1.347329e+02
   1.666856e+02  -2.012025e+01
   1.668481e+01   9.464912e+01
  -3.740971e+00   1.726407e+01
   1.764753e+01  -6.639587e+01
   1.467841e+02  -1.533055e+01
   1.704195e+02   1.220955e+02
   5.802681e+01   2.101177e+02
  -1.255259e+02   1.330061e+02
  -1.455033e+02  -2.788580e+01
  -9.928461e+01  -8.378388e+01
   1.014257e+01  -1.138757e+01
   9.495298e+00   4.445159e+01
  -8.692007e+01   1.317936e+02
  -1.822604e+02   1.071478e+01
  -1.913309e+02  -1.318048e+02
  -9.907622e+00  -2.575676e+02
   1.932516e+02  -1.860884e+02
   1.732549e+02  -4.799587e-01
   9.054471e+01   1.087223e+02
  -3.863177e+01   9.768194e+01
  -4.712797e+01   2.872378e+01
  -2.808534e+01  -5.945311e+00
   3.210018e+01  -2.681305e+01
  -5.103932e+01   1.392984e+01
  -1.103673e+02   1.696212e+01
  -9.801773e+01  -1.085366e+02
   1.801218e+01  -2.051996e+02
   1.316912e+02  -1.496870e+02
   2.647743e+02   1.584693e+01
   1.908933e+02   2.024326e+02
   4.517891e+00   2.746545e+02
  -1.240915e+02   1.190154e+02
  -1.042179e+02   1.426788e+01
  -5.962893e+01  -8.659117e+01
   6.768881e+00   5.355254e+00
  -8.845460e+01   3.071018e+01
  -5.666302e+01   1.702080e+01
  -2.639682e+01  -3.764834e+01
   7.361864e+01  -1.170873e+02
   1.251791e+02  -9.177137e+01
   1.175185e+02   6.524311e+01
  -5.688194e+01   1.529993e+02
  -1.700874e+02   1.200094e+02
  -1.747807e+02  -2.087140e+01
  -1.073815e+02  -2.293205e+02
   1.489530e+02  -2.322546e+02
   2.368665e+02  -6.384232e+01
   2.566927e+02   1.051163e+02
   9.773625e+01   1.647159e+02
  -7.400486e+01   1.342337e+02
  -7.751872e+01   7.604434e+01
  -6.086228e+01   8.222052e+01
  -5.819732e+01   8.050438e+01
  -1.156697e+02   1.018609e+02
  -1.460806e+02  -5.019125e+01
  -1.351718e+02  -1.623197e+02
  -1.011544e+01  -2.044946e+02
   1.266009e+02  -1.619520e+02
   1.972741e+02   5.986038e+00
   1.197684e+02   1.389289e+02
  -5.823772e+01   1.499797e+02
  -1.146232e+02   3.479589e+01
  -8.718800e+01  -1.028937e+01
  -3.957937e+00  -6.901500e+01
   1.478692e+00   4.930148e+00
  -5.929561e+01  -5.136564e+01
  -6.409045e+01  -4.502618e+01
  -6.591890e+01  -7.839409e+01
   7.582365e+01  -7.422986e+01
   2.070676e+02  -3.641481e+01
   1.715536e+02   1.156123e+02
   7.008012e+00   1.092595e+02
  -9.547287e+01   7.155928e+01
  -1.439445e+02   4.199977e+00
  -2.268593e+01  -7.769912e+01
   6.254024e+01  -5.603629e+01
   9.307573e+01   4.679333e+00
   2.194674e+00   8.944035e+01
  -9.070169e+01   7.615450e+01
  -7.153900e+01   2.638217e+01
  -1.103525e+01  -5.443677e+01
  -3.852465e+01  -2.753376e+01
  -7.448700e+01   1.932615e+01
  -2.609198e+00   3.995786e+01
  -4.617085e+01  -6.989384e+01
   4.041163e+01  -1.353169e+02
   1.527883e+02  -1.035669e+02
   1.440211e+02  -4.979771e+01
   1.366726e+02   6.486849e+01
   3.800649e+01   8.853769e+01
  -7.306887e+01   7.443693e+01
  -6.031358e+01  -1.458301e+01
   6.648071e+01  -2.781304e+01
   8.574546e+01   4.209618e+01
   7.500158e+01   1.168368e+02
  -8.150018e+01   9.253556e+01
  -2.259224e+02   1.743919e+01
  -1.538377e+02  -2.545419e+01
  -4.324991e+01  -1.069259e+02
   7.178926e+01  -3.837264e+01
   4.610792e+01   1.388960e+01
  -6.332849e+00   2.155681e+01
  -8.608320e+01  -4.355459e+01
  -4.679727e+01  -9.144587e+01
   1.311154e+02  -1.478848e+02
   1.537587e+02  -8.629350e+01
   1.679960e+02   9.050547e+01
   2.387434e-01   2.246587e+02
  -1.241499e+02   1.838997e+02
  -1.551748e+02   1.051547e+01
  -8.150705e+01  -1.056681e+02
  -4.681723e+01  -1.083575e+02
   8.012591e+01  -1.457425e+01
   3.682425e+01   1.032284e+01
   2.340145e+00  -1.368917e+01
   2.622066e+01  -4.842439e+01
   4.746583e+01   5.426360e+00
   8.325280e+01   8.941056e+01
   9.259439e-01   8.343968e+01
  -2.674311e+01   3.507743e+01
  -1.446550e+02  -5.021462e+01
  -1.029461e+02  -7.988523e+01
   1.879261e+01  -1.250556e+02
   1.331040e+02   1.480689e+01
   1.094094e+02   6.969362e+00
   2.365944e+01   7.837196e+01
  -5.346449e+01   3.705764e+01
  -4.030304e+01   5.259948e+01
   1.725554e+01   3.903696e+01
   9.382621e-01  -2.126097e+01
  -1.147118e+02   2.936760e+01
  -1.150866e+02  -4.000657e+01
  -1.933446e+01  -1.089084e+02
   8.377262e+01  -1.217317e+02
   2.000031e+02  -1.039248e+02
   1.409156e+02   5.979974e+01
   3.585993e+01   1.896998e+02
  -5.100570e+01   1.774291e+02
  -1.216685e+02   2.067342e+01
  -7.410226e+01  -5.654129e+01
  -4.683330e+01  -5.327202e+01
  -6.063885e-01   1.532662e+01
  -4.356280e+01  -3.022157e+01
  -7.185611e+00  -3.999817e+01
  -1.723418e+01  -9.886250e+01
   3.934058e+01  -1.054030e+02
   9.050647e+01   4.425801e+01
   3.812956e+01   9.200519e+01
  -2.239442e+01   1.015218e+02
  -2.503290e+01   3.062418e+01
  -1.166726e+02  -3.277713e+01
  -3.132124e+01  -6.739373e+01
   5.138451e+01  -6.685299e+01
   6.765297e+01   1.240464e+01
   5.918225e+01   4.691455e+01
  -3.169346e+01   4.959347e+01
  -6.899853e+01  -2.626423e+01
   4.115468e+01   6.461326e+00
   8.068622e+01  -3.250790e+01
   7.880632e+01   6.999540e+00
  -5.080100e+01   6.649052e+01
  -1.209675e+02   5.184642e+01
  -9.054723e+00   3.606575e+01
   4.881649e+00  -5.602571e+01
   4.810907e+01  -6.080718e+01
   4.785528e+01   4.353110e+00
   3.478900e+01   6.260647e+01
   1.361515e+01   2.111424e+01
  -4.441553e+01  -1.621903e+01
  -1.330577e+01  -2.311643e+01
   1.062659e+01  -6.256420e+01
   3.121922e+01   5.566894e+00
   2.309346e+01   1.902903e+01
   6.198417e+01  -7.678867e+00
   1.056733e+01  -2.896200e+01
  -1.720606e+01  -7.819389e+00
   2.431155e+00   7.427444e+00
  -1.108563e+01   6.867398e+01
  -7.776836e+01  -7.950784e+00
  -2.657235e+01  -2.873966e+00
  -7.539109e+00  -4.117751e+01
   9.470534e+01  -9.467201e+00
   7.069883e+01   4.737430e+01
  -6.098870e+00   7.285632e+01
  -6.696352e+01   4.395392e+01
  -8.156276e+01   1.197663e+01
  -7.651614e+01  -6.431940e+01
   5.028142e+00  -8.421097e+01
   2.062632e+01  -4.369546e+01
   5.514653e+01  -1.582926e+01
  -2.498597e+01  -1.670967e+01
  -3.336855e+01  -1.711897e+01
   3.416567e+01  -3.611910e+01
   8.032261e+01   2.386552e+01
