
 $NMID
 id='ANONYMOUS ', fmtdat='(2E16.6)'
 volume=1.0
 tramp=1.0
 $END
   4.180971e+03  -1.194988e+02
   2.481680e+03   2.596662e+03
  -5.933520e+02   2.589074e+03
  -2.133384e+03   1.019213e+03
  -1.027728e+03  -5.459207e+02
   5.077627e+02  -4.717168e+02
   9.426062e+02   3.541738e+02
  -1.509264e+01   9.381787e+02
  -7.276074e+02   7.102802e+02
  -8.233390e+02  -5.054525e+01
  -5.480379e+02  -7.688202e+02
   2.342827e+02  -8.154304e+02
   5.193669e+02  -5.710427e+01
   4.422255e+02   8.175794e+02
  -1.438092e+02   8.116147e+02
  -7.177663e+02   7.066718e+00
  -1.068025e+02  -8.392359e+02
   3.064868e+02  -8.528862e+02
   6.858817e+02  -3.183367e+02
   3.991103e+02   2.100838e+02
  -4.822163e+01   5.045652e+02
  -2.540620e+02   3.233203e+02
  -1.637081e+02   8.630103e+01
   1.056614e+02  -6.224911e+01
   3.731148e+02   2.573080e+02
   9.258604e+01   4.359348e+02
  -4.439872e+02   3.879856e+02
  -9.777267e+02  -1.098853e+02
  -2.932417e+02  -5.285337e+02
   3.655398e+02  -6.107004e+02
   6.901486e+02  -4.318444e+01
   3.163173e+02   5.944046e+02
  -3.221676e+02   4.829627e+02
  -6.631379e+02   2.637421e+02
  -5.319133e+02  -1.632162e+02
   3.667321e+01  -5.117178e+02
   2.068472e+02  -2.711089e+02
   1.240913e+02   3.114618e+02
  -2.583854e+02   4.783187e+02
  -4.065351e+02  -1.313373e+02
  -1.948777e+02  -6.895956e+02
   2.714261e+02  -7.020729e+02
   5.129286e+02  -2.289253e+01
   1.739490e+02   5.180948e+02
  -2.891401e+02   2.915625e+02
  -3.204110e+02  -3.330137e+02
   1.010123e+02  -5.619170e+02
   5.806923e+02  -1.299616e+02
   6.215174e+02   3.755303e+02
   2.250640e+02   5.863069e+02
  -3.431313e+02   3.616256e+02
  -6.456279e+02  -4.288169e+01
  -4.125667e+02  -3.477393e+02
   9.845471e+01  -3.489037e+02
   4.213378e+02  -7.008400e+01
   2.877812e+02   1.442359e+02
  -1.405649e+02   1.080863e+02
  -2.055816e+02  -1.666028e+02
   8.878627e+01  -2.339442e+02
   3.808116e+02   2.971814e+01
   2.256794e+02   2.714751e+02
  -1.269216e+02   2.392648e+02
  -3.641199e+02   6.119192e+01
  -2.171948e+02  -6.351998e+01
   5.699772e+01  -2.289012e+02
   2.848142e+02  -2.996764e+02
   3.672371e+02  -2.049744e+02
   2.302352e+02   1.568922e+02
   6.380382e+01   4.358995e+02
  -8.038755e+01   3.458614e+02
  -9.066312e+01   5.509519e+01
  -1.783224e+01  -5.009743e+01
  -6.598076e+01   8.905755e+01
  -1.903758e+02   1.362275e+02
  -2.588146e+02  -8.196787e+01
  -1.153871e+02  -3.154188e+02
   7.952848e+01  -2.574341e+02
   2.290163e+02  -3.976248e+01
   1.930696e+02   2.359872e+02
   6.101597e+00   2.966534e+02
  -2.456335e+02   1.185169e+02
  -3.881403e+02  -1.762042e+02
  -1.669798e+02  -3.604313e+02
   1.056374e+02  -3.167605e+02
   2.499924e+02  -9.730672e+01
   1.514630e+02  -8.954869e+00
   1.201714e+02  -2.325039e+01
   2.403345e+02  -9.196539e+01
   4.477637e+02   8.296396e+01
   3.498733e+02   3.514503e+02
   2.445306e+01   4.917313e+02
  -3.531734e+02   4.086789e+02
  -4.805823e+02   1.696417e+02
  -3.625925e+02  -6.933054e+01
  -8.509548e+01  -2.419637e+02
   1.150257e+02  -1.843276e+02
   3.633983e+01  -2.465962e+01
  -1.378222e+02   1.097790e+02
  -2.090450e+02  -2.144340e+01
  -4.791791e+01  -2.117069e+02
   1.420122e+02  -1.599800e+02
   1.912621e+02  -2.403370e+00
  -5.548356e+01   1.766497e+02
  -1.463060e+02  -7.663031e+00
  -1.045575e+02  -2.937130e+02
   9.886248e+01  -3.539613e+02
   2.270984e+02  -2.102088e+02
   3.257807e+02   7.555550e+01
   2.767945e+02   2.178036e+02
   7.970036e+01   2.169313e+02
  -1.294275e+02   1.290866e+02
  -1.581107e+02  -1.159810e+01
  -3.415891e+01  -7.101317e+01
   9.704825e+01   3.529436e+01
   5.134512e+01   1.288136e+02
  -1.146205e+02   9.557527e+01
  -1.587123e+02   1.535890e+01
  -7.288911e+01  -6.495974e+01
   6.387342e+01   2.633779e+01
   1.524217e+01   9.026766e+01
  -1.830501e+02   8.922187e+01
  -3.098603e+02  -4.103739e+01
  -2.552080e+02  -1.879572e+02
  -6.722042e+01  -2.823753e+02
   1.891136e+02  -2.708019e+02
   2.391731e+02  -1.632806e+02
   1.607256e+02   4.646821e+01
   2.258094e+01   9.109732e+01
   6.574568e+00   4.389910e+01
   6.648380e+01  -9.003858e+01
   1.509330e+02  -3.362861e+01
   1.335217e+02   1.037910e+02
   9.384801e+01   1.811853e+02
  -7.603239e+01   1.245628e+02
  -1.358396e+02   5.387495e+01
  -8.026432e+01  -7.092980e+01
   1.548891e+01  -4.023987e-01
   3.644418e+01   6.387378e+01
  -6.235818e+01   6.687869e+01
  -2.100883e+02   1.858233e+01
  -2.210102e+02  -1.387644e+02
  -8.597379e+00  -2.108303e+02
   1.299845e+02  -1.520006e+02
   2.041446e+02  -2.380016e+01
   7.231138e+01   1.031085e+02
  -1.022866e+01   1.145060e+02
  -8.115206e+01  -2.615033e+01
  -3.595660e+01   1.119362e+00
  -1.943850e+01  -2.194316e+01
  -2.596961e+01  -2.048388e+00
  -6.239954e+01   4.183357e+00
  -1.067225e+02  -5.556923e+01
   1.527345e+01  -1.422593e+02
   1.418317e+02  -1.780754e+02
   2.691867e+02  -4.833512e+01
   1.838806e+02   1.848834e+02
   2.280132e+01   2.375333e+02
  -1.002108e+02   2.035597e+02
  -1.115928e+02   3.734719e+01
  -5.225534e+01  -9.844715e+01
  -1.912509e+01  -4.852223e+01
  -8.313621e+01   2.482428e+01
  -1.064198e+02   1.743755e+01
  -7.118447e+01  -5.308683e+01
   2.294160e+01  -1.039237e+02
   1.297947e+02  -5.250980e+01
   1.112846e+02   2.690658e+01
   2.583818e+01   9.061369e+01
  -1.021400e+02   3.620137e+01
  -2.069137e+02  -6.068771e+01
  -6.852388e+01  -2.116904e+02
   1.288267e+02  -1.936099e+02
   2.803708e+02  -1.061121e+02
   2.414916e+02   8.338144e+01
   8.855107e+01   1.859342e+02
  -3.525255e+01   1.149075e+02
  -5.498710e+01   5.375023e+01
  -6.426978e+01   8.540851e+01
  -5.884997e+01   1.377622e+02
  -8.102714e+01   9.667545e+01
  -1.358420e+02  -1.413937e+01
  -1.164969e+02  -1.364995e+02
  -6.073247e+01  -2.279611e+02
   1.115116e+02  -1.527007e+02
   1.731816e+02  -3.418221e+01
   1.020593e+02   1.289947e+02
   1.630951e-01   1.579621e+02
  -6.803922e+01   1.206668e+02
  -6.904698e+01  -2.235430e+01
   7.173897e+00  -5.201398e+01
  -7.595034e+00  -3.775716e+01
  -5.662487e+01   4.868742e+01
  -5.763551e+01   1.110753e+01
  -3.978809e+01  -4.439430e+01
   1.071899e+02  -5.344058e+01
   1.515309e+02  -3.327353e+01
   1.201617e+02   4.765856e+01
   2.968337e+01   1.052515e+02
  -1.163503e+02   9.200582e+01
  -1.721640e+02  -2.328581e+01
  -4.896776e+01  -1.661190e+01
   1.098885e+02  -2.929097e+01
   5.713671e+01   4.193991e+01
  -3.116154e+00   8.961171e+01
  -7.829080e+01   7.411387e+01
  -2.218358e+01   4.543965e+00
  -2.758023e+01  -5.001981e+01
  -1.785391e+01  -5.131572e+01
  -6.597680e+01   5.326318e+00
  -6.134754e+01   3.340330e+01
  -5.031629e+01  -8.178307e+01
   4.736734e+00  -1.376887e+02
   8.052916e+01  -1.545404e+02
   1.433669e+02  -6.471846e+01
   1.616021e+02   6.072917e+01
  -2.428765e+01   1.016123e+02
  -9.070711e+01   7.292141e+01
  -8.111634e+01   1.132802e+01
   8.248388e+01  -4.031348e+01
   1.503173e+02   2.943424e+01
   9.981469e+01   1.159491e+02
  -8.349556e+01   1.012544e+02
  -1.767471e+02   5.492287e+01
  -1.359857e+02  -6.467580e+01
  -4.182486e+01  -8.946889e+01
   4.991013e+01  -7.530679e+01
   1.656915e+01   2.499471e+01
  -4.026967e+01   4.412218e+01
  -4.496414e+01  -3.323791e+01
  -1.400307e+01  -1.221905e+02
   9.231092e+01  -1.485953e+02
   1.657099e+02  -1.634593e+01
   1.292264e+02   1.093632e+02
  -5.901704e+00   2.078650e+02
  -7.726625e+01   1.025942e+02
  -9.953988e+01  -1.281573e+01
  -3.706240e+01  -1.310644e+02
  -1.585525e+01  -1.341829e+02
   1.373267e+01  -2.280365e+01
   3.068044e+01   3.925672e+01
   5.667831e+01   8.769181e+00
   2.254506e+01  -2.195430e+01
   4.743423e+01   3.425845e+01
   7.664805e+01   1.034811e+02
   5.200186e+01   1.010966e+02
  -7.461029e+01   4.898541e+01
  -1.614473e+02  -6.677315e+01
  -1.274514e+02  -8.858438e+01
  -1.711816e+00  -8.647881e+01
   1.114245e+02  -3.280496e+01
   7.581022e+01   2.963652e-01
   2.890994e+01  -2.242218e+00
  -2.874135e+01   4.886270e+01
  -7.565092e-01   2.102949e+01
   8.491810e+00  -1.129459e+01
   1.297853e+01   2.042759e+00
  -4.813822e+01   1.037346e+00
  -9.221380e+01  -3.756929e+01
  -9.533257e+00  -8.914075e+01
   9.511247e+01  -1.035530e+02
   1.790355e+02  -5.313482e+01
   1.548164e+02   9.216085e+01
   2.873105e+01   1.555744e+02
  -5.733874e+01   1.228331e+02
  -1.234942e+02   8.790349e+01
  -8.665901e+01  -1.266129e+01
  -2.796759e+01  -6.181792e+01
  -4.378768e+01  -1.448962e+01
  -8.894557e+00  -2.790908e+01
  -1.761891e+01  -4.671798e+01
  -1.581792e+01  -4.636270e+01
   2.069627e+01  -1.080946e+02
   6.748524e+01   1.039490e+01
   7.276652e+01   1.120788e+02
  -7.888533e+00   1.249004e+02
  -1.108939e+02  -7.528361e+00
  -1.014174e+02  -1.158946e+02
  -6.740175e+01  -1.205058e+02
   7.425354e+01  -6.622285e+01
   1.054149e+02   2.725694e+01
   3.415063e+01   6.796444e+01
  -5.894184e+01   3.192222e+01
   2.174170e+01   1.967894e+01
  -4.970538e-01   6.903376e+00
   8.173045e+01  -5.869799e+01
   2.647083e+01   1.538508e+01
  -1.008603e+02   6.755468e+01
  -1.041592e+02   4.837924e+01
  -2.227973e+01  -9.208976e+00
   1.166480e+01  -5.419164e+01
   6.429655e+01  -6.494638e+01
   1.025723e+01   3.464876e+01
  -2.125208e+01   5.331348e+01
  -6.565867e+01   5.746271e+01
  -1.865271e+01  -4.257262e+01
  -2.509083e+01  -9.411804e+01
   1.880226e+01  -5.803722e+01
   5.003269e+01  -7.959327e+00
   2.258786e+01   8.720326e+00
   3.323092e+01   6.125567e+00
   7.401356e+00  -4.117319e+00
  -1.720562e+00  -3.907543e+01
  -4.596852e+00   4.344751e+01
  -7.113908e+00   7.169660e+01
  -4.170782e+01   3.443167e+01
  -5.455761e+01  -1.537021e+01
  -3.262973e+01  -4.584112e+01
   4.171938e+01  -7.617399e+00
   3.370515e+01   2.692525e+01
  -5.810389e+00   7.094478e+01
  -2.826186e+01   3.924876e+01
  -6.925185e+01  -5.307980e+01
  -4.403537e+01  -1.817709e+01
   3.671194e+01  -4.969624e+01
   1.091328e+01  -6.086807e+00
   2.799831e+00  -3.608668e+01
  -2.977843e+01  -2.467944e+01
  -2.707713e+01  -1.348126e+01
   4.574353e+01  -3.092926e+01
   9.466243e+01  -1.319116e+01
