
 $NMID
 id='ANONYMOUS ', fmtdat='(2E16.6)'
 volume=1.0
 tramp=1.0
 $END
   3.815323e+03   1.525564e+02
   2.528814e+03   2.266896e+03
  -2.328925e+02   2.332117e+03
  -1.637096e+03   1.367488e+03
  -6.873424e+02  -1.253297e+02
   3.913950e+02  -2.544281e+02
   5.771148e+02   1.030400e+02
  -5.773420e+01   6.982059e+02
  -5.699098e+02   6.328148e+02
  -7.445998e+02   1.457348e+02
  -5.468165e+02  -6.049421e+02
   3.847908e+01  -9.220103e+02
   2.945272e+02  -3.037672e+01
   1.988610e+02   5.094470e+02
  -1.857039e+02   7.214769e+02
  -4.108743e+02   8.916968e+01
  -3.235301e+02  -4.664717e+02
   2.175193e+02  -5.904539e+02
   5.278705e+02  -7.735378e+01
   3.493212e+02   2.670232e+02
   1.341855e+02   3.006151e+02
  -5.099547e+01   1.791371e+02
  -1.317538e+02   9.517455e+01
   2.046288e+02  -1.947449e+01
   4.589535e+02   1.636365e+02
  -2.736062e+00   4.630746e+02
  -5.429591e+02   3.398140e+02
  -7.371094e+02  -2.840493e+02
  -4.009898e+02  -4.403238e+02
   4.402005e+02  -3.019313e+02
   6.816976e+02   1.862869e+02
   1.342389e+02   4.434051e+02
  -4.125093e+02   4.136113e+02
  -4.130567e+02   9.309955e+01
  -3.249851e+02  -2.370984e+02
  -1.465649e+02  -4.064321e+02
   7.613412e+01  -1.117954e+02
   6.242339e+01   1.169313e+02
  -1.942099e+02   2.203202e+02
  -2.374229e+02  -1.205402e+02
  -5.252910e+01  -5.508515e+02
   2.626361e+02  -5.157954e+02
   4.447073e+02  -8.825590e+00
   1.863678e+02   4.137446e+02
  -2.249331e+02   2.040924e+02
  -2.648679e+02  -2.838285e+02
   1.342799e+02  -3.931257e+02
   5.067275e+02  -8.026361e+01
   5.518004e+02   3.757550e+02
   1.611501e+02   5.082931e+02
  -3.825781e+02   3.387674e+02
  -6.191418e+02  -5.131047e+01
  -3.576932e+02  -3.216025e+02
   1.002985e+02  -2.876212e+02
   3.641604e+02  -8.722173e+01
   2.299943e+02   9.596015e+01
  -6.741794e+00   5.545121e+01
  -8.251277e+01  -8.085608e+01
   1.183716e+02  -6.233782e+01
   2.588906e+02   1.101867e+02
   1.007029e+02   2.901788e+02
  -2.259811e+02   2.586676e+02
  -3.756212e+02   9.614966e+01
  -2.691326e+02  -1.527676e+02
   2.162947e+01  -3.645864e+02
   2.641104e+02  -3.639421e+02
   3.447044e+02  -1.844485e+02
   2.637210e+02   1.331172e+02
   1.119690e+02   3.886670e+02
  -5.477411e+01   3.773748e+02
  -7.058409e+01   1.731801e+02
  -4.391853e+01   1.100674e+02
  -1.112575e+02   1.417060e+02
  -2.784267e+02   1.090644e+02
  -3.278765e+02  -1.429535e+02
  -1.281238e+02  -3.435560e+02
   9.729615e+01  -2.592218e+02
   2.375139e+02   3.699092e+01
   1.855780e+02   2.919769e+02
   1.114562e+01   3.156690e+02
  -2.255551e+02   7.532241e+01
  -2.988558e+02  -1.966374e+02
  -1.585453e+02  -3.296845e+02
   9.118725e+01  -2.784503e+02
   1.825972e+02  -1.240301e+02
   1.918216e+02  -4.447020e+01
   1.884734e+02  -3.525083e+01
   3.197301e+02   7.298275e+00
   4.157842e+02   1.451931e+02
   3.306249e+02   3.020156e+02
  -3.591112e+01   4.844152e+02
  -3.913898e+02   4.232641e+02
  -5.390654e+02   2.315142e+02
  -3.357332e+02  -6.247727e+01
  -1.648694e+01  -2.009644e+02
   8.502858e+01  -1.854079e+02
   3.316699e+00  -6.575649e+01
  -1.238456e+02  -6.619479e+00
  -1.702780e+02  -2.619528e+01
  -3.661337e+01  -1.502881e+02
   1.210953e+02  -1.139230e+02
   1.185305e+02   5.470848e+01
  -3.223685e+01   1.592050e+02
  -1.360319e+02   2.966314e+01
  -1.165785e+02  -2.311152e+02
   5.211593e+01  -3.595441e+02
   2.548911e+02  -2.363074e+02
   3.774860e+02   3.850292e+01
   2.929665e+02   2.778813e+02
   6.596622e+01   2.971371e+02
  -8.492601e+01   1.902576e+02
  -1.193664e+02   1.908390e+00
  -5.647516e+01  -5.934072e+01
   6.688804e+01   3.497256e+01
  -1.272276e+01   1.084458e+02
  -1.782221e+02   5.238107e+01
  -2.352191e+02  -9.096617e+01
  -3.991885e+01  -9.855907e+01
   1.225963e+02  -6.742948e+00
   8.382630e+01   9.359526e+01
  -1.219759e+02   5.926315e+01
  -3.048845e+02  -8.176820e+01
  -2.436868e+02  -1.836179e+02
  -1.523410e+00  -2.524154e+02
   2.541730e+02  -2.024063e+02
   2.817446e+02  -7.547760e+01
   1.418457e+02   1.985138e+01
  -4.543863e+01   8.943518e+01
  -9.214092e+01  -3.598244e+01
   3.747968e+01  -1.024732e+02
   2.002883e+02  -8.415671e+01
   2.204885e+02   1.119723e+02
   7.941964e+01   2.729259e+02
  -1.114897e+02   1.867696e+02
  -1.337020e+02   2.067984e+01
  -2.024973e+01  -6.500161e+01
   1.184599e+02   1.262957e+01
   3.841932e+01   8.321761e+01
  -1.273203e+02   1.476448e+02
  -2.102808e+02   4.461374e-01
  -1.894942e+02  -1.568392e+02
  -3.945438e+01  -2.032913e+02
   1.406472e+02  -1.755283e+02
   1.940445e+02  -1.138421e+01
   7.525767e+01   7.263281e+01
  -5.301842e+01   6.890803e+01
  -6.030846e+01   2.475128e+01
   1.845469e+01  -8.969899e+01
   3.038551e+01  -1.015013e+01
   3.687071e+01   3.895998e+01
  -4.681094e+01   2.488951e+01
  -8.017937e+01  -6.655015e+01
   4.891385e+00  -1.282457e+02
   1.836148e+02  -1.380712e+02
   2.674953e+02   1.442600e+01
   1.787991e+02   1.599716e+02
  -1.398307e+01   2.570892e+02
  -1.397345e+02   1.791008e+02
  -1.462992e+02  -4.888228e+00
  -7.444005e+01  -6.105047e+01
  -3.882713e+01  -3.212116e+01
  -5.008943e+01   1.704922e+01
  -1.070631e+02   3.608727e+01
  -9.329498e+01  -2.472405e+01
   5.378272e+01  -1.179707e+02
   1.634779e+02  -7.325648e+01
   1.045125e+02   2.431385e+01
  -1.541186e+01   1.928608e+02
  -1.441893e+02   8.750400e+01
  -1.513558e+02  -7.737155e+01
  -9.062661e+01  -2.654812e+02
   8.408837e+01  -2.394117e+02
   2.526409e+02  -8.391446e+01
   2.386087e+02   9.609703e+01
   1.252066e+02   1.592031e+02
   7.528148e+00   1.498883e+02
  -8.225122e+01   6.196440e+01
  -6.438433e+01   8.637502e+01
  -5.582676e+01   1.255064e+02
  -1.116757e+02   7.396553e+01
  -1.530706e+02  -4.106393e+00
  -1.271284e+02  -1.697141e+02
   1.471982e+01  -2.254155e+02
   1.129402e+02  -1.635241e+02
   1.988637e+02  -1.740656e+00
   1.076036e+02   1.516124e+02
   6.314969e+00   1.520091e+02
  -1.113085e+02   8.490250e+01
  -1.086005e+02  -4.717635e+01
   7.044762e+00  -9.279876e+01
   4.472205e+01  -4.492729e+01
   3.787330e+01  -3.794020e+01
  -7.715266e+01  -6.622750e+00
  -1.570879e+01  -9.070216e+00
   8.685801e+01  -5.424636e+01
   1.220401e+02   1.596595e+01
   1.234039e+02   7.860410e+01
   2.476479e+01   1.394943e+02
  -1.285591e+02   9.629058e+01
  -1.326563e+02   1.099410e+01
  -3.328467e+00  -4.473912e+01
   8.390887e+00  -6.852657e+01
   6.074150e+01   3.499458e+01
   2.086151e+01   8.343173e+01
   8.114289e+00   3.915936e+01
  -6.989695e+01  -3.318834e+00
  -1.282379e+02  -5.070411e+01
  -4.711652e+01  -5.733670e+01
  -2.071661e+01  -1.564268e+01
  -6.024410e+01  -2.339195e+01
   1.638235e+01  -8.139545e+01
   4.465797e+01  -1.429496e+02
   1.307548e+02  -1.230914e+02
   1.934326e+02  -1.371587e+01
   1.408042e+02   8.912904e+01
   1.916960e+01   1.066295e+02
  -1.259412e+02   1.035660e+02
  -5.483189e+01  -1.130595e+01
   4.354849e+01  -1.667646e+01
   1.361313e+02   4.528651e+01
   4.077966e+01   8.914443e+01
  -3.076603e+01   1.260871e+02
  -1.788967e+02   5.792929e+01
  -1.340118e+02  -4.589256e+01
  -2.478776e+01  -7.887285e+01
   2.527661e+01  -1.143314e+01
   3.912250e+01   4.336512e+00
  -3.842333e+01   2.312748e+01
  -1.254064e+02  -3.943014e+01
  -2.186443e+01  -1.567638e+02
   8.909196e+01  -1.835091e+02
   2.099988e+02  -7.384425e+01
   1.646036e+02   3.099265e+01
   6.755570e-01   1.900500e+02
  -1.176856e+02   1.020731e+02
  -1.245407e+02  -9.350391e+00
  -9.329939e+01  -9.988173e+01
   2.216026e+01  -8.915918e+01
   5.003042e+01  -1.643661e+01
   6.202100e+01   3.965429e+01
   2.189936e+01  -2.790724e+00
   3.157012e+01  -2.513023e+01
   5.405959e+01   2.924158e+01
   9.388162e+01   1.344785e+02
   1.171002e+01   1.016546e+02
  -6.226880e+01   2.015448e+01
  -1.653951e+02  -4.445224e+01
  -1.134007e+02  -9.196539e+01
  -1.862189e+01  -1.092907e+02
   5.743352e+01  -1.769619e+01
   1.124777e+02  -1.336864e+01
  -1.936629e+01  -8.672455e+00
   7.451140e+00   8.039544e+00
  -1.047423e+01   1.893916e+01
   2.796442e+01   2.286007e+01
   1.941777e+01   3.361543e+01
  -4.762435e+01   1.308794e+01
  -8.215440e+01  -3.696663e+01
  -2.696364e+01  -1.356244e+02
   8.381421e+01  -1.173130e+02
   1.682435e+02  -3.279255e+01
   1.587012e+02   4.442333e+01
   1.214687e+01   1.334835e+02
  -1.114249e+02   1.359551e+02
  -1.648823e+02   6.154784e+01
  -7.549962e+01   4.921573e+00
  -2.773027e+00  -5.227839e+01
   3.922859e+01  -2.045918e+01
   1.433691e+00  -3.439468e+01
  -4.374423e+01  -3.627557e+01
  -2.052913e+01  -9.844974e+01
   5.968436e+01  -6.512758e+01
   7.354181e+01   3.555140e-01
   5.682790e+01   1.085767e+02
  -1.969940e+01   1.166318e+02
  -5.967059e+01   2.890076e+01
  -6.468268e+01  -4.027792e+01
  -3.438945e+01  -4.825299e+01
   4.653117e+01  -4.626278e+01
   9.408221e+01   2.636086e+01
   1.067887e+01   6.371473e+01
  -3.071764e+01   6.485864e+01
  -1.852098e+01   2.499342e+01
   2.012542e+01  -3.913472e+00
   1.638104e+01   3.216013e+01
  -1.826748e+01   1.782621e+01
  -8.909325e+01  -5.096497e+00
  -8.128249e+01  -2.678254e+00
  -4.041433e+01  -1.276399e+01
   2.220771e+01  -7.624999e+01
   6.451447e+01  -8.435072e+01
  -2.544517e+00  -1.388123e+01
  -3.529050e+01   6.122766e+01
  -8.272558e+01   4.991698e+01
  -5.782700e+01  -6.766921e+00
  -4.212157e+01  -4.547083e+01
   9.379131e+00  -2.366695e+01
   2.663658e+01   2.991310e+01
  -1.387834e+00   2.672585e+01
   4.553665e+01   1.618588e+01
   1.705027e+01  -5.290520e+01
   3.905456e+01  -5.174917e+01
  -1.807896e+01   2.591082e+01
  -1.079411e+01   5.952794e+01
  -3.506220e+01   1.857312e+01
  -2.928142e+01   4.849219e+00
  -5.042034e+01  -6.336075e+01
   3.416279e+01   3.073749e+01
   3.527868e+01   5.181513e+01
   2.091407e+01   5.836362e+01
  -4.051538e+01   4.929597e+01
  -7.895895e+01  -2.022305e+01
  -4.899206e+01  -8.987538e+01
   3.192767e+01  -6.456663e+01
   3.493648e+01  -7.674989e+01
   1.961740e+01   7.124548e+00
  -3.023499e+01  -3.977950e+01
  -1.948048e+01  -1.494993e+01
   8.291585e+00  -4.131221e+01
   2.825881e+01  -2.439674e+01
