
 $NMID
 id='ANONYMOUS ', fmtdat='(2E16.6)'
 volume=1.0
 tramp=1.0
 $END
   3.533736e+03  -3.481704e+02
   2.262782e+03   1.930992e+03
  -3.942688e+02   2.270039e+03
  -1.666088e+03   9.214919e+02
  -1.097440e+03  -3.940193e+02
   1.923887e+02  -2.783562e+02
   5.844969e+02   3.388326e+02
   1.417295e+02   7.066651e+02
  -4.814873e+02   6.761641e+02
  -7.387505e+02  -5.614274e+01
  -6.208896e+02  -6.982344e+02
   1.275710e+02  -6.962931e+02
   5.242955e+02  -2.294194e+02
   3.253204e+02   4.139182e+02
  -8.766231e+01   7.088645e+02
  -3.770758e+02   7.274805e+01
  -1.567825e+02  -7.257670e+02
   3.984706e+01  -4.082665e+02
   6.025910e+02  -4.769550e+01
   4.836348e+02   1.873282e+02
   2.052428e+02   3.127570e+02
  -2.132027e+02   3.005222e+02
  -2.849690e+02   1.660686e+02
   3.513571e+01  -8.016216e+01
   4.697028e+02   1.135703e+02
   7.771368e+01   4.189094e+02
  -4.141626e+02   3.302459e+02
  -6.567851e+02  -1.775347e+02
  -2.384632e+02  -3.802628e+02
   2.886989e+02  -3.794021e+02
   5.427435e+02   5.426720e+01
   2.667563e+02   4.171143e+02
  -1.694781e+02   5.606293e+02
  -4.024049e+02   2.342137e+02
  -3.920684e+02  -1.165324e+02
  -1.536884e+02  -4.250996e+02
   6.997019e+01  -2.441372e+02
   1.875358e+02   1.483018e+02
  -1.323496e+02   3.468176e+02
  -3.425095e+02   3.393123e+01
  -2.531741e+02  -5.046354e+02
   2.557221e+02  -6.078396e+02
   5.163526e+02  -3.833119e+01
   2.276589e+02   4.751635e+02
  -3.024947e+02   2.492290e+02
  -3.358782e+02  -3.227104e+02
   7.329722e+01  -4.935822e+02
   5.554661e+02  -6.692509e+01
   5.543087e+02   3.951079e+02
   1.246588e+02   5.269384e+02
  -3.763061e+02   3.181218e+02
  -5.631809e+02  -3.324268e+01
  -3.775531e+02  -2.748785e+02
   1.151456e+02  -2.889978e+02
   3.635338e+02  -5.940615e+01
   2.428891e+02   1.019671e+02
  -4.588372e+01   3.986623e+01
  -9.669931e+01  -7.385084e+01
   8.493290e+01  -8.712505e+01
   2.745220e+02   4.014527e+01
   1.567168e+02   2.571731e+02
  -1.448926e+02   2.624940e+02
  -3.193291e+02   1.282599e+02
  -2.234473e+02  -1.216411e+02
  -7.453834e+00  -2.862088e+02
   2.309732e+02  -3.340620e+02
   3.512283e+02  -1.271691e+02
   2.699390e+02   1.967398e+02
   7.210793e+01   3.940154e+02
  -8.883520e+01   3.465811e+02
  -9.259876e+01   1.548528e+02
  -4.670157e+01   8.737606e+01
  -1.306504e+02   7.696061e+01
  -2.307898e+02   7.687778e+01
  -3.132112e+02  -1.028135e+02
  -1.225251e+02  -2.937258e+02
   1.098081e+02  -2.423677e+02
   2.653331e+02  -4.012152e+01
   1.866736e+02   2.018975e+02
  -2.231401e-02   2.793890e+02
  -2.743594e+02   1.395492e+02
  -3.292921e+02  -1.432673e+02
  -1.658252e+02  -3.212778e+02
   8.751265e+01  -3.114523e+02
   2.156067e+02  -1.351402e+02
   1.716258e+02  -3.488864e+01
   1.166340e+02  -2.066907e+01
   2.200370e+02  -2.929647e+01
   3.319113e+02   5.563818e+01
   3.010016e+02   2.511507e+02
   4.861718e+01   4.234145e+02
  -2.697964e+02   4.109983e+02
  -4.449960e+02   1.838523e+02
  -3.208322e+02  -8.345027e+01
  -9.086912e+01  -2.499319e+02
   9.441794e+01  -1.939597e+02
   5.664137e+01  -2.227286e+01
  -8.908595e+01   5.499481e+01
  -1.572060e+02  -4.998978e+01
  -6.412593e+01  -1.847436e+02
   1.622318e+02  -1.652582e+02
   1.778468e+02   2.823674e+01
   3.982956e+01   1.640096e+02
  -1.732352e+02   4.026953e+01
  -1.421577e+02  -2.097804e+02
   2.175290e+01  -3.212293e+02
   2.667175e+02  -1.959937e+02
   3.506502e+02   1.108586e+02
   2.374980e+02   3.086094e+02
   2.666725e+01   2.813473e+02
  -1.612018e+02   1.315444e+02
  -1.705022e+02   1.718494e+01
  -4.814160e+01  -3.203766e+01
   6.389162e+01   6.283199e+01
   5.238630e+00   1.404708e+02
  -9.114512e+01   8.491925e+01
  -1.325073e+02  -4.412355e+01
  -2.101968e+01  -5.261486e+01
   6.472029e+01   4.173646e+01
   7.735786e+01   1.001464e+02
  -1.017291e+02   1.234935e+02
  -3.049547e+02   1.876939e+00
  -2.637953e+02  -1.846085e+02
  -2.181159e+01  -2.899293e+02
   2.150957e+02  -2.237911e+02
   3.472261e+02  -7.418061e+01
   2.038603e+02   9.937090e+01
  -1.914044e+01   9.480904e+01
  -1.202077e+02  -2.007938e+00
  -2.013884e+00  -8.934765e+01
   1.761182e+02  -4.146179e+01
   2.445752e+02   1.368328e+02
   7.495689e+01   2.223619e+02
  -9.734278e+01   2.015586e+02
  -1.718278e+02   1.928282e+01
  -6.753170e+01  -6.579199e+01
   4.721409e+01   1.352934e+01
   5.720589e+00   6.810023e+01
  -1.064681e+02   1.203575e+02
  -2.337501e+02   3.663427e+01
  -1.793086e+02  -1.073267e+02
  -4.040429e+01  -2.169015e+02
   1.381198e+02  -2.026372e+02
   1.497638e+02  -2.359369e+01
   6.396348e+01   8.865685e+01
  -5.762000e+01   1.005126e+02
  -6.794645e+01  -3.958630e+00
   2.145794e+01  -8.031397e+01
   7.993009e+01   2.107418e+01
   3.136888e+01   6.511106e+01
  -1.469472e+02   3.633537e+01
  -8.250414e+01  -4.421873e+01
  -7.790585e+00  -1.118265e+02
   8.304635e+01  -9.161661e+01
   2.573093e+02  -2.543658e+01
   1.856145e+02   1.437030e+02
   4.125698e+01   2.307707e+02
  -6.413436e+01   1.949316e+02
  -1.436807e+02   5.882840e+01
  -1.279975e+02  -3.359208e+01
  -7.954336e+01  -4.592149e+01
  -3.941382e+01  -1.536918e+01
  -6.731483e+01   1.801456e+01
  -6.182507e+01  -4.924116e+01
   8.099140e+01  -1.335920e+02
   1.567134e+02  -7.340052e+01
   1.038930e+02   5.214455e+01
   7.327317e+00   1.121718e+02
  -1.703018e+02   9.269969e+01
  -1.791415e+02  -4.445093e+01
  -1.037120e+02  -2.480672e+02
   1.403575e+02  -2.327374e+02
   3.147544e+02  -8.562126e+01
   2.260752e+02   1.039987e+02
   1.103491e+02   1.913209e+02
  -2.224602e+01   1.565341e+02
  -1.041222e+02   9.053307e+01
  -7.957353e+01   3.857572e+01
  -3.554886e+01   6.516466e+01
  -8.854823e+01   3.311387e+01
  -1.255601e+02  -5.313268e+01
  -1.188953e+02  -1.407662e+02
   3.305023e+00  -2.158052e+02
   1.111054e+02  -1.656926e+02
   2.012155e+02  -1.900475e+01
   1.759998e+02   1.179329e+02
  -1.922782e+01   1.582051e+02
  -6.388319e+01   4.045773e+01
  -5.161519e+01   1.271393e+01
   5.154303e+01   5.598933e+00
   3.168273e+01  -5.285369e+01
  -3.452719e+01  -3.437150e+01
  -7.198373e+01  -3.731764e+01
  -6.440519e+01  -1.740205e+01
   4.520246e+01  -1.728357e+01
   1.869015e+02   2.217966e+01
   1.500670e+02   8.380083e+01
   2.478795e+01   1.031723e+02
  -1.052244e+02   8.024237e+01
  -1.696110e+02   8.950764e+00
  -9.215649e+01  -5.927812e+01
   4.808638e+01  -2.840147e+01
   8.043381e+01   2.228536e+01
   1.952126e+01   3.689489e+01
  -3.820908e+01   5.666775e+01
  -6.998238e+01   2.567102e+01
  -6.161025e+01  -5.116056e+01
   4.496050e+00  -2.721479e+01
  -2.140961e+01   1.497501e+00
  -3.886784e+01  -5.522959e+01
  -2.905138e+01  -6.523736e+01
   1.197725e+01  -1.441625e+02
   1.240391e+02  -1.470144e+02
   2.029481e+02  -5.547824e+01
   1.830439e+02   8.120381e+01
  -2.065711e+01   1.758586e+02
  -1.124245e+02   6.234823e+01
  -1.461297e+01   7.248294e+00
   1.137190e+02  -2.059616e+01
   1.219711e+02   1.299299e+01
   6.007022e+01   1.028484e+02
  -1.009433e+02   6.100245e+01
  -2.029541e+02   6.213025e+01
  -1.515185e+02  -1.710924e+01
  -5.058409e+01  -8.237519e+01
   1.696923e+01  -5.464656e+01
   6.023787e+01  -1.567551e+01
  -2.297733e+01   1.296771e+01
  -1.129279e+02  -8.813007e+01
  -5.488999e+01  -1.217402e+02
   3.345326e+01  -1.588905e+02
   1.659931e+02  -7.089105e+01
   1.380806e+02   9.511505e+01
   9.708399e+00   1.572372e+02
  -6.653793e+01   1.310615e+02
  -9.642772e+01  -5.756819e+00
  -6.734037e+01  -1.206694e+02
   4.178207e+01  -5.671071e+01
   8.016238e+01  -3.901170e+01
   5.786566e+01   3.134591e+00
   3.106049e+01   2.989295e+01
   2.873396e+01   2.745140e+01
   7.437083e+01   4.593753e+01
   8.427245e+01   7.003241e+01
   9.963817e+00   1.341687e+02
  -6.676023e+01   7.026308e+01
  -1.444888e+02   1.023489e+00
  -7.180778e+01  -8.759817e+01
  -9.574450e+00  -5.304452e+01
   9.839543e+01  -2.588230e+01
   5.361906e+01  -5.477947e+01
  -2.854983e+00   2.584581e+01
   2.292556e+00  -2.382182e+01
   2.058488e+01   4.501038e+00
   6.195665e+01  -9.814039e+00
   1.974449e+01   3.925770e+01
  -8.987682e+01  -4.947125e+00
  -1.006841e+02  -3.768927e+01
  -1.106663e+01  -9.185679e+01
   1.076387e+02  -1.801419e+02
   2.160452e+02  -8.316427e+01
   1.376634e+02   9.288757e+01
   1.862638e+01   1.583033e+02
  -1.000211e+02   1.664707e+02
  -1.334559e+02   7.831136e+01
  -1.029743e+02  -9.800832e+00
  -1.216912e+01  -5.324819e+01
   2.232332e+00  -2.013553e+01
  -5.013837e+01  -2.429164e+01
  -1.466842e+01  -6.301954e+01
   1.115849e+01  -1.017849e+02
   7.390425e+01  -3.832935e+01
   8.453327e+01  -4.729596e+00
   4.583612e+01   7.640932e+01
   4.918046e+01   1.080193e+02
  -4.826320e+01   7.163521e+01
  -9.398306e+01  -4.281420e+01
  -2.063890e+01  -9.067335e+01
   5.908560e+01  -7.176356e+01
   8.247011e+01   1.455256e+01
   3.574462e+01   4.320881e+01
  -4.156193e+01   5.074599e+01
  -4.720926e+01   4.836320e+01
   3.182409e+01  -1.512945e-01
   9.073662e+01  -8.156632e+00
   2.888696e+01   8.771149e+01
  -8.516952e+01   7.889066e+01
  -7.316988e+01   7.861422e+01
  -8.278223e+01  -3.106632e+01
   4.029341e+00  -5.699812e+01
   4.735072e+01  -6.374143e+01
   6.746105e+01   2.546503e+01
   5.682348e+00   7.696554e+01
  -5.495343e+01   6.327136e+01
  -4.654714e+01  -1.786637e+01
  -1.347251e+01  -6.615130e+01
   1.337355e+01  -2.705534e+01
   6.986964e+01  -1.957228e+01
   5.615039e+01  -4.733878e+00
   1.588358e+01  -1.132154e+00
   4.554467e+00  -1.906619e+01
   2.048852e+01  -3.821730e+00
   3.083946e+01   2.051185e+01
   2.709633e+01   6.059567e+01
  -1.430839e+01   4.803181e+01
  -2.725146e+01  -3.162627e+01
   1.629314e+01  -2.781850e+01
   4.560793e+01  -7.535502e+01
   7.377510e+01   4.997401e+01
  -1.931930e+00   1.084352e+02
  -9.250528e+01   6.234195e+01
  -8.912221e+01  -1.667474e+01
  -7.035448e+01  -7.703316e+01
   4.376761e+01  -6.939388e+01
   4.637834e+01  -1.682788e+01
   1.802020e+01  -2.723341e+01
  -1.795513e+01  -1.322785e+01
  -8.598531e+01   3.617586e+00
   3.730541e+01  -5.789841e+01
   1.055691e+02  -4.170994e+01
