
 $NMID
 id='ANONYMOUS ', fmtdat='(2E16.6)'
 volume=1.0
 tramp=1.0
 $END
   3.456395e+03   1.538448e+02
   2.226729e+03   1.825907e+03
  -4.899730e+01   2.330349e+03
  -1.527442e+03   1.298106e+03
  -7.225207e+02   1.505671e+02
   2.764694e+02  -1.344208e+02
   5.016281e+02   1.055368e+02
  -5.232329e-02   6.231039e+02
  -4.919073e+02   6.007979e+02
  -7.371390e+02   7.274907e+00
  -4.154760e+02  -5.002380e+02
   8.470603e+01  -6.208913e+02
   3.573548e+02  -5.744264e+01
   4.700947e+02   4.667857e+02
  -1.375740e+02   3.208851e+02
  -4.918364e+02   1.921870e+02
  -2.631755e+02  -3.772857e+02
   2.079374e+02  -5.655040e+02
   5.738335e+02  -1.177491e+02
   5.793620e+02   2.075784e+02
   1.298353e+02   4.017700e+02
  -1.348178e+02   2.428257e+02
  -2.803286e+02   1.450298e+02
   1.744958e+02   4.848181e+01
   2.673278e+02   2.085097e+02
   3.520818e+01   3.575932e+02
  -4.569335e+02   1.032053e+02
  -6.191284e+02  -2.706372e+02
  -3.872665e+02  -4.580822e+02
   3.382142e+02  -3.446300e+02
   6.071441e+02   2.549883e+02
   2.693722e+02   3.199492e+02
  -3.375160e+02   4.745518e+02
  -5.550422e+02   5.357210e+01
  -3.787709e+02  -1.217362e+02
  -1.392955e+02  -3.001739e+02
   1.168940e+02  -1.537334e+02
  -5.261363e+01   1.050920e+02
  -1.769548e+02   1.681099e+02
  -2.546306e+02  -1.419239e+02
   8.020598e+00  -5.388298e+02
   2.951986e+02  -5.591641e+02
   4.452433e+02   6.642526e+00
   1.477402e+02   3.924547e+02
  -1.574806e+02   2.000732e+02
  -2.197592e+02  -2.779779e+02
   8.819796e+01  -4.074687e+02
   4.267372e+02  -1.219957e+02
   4.575714e+02   3.248373e+02
   1.765868e+02   5.175106e+02
  -2.439046e+02   3.176889e+02
  -4.928267e+02  -1.253880e+01
  -3.488219e+02  -2.616048e+02
   4.441772e+01  -2.831902e+02
   3.545439e+02  -7.927611e+01
   2.639980e+02   9.371601e+01
  -4.369144e+00   5.979994e+01
  -8.893199e+01  -1.012888e+02
   9.443696e+01  -1.018783e+02
   2.281992e+02   3.401623e+01
   1.152724e+02   2.030390e+02
  -1.563415e+02   2.176999e+02
  -3.669453e+02   1.112599e+02
  -3.015424e+02  -1.699659e+02
  -5.094139e+00  -3.389270e+02
   3.069979e+02  -3.562661e+02
   3.754768e+02  -1.285010e+02
   3.163201e+02   2.070222e+02
   3.811681e+01   3.931303e+02
  -8.830505e+01   2.910545e+02
  -3.595610e+01   1.188470e+02
  -2.246748e+01   1.023045e+02
  -7.486362e+01   1.064296e+02
  -2.025221e+02   5.306439e+01
  -2.127379e+02  -1.249835e+02
  -8.493344e+01  -2.661335e+02
   8.120770e+01  -1.807990e+02
   1.551111e+02   9.884304e+01
   1.268652e+02   2.869021e+02
  -9.091334e+01   2.760732e+02
  -2.512533e+02   6.012121e+01
  -3.387625e+02  -1.798728e+02
  -1.446878e+02  -3.062607e+02
   8.655985e+01  -2.874246e+02
   2.019085e+02  -1.499403e+02
   1.927361e+02  -7.786431e+01
   1.649123e+02  -4.873802e+01
   2.967183e+02  -1.057292e+01
   3.496324e+02   9.295150e+01
   3.032529e+02   2.949040e+02
  -4.322285e+01   4.023349e+02
  -3.993370e+02   4.014155e+02
  -4.605964e+02   1.440179e+02
  -2.569762e+02  -8.552094e+01
   1.187073e+01  -2.913207e+02
   7.674224e+01  -1.652654e+02
   2.233339e+00  -1.227706e+01
  -1.580393e+02   9.056972e+01
  -1.037733e+02  -1.536349e+01
  -1.783125e+01  -1.213321e+02
   1.056035e+02  -1.159156e+02
   1.084469e+02   8.893651e+01
  -1.672279e+01   1.431371e+02
  -2.100424e+02  -2.507794e+00
  -1.521157e+02  -2.448990e+02
   1.484407e+01  -3.786794e+02
   2.592842e+02  -2.290811e+02
   3.946297e+02   2.000505e+01
   3.039563e+02   2.468489e+02
   6.571495e+01   2.821724e+02
  -1.618960e+02   1.289757e+02
  -1.920341e+02  -1.855893e+01
  -6.879480e+01  -1.966076e+01
   4.013484e+01   1.184223e+02
   4.878958e+00   1.355503e+02
  -7.815093e+01   8.596253e+01
  -8.154307e+01  -6.507125e+01
  -2.087079e+01  -1.030225e+02
   7.549609e+01  -7.710836e+00
   3.473215e+01   1.156487e+02
  -1.452899e+02   9.072895e+01
  -3.071275e+02  -5.501805e+00
  -2.328422e+02  -2.078855e+02
  -1.918623e+01  -2.923882e+02
   2.199697e+02  -2.390535e+02
   2.724471e+02  -8.886930e+01
   1.361317e+02   7.134012e+01
  -4.904981e+01   1.024406e+02
  -7.571870e+01  -9.968164e+00
   9.234312e+01  -9.907260e+01
   2.164485e+02  -2.039972e+01
   2.147474e+02   1.113421e+02
   2.170183e+01   2.079748e+02
  -1.155016e+02   1.607530e+02
  -1.398099e+02  -6.134241e+00
  -1.342095e+01  -9.186522e+01
   8.458768e+01   1.314521e+01
   4.210890e+01   5.237104e+01
  -9.035154e+01   1.267738e+02
  -2.004051e+02   9.108070e+00
  -1.823786e+02  -1.042833e+02
  -3.685230e+01  -1.710562e+02
   1.605756e+02  -1.115948e+02
   1.870131e+02   3.728932e+00
   5.149818e+01   1.012967e+02
  -1.068707e+02   9.958590e+01
  -5.515387e+01   3.417928e+01
  -1.529297e+01  -6.336941e+01
   4.782977e+01   7.267715e+00
  -9.796807e+00   2.674897e+01
  -9.836249e+01   1.402930e+00
  -8.729534e+01  -8.403812e+01
   3.339949e+01  -1.976867e+02
   1.263398e+02  -1.615117e+02
   2.425829e+02  -1.948382e+01
   1.518111e+02   1.580114e+02
  -2.054205e+01   2.497872e+02
  -1.227273e+02   1.784932e+02
  -1.125656e+02   3.137909e+00
  -8.918678e+01  -5.563377e+01
  -5.472216e+01  -6.266353e+01
  -4.648458e+01   2.123565e+01
  -9.994239e+01   3.528689e+01
  -3.606760e+01  -2.503779e+01
   2.083772e+01  -8.547058e+01
   9.517199e+01  -9.471066e+01
   5.617070e+01   1.606565e+01
  -5.274896e+01   1.072992e+02
  -1.816359e+02   1.035159e+02
  -2.085553e+02  -4.589005e+01
  -7.903469e+01  -2.015823e+02
   1.271933e+02  -2.163805e+02
   2.351450e+02  -8.936743e+01
   2.453839e+02   4.939102e+01
   1.111747e+02   1.574917e+02
  -2.737883e+01   1.087039e+02
  -1.022429e+02   4.586113e+01
  -6.162821e+01   8.124016e+01
  -5.977277e+01   1.168655e+02
  -1.149648e+02   1.013366e+02
  -1.105395e+02  -9.621822e-02
  -1.460731e+02  -1.495753e+02
  -1.626590e+01  -2.060987e+02
   7.754399e+01  -1.577759e+02
   1.753281e+02  -2.164073e+01
   1.110128e+02   1.324412e+02
  -2.875149e+01   1.108583e+02
  -9.289850e+01   7.646266e+01
  -8.219141e+01   8.725095e-01
   1.152315e+01  -1.314487e+01
   2.882940e+01  -2.732170e+01
  -6.810925e+01   6.694973e+00
  -7.933168e+01  -5.739243e+01
  -5.025298e+01  -7.461544e+01
   7.262947e+01  -5.191440e+01
   2.101204e+02  -2.386205e+01
   1.548770e+02   5.914427e+01
   1.903814e+01   8.277191e+01
  -1.325752e+02   6.354556e+01
  -1.364068e+02   1.598315e+01
  -2.757574e+01  -5.342652e+01
   5.586656e+01  -5.798590e+01
   7.276181e+01   2.188861e+01
   2.387886e+01   3.182724e+01
  -8.187705e+01   7.913624e+01
  -6.762570e+01  -3.145899e+01
  -3.065719e+01  -2.301376e+01
  -2.798376e+00  -9.266248e+00
  -3.488455e+01  -2.212230e+01
  -5.927813e+01  -2.640901e+01
  -5.513990e+01  -6.678593e+01
  -2.359945e+01  -1.362725e+02
   1.181882e+02  -8.478727e+01
   1.660807e+02  -4.437625e+01
   1.230205e+02   8.627382e+01
  -2.162505e+01   1.534851e+02
  -9.549937e+01   6.447830e+01
  -7.327707e+01   5.204040e+00
   6.056678e+01  -8.922341e+01
   1.270037e+02  -6.427876e+00
   7.183685e+01   9.425455e+01
  -9.885588e+01   1.340846e+02
  -1.733315e+02   2.301043e+01
  -1.398718e+02  -3.364462e+01
  -2.002683e+01  -7.712771e+01
   1.281120e+02  -8.239132e+01
   5.832048e+01   4.057243e+01
  -2.843473e+01   5.041173e+01
  -1.189902e+02  -6.960170e+00
  -6.432527e+01  -1.295239e+02
   7.399653e+01  -1.510135e+02
   1.490205e+02  -7.038749e+01
   9.413376e+01   9.361333e+01
   1.691137e+01   2.170087e+02
  -9.478292e+01   1.350012e+02
  -1.062175e+02  -2.907227e+01
  -8.516573e+01  -1.332668e+02
   9.449312e+00  -1.205615e+02
   6.875209e+01   4.483801e+00
   5.685217e+01   2.482088e+01
   3.172244e+01  -2.189712e+01
   2.292709e+01  -2.745525e+01
   3.636477e+01   2.947539e+01
   2.446053e+01   6.212510e+01
   5.480541e+01   1.304470e+02
  -3.849352e+01   4.336818e+01
  -9.718878e+01  -4.103486e+01
  -1.443045e+02  -6.001816e+01
  -3.082138e+01  -4.823076e+01
   6.153081e+01  -1.338937e+01
   2.927804e+01  -1.737030e+01
  -2.556094e+01  -4.568742e+00
  -1.085787e+01  -2.215955e+01
   1.841516e+00  -2.509919e+00
   3.077297e+01   3.156362e+00
   2.055008e+01   1.740360e+01
  -6.802884e+01  -5.878995e+01
  -8.010268e+01  -2.095493e+01
  -1.911072e+01  -1.089483e+02
   9.713693e+01  -1.322638e+02
   1.718511e+02  -2.301316e+01
   1.740594e+02   9.645021e+01
   6.824546e+01   1.387776e+02
  -8.235295e+01   1.594007e+02
  -1.557382e+02   2.301825e+01
  -8.705772e+01  -1.424608e+01
  -7.069480e+01  -1.671606e+01
  -1.065220e+01   3.749228e+00
  -8.123688e+00  -2.895507e+00
  -7.373535e+01  -6.134289e+01
  -4.903070e+01  -7.705827e+01
   3.248236e+01  -6.451591e+01
   8.411337e+01   1.239487e+01
   6.195611e+01   6.074218e+01
   1.688669e+00   6.601925e+01
  -7.861707e+01   7.234808e+00
  -8.938813e+01  -6.635005e+01
  -4.094563e+01  -1.093900e+02
   9.357538e+01  -8.851432e+01
   8.630661e+01   1.941138e+01
   5.625585e+01   2.834405e+01
  -5.338220e+01   7.959585e+01
  -2.916660e+01   1.590526e+01
   3.197631e+01   1.055775e+01
   6.594873e+01  -1.005934e+01
   4.115589e+01   2.648326e+01
  -5.443096e+01   7.329627e+01
  -1.312383e+02   7.738613e+01
  -9.153787e+01  -1.753841e+01
   9.657943e+00  -9.533283e+01
   4.876841e+01  -8.183953e+01
   1.198504e+02  -4.242243e+01
   2.706720e+01   6.192851e-01
  -3.587676e+01   1.415203e+01
  -1.990012e+01   8.548890e+00
  -3.019715e+00  -4.021999e+01
   3.089685e+01  -6.685105e+00
   5.648377e+01   6.369024e+00
   4.682599e+01   7.935596e+01
  -2.293625e+01   8.136778e+00
  -5.282188e+00   1.518142e+01
  -6.374021e+00   5.396897e+00
   3.527477e+00   2.928901e+01
  -2.784173e+01   8.030665e+01
  -3.618188e+01   4.479505e+01
  -1.066136e+02  -4.816067e+01
   5.514528e+00  -4.721266e+01
   5.185400e+01  -2.932990e+01
   7.531048e+01   2.712270e+01
  -2.187117e+00   7.174089e+01
  -5.175417e+01   3.469396e+01
  -9.451961e+01  -4.211004e+01
  -8.472640e+01  -1.021538e+02
   3.632850e+01  -3.320218e+01
   6.675897e+01  -2.429011e+01
   2.930092e+01   2.418081e+01
  -3.939453e+01   1.333637e+01
  -4.463767e+01   3.058297e+01
   2.333278e+01  -3.187391e+01
   8.047301e+01  -2.498826e+00
