
 $NMID
 id='ANONYMOUS ', fmtdat='(2E16.6)'
 volume=1.0
 tramp=1.0
 $END
   4.019445e+03  -1.558440e+02
   2.663340e+03   2.644168e+03
  -7.117711e+02   2.718522e+03
  -2.144543e+03   1.038811e+03
  -9.550972e+02  -7.529706e+02
   8.247469e+02  -5.442349e+02
   9.382083e+02   3.395533e+02
  -5.093160e+00   1.094129e+03
  -7.450873e+02   8.020868e+02
  -1.018920e+03  -8.968922e+01
  -5.280657e+02  -8.505269e+02
   2.089605e+02  -8.441096e+02
   7.148645e+02  -6.401916e+01
   3.296480e+02   7.607743e+02
  -3.756141e+02   9.251666e+02
  -7.600299e+02   8.171228e+01
  -2.407064e+02  -6.590782e+02
   4.502693e+02  -6.016974e+02
   6.952815e+02   7.330105e+00
   3.147617e+02   2.265398e+02
  -1.728167e+00   3.715036e+02
  -3.513367e+02   2.663024e+02
  -2.670466e+02   9.791703e+01
   5.688243e+01  -6.839093e+01
   6.333920e+02   1.498341e+02
   2.631904e+02   4.163444e+02
  -5.987779e+02   5.329331e+02
  -8.564382e+02   5.777202e+01
  -4.191836e+02  -6.436898e+02
   3.982490e+02  -5.851554e+02
   8.172038e+02   2.226319e+01
   2.922027e+02   4.299995e+02
  -3.054202e+02   5.568056e+02
  -5.005287e+02   2.171965e+02
  -4.623211e+02  -2.770272e+02
  -7.219372e+01  -4.893307e+02
   2.828815e+02  -2.903743e+02
   1.710329e+02   3.338797e+02
  -1.877198e+02   4.825539e+02
  -4.184495e+02  -7.929534e+01
  -3.312180e+02  -7.455088e+02
   3.156167e+02  -7.521783e+02
   6.186742e+02   2.169272e+01
   2.799358e+02   6.164124e+02
  -3.081913e+02   4.161175e+02
  -3.798122e+02  -3.380072e+02
   5.395701e+01  -5.715202e+02
   5.314727e+02  -2.264332e+02
   5.498622e+02   3.731508e+02
   1.378770e+02   6.298376e+02
  -4.249735e+02   4.411777e+02
  -6.629165e+02  -8.952835e+01
  -4.031788e+02  -4.851131e+02
   1.844398e+02  -4.743071e+02
   4.791721e+02  -9.218898e+01
   2.647978e+02   2.313916e+02
  -1.330147e+02   1.439844e+02
  -1.386848e+02  -1.623511e+02
   1.871482e+02  -2.033313e+02
   3.529982e+02   9.286893e+01
   1.309314e+02   3.343508e+02
  -2.279826e+02   2.674345e+02
  -3.293020e+02   4.291586e+01
  -1.730327e+02  -1.173516e+02
   2.237008e+01  -2.138100e+02
   1.890475e+02  -2.891113e+02
   3.340389e+02  -1.997046e+02
   3.031475e+02   1.332590e+02
   1.151420e+02   4.192322e+02
  -1.204526e+02   3.821937e+02
  -1.572349e+02   1.007744e+02
  -7.315102e+01  -4.433210e+01
  -3.139172e+01   7.931615e+01
  -1.974476e+02   1.401379e+02
  -2.759728e+02  -6.221288e+01
  -1.281934e+02  -3.238434e+02
   1.004286e+02  -2.687238e+02
   2.214511e+02   1.161458e+01
   1.914775e+02   2.535200e+02
  -2.447558e+01   2.957959e+02
  -2.846118e+02   1.033480e+02
  -3.380177e+02  -1.808475e+02
  -1.648301e+02  -3.577078e+02
   1.231544e+02  -3.254294e+02
   2.468667e+02  -1.548582e+02
   1.304755e+02  -8.150913e+00
   6.653228e+01  -5.393533e+00
   2.204944e+02  -2.892803e+01
   4.189902e+02   4.588321e+01
   3.558696e+02   2.726745e+02
   1.698171e+01   4.795850e+02
  -3.391824e+02   4.381976e+02
  -5.171438e+02   2.034346e+02
  -3.542006e+02  -1.119370e+02
  -7.150390e+01  -3.214601e+02
   1.093268e+02  -2.343992e+02
   8.901665e+01  -4.977114e+00
  -9.679848e+01   1.365057e+02
  -2.254981e+02   2.027865e+01
  -4.902567e+01  -1.869707e+02
   1.825123e+02  -1.890856e+02
   2.015975e+02   4.952962e+01
   1.207603e+01   2.117263e+02
  -1.885850e+02   6.528171e+01
  -1.922057e+02  -2.102118e+02
   1.751756e+01  -3.500830e+02
   2.722820e+02  -2.251320e+02
   3.256080e+02   4.871791e+01
   2.802274e+02   2.603411e+02
   6.332267e+01   2.668353e+02
  -1.298178e+02   1.386945e+02
  -1.811124e+02   1.353536e+01
  -3.724462e+01  -9.300349e+00
   9.575337e+01   3.830282e+01
   2.351818e+01   1.009248e+02
  -1.133491e+02   8.653729e+01
  -2.029752e+02  -3.006800e+01
  -6.486320e+01  -6.336874e+01
   9.683865e+01  -3.059953e+01
   7.634581e+01   2.753878e+01
  -8.589385e+01   5.340569e+01
  -2.535705e+02   2.569129e+01
  -2.776121e+02  -9.234556e+01
  -8.785178e+01  -2.098504e+02
   1.756431e+02  -1.921357e+02
   2.843578e+02  -1.029043e+02
   1.938594e+02   6.684443e+01
  -4.753775e+01   1.081636e+02
  -1.334520e+02  -3.040838e+01
   1.388563e+01  -1.219748e+02
   1.634524e+02  -4.377245e+01
   2.263074e+02   6.828574e+01
   6.497612e+01   2.193918e+02
  -1.147894e+02   1.713295e+02
  -1.940958e+02   1.277035e+01
  -6.069846e+01  -6.174472e+01
   1.643955e+01  -3.569815e+01
   6.292378e+01   8.121300e+01
  -4.921621e+01   1.140867e+02
  -2.020300e+02   4.399527e+01
  -2.020061e+02  -1.284699e+02
  -2.417295e+01  -2.443443e+02
   1.629995e+02  -1.955079e+02
   1.969523e+02   5.847671e+00
   6.266449e+01   1.469459e+02
  -9.702364e+01   1.542028e+02
  -8.658100e+01   5.730038e+01
  -6.035119e+00  -1.646265e+01
   5.701029e+01  -8.975253e+00
   1.059664e+01   2.851740e+00
  -7.690666e+01  -1.440329e+01
  -6.300845e+01  -8.191594e+01
  -1.493164e+01  -1.449901e+02
   1.446818e+02  -8.909999e+01
   2.083625e+02  -4.050791e+00
   2.067491e+02   1.637062e+02
   9.472984e+01   2.130207e+02
  -1.101172e+02   1.503750e+02
  -1.652017e+02   1.921616e+01
  -1.105074e+02  -4.927522e+01
  -3.044574e+01  -1.984263e+01
  -9.918947e+00   9.254711e+00
  -1.901185e+01  -2.819934e+01
  -4.197269e+00  -6.908314e+01
   7.350493e+01  -1.219062e+02
   5.703664e+01  -5.750622e+00
   7.631530e+01   6.619625e+01
  -2.812371e+01   1.378221e+02
  -1.241039e+02   8.459508e+01
  -1.880587e+02  -4.368420e+01
  -1.277642e+02  -1.413759e+02
   1.194226e+02  -2.220650e+02
   2.920642e+02  -3.925877e+01
   2.699900e+02   8.517698e+01
   1.060547e+02   1.410671e+02
  -5.845857e+01   1.603975e+02
  -1.478183e+02   1.070451e+02
  -8.817619e+01   1.119106e+02
  -6.148998e+01   9.269684e+01
  -1.242653e+02   2.721761e+01
  -1.142672e+02  -1.593448e+01
  -1.688394e+02  -1.338697e+02
  -4.814168e+01  -2.519013e+02
   1.270367e+02  -1.827573e+02
   2.200265e+02  -7.445356e+01
   1.671302e+02   9.282105e+01
   2.699021e+01   1.814325e+02
  -5.524822e+01   1.048173e+02
  -5.479863e+01   2.841261e+01
  -2.252570e+01  -6.658919e+00
  -4.952619e+00   3.774228e+01
  -5.525294e+01  -1.986688e+00
  -1.012644e+02  -3.519549e+01
  -5.607545e+01  -2.941227e+01
   6.093558e+01  -5.126291e+01
   1.791520e+02  -2.906819e+01
   1.540997e+02   6.130250e+01
   8.212108e+00   8.504342e+01
  -1.078141e+02   3.174401e+01
  -1.669276e+02   5.051842e+00
  -4.457995e+01  -6.577119e+01
   6.258636e+01  -4.469682e+01
   6.156395e+01   3.602458e+00
  -4.330928e+00   7.578100e+01
  -2.768747e+01   6.383000e+01
  -6.548645e+01  -1.701164e+01
  -6.950408e+01  -5.133037e+01
  -4.259603e+01  -2.971077e+01
  -6.185682e+01   2.542148e+01
  -7.260798e+01   1.966480e+01
  -1.839326e+01  -7.629762e+01
   7.024740e+01  -1.626174e+02
   1.292043e+02  -8.481102e+01
   1.155771e+02   1.881587e+01
   9.749238e+01   1.470453e+02
   1.685868e+01   1.264786e+02
  -9.319966e+01   4.166561e+01
  -3.056853e+01  -9.414120e+00
   7.154155e+01  -1.417830e+01
   1.530320e+02   7.307496e+01
   9.465736e+01   1.168082e+02
  -8.742985e+01   1.142359e+02
  -2.123686e+02   1.177040e+01
  -1.714284e+02  -8.288623e+01
   1.104258e+01  -9.569767e+01
   6.896182e+01  -1.131650e+02
   8.690668e+01  -7.696520e+00
  -1.956470e+01   1.455587e+01
  -9.965053e+01  -5.342676e+01
  -5.240765e+00  -1.261823e+02
   1.296916e+02  -1.504675e+02
   1.745175e+02  -7.893370e+01
   1.432061e+02   7.981907e+01
   3.859952e+01   2.418837e+02
  -1.048664e+02   1.448515e+02
  -1.195296e+02   2.970934e+01
  -5.769059e+01  -8.815573e+01
   3.299864e+01  -1.061192e+02
   5.492692e+01  -5.536528e+00
   4.718068e+01   4.126750e+01
   3.059849e+01  -1.934426e-01
  -2.042088e+01  -1.861053e+01
  -2.160502e+01   2.709398e+01
   4.738026e+00   1.013208e+02
   1.565376e+01   8.584744e+01
  -3.317525e+01   5.090949e+01
  -1.141561e+02  -1.241146e+01
  -1.230174e+02  -1.097784e+02
  -4.926527e+01  -9.077105e+01
   7.076646e+01  -2.387441e+00
   9.713163e+01   1.490660e+01
  -1.335542e+01   8.323464e+00
  -8.637234e+01  -3.932132e+01
   2.164399e+01  -1.724519e+01
   7.596382e+01   1.987686e+01
   2.865722e+01  -8.647030e+00
  -5.123811e+01   3.546549e+01
  -1.006874e+02  -1.337287e+01
  -1.681744e+01  -6.655661e+01
   8.899362e+01  -5.669520e+01
   2.287490e+02  -2.806437e+01
   1.733511e+02   4.443601e+01
   1.293722e+01   1.847497e+02
  -8.447227e+01   1.715922e+02
  -1.337571e+02   9.566926e+01
  -1.401801e+02  -2.887942e+01
   2.241858e+01  -3.329497e+01
   1.283456e+01   6.146740e+00
  -1.044658e+01   3.272368e+01
   2.445239e+01  -4.857301e+01
  -1.549711e+00  -1.291173e+02
   3.833292e+01  -8.475479e+01
   1.088774e+02   3.356264e+01
   4.695863e+01   1.285309e+02
   1.514696e+01   1.022226e+02
  -7.075220e+01   1.905663e+01
  -1.030129e+02  -9.174270e+01
  -1.215925e+01  -1.111704e+02
   5.485806e+01  -4.854367e+01
   7.611987e+01   3.684644e+01
   2.629647e+01   9.414014e+01
  -5.813583e+01   3.566290e+01
  -4.989669e+01  -3.109518e+00
   2.347048e+01  -1.118128e+01
   9.628437e+01  -3.216799e+01
   7.167465e+01   4.881631e+01
  -8.214260e+01   2.705302e+01
  -6.282593e+01   2.311019e+01
  -6.168703e+01  -1.873716e+01
   8.526837e-01  -5.918062e+01
   8.207752e+01  -5.004256e+01
   3.720944e+01   4.532353e+01
  -1.915475e+01   9.934152e+01
  -2.139547e+01   4.249689e+01
  -7.429234e+01   3.188467e+00
  -5.193572e+01  -5.512191e+01
   5.899367e+00  -3.155039e+01
  -1.241861e+01   1.622525e+01
   1.664852e+01   8.628233e+00
   3.996335e+01   2.455355e+01
   9.512373e+00  -1.802242e+01
  -5.685136e+01   1.508840e+01
   1.960084e+01   7.594577e+01
   3.281078e+01   3.740665e+01
  -2.408674e+01   4.139018e-01
  -1.923706e+01  -2.284087e+01
   1.876018e+01  -2.289683e+01
  -8.443383e+00   1.618239e+01
   3.910004e+01   4.581347e+01
   2.019484e+01   7.760393e+01
  -7.636760e+01   3.438384e+01
  -9.428274e+01  -3.815434e+01
  -4.300465e+01  -2.706763e+01
   3.657652e+01  -5.619286e+01
   7.538734e+01  -3.715692e+01
   2.184063e+01   3.071013e+01
  -1.499194e+01   2.990745e+01
  -3.776169e+01  -9.338442e+00
   1.420623e+01  -1.790236e+00
   1.284449e+02   2.014817e+00
