
 $NMID
 id='ANONYMOUS ', fmtdat='(2E16.6)'
 volume=1.0
 tramp=1.0
 $END
  -4.379838e+03  -4.342893e+01
  -2.465528e+03  -2.682443e+03
   8.170795e+02  -2.852701e+03
   2.383063e+03  -1.047544e+03
   9.763836e+02   7.773380e+02
  -6.262152e+02   6.153216e+02
  -1.128314e+03  -3.708169e+02
  -1.002865e+02  -1.145611e+03
   9.258931e+02  -9.538915e+02
   9.620031e+02  -2.744799e+01
   5.777482e+02   9.513733e+02
  -3.086762e+02   1.161061e+03
  -5.895536e+02   3.011862e+02
  -6.140605e+02  -7.102496e+02
   3.621878e+02  -8.345525e+02
   6.252107e+02   3.594510e+01
   2.794302e+02   6.551598e+02
  -3.587856e+02   6.015041e+02
  -4.827835e+02  -8.371251e+00
  -3.933355e+02  -4.537010e+02
  -8.850668e+01  -4.281230e+02
   5.381536e+02  -1.089021e+02
   1.673514e+02  -8.901706e+01
  -9.137522e+01   1.195877e+01
  -3.724821e+02  -1.065841e+02
  -2.688679e+02  -4.975791e+02
   4.472539e+02  -5.170155e+02
   8.400914e+02   9.878139e+01
   4.588213e+02   4.183973e+02
  -3.484322e+02   4.137907e+02
  -8.755860e+02   1.543396e+01
  -3.103440e+02  -4.842527e+02
   3.094880e+02  -5.024139e+02
   4.600590e+02  -2.582674e+02
   4.559886e+02   3.171076e+02
   6.640246e+01   5.409175e+02
  -1.986013e+02   2.671018e+02
  -1.911644e+02  -2.839486e+02
   1.051202e+02  -4.508934e+02
   4.714605e+02   1.003764e+01
   3.306309e+02   7.314900e+02
  -3.371490e+02   7.459465e+02
  -5.551833e+02  -3.251222e+01
  -2.586295e+02  -5.857042e+02
   2.617749e+02  -3.211185e+02
   3.506569e+02   3.217985e+02
  -1.081164e+02   5.347855e+02
  -5.500167e+02   1.494030e+02
  -5.707667e+02  -3.939307e+02
  -1.456542e+02  -6.109469e+02
   3.601447e+02  -3.642345e+02
   6.723936e+02   3.030006e+01
   3.463598e+02   3.538017e+02
  -1.479646e+02   3.989563e+02
  -4.568703e+02   6.147807e+01
  -2.204185e+02  -2.068665e+02
   1.132230e+02  -1.106879e+02
   1.253831e+02   1.729159e+02
  -1.934398e+02   1.950350e+02
  -3.642687e+02  -3.551070e+01
  -1.271701e+02  -3.291828e+02
   2.487341e+02  -2.476224e+02
   3.325000e+02  -1.003634e+02
   1.767907e+02   4.161337e+01
  -3.538767e+01   1.833948e+02
  -2.484877e+02   2.776559e+02
  -2.709693e+02   2.233564e+02
  -2.715053e+02  -1.172245e+02
  -2.247594e+00  -4.512918e+02
   1.384990e+02  -3.790805e+02
   1.529237e+02  -1.480198e+02
   5.651531e+01   4.197498e+01
   5.746843e+01  -1.055547e+02
   1.856994e+02  -1.183530e+02
   2.638792e+02   6.604337e+01
   1.705323e+02   2.876033e+02
  -4.384518e+01   3.024381e+02
  -2.295982e+02   3.644043e+00
  -1.880881e+02  -2.461017e+02
   3.793211e+00  -2.927362e+02
   2.566928e+02  -1.309599e+02
   3.530179e+02   1.713470e+02
   2.135280e+02   3.406672e+02
  -1.385215e+02   2.798052e+02
  -2.622317e+02   1.317301e+02
  -1.902442e+02  -6.736030e+01
  -1.002604e+02  -1.144583e+01
  -2.115250e+02   2.881200e+01
  -3.318476e+02  -3.273550e+01
  -3.124917e+02  -2.447325e+02
  -1.248042e+01  -4.391523e+02
   3.373060e+02  -4.109475e+02
   5.113104e+02  -1.879533e+02
   3.710333e+02   8.398537e+01
   7.018132e+01   3.559122e+02
  -1.627172e+02   2.178649e+02
  -6.905131e+01   2.860265e+00
   1.004391e+02  -7.370364e+01
   2.458458e+02   3.417364e+01
   9.415177e+01   2.715725e+02
  -1.842692e+02   1.759867e+02
  -1.516735e+02  -6.470622e+01
  -1.290424e+01  -1.621064e+02
   1.865539e+02  -4.370534e+01
   1.279756e+02   3.073339e+02
  -1.086402e+02   3.283781e+02
  -2.653588e+02   1.274589e+02
  -3.496895e+02  -1.203203e+02
  -2.517590e+02  -2.750988e+02
  -8.788617e+01  -2.485887e+02
   1.293711e+02  -1.613219e+02
   2.135225e+02  -5.924092e+01
   6.750892e+01   7.533595e-01
  -3.650837e+01  -4.776134e+01
   2.064848e+01  -1.125978e+02
   1.069144e+02  -1.214157e+02
   1.277605e+02   4.443340e+01
   1.592675e+01   1.134770e+02
  -1.215411e+02   1.748702e+01
  -5.563717e+01  -6.820362e+01
   1.471229e+02  -1.410459e+02
   3.095326e+02  -7.185584e+01
   2.517997e+02   1.423089e+02
   5.075970e+01   2.608504e+02
  -1.751629e+02   2.722308e+02
  -2.319000e+02   1.187566e+02
  -1.426521e+02  -5.285746e+01
   5.953472e+01  -1.120004e+02
   5.035064e+01   2.916185e+00
  -1.666410e+01   1.001335e+02
  -1.779630e+02   5.654391e+01
  -2.020925e+02  -1.333110e+02
  -5.767238e+01  -1.797013e+02
   9.499940e+01  -1.351481e+02
   1.315073e+02  -2.916217e+01
   6.231989e+01   4.408028e+01
  -3.648858e+01   6.887151e+00
  -2.503709e+01  -6.352343e+01
   5.352171e+01  -1.341450e+02
   2.118505e+02  -7.024497e+01
   2.138301e+02   1.033081e+02
   4.713743e+01   2.047291e+02
  -1.161618e+02   1.538988e+02
  -1.387745e+02   2.923898e+01
  -1.156253e+01  -6.812112e+01
   7.263984e+01  -1.120861e+02
   2.283422e+01  -2.616027e+01
   6.220637e+00   3.582471e+01
  -2.526786e+01   1.510669e+01
   1.604798e+01  -4.822975e+01
   6.279303e+01  -1.064426e+01
   7.209570e+01   1.209645e+02
   4.835383e+00   1.435160e+02
  -1.167845e+02   1.145377e+02
  -1.935219e+02   4.784203e+01
  -2.158889e+02  -1.413175e+02
  -8.215380e+01  -2.413129e+02
   1.011885e+02  -1.728988e+02
   1.251407e+02  -7.751840e+01
   9.952310e+01   7.955386e+01
   6.409208e+01   4.990499e+01
   1.005032e+02   2.258781e+00
   7.315621e+01  -2.042364e+01
   3.506649e+01   2.809933e+01
  -7.946570e+01   4.821787e+01
  -1.130342e+02   9.245414e+01
  -9.865934e+01  -3.855489e+01
   1.093951e+01  -1.327762e+02
   1.526532e+02  -1.021433e+02
   2.193634e+02   3.663070e+01
   1.166779e+02   1.917867e+02
  -8.113493e+01   2.484753e+02
  -2.330443e+02   9.063303e+01
  -2.500573e+02  -6.351951e+01
  -1.319489e+02  -1.290461e+02
   3.970944e+01  -1.291028e+02
   1.082326e+02  -7.784059e+01
   4.750396e+01  -4.015403e+01
   5.917439e+01  -9.093760e+01
   6.869012e+01  -6.046087e+01
   8.976120e+01   5.104006e+01
   6.768979e+01   1.453583e+02
   1.679918e+00   1.979457e+02
  -8.247717e+01   1.369939e+02
  -1.746084e+02   2.150655e+00
  -1.221202e+02  -1.693803e+02
  -3.822751e+01  -1.469092e+02
   3.014250e+01  -7.392740e+01
   8.637932e+01   6.709949e+00
   3.094768e+01  -2.406842e+01
  -4.807566e+01   7.990687e+00
   7.074907e+01   4.040020e+01
   1.020187e+02   2.058909e+01
   7.104122e+01   2.497855e+01
  -5.540730e+01   5.409543e+01
  -1.539968e+02   2.999065e+01
  -1.759472e+02  -2.842224e+01
  -1.809623e+01  -5.283370e+01
   1.332603e+02  -5.807945e+01
   1.170600e+02  -3.144776e+01
   3.020927e+01   3.689280e+01
  -9.580313e+01   5.125655e+01
  -6.035243e+01   2.279009e-01
   7.758218e+00  -6.883735e+01
   3.485548e+01  -1.069446e+02
   7.791078e+01  -2.532736e+01
   4.365585e+01   7.073565e+01
   3.896261e+01   9.266583e-01
   6.483775e+01  -4.487014e+01
   4.967308e+01   2.492260e+00
   6.056109e+01   4.006578e+01
   7.713695e+00   1.443601e+02
  -5.072382e+01   1.703953e+02
  -1.900620e+02   4.915106e+01
  -1.403656e+02  -8.015284e+01
  -2.176220e+01  -1.466740e+02
   6.719215e+01  -7.141371e+01
   7.201238e+01   4.025599e+01
  -4.888493e+00   4.014201e+01
  -9.377503e+01  -2.370376e+01
  -8.631210e+01  -7.368254e+01
   7.191095e+01  -1.275843e+02
   1.639567e+02  -5.538435e+01
   1.259836e+02   3.763550e+01
   2.940819e+01   7.675546e+01
  -3.449820e+01   8.420018e+01
  -1.655469e+01  -1.662946e-01
   2.462413e+01   1.692882e+01
   4.771610e+01   3.066822e+01
   2.606721e+01   9.213019e+01
  -1.240620e+02   1.513531e+02
  -1.570132e+02   2.390746e+01
  -9.331453e+01  -1.148782e+02
  -1.819969e+01  -1.974071e+02
   1.018360e+02  -1.476883e+02
   9.394410e+01   4.738230e+00
   6.626628e+01   1.333632e+02
   1.121843e+01   7.998041e+01
  -1.005576e-01   3.969578e+01
  -6.459465e+01  -3.122021e+01
  -3.024738e+01  -9.810614e+00
   6.768698e+00   4.681247e+01
   6.410007e+00  -2.022794e+01
  -3.103906e+01  -1.180141e+02
  -5.416770e+01  -1.210531e+02
   1.206119e+00  -4.512717e+01
   1.890371e+02   6.124555e+01
   1.343677e+02   4.002509e+01
   5.595873e+01   4.274085e+01
  -6.350622e+01   4.523228e+01
  -1.135982e+02   1.503407e+01
  -3.976046e+01   3.290242e+01
   5.189369e+01  -3.265181e-01
   2.059504e+01  -3.972279e+01
  -1.045413e+01  -5.851856e+00
  -2.703839e+01   2.877879e+01
   5.218613e+01  -3.533289e+01
   8.556843e+01   1.847164e+01
   6.551956e+01   3.117601e+01
  -8.367709e+01   1.016691e+02
  -1.775645e+02   9.183133e+01
  -1.056251e+02  -2.554068e+01
  -1.276618e+01  -1.509159e+02
   4.179353e+01  -1.662299e+02
   8.001354e+01  -4.251601e+01
   7.159327e+01   3.295306e+01
   1.086362e+01   5.173982e+01
   1.092009e+01   5.805639e+01
   1.404998e+01  -8.173590e+00
   3.820118e+01  -3.934073e+00
   2.817394e+00   8.728209e+01
  -5.284920e+01   1.001473e+02
  -1.040756e+02  -4.341401e+01
  -8.683776e+01  -7.085264e+01
  -3.840648e+01  -3.729995e+01
   8.961441e+01  -3.253112e+01
   8.767522e+01   5.520075e+01
   4.469411e+01   7.363190e+01
  -7.058252e+01   3.345617e+01
  -1.378184e+02   1.626583e+01
  -5.829330e+01  -5.173034e+01
   4.376437e+01  -3.331810e+01
  -4.132475e+00  -4.704217e+01
  -5.837552e+01  -1.509906e+01
  -7.486156e+01  -3.237258e+01
   3.161086e+00  -5.124024e+01
   9.034041e+01  -7.219202e+01
   1.469481e+02  -8.071642e+01
   5.165824e+01   4.497499e+00
  -1.257242e+01   8.135291e+01
  -6.590457e+01   9.614878e+01
  -2.863518e+01  -4.044273e+00
  -1.616377e+01  -8.301573e+01
   7.243696e+01  -1.431989e+01
   4.352014e+01   7.822845e+00
   3.983998e+01   1.017062e+02
   3.044053e+01   4.728239e+01
  -2.864502e+01   2.687489e-01
  -4.940821e+01  -2.465871e+01
   1.220628e+01  -1.551590e+01
   2.422729e+01   1.015517e+00
   4.080093e+01   1.834282e+01
  -4.506042e+00  -1.589016e+01
  -3.219852e+01  -5.644329e+01
   5.294851e+01  -2.925847e+01
   1.109759e+01   3.297615e+01
  -2.166666e+01   7.121150e+01
  -1.965829e+01   1.685898e+01
  -5.045574e+01  -2.433919e+01
  -2.453592e+01  -4.996569e+01
   5.865695e+01   8.454056e-01
   7.581390e+01   2.225911e+01
   3.516251e+01   1.833208e+01
  -6.523625e+01   1.704854e+01
  -8.046650e+01   4.174231e+01
  -3.440425e+01  -1.660262e+01
   4.689631e+01  -4.621643e+01
   6.944978e+01  -1.744536e+01
  -3.776551e+01   3.067519e+01
  -7.190685e+01   6.094725e+00
