
 $NMID
 id='ANONYMOUS ', fmtdat='(2E16.6)'
 volume=1.0
 tramp=1.0
 $END
  -3.933897e+03   1.474278e+02
  -2.416343e+03  -2.142986e+03
   4.758755e+02  -2.484799e+03
   1.843503e+03  -8.643051e+02
   1.103040e+03   4.566013e+02
  -4.227440e+02   6.799642e+02
  -6.879694e+02  -2.915079e+02
  -1.799843e+02  -9.928049e+02
   7.366261e+02  -7.530593e+02
   9.025804e+02   1.347610e+02
   4.754427e+02   8.043961e+02
  -1.075719e+02   8.546528e+02
  -5.941324e+02   1.706367e+02
  -5.076198e+02  -6.937779e+02
   2.479498e+02  -7.593271e+02
   7.232841e+02  -3.356129e-01
   1.088517e+02   5.617025e+02
  -3.886878e+02   6.907132e+02
  -3.283772e+02   7.515075e+00
  -3.762519e+02  -2.558803e+02
  -6.852200e+01  -3.066277e+02
   2.294238e+02  -1.789196e+02
   3.287253e+01  -1.189979e+01
   1.955627e+01   1.351165e+02
  -5.612016e+02   1.828327e+00
  -1.769154e+02  -3.614149e+02
   5.773066e+02  -5.326042e+02
   7.139943e+02   1.659050e+02
   4.166018e+02   5.424637e+02
  -3.936930e+02   4.300645e+02
  -6.610543e+02   8.238325e+00
  -4.056802e+02  -5.323358e+02
   2.263606e+02  -5.464774e+02
   6.264446e+02  -1.601455e+02
   4.346896e+02   3.074744e+02
   1.177459e+02   4.486633e+02
  -2.843822e+02   2.268142e+02
  -1.642204e+02  -1.554429e+02
   1.970483e+02  -4.688317e+02
   4.439767e+02  -1.417599e+01
   3.176126e+02   6.748157e+02
  -3.314021e+02   7.402348e+02
  -6.472029e+02   9.827255e+00
  -2.751745e+02  -5.702057e+02
   3.297537e+02  -3.651244e+02
   4.719781e+02   3.133947e+02
  -3.948138e+01   5.955400e+02
  -5.444938e+02   2.471579e+02
  -5.880810e+02  -3.931623e+02
  -1.717897e+02  -5.887397e+02
   3.428846e+02  -3.171127e+02
   5.897660e+02   6.851924e+01
   3.906627e+02   3.851589e+02
  -1.411873e+02   3.724561e+02
  -4.571952e+02   7.964958e+01
  -2.324377e+02  -2.126135e+02
   1.255254e+02  -8.009957e+01
   1.473989e+02   1.351302e+02
  -1.673367e+02   2.113381e+02
  -3.594688e+02  -1.997917e+01
  -1.765676e+02  -2.404984e+02
   2.189732e+02  -2.646015e+02
   3.003694e+02  -7.358067e+01
   1.637458e+02   1.082497e+02
  -7.346762e+01   2.456226e+02
  -2.165595e+02   3.217388e+02
  -3.311389e+02   2.152609e+02
  -2.824733e+02  -1.211077e+02
  -1.280703e+02  -3.947688e+02
   7.138124e+01  -3.586425e+02
   9.802571e+01  -1.553925e+02
  -1.022579e+01  -6.454159e+01
   5.999408e+01  -1.226381e+02
   1.731418e+02  -1.299228e+02
   2.906313e+02   6.818961e+01
   1.205239e+02   2.793295e+02
  -8.227989e+01   2.060909e+02
  -2.699351e+02  -4.349288e+01
  -1.824020e+02  -3.086535e+02
   4.540959e+01  -2.982553e+02
   2.766434e+02  -1.021063e+02
   3.550355e+02   1.946925e+02
   2.055574e+02   3.655983e+02
  -6.870027e+01   3.109798e+02
  -1.989024e+02   1.185202e+02
  -1.546820e+02   4.825153e+01
  -1.643324e+02   7.303046e+01
  -3.054420e+02   4.954587e+01
  -4.900988e+02  -9.623949e+01
  -3.098257e+02  -3.458903e+02
   4.408085e+01  -5.142989e+02
   3.732534e+02  -4.258209e+02
   4.781082e+02  -2.198049e+02
   3.049495e+02   6.604650e+01
   5.556646e+01   2.502909e+02
  -1.287981e+02   2.845138e+02
  -9.540139e+01   2.431466e+01
   1.216043e+02  -1.457265e+02
   2.014189e+02  -1.948341e+01
   1.128868e+02   1.884827e+02
  -1.416773e+02   1.859164e+02
  -1.868550e+02  -1.150165e+02
   2.394338e+01  -2.127525e+02
   1.723610e+02  -6.871084e+01
   2.024270e+02   2.425198e+02
   3.575224e+01   3.666184e+02
  -1.854677e+02   2.384869e+02
  -3.185940e+02  -7.271471e+01
  -3.247374e+02  -2.561295e+02
  -1.385503e+02  -2.882291e+02
   8.855381e+01  -1.412857e+02
   1.576616e+02  -5.076159e+01
   7.217868e+01  -1.921265e+01
  -4.263858e+00  -7.645076e+01
   5.736782e+00  -1.592909e+02
   1.281992e+02  -1.063097e+02
   1.655555e+02   4.143955e+01
   6.233027e+01   6.236535e+01
  -7.020048e+01   4.601421e+01
  -1.132576e+01  -5.538795e+01
   1.449377e+02  -1.483932e+02
   3.197621e+02  -2.195940e+01
   2.532210e+02   1.850658e+02
   7.128674e+01   3.175191e+02
  -2.378456e+02   2.540478e+02
  -2.764100e+02   8.639514e+01
  -1.719770e+02  -6.895347e+01
   3.259694e+00  -9.158572e+01
   5.155479e+01  -1.528348e+00
  -2.994928e+01   1.095824e+02
  -1.905072e+02   2.540130e+01
  -2.118993e+02  -1.040965e+02
  -8.933658e+01  -2.226904e+02
   1.133444e+02  -1.710577e+02
   1.491363e+02  -2.718840e+01
   6.492722e+01   3.495532e+01
  -4.029193e+01  -3.569688e+01
  -1.855690e+01  -1.257524e+02
   7.697257e+01  -1.270450e+02
   1.821607e+02  -1.407549e+01
   1.959479e+02   7.532546e+01
   3.549872e+01   2.007344e+02
  -1.754729e+02   1.445329e+02
  -1.924664e+02   3.565606e+01
  -5.802382e+01  -8.653689e+01
   3.893946e+01  -9.047116e+01
   9.288802e+01  -3.332712e+01
   4.600210e+00   4.784826e+01
  -3.556707e+01   3.612644e+01
   7.269045e-01  -2.971554e+01
   8.194621e+01  -6.719827e+01
   1.029643e+02   4.051874e+01
  -6.097506e+00   1.439334e+02
  -1.450934e+02   1.425902e+02
  -2.071817e+02   3.826370e+00
  -1.786264e+02  -1.485293e+02
  -6.810332e+01  -2.504321e+02
   8.901278e+01  -1.771333e+02
   1.189385e+02   3.953265e+00
   5.065066e+01   6.780866e+01
   1.536936e+01   1.801158e+01
   1.555834e+01  -4.080377e+01
   9.536931e+01  -1.989818e+01
   5.933013e+01   6.495850e+01
  -5.787121e+01   6.371047e+01
  -9.026023e+01   5.414311e+01
  -6.014613e+01  -7.260361e+01
  -2.266708e+01  -1.299407e+02
   1.543947e+02  -7.859253e+01
   2.160447e+02   3.949283e+01
   8.724196e+01   1.837729e+02
  -1.417810e+02   2.012723e+02
  -2.773729e+02   9.051135e+01
  -2.675658e+02  -6.622735e+01
  -1.092128e+02  -1.829843e+02
   5.979305e+01  -1.664935e+02
   8.307729e+01  -1.022978e+02
   5.579229e+01  -8.310779e+01
   3.355936e+01  -1.414905e+02
   8.441965e+01  -1.201904e+02
   1.217831e+02  -5.785298e+00
   8.468328e+01   1.439895e+02
   5.978688e+01   2.282282e+02
  -4.795052e+01   1.752347e+02
  -1.224816e+02  -9.270940e-01
  -1.121530e+02  -1.159640e+02
  -5.089286e+01  -1.076627e+02
   6.234392e+01  -6.953331e+01
   3.952634e+01   5.467458e+00
  -2.075714e+01   5.176986e+01
  -2.078881e+01   5.328531e+01
   2.062593e+01   1.226636e+01
   9.010271e+01   5.591859e+00
   8.069499e+01   5.035415e+01
  -9.783747e+01   4.385189e+01
  -2.147762e+02   5.890392e+01
  -1.680568e+02  -4.582451e+01
  -2.361589e+01  -5.739074e+01
   1.690769e+02  -5.838714e+01
   1.853702e+02   8.957791e+00
   5.901376e+01   6.321226e+00
  -3.663344e+01   2.093096e+01
  -7.738814e+01  -5.842497e+01
  -1.548484e+00  -8.972194e+01
   1.045464e+02  -2.585688e+01
   1.122114e+02   2.192658e+01
   2.221788e+01   9.317034e+01
   1.640112e+01   7.761345e+01
   4.663974e+01   2.739821e+01
   5.669081e+01  -1.794389e+01
   2.834753e+01   5.876292e+01
  -1.427878e+01   1.524085e+02
  -7.273095e+01   2.026623e+02
  -1.694863e+02   7.787634e+01
  -1.323182e+02  -8.643999e+01
  -7.710546e+00  -1.639136e+02
   7.746665e+01  -7.557741e+01
   7.193395e+01   2.685191e+01
  -2.764620e+01   4.986465e+01
  -1.722644e+02  -3.613352e+01
  -1.017001e+02  -1.177890e+02
   7.763282e+01  -1.173441e+02
   2.022402e+02  -3.348178e+01
   1.512708e+02   2.676465e+01
   7.935518e+01   1.268489e+02
  -3.248372e+01   6.319404e+01
  -4.184509e+01   5.715915e+01
  -5.278215e+00  -9.724782e+00
   1.007950e+02   4.440486e+01
   4.757009e+01   1.400649e+02
  -1.005519e+02   1.549762e+02
  -1.918069e+02   4.100049e+01
  -1.391422e+02  -1.155017e+02
  -1.645968e+01  -1.673981e+02
   8.861748e+01  -1.312855e+02
   8.868787e+01   8.953531e+00
   4.300753e+01   9.825960e+01
   1.783670e+00   1.001679e+02
  -9.107151e+00   4.958341e+00
  -3.750199e+01  -5.085762e+01
  -1.650308e+01  -2.021154e+01
  -7.941210e+00   3.646444e+01
  -2.673981e+01   1.707612e+01
  -6.919922e+01  -8.129122e+01
  -5.188496e+01  -1.037841e+02
  -9.787432e+00  -8.215775e+01
   1.197480e+02   7.974931e+01
   1.257705e+02   8.474979e+01
  -3.063048e+00   2.408484e+01
  -4.632413e+01  -8.292010e+00
  -6.590789e+01  -1.296270e+01
   2.603766e+01  -1.387664e+00
   2.060994e+01  -3.775464e+01
   1.825167e+01   1.082223e+01
  -7.270446e+01   5.442939e+01
  -3.036177e+01   3.624013e+01
   1.581099e+01   4.323963e+00
   7.411290e+01  -1.818838e+01
  -1.225420e+01   7.730380e+01
  -1.006204e+02   1.142929e+02
  -1.713030e+02   5.237164e+01
  -1.651434e+02  -6.600856e+01
  -4.357845e+00  -1.644200e+02
   6.532555e+01  -1.502907e+02
   1.297560e+02  -1.119070e+02
   9.182134e+01  -3.010641e+01
   5.087174e+01  -1.168436e+01
  -3.768519e-01  -1.981067e+01
   2.390562e+01  -1.223772e+01
   8.764376e+00   2.266947e+01
  -7.471470e+00   6.899925e+01
   1.420306e+00   8.037816e+01
  -8.215788e+01  -6.768580e+00
  -5.541946e+01  -7.029787e+01
  -9.413899e+00  -1.195574e+02
   3.797300e+01  -3.651601e+01
   3.523418e+01   9.596500e+01
  -2.120651e+00   1.113144e+02
  -6.307413e+01   2.610085e+01
  -9.483611e+01  -7.101848e+01
  -1.528572e+01  -8.605732e+01
   4.816507e+01  -6.868211e+01
   5.215467e+01  -1.220564e+01
  -5.944394e+01   1.404536e+01
  -8.673327e+01  -8.108693e+00
  -4.814193e+01  -2.284007e+00
   5.110522e+01  -4.114226e+01
   1.317137e+02  -1.077857e+02
   5.673928e+01   1.538870e+01
   1.598252e+01   1.191151e+02
  -5.168441e+01   7.590879e+01
  -3.840077e+01   5.152074e+01
  -5.806485e+00  -7.236706e+01
   2.713207e+01  -4.844731e+01
   2.916693e+01   5.361739e+01
   5.046222e+01   5.707674e+01
   7.694380e+00   3.274033e+01
  -5.508333e+01   2.718686e+01
  -4.002335e+01  -5.033237e+01
  -3.184530e+01  -7.926930e+00
   1.585767e+00  -1.914522e+01
   1.448463e+01  -4.043929e+01
   1.797359e+01  -8.203654e+01
   3.877405e+01  -4.830359e+01
   6.669965e+01  -5.007786e+01
   3.309127e+01   4.628471e+01
  -1.865057e+01   5.178533e+01
  -5.291626e+01   1.573103e+01
  -8.040150e+01   1.045947e+01
  -1.279682e+01  -4.442271e+01
   2.634100e+01  -3.132651e+01
   1.001864e+02  -6.509700e+00
   3.308136e+01   4.521108e+01
  -7.576962e+00   9.189690e+00
   1.330378e+01   5.094109e+01
  -8.062424e+00  -6.778622e+00
   2.043602e+01   4.828894e+01
  -1.162216e+01   2.088066e+01
  -6.327129e+01   2.254932e+01
  -9.405443e+01   1.269088e+01
