
 $NMID
 id='ANONYMOUS ', fmtdat='(2E16.6)'
 volume=1.0
 tramp=1.0
 $END
   3.427117e+03   5.216239e+01
   2.093063e+03   2.033116e+03
  -3.745134e+02   2.235104e+03
  -1.626135e+03   9.610179e+02
  -1.022692e+03   8.692921e+01
   3.884661e+02  -2.844423e+02
   5.034466e+02   1.570289e+02
   6.339992e+01   8.569942e+02
  -6.582625e+02   6.856754e+02
  -7.321893e+02  -4.652075e+01
  -4.908011e+02  -7.281380e+02
  -8.134313e+01  -7.812613e+02
   6.142268e+02  -1.878801e+02
   1.578307e+02   5.849060e+02
  -3.385426e+02   4.546686e+02
  -6.495084e+02   2.907541e+01
  -2.449947e+02  -2.507339e+02
   3.481408e+02  -5.294034e+02
   6.958279e+02  -3.506354e+02
   3.520700e+02   2.569827e+02
   6.404646e+01   4.331912e+02
  -2.995893e+01   3.132423e+02
  -8.723508e+01   1.304347e+02
   3.199996e+02  -4.471328e+00
   3.389884e+02   9.767643e+01
   8.007480e+01   3.853643e+02
  -3.584293e+02   2.664303e+02
  -6.944897e+02  -3.890736e+01
  -2.918441e+02  -4.939355e+02
   4.219202e+02  -4.222241e+02
   6.179585e+02   1.288990e+02
   1.374578e+02   3.359515e+02
  -3.548651e+02   4.258346e+02
  -4.731468e+02   1.589665e+02
  -3.340974e+02  -1.077519e+02
  -1.435573e+02  -3.075819e+02
   1.027412e+01  -2.738567e+02
   3.054747e+01   1.142743e+02
  -1.840400e+02   2.078783e+02
  -2.158181e+02  -1.004989e+02
   1.895655e-01  -5.437311e+02
   2.902550e+02  -5.540843e+02
   4.183113e+02   3.104698e+00
   1.563838e+02   3.870892e+02
  -1.632934e+02   1.787073e+02
  -1.697089e+02  -2.456597e+02
   6.154232e+01  -4.303942e+02
   4.290077e+02  -1.575534e+02
   5.003739e+02   3.390234e+02
   1.644633e+02   5.143776e+02
  -3.006427e+02   2.944094e+02
  -5.115363e+02  -2.919726e+01
  -3.467569e+02  -2.666188e+02
   8.218180e+01  -2.555344e+02
   3.605541e+02  -3.629281e+01
   1.948231e+02   1.341719e+02
  -4.137824e+01   6.701303e+01
  -7.779270e+01  -1.078670e+02
   7.142860e+01  -1.184562e+02
   2.301255e+02   1.804125e+01
   1.534616e+02   2.287656e+02
  -1.458011e+02   2.759858e+02
  -3.705056e+02   1.105060e+02
  -2.632173e+02  -1.191723e+02
  -1.594743e+01  -2.817149e+02
   2.823030e+02  -4.049573e+02
   3.793295e+02  -2.090199e+02
   2.536751e+02   1.598130e+02
   7.387280e+00   3.929497e+02
  -5.082678e+01   3.500852e+02
  -4.525637e+01   1.243197e+02
  -1.281343e+01  -1.710369e+01
  -5.631785e+01   3.293767e+01
  -1.945996e+02   9.556135e+01
  -2.443738e+02  -6.925962e+01
  -1.243160e+02  -2.570605e+02
   7.559506e+01  -1.980627e+02
   1.896997e+02   4.676345e+01
   1.426117e+02   2.277210e+02
  -2.992699e+01   2.621183e+02
  -2.333548e+02   6.866536e+01
  -2.718354e+02  -1.821191e+02
  -1.353819e+02  -3.126797e+02
   7.278414e+01  -2.216813e+02
   1.592982e+02  -1.260514e+02
   1.571259e+02  -4.760116e+00
   1.191338e+02  -2.503816e+01
   2.330151e+02  -2.420986e+01
   3.482857e+02   8.490097e+01
   3.127800e+02   2.982269e+02
  -4.135182e+01   4.160968e+02
  -4.052417e+02   3.688962e+02
  -5.002230e+02   9.924130e+01
  -3.028667e+02  -1.474010e+02
   6.930259e+00  -2.912828e+02
   1.105046e+02  -1.927947e+02
   6.725188e+01  -1.152148e+01
  -1.301963e+02   4.306962e+01
  -7.753303e+01   6.329256e+00
  -1.844352e+01  -1.123416e+02
   1.200829e+02  -7.627366e+01
   1.171479e+02   5.073151e+01
  -5.436365e+01   7.223228e+01
  -1.805526e+02  -1.294205e+01
  -1.685245e+02  -2.623358e+02
   3.668664e+01  -3.396012e+02
   2.555876e+02  -1.687621e+02
   3.777924e+02   9.196660e+01
   2.942354e+02   2.547113e+02
   5.166195e+01   3.049100e+02
  -1.189710e+02   1.633474e+02
  -1.682902e+02   3.019458e+01
  -9.207327e+01   2.128212e+01
  -6.817074e+00   6.021062e+01
   3.559427e+00   7.965229e+01
  -1.644734e+02   4.552834e+01
  -1.741947e+02  -1.990644e+01
  -5.763513e+01  -7.993862e+01
   1.343031e+02  -4.764309e+00
   6.381249e+01   3.614639e+01
  -1.252691e+02   7.933431e+01
  -3.271157e+02  -1.628275e+00
  -2.443237e+02  -1.546423e+02
   1.040880e+01  -2.541406e+02
   2.351265e+02  -2.495624e+02
   2.705618e+02  -1.070205e+02
   1.226454e+02   2.413175e+01
  -2.724903e+01   7.771684e+01
  -7.981108e+01   2.010350e+01
   7.497552e+01  -3.653064e+01
   1.799519e+02  -6.256676e+01
   1.932021e+02   9.314995e+01
   6.262302e+01   1.656235e+02
  -9.727238e+01   1.990844e+02
  -1.475554e+02   4.166762e+01
  -1.017560e+02  -5.891756e+01
   2.204901e+01   4.857801e+00
   2.137520e+01   5.745124e+01
  -1.117830e+02   1.450654e+02
  -2.441490e+02  -7.556937e+00
  -1.572380e+02  -1.390983e+02
  -2.083525e+01  -2.572779e+02
   1.472404e+02  -1.548118e+02
   2.052491e+02  -3.123007e+01
   7.116112e+01   8.861517e+01
  -3.078131e+01   7.871332e+01
  -4.154884e+01   5.350714e+01
  -3.746892e+01  -2.205597e+01
   3.971365e+01   2.659421e+01
   1.797446e+01   4.601332e+01
  -7.285815e+01   5.705707e+00
  -5.799785e+01  -1.071813e+02
  -1.157795e+01  -1.842497e+02
   1.687939e+02  -1.247924e+02
   2.516303e+02   3.742496e+01
   1.811089e+02   2.094828e+02
  -2.617210e+01   2.187634e+02
  -1.594493e+02   1.164544e+02
  -1.361667e+02   4.730547e+01
  -6.093441e+01  -4.283150e+01
  -2.812896e+01  -4.178630e+01
  -8.289267e+00  -4.702048e+01
  -6.907222e+01  -4.734994e+01
  -4.891833e+01  -6.358528e+01
   5.592056e+01  -4.194781e+01
   1.709522e+02  -2.318206e+01
   8.976462e+01   8.130409e+01
  -5.492837e+01   1.265056e+02
  -1.753691e+02   6.929635e+01
  -2.050366e+02  -5.139109e+01
  -8.944470e+01  -1.990306e+02
   1.028773e+02  -2.209877e+02
   2.112192e+02  -7.632300e+01
   2.261295e+02   7.684177e+01
   1.269047e+02   1.557872e+02
  -8.636646e+00   1.456184e+02
  -6.354621e+01   9.082664e+01
  -4.489185e+01   5.194329e+01
  -6.746305e+01   1.285459e+02
  -1.428108e+02   8.139306e+01
  -1.526133e+02  -4.244867e+01
  -1.078156e+02  -1.963631e+02
  -1.658956e+01  -2.231996e+02
   1.319251e+02  -1.645998e+02
   1.982484e+02   2.265630e+00
   1.589510e+02   1.096449e+02
   5.396194e+01   1.380585e+02
  -5.616280e+01   6.220174e+01
  -7.207691e+01   8.690210e+00
   6.583723e+00  -2.788110e+00
   6.248466e+01  -3.816846e+01
  -5.650755e+01   6.650059e+00
  -8.169655e+01  -4.339873e+01
  -5.765763e+01  -4.294908e+01
   5.542118e+01  -4.491411e+01
   1.274771e+02  -1.591878e+01
   1.678449e+02   5.447343e+01
   5.453407e+01   9.194874e+01
  -1.220508e+02   3.866506e+01
  -1.506750e+02   2.746336e+01
  -3.760982e+01  -7.244833e+01
   6.155333e+01  -5.406281e+01
   4.734552e+01   6.598724e+00
   5.118989e+00   7.961552e+01
  -5.591910e+01   7.772270e+01
  -1.140413e+01  -2.144003e+01
  -8.787365e+00  -5.576446e+01
   9.895188e+00  -4.144237e+01
  -3.506909e+01  -5.372148e+00
  -4.024593e+01   1.441528e+01
  -3.247301e+01  -3.824788e+01
   2.322344e+01  -1.257596e+02
   1.396783e+02  -1.355947e+02
   1.697597e+02  -4.124801e+01
   1.529882e+02   1.404227e+02
   3.890244e+00   1.099133e+02
  -5.105544e+01   5.445293e+01
  -6.931374e+01  -2.323120e+01
   5.310636e+01   6.768052e+00
   1.137216e+02   4.534453e+01
   4.454698e+01   6.964379e+01
  -9.631299e+01   8.988829e+01
  -1.531730e+02   3.995104e+01
  -1.595645e+02  -1.129458e+01
  -3.046740e+01  -5.221212e+01
   1.160653e+02  -8.069971e+01
   5.880565e+01  -3.927335e+00
  -2.695575e+01   4.258291e+01
  -1.231123e+02   5.963502e+00
  -4.822440e+01  -1.157815e+02
   6.127181e+01  -1.485684e+02
   1.273775e+02  -3.632471e+01
   1.018706e+02   8.064374e+01
   1.852384e+01   1.971365e+02
  -6.184717e+01   1.284026e+02
  -9.761220e+01  -4.712709e+01
  -1.139105e+01  -1.215989e+02
   2.050834e+01  -1.434666e+02
   4.515137e+01  -2.307513e+01
   5.062426e+01   5.032330e+01
   3.175698e+01  -1.976546e+00
   2.100975e+01  -7.382719e-01
   6.811322e+00   1.908907e+01
   2.564504e+01   6.684553e+01
   5.181608e+01   4.604958e+01
   1.234727e+01   5.156637e+01
  -1.098187e+02  -1.690799e+01
  -1.007952e+02  -8.459143e+01
  -1.917544e+01  -5.165346e+01
   7.848917e+01  -3.477219e+01
   6.412870e+01  -4.327280e+01
  -1.049215e+01  -3.817240e+01
  -3.049800e+01   1.692384e+01
   2.430371e+00   2.470398e+01
   4.589825e+01  -5.492385e+00
   9.542141e+00   4.675971e+01
  -4.524578e+01   1.066891e+01
  -1.007345e+02  -3.708547e+01
  -2.454877e+01  -8.319486e+01
   9.905584e+01  -8.061317e+01
   1.711846e+02  -2.020838e+01
   1.171159e+02   7.480236e+01
  -7.296300e+00   1.733336e+02
  -6.686672e+01   1.633804e+02
  -1.172950e+02   8.312402e+01
  -7.801919e+01  -1.178134e+01
  -4.596711e+01  -6.763609e+01
   1.189152e+01   4.000519e+01
  -2.869887e+01  -3.290170e+00
  -4.281369e+01  -8.111595e+01
  -3.263304e+01  -1.215307e+02
   7.181504e+01  -7.465285e+01
   7.370703e+01   1.107415e+01
   1.033844e+02   1.147416e+02
  -2.822363e+00   1.416704e+02
  -4.609352e+01   3.021767e+01
  -7.428715e+01  -7.322997e+01
  -4.627943e+01  -9.165547e+01
   3.658167e+01  -4.391428e+01
   6.306171e+01  -2.847745e+01
   2.576317e+01   4.613885e+01
  -3.054076e+01   3.055184e+01
  -3.144382e+01   1.392107e+01
   1.826827e+01  -1.822747e+01
   9.225364e+01   9.193026e+00
   3.820420e+01   3.726052e+01
  -4.423563e+01   3.702496e+01
  -1.290203e+02   2.637777e+01
  -5.640597e+01  -8.064504e+00
   8.330254e+00  -7.871309e+01
   5.199620e+01  -8.799994e+01
   2.451056e+01  -5.184789e+01
  -2.627032e-01   8.254329e+01
  -1.610775e+01   4.405020e+01
  -4.144835e+01  -4.722244e+00
   7.099841e+00  -5.165275e+01
   1.933432e+01   9.560508e+00
   1.683086e+01   2.429113e+01
  -8.326018e+00   3.321382e+00
   4.309526e+01  -2.914460e+01
  -5.183220e+01  -2.237800e+01
  -4.895734e+01  -1.338027e+01
   3.655112e+00   8.103803e+01
   4.883647e+01   8.502253e+01
  -2.388663e+01   5.746500e+01
  -4.013515e+01  -2.615384e+01
  -2.683182e+01  -7.135212e+01
   3.350090e+01  -6.777174e+00
   4.463355e+01   1.452958e+01
   1.326184e+01   6.065642e+01
  -6.242474e+01   2.128286e+01
  -9.118686e+01   6.628927e+00
  -3.728761e+01  -4.064453e+01
   4.391011e+01  -3.093348e+01
   9.602463e+01  -1.229133e+01
   3.458771e+01   4.862439e+00
  -2.507521e+01  -4.019909e+01
  -7.049357e+01  -5.647477e+01
   1.664151e+01  -3.827742e+01
   7.844277e+01  -4.941946e+01
