
 $NMID
 id='ANONYMOUS ', fmtdat='(2E16.6)'
 volume=1.0
 tramp=1.0
 $END
   3.638102e+03   8.481764e+01
   2.411249e+03   2.035205e+03
  -3.259247e+02   2.503867e+03
  -1.801499e+03   1.060601e+03
  -9.164775e+02  -6.109328e+02
   3.950718e+02  -4.264087e+02
   7.611554e+02   2.467955e+02
   3.605084e+01   8.840099e+02
  -6.703576e+02   6.944839e+02
  -8.480292e+02   2.329827e+01
  -5.611669e+02  -6.528897e+02
   6.165350e+01  -7.984264e+02
   4.964244e+02  -4.386485e+01
   3.851079e+02   5.315431e+02
  -3.548672e+02   7.314832e+02
  -4.885535e+02   1.283610e+02
  -4.310643e+02  -5.876718e+02
   3.338218e+02  -7.385376e+02
   6.118689e+02  -4.243421e+01
   4.173897e+02   3.374215e+02
   1.083947e+02   5.029492e+02
  -2.840866e+02   2.083704e+02
  -6.752023e+01   1.690029e+02
   1.826438e+02   1.924043e+02
   3.271659e+02   3.452317e+02
   4.469244e+01   5.253024e+02
  -4.597305e+02   2.915498e+02
  -8.650651e+02  -2.897166e+01
  -4.536317e+02  -4.985283e+02
   4.707740e+02  -3.274680e+02
   6.210299e+02   1.525389e+02
   2.615026e+02   3.883888e+02
  -2.654616e+02   3.774115e+02
  -4.911210e+02   9.242106e+01
  -3.372279e+02  -2.166032e+02
  -1.113564e+02  -3.922662e+02
   1.073296e+02  -2.543756e+02
   1.119825e+02   1.495510e+02
  -1.745164e+02   2.844225e+02
  -2.958184e+02  -8.876260e+01
  -1.473847e+02  -6.171711e+02
   1.970942e+02  -5.476465e+02
   4.114201e+02   1.196372e+01
   1.662672e+02   4.001008e+02
  -2.244359e+02   2.205757e+02
  -3.052183e+02  -3.760785e+02
   1.053688e+02  -5.040140e+02
   5.240706e+02  -1.452529e+02
   5.360115e+02   3.305135e+02
   1.639389e+02   5.780983e+02
  -3.132008e+02   3.312626e+02
  -6.058251e+02   3.864758e+00
  -3.491094e+02  -2.991039e+02
   6.979906e+01  -3.444652e+02
   3.709944e+02  -1.191188e+02
   2.505097e+02   5.622591e+01
  -3.321478e+01   1.026049e+02
  -8.760443e+01  -1.089166e+02
   6.286161e+01  -1.955653e+02
   2.962355e+02   2.307995e+01
   1.877736e+02   2.328719e+02
  -1.438607e+02   2.720825e+02
  -3.730437e+02   9.392137e+01
  -3.435411e+02  -1.509370e+02
   2.759258e+01  -2.842216e+02
   2.920181e+02  -3.699628e+02
   3.885568e+02  -1.821681e+02
   2.628143e+02   1.356022e+02
   9.746601e+01   4.049859e+02
  -3.494249e+01   4.185323e+02
  -1.135144e+02   1.275835e+02
  -8.534878e+01   2.197390e+01
  -1.419710e+02   1.037232e+02
  -2.456356e+02   1.290630e+02
  -2.746607e+02  -9.342478e+01
  -1.038339e+02  -2.996654e+02
   1.273439e+02  -2.446929e+02
   2.573962e+02  -2.876187e+01
   2.147510e+02   2.737437e+02
  -4.715979e+01   3.193869e+02
  -3.140612e+02   1.393005e+02
  -3.572461e+02  -1.695949e+02
  -1.923141e+02  -3.290604e+02
   8.311780e+01  -3.136138e+02
   1.883464e+02  -1.959523e+02
   1.345335e+02  -3.478212e+01
   1.476725e+02  -1.327236e+01
   2.818536e+02  -2.433500e+01
   3.611036e+02   1.130193e+02
   2.598743e+02   2.959791e+02
  -5.040142e+01   4.656864e+02
  -3.609527e+02   3.859030e+02
  -4.718649e+02   1.430554e+02
  -3.198109e+02  -1.562919e+02
  -1.693308e+01  -2.523976e+02
   9.238836e+01  -2.270976e+02
   4.878402e+01  -9.607383e+01
  -9.145246e+01   4.969362e+01
  -1.654054e+02  -5.189036e+01
  -2.208868e+01  -1.492108e+02
   1.304531e+02  -1.319812e+02
   1.168959e+02   7.802093e+01
  -6.088088e+01   1.471081e+02
  -1.864633e+02  -3.353473e+01
  -1.384979e+02  -2.702278e+02
   6.339672e+01  -4.167871e+02
   2.950014e+02  -2.167573e+02
   3.694411e+02   7.890829e+01
   2.638332e+02   2.688802e+02
   1.091295e+02   3.276194e+02
  -1.276703e+02   1.697985e+02
  -1.721544e+02   6.261451e+01
  -6.137919e+01   1.576958e+01
   7.000343e+01   2.249186e+01
   5.957019e+01   8.610450e+01
  -1.146749e+02   7.124823e+01
  -1.492079e+02  -1.170721e+01
  -4.392663e+01  -6.010889e+01
   6.900132e+01  -1.936525e+00
   4.562728e+01   9.986701e+01
  -1.345577e+02   9.602364e+01
  -2.589894e+02   2.114038e+01
  -2.748727e+02  -1.511519e+02
  -7.081646e+01  -2.415711e+02
   1.747377e+02  -2.422477e+02
   2.913255e+02  -9.519324e+01
   1.792228e+02   6.179678e+01
  -3.421332e+01   7.980265e+01
  -9.487141e+01   2.345870e+01
   3.654806e+01  -8.330120e+01
   2.341072e+02  -6.779665e+01
   2.337168e+02   7.898472e+01
   9.177277e+01   1.873991e+02
  -8.444537e+01   1.989965e+02
  -1.211346e+02   5.494379e+01
  -3.720981e+01  -2.967920e+00
   9.574766e+00  -5.252390e-01
   7.740969e+00   1.044054e+02
  -1.194548e+02   9.623517e+01
  -2.077906e+02  -4.544838e+00
  -1.852258e+02  -1.277147e+02
   2.128444e+00  -2.030428e+02
   1.619619e+02  -1.460792e+02
   2.012841e+02  -3.392898e+01
   5.395213e+01   1.116259e+02
  -8.378007e+01   1.104866e+02
  -2.877495e+01   3.848293e+01
  -8.686467e+00  -2.584770e+01
   3.971158e+01  -1.796046e+01
  -6.798004e+00   2.780309e+01
  -7.167532e+01  -2.070870e+01
  -8.681513e+01  -1.040527e+02
  -7.585436e+00  -1.323724e+02
   1.519196e+02  -1.815409e+02
   2.625549e+02  -2.716547e+01
   1.871167e+02   1.531667e+02
   4.697112e+01   2.922923e+02
  -1.508114e+02   2.148768e+02
  -1.801942e+02   3.883869e+01
  -8.465122e+01  -8.139848e+01
  -6.518229e+01  -8.060996e+01
  -4.474317e+01  -2.132175e+01
  -6.166391e+01  -1.659328e+01
  -5.716345e+01  -4.498551e+01
   6.200799e+01  -8.804830e+01
   1.196806e+02  -7.024303e+00
   8.757873e+01   8.053513e+01
   8.357618e+00   1.732627e+02
  -1.798591e+02   7.226889e+01
  -2.138418e+02  -1.001717e+02
  -1.358479e+02  -2.040238e+02
   1.053445e+02  -2.424393e+02
   3.066892e+02  -7.174356e+01
   2.738520e+02   1.213094e+02
   7.299466e+01   1.699707e+02
  -4.996651e+01   1.683522e+02
  -7.769225e+01   8.255380e+01
  -6.697435e+01   3.851280e+01
  -9.558015e+01   1.147070e+02
  -9.192093e+01   1.088175e+02
  -1.767950e+02   1.855436e+01
  -1.482828e+02  -1.277546e+02
  -3.484593e+01  -2.278669e+02
   1.328046e+02  -1.965427e+02
   2.198201e+02  -2.972292e+01
   1.300759e+02   1.198094e+02
  -4.878646e+00   1.791004e+02
  -1.110062e+02   1.070469e+02
  -5.569914e+01  -3.001471e+01
   3.924586e+01  -1.281605e+01
   9.406461e-01  -1.307330e+01
  -4.653705e+01  -2.446356e+00
  -7.081779e+01  -4.818115e+01
  -3.105927e+01  -8.752174e+01
   4.815497e+01  -3.981021e+01
   1.698170e+02   1.548488e+01
   1.883797e+02   8.656145e+01
   5.906430e+00   1.251012e+02
  -1.222554e+02   5.374909e+01
  -1.438546e+02   1.107988e+01
  -2.568987e+00  -5.353692e+01
   8.639755e+01  -5.251865e+01
   8.431907e+01   3.490461e+01
  -7.867825e-01   1.068685e+02
  -8.214886e+01   7.428034e+01
  -8.995467e+01  -1.488028e+01
  -3.307597e+01  -5.447575e+01
  -1.616888e+01  -6.958720e+01
  -5.468896e+00  -1.496150e+00
  -3.983986e+01   7.047115e-01
  -4.301792e+01  -4.910116e+01
   7.330611e+00  -1.205987e+02
   1.400831e+02  -1.401479e+02
   1.748202e+02  -3.556317e+01
   1.076968e+02   6.062055e+01
   2.141800e+01   1.633337e+02
  -8.520644e+01   1.036877e+02
  -8.357848e+01   1.055481e+01
   9.030866e+01  -5.134033e+01
   1.424921e+02   2.090441e+01
   6.179434e+01   1.034636e+02
  -7.487947e+01   1.290481e+02
  -1.494415e+02   9.256895e+01
  -1.723615e+02  -1.416149e+01
  -8.502384e+01  -1.137202e+02
   4.858331e+01  -7.662380e+01
   1.350230e+01  -1.594580e+01
  -3.935994e+01   1.582053e+01
  -8.384143e+01  -3.374480e+01
  -1.433410e+01  -1.410435e+02
   1.029483e+02  -1.472380e+02
   1.701470e+02  -5.942974e+01
   9.908957e+01   1.352478e+02
  -1.625281e+01   2.186483e+02
  -1.002421e+02   1.592001e+02
  -1.151298e+02  -9.759054e+00
  -7.866826e+01  -1.349564e+02
   5.219860e+00  -9.372890e+01
   7.572476e+01  -2.138570e+01
   7.151145e+01  -6.892546e+00
   2.931174e+01  -6.958477e+00
   3.092920e+01  -3.802580e+01
   5.795835e+01   4.369693e+01
   6.818080e+01   1.380142e+02
   7.234128e+00   1.378820e+02
  -7.644757e+01   1.062142e+02
  -1.895849e+02  -4.681777e+01
  -1.590641e+02  -7.134852e+01
  -1.922370e+01  -6.378079e+01
   9.327753e+01  -3.268245e+01
   1.058227e+02   3.316643e+01
   8.783460e+00   3.421549e+01
  -6.419568e+01   2.320801e+01
  -2.301508e+01  -3.364953e+01
   3.871108e+01  -1.000458e+01
   4.266646e+01   1.404477e+01
  -8.722202e+01   1.775498e+01
  -9.686701e+01   2.662233e+00
   1.618839e+01  -5.133523e+01
   8.472443e+01  -1.697976e+02
   2.354690e+02  -9.831419e+01
   1.747557e+02   8.575559e+01
   2.729083e+01   1.590640e+02
  -7.488807e+01   1.812419e+02
  -9.083361e+01   8.720482e+01
  -9.336913e+01  -2.616998e+01
   1.586652e+01  -6.583932e+01
  -1.086186e+01   6.039099e+01
   9.224900e+00  -6.368593e+00
  -5.281162e+01  -2.745744e+01
  -5.858127e+01  -1.493859e+02
   2.591441e+01  -1.033880e+02
   1.403758e+02   3.302954e+01
   1.057662e+02   7.930697e+01
   7.767819e+01   9.340015e+01
  -9.519306e+01   6.136934e+01
  -1.481705e+02  -7.651597e+01
  -4.923122e+01  -1.235806e+02
   6.790891e+01  -5.108594e+01
   9.241995e+01  -5.938105e+00
   3.467384e+01   4.420158e+01
  -2.802738e+01   2.475167e+01
  -3.416381e+01   4.125043e+01
   3.410771e+01  -2.024643e+01
   8.356402e+01  -3.069017e+01
   4.632763e+01   2.559910e+01
  -5.866742e+01   7.371244e+01
  -9.338548e+01   7.149936e+01
  -6.388131e+01   1.428770e+01
  -2.729617e-01  -9.063440e+01
   1.391002e+01  -7.258536e+01
   2.040652e+01  -3.758798e+01
  -4.370693e+01   7.643467e+01
   1.304695e+01   6.344498e+01
   1.558148e+00  -8.034242e+01
   5.743857e+00  -7.416277e+01
  -1.314055e+01  -4.906938e+01
   3.024859e+01   3.799669e+01
   2.605789e+01   5.889787e+01
   1.113523e+00   5.600603e+01
  -2.680250e+01  -2.096555e+00
   1.856901e+01  -2.908621e+01
  -1.029038e+01   7.467232e+01
   1.384734e+01   4.985113e+01
  -9.437346e+00   3.147632e+01
  -4.224661e+01  -5.133669e+01
  -3.500180e+01  -6.901939e+01
   3.697991e+01  -1.533692e+00
   5.357009e+01   7.233159e+01
  -2.906291e+01   4.527475e+01
  -3.963959e+01   1.539030e+01
  -8.524092e+01  -5.303335e+01
  -2.512576e+01  -4.908565e+01
   5.727281e+01  -1.711343e+01
   8.664828e+01   6.312847e+00
   3.171516e+01   2.095922e+01
   6.747100e+00  -1.734237e+01
  -3.224684e+01  -2.197955e+01
   2.268304e+01  -3.806329e+01
   8.718374e+01  -1.856708e+01
