
 $NMID
 id='ANONYMOUS ', fmtdat='(2E16.6)'
 volume=1.0
 tramp=1.0
 $END
   2.930771e+03   2.177249e+01
   1.818729e+03   1.738521e+03
  -1.068472e+02   1.731955e+03
  -1.165682e+03   8.280345e+02
  -5.431988e+02  -2.643245e+02
   3.294528e+02  -1.152634e+02
   5.552369e+02   2.167923e+02
  -2.656977e+01   6.420759e+02
  -4.753808e+02   5.241691e+02
  -6.760893e+02  -8.236875e+01
  -4.047406e+02  -4.257070e+02
  -2.871037e+01  -6.705951e+02
   4.333477e+02  -6.180636e+01
   1.232046e+02   3.844860e+02
  -2.109897e+02   3.569897e+02
  -3.317825e+02  -4.721095e-01
  -1.796946e+02  -4.845631e+02
   2.428648e+02  -4.107709e+02
   4.525012e+02  -1.209347e+02
   2.604352e+02   1.020125e+02
   3.533215e+00   2.979378e+02
  -1.249608e+02   1.006205e+02
  -1.456540e+02   1.013765e+02
   7.347598e+01   1.168863e+02
   8.731232e+01  -7.392482e+01
   8.187697e+01   2.800821e+02
  -4.361376e+02   2.321857e+02
  -4.449110e+02  -1.056070e+02
  -2.865844e+02  -3.759192e+02
   2.219642e+02  -1.150529e+02
   4.230938e+02   1.265070e+02
   1.776862e+02   2.815279e+02
  -1.768394e+02   3.300821e+02
  -3.274873e+02   1.410706e+02
  -1.970417e+02  -2.437340e+02
  -7.708078e+01  -2.628420e+02
   9.626497e+01  -1.819617e+02
  -1.656169e+01   4.109196e+01
  -1.465171e+02   1.348098e+02
  -2.655988e+02   3.476309e+01
  -4.963034e+01  -3.945066e+02
   2.187971e+02  -3.788734e+02
   3.440876e+02  -2.581916e+00
   8.110507e+01   2.100056e+02
  -1.848858e+02   1.306092e+02
  -1.891923e+02  -1.497535e+02
   4.435527e+01  -2.419891e+02
   3.357315e+02  -3.260699e+00
   3.183881e+02   2.443405e+02
   8.759781e+01   3.408915e+02
  -2.248813e+02   1.993713e+02
  -4.131298e+02  -6.359876e+01
  -2.777595e+02  -1.604749e+02
   3.070865e+01  -1.622145e+02
   2.094904e+02  -2.658934e+01
   1.706756e+02   1.026847e+02
  -8.037864e+00   4.026809e+01
  -4.809680e+01  -3.620861e+01
   7.117603e+01  -8.383607e+01
   1.668803e+02   4.404325e+01
   5.020979e+01   2.260986e+02
  -8.431419e+01   2.096144e+02
  -2.125870e+02   4.580446e+01
  -1.362760e+02  -8.283228e+01
   1.807054e+01  -2.349868e+02
   1.373852e+02  -1.944014e+02
   2.232427e+02  -7.798284e+01
   1.503806e+02   8.097041e+01
   4.051006e+01   2.391813e+02
  -2.949129e+01   2.502086e+02
  -9.620954e+01   9.265158e+01
  -3.190012e+01   3.603610e+01
  -4.396752e+01   3.939112e+00
  -1.143608e+02   2.976194e+01
  -1.555770e+02  -3.507232e+01
  -7.092173e+01  -1.704358e+02
   4.405752e+01  -1.141319e+02
   1.459985e+02   2.538771e+01
   1.111315e+02   1.734916e+02
  -6.605821e+00   2.097123e+02
  -1.760597e+02   6.008671e+01
  -2.394290e+02  -6.120394e+01
  -1.736047e+02  -2.095705e+02
   3.664807e+01  -2.279727e+02
   1.248012e+02  -1.584148e+02
   1.436128e+02  -6.877086e+01
   9.328039e+01   1.181424e+00
   1.412366e+02  -2.615001e+01
   1.900613e+02   5.351868e+01
   1.686728e+02   1.834566e+02
  -5.428542e+00   2.817995e+02
  -2.142565e+02   2.582741e+02
  -3.186601e+02   9.824276e+01
  -1.977490e+02  -4.154645e+01
  -4.863245e+00  -1.456769e+02
   1.206045e+02  -1.378945e+02
   2.099194e+01   1.284179e+01
  -5.357020e+01   4.584001e+01
  -1.424117e+02  -2.078961e+01
   4.593140e+00  -1.545700e+02
   9.481870e+01  -1.270454e+02
   8.096936e+01   3.092000e+01
  -3.220253e+01   1.230864e+02
  -6.777699e+01  -2.266956e+00
  -9.892374e+01  -1.812045e+02
   5.738254e+01  -2.434294e+02
   1.651098e+02  -1.545115e+02
   2.696375e+02   6.834569e+01
   1.700279e+02   1.523660e+02
   2.826918e+01   1.721929e+02
  -1.149162e+02   1.380431e+02
  -1.485454e+02  -7.488412e+00
  -2.996755e+01  -2.867046e+01
   8.456982e+01   3.068079e+01
   3.706316e+01   8.461988e+01
  -8.141682e+01   1.063016e+02
  -8.407396e+01   3.575665e+00
  -3.977372e+01  -4.742291e+01
   2.244322e+01   6.060842e+00
   1.033879e+01   6.940197e+01
  -1.079364e+02   4.001264e+01
  -1.576144e+02  -7.429151e+01
  -8.588520e+01  -1.594060e+02
  -1.985501e+00  -1.255274e+02
   1.499558e+02  -1.579967e+02
   1.267150e+02  -9.429624e+01
   1.090454e+02   6.417279e+01
   2.316022e+01   1.194941e+02
  -4.925261e+01   5.722133e+01
   6.120272e+00  -4.441359e+01
   1.012590e+02  -1.040550e+02
   9.106418e+01   8.136875e+01
   5.336854e+01   1.266446e+02
  -5.857815e+01   1.101032e+02
  -6.878678e+01   3.273252e+01
   1.131380e+01   4.404136e+00
   7.939135e+01   3.030021e+00
   3.682046e+01   4.861534e+01
  -2.242220e+01   1.737221e+00
  -1.399478e+02  -1.170523e+01
  -1.151107e+02  -6.819397e+01
  -6.822386e+01  -1.361100e+02
   9.920692e+01  -1.241514e+02
   1.174641e+02  -3.027791e+01
   4.791704e+01   7.843307e+01
  -5.012502e+01   8.400199e+01
  -6.629784e+01   3.090625e+01
  -1.385705e+01  -1.255312e+01
   4.853974e+00  -1.962215e+01
  -3.087321e+01   2.997368e+01
  -8.965156e+01   1.278738e+00
  -7.671500e+01  -5.353344e+01
   3.064950e+01  -1.406677e+02
   1.500486e+02  -1.084673e+02
   2.092954e+02  -3.243582e+00
   1.553300e+02   7.723116e+01
  -5.734055e+00   1.789595e+02
  -4.549332e+01   9.566630e+01
  -7.331688e+01  -2.286974e+01
  -4.419236e+01  -1.776315e+01
  -1.733094e+01  -1.850395e+01
  -5.039149e-01   1.916931e+01
  -8.964414e+01  -2.871707e+00
  -4.573002e+01  -6.669579e+01
   7.729055e+00  -8.333660e+01
   9.731777e+01  -2.965003e+01
   6.340155e+01   5.954335e+01
  -3.106063e+01   1.130092e+02
  -1.332876e+02   5.132724e+01
  -1.510829e+02  -4.008822e+01
  -3.066340e+01  -1.422886e+02
   9.620697e+01  -1.466268e+02
   1.902126e+02  -8.081687e+01
   2.210234e+02   3.572896e+01
   9.327152e+01   1.315706e+02
  -4.317155e+00   1.002622e+02
  -9.678995e+01   5.534911e+01
  -6.490292e+01   5.127064e+01
  -6.547708e+01   4.501136e+01
  -6.663650e+01   3.323280e+01
  -8.650950e+01  -3.757780e+01
  -7.698812e+01  -1.485933e+02
   3.255801e+01  -1.669565e+02
   4.450643e+01  -1.178815e+02
   7.782178e+01  -4.830575e+00
   5.702439e+01   8.932460e+01
   1.773173e+01   1.033976e+02
  -3.516757e+01   8.546924e+01
  -3.385231e+01   1.138777e+01
   1.699693e+01  -4.043228e+01
  -4.637788e+00  -4.091759e+01
  -2.983695e+01  -3.391965e+01
  -4.612778e+01  -3.560451e+01
  -9.860983e+00  -5.487541e+01
   5.629331e+01  -5.247819e+01
   9.495957e+01   2.970025e+01
   1.175050e+02   5.479074e+01
   2.434841e+01   2.575765e+01
  -9.046458e+01   4.996313e+01
  -9.819369e+01  -2.828084e+00
  -2.480451e+01   1.873612e+00
   8.105481e+00  -2.003536e+00
   2.509417e+01   2.432030e+01
   3.258208e+00   2.701583e+01
  -9.682447e+00   2.379834e+01
  -4.604543e+01  -3.514460e+01
   2.234167e+00   1.347779e+01
  -1.134677e+01  -3.874192e+01
  -2.402384e+01   3.122287e+01
  -8.465785e+01  -8.541285e-01
  -1.229501e+01  -5.454551e+01
   4.557231e-01  -7.602673e+01
   6.864333e+01  -1.269976e+02
   1.311540e+02  -1.017351e+01
   9.083368e+01   6.919477e+01
  -1.794038e+01   6.796150e+01
  -7.825690e+01   5.523553e+01
  -1.027765e+01  -1.378460e+01
   6.355062e+01   7.354308e+00
   1.195726e+02   4.132545e+01
   8.259502e+01   1.266573e+02
  -4.071824e+01   7.699932e+01
  -1.404815e+02   5.415027e+01
  -1.282631e+02  -1.004028e+01
  -5.634589e+01  -5.388757e+01
   3.619848e+01  -3.750577e+01
   5.012986e+01   1.566214e+01
   8.097172e+00  -1.835362e+01
  -4.451658e+01  -5.802822e+01
  -2.741456e+01  -6.958158e+01
   8.302764e+01  -7.874769e+01
   1.226050e+02  -1.255387e+00
   3.873411e+01   5.888379e+01
  -1.159489e+01   1.388092e+02
  -6.994478e+01   6.990057e+01
  -9.247360e+01  -9.260939e+00
  -1.355105e+01  -7.843715e+01
   3.291856e+01  -7.405907e+01
   4.827058e+01  -2.039255e+01
   9.457188e+01   1.496219e+01
   1.016003e+01  -1.550899e+01
   1.552174e+01   1.743937e+01
   2.492953e+01  -9.196273e+00
   6.707295e+01   8.379457e+01
   6.938910e+01   1.041220e+02
  -9.371268e+00   4.268086e+01
  -8.901188e+01  -5.949729e+01
  -9.427508e+01  -6.199257e+01
  -1.463925e+00  -3.169798e+01
   7.441274e+01  -2.494488e+01
   3.085812e+01  -1.747516e+01
  -7.297337e+00   2.145283e+01
  -4.210181e+01   2.204251e+01
   1.920279e+01   2.244597e+01
   3.741440e+01   8.820554e+00
  -1.266994e+01  -4.516036e+00
  -2.108285e+01   2.743675e+00
  -9.376243e+01  -5.132408e+01
   2.821505e+00  -9.546545e+01
   1.004928e+02  -8.376635e+01
   1.326937e+02  -2.786793e+01
   1.550348e+02   5.338684e+01
   4.186822e+01   1.150921e+02
  -6.290086e+01   9.066283e+01
  -6.689895e+01   2.135299e+01
  -6.302080e+01   3.388476e+01
  -5.142787e+01   2.773595e+01
   1.706144e+01  -3.770693e+01
  -2.016443e+01  -2.866954e+01
  -1.858303e+01  -6.243055e+01
  -5.092220e+00  -5.185194e+01
   5.100741e+01  -4.004206e+01
   8.718743e+01   4.963702e+00
   3.510397e+01   8.612572e+01
  -9.217088e+00   7.690226e+01
  -4.848302e+01   1.405808e+01
  -4.690071e+01  -1.515953e+01
  -3.510278e+00  -3.241825e+01
   4.298764e+01  -3.747038e+00
   3.299718e+01  -9.109428e+00
  -1.841279e+01   3.170567e+01
  -2.493657e+01   3.456518e+01
  -1.034972e+01  -1.051728e+01
   3.073817e+01   3.280467e-01
   1.119037e+02   3.165775e+01
  -5.972680e+00  -1.251051e+01
  -8.278639e+01   1.980480e+01
  -1.007438e+02   3.276124e+01
  -3.402806e+01  -3.363828e+01
   2.028446e+01  -4.803006e+01
   1.816344e+01  -5.323297e+01
   4.624520e+01  -8.028107e+00
  -1.298846e+01   2.252784e+01
  -2.733709e+01   2.146790e+01
   4.923519e+00  -3.561222e+01
  -5.816890e+00  -4.673834e+01
  -2.959680e+01  -1.607870e+01
   2.490573e+01  -4.215304e+01
   2.811182e+01  -1.371145e+01
   1.850537e+01  -4.896373e+00
   2.445456e+01  -2.022773e+01
   2.407590e+01   2.061213e+01
  -5.050923e+00  -1.196760e+01
   2.950615e+01   8.687924e+00
  -1.799556e+00   3.252681e+00
  -4.864427e+00  -3.663236e+01
   3.577652e+01  -2.546953e+01
   2.580154e+01  -1.435568e+01
   6.511212e+01   4.824337e+01
   4.614672e+00   2.783805e+01
  -6.271790e+01  -3.515920e+00
  -3.596892e+01  -9.601237e+00
  -2.711352e+01  -4.543545e+01
   2.843209e+01   1.096280e+00
   1.610550e+01  -1.832551e+01
   3.799594e+01   1.331023e+01
  -3.009135e+01  -1.379360e+01
  -3.915855e+01   1.330985e+01
   2.918079e+01  -2.513597e+01
   1.719841e+01  -2.395063e+01
