
 $NMID
 id='ANONYMOUS ', fmtdat='(2E16.6)'
 volume=1.0
 tramp=1.0
 $END
  -4.639635e+03   8.148474e+01
  -2.814303e+03  -2.825132e+03
   7.247439e+02  -2.855209e+03
   2.339731e+03  -8.634828e+02
   9.765569e+02   8.309222e+02
  -6.768199e+02   6.938228e+02
  -8.060876e+02  -4.402036e+02
  -6.555670e+01  -1.038809e+03
   8.271483e+02  -7.234355e+02
   1.040529e+03   2.034938e+02
   5.467959e+02   1.057458e+03
  -1.944225e+02   9.717167e+02
  -5.301215e+02   1.210392e+02
  -3.444795e+02  -6.056997e+02
   3.287830e+02  -8.066948e+02
   6.375456e+02  -6.667885e+01
   9.587760e+01   7.191338e+02
  -3.044738e+02   6.186641e+02
  -6.516981e+02   2.207966e+01
  -4.129885e+02  -3.230548e+02
   1.182201e+02  -4.087321e+02
   4.331402e+02  -2.459097e+02
   3.174787e+02   4.918135e+00
  -1.371938e+02   2.458837e+02
  -4.412859e+02  -1.766697e+02
  -1.565067e+02  -3.300800e+02
   4.093136e+02  -4.129231e+02
   8.281050e+02  -5.221981e+01
   4.090079e+02   6.396108e+02
  -4.521545e+02   5.197159e+02
  -8.660862e+02  -2.661926e+01
  -4.571477e+02  -5.181317e+02
   2.468738e+02  -5.954255e+02
   6.223056e+02  -2.139651e+02
   4.487589e+02   3.232316e+02
   4.791029e+01   5.204207e+02
  -2.534053e+02   4.157677e+02
  -2.841995e+02  -2.363563e+02
   2.188769e+02  -5.306746e+02
   5.161337e+02   2.122280e+01
   2.463256e+02   6.927069e+02
  -3.865571e+02   7.552804e+02
  -6.740501e+02  -1.084105e+02
  -2.516812e+02  -7.133255e+02
   3.580065e+02  -3.881132e+02
   4.657725e+02   3.894270e+02
   4.410812e+00   5.595162e+02
  -5.384323e+02   1.563960e+02
  -5.984649e+02  -5.067932e+02
  -1.426279e+02  -6.232931e+02
   3.933185e+02  -3.803543e+02
   7.583989e+02   9.798912e+01
   3.863826e+02   4.716705e+02
  -1.785349e+02   4.227350e+02
  -5.239923e+02   8.410408e+01
  -2.640923e+02  -2.319229e+02
   1.608972e+02  -6.517407e+01
   1.529629e+02   1.605594e+02
  -2.072982e+02   1.892883e+02
  -3.420986e+02  -1.039672e+02
  -9.657115e+01  -3.532106e+02
   2.275023e+02  -2.393070e+02
   3.700651e+02  -4.368868e+01
   2.058456e+02   1.135544e+02
  -3.783379e+01   2.387739e+02
  -2.510341e+02   3.552122e+02
  -3.515200e+02   1.938015e+02
  -2.613662e+02  -1.149633e+02
  -3.835823e+01  -4.391850e+02
   1.493598e+02  -3.098474e+02
   9.218817e+01  -9.242618e+01
   1.363333e+01   2.247229e+00
   4.615577e+01  -1.278265e+02
   1.564108e+02  -1.506433e+02
   2.509017e+02   9.047615e+01
   1.923946e+02   3.348207e+02
  -2.371189e+01   3.309141e+02
  -2.361486e+02   4.366362e+01
  -2.615036e+02  -2.842434e+02
  -4.321248e+01  -3.679931e+02
   3.041805e+02  -1.612520e+02
   4.204030e+02   1.807140e+02
   2.465568e+02   4.208388e+02
  -9.136009e+01   3.064764e+02
  -2.740449e+02   1.001666e+02
  -1.132726e+02  -5.791623e+01
  -7.660977e+01   1.775143e+01
  -2.043947e+02   1.302853e+02
  -4.725516e+02  -5.032995e+01
  -3.436827e+02  -2.795639e+02
  -2.200484e+01  -4.689190e+02
   4.014743e+02  -3.670263e+02
   5.474911e+02  -2.424400e+02
   3.486038e+02   9.751436e+01
   4.416340e+01   3.030380e+02
  -1.936150e+02   2.751510e+02
  -1.415454e+02   3.590315e+01
   1.355885e+02  -1.317225e+02
   2.607451e+02   2.449795e+01
   5.934550e+01   2.092438e+02
  -2.428876e+02   1.477616e+02
  -2.130203e+02  -1.251409e+02
   2.985487e+01  -2.332801e+02
   2.623356e+02  -6.825909e+01
   1.149020e+02   2.699766e+02
  -2.859366e+00   3.239314e+02
  -2.232816e+02   2.044581e+02
  -3.087863e+02  -7.310612e+01
  -3.118632e+02  -2.821317e+02
  -8.708523e+01  -3.064512e+02
   8.324402e+01  -1.672864e+02
   1.592644e+02   3.612828e+01
   1.064435e+02   6.268732e+01
  -6.507328e+01  -1.420524e+01
  -2.540482e+01  -1.181278e+02
   7.456544e+01  -1.174978e+02
   1.488031e+02   3.886182e+01
   3.119309e+01   8.550972e+01
  -1.484885e+02   3.532313e+00
  -1.002227e+02  -1.222685e+02
   9.461273e+01  -1.274909e+02
   3.498183e+02  -4.016527e+01
   3.071605e+02   1.236664e+02
   9.312363e+01   2.357725e+02
  -1.902449e+02   3.130239e+02
  -3.352962e+02   1.615830e+02
  -1.584557e+02  -7.431083e+01
   2.894059e+01  -1.684933e+02
   1.357306e+02  -6.661259e+00
  -1.875095e+00   1.151867e+02
  -2.093605e+02   8.237028e+01
  -2.206280e+02  -1.386012e+02
  -6.218530e+01  -2.226233e+02
   1.028612e+02  -1.979660e+02
   1.116010e+02   2.522404e+01
   6.270966e+01   5.091193e+01
  -1.907140e+01   4.260266e+01
  -1.482980e+01  -1.110204e+02
   5.666281e+01  -1.162807e+02
   2.293240e+02  -5.391758e+01
   1.685078e+02   1.496027e+02
   3.991130e+01   2.427987e+02
  -2.344132e+02   1.914775e+02
  -2.615730e+02  -5.000311e+00
  -8.085232e+01  -1.503518e+02
   7.023501e+01  -1.069923e+02
   1.299293e+02  -1.320700e+01
   1.358435e+00  -2.004666e+01
  -1.310944e+01  -1.304979e+01
   9.863922e+00  -4.463185e+01
   9.479709e+01   5.756250e+01
   6.986467e+01   1.579211e+02
   4.968136e+01   1.723677e+02
  -1.045663e+02   1.428532e+02
  -2.447546e+02   1.498589e+01
  -2.285232e+02  -1.653550e+02
  -3.066303e+01  -2.720119e+02
   1.124245e+02  -1.642098e+02
   1.024638e+02  -1.170672e+01
   5.245770e+01   6.817033e+01
   3.107596e+01   6.499365e+01
   5.559234e+01  -1.167578e+01
   8.112838e+01  -4.370667e+01
   5.274895e+01   2.140233e+01
  -4.993495e+01   5.259673e+01
  -1.051186e+02   6.767244e+01
  -1.087167e+02  -1.236823e+01
  -5.517312e+00  -8.047046e+01
   1.398186e+02  -6.594477e+01
   1.845602e+02   8.590899e+01
   1.106990e+02   2.049368e+02
  -1.247432e+02   2.180200e+02
  -2.981962e+02   9.486348e+01
  -2.894879e+02  -1.217434e+02
  -1.150458e+02  -2.038706e+02
   1.192061e+02  -1.328254e+02
   1.096867e+02  -3.858331e+01
   7.774308e+01  -8.665426e+01
   7.312230e+01  -1.050255e+02
   7.376446e+01  -8.125155e+01
   1.411851e+02   7.949386e+01
   9.343895e+01   1.783157e+02
   2.120174e+01   2.493447e+02
  -9.940726e+01   1.365425e+02
  -1.939499e+02   3.842959e+00
  -1.762783e+02  -1.498688e+02
   8.999728e+00  -1.818167e+02
   1.145551e+02  -1.123997e+02
   1.003982e+02  -1.667567e+01
   4.072545e+01   5.912639e+01
  -9.405500e+00   1.235841e+01
   3.029075e+01   4.293347e+01
   5.130214e+01   2.629981e+01
   4.606177e+01   4.312511e+01
  -6.954783e+01   4.249709e+01
  -1.222114e+02   1.023004e+01
  -1.772475e+02  -2.747526e+01
  -2.383497e+01  -6.914057e+01
   1.077443e+02  -3.353398e+01
   1.491516e+02   4.750852e+01
   4.730213e+01   2.074286e+01
  -7.341637e+01  -7.018895e+00
  -9.538360e+01  -5.884859e+01
  -2.584745e+01  -4.278461e+01
   4.753885e+01  -7.608893e+01
   5.850296e+01  -5.359361e+01
   1.020730e+02   6.049946e+01
   8.230727e+01   3.303276e+01
   3.268060e+01  -1.144981e+01
   1.526790e+01   3.866268e+01
  -2.205501e+00   7.846025e+01
  -3.769339e+01   1.017857e+02
  -1.107055e+02   1.325062e+02
  -1.742569e+02   3.361516e+01
  -9.458513e+01  -6.816338e+01
  -1.069550e+01  -1.272199e+02
   7.330045e+01  -9.246002e+01
   6.456508e+01   1.335794e+01
  -5.675105e+01   2.261758e+01
  -1.569825e+02  -2.862352e+01
  -8.732207e+01  -1.088636e+02
   8.302075e+01  -7.333154e+01
   1.768684e+02  -2.621541e+01
   1.763958e+02   4.185619e+00
   2.065115e+01   7.034457e+01
  -1.004168e+02   5.833487e+01
  -5.700681e+01   3.627270e+01
   3.700246e+01  -4.104168e+01
   9.350417e+01   1.252901e+01
   4.469663e+01   1.312638e+02
  -7.570583e+01   1.589655e+02
  -1.542193e+02   2.880601e+01
  -1.041941e+02  -1.115241e+02
   1.041783e+01  -2.087240e+02
   1.006392e+02  -1.471053e+02
   9.416536e+01   2.712776e+01
   7.333043e+01   1.231473e+02
  -2.409587e+01   9.252304e+01
  -6.216264e+01   3.935881e+01
  -5.042451e+01  -8.590188e+01
  -5.462743e+01  -2.862419e+01
  -6.123809e+00   1.525343e+01
  -8.924345e+01   3.727960e+01
  -5.770697e+01  -7.862171e+01
  -3.941597e+01  -1.253600e+02
   6.507855e+01  -7.177262e+01
   1.205590e+02   5.043685e+01
   9.419328e+01   6.354260e+01
  -6.777144e+00   4.615240e+01
  -8.533253e+01   7.130258e+01
  -6.370227e+01  -3.011665e+01
  -6.646453e+00  -2.136638e+01
   1.941251e+01  -7.017767e+01
   2.977567e+01  -5.594531e+01
  -1.175792e+00  -1.980651e+01
   7.216391e+00   5.350549e+01
   4.921866e+01   1.009842e+01
   8.365756e+01   6.624608e+01
   5.380241e-01   1.200979e+02
  -7.031911e+01   1.102069e+02
  -1.955235e+02   3.983461e+01
  -1.547307e+02  -1.291702e+02
  -9.470450e+01  -1.792492e+02
   7.481543e+01  -1.552314e+02
   1.096765e+02  -4.479856e+01
   1.266285e+02   4.344472e+01
   1.794114e+01   7.050590e+01
   9.200449e+00   9.715681e+00
   4.800191e+00   5.818152e+00
  -1.037440e+01   3.718646e+01
  -1.886412e+01   3.728339e+01
  -6.333799e+01   5.634156e+01
  -7.795321e+01  -6.393854e+00
  -8.023916e+01  -1.051597e+02
   8.703072e+00  -7.727691e+01
   1.134923e+02  -4.286105e+01
   1.020127e+02   3.462468e+01
   7.990836e+01   1.060584e+02
  -1.137305e+02   6.123843e+01
  -1.216664e+02  -1.172155e+00
  -5.248939e+01  -4.038117e+01
   5.558952e+01  -4.714061e+01
   4.892562e+01  -1.080484e+01
  -5.148341e+00  -2.784105e+01
  -7.322091e+01   2.035400e+00
  -1.530725e+01  -2.169854e+01
   8.052173e+01  -4.931756e+01
   9.085632e+01  -5.593792e+01
   1.119965e+02   5.218119e+01
  -2.351173e+01   9.929149e+01
  -1.099736e+02   7.844234e+01
  -7.161329e+01  -5.595205e+00
  -5.251915e+01  -7.921239e+01
   3.605959e+01  -7.642402e+01
   3.758768e+01   1.266477e+01
   5.144592e+01   5.877576e+01
  -1.183306e+01   3.040541e+01
  -1.611309e+01  -1.014239e+01
  -6.131551e+01  -6.345494e+00
  -6.771876e+00  -1.130436e+01
  -1.070113e+01   2.803647e+01
  -1.844875e+01   1.616681e+01
   1.392973e+01  -3.830427e+01
   3.270287e+01  -5.835831e+01
   5.601997e+01  -2.292121e+01
  -6.938296e+00   1.322647e+01
  -2.388111e+01   3.768291e+01
  -5.965554e+01  -1.273385e+01
  -4.494687e+01  -4.828322e+01
  -4.167090e+01  -6.486779e+01
   5.586756e+01  -3.646254e+01
   1.080691e+02   2.427326e+01
   4.762503e+01   4.683734e+01
  -3.954010e+01   3.281232e+01
  -5.583952e+01   1.605266e+01
  -4.741425e+01   3.585089e-01
   6.212609e+01  -2.043873e+01
   4.836849e+01   3.117966e+00
   1.912624e+01   3.663611e+01
  -8.440156e+01   3.402415e+01
