
 $NMID
 id='ANONYMOUS ', fmtdat='(2E16.6)'
 volume=1.0
 tramp=1.0
 $END
   4.696264e+03   9.651195e+01
   2.948726e+03   2.812461e+03
  -6.152946e+02   2.853226e+03
  -2.270673e+03   9.860810e+02
  -8.902687e+02  -5.966195e+02
   7.768993e+02  -3.734140e+02
   9.920199e+02   5.451191e+02
  -3.996366e+01   1.089359e+03
  -7.688891e+02   8.732519e+02
  -1.035511e+03  -1.583355e+02
  -4.369775e+02  -9.539123e+02
   1.577660e+02  -1.071458e+03
   4.828085e+02   6.178686e+00
   4.410447e+02   6.801548e+02
  -2.342313e+02   6.409578e+02
  -4.968263e+02   1.296712e+01
  -2.898826e+02  -7.320582e+02
   3.342014e+02  -5.471782e+02
   5.141661e+02  -1.956882e+02
   4.718913e+02   4.143317e+02
  -2.964111e+01   3.995174e+02
  -1.913080e+02   1.816429e+02
  -3.814829e+02  -2.389845e+01
   8.407839e+01  -5.283010e+01
   3.583203e+02   9.321177e+00
   2.477146e+02   4.799425e+02
  -4.889790e+02   4.737338e+02
  -1.024637e+03  -6.376486e+01
  -4.260418e+02  -6.769144e+02
   4.431337e+02  -4.873822e+02
   8.300611e+02   2.998179e+01
   3.226408e+02   3.545368e+02
  -3.161259e+02   6.524840e+02
  -4.959995e+02   1.859391e+02
  -3.924830e+02  -2.847823e+02
  -5.734186e+01  -5.025439e+02
   1.753293e+02  -3.956004e+02
   2.034287e+02   2.057769e+02
  -1.682042e+02   4.891291e+02
  -4.898995e+02  -1.092996e+01
  -2.699361e+02  -7.832217e+02
   2.805424e+02  -7.072695e+02
   6.637883e+02   8.097693e+01
   2.869022e+02   6.489487e+02
  -2.594080e+02   2.948846e+02
  -3.970865e+02  -3.696940e+02
   4.080292e+01  -6.281624e+02
   5.429240e+02  -1.138884e+02
   6.338366e+02   4.307720e+02
   2.153983e+02   6.165082e+02
  -3.891536e+02   3.499215e+02
  -6.620028e+02  -7.105400e+01
  -3.841868e+02  -4.024362e+02
   1.634750e+02  -3.979202e+02
   4.816133e+02  -5.784353e+01
   2.636109e+02   1.951295e+02
  -9.738700e+01   1.014912e+02
  -1.038258e+02  -1.002819e+02
   1.904153e+02  -1.514967e+02
   3.299004e+02   9.685192e+01
   1.113740e+02   2.970228e+02
  -2.216762e+02   2.488386e+02
  -3.573187e+02   7.610234e+01
  -2.060154e+02  -4.931004e+01
   7.486333e+00  -2.197502e+02
   1.983871e+02  -3.476495e+02
   3.308912e+02  -2.308029e+02
   3.240572e+02   1.253072e+02
   5.899205e+01   4.087571e+02
  -1.291540e+02   3.499301e+02
  -1.048947e+02   9.998207e+01
   1.990272e+01  -1.049763e+01
  -6.238337e+01   1.036025e+02
  -2.233653e+02   1.492484e+02
  -2.853104e+02  -5.071636e+01
  -1.453855e+02  -2.714648e+02
   1.693334e+02  -2.356383e+02
   2.345013e+02  -5.938593e+00
   1.195951e+02   2.603403e+02
  -4.948554e+01   3.211337e+02
  -3.099623e+02   9.311202e+01
  -3.820744e+02  -2.021949e+02
  -2.002398e+02  -3.468827e+02
   1.172714e+02  -3.198886e+02
   2.251637e+02  -1.124584e+02
   1.452555e+02  -4.538309e+01
   9.582032e+01  -5.304015e+01
   2.489247e+02  -6.132237e+01
   4.351479e+02   8.287463e+01
   3.751724e+02   3.287988e+02
   2.150724e+01   4.096858e+02
  -3.594817e+02   4.322826e+02
  -5.131689e+02   2.091715e+02
  -3.527622e+02  -1.259131e+02
  -4.188881e+01  -3.280041e+02
   1.453391e+02  -2.462837e+02
   1.159681e+02   1.087743e+01
  -1.280474e+02   1.815761e+02
  -2.058405e+02   2.745967e+01
  -7.956241e+01  -2.154665e+02
   1.430389e+02  -1.771884e+02
   1.630229e+02   5.668163e+01
  -1.848267e+01   2.250005e+02
  -1.524819e+02   6.914443e+00
  -1.452292e+02  -2.304462e+02
   3.237096e+01  -3.225765e+02
   2.250103e+02  -2.243536e+02
   3.146077e+02   5.037942e+01
   2.609259e+02   2.262958e+02
   1.403727e+02   3.101948e+02
  -7.192229e+01   2.125750e+02
  -1.766456e+02   2.186198e+01
  -8.354499e+01  -4.330833e+01
   3.976899e+01   7.443919e+01
   4.735605e+01   1.483825e+02
  -9.686930e+01   1.235034e+02
  -1.885355e+02  -3.509202e+01
  -8.261618e+01  -1.131736e+02
   5.707860e+01  -5.077838e+01
   7.469650e+01   6.006348e+01
  -1.021370e+02   1.069660e+02
  -2.409485e+02  -2.208210e+01
  -2.506881e+02  -1.828579e+02
  -5.722699e+01  -2.840806e+02
   2.013159e+02  -2.554830e+02
   3.523933e+02  -1.084163e+02
   1.856757e+02   8.014185e+01
   1.503526e+00   1.190495e+02
  -7.605287e+01   4.221429e+00
   4.795035e+01  -1.117035e+02
   2.188364e+02  -5.480437e+01
   2.008921e+02   1.397722e+02
   7.019224e+01   1.969511e+02
  -7.432045e+01   1.604823e+02
  -1.343911e+02   2.073203e+01
  -4.730132e+01  -3.303253e+01
   1.205131e+01  -3.128139e-01
   3.471002e+01   6.358444e+01
  -7.508478e+01   7.855031e+01
  -1.711901e+02   3.508928e+01
  -1.431030e+02  -1.100556e+02
  -2.314399e+01  -2.129167e+02
   1.363791e+02  -1.863933e+02
   1.701498e+02  -1.110192e+01
   2.778634e+01   1.170797e+02
  -4.258891e+01   1.134228e+02
  -7.100183e+01   4.207085e+01
  -2.217533e+01  -2.653408e+01
   1.360603e+01  -1.559854e+01
  -3.141094e+01  -1.056050e+01
  -7.051703e+01  -3.306944e+01
  -8.815892e+01  -1.224841e+02
  -1.342318e+01  -1.723133e+02
   1.486368e+02  -1.447820e+02
   2.442605e+02   3.004427e+01
   1.710843e+02   2.049277e+02
   5.948338e+01   2.114076e+02
  -1.277267e+02   1.397478e+02
  -1.066786e+02   1.903134e+01
  -2.049993e+01  -7.207826e+01
  -3.628171e+01  -3.603114e+01
  -6.849840e+01   1.028585e+01
  -7.714392e+01  -4.950950e+00
  -5.091690e+01  -4.886489e+01
   5.270576e+01  -5.761077e+01
   1.152178e+02  -5.320190e+01
   9.872453e+01   1.060475e+01
  -3.067175e+01   1.537453e+02
  -1.801065e+02   1.096890e+02
  -2.165060e+02  -2.816812e+01
  -1.181781e+02  -2.070954e+02
   1.071214e+02  -2.773395e+02
   2.631121e+02  -1.286747e+02
   2.686776e+02   7.432432e+01
   1.322714e+02   1.662404e+02
  -4.884168e+01   1.557037e+02
  -8.025292e+01   1.435275e+02
  -8.015795e+01   1.106236e+02
  -1.058533e+02   1.271948e+02
  -9.894860e+01   5.055758e+01
  -1.244945e+02  -2.147153e+01
  -1.443460e+02  -1.957039e+02
  -5.300534e+01  -1.826504e+02
   7.866186e+01  -1.402118e+02
   2.077598e+02   5.296753e+00
   1.000150e+02   1.342537e+02
  -1.268017e+01   1.281600e+02
  -3.960581e+01   4.724940e+01
  -2.340262e+01  -3.312460e+01
   1.430924e+01  -9.219080e+01
  -4.110053e+00   2.875790e+00
  -4.635521e+01   5.501103e+00
  -9.094948e+01  -3.858164e+01
  -2.311808e+01  -5.896471e+01
   6.824696e+01  -3.431779e+01
   1.403121e+02  -1.733046e+01
   1.684689e+02   7.888236e+01
   2.533061e+01   1.183858e+02
  -1.059970e+02   9.399119e+01
  -1.470061e+02   2.668395e+01
  -4.314446e+01  -3.683930e+01
   4.222671e+01  -5.792210e+01
   7.562334e+01   3.412677e+01
   1.707451e+01   7.466006e+01
  -3.128253e+01   3.633619e+01
  -5.378661e+01  -4.705013e+01
  -3.715640e+01  -2.706516e+01
  -2.205760e+01  -5.553307e+01
  -4.909750e+01   2.890497e+01
  -4.274219e+01   1.961041e+01
  -5.263182e+01  -2.896887e+01
   4.513198e+00  -1.339974e+02
   8.909748e+01  -1.532819e+02
   1.652678e+02  -1.181191e+01
   9.034314e+01   8.050531e+01
   7.168063e+00   1.249775e+02
  -5.528983e+01   5.970758e+01
  -8.577543e+01   4.246209e+00
   6.596614e+01  -2.681909e+01
   1.204548e+02   3.168263e+00
   5.263838e+01   9.681870e+01
  -1.135562e+02   1.248348e+02
  -1.492186e+02   6.595511e+01
  -2.172198e+02  -3.229044e+01
  -3.078915e+01  -8.454451e+01
   9.850982e+01  -1.110349e+02
   6.446437e+01  -3.052057e+01
  -1.291635e+01   4.784426e+01
  -9.397234e+01  -2.336647e+01
  -2.863431e+01  -1.441277e+02
   7.574661e+01  -1.947344e+02
   1.725099e+02  -7.910053e+01
   1.287631e+02   9.416959e+01
   3.550115e+01   1.773413e+02
  -4.171974e+01   1.530242e+02
  -6.873038e+01  -2.119686e+01
  -8.504881e+01  -7.847991e+01
  -2.008184e+01  -1.275773e+02
   4.757109e+01  -1.307792e+01
   5.457872e+01   1.756755e+01
   3.677777e+01   2.012989e+01
   8.989201e+00   3.839185e+01
  -1.183864e+01   6.428787e-01
   2.343962e+01   7.954918e+01
   2.685994e+01   1.174713e+02
  -3.938983e+01   1.745107e+01
  -1.324969e+02  -4.276204e+01
  -1.180721e+02  -1.137442e+02
  -2.731268e+01  -8.821583e+01
   9.847532e+01  -4.730813e+01
   1.208958e+02   3.002989e+00
  -6.201652e+00  -2.438483e+01
  -3.859771e+01   4.918465e+01
  -6.218648e+00   3.230455e+01
   7.564410e+00   1.505868e+01
  -1.879384e+01  -1.536206e+01
  -6.583534e+01   1.335140e+01
  -9.425269e+01  -9.770992e+00
  -1.242694e+01  -8.414736e+01
   9.387654e+01  -1.368458e+02
   1.328448e+02  -7.516894e+01
   1.266141e+02   7.563500e+01
   8.203188e+01   1.359850e+02
  -3.202785e+01   1.543593e+02
  -1.324071e+02   7.529437e+01
  -6.585425e+01  -1.240482e+01
  -1.737055e+01  -1.221310e+01
  -1.684774e+01   6.335189e+00
  -1.385698e+01  -3.109829e+01
   1.634882e+01  -3.364090e+01
   9.104038e+00  -9.638604e+01
   2.210713e+01  -6.460631e+01
   7.690003e+01   4.525974e+01
   6.536608e+01   8.032214e+01
   1.579107e+00   1.265592e+02
  -5.404115e+01   2.908778e+01
  -9.397230e+01  -6.388511e+01
  -4.555691e+01  -9.965037e+01
   1.049284e+02  -4.834795e+01
   4.819140e+01   9.237608e-03
   3.333810e+01   6.329161e+01
   8.810087e-02   6.815432e+01
   4.132100e+00   2.924342e+01
   3.545980e+01   1.673361e+01
   5.887070e+01   2.397651e+01
   2.859289e+01   1.750768e+01
  -6.374414e+01   5.557452e+01
  -1.141301e+02   6.337831e+01
  -6.985467e+01  -5.000671e+01
   5.332815e+00  -8.997234e+01
   3.863648e+01  -7.567466e+01
   2.102883e+01  -1.552667e+01
  -1.065589e+01   3.531345e+01
   4.572649e-01   3.811826e+01
  -5.726674e+00  -4.573127e+01
   1.942011e+01  -5.666453e+01
   2.312716e+01  -3.727505e+01
   3.232332e+01   4.929788e+01
   3.486968e+01   3.552441e+00
   1.142162e+01   4.866132e+01
   6.045517e+00  -2.233980e+01
   3.782687e+00  -2.756190e+01
  -1.007962e+00   6.520589e+01
   1.976928e+01   5.114168e+01
  -2.187694e+01  -6.945267e+00
  -4.117495e+01  -5.074603e+01
   4.691362e+01  -9.772176e+01
   2.210347e+01  -4.563364e+01
   2.516762e+01   4.396314e+01
   1.864708e+01   2.402909e+01
  -4.049182e+01   6.135572e-01
  -9.537117e+01  -1.935542e+01
  -5.407805e+01  -3.321749e+01
   1.649375e+01   4.674636e+00
   8.712768e+01  -6.538334e+00
   6.443752e+01  -2.931115e+01
  -2.063631e+01  -2.538558e+01
  -3.913318e+01   1.331902e+01
   4.473583e+01  -1.652898e+01
   8.500296e+01  -3.846024e+00
