
 $NMID
 id='ANONYMOUS ', fmtdat='(2E16.6)'
 volume=1.0
 tramp=1.0
 $END
   3.787601e+03   9.057225e+01
   2.235642e+03   2.247298e+03
  -5.065060e+02   2.750871e+03
  -1.927295e+03   8.826728e+02
  -9.500705e+02  -4.929729e+02
   4.142745e+02  -5.003365e+02
   8.125795e+02   3.955080e+02
   4.794015e+01   9.159311e+02
  -7.818868e+02   8.177768e+02
  -8.700989e+02   7.244822e+01
  -5.452397e+02  -8.230719e+02
   2.827431e+02  -6.326997e+02
   4.710895e+02  -2.291956e+02
   3.808290e+02   6.152522e+02
  -1.284502e+02   8.014898e+02
  -5.319494e+02   6.797923e+01
  -3.432682e+02  -6.220652e+02
   1.822563e+02  -5.029360e+02
   8.419718e+02  -6.387865e+01
   3.446402e+02   1.746687e+02
   7.529678e+01   3.749268e+02
  -1.397075e+02   3.287535e+02
  -5.521931e+01  -3.985693e+01
   8.249801e+01  -1.636652e+01
   3.508178e+02   1.496993e+02
   2.253902e+02   3.725931e+02
  -3.914483e+02   3.764844e+02
  -7.019261e+02  -5.598062e+01
  -3.676759e+02  -5.017480e+02
   2.850088e+02  -4.917542e+02
   5.571825e+02  -4.203710e+01
   2.394055e+02   5.146331e+02
  -2.768531e+02   4.246251e+02
  -6.093332e+02   2.348845e+02
  -4.494712e+02  -2.022156e+02
  -9.492843e+01  -4.149787e+02
   1.919759e+02  -3.033200e+02
   1.457505e+02   1.852354e+02
  -1.169890e+02   3.963643e+02
  -4.565216e+02  -2.648495e+01
  -2.926017e+02  -6.626881e+02
   3.322994e+02  -6.331545e+02
   6.090882e+02  -4.044777e+01
   2.307228e+02   4.995489e+02
  -3.322062e+02   3.017811e+02
  -3.061968e+02  -3.569552e+02
   7.858017e+01  -5.535326e+02
   6.017024e+02  -1.650561e+02
   6.085043e+02   4.005707e+02
   1.553544e+02   5.614250e+02
  -3.668796e+02   3.534934e+02
  -6.015984e+02  -3.724982e+01
  -3.018378e+02  -3.437666e+02
   1.244457e+02  -2.742560e+02
   3.962734e+02  -7.509576e+01
   2.247463e+02   1.548423e+02
  -1.135637e+02   6.827125e+01
  -1.306429e+02  -1.254024e+02
   1.688132e+02  -1.564705e+02
   3.837819e+02   6.255915e+01
   1.722830e+02   3.055263e+02
  -1.915227e+02   2.536932e+02
  -3.310682e+02   8.051810e+01
  -1.970315e+02  -1.027858e+02
   6.500308e+01  -2.348720e+02
   2.313778e+02  -3.009168e+02
   3.402984e+02  -1.917092e+02
   2.998025e+02   1.404134e+02
   1.269241e+02   4.126475e+02
  -5.905973e+01   3.748052e+02
  -9.325319e+01   1.973179e+02
  -4.022420e+01   8.000200e+01
  -8.605554e+01   1.504545e+02
  -2.325460e+02   1.788644e+02
  -3.039282e+02  -5.388903e+01
  -1.369303e+02  -2.653135e+02
   4.799323e+01  -2.142252e+02
   2.403722e+02  -8.354476e+00
   1.731881e+02   2.214580e+02
  -5.179480e+01   2.823450e+02
  -2.433619e+02   1.298540e+02
  -3.903388e+02  -8.743184e+01
  -1.945651e+02  -3.547684e+02
   5.804960e+01  -3.100509e+02
   2.024652e+02  -1.366238e+02
   1.345839e+02   1.725381e+01
   8.554049e+01  -4.067857e+01
   2.218813e+02  -3.335913e+01
   3.536148e+02   5.329006e+01
   3.151246e+02   2.575172e+02
   5.416181e+00   4.539303e+02
  -3.601537e+02   4.087916e+02
  -4.852604e+02   2.096677e+02
  -3.316430e+02  -6.982600e+01
  -8.066193e+01  -2.787039e+02
   6.562589e+01  -2.593398e+02
   3.205173e+01  -5.475861e+01
  -1.347343e+02   8.116315e+01
  -1.684266e+02  -4.011906e+00
  -6.474505e+01  -2.394812e+02
   1.525086e+02  -2.097144e+02
   1.350085e+02   3.982475e+01
  -2.942677e+01   1.808953e+02
  -1.544654e+02   4.000507e+01
  -1.532304e+02  -2.300468e+02
   3.393626e+01  -3.502649e+02
   1.872452e+02  -2.354915e+02
   3.830009e+02   8.663552e+00
   3.207441e+02   2.422884e+02
   1.104135e+02   2.623012e+02
  -1.442046e+02   1.537767e+02
  -2.129114e+02   1.659378e+01
  -7.172373e+01  -5.559510e+01
   7.546410e+01   7.845222e+00
   4.282582e+01   1.195123e+02
  -9.899590e+01   1.222922e+02
  -1.747137e+02  -2.368592e+01
  -9.597319e+01  -6.736522e+01
   7.570009e+01  -6.667657e+01
   8.969854e+01   6.781129e+01
  -1.116513e+02   1.143880e+02
  -2.203250e+02   3.119812e+01
  -2.512859e+02  -1.004228e+02
  -7.013190e+01  -2.469629e+02
   1.420631e+02  -2.721909e+02
   2.577209e+02  -1.319760e+02
   1.617742e+02   3.209695e+01
  -2.198740e+01   1.225799e+02
  -4.831803e+01   2.108336e+01
   4.948103e+01  -8.938756e+01
   1.903373e+02  -6.411787e+01
   1.915890e+02   1.159692e+02
   6.830451e+01   2.103688e+02
  -1.089349e+02   1.583980e+02
  -1.581354e+02   7.769857e+01
  -2.863987e+01  -7.453385e+01
   8.341515e+01  -2.021190e+00
   8.315196e+01   1.428877e+02
  -9.556319e+01   1.801510e+02
  -2.098650e+02   2.267795e+01
  -2.648375e+02  -1.426871e+02
  -4.426196e+01  -2.183874e+02
   1.357701e+02  -1.712586e+02
   1.957047e+02  -3.223327e+01
   4.443687e+01   7.792249e+01
  -5.949213e+01   6.715454e+01
  -3.340806e+01   7.011601e-01
   5.497973e+01  -1.322760e+01
   5.796039e+01  -4.866378e+00
   9.981191e+00   5.134431e+01
  -8.499730e+01   4.184805e+01
  -1.649116e+02  -4.953604e+01
  -3.968574e+01  -1.606284e+02
   1.392578e+02  -1.832404e+02
   2.262408e+02  -8.264095e+01
   2.024589e+02   1.443189e+02
   3.389328e+01   2.286797e+02
  -1.044217e+02   1.985682e+02
  -1.528907e+02   4.598268e+01
  -7.999297e+01  -3.955570e+01
  -1.960297e+00  -6.088100e+01
  -2.130815e+01  -9.424534e+00
  -7.862698e+01   3.178261e+01
  -5.601649e+01  -2.403157e+01
   2.854018e+01  -4.443729e+01
   9.751072e+01  -1.253504e+02
   8.844232e+01   1.938961e+01
  -2.530824e+01   9.991867e+01
  -1.471518e+02   1.295454e+02
  -1.757187e+02  -3.621923e+01
  -1.304638e+02  -1.883355e+02
   8.335340e+01  -2.716534e+02
   2.658933e+02  -1.121299e+02
   2.606998e+02   8.596826e+01
   1.553614e+02   1.784109e+02
   4.676614e-01   1.907503e+02
  -1.452623e+02   1.058497e+02
  -1.035596e+02   4.042145e+01
  -3.862065e+01   9.815184e+01
  -5.770027e+01   7.041779e+01
  -1.377910e+02  -3.510453e+01
  -1.183927e+02  -1.315191e+02
  -1.375498e+01  -2.508564e+02
   1.147262e+02  -1.678969e+02
   1.816722e+02  -1.307649e+01
   1.301787e+02   1.010458e+02
   2.982932e+01   1.675161e+02
  -7.703101e+01   8.538743e+01
  -9.484502e+01   1.154644e+01
   9.832297e+00  -4.478155e+01
   8.067453e+00  -1.819307e+01
   3.579080e+00  -4.710711e+01
  -4.857719e+01  -1.572958e+01
  -4.074999e+01  -5.845646e+01
   2.893317e+01  -7.706067e+01
   1.583383e+02   3.128547e+01
   1.386409e+02   5.662340e+01
  -1.983346e-01   4.089137e+01
  -1.319223e+02   6.632532e+01
  -1.560721e+02   2.065350e+01
   3.840614e+00  -5.704388e+01
   6.350392e+01  -3.279131e+01
   8.962272e+01   7.099114e-01
   3.249963e+01   5.845230e+01
  -2.028509e+01   8.975319e+01
  -6.684957e+01   4.260870e+00
  -6.783948e+01  -4.131257e+01
  -6.942097e+01  -2.873659e+01
  -7.412661e+01  -1.106610e+01
  -4.060759e+01  -1.278001e+01
  -2.287134e+01  -6.430593e+01
   2.913584e+01  -1.514992e+02
   1.114045e+02  -1.794875e+02
   1.624407e+02  -3.499651e+01
   1.401257e+02   7.054883e+01
   4.606974e+00   1.619541e+02
  -1.208120e+02   5.512706e+01
  -8.358004e+01   2.478304e+01
   5.023140e+01   7.923833e+00
   1.087522e+02   2.334430e+01
   8.943362e+01   9.205975e+01
  -2.095502e+01   9.407478e+01
  -1.497084e+02   3.719783e+01
  -1.228418e+02  -3.107870e+01
  -9.081093e+01  -5.725811e+01
   1.828966e+01  -4.397431e+01
   3.937056e+01  -5.341472e+00
  -1.674889e+01   5.660787e+01
  -1.095260e+02  -2.998046e+01
  -1.972382e+01  -1.053408e+02
   1.035667e+02  -1.761627e+02
   1.325078e+02  -9.017037e+01
   1.331844e+02   9.594768e+01
  -3.352822e+01   1.700875e+02
  -1.228925e+02   1.083151e+02
  -1.085990e+02  -9.802599e+00
  -1.297853e+01  -1.177224e+02
   2.436214e+01  -9.012384e+01
   6.453950e+01   3.895728e+00
   4.696641e+01   4.214905e+01
   2.716921e+01   1.039107e+01
  -9.474065e+00  -2.571717e+00
   4.979707e+01   2.126034e+01
   3.140191e+01   1.141123e+02
   3.861600e+01   1.187674e+02
  -4.386999e+01   3.315060e+01
  -9.694165e+01  -6.830903e+01
  -1.184552e+02  -5.237147e+01
  -4.884659e+01  -4.338266e+01
   5.838611e+01  -5.138085e+00
   9.287798e+01   1.715443e+01
   2.123781e+01   1.825369e+01
  -3.421241e+00   4.211816e+01
  -1.091014e+01   4.602085e+01
  -2.136724e+01   3.107366e+00
  -3.674601e+01  -2.869135e+01
  -1.200593e+02   9.344653e+00
  -1.042535e+02  -3.890808e+01
  -1.364608e+01  -8.574658e+01
   1.443965e+02  -9.908971e+01
   1.818223e+02  -5.529418e+01
   1.881785e+02   3.939904e+01
   3.484939e+01   1.182959e+02
  -6.842733e+01   1.066420e+02
  -1.175955e+02   3.578158e+01
  -1.041671e+02   2.918385e+01
   1.978243e+01  -2.908702e+01
   5.019320e+01  -1.257375e+01
   4.256277e+01  -1.311513e+01
  -1.804223e+01  -6.157016e+01
  -2.554269e+01  -5.754845e+01
   2.966042e+01  -7.873111e+01
   7.290486e+01   1.617076e+01
   7.086958e+01   1.069279e+02
   1.387531e+01   1.027419e+02
  -7.343081e+01   2.905086e+01
  -9.921592e+01  -7.247394e+01
  -4.075932e+01  -1.575972e+02
   4.389652e+01  -1.276021e+02
   1.193318e+02   7.045788e+00
   7.199439e+01   4.028683e+01
  -2.080084e+01   7.845190e+01
  -2.907749e+01   6.984907e+01
   1.378629e+01   2.185997e+01
   8.420300e+01  -3.087734e+01
   2.269295e+01  -1.868257e+00
  -7.928683e+01   7.010985e+01
  -1.017742e+02   2.803348e+01
  -9.681855e+01   2.876326e+01
  -2.020398e+01  -6.222589e+01
   4.102833e+01  -6.309445e+01
   5.863117e+01  -2.196161e+01
  -3.897030e+00   1.447759e+01
   2.060359e+01   4.641036e+01
  -4.106440e+01  -2.277531e+01
  -2.275465e+01  -4.782556e+01
  -1.932505e+01  -2.930147e+01
   3.988975e+01   5.374586e-01
   2.368769e+01   1.154477e+01
  -3.630589e+00   1.786517e+01
   1.490097e+01   5.541634e-01
   8.104406e+00   1.506649e+01
  -6.407836e+00   4.076417e+01
  -4.388453e+01   1.133735e+01
  -7.198179e+01   1.023626e+01
  -2.880463e+01  -6.206068e+01
   1.423346e+01  -7.496675e+01
   5.259345e+01  -4.715148e+01
   8.431904e+01   2.749232e+01
   4.941023e+01   8.101616e+01
  -3.255398e+01   3.450895e+01
  -9.578715e+01  -3.193860e+01
  -5.178756e+01  -2.362943e+01
   1.245516e+01  -1.453315e+01
   5.586584e+01  -1.432892e+01
   1.188192e+01   8.270335e+00
  -5.773950e+01  -2.175429e+01
  -3.240728e+01  -3.347381e+01
   5.335829e+01  -3.115446e+01
   7.402533e+01   2.340033e+00
