
 $NMID
 id='ANONYMOUS ', fmtdat='(2E16.6)'
 volume=1.0
 tramp=1.0
 $END
  -3.346336e+03   5.281040e+01
  -2.070980e+03  -1.654153e+03
   1.389058e+02  -2.109901e+03
   1.567484e+03  -9.255665e+02
   9.087801e+02   2.117592e+02
  -1.816516e+02   3.337732e+02
  -4.076711e+02  -1.979439e+02
   8.821737e+01  -6.339677e+02
   5.678570e+02  -4.972921e+02
   8.678294e+02  -6.145460e+01
   3.232085e+02   5.973975e+02
  -1.331682e+02   6.369177e+02
  -4.352902e+02   1.787964e+02
  -3.896372e+02  -5.489754e+02
   1.572670e+02  -7.567028e+02
   3.818547e+02   1.316216e+02
   3.705363e+02   6.681528e+02
  -7.710742e+01   4.664395e+02
  -5.919624e+02   2.540251e+02
  -2.787207e+02  -2.814564e+02
  -1.420173e+02  -5.800077e+02
   2.045820e+02  -5.322311e+02
   1.131029e+02  -2.639352e+01
  -2.616436e+02   5.822608e+01
  -2.020030e+02  -3.302484e+02
  -1.186810e+02  -3.700990e+02
   4.452720e+02  -2.486628e+02
   6.490126e+02   1.134834e+01
   2.820218e+02   3.354787e+02
  -3.240021e+02   1.924170e+02
  -4.538310e+02  -2.405819e+01
  -2.745112e+02  -3.819212e+02
   1.821728e+02  -3.418826e+02
   4.974566e+02  -1.062193e+02
   2.960528e+02   1.749704e+02
   6.952232e+00   3.248784e+02
  -1.243281e+02   2.466311e+02
  -3.973748e+01  -1.810912e+02
   1.398526e+02  -2.950652e+02
   2.921621e+02   1.645239e+02
   4.549882e+01   5.434675e+02
  -2.380903e+02   4.989084e+02
  -3.108282e+02   2.561001e+01
  -1.253830e+02  -3.186177e+02
   1.922499e+02  -1.672243e+02
   1.575923e+02   3.014564e+02
  -1.255301e+02   4.462435e+02
  -4.583074e+02   3.896415e+01
  -5.261904e+02  -4.341698e+02
  -1.257149e+02  -4.973088e+02
   3.574355e+02  -2.407139e+02
   5.502000e+02   8.893253e+01
   3.583012e+02   3.181417e+02
  -5.335041e+01   2.709418e+02
  -3.070826e+02   1.261094e+02
  -2.266123e+02  -2.630042e+01
  -2.880126e+01  -3.354558e+01
   1.399375e+01   2.385730e+01
  -1.336005e+02   4.058143e+01
  -2.376182e+02  -6.940967e+01
  -1.210177e+02  -2.306596e+02
   1.600786e+02  -2.482091e+02
   3.686891e+02  -1.226689e+02
   2.999530e+02   1.008298e+02
  -1.677124e+01   3.304939e+02
  -2.915017e+02   4.347849e+02
  -3.660532e+02   2.418601e+02
  -2.756497e+02  -9.273763e+01
  -1.097584e+02  -3.821075e+02
  -5.463543e+00  -3.716478e+02
   1.522326e+01  -1.946843e+02
   3.958189e+01  -8.920009e+01
   1.332043e+02  -1.177829e+02
   2.258495e+02  -4.542685e+01
   2.235918e+02   1.057777e+02
   6.857621e+01   3.074424e+02
  -1.151180e+02   2.118617e+02
  -2.462044e+02  -7.023096e+01
  -1.709797e+02  -2.967153e+02
   8.804386e+00  -2.540572e+02
   2.228416e+02  -3.251524e+01
   3.199682e+02   1.116299e+02
   1.515790e+02   2.705845e+02
  -1.522003e+01   2.321340e+02
  -1.705587e+02   1.376964e+02
  -1.556278e+02   4.582501e+01
  -1.541041e+02   6.729420e+01
  -2.898681e+02   1.450190e+01
  -4.220366e+02  -1.365959e+02
  -3.404552e+02  -3.256572e+02
   2.766639e+01  -4.459263e+02
   3.715539e+02  -3.889938e+02
   4.969339e+02  -1.675887e+02
   2.848299e+02   7.288376e+01
   1.708444e+01   2.436630e+02
  -9.178138e+01   2.178967e+02
  -2.443285e+01   4.959742e+01
   1.381400e+02  -3.207606e+01
   1.328048e+02   6.199940e+01
   1.498110e+01   1.526531e+02
  -1.359132e+02   4.118899e+01
  -8.296984e+01  -8.020241e+01
   7.972810e+01  -1.525682e+02
   1.935045e+02   3.976449e+01
   1.518737e+02   3.171023e+02
  -5.581029e+01   3.590939e+02
  -2.706500e+02   1.517012e+02
  -3.618240e+02  -8.177438e+01
  -2.959025e+02  -2.931513e+02
  -7.508920e+01  -2.801645e+02
   1.332701e+02  -1.604364e+02
   1.463928e+02  -1.548184e+01
   4.499216e+01   7.761088e+00
  -4.824205e+01  -4.340277e+01
   2.275854e+01  -1.391935e+02
   1.646555e+02  -8.203683e+01
   2.120984e+02   1.621304e+01
   6.045096e+01   7.868996e+01
  -6.581575e+01   2.093989e+01
  -5.306909e+01  -7.998365e+01
   1.530262e+02  -7.515501e+01
   3.304180e+02   1.080658e+01
   2.457126e+02   1.989735e+02
   3.267733e+00   3.001326e+02
  -2.498345e+02   2.465227e+02
  -3.048102e+02   9.963300e+01
  -1.735620e+02  -5.176107e+01
   2.105648e+01  -1.064114e+02
   8.181124e+01   1.557498e+01
  -2.765460e+01   8.569761e+01
  -1.705387e+02   1.756615e+01
  -1.553269e+02  -9.152314e+01
  -3.612472e+01  -1.740947e+02
   9.547682e+01  -1.334809e+02
   1.277286e+02  -3.943424e+01
  -2.427637e+00   1.787360e+01
  -4.768416e+01  -5.945256e+00
  -9.106252e+00  -8.256930e+01
   1.138014e+02  -1.131235e+02
   1.875222e+02   2.929796e+00
   1.473527e+02   1.162572e+02
  -8.865649e+00   2.031675e+02
  -1.622981e+02   1.562885e+02
  -1.541922e+02   9.547955e+00
  -2.741194e+01  -1.145436e+02
   1.020445e+02  -7.637337e+01
   5.718309e+01   6.832348e+00
  -1.572385e+01   7.171175e+01
  -8.328006e+01   1.060774e+01
  -3.916175e+01  -4.818051e+01
   8.486947e+01  -3.076120e+01
   1.244440e+02   1.005120e+02
   2.437673e+01   2.223265e+02
  -1.585724e+02   1.810843e+02
  -2.742414e+02  -2.945424e+01
  -2.021223e+02  -1.928316e+02
   8.118820e+00  -2.422935e+02
   1.494022e+02  -1.381059e+02
   1.567414e+02  -1.230071e+01
   2.664231e+01   4.910668e+01
   7.224359e+00   2.792530e+00
   2.906409e+01  -7.192248e+00
   1.198560e+02  -2.574375e+01
   5.149611e+01   3.887726e+01
  -5.732821e+01   7.922956e+01
  -1.399687e+02   4.111229e+01
  -1.021942e+02   6.781195e+00
   4.987717e+01  -9.340656e+01
   1.730644e+02  -5.989077e+01
   1.978794e+02   1.090727e+02
   4.494248e+01   2.014359e+02
  -1.576726e+02   2.404248e+02
  -2.726795e+02   9.798866e+01
  -2.586812e+02  -1.122682e+02
  -9.713635e+01  -1.983477e+02
   8.022411e+01  -1.314750e+02
   1.242627e+02  -7.049575e+01
   7.004078e+01  -2.956927e+01
   5.996420e+01  -8.869021e+01
   6.557533e+01  -8.433940e+01
   1.518251e+02   1.802937e+01
   1.359449e+02   1.686797e+02
   3.181719e+01   2.292549e+02
  -1.688979e+02   1.917443e+02
  -2.422934e+02   1.002927e+01
  -1.372616e+02  -1.533544e+02
  -6.135492e+00  -1.990221e+02
   9.527929e+01  -1.062707e+02
   7.736242e+01  -3.419301e+01
  -2.123385e+01   2.001870e+01
  -2.060294e+01   5.972408e+01
   5.739387e+01   2.812881e+01
   1.102416e+02   3.521540e+01
   2.255889e+01   5.716487e+00
  -1.120555e+02   4.488019e+01
  -1.752829e+02   4.899742e+01
  -1.408394e+02  -4.127515e+01
  -4.694213e+01  -7.268704e+01
   1.199308e+02  -5.233125e+01
   1.237541e+02   2.838003e-01
   2.905653e+01   5.123820e+01
  -3.449516e+01   5.799711e+01
  -9.214347e+01  -6.807731e+01
  -6.743407e+00  -9.466551e+01
   5.191176e+01  -9.913372e+01
   6.727107e+01  -1.332606e+01
   6.623841e+01   8.271880e+01
   5.941899e+01   7.626707e+01
   3.538476e+01   1.378554e+01
   6.005298e+01  -1.279257e+01
   5.653000e+01   4.960137e+01
  -1.236520e+01   1.556465e+02
  -9.565607e+01   1.481709e+02
  -2.292424e+02   3.862261e+01
  -1.598233e+02  -8.925431e+01
  -1.304280e+01  -1.376954e+02
   5.559514e+01  -4.752450e+01
   7.963980e+01   1.595193e+01
  -8.090821e+01   9.217220e+00
  -1.315359e+02  -2.319379e+01
  -6.290934e+01  -1.328546e+02
   7.829832e+01  -1.262891e+02
   1.923490e+02  -9.745117e+01
   1.625067e+02   1.592412e+01
   1.433478e+01   8.509031e+01
  -6.014773e+01   8.319607e+01
  -4.733618e+01   3.269504e+01
   5.814448e+01  -5.338822e+01
   1.106044e+02   9.124198e-02
   3.655276e+01   1.233210e+02
  -9.514686e+01   1.314534e+02
  -1.556202e+02   6.321794e+01
  -1.578830e+02  -1.041683e+02
  -1.025108e+01  -1.618013e+02
   4.169457e+01  -1.531543e+02
   8.238698e+01   1.970953e+01
   5.195201e+01   1.061571e+02
   3.559269e+00   7.200969e+01
  -6.632606e+01   3.489263e+01
  -5.098307e+01  -4.530077e+01
  -9.259721e+00  -2.686213e+01
  -4.498205e+01   4.171819e+01
  -1.973298e+01   1.799310e+00
  -5.166902e+01  -5.816900e+01
  -4.595857e+01  -1.004482e+02
   5.919531e+01  -7.228178e+01
   1.271421e+02   3.051549e+01
   1.518659e+02   9.798892e+01
  -1.241976e+01   4.525857e+01
  -7.679496e+01   4.359790e+01
  -9.906951e+01  -5.906386e+00
  -1.421135e+01  -2.396825e+00
   7.560389e+01  -2.699072e+01
  -7.956819e+00  -1.982083e+01
   1.007664e+01  -5.969049e+00
   1.521504e+01   2.731110e+01
   7.933417e+01   3.883358e+01
   6.907375e+01   3.339985e+01
   9.760170e+00   1.052253e+02
  -1.460289e+02   7.234705e+01
  -2.044331e+02   3.700111e+01
  -1.478054e+02  -4.053776e+01
  -1.045133e+01  -1.768298e+02
   8.038419e+01  -1.283725e+02
   1.019017e+02  -7.191417e+01
   9.453114e+01   1.395028e+01
   2.632257e+01   2.552105e+01
   1.330204e+01   2.238526e+01
   2.974292e+01   2.054279e+01
   1.882577e+01   1.828203e+01
  -3.280227e+01   8.090193e+01
  -4.867433e+01   6.559930e+01
  -1.026115e+02  -2.270178e+00
  -4.549757e+01  -1.439516e+02
  -3.868193e+01  -1.394675e+02
   7.595920e+01  -6.104406e+01
   9.795266e+01   5.718256e+01
   2.913907e+01   1.175234e+02
  -6.631478e+01   3.402644e+01
  -9.776583e+01  -1.622287e+01
  -5.840463e+01  -4.229728e+01
   5.965712e+01  -4.555322e+01
   2.742202e+01  -1.961699e+01
  -5.264630e+01  -1.869136e+00
  -6.979770e+01  -1.335371e+01
  -5.448455e+01  -4.339579e+01
   8.258489e+01  -8.054950e+01
   1.081914e+02  -4.589923e+01
   8.278351e+01   2.511077e+01
   2.791755e+00   9.791425e+01
  -9.060161e+01   7.770688e+01
  -3.299424e+01   7.088737e+00
   1.851479e+01  -5.921787e+01
   4.050671e+01  -5.196599e+01
   4.727526e+01   4.536011e+01
  -2.254288e+00   3.155581e+01
  -2.874913e+00   4.524139e+01
  -2.718417e+01  -5.955869e+01
  -2.869265e+01  -5.179991e+01
  -1.775844e+01  -3.115213e+01
  -9.389554e+00   2.663150e+01
   4.072699e+01   1.534902e+01
   2.127886e-01  -3.589683e+01
   5.715457e+01  -4.215938e+01
   5.077267e+01   3.656264e+01
   3.219527e+01   5.677009e+01
  -3.305683e+00   9.058853e+01
  -4.420957e+01   3.441549e+01
  -1.007089e+02  -5.327192e+01
  -3.106470e+01  -2.956272e+01
   8.539274e+00  -8.455907e+01
   9.338936e+01  -1.640687e+00
   6.226265e+01   3.512198e+01
  -1.980953e+00   2.636583e+01
  -7.519872e+01   4.139023e+01
  -2.259404e+01   8.926632e+00
   1.116816e+01  -1.432937e+01
   4.409691e+01   4.098118e+01
  -3.380469e+01  -4.658267e+00
  -8.108300e+01   6.258212e+00
