
 $NMID
 id='ANONYMOUS ', fmtdat='(2E16.6)'
 volume=1.0
 tramp=1.0
 $END
  -3.955374e+03   3.284281e+02
  -2.611483e+03  -2.443106e+03
   7.438594e+02  -2.602825e+03
   2.001152e+03  -6.471402e+02
   7.964838e+02   6.732354e+02
  -6.588239e+02   4.751815e+02
  -8.311497e+02  -2.908061e+02
   6.334358e+00  -9.567339e+02
   8.471584e+02  -7.238987e+02
   8.769936e+02   1.363771e+02
   4.740229e+02   8.400376e+02
  -1.415472e+02   8.417915e+02
  -7.598511e+02   5.995616e+01
  -5.600034e+02  -7.463471e+02
   2.617869e+02  -7.092515e+02
   6.835944e+02  -2.962655e+01
   1.725745e+02   6.342432e+02
  -2.969386e+02   6.408418e+02
  -7.224627e+02   1.712186e+02
  -3.378278e+02  -4.291519e+02
  -1.395938e+01  -4.664001e+02
   1.599809e+02  -2.864791e+02
   1.968530e+02   7.851743e+01
  -1.743612e+02   2.136918e+02
  -4.157601e+02  -2.519370e+02
  -2.292780e+02  -4.849906e+02
   4.854641e+02  -4.653476e+02
   9.651597e+02   1.720502e+02
   3.435236e+02   5.155655e+02
  -3.593266e+02   5.105974e+02
  -7.204015e+02  -7.871106e+00
  -2.464104e+02  -5.693324e+02
   3.773291e+02  -4.495614e+02
   5.088554e+02  -1.792597e+02
   4.621052e+02   2.101666e+02
   2.398104e+01   4.901826e+02
  -5.878638e+01   1.870424e+02
  -1.357201e+02  -1.388894e+02
   9.243528e+01  -4.127432e+02
   4.200857e+02   1.054325e+02
   1.369574e+02   6.435137e+02
  -3.466543e+02   6.061234e+02
  -5.923857e+02   1.974941e+01
  -2.154494e+02  -4.791475e+02
   3.231673e+02  -2.390189e+02
   2.938705e+02   3.241304e+02
  -1.328285e+02   4.718483e+02
  -5.723814e+02   1.044328e+02
  -5.519465e+02  -4.072059e+02
  -1.322612e+02  -5.685538e+02
   3.626737e+02  -3.769587e+02
   6.036178e+02   3.675166e+01
   3.791892e+02   3.166998e+02
  -8.989756e+01   3.551024e+02
  -4.550036e+02   1.015051e+02
  -2.610864e+02  -1.862689e+02
   8.220387e+01  -8.075039e+01
   1.150696e+02   1.312097e+02
  -1.785162e+02   1.596521e+02
  -3.697513e+02  -1.037617e+02
  -8.460783e+01  -3.174945e+02
   2.592275e+02  -2.809567e+02
   3.926772e+02  -7.867410e+01
   2.079532e+02   1.166319e+02
  -3.121435e+01   2.549371e+02
  -2.168818e+02   3.308695e+02
  -3.015432e+02   1.598560e+02
  -2.813533e+02  -1.257979e+02
  -1.027836e+02  -4.218114e+02
   1.196940e+02  -3.767973e+02
   1.798250e+02  -1.080577e+02
   2.550547e+00   2.699863e+01
   4.314190e+01  -5.071133e+01
   2.003605e+02  -1.511076e+02
   2.755045e+02   5.150257e+01
   1.285857e+02   2.459554e+02
  -1.168385e+02   2.530967e+02
  -2.049492e+02   1.413358e+01
  -1.632582e+02  -2.322127e+02
   8.414286e+01  -2.845032e+02
   2.728278e+02  -4.607463e+01
   3.278705e+02   2.301957e+02
   1.372449e+02   3.680178e+02
  -1.256822e+02   3.022161e+02
  -2.358256e+02   6.841040e+01
  -1.326891e+02   5.043261e+00
  -1.038311e+02   4.580230e+01
  -2.240946e+02   5.736495e+01
  -3.876925e+02  -8.123906e+01
  -3.357076e+02  -2.551943e+02
  -2.484537e+01  -4.533458e+02
   3.500082e+02  -4.264987e+02
   4.540731e+02  -1.783301e+02
   3.036079e+02   7.451150e+01
   5.460208e+01   3.212266e+02
  -1.365689e+02   2.019346e+02
  -6.181658e+01   2.838720e+01
   7.040758e+01  -9.844387e+01
   1.591725e+02  -1.907150e+01
   1.124235e+02   1.827559e+02
  -1.266612e+02   1.907157e+02
  -1.826945e+02  -1.943725e+01
  -1.769931e+01  -1.812290e+02
   1.643970e+02  -5.892552e+01
   1.424433e+02   2.093623e+02
  -4.255491e+01   3.442628e+02
  -2.448237e+02   1.827057e+02
  -2.971808e+02  -3.886805e+01
  -2.697142e+02  -2.535696e+02
  -1.479463e+02  -2.815562e+02
   9.668628e+01  -1.521677e+02
   1.585745e+02   2.391482e+01
   6.349950e+01   3.409513e+01
  -6.612962e-01  -4.920406e+01
  -5.275496e+01  -1.196277e+02
   9.979451e+01  -1.214628e+02
   1.871593e+02   2.037709e+01
   7.026923e+01   5.268643e+01
  -6.067711e+01   2.240574e+01
  -7.170133e+01  -9.228585e+01
   1.394653e+02  -8.788440e+01
   3.152430e+02   2.529042e+01
   2.804798e+02   1.830858e+02
  -1.543987e+01   2.572966e+02
  -2.053185e+02   2.645366e+02
  -2.473410e+02   7.894149e+01
  -1.371534e+02  -6.389782e+01
   3.152883e+01  -4.955388e+01
   3.292240e+01   2.453421e+01
  -6.059748e+01   9.833106e+01
  -1.798430e+02   8.451271e+01
  -1.952903e+02  -1.056720e+02
  -1.037315e+02  -2.463913e+02
   9.485819e+01  -1.562877e+02
   1.149020e+02  -2.290302e+01
   7.018661e+01   5.515645e+01
   1.988458e+00  -1.901436e+01
  -4.881994e+01  -1.071554e+02
   5.979244e+01  -1.118257e+02
   2.001931e+02  -7.817330e+00
   1.920578e+02   8.805407e+01
   6.486246e+01   2.141659e+02
  -1.601400e+02   1.817150e+02
  -1.865958e+02   3.669790e+01
  -2.370595e+01  -7.931372e+01
   6.021885e+01  -7.495467e+01
   9.960746e+01  -3.438458e+01
   3.216339e+01   1.412500e+01
  -3.666595e+01   3.487868e+01
  -2.418339e+01  -3.822959e+00
   3.782508e+01   3.076077e+01
   7.384170e+01   8.622095e+01
   1.204799e+01   1.222294e+02
  -1.447146e+02   1.425079e+02
  -2.224991e+02  -9.977801e+00
  -1.610165e+02  -1.460596e+02
  -3.962978e+01  -2.416271e+02
   1.237758e+02  -1.585672e+02
   1.180208e+02  -3.095918e+01
   1.734272e+01   6.470256e+01
   3.675960e+01   5.746456e+01
   4.885956e+01   2.146272e+01
   6.491518e+01  -3.998359e+01
   3.231816e+01   2.849146e+01
  -6.372997e+01   8.158887e+01
  -5.634085e+01   3.205665e+01
  -5.981349e+01  -5.613872e+01
   1.535654e+01  -9.496892e+01
   1.241349e+02  -2.054608e+01
   1.578786e+02   1.025993e+02
   8.712057e+01   2.237022e+02
  -1.129605e+02   1.541858e+02
  -2.801764e+02   5.589902e+01
  -2.504272e+02  -7.110750e+01
  -7.276783e+01  -1.633938e+02
   9.127786e+01  -1.081245e+02
   1.252537e+02  -5.439362e+01
   6.472210e+01  -1.007028e+02
   4.477630e+01  -5.989172e+01
   5.050701e+01  -5.888334e+01
   1.086806e+02   3.169181e+01
   5.108832e+01   1.336236e+02
  -3.207088e+01   1.791353e+02
  -7.434052e+01   1.605946e+02
  -1.106247e+02   2.473238e+00
  -8.751045e+01  -1.588866e+02
  -2.039391e+01  -1.523015e+02
   5.737545e+01  -7.401163e+01
   6.323199e+01   1.053434e+01
   2.117384e+01   4.552614e+01
  -3.331472e+01   2.400562e+01
   2.737372e+01  -1.105632e+01
   5.069760e+01   5.696748e+00
   3.248424e+01   4.922148e+01
  -4.770775e+01   4.063303e+01
  -1.360774e+02  -2.214555e+01
  -1.525285e+02  -5.769780e+01
  -5.207326e+00  -9.263140e+01
   1.303634e+02  -5.608623e+01
   1.375675e+02   2.195944e+01
   5.018847e+01   4.332724e+01
  -4.941915e+01   3.727074e+00
  -5.515206e+01  -7.193956e+01
   2.343069e+00  -8.862253e+01
   2.983042e+01  -7.812274e+01
   3.240068e+01   3.371972e+01
   6.734728e+01   5.812312e+01
   6.746199e+01   6.449536e+01
   5.861904e+01  -8.578153e+00
   7.182299e+01   1.749893e+00
   6.183054e+01   8.400583e+01
  -5.178612e+01   1.391321e+02
  -1.286043e+02   1.041755e+02
  -1.360638e+02   3.667393e+01
  -1.130119e+02  -1.077551e+02
  -3.527032e+00  -1.243596e+02
   6.114654e+01  -3.646581e+01
   6.964259e+01   3.438527e+01
  -4.812267e+01   2.945995e+01
  -1.234294e+02  -5.904350e+01
  -6.931427e+01  -1.004284e+02
   6.176939e+01  -9.246162e+01
   1.992791e+02  -6.447623e+01
   1.601203e+02  -2.168043e-01
   5.150633e+01   6.085610e+01
  -5.052051e+01   4.011047e+01
  -5.697543e+01   2.106004e+01
   2.004328e+01  -1.615312e+01
   9.195280e+01   9.170820e+01
   1.669819e+01   1.422945e+02
  -2.942597e+01   1.548725e+02
  -1.360019e+02   7.214274e+01
  -1.310944e+02  -6.163733e+01
  -3.147620e+01  -1.501554e+02
   7.487966e+01  -1.369722e+02
   5.386673e+01  -5.543079e-01
   2.277730e+01   7.634293e+01
   5.240096e+01   7.096786e+01
  -5.313584e+01   2.054099e+01
  -6.629630e+01  -5.063380e+01
  -3.883435e+01   2.646670e+01
  -1.899351e+01   1.299456e+01
  -8.771058e+00  -1.484738e+01
  -7.353495e+00  -8.187788e+01
  -2.064905e+01  -1.239376e+02
   4.728100e+01  -8.217928e+01
   1.385948e+02   1.056785e+02
   1.008029e+02   5.706039e+01
   2.077135e+01   3.414360e+01
  -8.745713e+01   2.040104e+01
  -9.792684e+01   2.306365e+01
  -8.168820e+00  -1.059798e+00
   2.051590e+01  -2.277801e+01
   2.146039e+01  -1.620340e+01
  -9.385780e-01  -1.783493e+01
  -1.909134e+01  -5.956136e+00
   3.505909e+01  -2.366318e+00
   1.239803e+02   3.001712e+01
   7.003457e-01   8.190502e+01
  -1.007586e+02   1.104982e+02
  -1.836827e+02   4.530583e+01
  -1.262192e+02  -1.038474e+02
  -8.180087e+00  -1.429455e+02
   7.035646e+01  -1.350600e+02
   9.987464e+01  -4.919172e+01
   7.573175e+01   3.320366e+01
   3.252538e+01   7.760538e-02
   1.661016e+01   4.923061e+01
   1.559565e+01   4.353107e+00
   6.529647e+01   4.806080e+01
   3.969501e+01   5.743534e+01
  -3.194754e-01   6.537440e+01
  -4.123917e+01  -1.795901e+00
  -4.731057e+01  -5.908628e+01
  -2.052679e+01  -9.599257e+01
   5.882715e+01  -1.870326e+01
   1.062408e+02   1.000631e+02
   2.824170e+01   9.157574e+01
  -5.307611e+01   4.843583e+01
  -9.078077e+01  -1.263478e+01
  -4.062234e+01  -5.045428e+01
   2.272499e+00  -4.471728e+01
   8.908406e+00  -4.236963e+01
  -3.669423e+01   2.054277e+01
  -4.522227e+01   2.770267e+01
  -1.188711e+01   2.227199e+00
   6.305113e+01  -5.567540e+01
   1.361202e+02  -7.335183e+01
   3.431902e+01   2.861977e+01
   3.882828e+00   6.824644e+01
  -4.106715e+01   7.327521e+01
  -3.751018e+01   2.889454e+01
   1.756407e+01  -2.311196e+01
   2.605764e+01  -2.520323e+01
   2.567123e+01  -3.146499e+01
  -1.067266e+01   9.241020e+00
  -1.630542e+00   3.741160e+01
  -1.179221e+01   2.028925e+00
  -4.817607e+01  -5.426043e+01
  -1.454251e+01   1.235058e+01
  -2.004839e+01   4.063431e+01
   1.776748e+01  -4.425043e+01
   1.060082e+01  -6.390591e+01
  -1.622381e+00  -5.102658e+01
   6.997559e+01   2.468114e+01
   3.033792e+01   9.099592e+01
   5.240237e+00   4.253705e+01
  -6.128125e+01  -7.812755e+00
  -7.366179e+01  -4.012384e+01
  -1.393789e+01  -5.925101e+01
   7.138169e+01  -4.364718e+01
   9.592208e+01   3.054166e+01
   6.817765e+01   7.265519e+01
  -4.468680e+01   6.664407e+01
  -5.364653e+01   2.661737e+01
  -4.021477e+01  -1.878307e+01
   1.974809e+01  -2.510874e+00
   2.290114e+01   2.725597e+01
  -2.503154e+01   4.938097e+01
  -6.748660e+01   2.737522e+01
