
 $NMID
 id='ANONYMOUS ', fmtdat='(2E16.6)'
 volume=1.0
 tramp=1.0
 $END
  -3.586044e+03  -3.144657e+02
  -2.260394e+03  -1.847662e+03
   8.906167e+01  -2.294490e+03
   1.600215e+03  -1.403535e+03
   9.362967e+02  -2.427297e+01
  -2.362426e+02   4.661834e+01
  -3.944778e+02  -1.550780e+02
  -9.953679e+01  -7.594533e+02
   4.558315e+02  -7.770088e+02
   5.014637e+02  -4.917932e+01
   4.052962e+02   5.552810e+02
   3.742932e+01   7.398149e+02
  -4.718420e+02   9.464920e+01
  -3.655200e+02  -4.154463e+02
  -3.536410e+01  -5.258408e+02
   5.404384e+02  -1.918192e+02
   3.638143e+02   5.759673e+02
  -2.065315e+02   6.496399e+02
  -5.325749e+02   2.655487e+02
  -4.420763e+02  -2.729502e+02
  -7.621242e+01  -2.442498e+02
   4.462679e+01  -1.842111e+02
   3.408467e+01   7.602866e+01
  -2.562585e+02  -3.518637e+01
  -2.005784e+02  -1.880394e+02
  -7.500700e+01  -1.917253e+02
   3.798258e+02  -1.873255e+02
   7.241592e+02   7.366266e+00
   2.291413e+02   4.209726e+02
  -2.605825e+02   3.177871e+02
  -5.416541e+02  -6.316008e+01
  -2.813218e+02  -2.877908e+02
   2.515092e+02  -4.498847e+02
   4.040660e+02  -1.661383e+02
   3.568803e+02   1.011825e+02
   4.871644e+01   2.792275e+02
   3.919546e+01   2.535022e+02
   2.165209e+01  -1.146429e+02
   1.408443e+02  -2.810128e+02
   2.544290e+02   8.340986e+01
   5.172538e+00   4.823861e+02
  -1.922161e+02   4.015528e+02
  -3.307424e+02   4.611381e+01
  -1.331053e+02  -3.018435e+02
   9.654298e+01  -1.179094e+02
   1.441531e+02   2.508834e+02
  -8.088247e+01   3.288061e+02
  -3.725965e+02   5.946610e+01
  -4.421382e+02  -3.009346e+02
  -1.680049e+02  -4.367733e+02
   2.873054e+02  -2.764270e+02
   5.112911e+02   5.604573e+01
   2.929674e+02   2.637668e+02
  -1.022447e+02   2.796230e+02
  -3.034591e+02   7.733094e+01
  -2.099150e+02  -7.102976e+01
   3.295264e+01  -1.403668e+01
   3.318385e+01   8.246512e+01
  -1.515698e+02   8.784325e+01
  -1.993996e+02  -9.845715e+01
  -8.695194e+01  -2.330906e+02
   1.819044e+02  -2.824819e+02
   3.196892e+02  -1.293456e+02
   2.395060e+02   1.530930e+02
   3.207960e+00   3.676304e+02
  -2.282170e+02   3.776977e+02
  -3.323291e+02   1.141945e+02
  -2.157029e+02  -1.706167e+02
  -3.485057e+01  -3.244231e+02
   2.569916e+01  -2.989396e+02
   4.175256e+01  -1.312659e+02
   5.697470e+01  -1.232318e+02
   6.734248e+01  -1.249521e+02
   1.562918e+02  -6.268340e+01
   1.598676e+02   9.574387e+01
   9.689844e+01   2.967586e+02
  -4.065847e+01   1.986504e+02
  -2.305185e+02  -1.459297e+01
  -1.722144e+02  -2.069794e+02
   2.047839e+01  -2.857595e+02
   2.501717e+02  -6.170708e+01
   3.106730e+02   9.546079e+01
   2.037990e+02   2.322063e+02
  -1.293264e+01   2.002868e+02
  -1.179083e+02   1.287245e+02
  -1.341735e+02   7.411290e+01
  -1.198047e+02   8.359826e+01
  -2.277967e+02   7.851351e+01
  -3.069775e+02  -7.526249e+01
  -2.716367e+02  -2.336237e+02
   3.118460e+00  -4.132162e+02
   2.673839e+02  -3.711007e+02
   4.595903e+02  -1.551178e+02
   2.671643e+02   8.723707e+01
   5.869522e+01   2.414806e+02
  -6.928590e+01   2.214981e+02
  -1.705110e+01   2.078055e+00
   9.144807e+01  -2.906328e+01
   1.260216e+02  -2.237788e+01
   1.602940e+01   8.604218e+01
  -1.111275e+02   6.929528e+01
  -1.095016e+02  -9.587246e+01
  -3.134218e+01  -1.155916e+02
   2.060467e+02  -3.844276e-01
   1.687942e+02   2.172693e+02
   3.359416e+01   2.843665e+02
  -1.784559e+02   1.490641e+02
  -3.254298e+02  -4.724302e+01
  -2.145443e+02  -2.190878e+02
  -1.163324e+01  -2.468647e+02
   1.687938e+02  -1.148672e+02
   1.604050e+02  -3.757558e+00
   4.643195e+01   2.992375e+01
  -7.656505e+01  -7.638485e+01
   2.352362e+01  -1.073072e+02
   1.127199e+02  -7.250600e+01
   1.154379e+02   5.626538e+01
   3.297630e+01   4.621993e+01
  -7.652560e+01  -2.985524e+01
   2.228441e+01  -7.348228e+01
   1.498444e+02  -9.865365e+01
   2.947060e+02  -1.042295e+01
   2.258164e+02   1.407638e+02
   1.660940e+01   2.363268e+02
  -1.790948e+02   2.438115e+02
  -2.241735e+02   4.396616e+01
  -1.567091e+02  -8.380446e+01
   4.512302e+01  -1.194019e+02
   7.061092e+01  -5.770493e+00
  -5.256264e+01   5.637995e+01
  -1.362141e+02   4.494542e+01
  -1.491844e+02  -1.254584e+02
  -3.174683e+01  -1.462600e+02
   5.580542e+01  -9.319416e+01
   7.516882e+01   2.448178e+01
   2.952906e+01   5.722468e+01
  -6.985263e+01  -1.617764e+01
  -5.295963e+01  -1.013140e+02
   8.428573e+01  -8.767150e+01
   2.277887e+02   1.221998e+00
   1.846049e+02   1.022730e+02
   2.543044e+01   1.710889e+02
  -1.632922e+02   7.986262e+01
  -1.883258e+02   3.427345e+01
  -7.678646e+01  -7.297917e+01
   2.605100e+01  -7.452997e+01
   1.545458e+01  -2.116922e+01
  -3.666861e+01  -1.827369e+01
  -6.113458e+01  -3.124806e+01
  -3.369192e+00  -3.476996e+01
   8.744179e+01   1.608158e+01
   7.860416e+01   6.534402e+01
   6.191557e+00   1.595669e+02
  -1.075915e+02   1.013525e+02
  -2.295611e+02  -3.798290e+01
  -1.437153e+02  -1.480903e+02
  -2.107598e+01  -2.169283e+02
   1.005037e+02  -1.301836e+02
   1.195287e+02  -1.456009e+01
   8.551007e+01   5.257674e+01
   3.362587e+01   2.437708e+01
   3.072163e+01   7.898115e+00
   7.199413e+01  -1.571478e+01
   3.435594e+01   7.544163e+01
  -3.176066e+00   9.112026e+01
  -9.572926e+01   3.806668e+01
  -1.155627e+02  -1.732525e+01
  -1.374257e+01  -1.407159e+02
   1.339728e+02  -7.240026e+01
   2.248187e+02   6.256512e+01
   1.143737e+02   1.991226e+02
  -6.354875e+01   1.641656e+02
  -2.149673e+02   6.506323e+01
  -2.038955e+02  -4.782083e+01
  -8.591286e+01  -1.392219e+02
   4.162034e+01  -8.561952e+01
   7.504665e+01  -2.794543e+01
   3.806457e+01  -6.580755e+01
   2.599735e+01  -1.215511e+02
   1.013091e+02  -9.910012e+01
   1.413558e+02  -2.724773e+00
   1.241154e+02   1.577496e+02
   4.425362e+01   1.995220e+02
  -1.272514e+02   1.613646e+02
  -1.386104e+02  -6.780064e+00
  -5.193566e+01  -8.759030e+01
   1.130020e+01  -1.032572e+02
   2.052398e+01  -5.981159e+01
   4.202624e+01  -3.710864e+01
   4.355324e+00   4.293502e+01
  -5.724358e+00   4.570165e+01
   2.213614e+01  -4.059376e-01
   6.607117e+01   2.659575e+01
   2.306782e+01   1.632664e+01
  -4.274437e+01   2.300502e+01
  -1.332327e+02  -8.682300e+00
  -9.597924e+01  -5.791532e+01
  -2.725073e+01  -7.131047e+01
   6.512844e+01  -3.336429e+01
   7.100318e+01  -2.396245e+00
   2.863875e+01   3.410536e+01
  -8.398017e+01  -2.355458e+00
  -4.581877e+01  -5.054801e+01
  -4.415515e+01  -7.870976e+01
   4.036792e+01  -1.060583e+02
   6.492869e+01  -2.224644e+01
   5.611743e+01   1.542862e+01
   8.027346e+01   2.991926e+01
   8.932470e+01  -4.349043e-01
   8.757152e+01   9.685549e+00
   6.076973e+01   7.949029e+01
  -5.106155e+01   1.401536e+02
  -1.102346e+02   1.433593e+02
  -1.571374e+02   1.137972e+01
  -7.860515e+01  -9.301482e+01
   6.276387e+00  -1.344807e+02
   1.217492e+02  -3.113011e+01
   6.829022e+01   2.902029e+01
  -4.314785e+01   6.005024e+01
  -1.521743e+02  -1.656348e+01
  -9.198645e+01  -9.598174e+01
   8.087786e+01  -7.469473e+01
   1.809530e+02  -1.491418e+01
   9.837306e+01   5.385732e+01
  -7.191582e+00   7.024748e+01
  -4.711648e+01   6.104018e+01
  -3.848709e+01  -1.120883e+01
   8.307871e+01  -2.499898e+01
   1.364660e+02   3.536004e+01
   4.764280e+01   1.016101e+02
  -6.417810e+01   1.953281e+02
  -1.367333e+02   6.314162e+01
  -1.200520e+02  -7.952959e+01
   5.843486e+00  -1.643820e+02
   7.986392e+01  -6.924588e+01
   6.091083e+01   3.008051e+01
   3.200924e+01   8.323734e+01
   1.035923e+01   6.656447e+01
  -9.748029e+00   4.673458e+01
  -4.519145e+01  -2.392473e+01
  -1.222353e+01  -3.656375e-01
   2.635039e+01   3.045074e+01
  -6.312103e+01   8.112445e+00
  -9.482681e+01  -6.372058e+01
  -6.609429e+01  -7.253849e+01
   2.903130e+01  -4.411473e+01
   1.594690e+02   2.796813e+01
   8.651662e+01   1.384570e+01
   1.459187e-01   5.322486e+01
  -1.001470e+02   9.373065e+00
  -9.855184e+01   3.222315e+01
   2.049391e+01  -2.278292e+01
   3.820800e+01  -7.584198e+01
   4.445605e+01  -5.550578e+01
  -6.732092e+00  -2.464787e+01
   7.169444e+00   2.867114e+01
   4.697411e+01   1.504607e+01
   1.094157e+02   4.295003e+00
   1.386554e+01   7.525740e+01
  -1.121562e+02   1.034535e+02
  -1.674908e+02   6.921144e+01
  -1.408166e+02  -5.926048e+01
  -2.442026e+01  -1.088899e+02
   2.705397e+01  -1.333407e+02
   8.406129e+01  -1.128575e+02
   7.092499e+01   1.050576e+01
   2.492995e+01   4.102106e+01
   4.805058e-01   2.806884e+01
   2.464497e+01  -1.390758e+01
   4.838328e+01   6.598088e+01
  -1.013904e+01   5.034355e+01
  -4.151393e+01   6.542137e+01
  -9.420652e+01  -7.371853e+00
  -4.183701e+01  -1.085685e+02
  -1.428385e+01  -1.125559e+02
   9.147813e+01  -4.539835e+01
   1.282557e+02   7.835511e+01
   5.374769e+01   9.624667e+01
  -9.154795e+01   7.731389e+01
  -7.886559e+01   3.021703e+01
  -5.116971e+01  -3.077966e+01
   2.258896e+01  -2.677710e+01
   4.691496e+01  -4.163004e+01
  -1.219646e+01   4.968559e+01
  -8.069839e+01   6.757983e+01
  -1.791832e+01   3.171954e+01
   2.521584e+01  -6.278282e+01
   9.874907e+01  -3.862726e+01
   3.180828e+01   4.329170e+00
  -1.866148e+01   5.576986e+01
  -6.557445e+01   8.163062e+01
  -6.496838e+01   2.811540e+01
  -5.852393e+01  -5.836794e+01
   2.613782e+01  -3.942057e+01
   7.070577e+00  -1.594807e+00
   6.012434e+01   3.880606e+01
   9.942444e+00   5.949374e+01
  -5.875196e+01  -2.065722e+01
  -2.466259e+01  -5.245119e+01
  -3.606895e+01  -2.468415e+01
  -5.645188e+01   2.332533e+01
  -7.360596e+00   1.991087e+01
  -4.029964e+01  -3.956864e+01
   4.878157e+01  -5.143968e+01
   1.793226e+01  -3.317769e+01
   5.068061e+01   1.622221e+01
   5.592929e+01   4.854613e+01
  -5.414114e+01   3.675531e+01
  -4.954416e+01  -1.630493e+01
  -1.856728e+01  -7.061874e+01
   3.971667e+01  -1.883353e+01
   9.831324e+01  -3.045269e+01
   3.479863e+01   2.540452e+01
  -6.631416e+01   2.646116e+01
  -4.017894e+01   2.504497e+01
  -3.563914e+01  -1.883738e+01
   6.399102e+01  -1.768923e+01
   2.595835e+01   1.341649e+01
   3.206892e+00   2.002261e+01
  -9.494478e+01   4.239655e+01
