
 $NMID
 id='ANONYMOUS ', fmtdat='(2E16.6)'
 volume=1.0
 tramp=1.0
 $END
   4.440945e+03   2.901580e+01
   2.659674e+03   2.872150e+03
  -7.606653e+02   2.641283e+03
  -2.289264e+03   9.333552e+02
  -9.474938e+02  -7.367642e+02
   8.728369e+02  -6.428922e+02
   8.381526e+02   4.578077e+02
  -2.072356e+02   1.229370e+03
  -9.620825e+02   7.381216e+02
  -9.284290e+02  -2.360789e+02
  -5.095322e+02  -9.569425e+02
   3.265719e+02  -8.008340e+02
   6.113026e+02   7.240558e+01
   4.633348e+02   9.024341e+02
  -4.733368e+02   6.378995e+02
  -6.881472e+02   1.875902e+02
  -1.549065e+02  -6.995945e+02
   5.807784e+02  -6.515345e+02
   6.850764e+02   1.762322e+01
   3.682245e+02   3.546292e+02
   9.187532e+01   5.474272e+02
  -3.360057e+02   3.483407e+02
  -2.216784e+02  -7.334145e+01
  -4.952539e+01  -1.747181e+02
   4.922124e+02   2.666102e+02
   2.998180e+01   5.315263e+02
  -4.144542e+02   5.213852e+02
  -8.733532e+02  -8.685159e+01
  -4.884606e+02  -5.783495e+02
   4.265518e+02  -6.169963e+02
   8.840871e+02   4.051354e+01
   4.124591e+02   6.136381e+02
  -2.911355e+02   5.198909e+02
  -5.646478e+02   1.768231e+02
  -3.991558e+02  -2.853682e+02
  -6.601283e+00  -4.757795e+02
   1.864790e+02  -2.807210e+02
   1.866430e+02   2.312705e+02
  -2.852567e+02   4.278747e+02
  -4.221246e+02  -2.182238e+01
  -2.521012e+02  -7.101858e+02
   3.690299e+02  -7.093845e+02
   6.024614e+02   1.229959e+01
   2.800856e+02   6.068021e+02
  -3.261401e+02   3.716694e+02
  -4.174398e+02  -3.369412e+02
   5.727499e+01  -5.876692e+02
   5.801775e+02  -1.542448e+02
   5.666961e+02   4.058006e+02
   1.173474e+02   6.047837e+02
  -3.776721e+02   3.136465e+02
  -6.237649e+02  -8.422842e+01
  -3.975777e+02  -4.397094e+02
   1.493651e+02  -3.757825e+02
   4.575684e+02  -6.936940e+01
   2.566377e+02   2.050504e+02
  -1.441713e+02   1.065456e+02
  -2.024238e+02  -1.446345e+02
   1.402133e+02  -2.436678e+02
   3.796532e+02   2.936427e+00
   1.641593e+02   2.924767e+02
  -2.172075e+02   3.064910e+02
  -3.650840e+02   8.172408e+01
  -2.037066e+02  -1.154955e+02
   2.571586e+01  -2.843700e+02
   2.114949e+02  -3.420987e+02
   3.509107e+02  -2.122592e+02
   3.144940e+02   1.559782e+02
   5.529120e+01   4.585795e+02
  -1.163814e+02   4.276203e+02
  -1.589444e+02   8.949212e+01
  -7.189917e+01  -5.349960e+01
  -1.139187e+01   7.828220e+01
  -1.610100e+02   1.297150e+02
  -2.882424e+02  -4.633663e+01
  -1.680334e+02  -2.636789e+02
   9.499102e+01  -2.951162e+02
   2.410595e+02  -1.055570e+01
   1.842291e+02   2.850834e+02
  -4.156966e+01   3.172402e+02
  -2.835435e+02   1.228148e+02
  -3.474954e+02  -1.706534e+02
  -1.832739e+02  -3.605808e+02
   9.218706e+01  -3.238872e+02
   2.527698e+02  -1.214678e+02
   1.733495e+02   6.907765e+00
   1.159874e+02  -3.663087e+01
   2.165683e+02  -5.385492e+01
   4.154885e+02   7.477984e+01
   3.329737e+02   3.333153e+02
   1.815219e+01   4.963076e+02
  -3.369821e+02   4.338106e+02
  -4.603967e+02   2.186110e+02
  -3.342609e+02  -1.115077e+02
  -4.745741e+01  -3.222296e+02
   1.054829e+02  -2.541921e+02
   6.672144e+01   5.216499e+01
  -9.845633e+01   1.556235e+02
  -2.129239e+02  -1.574135e+01
  -6.950132e+01  -2.351858e+02
   1.773674e+02  -2.174879e+02
   2.077990e+02   3.212861e+01
  -1.490716e+01   2.364888e+02
  -1.637706e+02   5.023743e+01
  -1.326532e+02  -2.266932e+02
  -9.455569e+00  -3.414717e+02
   2.019150e+02  -2.204654e+02
   3.070553e+02   2.812147e+01
   2.731045e+02   2.402097e+02
   1.186993e+02   2.949577e+02
  -8.544918e+01   1.566368e+02
  -1.902503e+02   1.054466e+01
  -1.149069e+02  -2.220808e+01
   9.692485e+01   4.848458e+01
   6.586835e+01   1.512648e+02
  -1.350654e+02   1.523497e+02
  -2.673087e+02   2.154996e+01
  -1.021178e+02  -6.965848e+01
   2.557216e+01  -9.333699e+00
   3.255047e+01   3.258569e+01
  -1.223285e+02   5.183773e+01
  -2.260744e+02  -4.595742e+00
  -2.369373e+02  -1.154809e+02
  -5.220677e+01  -2.434523e+02
   1.620943e+02  -3.094198e+02
   2.927880e+02  -1.391774e+02
   1.737560e+02   9.321831e+01
   2.137802e+01   1.536112e+02
  -8.367717e+01   1.982760e+01
   1.056499e+01  -1.256841e+02
   1.795032e+02  -7.486179e+01
   2.168719e+02   1.163005e+02
   9.502726e+01   2.540779e+02
  -1.150556e+02   1.382944e+02
  -1.636199e+02   1.545715e+01
  -4.976412e+01  -4.626887e+01
   2.821082e+01  -2.687232e+01
   7.532985e+01   8.035719e+01
  -4.023332e+01   1.260117e+02
  -2.199912e+02   3.742768e+01
  -2.194070e+02  -9.959053e+01
  -3.375409e+01  -2.218781e+02
   1.734586e+02  -1.780902e+02
   2.041811e+02   5.883454e+00
   8.621596e+01   1.093917e+02
  -5.363000e+01   1.435308e+02
  -7.837473e+01   2.993030e+01
  -9.505119e+00  -5.220108e+01
   7.266133e+00  -3.176739e+01
   1.120463e+01   2.509998e+01
  -6.618311e+01  -2.281599e+00
  -1.152915e+02  -1.053351e+02
  -6.533486e+01  -1.528292e+02
   1.245821e+02  -1.581359e+02
   2.861860e+02  -6.050996e+01
   2.411670e+02   1.554113e+02
   4.921987e+01   2.780202e+02
  -1.288289e+02   1.638470e+02
  -1.599688e+02   1.295367e+01
  -5.879738e+01  -4.960296e+01
  -4.335830e+01  -1.084290e+01
  -9.113468e+01   2.815052e+01
  -8.832298e+01   2.846090e+01
  -5.489533e+01  -6.035448e+01
   3.946753e+01  -9.535723e+01
   1.126216e+02  -7.270787e+01
   6.843470e+01   6.746973e+01
   1.809536e+00   1.233834e+02
  -1.357706e+02   6.783301e+01
  -1.703155e+02  -8.220929e+01
  -1.003218e+02  -2.323910e+02
   1.453176e+02  -2.338520e+02
   2.993457e+02  -4.159130e+01
   2.687396e+02   1.401685e+02
   1.246380e+02   1.979345e+02
  -9.858762e+01   1.428818e+02
  -1.488840e+02   9.301237e+01
  -7.562642e+01   9.287907e+01
  -7.228520e+01   1.239504e+02
  -1.010132e+02   7.449937e+01
  -1.131229e+02  -1.281398e+01
  -1.642617e+02  -1.544698e+02
  -6.850680e+01  -2.372882e+02
   1.135716e+02  -2.091545e+02
   2.185301e+02  -3.124181e+01
   1.684191e+02   1.639821e+02
   2.085487e+01   1.983099e+02
  -8.880007e+01   1.169763e+02
  -9.857094e+01  -3.079435e+01
  -4.099610e+00  -3.701317e+01
  -5.925986e+00   3.736056e+00
  -5.989944e+01   1.093989e+01
  -9.450674e+01  -2.121205e+01
  -4.233733e+01  -4.475131e+01
   5.349031e+01  -4.039944e+01
   1.063174e+02   3.102114e+00
   1.455734e+02   6.023101e+01
  -3.876828e+00   1.230759e+02
  -1.046778e+02   9.145402e+01
  -1.712146e+02  -4.623499e+00
  -7.826419e+01  -4.158857e+01
   7.454511e+01  -1.010664e+02
   9.881702e+01  -1.080771e+01
  -1.996048e+01   5.424074e+01
  -8.386907e+01   8.661643e+01
  -5.236664e+01  -2.193808e+01
  -2.968988e+01  -4.062251e+01
  -2.798074e+01  -8.409917e+01
  -3.557594e+01  -1.774501e+01
  -8.258156e+01  -1.799661e+01
  -3.612053e+01  -8.301208e+01
   4.732821e+01  -1.143796e+02
   9.988403e+01  -1.122585e+02
   1.143891e+02  -4.559458e+00
   1.540719e+02   8.511984e+01
   3.452641e+01   1.264755e+02
  -3.200095e+01   6.924458e+01
  -3.754436e+01  -1.030552e+01
   3.796176e+01  -7.547464e+00
   1.264294e+02   4.815483e+01
   4.065712e+01   1.119489e+02
  -1.241253e+02   1.143275e+02
  -2.180136e+02   8.551295e+01
  -1.195516e+02  -4.162003e+01
  -3.259785e+01  -9.867539e+01
   4.237629e+01  -1.306184e+02
   4.729364e+01  -3.685708e+01
  -1.862582e+01   1.597809e+01
  -7.621212e+01  -5.609499e+01
  -4.444124e+01  -1.078304e+02
   1.043120e+02  -1.409325e+02
   1.780712e+02  -4.114148e+01
   1.337585e+02   1.269454e+02
   2.412903e+01   1.772019e+02
  -1.238350e+02   1.243767e+02
  -1.186563e+02  -1.948515e+01
  -3.041827e+01  -8.826712e+01
   3.514702e+01  -5.296491e+01
   7.738393e+01  -1.556715e+01
   4.121595e+01   2.725019e+01
   3.780373e+01   4.024341e+01
   2.445914e+01   2.467802e+01
   9.227356e+00   3.210974e+01
   2.257484e+01   7.066249e+01
   1.959990e+01   9.315074e+01
  -4.587166e+01   3.302882e+01
  -1.575520e+02  -4.490367e+01
  -1.281255e+02  -1.130658e+02
  -2.476728e+01  -8.700962e+01
   1.030994e+02  -1.541130e+01
   7.826500e+01  -1.578554e+01
  -3.488572e+00  -9.749367e+00
  -2.035138e+01   6.998904e+00
  -2.085010e+00   4.881461e+00
   3.161928e+01  -9.560552e+00
   4.789484e+01   2.909921e+01
  -4.622883e+00   1.060470e+01
  -7.308210e+01  -2.516988e+01
   3.442673e+01  -4.933165e+01
   1.638345e+02  -8.709486e+01
   2.044334e+02  -7.409698e+01
   1.075980e+02   9.168863e+01
   5.580274e+01   1.731402e+02
  -1.079209e+02   1.469397e+02
  -1.629355e+02   3.692821e+01
  -6.669478e+01  -3.159132e+01
  -1.385129e+01   1.105534e+01
  -1.582273e+01  -1.953427e+01
  -2.480005e+01  -2.689265e+01
  -4.595271e+01  -6.934541e+01
  -1.766855e+01  -1.153038e+02
   9.166791e+00  -6.975733e+01
   7.556876e+01   3.235438e+01
   7.242006e+01   1.026085e+02
   9.686086e+00   8.330062e+01
  -9.036125e+01  -5.652519e+00
  -1.026599e+02  -6.462954e+01
  -5.963570e+01  -1.001613e+02
   1.355991e+01  -3.112505e+01
   1.010379e+02  -6.625398e+00
   2.292159e+01   2.476396e+01
  -3.114732e+01   1.708243e+01
   2.202344e+01  -8.436416e+00
   6.482444e+01   3.639712e+00
   1.006225e+02   1.858781e+01
  -4.271020e+01   1.240625e+01
  -7.936044e+01   5.251164e+01
  -1.027795e+02   6.556515e+01
  -9.666207e+01  -1.519209e+01
   2.392966e+01  -1.237574e+02
   7.978161e+01  -8.054268e+01
  -1.174330e+01  -3.585401e+01
  -2.214328e+01   7.372268e+01
  -3.735364e+00   2.917251e+01
  -1.110609e+01  -2.740428e+01
  -3.558307e+01  -4.546952e+01
   3.383367e+01  -3.665314e+01
   4.488626e+01   3.943375e+01
   6.924585e+00   5.410021e+01
   3.938118e+01  -1.488971e+01
  -7.467745e+00  -2.337473e+01
  -5.991317e+01  -1.969394e+00
  -1.613598e+01  -6.963162e+00
  -8.027199e+00   4.836774e+01
  -1.277000e+01   1.782666e+01
  -2.273791e+01  -5.876141e+01
   4.423260e+01  -8.370495e+01
   6.167877e+01  -2.883445e+01
   5.259543e+01   5.774301e+01
   2.742508e+01   9.362358e+01
  -5.255367e+01   3.692196e+01
  -9.228889e+01  -4.947864e+01
  -5.827076e+01  -4.748845e+01
   4.075999e+01  -3.228386e+01
   9.542332e+01  -3.017332e+01
   5.341643e+01  -2.078363e+01
  -1.827759e+01  -3.357201e+01
  -3.168535e+00  -1.700668e+01
   4.531973e+01   1.449395e+01
   1.093665e+02   1.475767e+01
