
 $NMID
 id='ANONYMOUS ', fmtdat='(2E16.6)'
 volume=1.0
 tramp=1.0
 $END
   4.766087e+03   8.606909e+01
   2.623447e+03   2.765885e+03
  -9.200198e+02   3.070039e+03
  -2.456326e+03   8.700044e+02
  -1.056440e+03  -8.317158e+02
   9.143279e+02  -6.986678e+02
   1.163573e+03   5.126808e+02
   6.734244e+01   1.179268e+03
  -1.154572e+03   9.398366e+02
  -1.060330e+03  -3.351502e+02
  -4.186244e+02  -9.811492e+02
   3.552945e+02  -9.308310e+02
   7.578167e+02  -1.344155e+02
   5.235244e+02   8.071973e+02
  -3.140749e+02   9.010538e+02
  -7.564186e+02  -1.287934e+02
  -3.750476e+02  -6.788147e+02
   3.923046e+02  -7.845468e+02
   6.946613e+02  -9.204202e+01
   5.636875e+02   5.667089e+02
   1.643423e+02   3.860414e+02
  -4.154336e+02   7.622535e+01
  -1.757645e+02   7.646276e+01
   1.647499e+02  -1.721119e+02
   4.857904e+02  -4.793449e+01
   3.027984e+02   3.982581e+02
  -5.032469e+02   4.863836e+02
  -9.604639e+02   4.782340e-01
  -5.225136e+02  -5.890458e+02
   3.450846e+02  -4.783838e+02
   8.122133e+02  -4.452724e+01
   4.024310e+02   4.927799e+02
  -2.302023e+02   5.274357e+02
  -5.193603e+02   2.350080e+02
  -4.223328e+02  -2.625399e+02
  -3.794796e+01  -4.521614e+02
   2.648706e+02  -3.257041e+02
   2.609380e+02   2.381394e+02
  -1.569294e+02   5.760573e+02
  -5.906448e+02   7.507735e+01
  -3.016840e+02  -7.117397e+02
   4.372851e+02  -8.158783e+02
   7.299320e+02   4.138304e+01
   2.658471e+02   6.774394e+02
  -3.945712e+02   3.656486e+02
  -4.554170e+02  -3.683022e+02
   1.273403e+02  -6.192067e+02
   5.762104e+02  -1.426969e+02
   5.809384e+02   4.876252e+02
   1.033985e+02   6.356925e+02
  -4.277763e+02   3.377206e+02
  -6.562866e+02  -1.185835e+02
  -3.852829e+02  -4.510165e+02
   1.893134e+02  -4.221361e+02
   4.868564e+02  -1.983382e+01
   2.794565e+02   2.704265e+02
  -1.650029e+02   9.524060e+01
  -1.949141e+02  -2.046707e+02
   1.948114e+02  -2.391796e+02
   3.827376e+02   1.084235e+02
   1.231367e+02   3.483069e+02
  -2.691761e+02   2.811445e+02
  -3.588061e+02   7.891285e+01
  -1.642355e+02  -1.451167e+02
   5.614074e+00  -2.249251e+02
   2.141013e+02  -3.075738e+02
   3.561040e+02  -2.740705e+02
   3.125046e+02   1.595732e+02
   9.204666e+01   4.722841e+02
  -2.115175e+02   4.073019e+02
  -2.057072e+02   9.339643e+01
  -6.375320e+01  -4.559215e+01
   7.795912e-01   9.277582e+01
  -1.682898e+02   1.508018e+02
  -3.024437e+02  -4.530802e+01
  -1.697726e+02  -2.775441e+02
   8.484081e+01  -3.121203e+02
   2.518169e+02  -5.384660e+01
   2.445036e+02   2.321733e+02
   4.819101e+01   3.097304e+02
  -2.782027e+02   2.089298e+02
  -3.608442e+02  -9.277771e+01
  -1.746407e+02  -4.012645e+02
   1.533067e+02  -3.129767e+02
   2.655478e+02  -7.491539e+01
   1.040557e+02   9.141452e+01
   7.878917e+01   3.744615e+00
   1.987296e+02  -9.244612e+01
   3.579473e+02   2.820812e+01
   3.101148e+02   2.873895e+02
  -1.615954e+01   4.341990e+02
  -3.605169e+02   3.908384e+02
  -4.954789e+02   1.773938e+02
  -4.162205e+02  -1.393743e+02
  -1.508598e+02  -3.611296e+02
   1.367536e+02  -3.224164e+02
   1.237288e+02  -4.686259e+01
  -5.015522e+01   1.222364e+02
  -2.208626e+02  -3.975826e+01
  -3.539892e+01  -2.408752e+02
   1.471175e+02  -2.024907e+02
   1.751627e+02   1.044750e+02
   2.265362e+01   2.152608e+02
  -2.305859e+02   1.483123e+01
  -1.975623e+02  -2.473332e+02
   5.422808e+01  -3.744922e+02
   2.526973e+02  -2.250644e+02
   2.906144e+02   4.981341e+01
   2.431744e+02   2.499447e+02
   5.915801e+01   2.693804e+02
  -9.628910e+01   1.662842e+02
  -1.392090e+02   5.732356e+00
  -4.625685e+01   5.343610e+00
   2.815623e+01   7.037205e+01
  -3.170131e+01   1.617562e+02
  -1.170631e+02   1.323856e+02
  -1.829456e+02  -5.248849e+01
  -9.941477e+01  -8.358476e+01
   7.081449e+01   8.466014e+00
   5.905429e+01   8.385642e+01
  -1.050789e+02   9.155923e+01
  -2.918871e+02   2.754618e+01
  -2.648959e+02  -1.295592e+02
  -6.740627e+01  -2.753525e+02
   1.687631e+02  -2.729702e+02
   3.128280e+02  -1.277917e+02
   2.069346e+02   8.404008e+01
  -6.316762e+00   1.628034e+02
  -3.222721e+01   4.632942e+01
   1.156628e+01  -1.091893e+02
   1.588047e+02  -2.101100e+01
   2.316006e+02   1.254997e+02
   7.367699e+01   2.129196e+02
  -8.753237e+01   1.538531e+02
  -1.511653e+02   3.841535e+01
  -1.089342e+02  -6.519675e+01
   1.030343e+01  -3.179838e+01
   5.858775e+01   6.760859e+01
  -3.143560e+01   1.453391e+02
  -1.750946e+02   5.208222e+01
  -1.844807e+02  -1.104120e+02
   1.714515e+01  -2.413295e+02
   1.704883e+02  -2.013224e+02
   1.829329e+02   6.703459e+00
   1.065910e+02   1.391415e+02
  -3.500160e+01   9.407886e+01
  -7.001615e+01   6.030285e+01
  -2.712635e+01   7.602564e+00
   2.592040e+01  -1.690504e+01
  -1.076848e+01  -3.383458e+01
  -7.945745e+01  -2.809379e+01
  -1.008880e+02  -5.854621e+01
  -2.588141e+01  -1.637098e+02
   1.033621e+02  -1.586047e+02
   2.511563e+02  -1.460130e+01
   2.067958e+02   1.637005e+02
   3.523905e+01   2.358517e+02
  -8.750866e+01   1.406450e+02
  -1.368017e+02   2.239653e+01
  -6.278907e+01  -4.136552e+01
  -3.547006e+01  -1.490921e+01
  -9.006065e+01   6.408811e+01
  -6.867774e+01  -7.430392e+00
  -9.066725e+00  -7.332004e+01
   1.841500e+01  -1.087410e+02
   8.741543e+01  -8.647503e+01
   9.326425e+01   1.506915e+01
   1.535214e+01   1.118011e+02
  -1.164687e+02   6.816621e+01
  -1.808639e+02  -4.337114e+01
  -6.037192e+01  -2.000648e+02
   1.199446e+02  -2.270879e+02
   2.760054e+02  -9.122464e+01
   2.405530e+02   8.504239e+01
   1.066897e+02   1.509645e+02
  -1.502520e+01   1.442874e+02
  -7.899829e+01   1.248092e+02
  -7.866790e+01   9.453316e+01
  -9.962303e+01   9.000297e+01
  -1.133868e+02   6.415056e+01
  -1.115915e+02  -1.969979e+01
  -8.300564e+01  -1.747372e+02
  -6.141324e+01  -2.328685e+02
   8.670826e+01  -1.862064e+02
   1.422129e+02  -1.129971e+01
   1.318467e+02   1.419190e+02
   1.590844e+01   1.814393e+02
  -2.597755e+01   1.163210e+02
  -8.460147e+00   8.830916e+00
  -2.901639e+00  -4.511312e+01
   2.096624e+01  -3.487668e+01
  -4.033057e+01  -6.549185e+00
  -7.491092e+01  -1.547765e+01
  -9.886557e+00  -3.641032e+01
   6.557811e+01  -2.065013e+01
   1.382586e+02  -9.359047e+00
   1.218801e+02   9.507364e+01
   4.028126e+01   9.478422e+01
  -1.081290e+02   6.052763e+01
  -1.500782e+02  -3.430660e+01
  -5.066088e+01  -6.337667e+01
   4.721009e+01  -4.695911e+01
   8.477922e+01   4.055809e+01
   1.124327e+01   7.009776e+01
  -6.135594e+01   5.529869e+01
  -3.978140e+01  -2.808320e+01
  -1.798672e+01  -5.641815e+01
  -4.450643e+01  -6.084632e+01
  -1.047607e+02  -1.834578e+01
  -6.945495e+01  -2.243246e+01
  -4.095661e+01  -9.081416e+01
   5.954241e+01  -1.512591e+02
   1.097483e+02  -1.435651e+02
   1.546399e+02  -4.755158e+01
   1.269711e+02   9.386120e+01
   6.366100e+00   1.681118e+02
  -5.699094e+01   8.393774e+01
  -8.792014e+01  -2.745072e+01
   4.894748e+01  -8.305549e+00
   1.304006e+02   5.942051e+01
   8.315014e+01   9.920902e+01
  -8.966379e+01   7.878937e+01
  -1.734903e+02   7.255358e+01
  -1.227040e+02  -1.450451e+01
   9.790778e+00  -6.313668e+01
   5.812675e+01  -2.839536e+01
   4.199864e+01   1.102437e+01
  -6.440790e+01   1.033035e+01
  -7.992655e+01  -5.838114e+01
  -2.594633e+01  -1.388676e+02
   1.019511e+02  -1.788800e+02
   1.462296e+02  -5.959765e+01
   1.229133e+02   8.986596e+01
   1.835302e+01   1.938663e+02
  -4.904944e+01   1.384376e+02
  -7.774548e+01   3.102316e+01
  -4.297957e+01  -1.158942e+02
  -9.057344e+00  -1.188228e+02
   4.268868e+01  -2.779601e+01
   3.736395e+01   5.048373e+01
   1.819295e+01   2.581738e+01
  -2.106450e+01  -3.653158e+01
   3.358543e+01  -2.529903e+01
   1.815763e+01   8.840810e+01
   3.084100e+01   1.118737e+02
  -5.814209e+01   5.423550e+01
  -9.822323e+01  -5.481596e+01
  -1.386124e+02  -7.225859e+01
  -3.045505e+01  -2.001390e+01
   5.337736e+01   3.238476e+00
   6.510716e+01  -5.279199e+01
   7.110666e+00  -2.171542e+01
  -4.458154e+01   6.193105e+00
  -6.870422e+00  -8.498259e-02
   3.850288e+01  -1.997172e+01
   3.590026e+01  -5.466472e+01
  -3.203643e+00  -1.412968e+01
  -8.378365e+01  -1.203876e+01
  -9.161154e+00  -8.142916e+01
   1.159938e+02  -1.181880e+02
   1.259604e+02  -1.110896e+02
   1.239261e+02   9.213675e+01
   3.663134e+01   1.691077e+02
  -4.205069e+01   1.440370e+02
  -8.033939e+01   6.514129e+01
  -6.743804e+01   1.561304e+01
  -1.826045e+01  -1.581503e+01
  -2.191793e+01  -2.468971e+01
  -1.954424e+01  -1.510309e+01
  -8.163602e+00  -3.716110e+01
   8.063247e+00  -4.531562e+01
   8.372434e+00  -5.458625e+01
   1.091979e+02   3.087421e-01
   1.073257e+02   8.023455e+01
   2.557579e+01   1.092628e+02
  -7.729832e+01   4.403841e+01
  -8.925537e+01  -9.267719e+01
  -3.814701e+01  -9.832887e+01
   4.290202e+01  -5.355320e+00
   1.075061e+02   6.538223e+01
   2.048870e+00   7.615701e+01
  -5.584291e+01   1.583474e+01
  -3.646425e+01   1.766983e+01
   9.152084e+00   9.477963e+00
   4.801137e+01  -1.154369e+01
   1.541109e+01   3.693526e+01
  -6.915694e+01   4.861751e+01
  -8.595092e+01   9.867009e+01
  -6.291525e+01  -3.256718e+01
   1.507810e+01  -8.024830e+01
   4.515257e+01  -5.895993e+01
   2.231115e+01   2.175078e+01
  -6.722873e+01   8.321356e+01
  -6.173676e+01   3.956070e+01
  -9.657760e+01  -2.390107e+01
  -7.819176e+01  -6.943665e+01
  -1.186188e+01   4.312030e+00
   1.764429e+01  -7.514323e+00
   4.941243e+01   1.639237e+01
   1.868919e+01  -3.616888e+00
  -2.609224e+01  -1.059680e+01
   1.497113e+01  -1.218382e+01
   5.993239e+00   5.181723e+01
  -3.085912e+01   5.851891e+01
  -3.547725e+01   1.341518e+01
  -5.244297e+01  -6.780281e+01
  -1.473086e+01  -8.957402e+01
   2.559535e+01  -6.396853e+00
   1.732078e+01   4.712608e+01
   2.906562e+01   9.072444e+01
  -3.510768e+01   6.099347e+01
  -1.127360e+02  -5.802588e+01
  -2.539186e+01  -5.682530e+01
   3.491433e+01  -6.389929e+01
   1.029075e+02  -4.360811e+01
   2.451612e+01   2.696648e+00
  -5.441973e+01  -2.258031e+00
  -5.099654e+01  -1.900478e+01
   4.471430e+01  -1.819567e+01
   1.345165e+02  -1.185549e+01
