
 $NMID
 id='ANONYMOUS ', fmtdat='(2E16.6)'
 volume=1.0
 tramp=1.0
 $END
   3.554740e+03  -3.990656e+01
   2.182500e+03   1.694426e+03
  -2.709907e+02   2.027301e+03
  -1.650570e+03   8.362605e+02
  -8.354327e+02   1.110506e+02
   1.274738e+02  -1.702149e+02
   4.400228e+02   2.268726e+02
  -3.022651e+01   7.489198e+02
  -6.159759e+02   5.624910e+02
  -7.042661e+02  -1.604499e+01
  -4.203804e+02  -4.911835e+02
  -8.301580e+01  -6.754649e+02
   3.612309e+02  -1.635144e+02
   5.086237e+01   5.442313e+02
  -1.021267e+02   4.225186e+02
  -6.022613e+02   5.906171e+01
  -1.532757e+02  -3.490427e+02
   2.126984e+02  -6.667324e+02
   4.415263e+02  -2.330159e+02
   4.214667e+02   1.008363e+02
   1.745399e+02   3.319648e+02
  -9.066341e+01   3.383096e+02
  -6.682052e+01   1.561515e+02
   1.324773e+00   1.137420e+02
   2.642712e+02   4.221067e+02
   7.337108e+00   4.309160e+02
  -4.818281e+02   1.262094e+02
  -7.703936e+02  -3.217014e+02
  -2.499885e+02  -4.045996e+02
   2.518166e+02  -1.913545e+02
   5.608165e+02   8.288655e+01
   2.332404e+02   4.423194e+02
  -2.739753e+02   3.610872e+02
  -5.060251e+02   1.219503e+02
  -3.870470e+02  -2.963920e+02
   1.834419e+01  -3.812604e+02
   5.993643e+01  -1.539991e+02
   4.619982e+01   2.148556e+02
  -2.015603e+02   2.447076e+02
  -2.679381e+02  -1.795817e+02
  -9.493066e+01  -4.754782e+02
   3.135126e+02  -4.070675e+02
   3.823114e+02   3.770286e+01
   5.812992e+01   3.228248e+02
  -2.322691e+02   8.468121e+01
  -2.208198e+02  -3.425498e+02
   1.690440e+02  -4.191469e+02
   5.202249e+02  -8.515410e+01
   5.255477e+02   3.459401e+02
   2.086545e+02   5.173870e+02
  -3.009680e+02   2.668929e+02
  -5.142662e+02  -8.937091e+01
  -3.254796e+02  -3.195483e+02
   9.749213e+01  -2.753604e+02
   3.160162e+02  -2.815875e+01
   2.201918e+02   9.970559e+01
  -3.295130e+01   1.544478e+01
  -8.216453e+01  -1.377182e+02
   1.276597e+02  -1.363708e+02
   2.281699e+02   3.436454e+01
   1.237125e+02   2.245607e+02
  -1.688178e+02   2.509931e+02
  -2.816496e+02   7.953140e+01
  -2.578995e+02  -9.158144e+01
   9.406309e+00  -2.703398e+02
   2.870249e+02  -2.931982e+02
   4.365588e+02  -1.198124e+02
   3.010985e+02   2.214434e+02
   2.667048e+01   4.319568e+02
  -9.861139e+01   3.410867e+02
  -6.697008e+01   1.379825e+02
  -3.097722e+01   5.178426e+01
  -1.429829e+02   1.099776e+02
  -2.597196e+02   6.055082e+01
  -2.454020e+02  -8.899373e+01
  -8.564152e+01  -2.982145e+02
   1.264198e+02  -2.197933e+02
   2.055983e+02   8.230634e-01
   1.592862e+02   2.567151e+02
  -4.453335e+01   2.674698e+02
  -2.511679e+02   9.514950e+01
  -3.501459e+02  -1.560929e+02
  -1.639187e+02  -2.926247e+02
   6.500711e+01  -2.817121e+02
   2.196430e+02  -1.392151e+02
   1.771110e+02  -3.870491e+01
   1.637286e+02  -5.199807e+01
   2.578498e+02  -5.623228e+01
   3.992898e+02   1.063392e+02
   3.092947e+02   3.673222e+02
  -4.865318e+01   4.725059e+02
  -4.497559e+02   3.634520e+02
  -5.256034e+02   1.462685e+02
  -2.765218e+02  -1.028165e+02
  -3.927677e+01  -2.669619e+02
   1.223101e+02  -2.182807e+02
   3.280581e+01  -4.723314e+01
  -8.919272e+01   2.428684e+01
  -1.661974e+02  -6.194764e+00
  -4.155644e+00  -1.305593e+02
   1.049030e+02  -7.787308e+01
   1.033667e+02   9.340469e+01
   1.635696e+00   1.495013e+02
  -1.821550e+02  -5.781677e+01
  -1.833531e+02  -2.445724e+02
   1.901371e+01  -3.211929e+02
   2.139154e+02  -1.892924e+02
   3.244737e+02   8.942401e+01
   2.377817e+02   2.253208e+02
   9.032438e+01   2.405382e+02
  -6.994561e+01   1.138636e+02
  -1.462341e+02   2.463878e+01
  -2.993865e+01   1.818063e+01
   4.116536e+01   6.284825e+01
  -1.084381e+01   1.125924e+02
  -9.566025e+01   4.800044e+01
  -1.601296e+02  -4.902864e+01
  -5.476459e+00  -1.869404e+01
   7.566114e+01   5.861087e+00
   3.909280e+00   6.842649e+01
  -1.886263e+02   2.993902e+01
  -2.860810e+02  -2.666654e+01
  -2.602099e+02  -1.410461e+02
  -6.234146e+01  -2.267859e+02
   1.657576e+02  -2.112529e+02
   2.565201e+02  -1.200526e+02
   9.592877e+01   7.863453e+00
   1.611286e+01   4.801858e+01
  -2.808059e+01  -2.385166e+01
   7.987734e+01  -8.636058e+01
   1.943734e+02  -5.170611e+01
   1.974938e+02   1.022986e+02
   7.632303e+01   1.990781e+02
  -4.624335e+01   1.193309e+02
  -1.126950e+02   4.992900e+00
  -1.451024e+01   3.589044e+00
   3.980170e+01   8.037203e+00
   2.347452e+01   1.274500e+02
  -1.004443e+02   8.409724e+01
  -1.866980e+02  -7.543640e+00
  -1.606923e+02  -1.333430e+02
   1.210520e+01  -1.848671e+02
   1.490030e+02  -1.468237e+02
   1.751101e+02   1.718747e+00
   1.729793e+01   1.455928e+02
  -6.851528e+01   8.951321e+01
  -7.437278e+01   4.174648e+01
  -4.441305e+01  -4.710099e+00
   1.262009e+00   1.451474e+01
  -3.675868e+01   4.904122e+01
  -1.123119e+02  -2.520932e+01
  -1.553747e+02  -1.051709e+02
   1.719178e+01  -2.170278e+02
   1.719624e+02  -2.003427e+02
   2.774595e+02  -1.982181e+01
   2.027168e+02   1.475172e+02
   5.583645e+01   2.204869e+02
  -8.543144e+01   2.095058e+02
  -1.064936e+02   1.727453e+01
  -4.984195e+01  -7.773569e+01
  -1.539574e+01  -5.884054e+01
  -1.357140e+01   2.735666e+01
  -7.125135e+01   1.836841e+01
  -7.298998e+01  -1.044871e+01
   5.549713e+01  -1.215420e+02
   1.247826e+02  -8.488722e+01
   6.811074e+01   2.153882e+01
  -2.667023e+01   1.515214e+02
  -1.357951e+02   9.343578e+01
  -2.018710e+02  -5.079722e+01
  -9.564481e+01  -2.077280e+02
   9.184655e+01  -2.301910e+02
   2.783183e+02  -8.772167e+01
   2.110409e+02   7.414074e+01
   6.175066e+01   1.258466e+02
  -4.309333e+01   1.293559e+02
  -7.116557e+01   1.085811e+02
  -7.838933e+01   2.066517e+01
  -8.770715e+01   1.409213e+02
  -1.148629e+02   1.132381e+02
  -1.810715e+02  -2.430758e+01
  -9.376617e+01  -1.972969e+02
  -8.356605e-01  -2.470465e+02
   1.193413e+02  -1.674392e+02
   1.419811e+02  -2.556276e+01
   1.286253e+02   1.261294e+02
   1.496517e+01   1.710599e+02
  -5.831909e+01   9.279828e+01
  -1.763056e+01  -2.117612e+01
   2.821853e+01  -3.376938e+01
  -6.800454e+00  -3.086042e+01
  -2.662886e+01   4.223550e+01
  -7.994798e+01   9.963631e+00
  -3.113293e+01  -4.336591e+01
   9.480127e+01  -3.565156e+01
   1.331429e+02  -2.057381e+01
   1.227508e+02   3.013461e+01
   1.669682e+01   9.554179e+01
  -1.034400e+02   8.116691e+01
  -1.360649e+02  -1.936746e+01
  -4.514378e+01  -6.530042e+01
   3.174882e+01  -4.156754e+01
   8.095974e+01   1.929600e+01
   5.914073e+01   6.975667e+01
  -2.467258e+01   8.378371e+01
  -1.003794e+02   1.052311e+01
  -7.051434e+01  -3.023639e+01
  -5.143198e+01  -4.006101e+01
  -9.886826e+01   6.053877e+00
  -8.755110e+01   9.234894e+00
  -6.048181e+01  -4.914982e+01
   6.300311e+01  -1.304731e+02
   9.545737e+01  -1.855937e+02
   1.617386e+02  -1.935904e+01
   9.776041e+01   9.704654e+01
   2.676243e+01   1.718747e+02
  -7.906675e+01   3.139180e+01
  -4.948678e+01   1.115876e+01
   5.421523e+01  -2.640350e+01
   1.141074e+02   2.118219e+01
   8.041433e+01   5.338075e+01
  -7.224621e+01   1.028223e+02
  -1.541137e+02   5.834796e+01
  -1.542411e+02   2.554404e+01
  -3.094756e+01  -8.542541e+01
   4.828627e+01  -2.163729e+01
   7.175175e+01   4.087853e+01
  -4.842604e+01   5.812453e+01
  -9.636188e+01  -1.200084e+01
  -3.645217e+01  -1.393975e+02
   5.951449e+01  -1.374772e+02
   1.055521e+02  -2.494021e+01
   1.023293e+02   9.829860e+01
  -1.482089e+01   2.118369e+02
  -9.948279e+01   1.447237e+02
  -7.105328e+01  -4.815475e+01
  -4.796979e+01  -1.250266e+02
  -1.531673e+01  -1.101630e+02
   7.560309e+01  -1.243624e+01
   7.359193e+01   4.742464e+01
   4.540692e+00  -1.035314e+01
   6.472142e+00  -2.394988e+01
   5.144414e+01   3.764207e+00
   9.441093e+01   6.666236e+01
   6.599638e+00   9.285445e+01
  -3.426246e+01   6.093081e+01
  -1.387842e+02  -4.595370e+01
  -1.538464e+02  -3.796818e+01
  -3.422172e+01  -1.020068e+02
   6.469677e+01  -2.997891e+01
   1.145082e+02  -1.486835e+01
   1.267432e+01   4.366342e+01
  -5.490358e+01   7.624489e+01
  -2.199866e+01   9.675538e+00
  -2.238039e+01  -7.669660e+00
  -4.871274e+01   2.624918e+01
  -7.815390e+01   1.709283e+00
  -3.150575e+01  -4.605108e+00
  -5.722548e+01  -8.316612e+01
   7.288096e+01  -1.410883e+02
   1.044503e+02  -2.147568e+01
   1.404663e+02   4.507709e+01
   6.283337e+01   1.670694e+02
  -5.271087e+01   1.670357e+02
  -1.155067e+02   5.694511e+01
  -8.172078e+01  -1.799282e+01
  -2.814671e+01  -1.697826e+01
   3.041340e+01  -4.534467e+01
  -1.954964e+01  -5.530135e+01
  -7.669940e+01  -8.191310e+01
  -4.728002e-01  -8.836389e+01
   7.711651e+01  -4.021049e+01
   7.618765e+01   5.439104e+00
   4.808693e+01   9.522577e+01
  -1.324433e+01   1.070831e+02
  -6.760126e+01   5.952903e+01
  -9.423872e+01  -6.883616e+01
   1.668485e+01  -1.156058e+02
   4.552072e+01  -8.804561e+01
   8.712318e+01   1.305201e+01
   2.462834e+01   3.970261e+01
   3.548247e+00   9.118777e+01
  -6.862547e+00   2.310816e+01
   2.218776e+01  -1.025339e+01
   7.848527e+01   6.326507e+01
   7.224944e+01   4.733968e+01
  -9.696891e+01   1.725700e+01
  -1.420967e+02   3.746576e+01
  -9.566037e+01  -2.823542e+01
   9.021719e+00  -1.172948e+02
   6.935674e+01  -1.319647e+02
   7.892379e+01  -5.794393e+00
  -2.549002e+01   5.824393e+01
  -2.790665e+01   4.929896e+01
  -4.994308e+01  -9.518585e+00
  -2.976008e+01  -5.292672e+01
   1.435055e+01  -5.890106e+01
   9.419234e+00   1.119890e+01
   1.640924e+01   4.397978e+01
  -1.905809e+01   1.043672e+01
  -1.626082e+01   7.794151e+00
  -2.041378e+01  -1.646197e+01
   1.027956e+01   5.553584e+01
   3.004560e+00   5.080520e+01
  -1.424087e+01   2.219375e+01
  -8.221199e+01  -1.313577e+01
   5.452823e+00  -7.724356e+01
   7.952848e+01  -4.183754e+01
   3.634582e+01   4.524554e+00
   6.927467e+01   3.733245e+01
  -3.811418e+01   9.451552e+01
  -7.181584e+01   4.803436e+01
  -5.042463e+01  -1.576518e+01
   1.525087e+01  -4.071954e+01
   6.312665e+01  -4.022002e+01
  -5.098908e+00  -2.961265e+01
  -2.843411e+01   4.759896e+00
  -4.673846e+01  -6.656328e+00
   1.550619e+01  -3.674015e+01
   4.440756e+01  -2.898863e+01
