
 $NMID
 id='ANONYMOUS ', fmtdat='(2E16.6)'
 volume=1.0
 tramp=1.0
 $END
   3.151044e+03   1.804898e+02
   2.125588e+03   1.860354e+03
  -2.405466e+02   2.344067e+03
  -1.441724e+03   1.208188e+03
  -1.007601e+03   2.274641e+02
   1.605047e+01  -3.522909e+02
   5.865287e+02   3.248190e+02
   1.540765e+02   5.770492e+02
  -5.239434e+02   6.366095e+02
  -6.864947e+02   8.634067e+01
  -3.682066e+02  -6.417195e+02
   1.745479e+02  -7.215928e+02
   2.859261e+02  -2.838469e+02
   2.743348e+02   2.736263e+02
  -6.561505e+00   6.207315e+02
  -4.718659e+02   5.573386e+01
  -3.693043e+02  -6.226506e+02
   6.277672e+00  -6.527726e+02
   3.769464e+02  -3.678485e+02
   5.240641e+02   4.088052e+01
   2.505518e+02   4.342200e+02
  -2.508120e+02   4.162390e+02
  -5.113571e+01   8.560056e+00
   1.798723e+02  -1.451937e+02
   2.415420e+02   2.230219e+02
   6.287412e+01   3.413912e+02
  -4.656689e+02   2.663754e+02
  -6.084598e+02  -1.266637e+02
  -2.106663e+02  -2.813300e+02
   3.622951e+02  -1.862317e+02
   4.208444e+02   1.063133e+01
   2.640013e+02   3.664169e+02
  -1.795792e+02   3.491824e+02
  -5.255360e+02   2.265036e+02
  -3.018148e+02  -1.613356e+02
  -7.482056e+01  -3.666496e+02
   6.370726e+01  -2.196594e+02
   3.548150e+01   9.207844e+01
  -1.395303e+02   2.375174e+02
  -2.440991e+02  -1.411671e+02
  -2.774213e+01  -4.544050e+02
   2.708183e+02  -4.194811e+02
   2.626597e+02  -8.255200e+00
   1.140755e+02   3.634297e+02
  -1.617422e+02   2.170129e+02
  -2.083684e+02  -2.933995e+02
   8.297590e+01  -4.694500e+02
   4.125914e+02  -1.128989e+02
   4.726773e+02   3.305575e+02
   1.864126e+02   5.114797e+02
  -2.271906e+02   2.997156e+02
  -4.780911e+02  -4.934791e+01
  -3.287380e+02  -2.248435e+02
  -2.375453e+01  -2.183231e+02
   2.338551e+02  -9.654737e+01
   1.943071e+02  -2.243290e+01
   1.845823e+01   3.902723e+00
  -5.610434e+01  -4.752172e+01
   7.743330e+01  -8.671729e+01
   2.487060e+02   2.282463e+00
   1.713641e+02   1.569300e+02
  -1.285360e+02   2.403933e+02
  -3.368583e+02   1.251499e+02
  -2.572221e+02  -8.840895e+01
   3.734826e+01  -3.190040e+02
   2.523489e+02  -3.524388e+02
   3.282744e+02  -1.514764e+02
   2.305422e+02   1.457141e+02
   7.898037e+01   3.532780e+02
  -6.321132e+01   3.097573e+02
  -4.899929e+01   1.465817e+02
  -8.685240e+01   6.020653e+01
  -1.002232e+02   4.890620e+01
  -2.067770e+02   3.045082e+01
  -1.743946e+02  -1.158848e+02
  -6.998999e+01  -2.568938e+02
   9.119503e+01  -1.804788e+02
   1.882139e+02   2.416680e+01
   1.258346e+02   2.052366e+02
  -6.800339e+01   2.776012e+02
  -2.688268e+02   4.935430e+01
  -2.961747e+02  -1.676383e+02
  -1.310732e+02  -2.904713e+02
   7.847151e+01  -2.694325e+02
   1.914609e+02  -1.619906e+02
   1.671368e+02  -8.866726e+01
   1.817780e+02  -4.451315e+01
   2.717315e+02  -7.686106e+00
   3.997758e+02   1.456118e+02
   2.879655e+02   2.810451e+02
   2.263208e+01   4.521421e+02
  -3.734613e+02   4.242190e+02
  -4.842180e+02   2.000113e+02
  -3.000907e+02  -1.015721e+02
  -9.428970e+01  -2.647988e+02
   6.693235e+01  -2.383892e+02
   5.147418e+01  -2.715615e+01
  -7.039836e+01   4.802139e+01
  -9.657707e+01  -2.781222e+01
   1.004597e+01  -1.567446e+02
   1.003601e+02  -8.870682e+01
   9.509729e+01   6.434183e+01
  -6.952233e+01   1.605298e+02
  -1.518462e+02  -1.294108e+00
  -9.632386e+01  -2.079843e+02
   1.014749e+01  -3.417594e+02
   2.546595e+02  -2.659859e+02
   3.624862e+02   3.304584e+01
   2.650972e+02   2.996976e+02
   7.583687e+01   3.311131e+02
  -1.282400e+02   1.623808e+02
  -1.401662e+02   1.069308e+01
  -2.912781e+01  -1.539423e-01
   4.009799e+01   9.982084e+01
  -9.740122e+00   1.273818e+02
  -1.551676e+02   7.945967e+01
  -1.838254e+02  -6.507702e+01
  -1.364032e+01  -1.061419e+02
   9.644882e+01   4.037554e+01
   3.437532e+01   1.238168e+02
  -1.425003e+02   1.251217e+02
  -2.990393e+02   2.202966e+01
  -2.699771e+02  -1.434457e+02
  -7.852732e+01  -2.812780e+02
   1.826092e+02  -2.270156e+02
   2.517347e+02  -8.982789e+01
   1.406977e+02   5.994438e+01
  -6.641679e+00   6.067370e+01
  -1.590776e+01  -7.855401e+01
   9.798676e+01  -5.909021e+01
   1.756702e+02  -3.266272e+01
   1.980168e+02   1.004525e+02
   8.749372e+01   1.981146e+02
  -8.050553e+01   1.422465e+02
  -8.393851e+01   4.051771e+01
  -5.380194e+01  -1.230368e+01
   5.067853e+01   5.766154e+01
   8.134376e+00   1.311239e+02
  -1.088965e+02   8.747618e+01
  -2.715637e+02  -5.133081e+00
  -1.959852e+02  -1.246576e+02
  -1.743565e+01  -1.857216e+02
   1.494646e+02  -1.439746e+02
   1.295561e+02  -4.712543e+01
   9.066597e+01   7.834418e+01
  -5.558666e+01   1.335899e+02
  -3.152657e+01   6.400903e+01
  -9.106850e+00   2.195513e+01
  -1.123009e+01   1.041230e+01
  -4.416958e+01   1.358363e+01
  -9.748758e+01  -2.564165e+01
  -1.150620e+02  -1.089981e+02
   8.235541e+00  -1.894871e+02
   1.310513e+02  -1.601268e+02
   2.240109e+02  -7.282559e+00
   2.068049e+02   1.413237e+02
   5.599020e+01   2.133786e+02
  -6.541025e+01   1.391870e+02
  -1.081932e+02   3.932471e+01
  -9.071195e+01  -1.824587e+01
  -5.947586e+01  -1.953704e+01
  -1.103356e+02   2.500057e-02
  -5.337717e+01  -1.956401e+01
  -2.564420e+01  -3.895620e+01
   1.896468e+01  -9.754811e+01
   1.517949e+02  -5.524741e+01
   1.225823e+02   6.232638e+01
  -3.976493e+01   1.571645e+02
  -1.409124e+02   8.394237e+01
  -2.079369e+02  -3.082761e+01
  -7.453965e+01  -1.908258e+02
   1.307525e+02  -2.280431e+02
   2.463918e+02  -1.172087e+02
   2.373854e+02   9.574534e+01
   8.992382e+01   1.732159e+02
  -2.787967e+01   1.540328e+02
  -6.437857e+01   9.772917e+01
  -6.329968e+01   6.214374e+01
  -8.614335e+01   7.080841e+01
  -9.840066e+01   6.515789e+01
  -1.386980e+02  -1.327321e+01
  -1.166622e+02  -1.173997e+02
  -4.564186e+01  -2.444189e+02
   5.065873e+01  -1.626503e+02
   1.561260e+02  -6.789526e+00
   1.289941e+02   1.183534e+02
   2.402603e+01   1.293354e+02
  -4.665542e+01   6.947791e+01
  -8.683725e+01   1.779136e+00
  -1.604906e+01  -3.350578e+01
   2.863934e+01  -4.204443e+01
  -1.333308e+01  -1.222010e+01
  -6.685474e+01  -2.685346e+01
  -5.256233e+01  -2.831111e+01
   3.518948e+01  -4.705952e+01
   1.468286e+02   1.229640e+01
   1.152790e+02   7.107694e+00
   6.048127e+00   5.810591e+01
  -8.255989e+01   6.438500e+01
  -1.221524e+02   9.109978e+00
  -3.483013e+01  -1.617531e+01
   6.433549e+01  -2.977547e+01
   6.348162e+01   2.332017e+01
   3.943070e+01   1.075202e+02
  -1.140269e+01   7.614633e+01
  -6.158113e+01   1.766952e+01
  -8.531895e+01  -2.376444e+01
  -9.430815e+01  -3.435219e+00
  -7.634858e+01   2.887277e+01
  -7.001770e+01  -7.408485e+00
  -5.474143e+01  -8.849986e+01
  -1.479417e+00  -1.484101e+02
   1.222778e+02  -1.433373e+02
   1.723258e+02  -5.438235e+01
   1.479327e+02   8.097450e+01
   2.291889e+01   1.189191e+02
  -7.455904e+01   6.195736e+01
  -7.077246e+01   1.768700e+01
   7.599328e+00  -2.629557e+01
   9.425866e+01   1.237591e+01
   7.732290e+01   6.915270e+01
  -3.856042e+01   7.930132e+01
  -1.560274e+02   4.021345e+01
  -1.678327e+02  -3.724537e+01
  -4.292806e+01  -5.696663e+01
   4.200182e+01  -2.859541e+01
   4.784456e+01  -9.573190e+00
  -2.940591e+01  -2.543383e+01
  -6.040449e+01  -1.160576e+01
  -1.689313e+01  -1.011396e+02
   8.720541e+01  -1.569039e+02
   1.802143e+02  -7.917477e+01
   1.425526e+02   1.053425e+02
   3.968143e+01   1.958788e+02
  -5.457889e+01   1.522020e+02
  -7.627610e+01   4.500126e+00
  -6.160632e+01  -8.652407e+01
  -3.597328e+01  -8.674180e+01
   1.468642e+01  -9.627438e+00
   3.332248e+01   5.615722e+01
   3.382837e+00   9.225905e+00
  -3.576992e+01  -2.437983e+01
  -4.192111e+00   2.246079e+00
   7.360090e+01   8.848419e+01
   5.254420e+01   1.202507e+02
  -4.590449e+01   3.164393e+01
  -1.494704e+02  -5.995304e+01
  -1.089171e+02  -3.024508e+01
   6.306489e-01  -3.328584e+01
   1.236826e+02  -5.843326e+01
   1.358678e+02  -7.491026e+00
   8.176028e+01   2.505249e+01
  -4.563822e+01   1.917244e+01
  -1.148596e+01   2.666292e+01
  -1.831513e+01   1.821321e+01
  -5.347502e+01  -9.101753e+00
  -7.107345e+01   3.353869e-01
  -3.710430e+01  -4.228608e+01
  -1.407582e+01  -8.717964e+01
   1.262182e+02  -9.889293e+01
   1.599325e+02  -3.963922e+01
   1.455008e+02   9.082656e+01
   1.553980e+01   1.549563e+02
  -9.098416e+01   1.315669e+02
  -1.288779e+02   7.331199e+01
  -7.712912e+01  -4.752200e+01
  -3.961170e+01  -4.099596e+01
  -4.231763e+00  -1.548027e+01
   4.745070e+00  -3.361420e+01
  -3.876947e+01  -3.856674e+01
  -3.159302e+01  -8.492710e+01
   1.963080e+01  -7.816424e+01
   8.934642e+01   8.529672e-01
   1.207957e+02   9.289411e+01
   2.324923e+01   8.144092e+01
  -3.095730e+01   7.783095e+01
  -9.312859e+01  -5.971495e+01
  -8.460663e+01  -9.230293e+01
   3.363720e+01  -4.628625e+01
   7.681630e+01  -3.226696e+01
   2.955766e+01   4.940735e+01
  -3.948133e+00   4.734452e+01
  -4.201570e+01   3.018115e+01
  -2.957361e+01  -7.041639e+00
   6.164262e+01  -2.492536e+01
  -4.942291e+00   4.149701e+00
  -6.608809e+01   1.394772e+01
  -8.173902e+01  -8.002624e+00
  -4.060968e+01  -2.293412e+00
   3.705599e+01  -4.112001e+01
   7.480611e+01  -5.833640e+01
  -1.192236e+01   1.152659e+01
   2.986998e+01   4.185454e+01
  -4.646736e+01   1.063330e+01
  -4.073741e+01  -1.602426e+01
  -2.533935e+01  -6.045129e+01
   3.034790e+01  -3.863905e+01
   3.029318e+01  -5.861132e+00
   6.089944e+01   7.024704e+01
   3.265839e+01  -2.141826e+01
   8.627257e+00   6.173679e+00
  -1.501040e+01  -2.588204e+01
  -1.180603e+01   1.773021e+01
  -2.408082e+01   2.524502e+01
  -3.343024e+01   4.014216e+01
  -2.677195e+00  -1.645482e+01
   2.132299e+01  -2.765999e+01
   1.722871e+01  -3.524989e+01
   5.298120e+01   1.993917e+01
   3.650312e+01   4.602189e+01
  -3.875541e+01   2.430378e+01
  -1.001149e+02  -2.135491e+01
  -4.736587e+01  -1.052333e+01
  -1.361396e+01  -3.723084e+01
   7.142769e+01  -2.276274e+01
   2.471519e+01  -2.535211e+01
  -1.914639e+01  -2.867335e+01
  -2.639379e+01  -1.477516e+01
   3.187651e+01  -1.960949e+01
   8.287485e+01   1.207288e+01
