
 $NMID
 id='ANONYMOUS ', fmtdat='(2E16.6)'
 volume=1.0
 tramp=1.0
 $END
   3.886564e+03  -2.488232e+01
   2.119814e+03   2.059514e+03
  -2.399206e+02   2.125247e+03
  -1.556323e+03   1.007414e+03
  -9.018594e+02  -2.391207e+02
   1.885790e+02  -2.284387e+02
   4.229665e+02   2.480946e+02
  -5.407943e+01   8.038647e+02
  -5.838508e+02   5.534083e+02
  -9.185832e+02   8.100361e+01
  -3.851327e+02  -7.166422e+02
   2.086422e+02  -6.412699e+02
   2.855631e+02  -1.696121e+02
   2.095933e+02   5.811720e+02
   5.670888e+01   5.577555e+02
  -6.474802e+02  -2.989112e+00
  -9.517113e+01  -4.065552e+02
   3.002740e+02  -5.524699e+02
   2.527037e+02  -2.114687e+02
   4.832677e+02   1.890559e+02
   6.246116e+01   3.947960e+02
  -1.862894e+02   2.690081e+02
  -6.137551e+01  -4.559432e+01
   1.093430e+02  -2.149530e+01
   5.219582e+02   2.953792e+02
   3.184189e+01   4.312501e+02
  -4.569555e+02   2.386533e+02
  -8.683009e+02  -3.986249e+01
  -4.199307e+02  -4.078082e+02
   3.865963e+02  -2.645076e+02
   5.933697e+02   1.344328e+02
   2.521872e+02   3.779507e+02
  -2.954556e+02   3.815055e+02
  -4.790555e+02   9.255289e+01
  -3.924135e+02  -2.704734e+02
  -1.242128e+02  -4.565275e+02
   5.664364e+01  -2.206986e+02
   1.335790e+02   2.396136e+02
  -1.411712e+02   3.511365e+02
  -2.516800e+02  -1.075291e+02
  -1.783253e+02  -5.758498e+02
   2.779529e+02  -5.372695e+02
   4.485754e+02   1.713157e+01
   1.746456e+02   4.350848e+02
  -2.400843e+02   2.394512e+02
  -3.426587e+02  -3.225600e+02
   9.426373e+01  -5.025771e+02
   5.192674e+02  -1.378819e+02
   4.966349e+02   4.014818e+02
   1.759165e+02   5.218234e+02
  -3.661388e+02   2.765784e+02
  -6.033938e+02  -1.018296e+02
  -3.746906e+02  -3.519598e+02
   1.262925e+02  -3.102184e+02
   4.058439e+02  -4.222023e+01
   2.397887e+02   1.492135e+02
  -1.061163e+02   8.376677e+01
  -1.138374e+02  -1.291347e+02
   1.446854e+02  -2.002062e+02
   3.029222e+02  -8.078332e-01
   1.534709e+02   2.461841e+02
  -1.832673e+02   2.746157e+02
  -3.429094e+02   1.279302e+02
  -2.417924e+02  -7.647621e+01
   2.918322e+01  -2.975518e+02
   2.536317e+02  -3.890645e+02
   3.479664e+02  -2.103216e+02
   2.493954e+02   1.452429e+02
   2.972149e+01   3.527908e+02
  -1.256441e+02   2.896724e+02
  -6.046367e+01   7.776959e+01
   4.106286e+01   2.568660e+01
  -7.452240e+01   1.284807e+02
  -2.622035e+02   8.707281e+01
  -2.588480e+02  -1.017999e+02
  -6.208073e+01  -2.875100e+02
   1.061360e+02  -1.917940e+02
   2.047669e+02   3.203419e+01
   1.328269e+02   2.597164e+02
  -5.306799e+01   2.950184e+02
  -2.395173e+02   8.276350e+01
  -3.330240e+02  -1.909908e+02
  -1.917131e+02  -3.346397e+02
   7.624492e+01  -3.032101e+02
   1.996455e+02  -1.009478e+02
   1.549712e+02  -4.881985e+01
   1.301603e+02  -7.472469e+01
   2.797971e+02  -4.977130e+01
   4.323229e+02   6.172070e+01
   3.200042e+02   3.366770e+02
  -2.069181e+01   4.171033e+02
  -3.829656e+02   3.879294e+02
  -5.069751e+02   1.542305e+02
  -3.007825e+02  -1.241614e+02
  -4.038109e+01  -2.703085e+02
   1.212776e+02  -2.442887e+02
   8.059896e+01  -3.834774e+01
  -7.655566e+01   1.150057e+02
  -1.727406e+02   2.976238e+00
  -9.907029e+01  -1.554478e+02
   1.084712e+02  -1.511806e+02
   1.487369e+02   1.640232e+01
   5.294527e+01   1.435121e+02
  -1.487452e+02   1.479793e+01
  -1.150657e+02  -2.152302e+02
   2.481364e+01  -3.577387e+02
   2.284959e+02  -1.903485e+02
   3.549897e+02   1.141042e+02
   2.971139e+02   2.651336e+02
   4.719155e+01   2.890375e+02
  -1.392325e+02   1.339359e+02
  -1.952443e+02   2.074328e+01
  -5.814400e+01  -5.926795e+01
  -5.683200e+00   3.202090e+01
   1.029225e+01   1.408245e+02
  -1.025389e+02   7.725316e+01
  -1.649076e+02  -1.529732e+01
  -4.307302e+01  -8.611249e+01
   5.847092e+01  -3.397257e+01
   4.287404e+01   6.364199e+01
  -1.714562e+02   7.223628e+01
  -2.978906e+02  -2.333997e+01
  -2.493813e+02  -1.634371e+02
  -3.301297e+00  -2.585662e+02
   2.369584e+02  -1.921426e+02
   2.732593e+02  -9.471908e+01
   1.604800e+02   4.839268e+01
  -3.515685e+01   9.960679e+01
  -1.238091e+02  -3.115212e+01
   5.614211e+01  -1.156568e+02
   2.248674e+02  -7.060771e+01
   2.485872e+02   1.388759e+02
   9.036809e+01   1.996588e+02
  -9.964666e+01   1.253973e+02
  -1.673233e+02  -3.494268e-01
  -5.052361e+01  -7.087509e+01
   2.687356e+01   1.401663e+01
   1.403665e+01   1.076004e+02
  -9.260961e+01   1.144730e+02
  -1.830004e+02   3.694352e+01
  -1.735233e+02  -1.451960e+02
  -3.787669e+01  -2.380044e+02
   1.783067e+02  -1.908400e+02
   1.882434e+02   5.183884e+00
   8.481729e+01   1.454079e+02
  -9.422721e+01   8.683561e+01
  -6.602054e+01   2.458906e+01
  -5.561218e+00  -4.569956e+01
   6.465158e+01  -3.124677e+01
  -9.192331e+00  -8.751262e-01
  -1.002928e+02  -9.266419e+00
  -1.287560e+02  -1.126244e+02
  -4.545922e+01  -1.795436e+02
   1.206192e+02  -1.327055e+02
   2.521645e+02  -4.727443e+01
   2.452546e+02   1.544755e+02
   4.245075e+01   2.266306e+02
  -1.261726e+02   1.791472e+02
  -1.529648e+02  -1.351524e+01
  -5.698475e+01  -1.018794e+02
  -6.044187e+01  -3.256468e+01
  -6.343737e+01   9.712277e+00
  -1.088607e+02   3.077162e+01
  -4.268097e+01  -3.119579e+01
   1.759434e+01  -8.604175e+01
   1.203418e+02  -8.062794e+01
   7.870019e+01   2.901077e+01
  -1.988740e+01   1.198404e+02
  -1.892750e+02   1.111100e+02
  -2.022630e+02  -5.112486e+01
  -1.030479e+02  -2.270328e+02
   1.055097e+02  -2.574537e+02
   2.355114e+02  -1.167663e+02
   2.411116e+02   7.380177e+01
   1.348571e+02   1.703764e+02
  -3.212064e+01   1.203687e+02
  -1.070507e+02   5.631010e+01
  -7.876387e+01   7.600048e+01
  -4.807146e+01   1.164135e+02
  -6.142390e+01   6.750477e+01
  -1.147952e+02   2.970828e+01
  -1.409428e+02  -1.642204e+02
  -2.032398e+01  -2.639327e+02
   1.272248e+02  -1.590615e+02
   1.577277e+02   9.641333e+00
   1.458025e+02   1.162034e+02
   1.615151e+01   1.257586e+02
  -6.545236e+01   4.828241e+01
  -3.288376e+01  -2.233624e+01
   3.167175e+01  -4.168310e+01
   6.393533e+01  -4.357840e+01
  -4.454055e+01  -1.603354e+01
  -1.395150e+02  -2.161731e+00
  -7.984353e+01  -2.376067e+01
   4.349970e+01  -6.997678e+01
   1.873364e+02  -5.086104e+01
   1.475122e+02   5.185073e+01
   1.804820e+00   9.531650e+01
  -1.537005e+02   2.093054e+01
  -1.546024e+02   1.434300e+01
  -8.264995e+01  -7.421998e+01
   4.846394e+01  -5.662638e+01
   9.098072e+01   8.307302e+00
   3.652036e+01   4.332683e+01
  -1.330338e+01   7.990060e+01
  -3.955829e+01  -2.139974e+01
  -5.871607e+01  -6.798410e+01
  -2.742621e+01  -5.049220e+01
  -7.120677e+01  -6.358194e-02
  -8.748316e+01   3.814612e+01
  -2.732251e+01  -3.651655e+01
   4.010283e+01  -1.318278e+02
   1.273327e+02  -1.550490e+02
   1.598972e+02  -3.866166e+01
   1.301034e+02   8.612710e+01
  -1.870635e+01   9.618847e+01
  -1.352868e+02   9.346376e+01
  -9.481057e+01   1.387128e+01
   3.077681e+01  -2.673332e+01
   1.209611e+02   3.808105e+01
   9.982859e+01   1.078896e+02
  -8.311687e+01   1.059613e+02
  -1.998149e+02   4.311176e+01
  -1.886475e+02  -4.112053e+01
  -4.581773e+01  -7.750036e+01
   5.538933e+01  -8.335402e+01
   6.076192e+01  -3.208967e+01
  -3.134021e+01   4.534283e+01
  -8.461246e+01  -2.245009e+01
  -2.436508e+01  -1.200373e+02
   8.621018e+01  -1.839618e+02
   1.547603e+02  -5.560731e+01
   1.080312e+02   9.572919e+01
  -1.529079e+01   2.155779e+02
  -9.937082e+01   1.440015e+02
  -1.163717e+02  -2.517652e+01
  -5.120342e+01  -1.193584e+02
  -3.178953e+01  -8.441569e+01
   5.737831e+01  -1.069603e+01
   7.472046e+01   5.727666e+01
   8.905585e+00   3.984053e+01
   2.305274e+01  -3.037773e+01
   5.728094e+00   5.876380e+00
   5.355734e+01   7.634195e+01
   3.972461e+01   1.032918e+02
  -9.147958e+01   2.712429e+01
  -1.402678e+02  -5.880824e+00
  -1.172995e+02  -7.427883e+01
   6.844779e+00  -6.937582e+01
   1.386189e+02  -3.286917e-02
   1.114871e+02   2.437105e+01
  -2.424621e-01   3.623787e+01
  -6.252501e+01   2.807511e+01
  -7.056510e+01  -1.130037e+01
  -7.968553e+00   4.522999e-01
  -1.726330e+01   8.384871e+00
  -9.101520e+01   1.124586e+01
  -7.699690e+01  -4.111172e+01
   1.397958e+01  -9.144639e+01
   1.314157e+02  -9.749180e+01
   1.641946e+02  -4.123089e+01
   1.478572e+02   8.501200e+01
   4.404867e+01   1.561594e+02
  -6.489289e+01   2.206706e+02
  -1.152195e+02   1.248475e+02
  -7.834573e+01   2.331404e+01
  -4.593651e+01  -5.157350e+01
   1.393275e+01  -7.803934e+01
  -2.381607e+01  -6.347258e+01
  -2.835258e+01  -7.449245e+01
  -4.496464e+01  -1.084897e+02
   5.993308e+01  -6.373893e+01
   4.404380e+01   3.719516e+01
   5.544901e+01   1.070997e+02
   3.703533e+01   7.995006e+01
  -7.169067e+01   2.976861e+01
  -1.013339e+02  -7.441035e+01
  -4.853619e+01  -1.172442e+02
   4.833199e+01  -6.091286e+01
   1.224322e+02   9.466879e+00
   5.104033e+01   7.736233e+01
  -2.604607e+01   7.676372e+01
  -4.147762e+01   4.162644e+01
   1.854850e+01   4.050830e+01
   2.856251e+01  -2.417879e+01
  -7.930269e+00   3.981596e+01
  -9.680322e+01   7.556542e+01
  -1.416986e+02   8.165779e+01
  -7.083751e+01  -1.698257e+01
  -2.264448e+00  -8.904025e+01
   9.413267e+01  -8.283844e+01
   7.261037e+01  -1.171115e+01
  -1.435470e+01   6.895604e+01
  -4.535218e+01   3.398623e+01
  -6.721261e+01  -3.977156e+01
   1.000352e+01  -6.326873e+01
  -1.335040e+01  -3.812881e+01
   9.403867e+00  -1.426991e+01
   7.478555e+01   1.262756e+01
   6.558946e+01   1.757864e+01
   1.235397e+01   1.496347e+01
   1.431659e+00   2.321334e+01
   9.197899e-01   6.148481e+01
  -3.043292e+01   7.569732e+01
  -8.043597e+01   5.128719e+01
   2.452087e+01  -5.016144e+01
   1.176183e+01  -8.421127e+01
   7.147996e+01  -4.246313e+00
   8.080864e+01   4.040125e+01
  -3.080072e+01   9.894733e+01
  -6.830865e+01   3.915606e+01
  -1.007237e+02  -3.330700e+01
  -8.734753e+01  -3.321175e+01
   1.300937e+01  -5.320622e+01
   5.495973e+01  -4.489091e+01
   4.457466e+01   8.317428e+00
  -2.225220e+01   5.965208e+00
  -1.473154e+01  -2.745115e+01
   6.118421e+01  -7.731103e+01
   1.037411e+02  -8.173606e+00
