
 $NMID
 id='ANONYMOUS ', fmtdat='(2E16.6)'
 volume=1.0
 tramp=1.0
 $END
  -3.839824e+03   1.206782e+01
  -2.427802e+03  -2.567389e+03
   7.764641e+02  -2.760063e+03
   1.918923e+03  -7.693648e+02
   6.414058e+02   7.653472e+02
  -7.548122e+02   6.710923e+02
  -9.007072e+02  -5.611406e+02
   4.924112e+01  -1.008165e+03
   6.918616e+02  -8.585839e+02
   8.929906e+02   3.746086e+01
   5.928450e+02   8.902136e+02
  -1.948223e+02   7.507603e+02
  -6.241035e+02   5.486681e+01
  -4.778069e+02  -6.830084e+02
   1.224071e+02  -7.702168e+02
   5.208105e+02  -1.068523e+02
   3.761793e+02   6.969845e+02
  -1.452898e+02   3.822946e+02
  -6.463596e+02  -6.452130e+00
  -2.257943e+02  -2.635546e+02
  -1.733126e+01  -3.556908e+02
   1.937504e+02  -7.473661e+01
   1.694664e+02   4.832076e+01
  -3.004922e+01   1.786968e+02
  -3.328819e+02   1.535322e+02
  -2.551316e+02  -2.355916e+02
   3.344120e+02  -4.827282e+02
   6.738306e+02   9.590520e+01
   4.403794e+02   6.154834e+02
  -2.836083e+02   5.304782e+02
  -5.756230e+02   6.725193e+01
  -3.664512e+02  -4.185037e+02
   1.929463e+02  -4.867311e+02
   5.577896e+02  -2.113195e+02
   4.225464e+02   2.903367e+02
   1.162676e+02   4.162406e+02
  -2.357448e+02   1.979960e+02
  -2.365122e+02  -1.733009e+02
   9.149107e+01  -4.491384e+02
   4.558609e+02  -1.092708e+02
   2.693206e+02   5.631576e+02
  -2.731768e+02   6.494172e+02
  -6.645075e+02   3.520908e+01
  -3.171129e+02  -4.882699e+02
   2.903983e+02  -3.653373e+02
   4.257704e+02   2.357979e+02
   1.545338e+01   4.839153e+02
  -4.701741e+02   1.372088e+02
  -5.392586e+02  -2.885110e+02
  -1.779551e+02  -4.441097e+02
   3.104954e+02  -2.517754e+02
   5.304306e+02   9.158134e+01
   3.529698e+02   3.590870e+02
  -1.474513e+02   3.412152e+02
  -4.221075e+02   6.408481e+01
  -2.683757e+02  -1.754190e+02
   9.262726e+01  -1.106889e+02
   1.315346e+02   1.684897e+02
  -1.603029e+02   1.810953e+02
  -2.596890e+02  -5.772202e+01
  -1.292746e+02  -2.525014e+02
   1.720230e+02  -1.597164e+02
   2.216415e+02  -6.385442e+00
   1.099760e+02   5.106929e+01
  -2.205255e+01   1.286203e+02
  -1.571694e+02   2.245906e+02
  -2.805584e+02   2.378117e+02
  -2.625005e+02  -9.971055e+01
  -4.257454e+01  -3.925241e+02
   1.229572e+02  -3.579663e+02
   1.270939e+02  -7.337000e+01
   3.154095e+01   5.029258e+01
  -4.970735e+00  -2.883220e+01
   1.353787e+02  -1.100643e+02
   1.879820e+02   8.378819e+00
   1.085183e+02   2.065244e+02
  -8.132359e+01   2.079815e+02
  -1.559667e+02  -3.095482e+01
  -1.662345e+02  -2.279171e+02
   2.243791e+01  -2.513938e+02
   2.358270e+02  -1.111772e+02
   3.087783e+02   1.088086e+02
   1.623005e+02   2.611791e+02
  -4.387512e+01   2.266291e+02
  -1.419234e+02   9.143822e+01
  -9.748076e+01   2.495961e+01
  -4.167780e+01   8.209159e+01
  -1.883890e+02   5.768444e+01
  -3.228861e+02  -4.802624e+01
  -2.668396e+02  -2.483605e+02
  -1.107994e+01  -3.674989e+02
   2.818034e+02  -3.223819e+02
   4.046894e+02  -1.502495e+02
   3.275102e+02   9.127913e+01
   5.953687e+01   2.282428e+02
  -6.623468e+01   2.123554e+02
  -7.751857e+01   2.765542e+01
   8.227279e+01  -9.641749e+01
   1.949353e+02  -1.715344e+01
   6.781653e+01   1.752486e+02
  -1.568944e+02   1.948904e+02
  -1.669673e+02  -5.617936e+01
   1.164041e+01  -1.264904e+02
   1.916077e+02  -2.416134e+01
   1.538123e+02   2.058578e+02
  -7.031783e+01   2.765613e+02
  -2.205745e+02   1.533222e+02
  -2.552224e+02  -6.409593e+01
  -1.879270e+02  -1.529695e+02
  -5.435632e+01  -1.566996e+02
   6.186239e+01  -1.436525e+02
   1.292612e+02  -4.401869e+01
   4.286367e+01   2.060858e+01
  -4.302945e+01  -6.388637e+01
  -2.995548e+01  -1.239427e+02
   7.990756e+01  -6.430516e+01
   1.684480e+02  -5.819083e+00
   5.578880e+01   6.382782e+01
  -6.476050e+01   1.893495e+01
  -8.341284e+01  -3.960957e+01
   4.025953e+01  -8.605632e+01
   1.918207e+02  -3.377515e+01
   2.282159e+02   1.008711e+02
   4.795157e+01   1.868193e+02
  -1.524694e+02   2.214673e+02
  -2.270344e+02   1.178411e+02
  -1.748410e+02  -6.050263e+01
  -2.375914e+01  -1.309066e+02
   6.757948e+01  -3.543277e+01
   3.138150e+01   9.755700e+01
  -1.551197e+02   8.345471e+01
  -1.763217e+02  -9.460641e+01
  -9.764704e+01  -2.060232e+02
   7.868440e+01  -1.570735e+02
   1.739078e+02  -7.607472e+01
   7.587126e+01   4.659011e+01
   2.567358e+00   2.216000e+01
  -8.503672e-01  -8.646774e+01
   3.848920e+01  -1.023822e+02
   1.565908e+02  -8.180017e+01
   1.098624e+02   7.224755e+01
  -2.386018e+01   1.278684e+02
  -5.254502e+01   1.602120e+02
  -1.274249e+02   4.558485e+01
  -3.884489e+01  -4.942195e+01
   1.497582e+01  -7.238831e+01
   6.247847e+01  -3.280448e+01
   1.892134e+01  -2.906427e+01
  -7.598438e+00   1.075371e-01
   2.786896e+01  -7.640031e+00
   4.467589e+01  -5.214621e+00
   8.531124e+01   7.227017e+01
   5.366792e+01   9.053296e+01
  -7.921612e+01   1.043601e+02
  -1.666564e+02  -7.296913e-01
  -1.265432e+02  -9.685110e+01
  -6.889621e+01  -1.581971e+02
   7.339616e+01  -1.334024e+02
   1.033071e+02  -2.307361e+01
   3.182313e+01   4.658152e+01
   2.393513e+01   3.650977e+01
   4.748416e+01  -1.463971e+01
   5.606503e+01  -5.707446e+01
   2.004534e+01   7.039460e+01
  -6.032834e+01   6.369368e+01
  -7.101501e+01   3.408585e+01
  -6.496998e+01  -2.025144e+01
  -1.620654e+01  -8.249211e+01
   7.844562e+01  -9.410216e+01
   1.728316e+02   5.417524e+01
   8.543846e+01   1.385160e+02
  -6.989119e+01   1.649113e+02
  -1.964887e+02   8.212479e+01
  -1.990620e+02  -6.788192e+01
  -1.043996e+02  -1.240730e+02
   3.136533e+01  -9.692912e+01
   7.296778e+01  -3.320031e+01
   9.530101e+00  -3.167477e+01
   4.581865e+01  -7.435327e+01
   5.094924e+01  -9.970784e+01
   9.931101e+01   8.059746e+00
   1.136142e+02   9.999229e+01
   5.403769e+01   1.607917e+02
  -4.145117e+01   1.323138e+02
  -7.111990e+01   4.015564e+01
  -9.284228e+01  -7.045273e+01
  -3.717177e+01  -1.412142e+02
   5.187322e+01  -9.819360e+01
   6.423492e+01  -5.024982e+01
   4.155115e+00   4.159183e+01
  -2.790782e+01   6.762724e+01
  -1.047320e+01   2.970990e+01
   5.460410e-01   4.280189e+01
   3.670076e+01   5.688016e+00
  -4.135357e+01   2.647170e+00
  -9.224427e+01   1.610230e+01
  -6.871536e+01  -4.497461e+01
  -3.483783e+01  -3.962966e+01
   8.428914e+01  -4.896461e+01
   1.052721e+02  -3.342301e+00
   3.058458e+01   3.369596e+01
  -3.063405e+01   2.784928e+01
  -5.141869e+01  -3.360795e+01
   6.587593e+00  -3.267960e+01
   1.277815e+01  -3.941570e+01
   3.771189e+01   1.937152e+01
   1.216522e+01   3.280799e+01
   1.671807e+01  -2.277780e+01
   3.888030e+01  -1.264355e+01
   8.339840e+01  -3.000249e+01
   6.416593e+01   8.963111e+01
  -5.633933e+01   1.177632e+02
  -1.099028e+02   1.046678e+02
  -1.565584e+02   1.067437e+01
  -6.426873e+01  -9.069369e+01
   3.130583e+01  -7.974829e+01
   9.114702e+01  -3.172660e+01
   8.116390e+01   4.630001e+01
  -5.704487e+01   5.988243e+01
  -1.200299e+02  -1.063281e+01
  -3.234218e+01  -9.476758e+01
   6.383565e+01  -1.063189e+02
   1.327930e+02  -3.219039e+01
   1.223327e+02   3.198422e+01
   2.402230e+01   5.188065e+01
  -4.384355e+01   8.462506e+01
  -3.494098e+01   4.272100e+01
   2.875660e+01  -3.958457e+01
   5.005837e+01   1.794954e+01
   8.014396e+00   1.133851e+02
  -8.410301e+01   1.578103e+02
  -1.571421e+02   5.100938e+01
  -1.193690e+02  -7.701760e+01
  -5.847076e+00  -1.830835e+02
   8.185127e+01  -1.347927e+02
   9.874964e+01   5.736910e+00
   2.505531e+01   9.358964e+01
  -8.393795e+00   8.043706e+01
  -5.087328e+01   2.502906e+01
  -2.955839e+01  -7.224868e+00
  -2.254692e+01  -3.947212e+01
   6.264438e+00  -8.510979e+00
   1.969984e+01   1.547352e+01
  -1.149445e+01  -4.647734e+01
  -5.654944e+00  -7.925626e+01
   3.450133e+01  -4.923201e+01
   1.041935e+02   2.054599e+01
   1.297540e+02   1.063279e+02
   4.710029e+01   8.164641e+01
  -1.110188e+02   3.710225e+01
  -4.725614e+01   5.646660e+00
  -3.945776e+01  -1.334638e+01
  -5.196795e+00  -6.667361e+00
   2.364856e+01   2.350631e+01
  -2.580664e+01  -3.972431e+00
  -2.020258e+01   1.123683e+01
   6.057913e+01  -3.946460e+01
   8.599523e+01   1.920880e+01
  -3.296703e+01   9.590928e+01
  -8.837588e+01   8.437210e+01
  -1.803435e+02   2.144501e+01
  -1.114017e+02  -5.077986e+01
  -8.010211e+00  -1.205209e+02
   9.380257e+01  -1.323700e+02
   1.098496e+02  -2.590743e+01
   6.587781e+01   9.218323e+00
  -2.303273e+01   4.388112e+01
   2.382691e+01   9.405286e+00
   5.914010e+01   4.113028e+01
  -9.208221e+00   1.567046e+01
   4.611370e+01   3.756840e+01
  -3.892920e+01   8.396413e+01
  -8.031909e+01   7.810220e+00
  -2.249742e+01  -6.583982e+01
   7.409271e+00  -8.617873e+01
   3.978779e+01  -4.167448e+01
   1.039921e+02   7.855645e+01
   2.614802e+01   9.639717e+01
  -4.027343e+01   6.754691e+01
  -5.761328e+01  -1.305540e+01
  -4.909411e+01  -2.832034e+01
   2.899004e+00  -7.949585e+01
   6.261085e+01  -5.815703e+01
  -1.114844e+01  -1.181467e+01
  -3.718190e+01  -1.658434e+01
  -3.428882e+01   7.710799e+00
   8.673617e+01  -5.355461e+01
   7.964474e+01  -5.582416e+01
   5.703507e+01   2.444948e+01
   1.199016e+01   3.474652e+01
  -5.593881e+01   8.542396e+01
  -3.095092e+01   6.959971e+01
   3.048001e+00  -4.657591e+01
   2.155167e+01  -6.501321e+01
   2.735262e+01  -1.058109e+01
   7.845999e+00   3.304564e+01
   3.547637e+01   3.220226e+01
   4.260755e+01  -1.009652e+01
  -4.609370e+01  -2.480069e+01
  -3.823570e+01   1.695874e+01
   1.135679e+01  -3.516505e-01
   1.404980e+01  -1.155026e+01
   1.379519e+01  -3.270162e+01
   8.198888e+00  -6.782765e+01
  -3.530491e+00  -2.995048e+01
   2.973760e+01   2.114742e+01
  -8.409192e+00   3.880934e+01
  -4.909693e+01   2.897834e+01
  -1.823395e+01  -1.257146e+01
  -2.606056e+01  -3.064414e+01
   3.381364e+01  -7.017721e+00
   4.172721e+01   1.225532e+01
   3.754494e+01   5.455266e+01
  -5.948855e+01   3.200760e+01
  -8.313488e+01  -9.868319e+00
   5.573431e+00  -1.989500e+01
   5.171551e+01   4.989177e+01
   2.942385e+01   1.256280e+01
  -1.588603e+01   5.888750e+01
  -9.733437e+01   4.247413e+01
