
 $NMID
 id='ANONYMOUS ', fmtdat='(2E16.6)'
 volume=1.0
 tramp=1.0
 $END
   4.527041e+03  -9.653941e+01
   2.205530e+03   2.789704e+03
  -8.155475e+02   2.746366e+03
  -2.056497e+03   6.708538e+02
  -8.667913e+02  -5.932097e+02
   5.589984e+02  -6.111655e+02
   8.826867e+02   5.910712e+02
   2.010897e+01   1.015209e+03
  -1.037540e+03   7.102378e+02
  -9.103282e+02  -2.188022e+01
  -4.081737e+02  -1.027600e+03
   3.154982e+02  -8.528454e+02
   6.937190e+02  -7.137843e+01
   3.186360e+02   8.801434e+02
  -2.489972e+02   8.246527e+02
  -6.898695e+02  -6.857879e+01
  -1.432424e+02  -6.679949e+02
   4.662633e+02  -5.955760e+02
   4.958730e+02  -6.142984e+01
   4.158333e+02   5.192738e+02
   1.881192e+02   5.462505e+02
  -2.320844e+02   4.452507e+02
  -2.276741e+02   7.660845e+01
   2.319051e+00  -7.471377e+01
   2.728915e+02   1.651448e+02
   2.746616e+02   4.301998e+02
  -2.991812e+02   3.357091e+02
  -9.293425e+02   1.948968e+01
  -4.479068e+02  -5.153480e+02
   3.839377e+02  -6.318382e+02
   6.693728e+02  -3.146033e+01
   4.135372e+02   4.783717e+02
  -2.520860e+02   5.413539e+02
  -5.944472e+02   2.382237e+02
  -4.048272e+02  -1.851070e+02
   3.398768e+01  -5.151446e+02
   3.203906e+02  -3.506874e+02
   2.662925e+02   3.401324e+02
  -8.957680e+01   5.311468e+02
  -5.040501e+02   5.423042e+00
  -2.704979e+02  -6.748459e+02
   3.409883e+02  -6.547570e+02
   6.060150e+02   4.854160e+01
   2.240132e+02   5.817701e+02
  -3.649147e+02   2.673087e+02
  -4.267753e+02  -3.542437e+02
   7.295795e+01  -5.021955e+02
   5.647805e+02  -1.553971e+02
   5.386605e+02   4.334029e+02
   1.539695e+02   5.106564e+02
  -4.192469e+02   2.951093e+02
  -5.932109e+02  -8.309757e+01
  -3.418954e+02  -3.914480e+02
   1.903733e+02  -3.339022e+02
   4.338161e+02  -5.581743e+01
   2.053049e+02   2.162137e+02
  -1.192851e+02   6.788904e+01
  -1.726007e+02  -2.101025e+02
   1.719706e+02  -2.202950e+02
   4.113076e+02   7.591724e+01
   1.490754e+02   3.615624e+02
  -2.122243e+02   2.860154e+02
  -3.247226e+02   4.617158e+01
  -2.273097e+02  -1.061439e+02
   2.333839e+01  -2.205980e+02
   2.121605e+02  -2.897718e+02
   3.290863e+02  -2.057903e+02
   2.423428e+02   1.379075e+02
   7.200038e+01   4.617257e+02
  -1.613917e+02   3.929567e+02
  -1.775442e+02   7.894696e+01
  -2.264045e+01  -3.941897e+01
  -6.682731e+01   1.610062e+02
  -1.728422e+02   1.436425e+02
  -2.511304e+02  -6.495973e+01
  -1.656958e+02  -2.707642e+02
   6.160393e+01  -1.950497e+02
   1.568181e+02  -8.826484e+00
   1.465984e+02   2.687627e+02
  -3.559051e+01   2.782347e+02
  -2.531016e+02   1.450813e+02
  -3.438991e+02  -1.484006e+02
  -1.806055e+02  -3.352805e+02
   1.367587e+02  -3.183521e+02
   2.440677e+02  -1.273971e+02
   1.622957e+02   6.999796e+01
   8.715593e+01  -4.380881e+01
   1.986305e+02  -3.670171e+01
   3.327375e+02   8.205831e+01
   3.507640e+02   3.011436e+02
   5.837314e+00   4.505902e+02
  -2.705773e+02   3.874411e+02
  -4.358745e+02   1.114329e+02
  -3.115546e+02  -1.185946e+02
  -7.701032e+01  -2.597169e+02
   9.210074e+01  -2.538522e+02
   1.089798e+02  -3.934990e+01
  -6.826294e+01   9.573438e+01
  -2.075151e+02  -3.245613e+01
  -3.176034e+01  -2.057624e+02
   2.043892e+02  -1.922801e+02
   2.182615e+02   3.565363e+01
  -3.403786e+01   1.793855e+02
  -2.278738e+02   2.250228e+01
  -2.033618e+02  -2.412214e+02
   3.999407e+01  -3.382958e+02
   1.971627e+02  -1.520188e+02
   2.488115e+02   1.638772e+01
   1.898569e+02   1.553012e+02
   1.012677e+02   2.174284e+02
  -1.109312e+02   1.337338e+02
  -1.485495e+02  -8.541942e-01
  -3.258568e+01  -6.029297e+01
   4.415379e+01   2.214746e+01
   1.258225e+01   1.291431e+02
  -1.046268e+02   1.365831e+02
  -1.781686e+02   3.650582e+01
  -4.852187e+01  -4.362853e+01
   8.766757e+01  -4.987182e+01
   3.029556e+01   1.270886e+02
  -1.312688e+02   1.232167e+02
  -2.930822e+02   1.541793e+01
  -2.453552e+02  -1.481910e+02
  -2.263302e+01  -2.761570e+02
   1.953629e+02  -2.587517e+02
   2.586216e+02  -8.703490e+01
   1.618955e+02   4.920082e+01
   4.820085e+00   1.022310e+02
  -7.434825e+01   3.899605e-01
   5.638683e+00  -7.831784e+01
   2.337814e+02  -1.069488e+02
   2.298470e+02   8.101870e+01
   7.194034e+01   1.512360e+02
  -8.456455e+01   1.631613e+02
  -1.665709e+02   2.816028e+01
  -2.155182e+01  -7.148413e+01
   4.943156e+00  -3.161756e+01
   3.432105e+01   7.247465e+01
  -9.009626e+01   1.640409e+02
  -1.969270e+02   6.164978e+00
  -1.839609e+02  -8.103921e+01
  -3.483310e+00  -1.956609e+02
   1.276962e+02  -1.592962e+02
   1.590477e+02  -1.067065e+01
   3.279492e+01   1.165054e+02
  -8.179516e+01   1.106441e+02
  -8.481542e+01   5.129246e+01
   3.821465e+00  -3.395019e+01
   7.258454e+00   3.329071e+00
   2.019195e+01   2.264140e+01
  -5.593459e+01  -7.160618e+00
  -1.028552e+02  -8.406845e+01
  -3.214579e+01  -1.208614e+02
   8.264762e+01  -1.283222e+02
   2.269472e+02  -4.905915e+01
   2.205342e+02   9.938851e+01
   1.032488e+02   1.913460e+02
  -9.455056e+01   1.872147e+02
  -1.184771e+02   5.576937e+01
  -1.102097e+02  -4.089199e+01
  -3.140357e+01  -2.695052e+01
  -6.716624e+01   1.660182e+01
  -7.411590e+01   8.926516e+00
  -1.026126e+02  -6.987957e+01
   2.267716e+01  -1.032223e+02
   6.217503e+01  -8.431327e+01
   1.142261e+02  -3.938818e+01
  -1.446990e+01   7.141427e+01
  -1.093096e+02   2.950549e+01
  -2.063538e+02  -2.995321e+01
  -5.895336e+01  -1.818043e+02
   9.290199e+01  -2.349377e+02
   2.680247e+02  -1.099008e+02
   2.406287e+02   6.104573e+01
   1.294612e+02   1.398075e+02
  -5.575730e+00   1.599240e+02
  -9.288419e+01   7.161186e+01
  -9.701276e+01   5.829445e+01
  -8.220675e+01   1.052146e+02
  -1.083446e+02   6.582942e+01
  -1.028484e+02  -6.117047e+00
  -7.277537e+01  -1.243808e+02
  -3.701842e+01  -1.914954e+02
   1.162525e+02  -1.397017e+02
   1.578662e+02  -4.122566e+00
   1.342597e+02   9.776172e+01
   6.598467e+00   1.208665e+02
  -5.015914e+01   8.042426e+01
  -5.736687e+01   9.165078e+00
  -7.122970e+00  -4.374268e+01
  -5.835429e-01  -2.929379e+01
  -2.093380e+01  -1.393695e+01
  -9.614383e+01  -2.471728e+01
  -1.959878e+01  -6.748480e+01
   4.415784e+01  -2.840814e+01
   1.169725e+02   1.113635e+01
   1.369228e+02   1.053184e+01
   2.030400e+01   1.093793e+02
  -8.855472e+01   6.086767e+01
  -9.917716e+01  -8.556617e+00
  -4.972913e+01  -8.477302e+01
   7.374348e+01  -5.613426e+01
   1.226866e+02   9.097104e+00
   3.791058e+01   5.678749e+01
  -1.478535e+00   1.186085e+02
  -3.634566e+01   5.621073e+01
  -5.587821e+01   4.501394e+00
  -8.284829e+01   1.083961e+01
  -9.151321e+01  -3.404214e+00
  -8.230231e+01  -4.198458e+01
  -2.130601e+01  -1.087706e+02
   1.996320e+01  -1.691538e+02
   1.106716e+02  -1.215032e+02
   1.999499e+02   7.280021e+00
   9.502906e+01   1.168076e+02
  -3.163528e+01   1.246539e+02
  -1.207620e+02   4.698851e+01
  -9.230236e+01  -4.209636e+01
   9.697645e+01  -1.989148e+01
   1.351706e+02   4.572695e+01
   1.161522e+02   1.240330e+02
  -9.200687e+01   1.199046e+02
  -1.850966e+02   2.503452e+01
  -1.176453e+02  -3.716235e+01
  -2.451724e+01  -8.411560e+01
   5.072290e+01  -3.216378e+01
   7.872991e+01  -4.292428e+01
  -4.374916e+01   6.059535e+01
  -9.524410e+01   9.510225e+00
  -2.770275e+01  -1.228026e+02
   9.666084e+01  -1.386930e+02
   1.605177e+02  -3.529957e+01
   1.281660e+02   9.889479e+01
   5.371509e+01   2.204763e+02
  -7.825261e+01   1.392116e+02
  -1.425268e+02   4.219595e-01
  -3.078199e+01  -8.177594e+01
   2.037801e-01  -1.013839e+02
   1.990187e+01  -6.397736e+01
   3.360601e+01   9.605940e+00
   2.393237e+00  -1.514988e+01
  -5.138990e+00  -4.575631e+01
   6.547969e+00  -2.254891e+01
   6.102947e+01   1.146193e+02
   4.658866e+01   9.109823e+01
  -5.446288e+01   5.135705e+01
  -1.205852e+02  -1.624543e+01
  -1.001087e+02  -5.438192e+01
  -3.889716e+01  -3.443760e+01
   5.899017e+01  -4.906489e+01
   4.342012e+01   2.015094e+01
  -6.728354e+00   2.411569e+01
  -3.126930e+01   1.746278e+01
  -2.862596e+01   1.432201e+01
   3.230924e+01   2.726368e+00
  -1.065073e-01  -1.557111e+01
  -4.807295e+01  -1.245084e+01
  -8.602524e+01  -6.990437e+01
  -1.744889e+01  -9.472583e+01
   1.287607e+02  -1.411395e+02
   2.317253e+02  -2.047178e+01
   1.764693e+02   6.344050e+01
   4.289017e+01   1.684546e+02
  -6.911830e+01   1.454797e+02
  -8.282165e+01   5.472765e+01
  -1.134766e+02  -6.394679e+01
  -2.867686e+01  -5.314500e+01
   5.007340e+00  -1.059534e+01
  -2.265727e+01  -8.264703e+00
  -3.268013e+01  -3.805181e+01
  -5.452536e+01  -7.192914e+01
   8.266191e+01  -6.960557e+01
   9.304236e+01  -4.764439e+00
   6.544787e+01   4.301115e+01
   7.625643e+00   9.511351e+01
  -7.009880e+01   4.325752e+01
  -8.547543e+01  -6.626734e+01
  -3.892680e+00  -9.581803e+01
   6.870974e+01  -4.151144e+01
   1.299478e+02   3.818912e+01
   2.115685e+01   8.538898e+01
  -2.305629e+01   1.045004e+02
  -6.242408e+01   4.586183e+01
   2.398100e+01  -3.641854e+01
   3.436388e+01  -6.475879e+01
   1.021656e+01  -2.819735e+01
  -6.537037e+01   3.562414e+01
  -7.028043e+01   3.722395e+01
  -6.495766e+01  -3.301002e+00
   3.525693e+01  -1.016824e+02
   5.045451e+01  -6.172497e+01
   8.903638e+01   2.432276e+01
   1.067066e+01   6.991742e+01
  -3.707129e+01   6.734773e+01
  -4.851848e+01   2.624146e+01
  -1.528650e+01  -5.072458e+01
  -4.593250e+01   1.434282e+00
   5.079088e+01   6.877574e+00
   3.002042e+01  -9.967250e+00
   3.408703e+01   2.257195e+01
   9.706579e+00  -1.266362e+01
  -4.835063e+01   2.767964e+01
   7.407818e+00   4.529138e+01
  -1.639007e+01   2.217137e+01
  -5.259166e+01  -2.924017e+01
  -3.424709e+01  -4.343078e+01
   2.036048e+01  -2.692612e+01
   1.504189e+01  -2.694433e+00
   4.624609e+01   3.773939e+00
   4.685670e+01   3.718061e+01
  -6.243445e+01  -3.311667e+00
  -6.569105e+01  -2.883799e+01
  -4.207176e+01  -4.210535e+01
   5.242167e+01  -4.859733e+01
   3.896808e+01   2.588383e+01
   2.893347e+01  -2.844783e+01
  -2.088410e+01   2.326718e+01
  -4.214719e+01   2.128169e+01
   4.522507e+01  -5.207464e+01
   1.231497e+02  -2.029649e+01
