
 $NMID
 id='ANONYMOUS ', fmtdat='(2E16.6)'
 volume=1.0
 tramp=1.0
 $END
  -4.316556e+03   3.027080e+02
  -2.871386e+03  -2.621010e+03
   1.032639e+03  -2.586715e+03
   2.061487e+03  -7.924690e+02
   1.049238e+03   7.606649e+02
  -4.529349e+02   7.211158e+02
  -9.702365e+02  -3.823168e+02
  -1.713044e+02  -1.114472e+03
   9.146634e+02  -7.549516e+02
   8.276629e+02   3.845456e+00
   4.749801e+02   8.966183e+02
  -2.083387e+02   8.924211e+02
  -6.447186e+02   1.088583e+02
  -3.592673e+02  -7.525492e+02
   2.497054e+02  -6.623976e+02
   4.338036e+02   2.183082e+02
   3.778800e+02   6.943116e+02
  -3.304208e+02   7.039472e+02
  -4.785208e+02   7.279410e+01
  -3.690568e+02  -4.264620e+02
   6.974617e+01  -3.506968e+02
   1.122175e+02  -2.302334e+02
   2.259097e+02   1.976679e+00
  -1.802609e+02   4.148834e+01
  -4.146660e+02  -2.482149e+02
  -2.403481e+02  -4.146762e+02
   5.172180e+02  -4.427949e+02
   9.521329e+02  -4.077010e+00
   4.062443e+02   6.919285e+02
  -5.308554e+02   6.082744e+02
  -6.886840e+02  -2.152532e+01
  -4.275714e+02  -5.100898e+02
   1.819234e+02  -5.887399e+02
   6.240392e+02  -1.469777e+02
   4.119439e+02   2.506551e+02
   3.657018e+01   4.832321e+02
  -2.033802e+02   3.291673e+02
  -1.461027e+02  -2.052201e+02
   1.598166e+02  -4.508406e+02
   5.054865e+02   2.113219e+01
   2.565671e+02   6.860450e+02
  -3.142987e+02   6.751989e+02
  -6.774482e+02   8.510523e+00
  -2.449633e+02  -5.626450e+02
   2.915077e+02  -2.922384e+02
   4.553889e+02   3.546893e+02
  -5.342042e+01   5.615427e+02
  -5.590617e+02   1.466441e+02
  -6.978862e+02  -4.230187e+02
  -2.248063e+02  -6.072498e+02
   3.933240e+02  -3.341015e+02
   7.075677e+02   1.313286e+02
   4.198686e+02   4.406929e+02
  -1.527355e+02   4.261161e+02
  -4.862186e+02   6.532877e+01
  -2.745698e+02  -1.662812e+02
   9.855490e+01  -1.289997e+02
   1.036123e+02   1.556275e+02
  -1.913743e+02   1.846678e+02
  -3.726736e+02  -7.180049e+01
  -1.706809e+02  -3.405761e+02
   1.497942e+02  -2.836562e+02
   3.574674e+02  -7.333599e+01
   2.298397e+02   1.310359e+02
   1.980732e+00   2.561800e+02
  -2.972689e+02   3.729788e+02
  -3.733040e+02   2.086636e+02
  -3.100536e+02  -1.601893e+02
  -1.177141e+01  -4.587820e+02
   1.069684e+02  -3.677893e+02
   8.457255e+01  -6.105152e+01
  -4.961498e+01   3.540106e+01
   2.752264e+01  -1.726161e+02
   1.943289e+02  -1.813953e+02
   2.964780e+02   3.207849e+01
   1.508150e+02   2.988905e+02
  -5.893219e+01   2.895558e+02
  -1.912912e+02   1.702255e+01
  -1.248955e+02  -2.566708e+02
  -4.823364e+00  -2.903074e+02
   3.055354e+02  -6.355441e+01
   3.503741e+02   1.763227e+02
   1.871955e+02   3.416066e+02
  -1.171478e+02   2.651917e+02
  -2.256833e+02   1.088323e+02
  -1.328260e+02   2.242019e+01
  -3.604360e+01   2.860300e+01
  -2.337766e+02   9.448247e+01
  -4.005369e+02  -6.534723e+01
  -3.458792e+02  -2.710156e+02
  -1.703004e+01  -4.378548e+02
   3.292832e+02  -3.708072e+02
   4.792607e+02  -1.847012e+02
   2.995181e+02   7.626538e+01
   2.688931e+01   3.108503e+02
  -1.334396e+02   2.402718e+02
  -5.371089e+01   3.116984e+01
   1.033158e+02  -1.402719e+02
   1.657117e+02  -2.148728e+01
   5.746602e+01   1.869931e+02
  -1.495764e+02   1.786341e+02
  -1.917476e+02  -4.234881e+01
   7.569407e+00  -1.759475e+02
   1.930331e+02  -3.641254e+01
   1.586930e+02   2.376061e+02
  -4.780188e+01   3.775709e+02
  -1.888155e+02   1.654251e+02
  -3.059255e+02  -6.341672e+01
  -2.761325e+02  -2.083148e+02
  -1.381898e+02  -1.939792e+02
   4.694131e+01  -1.230233e+02
   1.565011e+02  -4.734594e+01
   6.954339e+01   1.514215e+01
  -8.237272e+01  -4.427671e+01
  -2.135969e+01  -1.457223e+02
   1.498949e+02  -1.259520e+02
   2.074473e+02   2.440096e+01
   1.053076e+02   5.237726e+01
  -7.332359e+01   1.962953e+01
  -7.194646e+01  -3.432947e+01
   1.062712e+02  -5.967847e+01
   2.439764e+02   1.734599e+01
   2.416000e+02   1.178322e+02
   7.035608e+01   2.777785e+02
  -1.726209e+02   2.403134e+02
  -2.579425e+02   1.346039e+02
  -1.937518e+02  -6.499630e+01
  -7.112683e+00  -1.180436e+02
   1.019185e+02  -3.487532e+01
  -5.407988e+01   7.860715e+01
  -2.441001e+02   6.120975e+01
  -2.196081e+02  -1.381211e+02
  -6.009242e+01  -2.627490e+02
   1.390716e+02  -1.363668e+02
   1.364872e+02  -3.026592e+01
   8.526128e+01   5.896898e+01
  -8.028406e+01   2.847895e+01
  -8.215905e+01  -5.914102e+01
   3.420438e+01  -9.776041e+01
   1.751973e+02  -4.347471e+01
   2.019456e+02   9.997695e+01
   8.371366e+01   2.123668e+02
  -1.554720e+02   1.731859e+02
  -1.915098e+02  -3.903847e+00
  -5.096645e+01  -1.284427e+02
   7.092981e+01  -1.376464e+02
   1.015170e+02  -5.283984e+01
   7.198674e+00   2.010541e+01
  -5.172676e+01   2.539301e+01
  -8.825039e+00   2.699256e+00
   3.094582e+01  -1.939548e+01
   9.526245e+01   8.226447e+01
   2.613319e+01   1.618603e+02
  -6.078895e+01   1.408912e+02
  -1.968719e+02   1.154256e+01
  -1.570861e+02  -1.052864e+02
  -1.715964e+01  -2.150656e+02
   9.811616e+01  -1.455519e+02
   1.340536e+02  -1.268309e+01
   4.358123e+01   9.327473e+01
  -2.478259e+01   3.074629e+01
   3.499781e+01  -2.399713e+01
   5.603958e+01  -4.258168e+00
   2.888351e+01   1.100653e+01
  -1.510906e+01   6.536043e+01
  -5.902361e+01   6.596988e+01
  -4.826019e+01  -3.665115e+01
   1.311205e+01  -8.031156e+01
   1.308167e+02  -7.027380e+01
   2.192447e+02   1.002201e+02
   1.643811e+02   2.269480e+02
  -6.212026e+01   2.328431e+02
  -2.854895e+02   1.015418e+02
  -2.171017e+02  -1.205410e+02
  -1.374363e+02  -1.836972e+02
   5.120593e+01  -1.126538e+02
   6.315023e+01  -1.035230e+01
   1.058311e+02  -5.822189e+01
   1.422557e+01  -6.748037e+01
   5.181860e+01  -9.185693e+01
   1.219458e+02   1.794914e+01
   1.303792e+02   1.301381e+02
   2.937752e+01   2.324687e+02
  -8.636068e+01   1.298606e+02
  -1.233128e+02   1.020041e+01
  -1.163866e+02  -1.232974e+02
   1.488158e+01  -1.081712e+02
   5.764499e+01  -1.168116e+02
   4.825943e+01  -1.687312e+01
   1.130076e+01  -1.644109e+00
   4.687811e+00   2.303289e+01
   1.467826e+01   4.834276e+01
   1.037346e+02   6.467681e+01
   4.254977e+01   5.484395e+01
  -3.761012e+01   4.368172e+01
  -1.912116e+02  -3.497722e+01
  -1.445467e+02  -8.315259e+01
  -6.673896e+00  -1.012577e+02
   1.006748e+02  -2.694374e+01
   1.409201e+02  -3.296160e+01
   5.219802e+01   1.012796e+01
  -9.066228e+00  -1.350627e+01
  -5.698166e+01  -6.441332e+00
   6.901511e+00  -5.440629e+01
   3.797192e+01  -2.344149e+01
   2.336758e+01   1.838030e+01
   2.619704e+01   2.824190e+01
  -2.348600e+01   1.039056e+02
   5.719160e+01  -5.736168e+00
   6.690160e+01   7.408014e+00
   1.812930e+01   8.957749e+01
  -3.463508e+01   1.211357e+02
  -1.017174e+02   1.536744e+02
  -1.755628e+02  -7.805595e-01
  -1.096255e+02  -8.328333e+01
   1.649925e+01  -1.266283e+02
   9.666840e+01  -6.177419e+01
   7.442685e+01   2.009189e+01
  -1.036973e+02   5.741704e+01
  -1.372186e+02  -2.518720e+01
  -9.363950e+01  -9.844646e+01
   5.963385e+01  -1.183805e+02
   1.808675e+02  -2.207560e+01
   1.377626e+02   3.610578e+00
   6.340031e+01   1.124181e+02
  -3.465073e+01   7.542914e+01
  -6.998272e+01   3.227041e-01
  -1.673845e+01   1.286795e+01
   3.431203e+01   7.461492e+00
   3.621066e+01   1.172978e+02
  -9.019563e+01   1.123260e+02
  -1.569319e+02   8.543437e+01
  -1.409790e+02  -1.752460e+02
  -2.624125e+00  -2.253128e+02
   8.429431e+01  -1.366640e+02
   1.356027e+02   2.659213e+01
   8.606102e+01   1.613581e+02
  -1.679182e+01   7.654436e+01
  -3.563505e+01   6.251225e+01
  -2.326610e+01  -1.162196e+01
  -4.430312e+01  -1.187977e+01
   3.259145e+00  -9.721568e-01
  -3.638877e+01  -3.530395e+01
  -2.458671e+01  -8.546897e+01
  -2.286195e+01  -3.735077e+01
   3.660477e+01  -5.302089e+01
   1.375476e+02   5.720597e+01
   1.586700e+02   8.582922e+01
   4.892342e+00   9.579992e+01
  -1.023822e+02   6.707553e+01
  -1.027742e+02   3.678739e+01
  -1.684516e+01  -3.329574e+01
   1.804891e+01  -5.158079e+01
   2.188520e+01  -5.610259e+00
  -9.169194e-01   1.506556e+01
   1.958201e+01   2.669541e+01
   1.294110e+02   2.476667e+01
   6.571576e+01   4.966372e+01
   8.318996e+00   8.438309e+01
  -1.453289e+02   1.174519e+02
  -1.504835e+02   6.634808e+01
  -1.728205e+02  -8.512587e+01
  -3.372421e+00  -1.350212e+02
   5.751842e+01  -1.103038e+02
   8.778208e+01  -7.184086e+01
   7.004639e+01   4.810791e+00
  -3.275671e+00  -2.416510e+01
   1.881174e+01   4.045519e+01
   1.126032e+01  -7.584753e+00
   3.936201e+01   5.302172e+01
   2.437123e+01   9.356837e+01
  -7.363460e+01   5.437427e+01
  -8.353940e+01  -5.769206e+01
  -8.506080e+01  -1.435641e+02
  -1.099524e+01  -1.128463e+02
   8.218800e+01  -5.565031e+01
   9.247602e+01   1.027739e+02
   5.811479e+01   1.049678e+02
  -7.943942e+01   5.169375e+01
  -8.442911e+01  -1.310140e+01
  -5.797323e+01  -5.587311e+01
  -1.199727e+01  -6.101342e+01
   3.083980e+01  -4.069870e+01
  -4.036187e+01   1.710415e+01
  -3.948381e+01   1.047475e+01
   2.750653e+01  -5.432355e+01
   1.216789e+02  -8.601836e+01
   1.295158e+02  -2.316312e+01
   4.580802e+01   3.753279e+01
   2.501017e+01   8.675659e+01
  -1.082872e+02   8.388084e+01
  -4.633067e+01   2.953654e+01
   3.570033e+01  -1.719524e+01
   4.574496e+01  -5.290605e+01
   5.038759e+01   2.572774e+01
   8.519217e+00   3.318975e+01
   6.224067e+00   4.649268e+01
  -5.260603e+01  -8.655626e+00
  -5.056030e+01  -2.850061e+01
  -1.581428e+01   2.600161e+01
   3.193809e+01   8.095454e+00
  -1.184250e+01  -4.032881e+01
   2.391481e+01  -2.880609e+01
   1.145143e-01  -7.513830e+01
   5.569639e+01  -1.866181e+00
   3.105958e+01   2.435885e+01
   3.232652e+00   5.750685e+01
  -1.810650e+01   1.989676e+01
  -3.760590e+01  -3.187886e+01
  -2.648751e+00  -7.490269e+01
   2.196026e+00  -2.361351e+01
   7.050074e+01   2.267292e+00
   4.342510e+01   3.154174e+01
  -3.923850e+01   5.115688e+01
  -6.449078e+01  -3.023144e+00
  -5.932833e+01   1.913327e+01
   3.242129e+01   9.609837e+00
  -2.165452e+01   3.074281e+01
  -5.626913e+01  -3.502729e+01
  -8.027650e+01  -5.402823e+00
