
 $NMID
 id='ANONYMOUS ', fmtdat='(2E16.6)'
 volume=1.0
 tramp=1.0
 $END
   3.752944e+03  -1.239376e+02
   2.416786e+03   2.149736e+03
  -4.098136e+02   2.150644e+03
  -1.440300e+03   1.178151e+03
  -1.369208e+03  -3.845786e+01
   1.387864e+02  -5.443629e+02
   7.149869e+02   3.464307e+02
   6.310326e+01   9.756181e+02
  -5.345554e+02   7.271204e+02
  -8.415309e+02  -2.602701e+02
  -4.942765e+02  -7.888086e+02
   2.448588e+01  -8.370345e+02
   5.788383e+02  -3.395970e+02
   3.859728e+02   5.101500e+02
  -2.303209e+02   7.601671e+02
  -3.681054e+02  -9.698274e+01
  -3.732931e+02  -7.484188e+02
   4.271229e+02  -5.091940e+02
   5.234743e+02  -2.886454e+02
   5.514027e+02   1.957755e+02
   6.217803e+01   3.530871e+02
  -1.921749e+02   2.701864e+02
  -1.641035e+02   1.067355e+02
   7.842588e+01   1.842314e+01
   3.104979e+02   3.232725e+02
   1.345097e+01   5.050380e+02
  -4.598576e+02   1.918212e+02
  -5.974936e+02  -1.395931e+02
  -2.816887e+02  -3.544694e+02
   2.367483e+02  -1.538120e+02
   6.066564e+02   3.800030e+00
   1.663343e+02   4.423658e+02
  -3.265383e+02   4.243356e+02
  -4.923963e+02   2.059785e+02
  -3.309782e+02  -3.643807e+02
  -1.678855e+01  -4.860256e+02
   1.484531e+02  -2.384722e+02
  -1.839518e+00   2.281120e+02
  -2.417220e+02   2.729473e+02
  -2.799603e+02  -1.559842e+02
  -7.274817e+01  -5.866236e+02
   2.177384e+02  -5.616078e+02
   3.879404e+02  -4.248581e+00
   1.938107e+02   4.940993e+02
  -1.509060e+02   2.896999e+02
  -2.736654e+02  -2.897152e+02
   3.996720e+01  -5.218802e+02
   4.549187e+02  -9.561484e+01
   6.356797e+02   4.456550e+02
   2.242255e+02   6.338691e+02
  -3.642525e+02   3.294264e+02
  -6.315315e+02  -5.078996e+01
  -4.056237e+02  -2.909723e+02
   7.745863e+01  -2.499478e+02
   3.511835e+02  -5.103855e+01
   1.725775e+02   8.433768e+01
  -7.687417e+01   6.497962e+01
  -7.795989e+01  -3.938047e+01
   1.556251e+02  -7.848102e+01
   2.942157e+02   2.117153e+01
   1.311648e+02   2.132476e+02
  -2.044279e+02   3.098676e+02
  -3.752059e+02   1.815648e+02
  -2.505031e+02  -8.427913e+01
   2.548113e+01  -3.162523e+02
   2.934051e+02  -4.016920e+02
   3.686407e+02  -1.765469e+02
   2.197986e+02   1.403636e+02
   6.519503e+01   3.557750e+02
  -5.246398e+01   2.916399e+02
  -3.061112e+01   1.690424e+02
  -2.602254e+01   1.241929e+02
  -7.173566e+01   1.402296e+02
  -2.290868e+02   7.632295e+01
  -2.073551e+02  -1.127591e+02
  -1.515988e+02  -3.040611e+02
   7.577910e+01  -2.474923e+02
   2.166910e+02  -2.727870e+01
   1.946648e+02   2.651923e+02
  -8.461724e+00   3.120820e+02
  -2.430824e+02   1.131955e+02
  -3.318325e+02  -1.856356e+02
  -1.743965e+02  -3.431828e+02
   9.482165e+01  -2.991550e+02
   1.831947e+02  -1.353943e+02
   1.418406e+02  -3.784620e+01
   1.557545e+02  -5.087514e+01
   2.398816e+02  -2.850048e+01
   4.303307e+02   6.183048e+01
   3.592429e+02   2.988106e+02
   9.298652e+00   4.450994e+02
  -3.466197e+02   4.419067e+02
  -4.872886e+02   2.157580e+02
  -3.477327e+02  -8.798976e+01
  -4.154672e+01  -2.889793e+02
   6.540610e+01  -1.892137e+02
   4.978704e+01   4.003777e+00
  -1.339982e+02   7.073964e+01
  -1.532434e+02  -6.134861e+01
  -3.363694e+01  -2.068719e+02
   1.220349e+02  -1.263478e+02
   1.170924e+02   8.342929e+01
  -2.990623e+01   1.938625e+02
  -1.562354e+02   3.529272e+01
  -1.596909e+02  -2.665001e+02
  -1.976923e+00  -3.640688e+02
   2.556960e+02  -2.408128e+02
   3.415191e+02   8.442648e+01
   2.784284e+02   2.995156e+02
   7.807767e+01   2.927177e+02
  -1.406887e+02   1.670369e+02
  -1.765644e+02   5.846797e+00
  -5.518945e+01  -1.149349e+00
   3.342845e+01   1.502566e+01
   1.595803e+01   6.908656e+01
  -6.621469e+01   7.117615e+01
  -9.982208e+01  -4.783328e+01
  -2.102178e+01  -4.915174e+01
   6.683522e+01   1.471957e+01
   2.714869e+01   1.074922e+02
  -1.963960e+02   9.799845e+01
  -2.973619e+02  -3.315945e+00
  -2.588282e+02  -1.378745e+02
  -9.262593e+00  -2.837521e+02
   1.972585e+02  -2.437035e+02
   2.914738e+02  -6.107208e+01
   1.650824e+02   9.028683e+01
  -5.636375e+01   1.542664e+02
  -9.708723e+01   2.223820e+01
   2.461907e+01  -8.581887e+01
   1.731197e+02  -6.003386e+01
   2.024372e+02   1.059515e+02
   9.200512e+01   2.072124e+02
  -8.351930e+01   1.604747e+02
  -1.392467e+02   1.335732e+01
  -5.372857e+01  -1.385811e+01
   1.580739e+01   2.034069e+01
   1.544424e+01   1.165704e+02
  -1.176687e+02   1.057342e+02
  -2.444848e+02   1.025213e+00
  -2.426805e+02  -1.593778e+02
  -1.152061e+01  -2.208080e+02
   1.627364e+02  -1.931774e+02
   2.030806e+02  -3.803303e+01
   8.905524e+01   1.232759e+02
  -3.067715e+01   1.197743e+02
  -8.976748e+01   2.805261e+01
   3.858914e+01  -3.324511e+00
   1.990874e+00   3.491698e+01
  -7.403389e+01   4.582422e+01
  -8.904626e+01   1.186248e+01
  -9.664408e+01  -1.166592e+02
  -9.747128e-01  -1.883552e+02
   1.778686e+02  -1.793242e+02
   2.055972e+02  -7.303312e+00
   1.549042e+02   1.687000e+02
   3.475733e+01   2.718893e+02
  -1.220662e+02   1.702714e+02
  -1.324370e+02   8.638099e+00
  -6.577358e+01  -2.934330e+01
  -1.940922e+01  -1.514879e+01
  -6.645941e+01   5.358553e+01
  -8.265159e+01   3.046681e+01
  -5.577220e+01  -2.221843e+01
   2.644292e+01  -1.353566e+02
   1.492139e+02  -1.137526e+02
   1.059772e+02   2.126634e+01
  -2.564001e+01   1.578242e+02
  -1.981435e+02   1.392285e+02
  -2.275965e+02  -3.536519e+00
  -1.277412e+02  -1.882763e+02
   8.446105e+01  -2.583384e+02
   2.627198e+02  -1.330086e+02
   2.668785e+02   1.008562e+02
   1.006299e+02   1.962133e+02
  -6.872178e+01   1.816294e+02
  -1.184497e+02   9.839884e+01
  -7.490750e+01   7.162315e+01
  -9.267069e+01   5.941970e+01
  -4.825309e+01   6.021659e+01
  -8.716518e+01  -2.475552e+01
  -1.182067e+02  -1.507856e+02
  -2.640640e+01  -2.446232e+02
   1.196609e+02  -1.790509e+02
   1.643427e+02   1.318837e+01
   1.305973e+02   1.285061e+02
   2.366881e+01   1.878617e+02
  -1.303288e+02   6.708923e+01
  -8.366177e+01   5.503262e+00
  -1.631444e+01  -4.588047e+01
   1.134862e+01  -3.770332e+01
   4.045363e+00  -5.192820e+01
  -2.268199e+01  -2.361707e+01
  -5.432706e+01  -3.616505e+00
   1.028186e+02  -1.058260e+01
   1.568765e+02   1.397530e+01
   1.216951e+02   6.537538e+01
  -2.127634e+00   8.099668e+01
  -1.085311e+02   5.403377e+01
  -1.595268e+02  -4.392751e+00
  -6.283148e+01  -7.706308e+01
   5.676161e+01  -2.816291e+01
   7.879383e+01   2.872163e+01
   2.525617e+01   7.802106e+01
  -5.811929e+01   6.648777e+01
  -5.793711e+01   2.346074e+01
  -4.482109e+01  -5.873416e+01
  -4.533383e+01  -4.348687e+01
  -2.298139e+01   3.661378e+00
  -2.026972e+01  -2.913617e+01
  -1.901771e+01  -5.271613e+01
   3.510392e+01  -1.522540e+02
   1.214501e+02  -1.694857e+02
   1.667327e+02  -3.722993e+01
   1.153046e+02   1.092785e+02
  -5.229861e+01   1.405539e+02
  -1.197826e+02   8.476797e+01
  -7.645541e+01  -2.146302e+01
   9.868923e+01  -6.568268e+00
   1.223928e+02   4.176756e+01
   1.148796e+02   8.795897e+01
  -8.047633e+01   9.047924e+01
  -1.635865e+02   5.989999e+01
  -1.570378e+02  -5.313593e+01
  -3.356927e+01  -8.632259e+01
   6.484583e+01  -8.449354e+01
   3.501900e+01  -2.049663e+01
   2.697635e+01   2.574302e+01
  -5.594872e+01   3.658088e+00
  -5.214134e+00  -1.647942e+02
   1.234753e+02  -1.501621e+02
   1.515192e+02  -1.336373e+01
   8.764288e+01   1.423800e+02
   1.872402e+00   2.332098e+02
  -6.681827e+01   1.183092e+02
  -7.203910e+01  -1.756447e+01
  -2.924870e+01  -1.664568e+02
  -5.997603e+00  -6.351443e+01
   4.709811e+01  -6.155456e+00
   7.016396e+01   6.275386e+01
   2.982502e+01   5.971777e+01
  -4.432262e+00  -7.716391e+01
  -3.935480e+00  -4.447400e+01
   6.963236e+01   8.845042e+01
   3.152750e+01   1.750041e+02
  -5.449107e+01   4.664985e+01
  -1.206251e+02  -2.055709e+01
  -1.197014e+02  -1.230137e+02
  -2.048529e+01  -3.423614e+01
   1.060474e+02  -2.963513e+01
   1.280172e+02   3.085782e+01
   4.395262e+01   2.840693e+01
   1.852161e+00   5.262910e+01
  -4.249162e+01   5.578839e+01
  -1.559955e+01   1.234402e+00
  -1.679355e+00  -2.135127e+01
  -6.725145e+01  -5.134424e+01
  -8.760938e+01  -3.970939e+00
  -1.979235e+01  -1.046861e+02
   1.093013e+02  -8.501253e+01
   2.211135e+02  -4.987514e+01
   1.737341e+02   5.766574e+01
   3.179825e+01   1.327575e+02
  -1.289059e+02   1.607479e+02
  -1.385592e+02   5.713123e+01
  -2.863703e+01   6.468800e+00
   9.929430e+00  -3.562226e+01
   2.925079e+01  -1.740813e+01
  -3.232947e+01  -1.993116e+01
   1.571733e+01  -7.413048e+01
  -1.415002e+01  -1.036464e+02
   5.498991e+01  -7.493119e+01
   6.138226e+01   4.126742e+01
   6.802127e+01   1.287943e+02
  -2.028659e+00   1.196094e+02
  -9.376673e+01   1.788095e+01
  -1.116459e+02  -2.996343e+01
  -9.579185e+01  -9.474125e+01
   5.487782e+01  -3.479880e+01
   7.453476e+01   2.086566e+01
   3.754430e+01   8.116920e+01
  -7.285980e+01   4.328140e+01
  -7.273848e+01   1.938951e+01
  -1.557377e+01  -8.853709e+00
   8.305312e+01  -2.419819e+01
   3.142282e+01   1.700630e+01
  -4.171646e+01   5.929163e+01
  -1.051474e+02   6.701203e+01
  -6.852744e+01  -2.514502e+00
   2.200243e+01  -4.776248e+01
   6.501387e+01  -1.084546e+02
   8.593607e+00  -2.228240e+01
  -2.533093e+01   7.925266e+01
  -4.543156e+01   6.439319e+01
  -1.281657e+01  -1.642797e+01
   1.615300e+01  -1.644966e+01
   8.358310e+00  -2.903299e+01
   1.307021e+01   6.210598e+01
   1.760586e+01   3.933799e+01
   3.128770e+01   2.613241e+00
  -1.249205e+01  -6.317413e+01
  -1.439715e+01  -4.265020e+01
  -1.761349e+01   2.814777e+01
   1.113961e+01   6.227478e+01
  -4.518368e+01   3.028526e+01
  -2.511284e+01  -6.960912e+01
  -1.591521e+01  -7.253058e+01
   1.929366e+01   1.684240e+01
   7.397151e+01   5.983609e+01
   2.217329e+01   1.111585e+02
  -4.765420e+01   2.287567e+01
  -6.259772e+01  -1.028199e+01
  -3.559722e+01  -4.449629e+01
   2.460552e+00  -4.294643e+01
   4.726290e+01  -7.554506e+00
   2.080170e+01   3.917722e+00
  -3.495694e+01  -2.134764e+00
   2.355277e+01  -5.147405e+01
   3.384669e+01  -2.519031e+01
   7.065399e+01  -3.994598e+01
