
 $NMID
 id='ANONYMOUS ', fmtdat='(2E16.6)'
 volume=1.0
 tramp=1.0
 $END
  -3.311766e+03  -5.197136e+01
  -1.905357e+03  -2.042104e+03
   4.718774e+02  -2.141929e+03
   1.706749e+03  -8.124757e+02
   7.174224e+02   4.988153e+02
  -3.937070e+02   4.347986e+02
  -8.420592e+02  -3.081177e+02
  -6.644450e+01  -7.559064e+02
   6.140607e+02  -6.436466e+02
   7.733158e+02   1.180222e+02
   2.114974e+02   6.750319e+02
  -1.936062e+02   6.504498e+02
  -5.676487e+02   1.369719e+01
  -5.498130e+02  -6.180836e+02
   2.483891e+02  -5.450253e+02
   4.432782e+02  -2.524076e+02
   3.189990e+02   4.654853e+02
  -2.548170e+02   4.031417e+02
  -6.024949e+02   2.432323e+02
  -3.031564e+02  -2.769601e+02
   2.340087e+02  -3.344476e+02
   2.278065e+02  -1.065807e+02
   1.973204e+02   7.533487e+00
  -1.234456e+02   2.157960e+02
  -3.462008e+02  -6.131243e+01
  -2.291453e+01  -2.666198e+02
   5.170171e+02  -2.862184e+02
   5.966415e+02   1.094635e+02
   2.691133e+02   3.822385e+02
  -2.583579e+02   4.216910e+02
  -6.845739e+02  -4.199495e+01
  -1.954143e+02  -4.148554e+02
   3.076371e+02  -4.037330e+02
   3.340502e+02  -1.111615e+02
   3.282486e+02   1.970475e+02
   5.676110e+01   4.661607e+02
  -1.609072e+02   2.319692e+02
  -7.882737e+01  -1.403154e+02
   1.352985e+02  -3.301065e+02
   3.271948e+02  -6.920164e+01
   2.161299e+02   4.206077e+02
  -1.596245e+02   5.195100e+02
  -4.161778e+02   3.127244e+01
  -1.719125e+02  -3.858194e+02
   1.860702e+02  -2.049710e+02
   2.668320e+02   2.431303e+02
   1.002076e+01   4.468997e+02
  -3.609976e+02   1.479111e+02
  -4.374105e+02  -2.702695e+02
  -1.332783e+02  -4.324661e+02
   2.370824e+02  -2.119380e+02
   4.837449e+02   8.942622e+01
   2.780612e+02   3.209874e+02
  -1.533815e+02   2.436899e+02
  -3.529860e+02  -1.009671e+01
  -1.445668e+02  -1.397454e+02
   1.250007e+02  -1.483493e+01
   7.546593e+01   1.829857e+02
  -1.681909e+02   1.210244e+02
  -3.022696e+02  -5.922749e+01
  -1.589840e+02  -2.188231e+02
   1.369223e+02  -1.693189e+02
   1.891961e+02  -3.997332e+01
   9.645604e+01   4.285578e+01
  -4.604630e+01   1.671151e+02
  -1.862904e+02   2.462326e+02
  -2.830580e+02   1.266056e+02
  -2.114949e+02  -1.456634e+02
  -6.726343e+01  -2.927445e+02
   7.558792e+01  -2.586029e+02
   7.708310e+01  -9.543679e+01
   2.104102e+01  -1.659426e+01
   6.666283e+01  -3.928038e+01
   1.634698e+02  -7.608037e+01
   1.748302e+02   4.813697e+01
   1.404180e+02   2.114669e+02
  -2.419566e+01   1.993031e+02
  -1.862225e+02   2.574069e+01
  -2.065263e+02  -1.957165e+02
  -1.356875e+01  -2.433352e+02
   1.882881e+02  -9.158090e+01
   2.516498e+02   1.072505e+02
   1.722945e+02   2.622439e+02
  -4.235043e+01   2.085115e+02
  -1.349338e+02   7.180630e+01
  -1.147700e+02  -2.700784e+01
  -7.515949e+01  -1.407492e+01
  -1.356711e+02   6.591515e+01
  -2.409047e+02   3.991961e+00
  -2.439085e+02  -1.979213e+02
  -5.686566e+00  -2.964426e+02
   2.131370e+02  -3.077104e+02
   3.457274e+02  -1.461807e+02
   2.347461e+02   7.893314e+01
   2.708192e+01   2.539392e+02
  -9.859879e+01   2.167306e+02
  -3.407311e+01  -1.798024e+01
   8.221013e+01  -5.946285e+01
   1.078433e+02   2.121396e+01
   4.678125e+01   1.419987e+02
  -7.246399e+01   1.201012e+02
  -1.596622e+02  -4.481861e+01
  -7.708020e+01  -1.555853e+02
   1.280044e+02  -3.301842e+01
   1.732649e+02   1.641665e+02
   5.820052e+01   2.915253e+02
  -1.580200e+02   1.681284e+02
  -2.268111e+02  -6.833662e+01
  -1.923172e+02  -1.878215e+02
  -7.204172e+01  -1.257286e+02
   9.058521e+01  -1.105479e+02
   1.562599e+02  -1.772411e+01
   2.429849e+01  -1.269367e+00
  -4.910805e+01   2.172119e-02
  -3.232578e+01  -1.069485e+02
   7.291094e+01  -4.250659e+01
   1.436614e+02  -4.597977e-01
   5.483541e+01   6.688954e+01
  -8.231121e+01   8.448741e+01
  -5.040131e+01  -5.042741e+00
   3.759358e+01  -4.907726e+01
   1.458190e+02  -6.580447e+01
   1.596971e+02   3.971194e+01
   1.182890e+01   1.870387e+02
  -1.482786e+02   2.008676e+02
  -1.614948e+02   1.004134e+02
  -7.559678e+01  -4.260833e+01
   2.368425e+01  -9.460205e+01
   8.700918e+01   3.384661e+01
   1.407550e+01   1.016468e+02
  -1.270750e+02   5.825338e+01
  -1.543619e+02  -5.952110e+01
  -1.009139e+02  -1.155202e+02
   7.744509e+01  -7.732334e+01
   1.032288e+02  -2.396228e+01
   3.839268e+01   2.287273e+01
  -3.855280e+01   1.789022e+01
  -4.893226e+01  -5.644326e+01
   4.557845e+01  -1.065538e+02
   1.240752e+02  -4.769062e+01
   1.580838e+02   9.977338e+01
   2.328033e+01   1.722494e+02
  -1.141091e+02   8.354377e+01
  -8.190786e+01   2.497601e+00
  -7.873815e+01  -7.197015e+01
   2.390912e+01  -4.729860e+01
   1.481340e+01  -5.466196e+00
  -9.652259e+00   8.041590e+01
  -2.412211e+01  -4.540134e+00
   3.227974e+01  -3.173489e+01
   3.225709e+01  -6.268149e+01
   6.911002e+01   1.634966e+01
   2.236860e+01   1.215585e+02
  -6.347735e+01   8.968992e+01
  -1.016316e+02   3.115092e+01
  -8.631390e+01  -1.098540e+02
  -5.298413e+01  -1.412811e+02
   9.776133e+01  -1.091852e+02
   7.064030e+01  -9.945601e+00
   4.421713e+01   1.020476e+01
   4.164958e+01   2.625278e+01
   9.403466e+01   3.079082e+01
   2.310144e+01   3.477672e+01
   2.451051e+01   5.362871e+01
  -1.306104e+01   9.644461e+01
  -8.234544e+01   1.628448e+01
  -7.838303e+01  -9.897891e+00
  -3.343555e+01  -8.261296e+01
   6.823816e+01  -5.809615e+01
   1.302609e+02   6.232880e+00
   9.659452e+01   1.269618e+02
  -6.645245e+01   1.132771e+02
  -1.577540e+02   4.533184e+01
  -1.968825e+02  -2.350770e+01
  -7.142718e+01  -1.068234e+02
   6.729028e+00  -1.254804e+02
   4.864521e+01  -7.261718e+01
   5.886321e+01  -7.164249e+01
   5.168909e+01  -4.903992e+01
   7.995233e+01  -8.099055e+01
   1.377459e+02  -1.941531e+01
   1.187478e+02   9.038410e+01
   1.195417e+01   1.850419e+02
  -8.414062e+01   1.341177e+02
  -9.356822e+01   2.796663e+01
  -6.542381e+01  -5.515889e+01
   8.456542e-01  -1.450474e+02
   3.373811e+01  -3.931288e+01
   4.331412e+01   3.563605e+01
  -3.432519e+01   6.892238e+01
  -2.647122e+01   1.159461e+01
   3.110102e+01  -2.738233e+01
   2.371870e+01   3.232441e+01
   1.584477e+01   1.336325e+01
  -4.608149e+01   2.243967e+01
  -1.296625e+02   1.633069e+01
  -1.258637e+02  -3.714914e+01
   1.051245e+01  -7.048584e+01
   9.054097e+01  -6.960537e+01
   9.542562e+01   1.501062e+01
   2.699432e+01   5.439985e+01
  -6.546893e+01   2.759060e+01
  -5.001627e+01  -3.461236e+01
   1.356503e+01  -3.623388e+01
   4.161473e+01  -5.614798e+01
   6.782263e+01   1.521005e+01
   4.022378e+01   5.485436e+01
   3.781344e+01   1.339610e+01
   6.808720e+01   1.841076e+01
   2.112000e+01   3.928632e-01
   5.763484e+00   6.321101e+01
  -5.022417e+01   1.199025e+02
  -8.892960e+01   1.319726e+02
  -1.245153e+02   3.727390e+01
  -7.395131e+01  -9.565372e+01
   1.795318e+01  -6.883414e+01
   3.777938e+01  -5.618603e+01
   1.630744e+01   3.657994e+01
  -6.179368e+00   4.314196e+01
  -8.203755e+01  -2.741957e+01
  -1.064422e+02  -8.136504e+01
   1.660662e+01  -9.145934e+01
   1.270577e+02  -5.264028e+01
   8.432806e+01   5.761646e+01
  -2.016771e+00   5.003827e+01
  -5.586881e+01   2.037106e+01
  -5.617925e+01  -2.293695e+01
   1.383347e+01  -2.722012e+01
   9.885926e+01   3.459855e-01
   7.337728e+01   8.321375e+01
  -6.234586e+01   1.338529e+02
  -1.250031e+02   4.913089e+01
  -9.649330e+01  -5.844605e+01
   1.462333e+01  -9.447140e+01
   7.024972e+01  -1.545412e+02
   1.097436e+02  -3.340993e+01
   4.874283e+01   8.675546e+01
  -2.525550e+01   9.896996e+01
  -4.376016e+01   8.135906e+00
  -6.423104e+01  -1.573597e+01
  -5.282214e+01   2.302493e+01
   5.513676e+00   1.901567e+01
  -2.721378e+01  -3.810930e+01
  -4.894510e+01  -5.165632e+01
  -4.837483e+01  -8.820432e+01
   4.558472e+01  -6.509488e+01
   1.165087e+02   1.925512e+01
   1.117998e+02   6.042379e+01
   2.481084e+00   8.113398e+01
  -3.850306e+01   6.538179e+00
  -4.274962e+01   1.124423e+01
   2.543299e+01  -1.413475e+01
   1.834660e+01  -5.728288e+01
   3.762185e+01  -2.384044e+01
  -3.490177e+01   3.957162e+01
  -3.212193e+00  -2.952999e+01
   3.435601e+01  -1.913602e+00
   7.063384e+01  -1.386032e+01
   2.144118e+01   3.017608e+01
  -6.681170e+01   8.285859e+01
  -9.490639e+01   2.924015e+01
  -5.074902e+01  -3.100871e+01
  -3.215380e+01  -1.109397e+02
   1.931614e+01  -8.447816e+01
   9.211997e+01  -3.348747e+01
   8.141801e+01   4.020966e+01
   6.029681e+01   2.770510e+01
   2.776618e+01  -2.154031e+01
   8.738683e+00   4.701758e+01
   2.351242e+01   4.905441e+01
   1.305042e+01   7.104689e+01
  -1.796529e+01   4.403679e+01
  -2.029270e+01   1.956191e+01
  -7.070398e+01  -3.186404e+01
   5.523790e+00  -6.924945e+01
   1.805780e+01  -2.423724e+01
   6.164865e+01   2.412365e+01
   3.803107e+01   2.961675e+01
  -3.839334e+01   4.088186e+01
  -9.068080e+01   3.274976e+00
  -3.870060e+01  -2.075193e+01
  -2.513480e+01  -1.037468e+01
  -8.167443e+00  -4.441798e+01
   9.913099e+00  -1.455771e+01
  -2.220093e+01   5.032126e+01
  -2.118417e+01  -1.078765e+00
   3.310997e+01  -2.840380e+01
   7.631672e+01  -4.742565e+01
   5.287193e+01   4.586067e+01
  -2.429391e+00   2.690866e+01
  -4.504253e+01   6.243541e+01
  -1.216047e+01  -1.259917e+01
  -2.417007e+01  -4.134648e+01
   1.530614e+01  -3.034552e+01
   1.812812e+01   1.737353e+01
   2.550559e+01   6.372031e+01
  -1.668255e+01   2.780536e+01
  -2.878322e+01   1.298966e+01
   5.401817e+00  -1.288850e+01
  -2.839959e+01   2.961644e+01
   7.016445e+00   3.023722e+01
  -2.565777e+01   3.485273e+01
   2.107588e+01  -1.838821e+01
   1.543724e+01  -1.837442e+01
   3.096851e+01  -2.445731e+01
   5.053635e+01   2.084483e+01
  -1.744352e+01   3.450720e+01
  -2.872627e+01   2.740120e+00
  -3.224896e+01   7.447647e+00
  -4.308913e+01  -7.889709e+00
   2.799752e+01  -4.492029e+00
   3.963295e+01   2.652533e+01
   3.083705e+01  -2.333960e-01
   4.440853e+01   7.210343e+01
  -1.803733e+01   2.092800e+01
  -2.033483e+01  -2.573133e+01
   3.085156e+01   1.448100e+00
   3.213796e+00  -3.689005e+00
  -1.737069e+01   2.004369e+01
  -3.112734e+01   1.175521e+01
