
 $NMID
 id='ANONYMOUS ', fmtdat='(2E16.6)'
 volume=1.0
 tramp=1.0
 $END
   4.189113e+03  -4.407730e+01
   2.202306e+03   2.481707e+03
  -5.568358e+02   2.665136e+03
  -2.019413e+03   8.737558e+02
  -1.020697e+03  -5.410679e+02
   4.940815e+02  -5.893567e+02
   9.637239e+02   4.951469e+02
  -1.845007e+01   1.061266e+03
  -7.894532e+02   7.607420e+02
  -7.888915e+02  -1.381355e+02
  -2.946418e+02  -8.537429e+02
   3.526264e+02  -8.519668e+02
   6.790515e+02  -1.722151e+02
   3.517173e+02   8.172127e+02
  -3.005909e+02   7.986943e+02
  -6.041564e+02   2.890561e+00
  -2.325214e+02  -6.962466e+02
   2.908657e+02  -5.631487e+02
   6.528620e+02  -1.656863e+02
   3.286143e+02   2.244855e+02
   1.956598e+01   2.883190e+02
  -2.441798e+02   1.941152e+02
  -2.478223e+02   3.917276e+01
   8.645507e+01  -1.788085e+01
   3.791629e+02   1.033439e+02
   1.979563e+02   4.887605e+02
  -3.799787e+02   3.962225e+02
  -7.696395e+02  -2.649252e+02
  -5.795120e+02  -4.587092e+02
   3.794669e+02  -3.760964e+02
   6.346606e+02   5.202875e+01
   3.445091e+02   3.461723e+02
  -2.753925e+02   4.625005e+02
  -5.990281e+02   2.010912e+02
  -3.565102e+02  -1.805924e+02
  -1.545327e+02  -4.789197e+02
   1.494021e+02  -1.634775e+02
   1.449137e+02   1.897871e+02
  -2.416007e+02   3.357983e+02
  -4.842536e+02  -1.822804e+01
  -2.586087e+02  -6.713730e+02
   3.161781e+02  -6.821684e+02
   6.065388e+02  -3.603444e+01
   1.940272e+02   5.516140e+02
  -3.471355e+02   3.182411e+02
  -3.810460e+02  -3.551167e+02
   6.469202e+01  -5.499049e+02
   5.767055e+02  -1.415294e+02
   5.738947e+02   3.747070e+02
   1.454266e+02   5.167623e+02
  -3.881707e+02   2.417932e+02
  -6.195210e+02  -4.828671e+01
  -3.167734e+02  -3.336253e+02
   1.606732e+02  -3.333662e+02
   4.421955e+02  -7.306155e+01
   2.191467e+02   1.585401e+02
  -1.320792e+02   1.188878e+02
  -1.433907e+02  -1.519845e+02
   1.366636e+02  -1.909229e+02
   2.941557e+02   6.362666e+01
   1.149975e+02   2.828452e+02
  -1.476851e+02   2.142023e+02
  -2.220594e+02   2.975454e+01
  -1.235228e+02  -7.034096e+01
   7.013783e+01  -1.910804e+02
   1.563517e+02  -2.880473e+02
   3.081968e+02  -1.472708e+02
   2.983157e+02   1.189671e+02
   1.056169e+02   4.354625e+02
  -1.186876e+02   4.285881e+02
  -1.715641e+02   1.211414e+02
  -2.636250e+01  -5.784381e+01
  -3.152537e+01   2.592507e+01
  -1.682270e+02   9.959042e+01
  -2.563549e+02  -7.679056e+00
  -2.100767e+02  -2.275966e+02
   2.329010e+01  -2.479837e+02
   2.298843e+02  -5.519260e+01
   2.531984e+02   1.453793e+02
   8.283349e+00   2.259748e+02
  -2.669265e+02   1.309258e+02
  -3.457728e+02  -8.355846e+01
  -1.965098e+02  -3.288661e+02
   1.080076e+02  -3.160075e+02
   2.191221e+02  -9.770513e+01
   1.092356e+02  -5.338987e+00
   4.696004e+01  -3.094430e+01
   1.713837e+02  -6.354836e+01
   3.278880e+02   5.809132e+01
   2.955975e+02   2.495165e+02
  -1.050703e+01   3.778421e+02
  -3.537031e+02   3.330313e+02
  -4.231791e+02   1.470857e+02
  -2.865892e+02  -9.182546e+01
  -6.879063e+01  -2.488157e+02
   8.749317e+01  -2.534845e+02
   1.072165e+02  -6.999850e+01
  -6.685736e+01   9.244987e+01
  -1.744434e+02   1.172904e+01
  -3.724532e+01  -1.596992e+02
   1.656804e+02  -1.734903e+02
   1.969218e+02   3.666666e+01
   9.160097e+00   2.316812e+02
  -1.832326e+02   5.947072e+01
  -1.426545e+02  -2.483539e+02
   7.108324e+01  -3.165920e+02
   2.419407e+02  -1.574426e+02
   3.362735e+02   8.332320e+01
   2.353893e+02   2.008099e+02
   6.644969e+01   2.346991e+02
  -1.275186e+02   1.902242e+02
  -1.666867e+02   1.423112e+01
  -3.045052e+01   9.481764e+00
   8.254923e+01   5.260142e+01
   1.474015e+01   1.462009e+02
  -1.576644e+02   1.144896e+02
  -1.802074e+02  -3.060831e+01
  -3.434063e+01  -7.003348e+01
   7.830335e+01   5.288368e+00
   6.190446e+01   9.485491e+01
  -1.101807e+02   8.504011e+01
  -2.469611e+02   1.071934e+01
  -1.996639e+02  -1.487941e+02
  -8.735729e+01  -2.131118e+02
   1.421821e+02  -2.122189e+02
   2.277979e+02  -1.077864e+02
   1.161763e+02   6.820284e+01
  -2.020615e+00   9.152339e+01
  -3.728559e+01   2.340914e+00
   4.168755e+01  -6.718404e+01
   1.310276e+02  -5.390119e+00
   1.706912e+02   1.238997e+02
   3.817464e+01   2.008738e+02
  -8.631006e+01   9.560051e+01
  -1.268758e+02   4.893107e+01
  -2.832582e+01  -3.213083e+01
   2.337677e+01  -1.634603e+01
   1.827822e+01   6.546902e+01
  -4.507152e+01   1.204711e+02
  -2.119015e+02   2.208985e+01
  -2.243400e+02  -1.383507e+02
  -3.228052e+01  -2.039471e+02
   1.255537e+02  -1.776965e+02
   1.265581e+02   1.050141e+01
   3.639270e+01   6.799330e+01
  -6.777795e+01   1.180045e+02
  -7.952909e+01   4.870063e+00
  -3.443064e+01  -2.365894e+01
   8.732191e+00  -6.792847e+00
  -1.730487e+00  -2.450345e+00
  -5.405596e+01  -3.662046e+01
  -7.399088e+01  -1.217505e+02
  -1.571172e+01  -1.847227e+02
   1.308472e+02  -1.281042e+02
   2.512072e+02  -4.452094e+01
   1.635068e+02   1.321813e+02
   4.042073e+01   2.020067e+02
  -1.318654e+02   1.439260e+02
  -1.357981e+02   4.711830e+01
  -8.285412e+01  -3.066717e+01
  -3.521820e+01  -2.509199e+01
  -7.835176e+01   2.911176e+00
  -1.056007e+02  -3.311857e+01
  -2.541112e+01  -5.590560e+01
   9.176828e+01  -9.080832e+01
   7.622507e+01  -6.885272e+01
   8.573795e+01   2.886591e+01
  -3.338912e+01   1.157175e+02
  -1.064972e+02   3.524801e+01
  -1.415115e+02  -3.895409e+01
  -4.582973e+01  -1.503230e+02
   8.399813e+01  -2.004766e+02
   1.853554e+02  -6.925118e+01
   1.951518e+02   4.008899e+01
   7.026112e+01   1.556460e+02
  -6.052034e+00   1.472952e+02
  -1.228541e+02   9.293540e+01
  -1.045600e+02   4.216058e+01
  -3.789532e+01   1.060944e+02
  -6.697244e+01   4.563190e+01
  -1.236636e+02   2.812589e+01
  -1.160696e+02  -1.435879e+02
   2.589159e+00  -2.041572e+02
   1.085104e+02  -1.093627e+02
   1.502106e+02  -9.239395e+00
   1.314646e+02   1.101240e+02
   5.441916e+01   9.608603e+01
  -9.404785e+01   1.005330e+02
  -4.275782e+01  -4.673715e+00
   1.570410e+01  -1.741188e+01
  -2.835246e+01  -1.916604e+01
  -6.938379e+01   2.022224e+01
  -8.395425e+01  -3.938981e+01
  -4.770482e+01  -1.818461e+01
   4.897686e+01  -4.736896e+01
   1.017310e+02  -3.765290e+01
   1.060065e+02   4.478617e+01
  -4.262631e+00   8.511265e+01
  -1.141432e+02   6.438354e+01
  -1.178280e+02  -3.598138e+01
  -1.585933e+01  -5.823273e+01
   4.257822e+01  -4.428611e+01
   9.705136e+01   3.644141e+01
   5.262528e+01   1.032741e+02
  -4.431621e+01   8.738000e+01
  -9.395534e+01  -3.179025e+01
  -6.749404e+01  -3.246787e+01
  -5.365794e+01  -5.064844e+01
  -4.127941e+01  -1.857875e+01
  -6.263175e+01  -8.647357e+00
  -1.208286e+01  -7.283337e+01
   5.793160e+01  -1.195746e+02
   1.002956e+02  -1.333507e+02
   1.717414e+02   1.821018e+01
   1.271138e+02   8.575668e+01
  -1.302853e+01   1.097476e+02
  -4.469083e+01   8.783803e+01
  -6.986497e+01  -2.191150e+01
   1.053653e+00   1.582332e+01
   9.243504e+01   1.684413e+01
   4.437464e+01   8.495184e+01
  -6.264410e+01   6.061972e+01
  -1.581705e+02  -4.830473e-01
  -1.502472e+02  -9.214779e+00
  -4.869573e+01  -5.074285e+01
   7.623613e+00  -7.979500e+01
   4.782622e+01  -1.373899e+01
  -3.008678e+01   2.972197e+00
  -4.982800e+01  -1.779335e+01
  -1.336722e+01  -9.249677e+01
   6.620083e+01  -1.163128e+02
   1.204617e+02  -4.283396e+01
   1.099959e+02   9.604682e+01
  -2.897039e+01   1.620099e+02
  -6.914673e+01   1.369596e+02
  -3.880096e+01  -1.066240e+01
  -1.017078e+02  -1.058298e+02
  -1.323248e+01  -9.936476e+01
   1.083563e+00   1.865542e+01
   5.837179e+00  -2.106156e+01
   1.651784e+01   2.812531e+01
  -1.491715e+01  -3.420554e+01
   2.401733e+01   2.750187e+01
   4.687336e+01   9.043481e+01
   5.483607e+01   9.603180e+01
  -7.990012e+01   1.801611e+01
  -1.255461e+02  -3.762765e+01
  -8.834643e+01  -6.938987e+01
  -4.293915e+01  -9.487563e+00
   9.903732e+01  -1.916212e+01
   1.847984e+01  -1.980150e+01
   2.468362e+01  -1.045297e+01
  -8.529332e+01   4.203172e+01
  -4.564344e+01   3.424138e+01
  -5.457210e+01  -5.820980e+01
  -1.059815e+01  -3.262570e+01
  -6.061770e+01   4.080249e+00
  -4.433836e+01  -3.770620e+01
  -3.667636e+00  -5.039805e+01
   1.471286e+02  -4.379916e+01
   1.240081e+02  -4.398094e+01
   1.223966e+02   8.380706e+01
   1.108093e+01   1.570841e+02
  -6.308655e+01   1.410111e+02
  -8.259083e+01   5.988577e+01
  -5.617691e+01  -2.962262e+00
  -3.573357e+01  -1.722653e+01
  -2.724448e+01  -5.211196e+01
  -5.428186e+01  -4.206837e+01
  -1.895558e+01  -4.595869e+01
  -2.651804e+01  -9.428738e+01
   4.996066e+01  -4.629188e+01
   6.035579e+01   4.710125e+01
   6.840642e+01   7.929744e+01
   1.040790e+01   6.916421e+01
  -8.018530e+01   1.447854e+01
  -9.481181e+01  -4.913818e+01
  -2.872576e+01  -8.202867e+01
   3.152278e+01  -6.570745e+01
   7.882287e+01   2.186413e+01
   2.484458e+01   4.438710e+01
  -1.083800e+01   1.814746e+01
  -1.786643e+01   2.620911e+01
   1.658226e+01   1.453337e+01
   5.737728e+01  -5.521259e+01
  -1.961819e+01   1.922490e+01
  -9.330160e+01   8.965052e+01
  -1.076188e+02   6.438727e+01
  -2.409076e+01  -2.619627e+01
   4.208012e+01  -7.224637e+01
   3.510815e+01  -4.009547e+01
   4.411782e+01  -1.597207e+01
  -8.884175e+00   3.611428e+01
  -2.099148e+01   4.291259e+01
  -3.206425e+01  -8.330635e+00
  -1.857238e+01  -4.243657e+01
  -2.177186e+01  -4.131148e+01
   2.620438e+01  -4.961497e+00
  -9.414442e+00   4.802621e+00
   7.155855e+01  -7.337475e+00
  -3.525901e+01  -2.540816e+01
   9.273377e+00   1.036171e+01
  -1.431426e+01   2.675441e+01
  -5.683894e+01   4.023859e+01
  -9.865596e+00   2.330492e+01
  -1.027027e+01  -5.145890e+01
   2.969576e+01  -7.214452e+01
   4.069276e+01  -3.156608e+00
   2.412308e+01   2.399878e+01
   2.931401e+01   5.364983e+01
  -6.520420e+01   1.908305e+01
  -1.088096e+02  -5.176037e+00
  -1.768579e+01  -4.110941e+01
   3.457660e+01  -4.684693e+01
   6.299040e+01  -4.704428e+00
   1.846090e+01  -1.460666e-02
  -2.927503e+01   2.472695e+01
  -5.088029e+01  -1.107039e+01
  -5.702699e+00  -3.574226e+01
   4.280815e+01   4.510069e+00
