
 $NMID
 id='ANONYMOUS ', fmtdat='(2E16.6)'
 volume=1.0
 tramp=1.0
 $END
   5.122692e+03   1.635238e+02
   2.554836e+03   2.995469e+03
  -8.691066e+02   2.906524e+03
  -2.407204e+03   1.181395e+03
  -1.074667e+03  -8.006797e+02
   9.372595e+02  -7.359562e+02
   1.049813e+03   6.749062e+02
   9.625991e+01   1.179906e+03
  -9.607440e+02   1.052785e+03
  -1.055639e+03  -1.153211e+02
  -4.095982e+02  -8.438744e+02
   2.656231e+02  -1.110053e+03
   8.246792e+02   6.038475e+01
   4.601366e+02   6.945528e+02
  -8.733080e+01   1.012957e+03
  -6.150628e+02   1.571338e+01
   6.438884e+01  -8.160274e+02
   3.067360e+02  -5.963767e+02
   5.400425e+02   1.903900e+01
   3.506626e+02   2.655258e+02
  -8.360679e+00   4.644382e+02
  -2.329537e+02   4.007482e+02
  -3.122336e+02  -1.115543e+02
   1.466198e+02  -5.434443e+01
   4.779787e+02   7.404338e+01
   2.471646e+02   5.203218e+02
  -3.978634e+02   6.037114e+02
  -9.030747e+02  -8.101423e+01
  -5.666137e+02  -4.952989e+02
   4.385079e+02  -5.992391e+02
   7.767310e+02   4.725408e+01
   3.941553e+02   5.153904e+02
  -2.851479e+02   5.711427e+02
  -6.743965e+02   1.471680e+02
  -4.514687e+02  -1.745022e+02
  -1.240501e+02  -5.829592e+02
   2.877038e+02  -1.917276e+02
   2.037648e+02   2.218722e+02
  -2.859862e+02   4.485206e+02
  -5.383038e+02  -4.039427e+01
  -2.813016e+02  -8.169551e+02
   3.486577e+02  -7.141449e+02
   7.081268e+02  -1.400993e+00
   3.107611e+02   6.396325e+02
  -3.233662e+02   4.305398e+02
  -5.110507e+02  -3.039801e+02
   2.174561e+01  -6.021920e+02
   6.531538e+02  -1.846608e+02
   6.506158e+02   4.098919e+02
   1.344813e+02   6.429339e+02
  -4.798311e+02   3.666961e+02
  -7.031542e+02  -9.668866e+01
  -3.410080e+02  -4.689557e+02
   2.137868e+02  -4.298007e+02
   5.040202e+02  -6.603761e+01
   2.810952e+02   2.866294e+02
  -1.589562e+02   1.843317e+02
  -2.083188e+02  -1.951875e+02
   9.627784e+01  -2.417832e+02
   3.907946e+02   4.838615e+01
   2.131567e+02   3.552552e+02
  -1.596674e+02   2.982228e+02
  -3.526324e+02   1.029203e+02
  -1.886651e+02  -8.164866e+01
  -4.346074e+00  -1.412020e+02
   2.000269e+02  -3.326673e+02
   2.943082e+02  -2.165063e+02
   2.717678e+02   9.452890e+01
   1.033739e+02   4.336985e+02
  -9.943603e+01   3.322479e+02
  -1.391638e+02   2.121305e+01
  -1.101738e+01  -6.221634e+01
  -8.693554e+00   7.534161e+01
  -2.041193e+02   1.883177e+02
  -2.513783e+02   4.224826e+01
  -1.650144e+02  -2.285392e+02
   8.228689e+01  -2.756850e+02
   2.252274e+02  -4.326796e+01
   2.299767e+02   1.773872e+02
  -5.992238e+00   2.873739e+02
  -2.480891e+02   1.431846e+02
  -3.757264e+02  -1.183872e+02
  -1.886966e+02  -3.503585e+02
   7.781201e+01  -3.261246e+02
   2.674328e+02  -1.697356e+02
   1.452829e+02  -1.775018e+01
   8.772139e+01  -3.230242e+00
   1.810079e+02  -3.380835e+01
   3.784772e+02   1.640546e+01
   3.620714e+02   2.073676e+02
   6.301790e+01   4.055775e+02
  -2.866712e+02   4.046688e+02
  -4.404743e+02   2.565975e+02
  -3.446265e+02  -5.220956e+01
  -8.567413e+01  -2.801648e+02
   1.234990e+02  -2.296856e+02
   5.633221e+01  -8.830274e+00
  -1.259564e+02   1.688018e+02
  -2.712622e+02   3.204293e+00
  -9.073507e+01  -2.019288e+02
   1.714136e+02  -2.645339e+02
   2.044328e+02   1.678909e+01
  -2.046673e+01   1.898478e+02
  -1.799779e+02   2.307565e+01
  -1.635239e+02  -2.823772e+02
   5.895318e+01  -3.738899e+02
   2.302945e+02  -1.860364e+02
   3.440649e+02   9.586968e+01
   2.314302e+02   2.790231e+02
   6.785864e+01   2.304230e+02
  -1.358077e+02   1.589902e+02
  -2.197877e+02   3.569524e+01
  -2.011552e+01  -4.186852e+01
   8.166445e+01  -3.576870e+00
   5.574353e+01   5.647392e+01
  -1.792113e+02   7.621848e+01
  -1.841221e+02   1.620441e+01
  -6.624334e+01  -9.238297e+01
   1.303173e+02  -1.344732e+01
   6.267042e+01   4.202915e+01
  -1.255565e+02   1.140279e+02
  -2.836231e+02   5.668997e+01
  -2.421894e+02  -1.608736e+02
  -6.383785e+01  -2.730936e+02
   1.457778e+02  -2.670364e+02
   3.063091e+02  -1.049720e+02
   1.456634e+02   5.477663e+01
  -5.161417e+01   9.082228e+01
  -9.555544e+01  -4.564029e+01
   3.109513e+01  -1.518826e+02
   2.258123e+02  -4.143945e+01
   2.997683e+02   9.615297e+01
   1.126279e+02   2.126207e+02
  -6.586772e+01   1.412662e+02
  -1.291647e+02   2.509820e+01
  -7.890273e+01  -4.217313e+01
   2.664036e+01   3.668120e+00
   9.606779e+01   1.077879e+02
  -3.195566e+01   9.707807e+01
  -1.433527e+02   6.185892e+01
  -1.986746e+02  -8.357532e+01
  -6.237106e+01  -1.493275e+02
   1.503026e+02  -1.810919e+02
   1.688720e+02   3.100524e+01
   3.847119e+01   1.173849e+02
  -1.096126e+02   1.089966e+02
  -1.129464e+02   2.772527e+01
  -1.108094e+01  -7.188241e+01
   1.081491e+01  -6.982899e+01
  -1.445501e+01  -1.975403e+01
  -3.369392e+01   1.862844e-01
  -5.644406e+01  -8.221823e+01
   4.012130e-01  -1.257803e+02
   1.018444e+02  -1.573804e+02
   2.047226e+02  -2.245685e+01
   2.235636e+02   1.249567e+02
   5.006201e+01   2.043512e+02
  -7.071236e+01   1.269961e+02
  -1.907724e+02   5.113703e+00
  -1.096315e+02  -7.141786e+01
  -1.533573e+01  -1.340142e+01
  -6.551787e+01   2.665066e+01
  -3.964305e+00   3.965388e-01
  -3.612551e+01  -3.878449e+01
   3.152203e+01  -6.222727e+01
   7.446867e+01  -3.511773e+01
   1.685113e+01   2.004428e+01
  -1.099019e+01   1.127739e+02
  -1.295019e+02   1.076057e+02
  -1.734937e+02  -2.441461e+01
  -7.695359e+01  -2.193103e+02
   5.840590e+01  -2.688013e+02
   2.473921e+02  -1.242864e+02
   2.436471e+02   9.722206e+01
   1.119546e+02   1.631256e+02
  -1.136894e+01   1.240331e+02
  -6.748443e+01   8.649890e+01
  -5.227039e+01   7.866838e+01
  -8.145851e+01   1.294107e+02
  -1.357769e+02   4.929696e+01
  -1.555726e+02  -2.226887e+01
  -9.594948e+01  -1.340703e+02
  -2.489723e+01  -2.260437e+02
   1.196742e+02  -1.612920e+02
   1.920948e+02  -3.033581e+01
   9.839384e+01   7.658037e+01
   3.961018e+01   1.052126e+02
  -1.280491e+01   8.371961e+01
  -3.657638e+01   1.382339e+01
   3.386571e+01  -4.141523e+00
   5.481274e+00   3.030817e+01
  -6.344301e+01  -1.258627e+01
  -7.923196e+01  -2.364910e+01
  -6.417219e+01  -4.162210e+01
   4.074812e+01  -2.165103e+01
   1.572483e+02  -6.397801e+01
   1.130526e+02   3.885447e+01
   2.142982e+01   9.016487e+01
  -7.993665e+01   7.200750e+01
  -1.038886e+02   3.101742e+01
  -1.162031e+01  -6.240520e+01
   9.111466e+01  -2.010184e+01
   1.533852e+01   3.689623e+01
  -1.355787e+01   4.320164e+01
  -6.905532e+01   1.957201e+01
  -7.706017e+01  -8.421196e+00
  -3.846032e+01  -5.280034e+01
  -2.185029e+01  -3.996030e+01
  -6.465801e+01  -1.662271e+01
  -6.515733e+01  -1.904434e+01
  -3.961138e+01  -7.109174e+01
  -3.229260e+01  -1.345475e+02
   9.526023e+01  -1.590201e+02
   1.639639e+02  -3.504666e+01
   1.575700e+02   8.958294e+01
   5.924803e+01   1.072541e+02
  -5.574228e+01   7.072246e+01
  -4.069287e+01   1.359620e+01
   4.995346e+01  -7.482731e+00
   9.367614e+01   7.880769e+01
   5.013291e+01   9.123714e+01
  -1.138649e+02   1.155698e+02
  -1.923878e+02   5.884032e+01
  -1.286725e+02  -5.037972e+01
  -2.890485e+01  -1.052536e+02
   6.008416e+01  -8.911870e+01
   5.265332e+01   1.052132e+01
   1.506764e+01   3.907367e+01
  -8.729060e+01  -4.605625e+01
  -5.605198e+01  -9.904890e+01
   8.926566e+01  -1.396885e+02
   1.436867e+02  -8.399766e-01
   1.261927e+02   9.763219e+01
  -1.154034e+00   1.424004e+02
  -7.677420e+01   8.971971e+01
  -9.907222e+01  -4.049421e+01
  -2.010749e+01  -9.066083e+01
   2.743557e+01  -1.067592e+02
   4.931364e+01   3.098896e+01
   2.159313e+01   3.225326e+01
  -1.289799e+01   2.422550e+01
  -2.222012e+01  -1.480132e+01
   5.768839e+00   3.333060e+00
   7.301823e+01   5.903907e+01
   2.626636e+01   8.207692e+01
  -5.218176e+01   2.490754e+01
  -1.483590e+02  -4.781922e+01
  -1.122290e+02  -3.080993e+01
  -7.660135e+00  -5.806432e+01
   9.992521e+01   8.486094e+00
   6.914542e+01  -3.050057e+00
  -2.592441e+01   2.167045e+00
  -6.493224e+01   2.316276e+01
  -1.912278e+01  -1.623740e+01
  -2.095835e+00  -3.664813e+01
   1.830249e+01  -2.911499e+01
  -4.753275e+01   1.536672e+01
  -8.777489e+01  -1.371663e+01
  -1.209983e+01  -8.055510e+01
   1.253077e+02  -1.137849e+02
   1.876580e+02  -6.313379e+01
   1.129972e+02   7.772145e+01
   5.008406e+01   1.957442e+02
  -8.736816e+01   1.479018e+02
  -1.392222e+02   3.754686e+01
  -5.923765e+01  -8.638590e+00
  -1.637914e+01  -5.050761e+01
   6.366927e+00  -9.485664e+00
  -1.478762e+01   2.525986e+01
  -2.613534e+01  -4.991337e+01
  -1.005593e+01  -7.838913e+01
   2.299628e+01  -1.012184e+02
   8.765696e+01  -8.215104e+00
   8.389708e+01   9.406038e+01
  -1.013717e+01   1.138888e+02
  -8.224386e+01   3.540275e+01
  -1.007210e+02  -1.213547e+02
   1.047984e+01  -9.456298e+01
   6.112732e+01  -1.433372e+01
   7.625662e+01   4.599241e+01
   3.131443e+01   7.585247e+01
  -7.180665e+01   5.235452e+00
  -6.509642e+01  -3.152694e+01
   3.264023e+01  -1.603440e+01
   7.577800e+01  -1.971195e+01
   2.440169e+01   1.803152e+01
  -4.531004e+01   9.380820e+01
  -8.810127e+01   4.295519e+01
  -5.980675e+01  -1.605824e+01
   2.697721e+01  -7.326499e+01
   5.806488e+01  -6.156581e+01
   1.511502e+01   2.299356e+01
  -7.393936e+00   5.047724e+01
  -5.062272e+01   2.189973e+01
  -1.117437e+01  -8.481496e+00
  -1.844284e+01  -4.588351e+01
  -1.838667e+01  -2.434346e+01
   2.031586e+01   3.469025e+00
   1.698006e+01  -2.760815e+01
  -1.188151e+01   6.165375e+00
   2.510764e+01   1.326190e+01
  -2.376777e+00   1.879681e+00
   1.911924e+01   7.517876e+01
  -2.449366e+01   3.368115e+01
  -7.811464e+01   3.013895e+01
  -3.023474e+01  -7.048854e+01
  -1.555567e+01  -6.786980e+01
   5.390142e+01  -1.573105e+01
   5.553220e+01   2.697915e+01
   1.493023e+01   6.331043e+01
  -6.368059e+01   1.254188e+01
  -8.775957e+01  -1.157217e+00
  -4.118446e+01  -3.009979e+01
   3.542979e+01  -5.297093e+01
   6.728349e+01  -1.303052e+01
   3.461404e+01  -1.115652e+01
  -6.214744e+01   9.096235e+00
  -4.678931e+01  -1.612643e+01
   1.334275e+01  -3.144481e+01
   8.209588e+01  -1.748828e+01
