
 $NMID
 id='ANONYMOUS ', fmtdat='(2E16.6)'
 volume=1.0
 tramp=1.0
 $END
   3.723807e+03   1.186900e+02
   2.248403e+03   1.955015e+03
  -4.452195e+02   2.296277e+03
  -1.702850e+03   1.282938e+03
  -9.265168e+02   4.819766e+01
   2.790061e+02  -4.525245e+02
   7.784529e+02   2.939784e+02
   1.267270e+02   7.744197e+02
  -7.214024e+02   7.138474e+02
  -7.890330e+02   9.679670e+01
  -4.360266e+02  -7.698243e+02
   2.194621e+02  -8.672553e+02
   5.139091e+02  -1.030839e+02
   4.119060e+02   3.900940e+02
  -3.081954e+02   6.867174e+02
  -5.289195e+02  -3.236097e+01
  -1.458619e+02  -5.832091e+02
   3.434778e+01  -6.795742e+02
   4.504222e+02  -2.878126e+02
   6.184274e+02   2.712465e+02
   7.341596e+01   3.930431e+02
  -7.808624e+01   3.345446e+02
  -4.912995e+01  -5.813987e+01
   2.655692e+02   5.488018e+01
   5.914878e+02   2.319723e+02
   2.219302e+02   3.820634e+02
  -3.950561e+02   3.278544e+02
  -7.858292e+02  -1.675032e+02
  -3.691245e+02  -4.333608e+02
   4.670334e+02  -3.210774e+02
   6.881032e+02   1.013671e+02
   3.080968e+02   4.628537e+02
  -2.713590e+02   3.680643e+02
  -5.988550e+02   1.934368e+02
  -3.624949e+02  -1.503685e+02
  -5.604719e+01  -3.744173e+02
   1.630218e+02  -2.590583e+02
   1.265759e+02   1.357326e+02
  -2.053189e+02   4.045547e+02
  -3.136847e+02  -5.411747e+01
  -1.672302e+02  -7.230562e+02
   3.338954e+02  -6.852892e+02
   5.885009e+02  -5.406677e+01
   2.335533e+02   5.506500e+02
  -2.533398e+02   2.857906e+02
  -2.975442e+02  -3.710805e+02
   6.278563e+01  -5.614841e+02
   6.259060e+02  -5.393521e+01
   6.230832e+02   5.000530e+02
   1.760066e+02   6.490210e+02
  -3.738799e+02   3.056462e+02
  -6.584508e+02  -1.171026e+02
  -3.958045e+02  -3.732410e+02
   1.312296e+02  -2.837194e+02
   4.354453e+02  -7.628620e+01
   2.241992e+02   1.222467e+02
  -6.435138e+01   5.744597e+01
  -1.729835e+02  -1.053203e+02
   1.354971e+02  -1.514488e+02
   3.023795e+02   3.821529e+01
   1.689152e+02   2.367074e+02
  -1.880328e+02   2.715056e+02
  -3.700540e+02   1.352815e+02
  -2.740782e+02  -7.263699e+01
  -5.986264e-01  -2.814438e+02
   2.697104e+02  -4.235055e+02
   3.829370e+02  -2.358862e+02
   2.938477e+02   1.821122e+02
   5.901338e+01   4.555664e+02
  -1.266105e+02   3.419112e+02
  -1.178849e+02   8.409421e+01
  -3.451690e+01   1.101880e+01
  -2.513246e+01   1.437759e+02
  -2.163655e+02   1.080274e+02
  -2.879441e+02  -1.221265e+02
  -1.238008e+02  -2.729115e+02
   1.091769e+02  -2.047670e+02
   1.646871e+02   5.252789e+01
   1.485182e+02   2.628012e+02
  -3.777612e+00   2.372439e+02
  -2.209119e+02   1.428278e+02
  -3.258735e+02  -1.309158e+02
  -2.170290e+02  -3.224730e+02
   7.696899e+01  -3.033238e+02
   2.020982e+02  -1.637219e+02
   1.893936e+02  -7.241385e+01
   1.830324e+02  -1.421194e+01
   3.098494e+02  -3.096498e+01
   4.139128e+02   7.746380e+01
   2.984699e+02   3.128182e+02
  -4.565912e+01   4.617707e+02
  -4.247978e+02   4.260490e+02
  -4.945740e+02   2.187026e+02
  -2.859852e+02  -1.217492e+02
  -4.440734e+01  -3.075423e+02
   9.241147e+01  -2.474603e+02
   6.821609e+00  -3.616130e+01
  -8.252048e+01   8.394502e+01
  -1.181835e+02  -1.035747e+00
   1.638930e+01  -1.842391e+02
   1.613908e+02  -1.720447e+02
   1.191540e+02   4.474437e+01
  -7.134806e+01   2.221285e+02
  -1.697738e+02   6.402387e+01
  -1.611770e+02  -2.272845e+02
   3.241631e+01  -3.871252e+02
   2.267859e+02  -2.012814e+02
   3.408119e+02   1.191888e+02
   2.536861e+02   2.299563e+02
   1.152702e+02   2.455051e+02
  -9.597520e+01   1.512693e+02
  -1.834705e+02   2.864110e+01
  -1.154480e+02  -4.718753e+01
   6.056773e+01   5.276464e+01
   6.373054e+01   1.319579e+02
  -1.323694e+02   1.407015e+02
  -2.138757e+02   3.884503e+00
  -7.940804e+01  -1.267144e+02
   4.967343e+01  -3.839967e+01
   7.015934e+01   1.382980e+02
  -1.027388e+02   1.387190e+02
  -2.245482e+02   4.856895e+01
  -2.387061e+02  -1.698715e+02
  -5.115106e+01  -2.688036e+02
   1.583948e+02  -2.630992e+02
   2.323761e+02  -1.271208e+02
   1.646934e+02   3.462550e+01
  -2.151116e+01   1.021224e+02
  -1.011620e+02  -1.145930e+01
   2.787726e+01  -1.017096e+02
   2.162013e+02  -6.120366e+01
   2.228747e+02   1.243470e+02
   9.872366e+01   2.040118e+02
  -9.001177e+01   1.881500e+02
  -1.631317e+02   4.175122e+01
  -7.666131e+01   3.996975e+01
   1.940440e+01   4.099005e+01
   1.400176e+01   5.718105e+01
  -2.490320e+01   6.116726e+01
  -1.889764e+02   3.365010e+01
  -2.035073e+02  -5.251866e+01
  -5.195356e+01  -1.627493e+02
   1.797251e+02  -1.564263e+02
   1.625776e+02  -3.391405e+01
   1.065799e+02   1.048499e+02
  -1.507668e+01   1.607785e+02
  -7.896333e+01   3.365126e+01
  -5.476026e+01  -3.948341e+01
   1.203836e+01  -1.211689e+01
  -2.679750e+01   2.214579e+01
  -9.308827e+01  -3.209914e+01
  -9.742892e+01  -1.052987e+02
   2.686835e+01  -1.767053e+02
   1.240978e+02  -1.435065e+02
   2.176241e+02  -5.392802e+00
   1.962067e+02   1.440902e+02
   6.141230e+01   2.396622e+02
  -1.118555e+02   1.701644e+02
  -1.973716e+02   1.897670e+01
  -9.691292e+01  -9.646946e+01
  -3.473194e+00  -2.601268e+01
   1.031031e+01   5.348762e+01
  -6.411973e+01   3.102612e+01
  -3.827749e+01  -9.720621e+01
   3.236227e+01  -1.156106e+02
   1.229992e+02  -4.204902e+01
   8.343654e+01   5.361208e+01
  -1.010002e+01   1.739296e+02
  -1.444339e+02   1.206786e+02
  -1.994841e+02  -2.603588e+01
  -1.142832e+02  -1.830185e+02
   8.690987e+01  -2.291870e+02
   2.374661e+02  -1.097591e+02
   2.667830e+02   9.591882e+01
   9.025610e+01   2.177653e+02
  -2.616768e+01   1.505791e+02
  -8.163482e+01   4.789409e+01
  -1.114461e+02   6.051860e+01
  -1.065074e+02   6.899517e+01
  -1.145868e+02   7.221904e+01
  -1.112983e+02  -3.056664e+01
  -1.104591e+02  -1.377801e+02
  -5.371769e+01  -2.248169e+02
   2.787673e+01  -2.055269e+02
   1.866878e+02  -7.052470e+01
   1.579576e+02   1.287368e+02
   1.878810e+01   1.867537e+02
  -6.906366e+01   8.792829e+01
  -5.868918e+01  -1.871476e+01
  -1.154429e+01  -7.719620e+01
   4.861536e+01  -6.984245e+01
  -4.138610e+01   2.869646e+00
  -3.135508e+01  -1.221666e+00
  -3.170390e+01  -6.473842e-01
   6.747995e+01  -2.058456e+00
   1.583708e+02   2.196599e+01
   1.360534e+02   6.231692e+01
  -2.014788e+01   6.993093e+01
  -1.377517e+02   7.960009e+01
  -1.516140e+02   5.705708e+01
  -5.711146e+01  -3.579533e+01
   3.355101e+01  -3.773316e+01
   1.091787e+02   6.555456e+00
   2.614923e+01   6.233873e+01
  -5.179000e+01   6.723589e+01
  -4.766844e+01   3.288954e+01
  -5.784554e+01  -4.872353e+01
  -3.467647e+01  -5.703700e+01
  -7.524297e+00  -6.816609e+00
  -7.463514e+01  -1.892188e+01
  -3.504570e+01  -4.976886e+01
  -1.302965e+01  -1.585184e+02
   1.114421e+02  -1.442674e+02
   2.020046e+02  -4.084250e+01
   1.581462e+02   1.204189e+02
   6.599284e+00   1.333358e+02
  -1.105823e+02   7.281896e+01
  -7.771781e+01  -4.603482e+01
   4.619724e+01  -4.072445e+01
   1.020662e+02   3.817862e+00
   5.906727e+01   1.304144e+02
  -4.793972e+01   1.292766e+02
  -1.806192e+02   7.390284e+01
  -1.573163e+02  -1.044082e+01
  -5.481619e+01  -8.641179e+01
   6.095913e+01  -7.844316e+01
   1.853175e+01  -1.424358e+01
  -3.764106e+00   1.919266e+01
  -9.089852e+01   2.254911e+01
  -5.771032e+01  -8.158100e+01
   6.527612e+01  -1.483780e+02
   1.922136e+02  -1.006361e+02
   1.250190e+02   7.435430e+01
   5.329183e+01   2.099530e+02
  -6.168122e+01   1.472119e+02
  -1.003695e+02   4.186320e+00
  -8.656221e+01  -1.009353e+02
   6.381175e-01  -7.247047e+01
   9.399595e+01  -5.035223e+01
   6.750147e+01   3.370941e+01
   4.048484e+01  -5.142357e+00
   2.350685e+00  -1.465385e+01
   2.228966e+01   7.578960e+00
   5.122068e+01   8.806030e+01
   4.570975e+01   7.349104e+01
  -5.952786e+01   3.072948e+01
  -1.361670e+02  -2.856399e+01
  -1.239140e+02  -5.446275e+01
  -1.422225e+01  -6.735510e+01
   7.173181e+01  -1.363081e+01
   6.756952e+01   1.217798e+01
  -6.469448e+00  -3.909475e+00
  -5.549890e+01   4.275580e+01
  -4.137293e+01  -3.206954e+01
   1.184792e+01  -2.053739e+01
  -2.336521e+01   7.338183e+00
  -3.206353e+01  -1.600504e+01
  -4.771106e+01  -5.220719e+01
   2.334963e+01  -5.394206e+01
   1.276082e+02  -1.021651e+02
   2.090680e+02  -3.628719e+01
   1.247259e+02   5.611137e+01
   5.547478e+01   1.640864e+02
  -8.046609e+01   1.519131e+02
  -1.596989e+02   3.488341e+01
  -8.310514e+01  -2.222907e+01
  -1.778822e+01  -1.919768e+01
  -2.083807e+00  -2.651122e+01
  -1.959203e+01  -4.493203e+01
  -5.932323e+01  -6.110106e+01
  -1.070824e+01  -8.275491e+01
   1.262583e+01  -3.803468e+01
   8.336204e+01   5.300809e+01
   3.387214e+01   1.150831e+02
  -4.003743e+01   1.083921e+02
  -1.150603e+02   1.119310e+01
  -1.332047e+02  -8.987467e+01
  -6.743613e+01  -6.328985e+01
   4.282954e+01  -9.478953e+01
   8.088884e+01  -2.880545e+01
   8.153348e+01   2.634729e+01
   2.523196e+00   7.203256e+01
  -1.964649e+01   5.950379e+01
  -1.037354e+01   3.702030e+00
   2.927420e+01   1.712410e+01
   2.080540e+00   4.108953e+01
  -8.295674e+01   2.103641e+01
  -7.847703e+01   3.548706e+01
  -6.398082e+01  -5.480360e+01
  -6.454098e+00  -1.060696e+02
   6.011980e+01  -9.732382e+01
   8.114783e+01   1.162196e+01
   3.206866e+01   8.833585e+01
  -8.060703e+01   6.075899e+01
  -4.957005e+01  -6.466617e+01
  -2.625588e+01  -4.254941e+01
  -1.817028e+01  -7.573656e+01
   3.771382e+01  -2.944483e+01
   4.972865e+01  -2.642977e+01
   8.342551e+00  -2.470698e+01
  -7.599638e+00   2.330606e+01
   1.785574e+00   3.339805e+01
   6.860884e+00   5.816265e+01
  -2.385704e+01   3.096012e+01
  -3.384882e+01  -3.797110e+00
  -5.235730e+01  -3.312355e+01
  -3.850480e+00  -5.933919e+01
   1.333864e+01  -5.473714e+01
   4.774360e+01   2.652995e+01
   1.559723e+01   6.342430e+01
  -4.353377e+01   5.668898e+01
  -5.686131e+01   1.543020e+01
  -4.059428e+01  -1.957852e+01
   2.473422e+01  -1.337823e+01
   1.526323e+01   1.510919e+00
  -2.763771e+01  -1.270188e+01
  -2.337762e+01  -2.956148e+01
  -7.029338e+01  -3.981858e+00
  -6.108821e+00  -3.947126e+01
   5.455217e+01  -3.527859e+01
