
 $NMID
 id='ANONYMOUS ', fmtdat='(2E16.6)'
 volume=1.0
 tramp=1.0
 $END
  -3.522238e+03  -2.925833e+02
  -2.208230e+03  -2.056490e+03
   3.908566e+02  -2.250149e+03
   1.495204e+03  -8.586705e+02
   9.011689e+02   2.778648e+02
  -2.750620e+02   3.518651e+02
  -7.966452e+02  -1.001729e+02
   3.697170e+01  -7.234629e+02
   5.061884e+02  -7.041940e+02
   7.572710e+02   1.399213e+02
   4.855962e+02   7.027691e+02
  -1.016750e+02   7.031484e+02
  -5.896244e+02   9.837602e+01
  -3.654959e+02  -4.922624e+02
   2.274301e+02  -4.947697e+02
   5.872611e+02   6.406427e+01
   2.989806e+02   6.678124e+02
  -3.195185e+02   4.778901e+02
  -5.763250e+02   2.967653e+02
  -3.737956e+02  -3.306468e+02
  -1.169934e+02  -2.740979e+02
   1.816503e+02  -2.472788e+02
   1.608825e+02  -8.250880e+01
  -1.147954e+02   3.269565e+00
  -3.517661e+02  -1.454177e+02
   1.599648e+00  -4.511181e+02
   4.668828e+02  -2.780652e+02
   6.327985e+02   2.443169e+02
   2.698129e+02   4.189731e+02
  -2.452379e+02   3.494664e+02
  -5.029108e+02  -8.651080e+01
  -1.709889e+02  -3.498796e+02
   2.756544e+02  -4.042180e+02
   4.248891e+02  -2.110058e+02
   3.390766e+02   1.732053e+02
   2.255899e+01   4.319379e+02
  -8.718563e+01   1.406408e+02
  -5.788199e+01  -1.091254e+02
   1.982959e+02  -2.163581e+02
   3.143145e+02   1.279032e+02
   1.291164e+02   5.422575e+02
  -3.333698e+02   5.446546e+02
  -4.801278e+02  -2.748179e+01
  -1.609308e+02  -4.195858e+02
   2.550517e+02  -1.796056e+02
   2.751829e+02   2.616215e+02
  -1.217308e+02   4.303315e+02
  -5.019151e+02   1.038771e+02
  -4.744943e+02  -3.435732e+02
  -1.211792e+02  -4.960203e+02
   2.766170e+02  -3.033375e+02
   4.873581e+02   5.448684e+01
   2.568980e+02   2.708091e+02
  -1.130808e+02   2.742080e+02
  -3.381788e+02   7.015346e+01
  -2.196475e+02  -1.346307e+02
   1.002203e+01  -7.633888e+01
   3.459163e+01   1.094787e+02
  -1.606361e+02   5.490863e+01
  -2.853189e+02  -1.060787e+02
  -1.326732e+02  -2.685313e+02
   1.837701e+02  -2.407684e+02
   2.741626e+02  -6.453976e+01
   2.282606e+02   1.357709e+02
   1.930825e+01   2.887616e+02
  -2.022230e+02   3.158025e+02
  -3.463435e+02   1.685196e+02
  -2.490709e+02  -1.169155e+02
  -1.127360e+02  -3.095560e+02
   1.001696e+02  -2.778949e+02
   9.470192e+01  -1.544889e+02
   2.563245e+01  -7.054133e+01
   1.288103e+01  -3.673650e+01
   1.672325e+02  -6.169143e+01
   2.082795e+02   5.350189e+01
   1.426240e+02   1.673506e+02
  -9.249045e+01   2.144202e+02
  -2.119670e+02   8.595902e+00
  -1.531481e+02  -1.953050e+02
   7.345376e+00  -1.995582e+02
   2.397635e+02  -5.961234e+01
   2.640856e+02   1.601908e+02
   1.442903e+02   2.720812e+02
  -7.718407e+01   2.415997e+02
  -1.845283e+02   1.397713e+02
  -1.572427e+02   3.033850e+01
  -1.140832e+02   1.242717e+01
  -2.261699e+02   5.500459e+01
  -3.156465e+02  -5.960811e+01
  -2.535968e+02  -2.787302e+02
   1.397389e+01  -3.829718e+02
   3.221680e+02  -3.626587e+02
   3.967103e+02  -1.684309e+02
   2.755356e+02   3.182715e+01
   6.651200e+01   2.060846e+02
  -4.717952e+01   1.796044e+02
  -5.172020e+01   2.313855e+01
   5.515248e+01  -8.636523e+01
   1.090666e+02   3.452696e+01
   3.410616e+01   1.172165e+02
  -1.207283e+02   9.277662e+01
  -1.203692e+02  -8.084638e+01
   5.322781e+00  -1.679614e+02
   1.759529e+02   2.550242e+01
   1.759105e+02   2.247697e+02
  -3.042614e+01   3.055782e+02
  -2.183770e+02   1.769384e+02
  -3.399996e+02  -7.030964e+01
  -2.273786e+02  -2.578287e+02
  -6.528602e+01  -2.363261e+02
   9.178933e+01  -1.426255e+02
   1.783582e+02   2.533460e+01
   7.812864e+01   5.578980e+01
  -4.831381e+00  -2.055455e+01
   1.465173e+00  -6.709279e+01
   1.012429e+02  -5.713176e+01
   1.616020e+02   7.138439e+01
   5.389416e+01   1.083785e+02
  -7.509799e+01   3.673978e+01
  -6.531002e+01  -1.028988e+02
   7.721034e+01  -8.364007e+01
   2.494478e+02   2.029210e+01
   2.069100e+02   1.430510e+02
   1.233659e+01   2.010713e+02
  -2.194149e+02   1.584259e+02
  -2.841666e+02   7.329561e+01
  -1.560224e+02  -6.940196e+01
   3.464313e+01  -8.993683e+01
   1.078866e+02  -2.488698e+01
  -4.648125e+01   8.836579e+01
  -1.919644e+02   3.390476e+01
  -1.990006e+02  -1.062477e+02
  -7.063894e+01  -1.945730e+02
   1.072418e+02  -1.178966e+02
   1.103678e+02  -1.112124e+01
   3.631241e+01   1.942330e+01
  -5.900952e+01  -5.582409e+01
  -1.065098e+01  -1.100216e+02
   1.112169e+02  -1.392591e+02
   2.279000e+02  -2.609787e+01
   1.580731e+02   1.591369e+02
   3.504587e+01   1.972504e+02
  -1.412125e+02   1.600014e+02
  -1.788250e+02  -1.631402e+01
  -4.454794e+01  -8.484769e+01
   2.481131e+01  -5.946251e+01
   6.323425e+01  -2.958234e+01
  -1.229532e+01   3.548206e+01
  -3.832465e+01  -3.583848e+01
   4.790453e+01  -1.124525e+01
   7.972610e+01  -7.130104e+00
   9.369396e+01   6.999565e+01
  -2.381234e+00   1.453379e+02
  -1.211602e+02   1.357827e+02
  -1.531098e+02   5.028129e+01
  -1.417116e+02  -1.385978e+02
  -2.983297e+01  -1.897990e+02
   1.017974e+02  -1.405883e+02
   6.079515e+01  -4.723214e+01
   4.733042e+01   4.792070e+01
   1.197385e+01   2.358147e+01
   5.617556e+01  -5.362722e+01
   7.039363e+01  -8.905434e+00
   4.031509e+01   4.919793e+01
  -5.335853e+01   8.744552e+01
  -1.091435e+02   1.888980e+01
  -1.090130e+02  -8.055584e+01
   4.864982e+01  -1.490524e+02
   1.233206e+02  -9.411996e+01
   2.157125e+02   8.680366e+01
   6.842334e+01   1.846293e+02
  -9.501425e+01   2.070164e+02
  -1.695028e+02   5.018629e+01
  -2.377327e+02  -7.680303e+01
  -9.289542e+01  -1.332803e+02
   3.503635e+00  -1.034992e+02
   8.640193e+01  -9.504956e+01
   8.854966e+01  -6.118064e+01
   8.489908e+01  -6.192588e+01
   1.412362e+02  -7.902990e+01
   1.231075e+02   4.516590e+01
   1.179892e+02   1.569300e+02
   2.888371e+01   2.022253e+02
  -1.090152e+02   1.640729e+02
  -1.361824e+02   4.497720e+00
  -9.499638e+01  -6.905416e+01
  -2.210775e+01  -9.099748e+01
   4.927538e+01  -3.713130e+01
   2.266568e+01  -2.060400e+00
  -2.448233e+01   4.376078e+00
  -1.768458e+01   5.064365e+01
   2.537500e+01  -4.794994e+00
   7.344769e+01   2.964156e+01
   5.047703e-01   4.755507e+01
  -7.012231e+01   3.071186e+01
  -1.636547e+02  -2.904416e+00
  -1.230218e+02  -7.544373e+01
   3.848553e+01  -9.967667e+01
   1.441949e+02  -6.680587e+01
   1.351293e+02   4.144996e+01
   1.458556e+01   9.756118e+01
  -7.956381e+01   4.837965e+01
  -1.116014e+02   1.001017e+01
  -1.438487e+01  -1.044262e+02
   2.618057e+01  -1.086451e+02
   7.046453e+01  -4.499370e+01
   7.933755e+01   2.620342e+01
   7.275681e+01   3.471180e+01
   5.343543e+01   2.109189e+01
   6.177230e+01   1.878459e+01
   1.045384e+01   8.314049e+01
  -4.976494e+01   1.385866e+02
  -1.254707e+02   7.330643e+01
  -1.253528e+02   4.588804e+00
  -1.045790e+02  -1.076164e+02
   2.492941e+01  -8.699583e+01
   9.625513e+01  -6.923049e+01
   9.181667e+01   1.527533e+01
  -3.522570e+01   2.796796e+01
  -1.135793e+02  -1.365987e+01
  -5.658452e+01  -5.912275e+01
   6.628040e+01  -1.145328e+02
   1.516026e+02  -1.756864e+00
   1.040040e+02   1.602854e+01
  -2.142049e+01   8.249490e+01
  -5.019035e+01   7.922048e+01
  -8.162639e+01  -2.463016e+01
   5.791186e+01  -1.730501e+00
   3.297874e+01   1.792843e+01
   3.529232e+01   7.795482e+01
  -8.638998e+01   1.272758e+02
  -1.608545e+02   2.238741e+01
  -1.216937e+02  -7.165124e+01
  -2.115618e+01  -1.888695e+02
   9.188539e+01  -1.019905e+02
   9.616650e+01   1.735357e+01
   6.616299e+01   8.332875e+01
   6.549924e+00   8.591891e+01
  -2.135818e+01   7.306762e+00
  -4.282280e+01  -1.867364e+01
   8.353168e+00   5.477042e+00
  -1.710441e+01   1.678357e+01
  -4.343776e+01  -3.066866e+01
  -5.403198e+01  -7.510093e+01
  -6.656452e+00  -1.291337e+02
   6.672736e+01  -1.990570e+01
   1.399587e+02   6.029438e+01
   1.213963e+02   7.822137e+01
  -9.841576e+00   5.602167e+01
  -7.475216e+01   2.611615e+01
  -6.405268e+01  -3.269872e+00
  -6.625251e+00  -3.440814e+01
   5.252176e+01   6.374402e-01
   2.309347e+01   1.896872e+01
  -3.552868e+01   1.918280e+01
   2.050572e+01   3.125146e+01
   7.201023e+01  -9.386894e+00
   1.008677e+02  -1.907680e+01
   1.253321e+01   5.246155e+01
  -1.304242e+02   1.122261e+02
  -1.485463e+02   6.670335e+01
  -1.421759e+02  -1.013059e+02
   5.424564e+00  -2.238328e+02
   1.057247e+02  -1.550242e+02
   1.154966e+02  -6.679973e+01
   8.965004e+01   6.700088e+01
   2.359508e+01   7.062455e+01
   2.333377e+00   2.005489e+01
  -1.673420e+01   4.206970e+01
   3.530211e+01   1.442272e+01
   9.262723e+00   8.994672e+01
  -1.263705e+01   4.779062e+01
  -3.700979e+01  -1.706656e+01
  -7.457286e+01  -7.350543e+01
  -5.056416e+00  -1.120792e+02
   4.729404e+01  -2.013811e+00
   9.482728e+01   7.968222e+01
   4.167580e+01   1.224309e+02
  -8.103603e+01   5.422550e+01
  -7.758558e+01  -4.038251e+01
  -6.168023e+01  -4.409986e+01
   5.279677e+00  -5.365998e+01
   3.041769e+01   1.298987e+00
  -2.711936e+01  -1.776802e+01
  -6.374948e+01  -2.327828e-01
  -4.625371e+00  -3.291800e+01
   8.791578e+01  -4.394704e+01
   1.097862e+02  -5.300798e+01
   7.418929e+01   3.159857e+01
  -6.743336e+00   6.980142e+01
  -6.015532e+01   7.607249e+01
  -7.878087e+00  -7.158627e+00
  -5.682299e+00  -6.541781e+01
   4.582694e+01  -4.976359e+01
   6.157213e+01   2.877916e+00
   2.332222e+01   6.246430e+01
  -5.196911e+01   7.549398e+01
  -3.221159e+01   2.084244e+01
  -4.417330e+01   1.975669e+01
  -4.404460e+00  -3.071089e+01
   1.033909e+01   1.089775e+01
   1.467163e+01  -9.336759e+00
  -1.419178e+01  -2.441591e+01
   1.192167e+01  -3.039575e+01
   2.318200e+01  -4.154349e+01
   4.783399e+01   5.702033e+01
  -1.318531e+01   5.485409e+01
  -4.600198e+01   4.628985e+01
  -4.436238e+01  -2.194624e+00
  -3.281779e+01  -7.358324e+01
   4.594068e+01  -6.739611e+01
   6.947600e+01  -1.743684e+01
   6.977726e+01   3.755397e+01
  -2.838740e+00   5.694315e+01
  -7.742551e+01  -6.323120e+00
   1.649525e+00   2.165777e+00
  -1.032923e+01  -8.293777e+00
   7.391016e+01   1.717876e+01
  -4.163050e+01   1.074920e+00
  -3.955011e+01   8.148880e+00
