
 $NMID
 id='ANONYMOUS ', fmtdat='(2E16.6)'
 volume=1.0
 tramp=1.0
 $END
   4.086209e+03   1.260207e+02
   2.544125e+03   2.477416e+03
  -5.288038e+02   2.917631e+03
  -1.976020e+03   8.618814e+02
  -9.926223e+02  -8.439882e+02
   6.986823e+02  -5.415192e+02
   7.963933e+02   3.872000e+02
   7.895246e+01   9.926655e+02
  -7.660629e+02   7.575048e+02
  -9.396964e+02  -2.584782e+02
  -4.215451e+02  -8.938873e+02
   2.393049e+02  -8.477871e+02
   4.655310e+02  -2.093762e+02
   3.499977e+02   4.942517e+02
  -5.091025e+01   8.290013e+02
  -4.004890e+02  -3.275755e+01
  -2.253574e+02  -6.407315e+02
   3.451008e+02  -5.713201e+02
   6.056009e+02  -1.931024e+02
   3.826615e+02   7.632137e+01
   1.853009e+01   2.082605e+02
  -3.477228e+02   2.399715e+02
  -2.627755e+02   1.133790e+02
   1.875905e+02  -7.434734e+01
   4.797333e+02   2.100470e+02
   2.070053e+02   4.832501e+02
  -3.838622e+02   4.826719e+02
  -7.234660e+02  -5.056566e+01
  -5.335536e+02  -4.037883e+02
   4.085930e+02  -3.838758e+02
   7.177432e+02  -1.131954e+01
   3.928112e+02   4.671944e+02
  -2.287047e+02   4.351362e+02
  -5.186562e+02   8.836931e+01
  -3.076845e+02  -2.675046e+02
  -9.380377e+01  -4.840341e+02
   2.764283e+02  -2.207314e+02
   2.065781e+02   1.741646e+02
  -1.999603e+02   3.715283e+02
  -4.218184e+02  -4.792802e+01
  -1.801729e+02  -7.025994e+02
   2.975348e+02  -6.996950e+02
   5.808264e+02   6.199580e+01
   3.365131e+02   5.944585e+02
  -2.837891e+02   3.893081e+02
  -3.946515e+02  -3.414449e+02
   5.387938e+01  -5.904060e+02
   5.308712e+02  -1.699728e+02
   6.542144e+02   4.009147e+02
   1.808912e+02   5.972638e+02
  -3.574946e+02   3.640925e+02
  -6.488962e+02  -7.126811e+01
  -3.706731e+02  -3.968048e+02
   1.955517e+02  -3.543434e+02
   4.632874e+02  -5.404143e+01
   2.072098e+02   2.194323e+02
  -1.531869e+02   1.639299e+02
  -1.457297e+02  -9.329753e+01
   1.431089e+02  -1.964003e+02
   3.156878e+02   6.869920e+01
   1.669506e+02   3.322194e+02
  -2.243788e+02   2.413830e+02
  -3.456250e+02   8.199710e+01
  -1.962387e+02  -4.648916e+01
  -5.953323e+00  -2.280162e+02
   1.857522e+02  -2.816906e+02
   3.471938e+02  -2.368426e+02
   2.737142e+02   8.335407e+01
   8.689108e+01   4.116487e+02
  -1.333555e+02   3.377750e+02
  -1.133057e+02   1.391769e+02
   2.847700e+01   9.582132e-01
   3.372653e+01   8.849515e+01
  -1.605266e+02   1.641724e+02
  -2.810515e+02  -4.186507e+01
  -2.420064e+02  -2.504182e+02
   3.324592e+01  -2.192174e+02
   2.202663e+02   1.874774e+01
   2.147433e+02   2.280035e+02
   8.828884e+00   2.458169e+02
  -2.417246e+02   1.046339e+02
  -3.574486e+02  -1.038420e+02
  -1.940957e+02  -3.280910e+02
   6.547880e+01  -3.336274e+02
   1.885404e+02  -1.429797e+02
   1.523138e+02   5.430475e+00
   8.063581e+01   1.449678e+01
   2.038567e+02  -2.456388e+01
   3.316773e+02   3.560264e+01
   3.127691e+02   2.111806e+02
  -2.931431e+01   3.804858e+02
  -3.401035e+02   3.445112e+02
  -4.833610e+02   1.503400e+02
  -3.217747e+02  -1.431568e+02
  -1.277689e+01  -2.621608e+02
   1.306700e+02  -2.520830e+02
   9.909582e+01  -4.775822e+01
  -9.026166e+01   5.571866e+01
  -1.476880e+02  -2.909472e+00
  -3.465435e+01  -1.690596e+02
   1.434048e+02  -1.504539e+02
   1.980399e+02   5.574549e+01
  -2.148816e+01   2.163602e+02
  -2.389465e+02   1.636993e+01
  -1.575625e+02  -2.281557e+02
   7.799856e+01  -3.896765e+02
   2.698811e+02  -2.244248e+02
   3.136965e+02   5.536927e+01
   2.663737e+02   2.016461e+02
   8.779289e+01   2.714616e+02
  -7.479905e+01   1.364836e+02
  -1.595514e+02   1.123893e+01
  -2.555904e+01  -3.689862e+01
   6.539602e+01   3.903925e+01
   5.688695e+01   1.340735e+02
  -1.069809e+02   1.416815e+02
  -1.739532e+02  -8.113658e+00
  -7.232557e+01  -5.420722e+01
   8.299236e+01  -4.380232e+01
   6.816401e+01   8.876082e+01
  -1.746272e+02   1.074020e+02
  -2.811277e+02   3.532556e+00
  -2.598453e+02  -1.485675e+02
  -8.682085e+00  -2.710426e+02
   1.365282e+02  -2.485522e+02
   2.194752e+02  -1.132090e+02
   1.521858e+02   2.960191e+01
   3.280074e+01   7.656249e+01
  -5.577341e+01  -1.004915e+00
   2.562479e+01  -6.063405e+01
   1.433705e+02  -5.396714e+01
   1.893175e+02   8.867261e+01
   5.614921e+01   1.728696e+02
  -5.577257e+01   1.298596e+02
  -1.246333e+02   3.097555e+01
  -2.753553e+01  -6.007631e+01
   2.736392e+01  -2.519819e+00
  -1.760507e+01   1.026736e+02
  -5.289325e+01   1.424054e+02
  -1.841683e+02  -2.374796e+01
  -1.757785e+02  -1.493901e+02
  -2.181952e+01  -1.886445e+02
   1.068899e+02  -1.304982e+02
   2.015043e+02  -5.239024e+00
   7.545205e+01   8.756926e+01
  -7.784161e+01   1.000078e+02
  -5.155630e+01   5.840388e+01
  -3.634997e+01  -2.911015e+01
   1.489892e+01  -3.154457e+01
  -2.850063e+01  -1.024042e+01
  -6.711097e+01  -4.221612e+01
  -9.407420e+01  -3.664543e+01
  -1.763941e+01  -1.513690e+02
   9.541950e+01  -1.477683e+02
   2.415342e+02  -1.493829e+01
   1.669778e+02   1.085100e+02
   4.055755e+01   2.378567e+02
  -9.201017e+01   1.570445e+02
  -1.559650e+02  -4.533029e-01
  -7.054681e+01  -3.139744e+01
  -3.246190e+01  -3.697766e+01
  -4.691482e+01   3.867550e+01
  -5.738425e+01  -9.736124e+00
  -1.628541e+01  -8.991891e+01
   4.065494e+01  -7.865379e+01
   1.002469e+02  -4.377821e+01
   9.441402e+01   2.656193e+01
  -3.963817e+01   1.241504e+02
  -1.490369e+02   6.905231e+01
  -1.686093e+02   9.106671e+00
  -9.598256e+01  -1.744582e+02
   8.060361e+01  -2.362330e+02
   2.428896e+02  -1.209503e+02
   2.448597e+02   4.417659e+01
   8.643862e+01   1.803428e+02
  -3.325696e+01   1.182603e+02
  -8.540235e+01   6.062221e+01
  -5.962431e+01   6.612368e+01
  -3.011029e+01   7.647801e+01
  -7.330803e+01   8.010131e+01
  -1.252777e+02  -1.049988e+01
  -6.989889e+01  -1.347933e+02
  -2.471925e+01  -2.006281e+02
   1.459239e+02  -1.479976e+02
   1.541324e+02  -4.666076e+00
   1.264491e+02   1.023823e+02
   1.633532e+01   1.322448e+02
  -4.675774e+01   9.965407e+01
  -2.712446e+01   2.169280e+01
  -3.674194e+01  -3.831076e+01
  -3.712314e+01  -3.815508e+01
  -4.034201e+01   2.669554e+01
  -7.859266e+01  -2.345720e+01
  -2.894465e+01  -7.439663e+01
   3.067181e+01  -6.962614e+01
   1.430955e+02  -2.782663e+01
   1.488989e+02   7.455191e+01
  -2.920184e+00   8.794335e+01
  -1.155701e+02   1.342397e+02
  -1.406628e+02   2.156102e+01
  -2.458000e+01  -5.867273e+01
   6.690790e+01  -2.854521e+01
   2.288891e+01   1.224186e+00
  -7.063226e+00   9.167748e+01
  -5.979230e+01   5.845384e+01
  -5.206379e+01  -2.678729e+01
  -6.473928e+01  -6.737310e+01
  -4.981554e+01  -6.469784e+01
  -6.418160e+01  -4.773171e+01
  -4.358083e+01   3.730899e+01
  -7.591277e+00  -8.075745e+01
  -2.244612e+01  -1.769223e+02
   1.199290e+02  -1.974948e+02
   1.459453e+02  -4.167115e+01
   1.767510e+02   1.007168e+02
   1.422598e+01   1.015008e+02
  -8.592319e+01   6.622729e+01
  -2.190868e+01  -9.029119e+00
   4.031854e+01  -2.810479e+01
   1.624624e+02   1.739824e+01
   3.950320e+01   8.231782e+01
  -7.937399e+01   6.667739e+01
  -1.401610e+02   8.738700e+01
  -1.402729e+02   1.534561e-02
  -4.162256e+01  -9.906037e+01
   4.782506e+01  -6.245557e+01
   3.352635e+01  -2.543334e+01
  -9.466377e+00   1.024037e+02
  -7.108423e+01  -2.220238e+00
  -4.514289e+01  -1.076832e+02
   7.459030e+01  -1.432467e+02
   1.578528e+02  -4.832285e+01
   1.313045e+02   1.311793e+02
   8.483076e+00   1.577778e+02
  -6.008726e+01   1.314495e+02
  -8.834951e+01   4.815746e+01
  -5.751450e+01  -8.727411e+01
  -3.018822e+01  -7.313170e+01
  -1.970088e+01  -6.844138e+01
   2.408203e+01  -3.038173e+01
   2.702042e+01   2.551335e+01
   4.342210e+01  -3.261394e+01
   1.182135e+01  -4.825305e+00
   6.967666e+01   8.397328e+01
   8.134083e+01   8.455957e+01
  -7.581393e+01   6.799750e+01
  -1.450185e+02  -5.850942e+01
  -8.058487e+01  -8.396819e+01
   3.159540e+01  -4.674961e+01
   9.213855e+01  -3.336683e+01
   5.598502e+01  -4.056060e+00
  -1.608609e+01   4.773524e+01
  -3.134549e+01   6.401955e+01
  -1.055559e+01   3.661983e+01
   3.820710e+00  -9.993250e+00
  -1.549482e+01  -3.513472e+01
  -8.727637e+01  -2.144851e+01
  -7.381309e+01  -1.355953e+01
  -3.839172e+01  -3.980865e+01
   1.234291e+02  -6.628521e+01
   1.600682e+02  -1.082547e+02
   1.471443e+02   1.990476e+01
   2.096839e+01   1.313461e+02
  -8.030131e+01   1.119258e+02
  -1.011160e+02   4.323715e+01
  -6.441599e+01  -1.877291e+01
  -2.473553e+01  -1.290311e+01
   3.043859e+00   1.446091e+01
  -2.019623e+01  -2.534658e+01
  -3.635374e+01  -6.759167e+01
  -3.370417e+01  -1.151987e+02
   4.137149e+01  -5.769016e+01
   9.267933e+01   8.099750e+00
   8.468810e+01   6.179390e+01
   6.627177e+01   1.066647e+02
  -5.364842e+01   1.105500e+02
  -8.163204e+01  -5.182245e+01
  -2.458308e+01  -7.978563e+01
   1.112518e+02  -3.206014e+01
   1.105202e+02   5.631670e+00
   1.559230e+00   4.005568e+01
  -3.707035e+01   6.135141e+01
  -6.762157e+01   5.627843e+01
   1.880320e+01   1.339516e+01
   6.720083e+01  -2.809420e+01
   3.258458e+00   7.638501e+00
  -8.571956e+01   4.730061e+01
  -1.114913e+02   4.717125e+01
  -6.176932e+01  -1.182064e+01
   4.286662e+01  -6.783497e+01
   2.894541e+01  -5.148851e+01
   1.287043e+01  -4.821963e+01
  -2.261588e+01   4.875560e+01
  -3.098625e+01   5.640383e+01
  -2.514894e+01  -1.345745e+01
   1.699534e+01  -3.690457e+01
   7.181693e+00  -4.099273e+01
   3.429141e+01   2.264035e+01
  -9.995065e+00  -8.113628e+00
  -1.336525e+01  -2.002006e+01
   7.227846e+00  -5.594343e+00
  -1.042115e+01   1.885231e+01
   2.923393e+01   4.909394e+01
   3.304498e+00   6.216654e+01
  -3.413804e+01   4.367456e+01
  -3.361482e+01  -4.860356e+01
   2.276699e+00  -7.461480e+01
   4.460531e+01  -4.187169e+01
   1.011067e+02   3.241369e+01
   1.543330e+01   5.022317e+01
  -4.424559e+01   4.512637e+01
  -8.553450e+01  -1.119858e+01
  -5.161385e+01  -3.035030e+00
   1.059212e+01  -7.844367e+01
   4.462522e+01  -2.915015e+01
   4.805578e+01  -1.837087e+01
  -5.108989e+01   4.656527e+01
  -2.659743e+01   2.375132e+01
   1.104992e+01  -3.254172e+00
   1.009312e+02   1.544633e+01
