
 $NMID
 id='ANONYMOUS ', fmtdat='(2E16.6)'
 volume=1.0
 tramp=1.0
 $END
   3.481529e+03   1.325332e+02
   2.291980e+03   1.832686e+03
  -3.473949e+02   2.327758e+03
  -1.326789e+03   1.136287e+03
  -8.774912e+02  -4.201479e+01
   2.661909e+02  -2.376940e+02
   5.013794e+02   2.108911e+02
  -1.288108e+01   5.138809e+02
  -4.756138e+02   6.829465e+02
  -6.515338e+02   1.081848e+02
  -4.747572e+02  -5.877391e+02
   1.004629e+02  -6.313426e+02
   2.816787e+02  -5.930506e+01
   4.146135e+02   4.808275e+02
  -3.475087e+02   6.003583e+02
  -3.141557e+02   6.484952e+01
  -2.606619e+02  -5.690256e+02
   4.667739e+01  -4.985715e+02
   6.480138e+02  -1.723572e+02
   1.503717e+02   1.984914e+02
   3.034490e+01   1.734996e+02
  -5.024764e+00   4.198545e+02
  -6.264445e+01   4.356431e-01
   1.832589e+02  -4.503921e+01
   4.745348e+02   2.392555e+02
   9.956019e+01   4.976147e+02
  -3.332911e+02   1.808765e+02
  -5.623554e+02  -2.255065e+02
  -3.057168e+02  -3.454453e+02
   3.777616e+02  -2.079200e+02
   4.472279e+02   8.434504e+01
   2.153723e+02   2.120671e+02
  -2.151095e+02   3.968083e+02
  -4.501561e+02   2.225091e+02
  -2.200895e+02  -1.087309e+02
  -1.421789e+02  -3.569365e+02
   1.912975e+01  -1.692881e+02
   4.709888e+01   1.853419e+02
  -1.319744e+02   1.360022e+02
  -1.780747e+02  -1.401440e+02
  -9.516186e+01  -5.409513e+02
   2.528535e+02  -5.046843e+02
   4.104766e+02  -2.639108e+01
   1.737848e+02   4.815904e+02
  -1.766199e+02   2.668026e+02
  -1.947480e+02  -2.639389e+02
   8.229993e+01  -4.548539e+02
   4.361853e+02  -7.660432e+01
   4.923706e+02   3.855769e+02
   1.112189e+02   5.436130e+02
  -2.993871e+02   2.543294e+02
  -5.125495e+02  -9.823074e+01
  -2.613340e+02  -3.065808e+02
   9.648758e+01  -2.231795e+02
   2.403060e+02   2.224012e+00
   1.311056e+02   1.157848e+02
  -6.250565e+01   6.179620e+01
  -7.399877e+01  -1.069546e+02
   1.761730e+02  -1.613498e+02
   3.170547e+02   2.432575e+01
   1.392341e+02   1.857344e+02
  -1.744078e+02   2.415155e+02
  -3.040164e+02   9.756373e+01
  -2.199405e+02  -4.977684e+01
   5.733348e+01  -2.432712e+02
   3.147429e+02  -2.734409e+02
   3.155728e+02  -1.324164e+02
   1.829792e+02   1.929636e+02
   5.226396e+01   4.023676e+02
  -8.795713e+01   3.446060e+02
  -8.199339e+01   1.304780e+02
  -4.857506e+01   3.802964e+01
  -1.145430e+02   1.346891e+02
  -2.510237e+02   1.022622e+02
  -2.767185e+02  -1.089422e+02
  -1.193597e+02  -2.499644e+02
   7.408841e+01  -1.769854e+02
   1.829592e+02   3.140564e+01
   1.048258e+02   1.952230e+02
  -8.498891e+01   2.405469e+02
  -2.499462e+02   8.395097e+01
  -3.151980e+02  -1.446843e+02
  -1.416392e+02  -3.158798e+02
   8.287880e+01  -2.740115e+02
   1.449538e+02  -1.658276e+02
   1.317369e+02  -4.429177e+01
   1.108970e+02  -2.661582e+01
   2.692354e+02  -7.664130e+01
   4.270360e+02   9.670597e+01
   3.399953e+02   2.949656e+02
   6.481012e+00   4.383146e+02
  -3.923472e+02   3.517401e+02
  -4.669675e+02   1.760190e+02
  -3.169469e+02  -4.637169e+01
  -1.691942e+01  -2.428333e+02
   7.288142e+01  -1.509331e+02
   4.139492e+01  -1.779221e+01
  -1.218424e+02   7.636763e+01
  -1.975748e+02  -5.435524e+01
  -2.838456e+01  -1.678998e+02
   1.221663e+02  -1.314112e+02
   1.482113e+02   4.711326e+01
  -7.139449e+01   1.534703e+02
  -1.952038e+02  -1.368620e+01
  -1.346838e+02  -2.099361e+02
   4.298681e+01  -3.547664e+02
   2.553561e+02  -2.093379e+02
   3.474803e+02   5.621020e+01
   2.699185e+02   2.430183e+02
   5.092667e+01   2.620187e+02
  -1.133515e+02   1.566687e+02
  -1.294059e+02   2.643354e+01
  -3.518261e+01  -3.404577e+01
   6.969458e+01   9.555779e+01
  -2.558475e+01   1.559897e+02
  -1.987625e+02   8.719563e+01
  -1.624032e+02  -3.168607e+01
   2.049611e+01  -8.878490e+01
   8.547373e+01  -1.698432e+00
   2.026516e+01   8.170423e+01
  -1.887593e+02   8.372955e+01
  -3.365378e+02  -7.661616e+00
  -2.664233e+02  -1.269102e+02
  -1.589626e+00  -2.849225e+02
   2.078334e+02  -2.488417e+02
   2.625334e+02  -8.417997e+01
   1.137203e+02   4.199232e+01
  -5.724176e+01   4.743524e+01
  -6.572749e+01  -4.833875e+01
   7.573540e+01  -1.339956e+02
   2.198119e+02  -6.141857e+01
   1.915274e+02   1.498523e+02
   4.050782e+01   2.181262e+02
  -1.227069e+02   1.393533e+02
  -1.161504e+02   5.911836e+00
  -4.665813e+01  -4.349914e+01
   2.830230e+01   6.774670e+00
   4.624394e+01   1.057442e+02
  -9.947315e+01   1.214099e+02
  -1.909170e+02   8.133137e+00
  -1.621540e+02  -1.490899e+02
  -1.365717e+01  -2.104803e+02
   1.601303e+02  -1.025212e+02
   1.942302e+02  -2.231729e+01
   9.080858e+01   1.158310e+02
  -5.339133e+01   9.278154e+01
  -7.410138e+01   3.071016e+01
  -4.435704e+01  -1.303266e+01
   2.905932e+01  -4.154663e+00
   8.138146e+00   9.827261e+00
  -9.642430e+01  -2.844274e+01
  -1.102927e+02  -8.604358e+01
   1.665141e+01  -1.908118e+02
   2.231772e+02  -1.828072e+02
   2.563759e+02  -1.815022e+01
   1.834327e+02   1.863063e+02
  -2.133101e+01   2.796531e+02
  -1.676022e+02   1.668660e+02
  -1.307912e+02   8.727281e+00
  -6.239211e+01  -8.061858e+01
  -7.231375e+00  -7.158495e+01
  -8.661888e+01   9.708771e+00
  -3.734669e+01   1.735128e+01
  -6.488373e+01  -5.424431e+01
   8.506412e+01  -1.145661e+02
   1.408178e+02  -4.726914e+01
   1.037829e+02   6.433874e+01
  -5.908826e+01   1.573163e+02
  -1.713685e+02   8.403778e+01
  -2.110049e+02  -5.606759e+01
  -1.048404e+02  -2.544867e+02
   1.207879e+02  -2.320866e+02
   2.638444e+02  -6.973632e+01
   2.786834e+02   1.281753e+02
   1.055125e+02   2.011087e+02
  -2.098619e+01   1.120151e+02
  -9.407171e+01   4.806336e+01
  -5.042891e+01   6.865650e+01
  -6.659263e+01   1.198228e+02
  -9.527715e+01   9.963767e+01
  -1.310675e+02  -1.281241e+01
  -1.113799e+02  -1.378281e+02
   6.925267e+00  -2.263272e+02
   1.441903e+02  -1.554904e+02
   1.915407e+02   1.007136e+01
   1.261530e+02   1.474640e+02
  -1.026887e+01   1.620414e+02
  -1.277596e+02   1.102425e+02
  -9.152311e+01  -2.131243e+00
   1.822231e+01  -1.136797e+02
   3.802502e+01  -4.753001e+01
   1.844517e-01   2.131500e+00
  -8.231166e+01  -3.016749e+01
  -8.462425e+01  -4.428011e+01
   4.248550e+01  -5.507495e+01
   1.640830e+02   2.252728e+00
   1.705314e+02   8.469770e+01
  -1.086807e+00   1.368850e+02
  -1.452945e+02   1.180990e+02
  -1.821807e+02   1.019665e+01
  -6.726214e+01  -8.881883e+01
   5.413562e+01  -4.811625e+01
   7.453275e+01  -5.241323e+00
   4.353989e+01   8.115793e+01
  -2.534957e+01   5.080934e+01
  -2.819073e+01   2.518530e+01
  -8.206310e+01  -3.102941e+01
  -5.404503e+01  -8.261479e+01
  -8.467741e+01  -2.790162e+00
  -5.890013e+01  -4.672710e+01
  -3.354779e+01  -5.086721e+01
   4.436133e+01  -1.230046e+02
   8.655807e+01  -1.417678e+02
   1.870197e+02  -6.178359e+01
   1.492270e+02   7.756949e+01
  -7.508148e+00   1.370808e+02
  -1.232393e+02   1.138191e+02
  -7.559517e+01  -2.011208e+01
   2.489870e+01  -1.277059e+01
   1.113849e+02   3.472976e+01
   4.446657e+01   1.000688e+02
  -6.888695e+01   1.189342e+02
  -1.971183e+02   5.157908e+01
  -1.460507e+02  -1.137783e+01
  -3.933203e+01  -9.961297e+01
   1.378322e+01  -8.920333e+01
   5.816876e+01  -2.099953e+01
  -3.837665e+01   2.621023e+01
  -7.043596e+01   1.370094e+01
  -4.073622e+01  -1.078346e+02
   8.274685e+01  -1.013665e+02
   1.240673e+02  -6.101368e+01
   1.165776e+02   8.118951e+01
   2.259850e+01   1.747360e+02
  -4.018750e+01   1.156882e+02
  -9.234388e+01   2.496636e+01
  -1.901009e+01  -9.090761e+01
   2.266460e+01  -7.583940e+01
   4.788689e+01   2.340470e+01
   7.234090e+01   5.521917e+01
  -3.007787e+01   1.590370e+01
   7.544940e+00  -4.487216e+01
   2.988927e+01   2.893651e+01
   3.360405e+01   7.614870e+01
  -1.569199e+01   9.025288e+01
  -2.561891e+01   7.484828e+01
  -1.059716e+02  -4.126159e+01
  -8.118576e+01  -6.646834e+01
  -1.128988e+01  -6.781365e+01
   4.046594e+01  -1.997905e+01
   5.463829e+01  -7.628309e+00
   1.820034e+00   1.095744e+01
  -2.715906e+01   4.490447e+01
  -6.566000e+00   2.047943e+01
  -4.110631e+01  -4.141607e+01
  -1.678509e+01  -2.099216e+01
  -7.374243e+01  -3.635004e+01
  -8.487541e+01  -5.238742e+01
  -9.161715e+00  -1.193127e+02
   1.117405e+02  -1.171087e+02
   2.079489e+02  -2.677765e+01
   1.554187e+02   1.029493e+02
   2.886352e+01   1.569682e+02
  -6.236725e+01   1.469559e+02
  -9.267540e+01   4.997440e+01
  -6.852544e+01  -9.617704e+00
  -5.959676e+01  -5.134468e+01
  -5.291729e+01   1.470212e+01
  -3.866747e+01  -4.545697e+01
  -5.358705e+01  -5.578940e+01
  -1.744487e+01  -9.284729e+01
   7.091090e+01  -4.874871e+01
   6.149667e+01   2.694540e+01
   5.393783e+01   8.253248e+01
  -4.156386e+01   6.840436e+01
  -7.510639e+01  -7.117491e+00
  -1.138628e+02  -9.685968e+01
  -1.424253e+01  -9.085830e+01
   1.002261e+02  -5.282742e+01
   9.917775e+01   3.627939e+01
   4.447360e+01   9.889344e+01
  -4.521674e+01   7.556164e+01
  -2.407828e+01   4.053922e+01
   5.343966e+01  -2.622802e+01
   7.451439e+01   2.083855e+01
   4.662470e+00   9.647989e+01
  -1.146306e+02   8.069970e+01
  -1.446367e+02   6.539609e+01
  -8.878226e+01  -5.284803e+01
  -4.883436e+00  -1.070846e+02
   4.783114e+01  -5.278702e+01
   5.970721e+00   2.184604e+01
  -6.294631e+00   6.767881e+01
  -1.801715e+01   1.510416e+01
  -3.405266e+01  -2.676843e+01
  -1.744780e+01  -8.185584e+01
   2.605761e+01  -4.144056e+01
   4.462475e+01   2.206971e+00
   2.978511e+01   5.104551e+01
   2.521734e+01   8.803135e+00
  -1.857167e+01  -2.534948e+01
   5.485984e+01  -2.073528e+01
   5.930023e+00   3.300941e+01
   8.081138e+00   5.685406e+01
  -2.987519e+01   4.387795e+01
  -2.277853e+01  -1.725456e+01
  -2.649840e+01  -2.955224e+01
   9.232139e+01   5.214940e+00
   6.544865e+01   6.401433e+01
  -1.703591e+01   7.649324e+01
  -5.125985e+01   7.413115e+01
  -8.185392e+01  -7.817096e+01
  -5.080384e+01  -1.715781e+01
   3.698067e+01  -2.191555e+01
   5.264485e+01  -1.101124e+01
  -5.732300e+00  -4.552459e+01
  -3.194650e+00  -6.383058e+00
  -9.920707e+00  -8.790168e+00
   6.513447e+01  -2.463468e+01
   5.336472e+01  -2.290114e+01
