
 $NMID
 id='ANONYMOUS ', fmtdat='(2E16.6)'
 volume=1.0
 tramp=1.0
 $END
  -4.491741e+03   9.761585e+01
  -2.423545e+03  -2.880015e+03
   9.000790e+02  -3.144964e+03
   2.502655e+03  -6.461962e+02
   8.941831e+02   1.068275e+03
  -7.333512e+02   7.350766e+02
  -9.968141e+02  -5.059981e+02
  -1.463073e+01  -1.252855e+03
   1.053174e+03  -9.321171e+02
   1.137696e+03   3.410762e+02
   6.059779e+02   1.046503e+03
  -2.720482e+02   9.031677e+02
  -7.786238e+02   1.370343e+02
  -5.382325e+02  -9.113984e+02
   4.475400e+02  -9.020719e+02
   6.905642e+02   7.235729e+01
   3.603557e+02   6.966512e+02
  -4.079235e+02   7.388604e+02
  -5.820431e+02   2.064000e+02
  -2.983092e+02  -4.678406e+02
   3.529368e+01  -5.186396e+02
   4.797167e+02  -3.086133e+02
   1.677285e+02   1.094633e+02
  -5.257986e+00   2.313016e+02
  -3.452642e+02  -2.175955e+01
  -2.305617e+02  -4.846184e+02
   4.778448e+02  -4.310982e+02
   1.036919e+03   9.855528e+01
   4.591687e+02   6.523212e+02
  -4.538922e+02   4.405547e+02
  -9.146823e+02   5.236082e+01
  -3.600297e+02  -6.191729e+02
   4.110354e+02  -4.889324e+02
   6.810215e+02  -2.965294e+02
   4.713143e+02   4.084082e+02
   5.957282e+01   4.596632e+02
  -2.112128e+02   2.407498e+02
  -2.459052e+02  -3.240979e+02
   1.691766e+02  -4.636527e+02
   5.496743e+02   4.995549e+01
   3.086015e+02   7.152071e+02
  -4.103071e+02   7.238808e+02
  -6.519659e+02  -9.244412e+00
  -2.368710e+02  -6.037708e+02
   3.881821e+02  -3.669721e+02
   4.482709e+02   3.166553e+02
  -1.193153e+02   5.662616e+02
  -5.829251e+02   1.433685e+02
  -6.120051e+02  -4.245998e+02
  -1.683668e+02  -5.948818e+02
   3.747167e+02  -3.279774e+02
   6.721276e+02   7.427349e+01
   4.265682e+02   4.258724e+02
  -1.835218e+02   3.822979e+02
  -5.400419e+02   4.979058e+01
  -2.611376e+02  -2.125947e+02
   1.842631e+02  -1.552808e+02
   1.913184e+02   1.772354e+02
  -2.259038e+02   2.748916e+02
  -4.206565e+02  -1.629894e+01
  -1.885330e+02  -3.441118e+02
   2.085824e+02  -2.847846e+02
   3.508521e+02  -3.129984e+01
   2.062505e+02   7.002593e+01
  -7.398065e+01   1.572285e+02
  -2.056426e+02   2.818384e+02
  -3.203461e+02   2.237600e+02
  -3.087809e+02  -1.494956e+02
  -9.576279e+01  -4.410359e+02
   1.414195e+02  -3.554418e+02
   1.898436e+02  -1.206781e+02
   1.243602e+01   3.276964e+01
   8.429956e+00  -8.758186e+01
   1.650375e+02  -1.125735e+02
   2.915756e+02   8.699798e+01
   1.825934e+02   2.817881e+02
  -1.202445e+02   2.833280e+02
  -2.877714e+02   2.889181e+01
  -2.042479e+02  -2.103861e+02
   2.338111e+01  -3.244993e+02
   2.837716e+02  -1.688425e+02
   3.829213e+02   1.560921e+02
   2.039767e+02   3.671987e+02
  -7.709590e+01   3.902330e+02
  -2.416879e+02   1.859828e+02
  -1.439596e+02   2.367642e+00
  -1.374254e+02   1.946922e+01
  -2.520265e+02   4.055253e+01
  -3.811271e+02  -7.010416e+01
  -3.533870e+02  -3.084169e+02
  -4.456653e+01  -4.816326e+02
   3.082208e+02  -4.229288e+02
   4.735798e+02  -2.027141e+02
   3.430862e+02   8.137821e+01
   1.162431e+02   3.322608e+02
  -1.639991e+02   3.122750e+02
  -1.272207e+02   5.064054e+01
   6.681894e+01  -1.329862e+02
   2.367971e+02  -1.433174e+01
   5.093455e+01   2.362186e+02
  -1.585704e+02   2.199342e+02
  -1.740129e+02   4.645018e-01
  -6.958914e+00  -1.670790e+02
   2.105150e+02  -3.509740e+01
   1.903548e+02   2.418622e+02
  -2.935947e+01   3.526493e+02
  -2.207648e+02   2.059095e+02
  -3.121179e+02  -7.066636e+01
  -2.328103e+02  -1.950071e+02
  -8.551089e+01  -2.139297e+02
   1.017316e+02  -1.609048e+02
   1.718542e+02  -2.914719e+01
   3.909852e+01   7.006466e+01
  -1.183548e+02  -4.209699e+01
  -2.356231e+01  -9.566842e+01
   1.215562e+02  -9.648625e+01
   1.595391e+02  -5.870370e+00
   5.332348e+01   6.220256e+01
  -4.701399e+01   2.509545e+01
  -5.957459e+01  -6.333632e+01
   7.195056e+01  -8.986700e+01
   2.599096e+02  -3.725106e+01
   2.760498e+02   1.325194e+02
   9.562247e+01   2.482595e+02
  -1.358630e+02   2.491701e+02
  -2.934634e+02   1.237627e+02
  -1.601146e+02  -8.664266e+01
   3.440924e+01  -1.261021e+02
   7.685762e+01  -1.969727e+01
  -5.750295e+01   9.564451e+01
  -1.906055e+02   7.930818e+01
  -2.086343e+02  -1.183786e+02
  -3.104602e+01  -1.716905e+02
   5.205499e+01  -1.342150e+02
   9.028943e+01  -3.057491e+01
   4.466401e+01   3.278655e+01
   2.416062e+01  -6.114827e+00
  -1.503558e+01  -5.342913e+01
   7.924494e+01  -8.829402e+01
   2.172508e+02  -1.205013e+01
   2.131800e+02   8.461009e+01
   5.591262e+01   2.308500e+02
  -1.591257e+02   1.524203e+02
  -2.253605e+02   2.891849e+01
  -8.708235e+01  -1.088820e+02
   8.342521e+01  -1.159573e+02
   1.045699e+02  -2.793536e+00
   3.323475e+01   4.014140e+01
  -2.969685e+01   2.835451e+01
  -1.176154e+01  -4.142685e+01
   6.231568e+01  -6.673746e-02
   7.944160e+01   3.159173e+01
   6.186979e+00   1.409084e+02
  -8.654945e+01   1.515743e+02
  -2.345589e+02   2.906010e+01
  -2.063404e+02  -1.251254e+02
  -3.572028e+01  -2.392159e+02
   8.325023e+01  -1.980938e+02
   1.107448e+02  -2.888535e+01
   1.065203e+02   9.183210e+01
   1.088703e+01   3.209078e+01
   7.567108e+01  -2.391811e+01
   8.556872e+01   6.842964e+00
  -4.561275e+01   3.545680e+01
  -7.412012e+00   6.571851e+01
  -4.826876e+01   4.033352e+01
  -4.604097e+01  -5.147845e+01
   1.244527e+01  -1.193334e+02
   9.885757e+01  -6.837966e+01
   1.915625e+02   5.558339e+01
   1.279491e+02   2.055399e+02
  -9.716033e+01   2.523062e+02
  -2.629765e+02   8.763286e+01
  -2.745976e+02  -6.250164e+01
  -1.210209e+02  -1.990796e+02
   5.940187e+01  -1.919152e+02
   9.761845e+01  -1.143568e+02
   9.556363e+01  -4.570126e+01
   1.191010e+02  -6.679421e+01
   8.592393e+01  -7.707903e+01
   9.862482e+01  -1.413848e+01
   5.681127e+01   1.424133e+02
   2.387518e+01   2.135923e+02
  -9.259173e+01   1.785632e+02
  -1.420147e+02   5.811662e+01
  -1.371617e+02  -9.917577e+01
  -5.424794e+01  -1.854310e+02
   8.217294e+01  -9.725283e+01
   9.944070e+01  -8.867918e+00
   2.301062e+01   6.331245e+01
   1.276432e+01   3.780931e+01
   5.388849e+01  -9.718122e+00
   4.336060e+01  -2.023186e+00
   7.238585e+01   1.951455e+01
  -5.491257e+01   6.019271e+01
  -1.727048e+02   2.757225e+01
  -1.306839e+02  -2.382916e+01
  -4.907277e+01  -4.081227e+01
   9.339076e+01  -8.179170e+01
   1.706566e+02  -3.935159e+01
   8.174587e+01   9.590755e+00
  -1.056117e+02   7.313202e+01
  -1.101421e+02  -1.260720e+01
  -5.107010e+01  -6.955001e+01
   4.127861e+01  -5.818216e+01
   1.967714e+01  -3.217892e+01
  -7.616732e-01   3.704381e+01
   5.762057e+01   3.241855e+01
   7.236025e+01   1.017659e+01
   9.657415e+01  -2.217410e+01
   2.983180e+01   5.515999e+01
  -3.952637e+01   1.533524e+02
  -9.724978e+01   1.811001e+02
  -1.209266e+02   4.115032e+01
  -1.223849e+02  -1.178399e+02
  -3.443243e+01  -1.573956e+02
   5.369084e+01  -2.919534e+01
   5.668612e+01   8.697835e+01
  -1.000800e+02   3.952941e+01
  -1.566729e+02  -2.821506e+01
  -9.456337e+01  -1.216799e+02
   8.318803e+01  -1.646277e+02
   2.249571e+02  -6.630690e+01
   1.554426e+02   1.742727e+01
   3.931972e+01   8.409124e+01
  -9.707701e+01   5.127380e+01
  -3.479061e+01   1.748655e+01
   5.620185e+01  -1.336126e+00
   8.967383e+01   1.053753e+01
   9.013530e+00   1.127908e+02
  -1.355495e+02   1.399260e+02
  -1.604268e+02   4.198742e+01
  -1.425768e+02  -1.212249e+02
   2.370986e+00  -2.265623e+02
   1.054102e+02  -1.510461e+02
   1.086991e+02  -2.772193e+01
   5.399658e+01   1.942409e+02
   1.167953e+01   9.007548e+01
  -1.187311e+01  -1.349478e-01
  -4.347671e+01  -3.767177e+00
  -2.384750e+01  -3.411771e+00
  -1.901597e+01   5.937439e+01
  -2.410110e+01   3.622233e+01
  -1.093589e+02  -9.812212e+01
  -5.594001e+01  -1.005988e+02
   3.554427e+01  -4.125329e+01
   1.150545e+02   2.903582e+01
   1.377250e+02   1.403413e+02
   2.028564e+01   3.177903e+01
  -4.426767e+01   5.381534e+00
  -8.109123e+01   1.341276e+01
   2.487775e+01  -1.869702e+01
   5.387623e+01  -5.643795e+01
   2.120069e+00  -2.851240e+01
  -2.375670e+01  -2.727639e+00
  -3.297681e+01   5.463315e+01
   6.323462e+01   7.312450e+01
   7.015386e+01   3.897020e+01
   3.321417e+01   8.612495e+01
  -1.104328e+02   1.256455e+02
  -1.788492e+02   5.266511e+01
  -1.062692e+02  -7.973313e+01
  -3.631822e+01  -1.681425e+02
   6.288551e+01  -1.323126e+02
   1.021710e+02  -7.369950e+01
   7.526880e+01   5.584527e+01
   5.091275e+01   3.202193e+01
  -2.989577e+01   3.563847e+01
   5.348505e+00   2.110500e+01
   3.564616e+01   3.903186e+01
   3.746314e+01   1.251763e+02
  -1.972252e+01   1.115005e+02
  -7.277774e+01  -3.501659e+01
  -5.659742e+01  -1.307824e+02
   1.891181e+01  -1.357961e+02
   6.287362e+01  -1.079231e+01
   1.063552e+02   7.139564e+01
   3.529867e+01   1.115720e+02
  -7.321667e+01   6.640155e+01
  -9.549731e+01  -1.640359e+01
  -4.039891e+01  -6.228565e+01
   6.034576e+01  -4.030460e+01
   7.727443e+01   9.438872e+00
  -2.131765e+01  -3.897974e+00
  -5.813847e+01   1.675572e+01
  -4.101679e+01  -2.756535e+01
   1.047373e+02  -9.074967e+01
   1.368605e+02  -3.904904e+01
   6.043645e+00   6.994409e+00
  -1.201777e+01   1.100313e+02
  -2.143256e+01   8.408624e+01
  -6.954213e-01   1.713121e+01
   8.479715e+00  -5.230756e+01
   4.296804e+01  -5.109208e+01
  -2.098152e+00   4.947341e+01
  -1.708423e+01   3.376886e+00
  -1.891171e+01   1.236209e+01
   2.527210e+00  -3.409195e+01
  -1.018312e+00  -2.238299e+01
   2.458963e+00   5.976743e+01
   3.125557e+01   3.316566e+01
  -1.119985e+01  -4.599137e+01
  -1.629248e+01  -8.448684e+01
   2.567873e+01  -9.241449e+01
   5.622705e+01  -1.543286e+01
   1.994619e+01   5.903580e+01
  -2.325353e+01   7.473954e+01
  -4.028011e+01  -1.160029e+00
  -4.851881e+01  -4.273341e+01
   8.195153e+00  -6.216150e+01
   8.799680e+01  -6.382557e+01
   7.769366e+01   5.210132e+00
   7.674582e+01   3.229392e+01
  -2.808176e+01   8.548829e+01
  -5.107818e+01   5.665393e+01
  -5.250878e+01  -5.226048e+00
   1.026603e+00   1.480781e+01
   3.086917e+01   2.815151e+01
  -4.821161e+01   1.764570e+01
  -8.341681e+01  -4.002359e+00
