
 $NMID
 id='ANONYMOUS ', fmtdat='(2E16.6)'
 volume=1.0
 tramp=1.0
 $END
  -4.590742e+03  -8.094893e+01
  -2.651235e+03  -2.656398e+03
   8.170768e+02  -2.762145e+03
   2.081256e+03  -1.155884e+03
   1.042495e+03   6.646339e+02
  -6.778404e+02   5.642843e+02
  -1.016328e+03  -4.389164e+02
  -7.792233e+01  -1.009990e+03
   8.607437e+02  -7.330521e+02
   1.110966e+03   1.164145e+01
   5.358418e+02   8.445239e+02
  -2.243924e+02   1.060013e+03
  -6.602386e+02   7.174697e+01
  -5.252421e+02  -6.362453e+02
   2.802985e+02  -8.192416e+02
   5.539229e+02   3.963293e+01
   2.829874e+02   8.456157e+02
  -3.588971e+02   7.439023e+02
  -8.046501e+02   1.083269e+02
  -5.724456e+02  -3.174186e+02
   1.810277e+01  -4.034073e+02
   2.797034e+02  -2.315822e+02
   2.497851e+02   5.616141e+01
  -3.122470e+02   1.565308e+02
  -4.161326e+02  -3.419341e+02
  -3.115515e+02  -4.974418e+02
   5.760122e+02  -5.151424e+02
   8.173254e+02  -1.459913e+02
   4.748250e+02   6.198278e+02
  -3.966670e+02   5.095704e+02
  -8.227104e+02   3.523124e+00
  -3.958656e+02  -4.774741e+02
   2.745528e+02  -5.283043e+02
   4.978552e+02  -1.602251e+02
   4.210309e+02   3.340585e+02
  -8.752695e-01   4.906074e+02
  -2.781274e+02   3.177986e+02
  -2.033402e+02  -2.275523e+02
   1.203704e+02  -5.894968e+02
   5.662581e+02   6.936446e+01
   3.075389e+02   6.895615e+02
  -2.707312e+02   7.937226e+02
  -6.945173e+02   5.121602e+00
  -2.893169e+02  -6.470896e+02
   2.577039e+02  -3.942010e+02
   4.787756e+02   3.622342e+02
  -5.513394e+01   6.680742e+02
  -6.180155e+02   1.712232e+02
  -6.477476e+02  -4.828425e+02
  -1.036820e+02  -6.512535e+02
   4.342726e+02  -2.933796e+02
   6.268181e+02   1.143054e+02
   3.196387e+02   4.072454e+02
  -2.187247e+02   3.384457e+02
  -4.703250e+02   1.649304e+01
  -2.034856e+02  -2.218250e+02
   2.106023e+02  -1.272937e+02
   2.058076e+02   1.753884e+02
  -2.013623e+02   2.680539e+02
  -4.324365e+02  -3.935512e+01
  -2.140616e+02  -3.355379e+02
   1.982562e+02  -2.966592e+02
   3.793157e+02  -9.752922e+01
   1.494495e+02   4.892890e+01
  -5.239144e+01   1.842020e+02
  -1.592260e+02   2.908103e+02
  -2.848748e+02   2.263719e+02
  -2.278420e+02  -9.679124e+01
  -7.240823e+01  -4.499389e+02
   1.296156e+02  -3.454088e+02
   1.329744e+02  -5.756084e+01
   4.119712e+01   5.418896e+01
   6.169379e+01  -6.460619e+01
   1.761720e+02  -1.492377e+02
   2.757222e+02   6.072947e+01
   1.151481e+02   2.723882e+02
  -6.378297e+01   2.949565e+02
  -2.137307e+02   1.612715e+01
  -1.748923e+02  -2.621889e+02
  -3.916104e+01  -2.562103e+02
   2.386740e+02  -1.377198e+02
   4.034885e+02   1.890511e+02
   2.171219e+02   3.664806e+02
  -8.738493e+01   3.472090e+02
  -2.251505e+02   1.330711e+02
  -1.504081e+02  -1.283409e+01
  -6.260865e+01   1.682722e+01
  -1.841184e+02   6.750712e+01
  -4.533695e+02  -5.382541e+01
  -4.148761e+02  -2.728931e+02
  -1.671538e+01  -4.625209e+02
   3.607523e+02  -4.283336e+02
   5.576701e+02  -2.156847e+02
   3.790436e+02   5.972383e+01
   6.131308e+01   3.314038e+02
  -1.410720e+02   2.528730e+02
  -8.711347e+01   2.350662e+01
   1.530747e+02  -1.081159e+02
   2.826508e+02   1.496555e+01
   8.737198e+01   2.475518e+02
  -1.664743e+02   1.872951e+02
  -2.022526e+02  -8.045592e+01
   5.738356e+01  -2.165390e+02
   1.982976e+02  -3.532145e+01
   1.414473e+02   3.165657e+02
  -5.317616e+01   3.605144e+02
  -2.180192e+02   1.900363e+02
  -3.347909e+02  -5.498252e+01
  -2.674373e+02  -2.334379e+02
  -1.068802e+02  -2.717673e+02
   9.241760e+01  -1.956364e+02
   2.110595e+02  -4.791860e+01
   6.305104e+01   4.536839e+01
  -9.861278e+01  -1.637269e+01
  -1.469394e+01  -1.196394e+02
   1.579517e+02  -1.411434e+02
   1.978425e+02  -1.594720e+00
   7.622212e+01   5.603015e+01
  -8.632332e+01   5.827373e+01
  -7.237459e+01  -4.622199e+01
   9.783519e+01  -9.027987e+01
   2.529278e+02  -4.815302e+00
   3.020168e+02   1.345712e+02
   6.850514e+01   2.532401e+02
  -1.523881e+02   2.982178e+02
  -3.112710e+02   1.523960e+02
  -2.087402e+02  -4.998335e+01
   2.100706e+01  -1.134673e+02
   5.760242e+01  -4.098893e+01
  -1.798088e+01   1.046899e+02
  -1.647420e+02   7.031071e+01
  -2.051089e+02  -8.216969e+01
  -6.435489e+01  -2.041576e+02
   6.676445e+01  -2.116023e+02
   1.310807e+02  -2.944800e+01
   1.108396e+02   4.847878e+01
   1.178774e+01   3.892019e+01
  -5.665548e+01  -1.104888e+02
   2.643462e+01  -1.279275e+02
   2.004436e+02  -4.122249e+01
   2.267697e+02   1.507163e+02
   2.362559e+01   2.356555e+02
  -1.519296e+02   1.815604e+02
  -2.118090e+02  -2.140369e+01
  -9.946304e+01  -1.030759e+02
   9.961782e+01  -7.786496e+01
   7.066522e+01  -3.500733e+01
   1.461635e+01   1.436692e+01
   7.871266e+00  -1.737186e+01
   1.281081e+00  -4.152604e+01
   1.003543e+02   3.796310e+00
   1.007173e+02   9.902002e+01
  -1.846237e+01   1.638020e+02
  -1.360707e+02   1.464087e+02
  -2.039957e+02   2.078377e+01
  -1.677169e+02  -1.826232e+02
  -5.090749e+01  -2.520722e+02
   1.434508e+02  -2.075449e+02
   1.291139e+02  -1.057378e+01
   7.044304e+01   3.030448e+01
   2.591480e+01   2.673692e+01
   4.517860e+01   1.740591e+01
   9.004814e+01  -1.098360e+01
   5.384218e+01   7.344081e+01
  -4.478161e+01   8.796761e+01
  -1.255597e+02   3.724106e+01
  -7.673076e+01  -3.223764e+01
   3.034237e+01  -1.118759e+02
   1.345682e+02  -1.027061e+02
   2.319150e+02   4.473462e+01
   7.440426e+01   1.706734e+02
  -7.073678e+01   2.287454e+02
  -2.526009e+02   1.530567e+02
  -2.376052e+02  -7.805732e+01
  -1.565541e+02  -1.255564e+02
   2.236063e-01  -1.348645e+02
   8.421200e+01  -9.067488e+01
   9.090312e+01  -1.004074e+02
   6.583327e+01  -1.280238e+02
   1.094315e+02  -2.178974e+01
   1.473660e+02   3.044588e+01
   9.114122e+01   1.717626e+02
  -1.982522e+01   2.281273e+02
  -1.151377e+02   1.838168e+02
  -1.787192e+02   5.168310e+01
  -1.275668e+02  -7.738864e+01
  -1.365589e+00  -1.555367e+02
   7.039338e+01  -1.040698e+02
   7.508982e+01  -1.588318e+01
   2.855768e+01  -2.290662e+00
   5.281055e+00   3.231266e+01
   4.467725e+01   2.005232e+01
   4.433446e+01   2.027461e+01
   3.862206e+01   2.686201e+01
  -3.133923e+01   4.414158e+01
  -1.641344e+02  -3.388376e+00
  -1.561299e+02  -6.113360e+01
  -1.038877e+01  -6.770823e+01
   1.149513e+02  -5.055827e+01
   1.142395e+02   1.307886e+01
   4.278424e+01   3.149099e+01
  -4.958731e+01   5.801776e+01
  -4.485626e+01  -1.695169e+01
   1.263574e+01  -7.563551e+01
   2.148653e+01  -5.352766e+01
   4.935427e+01   6.463048e+00
   2.230561e+01   2.400961e+01
   4.021618e+01   2.016583e+01
   6.622314e+00  -1.901311e+01
   5.973515e+01  -4.380422e+01
   2.092669e+01   4.076767e+01
  -4.024003e+01   1.342765e+02
  -1.166130e+02   1.209238e+02
  -1.506577e+02   3.348795e+01
  -1.243393e+02  -6.763777e+01
   2.401229e+01  -1.104876e+02
   9.799706e+01  -5.263028e+01
   3.885610e+01   4.942785e+01
  -5.730755e+01   9.947407e+00
  -1.189968e+02  -3.085625e+01
  -4.878636e+01  -1.328977e+02
   1.002346e+02  -1.054556e+02
   1.651559e+02  -3.804156e+01
   1.284301e+02   4.344788e+01
   3.187662e+01   1.106593e+02
  -7.969327e+01   5.997644e+01
  -3.004891e+01   8.201700e+00
   3.981927e+01  -2.937603e+01
   1.251936e+02   4.513167e+01
   4.178447e+01   9.587096e+01
  -1.140857e+02   1.425876e+02
  -1.664205e+02   1.010324e+02
  -1.581558e+02  -8.616780e+01
   1.976820e+01  -2.108417e+02
   1.031059e+02  -1.122818e+02
   7.574010e+01   1.495769e+01
   4.563724e+01   1.048730e+02
  -1.371489e+01   1.136355e+02
  -5.925192e+01   1.371245e+01
  -4.267069e+01  -3.610537e+01
  -3.327202e+01  -4.308101e+00
  -1.066710e+01  -2.392042e+01
   1.121337e+01  -4.345842e+01
  -2.761673e+01  -8.730934e+01
  -1.091496e+01  -1.164735e+02
   2.853644e+01  -1.862246e+01
   1.330864e+02   3.656611e+01
   1.436505e+02   7.563540e+01
   2.039870e+00   3.525523e+01
  -1.247676e+02   1.942291e+01
  -9.134931e+01   1.897859e+01
  -1.446714e+01   3.936763e+00
   8.740824e+01  -7.196686e+00
  -7.487646e-01  -2.790357e+01
  -5.517530e+01  -3.023322e+01
  -1.883439e+01  -8.730114e+00
   5.111499e+01   3.525378e+00
   1.210054e+02  -9.839107e+00
   4.434120e+00   7.126978e+01
  -1.180138e+02   1.281914e+02
  -1.902512e+02   4.759804e+01
  -1.610995e+02  -6.588263e+01
  -3.922296e+01  -1.830134e+02
   9.368843e+01  -1.647920e+02
   1.032670e+02  -4.851107e+01
   1.110617e+02   4.018399e+01
   7.867391e+00   3.444109e+01
   2.454623e+01   6.018930e+00
   4.563461e+01  -4.863387e+00
   6.858183e+01   5.922722e+01
   1.715560e+01   8.823660e+01
  -3.927718e+01   1.096040e+02
  -5.326229e+01  -6.413984e+00
  -7.351080e+01  -9.202659e+01
   2.300054e+01  -9.046300e+01
   4.276869e+01  -1.291294e+01
   1.056421e+02   7.892326e+01
   4.276156e+01   1.361044e+02
  -8.152449e+01   7.770675e+01
  -1.303822e+02   6.655688e+00
  -1.267875e+02  -4.067299e+01
   3.918902e+01  -5.487956e+01
   1.476042e+01  -4.223114e+01
  -1.528572e+01  -2.164865e+01
  -6.589653e+01  -5.170340e+01
   2.635650e+01  -5.975306e+01
   6.192681e+01  -6.224056e+01
   1.246636e+02  -1.784494e+01
   3.054923e+01   1.768511e+01
  -2.628567e+01   8.771441e+01
  -2.995102e+01   1.033546e+02
  -6.533900e+00   3.490282e+01
   2.345469e+01  -2.101870e+01
   8.158645e+00  -4.099501e+01
   1.778727e+01   1.039022e+01
   2.224881e+01   5.308250e+01
   2.428113e+01   4.837329e+01
  -1.004322e+01  -3.548593e+01
  -1.752364e+01  -2.045782e+01
  -9.384215e+00   5.251651e-01
  -3.690270e+01   4.734814e+00
   5.354680e+00  -2.141619e+01
   2.812489e+01  -5.255938e+01
   2.996069e+01  -7.187541e+01
   5.143669e+01  -1.300159e+01
   2.480645e+01   8.637963e+01
   1.815031e+00   5.556653e+01
  -3.861816e+01  -4.599440e+00
  -7.975988e+01  -3.571749e+01
  -2.329022e+01  -8.005081e+01
   7.997947e+01  -5.767761e+01
   5.255370e+01   1.933695e+01
   7.873993e+01   3.078131e+01
  -4.043553e+01   2.267625e+01
  -1.079654e+02   1.479627e+01
  -3.960736e+00   1.647364e+00
   6.663521e+00   1.844660e+01
   4.274419e+01  -5.027702e+00
  -3.905653e+01   1.838090e+01
  -7.921507e+01   7.913143e+00
