
 $NMID
 id='ANONYMOUS ', fmtdat='(2E16.6)'
 volume=1.0
 tramp=1.0
 $END
  -4.161289e+03   3.337710e+01
  -2.621145e+03  -2.398735e+03
   3.591208e+02  -3.152092e+03
   2.004901e+03  -1.204149e+03
   8.206014e+02   6.328111e+02
  -4.785492e+02   4.364072e+02
  -7.012788e+02  -2.644512e+02
  -3.306364e+01  -1.021502e+03
   5.852586e+02  -7.763783e+02
   8.054071e+02  -1.182040e+02
   5.480407e+02   7.879081e+02
   1.614393e+02   8.929407e+02
  -6.883297e+02   1.993070e+02
  -5.672392e+02  -7.145058e+02
   2.768387e+02  -7.508880e+02
   5.512249e+02  -3.353434e+01
   3.074203e+02   6.689573e+02
  -2.592913e+02   7.687920e+02
  -6.976362e+02   2.596889e+02
  -3.508883e+02  -3.688586e+02
  -4.973493e+01  -3.749337e+02
   2.333161e+02  -6.872568e+01
   9.364880e+01   1.977516e+01
  -2.066901e+02   1.241384e+02
  -3.802994e+02   3.576536e+01
  -8.892671e+01  -5.451060e+02
   6.159917e+02  -4.615719e+02
   7.520034e+02   1.205476e+02
   4.777337e+02   5.353506e+02
  -3.170201e+02   3.581859e+02
  -6.236814e+02  -3.798907e+01
  -3.361998e+02  -4.007276e+02
   2.962597e+02  -4.887970e+02
   5.850196e+02  -7.308166e+01
   3.807206e+02   3.529517e+02
   1.800660e+02   4.991315e+02
  -1.853300e+02   2.161730e+02
  -7.934625e+01  -1.663666e+02
   1.951277e+02  -3.667388e+02
   4.972528e+02  -3.225651e+01
   2.362954e+02   6.868257e+02
  -3.139295e+02   7.024746e+02
  -6.175306e+02  -3.680786e+01
  -2.641227e+02  -5.651890e+02
   3.746760e+02  -2.814727e+02
   4.228744e+02   3.582643e+02
  -4.546603e+01   5.435516e+02
  -6.206372e+02   7.131380e+01
  -5.911176e+02  -4.032783e+02
  -1.422207e+02  -5.048522e+02
   3.555433e+02  -2.355749e+02
   5.758843e+02   1.024676e+02
   3.988275e+02   3.464738e+02
  -1.391518e+02   3.334561e+02
  -5.046344e+02   2.274123e+01
  -2.825989e+02  -1.933868e+02
   1.075681e+02  -1.387045e+02
   2.180014e+02   1.368041e+02
  -1.467241e+02   2.044288e+02
  -3.512817e+02  -3.010047e+01
  -1.176247e+02  -2.545455e+02
   2.131555e+02  -2.643861e+02
   3.359717e+02  -1.064731e+02
   1.578135e+02   1.129564e+01
  -2.440102e+01   2.685391e+02
  -2.054873e+02   3.585634e+02
  -3.263595e+02   2.671359e+02
  -2.772438e+02  -1.139349e+02
  -9.641790e+01  -4.641625e+02
   9.251203e+01  -3.656701e+02
   2.522300e+01  -1.367775e+02
   3.817849e+00  -1.881673e+01
   7.133236e+01  -1.106860e+02
   2.382953e+02  -1.102465e+02
   3.046853e+02   7.538174e+01
   1.834947e+02   2.546246e+02
  -5.697608e+01   1.568949e+02
  -1.983825e+02  -2.686706e+01
  -1.766080e+02  -1.995122e+02
   2.356020e+01  -2.771510e+02
   2.973819e+02  -7.700460e+01
   3.740237e+02   1.767710e+02
   1.566619e+02   3.990578e+02
  -1.125585e+02   3.254237e+02
  -2.792078e+02   1.204960e+02
  -1.892002e+02   2.179340e+01
  -1.217991e+02  -1.445316e+01
  -1.897631e+02   7.137610e+01
  -3.310541e+02  -9.067983e+01
  -3.352257e+02  -2.460000e+02
   5.512081e+00  -4.467010e+02
   3.794769e+02  -4.291146e+02
   4.879480e+02  -2.249474e+02
   3.613615e+02   4.635731e+01
   9.162255e+01   2.979732e+02
  -6.078480e+01   2.667685e+02
  -7.494371e+01   6.100801e+01
   1.020951e+02  -7.036601e+01
   1.970253e+02  -2.200814e+00
   8.265022e+01   1.931641e+02
  -1.405494e+02   1.738746e+02
  -1.681552e+02  -6.020725e+01
  -1.428529e+01  -2.113730e+02
   1.837951e+02  -5.849984e+01
   1.783843e+02   2.058186e+02
  -8.326049e+00   3.885007e+02
  -2.276430e+02   2.025502e+02
  -3.672008e+02  -3.882940e+01
  -3.026622e+02  -2.588169e+02
  -7.716606e+01  -2.750858e+02
   1.206586e+02  -1.429014e+02
   1.945131e+02   2.379119e+01
  -1.294801e+01   8.403330e+01
  -1.243387e+02  -2.692193e+01
  -2.085983e+01  -1.155514e+02
   1.882273e+02  -6.658321e+01
   1.853799e+02   2.369121e+01
   1.149745e+01   9.998156e+01
  -8.583481e+01   1.235690e+01
  -7.471946e+01  -6.602712e+01
   1.474280e+02  -9.851263e+01
   3.287476e+02   2.612510e+01
   2.555740e+02   1.535991e+02
   9.331246e+01   3.326193e+02
  -2.281626e+02   3.010639e+02
  -2.773412e+02   1.425278e+02
  -1.537849e+02  -2.458258e+01
   1.387658e+01  -6.118129e+01
   8.961317e+01   1.005364e+01
  -2.836811e+01   1.047514e+02
  -1.875230e+02   7.041639e+01
  -2.175912e+02  -1.195104e+02
  -6.458747e+01  -1.887122e+02
   1.047375e+02  -1.256792e+02
   1.072369e+02  -5.585245e+01
   9.385370e+01   2.556488e+01
  -2.008992e+01  -3.162478e+01
  -1.205463e+01  -1.362982e+02
   1.110139e+02  -1.156920e+02
   1.912689e+02  -9.446258e+00
   1.978898e+02   1.072293e+02
   1.513177e+01   2.001222e+02
  -2.061016e+02   1.561560e+02
  -1.745815e+02  -3.599746e+01
  -2.532766e+01  -1.193446e+02
   8.525730e+01  -1.364403e+02
   5.782521e+01  -6.425020e+00
  -1.727915e+01   2.611741e+01
  -5.796405e+01   5.098603e+01
   2.157954e+00   6.195841e+00
   6.385952e+01   1.733782e+01
   9.430632e+01   1.077291e+02
   1.675734e+01   1.413580e+02
  -1.340539e+02   2.067001e+02
  -2.959270e+02   3.482439e+01
  -2.093681e+02  -1.354247e+02
  -7.018152e+00  -2.606020e+02
   1.022175e+02  -1.684044e+02
   1.498008e+02  -2.635096e+01
   4.041044e+01   3.980335e+01
   2.823821e+01   4.223219e+01
   7.439601e+01  -2.715948e+01
   5.262765e+01   6.949436e+00
   6.078099e+01   2.591182e+01
  -1.312554e+01   5.862772e+01
  -9.027234e+01   3.617997e+01
  -6.640196e+01  -6.909047e+01
   2.548769e+01  -1.591457e+02
   1.751402e+02  -9.655773e+01
   2.276999e+02   7.419153e+01
   7.759791e+01   2.164124e+02
  -1.422417e+02   2.720984e+02
  -3.022389e+02   1.287393e+02
  -2.487106e+02  -1.041856e+02
  -1.400586e+02  -1.595655e+02
   3.798742e+01  -1.668327e+02
   6.717366e+01  -7.317743e+01
   4.882416e+01  -7.178008e+01
   9.921089e+01  -1.035066e+02
   7.214531e+01  -8.246917e+01
   1.297988e+02   1.820872e+01
   1.488481e+02   1.837049e+02
   3.876612e+01   2.245071e+02
  -1.103178e+02   2.071006e+02
  -1.844681e+02   4.576221e+01
  -1.608742e+02  -1.256391e+02
  -1.796071e+01  -1.644106e+02
   8.298680e+01  -1.993503e+02
   6.412328e+01  -1.332421e+01
  -1.220781e+01   1.938291e+01
   6.993836e+00   5.033291e+01
   3.173041e+01   3.695046e+01
   9.936906e+01   5.356964e+01
   7.731371e+01   4.346729e+01
  -8.796621e+01   1.182290e+01
  -2.082863e+02  -2.501570e+01
  -2.148682e+02  -3.198999e+01
  -2.188561e+00  -1.280304e+02
   1.099670e+02  -1.355363e+02
   1.748866e+02  -2.847527e+01
   6.377321e+01   8.819095e+01
  -7.241829e+01   6.622813e+01
  -6.903117e+01  -6.523188e+00
  -9.177066e+00  -9.734926e+01
   3.686885e+01  -8.183714e+01
   5.294830e+01   1.195071e+01
   3.590007e+01   7.759710e+01
   1.512802e+01   4.804708e+01
   5.031580e+01   1.792696e+01
   4.057110e+01  -3.026519e+00
   5.492412e+01   5.900765e+01
  -7.631979e-01   1.346632e+02
  -6.728155e+01   1.912017e+02
  -1.793680e+02   6.939945e+01
  -9.848053e+01  -4.628996e+01
   1.561485e+01  -1.197645e+02
   5.673998e+01  -6.222738e+01
   4.327301e+01   2.899942e+00
  -3.264504e+01   1.850833e+01
  -1.368929e+02  -5.336664e+01
  -6.871098e+01  -1.101349e+02
   9.547437e+01  -1.305397e+02
   1.999857e+02  -6.587959e+01
   2.051141e+02   1.875572e+01
   2.661616e+01   7.398793e+01
  -9.498848e+01   7.722723e+01
  -6.452018e+01   1.616091e+01
   4.906085e+01  -4.387107e+01
   7.731646e+01   2.425831e+01
   4.278520e+01   1.133577e+02
  -6.012399e+01   1.625525e+02
  -1.914728e+02   1.072441e+02
  -1.172123e+02  -9.474006e+01
  -6.459294e+01  -1.898294e+02
   1.174666e+02  -1.284559e+02
   1.347634e+02   1.587578e+01
   3.140882e+01   1.173909e+02
  -1.583820e+01   8.283697e+01
  -5.011519e+01   1.248330e+01
  -1.091556e+02  -8.411040e+01
   4.689392e+00  -6.295948e+00
   1.387845e+01   9.403955e+00
   1.541730e+01  -3.538100e+01
  -1.349738e+01  -7.339829e+01
  -6.456895e+01  -1.324609e+02
   6.805747e+01  -8.237722e+01
   1.423332e+02   5.654514e+01
   1.365779e+02   8.570801e+01
   6.605460e+00   8.125387e+01
  -1.073814e+02   4.910985e+01
  -9.408078e+01   2.989818e+01
  -9.750131e+00   9.126870e+00
   2.769604e+01  -7.534321e+01
   2.668465e+01  -2.719382e+01
  -1.847662e+01  -5.260997e+01
   4.554628e+00  -3.135181e+01
   9.734128e+01  -1.661477e+00
   1.024980e+02  -1.031732e+00
   8.500872e+00   5.033144e+01
  -1.047203e+02   1.034526e+02
  -1.898637e+02   3.242781e+01
  -1.641579e+02  -7.822315e+01
  -6.161978e+01  -1.161300e+02
   3.681772e+01  -1.469655e+02
   1.134442e+02  -8.984722e+01
   9.083021e+01  -1.772832e+00
   2.354379e+01   4.048038e+01
   2.640023e+01   2.293798e+01
   2.794061e+01   4.141294e+01
   5.125323e+01   4.111564e+01
   1.685207e+00   1.477241e+02
  -2.894301e-01   1.200150e+02
  -7.837471e+01  -5.016886e+01
  -8.654063e+01  -1.419199e+02
   8.187919e+00  -1.181628e+02
   8.926902e+01  -2.942036e+01
   1.016990e+02   8.585799e+01
   5.983434e+01   1.003233e+02
  -5.929188e+01   7.046986e+01
  -1.555877e+02  -2.531413e+01
  -5.533743e+01  -4.340675e+01
  -1.340509e-01  -7.080133e+01
   7.752622e+01  -3.152347e+01
  -3.137585e+01  -2.090086e+01
  -8.386961e+01  -2.346872e+01
  -3.194664e+01  -2.732841e+01
   1.031152e+02  -1.045017e+02
   1.438058e+02  -7.827279e+01
   1.018712e+02   3.534688e+01
  -1.504028e+01   1.176042e+02
  -6.236861e+01   1.306692e+02
  -9.243662e+01   8.707989e+01
   2.680288e+01  -8.012525e+01
   2.161995e+01  -5.795390e+01
   3.619846e+01   1.460768e+00
   6.656950e+01   8.558775e+01
  -1.703354e+00   2.509359e+01
  -2.754735e+01  -9.246031e+00
  -7.365714e+01  -4.481582e+01
  -3.255527e+01  -2.039538e+01
   2.677225e+01  -1.729598e+00
   2.964745e+01   2.852409e+00
   4.458922e+01  -3.566694e+01
   3.638750e+01  -3.824671e+01
   6.924863e+00  -4.327736e+01
   5.023668e+01   1.922105e+01
  -1.955931e+01   4.044082e+01
  -4.208898e+01  -1.597296e+01
  -1.525780e+01  -4.061338e+01
  -4.455406e+01  -7.845825e+01
   6.742422e+01  -3.564038e+01
   8.685717e+01   2.641191e+01
   3.997240e+01   4.169670e+01
  -5.001573e+01   5.902969e+01
  -6.320941e+01  -8.643801e+00
  -6.252613e+01   3.568541e+01
   4.630975e+01   3.165278e+01
   5.911919e+01   7.986975e+00
  -5.548619e+01   3.141629e+01
  -8.232050e+01   5.544299e+01
