
 $NMID
 id='ANONYMOUS ', fmtdat='(2E16.6)'
 volume=1.0
 tramp=1.0
 $END
  -4.350542e+03  -8.325150e+00
  -2.391261e+03  -2.507278e+03
   4.991236e+02  -3.031593e+03
   2.143847e+03  -1.015923e+03
   8.834512e+02   7.426900e+02
  -7.867114e+02   6.886810e+02
  -1.029217e+03  -3.370058e+02
   4.213200e+01  -1.083412e+03
   7.710426e+02  -7.358435e+02
   1.012684e+03   1.117235e+01
   3.608069e+02   7.964842e+02
  -1.069579e+02   9.142795e+02
  -6.290010e+02   1.763614e+02
  -4.082193e+02  -7.745749e+02
   3.739289e+02  -7.576949e+02
   5.864041e+02  -4.801837e+01
   2.839757e+02   5.943211e+02
  -2.545405e+02   7.294509e+02
  -7.670685e+02   2.200682e+01
  -3.441117e+02  -3.532151e+02
  -7.674323e+01  -4.619004e+02
   3.441559e+02  -4.215025e+02
   3.563497e+02   8.760780e+01
  -5.669903e+01   1.687476e+02
  -3.639653e+02  -2.078815e+02
  -4.002291e+02  -5.779145e+02
   5.646435e+02  -4.260160e+02
   9.384883e+02  -3.039776e+01
   5.669377e+02   6.039880e+02
  -3.678329e+02   4.809194e+02
  -7.234099e+02   5.363151e+01
  -3.815318e+02  -4.181264e+02
   1.625931e+02  -5.200880e+02
   5.704386e+02  -2.237459e+02
   4.125974e+02   2.145988e+02
   1.498119e+02   4.465788e+02
  -2.375054e+02   3.090334e+02
  -1.346935e+02  -2.913364e+02
   1.698458e+02  -4.715969e+02
   5.701581e+02   4.988538e+01
   2.946885e+02   6.685520e+02
  -2.826083e+02   6.207202e+02
  -5.484083e+02   1.951752e+01
  -2.467398e+02  -5.415524e+02
   3.609777e+02  -3.190275e+02
   3.709772e+02   4.139740e+02
  -9.831126e+01   5.584518e+02
  -5.449633e+02   1.243607e+02
  -5.823614e+02  -4.030202e+02
  -1.183436e+02  -6.359937e+02
   3.887049e+02  -2.653668e+02
   6.339722e+02   1.478985e+02
   3.139486e+02   4.116348e+02
  -1.792565e+02   3.581588e+02
  -4.474761e+02   3.325553e+01
  -2.236989e+02  -2.377619e+02
   1.614947e+02  -1.269092e+02
   1.824672e+02   1.661757e+02
  -2.132915e+02   2.463309e+02
  -3.822704e+02  -9.531555e+00
  -2.229526e+02  -2.801740e+02
   2.149719e+02  -3.360407e+02
   3.556047e+02  -6.563841e+01
   2.054913e+02   7.214483e+01
  -8.239454e+01   2.126270e+02
  -2.482279e+02   3.397833e+02
  -3.296618e+02   2.089182e+02
  -2.845633e+02  -1.114232e+02
  -8.022665e+01  -4.223218e+02
   6.126607e+01  -4.169583e+02
   1.057194e+02  -1.165021e+02
   2.402232e+01   2.472831e+01
   1.933280e+01  -6.990236e+01
   1.426489e+02  -1.780446e+02
   2.611593e+02   3.089167e+01
   1.475316e+02   2.229318e+02
  -4.274402e+01   2.826866e+02
  -2.226481e+02  -1.811575e+01
  -2.008750e+02  -2.714299e+02
   1.651585e+01  -3.328755e+02
   3.078741e+02  -1.148796e+02
   3.895048e+02   1.920296e+02
   1.660498e+02   4.006821e+02
  -1.258275e+02   3.447983e+02
  -2.481403e+02   1.297024e+02
  -1.357417e+02   1.123204e+01
  -1.097187e+02  -1.149667e+01
  -2.516508e+02   7.873151e+01
  -4.443734e+02  -7.963747e+01
  -3.666672e+02  -2.788688e+02
   2.177995e+00  -4.824489e+02
   3.735595e+02  -4.390575e+02
   5.507963e+02  -2.130239e+02
   3.391734e+02   1.145297e+02
   6.668934e+01   2.951299e+02
  -1.502462e+02   2.778919e+02
  -9.163534e+01   2.032251e+01
   1.145066e+02  -1.107035e+02
   1.860136e+02   2.909676e+01
   8.892717e+01   2.021918e+02
  -1.971690e+02   1.414681e+02
  -1.921259e+02  -9.242395e+01
   3.206942e+01  -2.169929e+02
   2.310415e+02  -6.309281e+01
   2.095242e+02   2.417037e+02
  -5.633671e+01   3.965408e+02
  -2.434024e+02   2.413496e+02
  -3.496197e+02  -4.479547e+01
  -2.738915e+02  -2.597113e+02
  -9.342961e+01  -2.904488e+02
   7.360503e+01  -1.647743e+02
   1.527604e+02  -1.815314e+01
   6.286784e+01   4.998634e+01
  -4.887211e+01  -9.837021e+01
  -2.017973e+01  -1.869780e+02
   1.117531e+02  -6.670552e+01
   1.949652e+02   4.508764e+01
   2.103973e+01   9.596906e+01
  -1.456534e+02   2.439585e+01
  -7.144814e+01  -6.551251e+01
   1.011397e+02  -1.156670e+02
   2.825989e+02  -1.616979e+01
   2.626933e+02   1.018383e+02
   6.626654e+01   2.566232e+02
  -1.324657e+02   2.495482e+02
  -2.582929e+02   1.446519e+02
  -1.944974e+02  -5.520071e+01
  -2.684371e+00  -1.153900e+02
   1.003111e+02   3.799399e+01
  -2.569160e+01   1.479760e+02
  -1.900579e+02   8.451682e+01
  -2.297459e+02  -1.545329e+02
  -8.752847e+01  -2.129305e+02
   9.636171e+01  -1.727305e+02
   1.518351e+02  -2.524073e+01
   6.859301e+01   3.769139e+01
  -8.028734e+00  -6.722086e+00
  -2.488254e+01  -9.080638e+01
   4.523671e+01  -1.088221e+02
   1.845210e+02  -5.272864e+01
   2.310223e+02   1.050217e+02
   7.578741e+01   1.889956e+02
  -6.539054e+01   2.001332e+02
  -2.341531e+02   3.949318e+01
  -6.348556e+01  -1.083089e+02
   3.990781e+01  -1.209751e+02
   1.316824e+02  -5.034636e+01
   3.650956e+01   3.770557e+01
  -1.345426e+01   1.336501e+01
  -4.032828e+01   2.574358e+01
   4.375412e+01   4.932705e+01
   1.043372e+02   6.251148e+01
   9.366827e+00   1.194289e+02
  -1.564216e+02   1.381479e+02
  -2.447844e+02  -1.571623e+01
  -2.052331e+02  -1.435820e+02
  -5.046698e+01  -2.056364e+02
   1.239991e+02  -1.472511e+02
   1.426942e+02  -4.975129e+01
   7.424229e+01   6.903775e+01
  -1.765984e+01   1.794530e+00
   3.593163e+01  -3.025276e+01
   6.279762e+01  -3.750051e+01
   3.862661e+01   4.894483e+01
  -5.549874e+01   7.533630e+01
  -8.942339e+01   5.283198e+01
  -4.896234e+01  -5.645189e+00
   6.575402e+01  -9.406151e+01
   1.389223e+02  -4.883043e+01
   1.742860e+02   4.430777e+01
   6.543500e+01   2.132753e+02
  -1.150078e+02   1.808796e+02
  -2.526830e+02   8.333074e+01
  -2.160257e+02  -7.198793e+01
  -1.109044e+02  -1.887338e+02
   4.016631e+01  -1.352907e+02
   9.641427e+01  -8.481894e+01
   6.658017e+01  -9.526509e+01
   4.812097e+01  -1.192284e+02
   1.264136e+02  -9.124566e+01
   1.186866e+02   2.788309e+01
   1.277033e+02   1.331748e+02
   5.868797e+01   2.262877e+02
  -8.981907e+01   1.605613e+02
  -2.038311e+02  -1.612884e+01
  -1.311346e+02  -1.397499e+02
  -7.418557e+00  -1.539400e+02
   8.726437e+01  -9.677356e+01
   4.919288e+01   5.183458e+00
   5.149029e+00   4.464679e+01
  -6.303914e+00   1.504985e+01
   1.938742e+01   6.044660e+01
   3.897053e+01   4.988408e+01
   4.592020e+01   1.287045e+01
  -1.064056e+02   2.038539e+01
  -1.774291e+02   1.183143e+01
  -1.315625e+02  -3.365806e+01
  -9.030703e+00  -6.780857e+01
   8.313483e+01  -7.033861e+01
   1.395191e+02  -3.415043e+01
   4.675710e+01   3.955079e+01
  -8.090825e+01   5.027722e+01
  -3.613606e+01   7.538983e+00
  -5.232038e+00  -5.866491e+01
   8.503811e+00  -3.952876e+01
  -1.897738e-01  -5.030645e-01
   8.111216e+01   4.043844e+01
   7.356541e+01   5.142279e+01
   9.028117e+01  -9.334660e+00
   8.343421e+01  -9.758873e+00
   6.331637e+01   5.800060e+01
  -2.203259e+01   1.896795e+02
  -9.016434e+01   1.702493e+02
  -1.438802e+02   7.714183e+01
  -1.834420e+02  -9.751843e+01
  -3.361089e+01  -1.153376e+02
   8.813631e+01  -5.616169e+01
   4.641866e+01  -7.718314e+00
  -6.375102e+01   1.006292e+01
  -1.813102e+02  -3.930485e+01
  -9.076652e+01  -1.435049e+02
   9.368836e+01  -1.174349e+02
   1.988876e+02  -4.725449e+01
   1.855973e+02   6.051038e+00
   2.453218e+01   6.786091e+01
  -4.971502e+01   5.996334e+01
  -4.368230e+01   2.550919e+00
   6.455461e+01  -2.239585e+01
   5.817473e+01   6.789994e+01
   4.271425e+01   1.382263e+02
  -5.637623e+01   1.745925e+02
  -1.681414e+02   6.091472e+01
  -1.371942e+02  -8.101139e+01
  -1.816312e+01  -2.083968e+02
   4.827896e+01  -1.575010e+02
   9.754273e+01   1.887396e+01
   5.500563e+01   1.290572e+02
  -4.225301e+00   1.018154e+02
  -2.823526e+01   5.510857e+01
  -1.974205e+01  -5.153783e+01
   6.329165e+00  -1.546819e+01
   5.971433e+00   4.710800e+01
  -4.693277e+01   4.375814e+00
  -6.224324e+01  -6.912907e+01
  -2.205965e+01  -8.916836e+01
   7.166679e+01  -4.854104e+01
   1.490731e+02   2.931905e+01
   1.355111e+02   5.258059e+01
   2.989789e+01   3.372096e+01
  -9.390840e+01   3.731705e+01
  -9.195371e+01  -1.238837e+01
  -6.166887e+00  -1.622844e+01
   8.947923e+01  -4.820327e+00
   4.042707e+01  -3.884862e+01
  -1.595003e+01   1.714947e+01
   3.840353e+01  -4.254307e+00
   8.740153e+01  -3.378317e+01
   1.159083e+02  -3.359987e+01
   6.544514e+00   1.060240e+02
  -1.254131e+02   1.341083e+02
  -1.912392e+02   1.074035e+02
  -1.466702e+02  -4.266404e+01
  -4.858793e+01  -2.068655e+02
   4.573421e+01  -2.089550e+02
   1.144550e+02  -7.607494e+01
   7.989349e+01   3.240295e+01
   5.971687e+01   8.961034e+01
  -3.301252e+01   4.036888e+01
  -1.251710e+01  -2.235497e+00
  -1.369298e+01   6.149099e+01
   3.437533e+01   7.414228e+01
  -3.722913e+01   5.470733e+01
  -4.138021e+01  -3.583505e+01
  -7.705787e+01  -6.673484e+01
  -2.757580e-01  -1.062780e+02
   5.535626e+01  -1.430995e+01
   6.547180e+01   7.787281e+01
  -9.614967e+00   1.036594e+02
  -2.412058e+01   1.554612e+01
  -3.546316e+01  -1.316980e+01
   6.267358e+00  -6.684084e+01
   4.454300e+01  -3.270202e+01
   4.648091e+01   5.462339e+00
  -3.597103e+01   1.317346e+01
  -1.235951e+02   8.257861e+00
  -2.649341e+01  -6.942228e-02
   5.926025e+01  -6.011392e+01
   1.103567e+02  -5.827407e+01
   6.224009e+01   7.268905e+00
  -1.001003e+01   5.970766e+01
  -5.340399e+01   4.715044e+01
  -2.755089e+01  -3.620556e+01
  -2.717311e+00  -4.422052e+01
   5.429291e+01  -3.992794e+01
   1.667192e+01   3.928805e+01
   4.703137e+01   8.810042e+01
  -9.799608e+00   5.203171e+01
  -7.522544e+01   2.457214e+01
  -8.477432e+01  -4.405257e+00
  -5.516294e+00  -8.215331e+00
   1.823089e+01   9.508647e+00
   1.572792e+01  -1.739551e+01
  -1.879940e+01  -5.320324e+01
   2.198933e+01  -3.559051e+01
  -3.599426e-03   7.771583e+00
   1.762592e+01   2.342930e+01
   1.821348e+01   4.576514e+01
  -8.694912e+01   2.903956e+01
  -3.084267e+01  -2.256566e+01
   1.716759e+01  -5.038198e+01
   8.325349e+01  -5.426189e+01
   5.418368e+01   1.059369e+01
   3.886918e+01   3.996400e+01
  -1.459875e+01   2.507673e+01
  -2.397614e+01   1.035906e+01
   3.007854e+01   2.656650e+01
   4.244935e+01   2.924946e+01
   2.506055e+01   2.352357e+01
  -6.187190e+01   7.020563e+01
  -8.440756e+01   1.939490e+01
