
 $NMID
 id='ANONYMOUS ', fmtdat='(2E16.6)'
 volume=1.0
 tramp=1.0
 $END
   4.401890e+03  -1.881438e+02
   2.669032e+03   2.767226e+03
  -8.374193e+02   2.629917e+03
  -2.123722e+03   8.809936e+02
  -9.514485e+02  -7.131616e+02
   7.880880e+02  -6.059177e+02
   9.243479e+02   5.635316e+02
  -1.617296e+02   9.937402e+02
  -9.449029e+02   9.603700e+02
  -9.026607e+02   9.568145e+01
  -5.505614e+02  -8.639074e+02
   3.622579e+02  -1.023337e+03
   6.512640e+02  -5.999578e+01
   4.685891e+02   7.272152e+02
  -3.257005e+02   8.253784e+02
  -7.173099e+02   7.116961e+01
  -2.396051e+02  -9.555451e+02
   3.115805e+02  -6.661738e+02
   6.083895e+02  -1.764924e+01
   4.144830e+02   5.010365e+02
  -1.505588e+01   4.001410e+02
  -2.289330e+02   4.082247e+02
  -1.517251e+02  -1.238828e+02
   2.017173e+02  -1.790554e+02
   5.079953e+02   3.249626e+01
   2.655602e+02   4.935574e+02
  -5.889596e+02   3.676339e+02
  -9.525405e+02   3.028878e+00
  -5.552306e+02  -6.286947e+02
   4.813950e+02  -5.798658e+02
   8.187325e+02   2.394340e+01
   2.941788e+02   4.978991e+02
  -3.487606e+02   5.561073e+02
  -6.330475e+02   1.442966e+02
  -3.682043e+02  -2.873247e+02
  -3.351156e+01  -5.559386e+02
   2.548935e+02  -3.227459e+02
   1.996947e+02   3.228364e+02
  -1.416546e+02   5.488172e+02
  -5.312549e+02  -9.264838e+00
  -3.152363e+02  -7.769971e+02
   3.646247e+02  -7.481091e+02
   6.408683e+02  -5.264619e+01
   2.528669e+02   6.102948e+02
  -3.465934e+02   3.347666e+02
  -4.234930e+02  -3.819271e+02
   8.423605e+01  -6.568286e+02
   6.215131e+02  -1.635581e+02
   6.571898e+02   4.317229e+02
   1.567557e+02   6.749823e+02
  -4.154684e+02   3.906683e+02
  -6.928753e+02  -7.590884e+01
  -4.035357e+02  -4.302666e+02
   1.417840e+02  -3.772071e+02
   4.587660e+02  -9.712079e+01
   2.603541e+02   1.609401e+02
  -1.247837e+02   1.092201e+02
  -1.392439e+02  -1.605122e+02
   1.745872e+02  -1.951836e+02
   3.647498e+02   4.886928e+01
   1.429682e+02   3.257959e+02
  -2.121960e+02   2.333507e+02
  -3.328423e+02   6.697836e+01
  -1.833633e+02  -1.353382e+02
   9.759153e+01  -2.352702e+02
   2.366424e+02  -3.218140e+02
   3.571624e+02  -1.790973e+02
   2.762826e+02   1.592745e+02
   9.414113e+01   4.837943e+02
  -1.461534e+02   3.694784e+02
  -1.491315e+02   1.427816e+02
  -4.157882e+01   1.216533e+01
  -2.633063e+01   8.698207e+01
  -2.123180e+02   1.426563e+02
  -3.511844e+02  -4.159364e+01
  -2.120211e+02  -3.267308e+02
   4.814220e+01  -3.163553e+02
   2.932329e+02  -3.926305e+01
   2.633887e+02   2.714930e+02
   1.182600e+01   3.291686e+02
  -2.910313e+02   1.407242e+02
  -3.955030e+02  -1.741267e+02
  -2.274906e+02  -3.869870e+02
   1.136785e+02  -3.138604e+02
   2.313810e+02  -1.155555e+02
   1.339521e+02  -7.357337e+00
   1.011263e+02  -5.538694e+00
   2.649628e+02  -9.264235e+01
   4.119707e+02   7.946227e+01
   3.346668e+02   2.468798e+02
  -3.886000e+01   4.554483e+02
  -3.539402e+02   3.964827e+02
  -4.991487e+02   2.394124e+02
  -2.959959e+02  -8.282598e+01
  -4.521454e+01  -3.261008e+02
   1.165980e+02  -2.481941e+02
   1.205686e+02  -1.243770e+01
  -1.424077e+02   1.473260e+02
  -1.862143e+02  -5.631967e+00
  -1.153994e+02  -1.381932e+02
   1.351377e+02  -1.561462e+02
   1.957100e+02   1.271944e+01
  -1.260125e+01   1.554616e+02
  -2.276055e+02   6.137989e+00
  -2.027370e+02  -2.432811e+02
   5.904097e+01  -3.741624e+02
   2.561039e+02  -1.806407e+02
   3.719072e+02   4.951355e+01
   2.916029e+02   2.486407e+02
   8.284546e+01   3.000817e+02
  -1.588323e+02   1.793008e+02
  -2.022396e+02   1.172338e+01
  -9.373009e+01  -5.100849e+01
   9.523832e+01   3.896630e+01
   3.585427e+01   1.188750e+02
  -1.626110e+02   8.598264e+01
  -1.797565e+02  -5.643673e+01
  -6.047291e+01  -1.126733e+02
   8.971569e+01   1.350431e+01
   1.024624e+02   1.245112e+02
  -9.348791e+01   1.685559e+02
  -3.295270e+02  -4.079483e+01
  -2.641792e+02  -1.481888e+02
  -8.417228e+01  -2.916501e+02
   1.746583e+02  -2.602607e+02
   2.654507e+02  -1.407340e+02
   1.332966e+02   1.525415e+01
   2.227290e+01   1.022332e+02
  -8.530762e+01   2.566499e+01
   5.235757e+01  -9.277079e+01
   2.204498e+02  -9.798652e+01
   2.357627e+02   1.079015e+02
   7.394330e+01   2.395950e+02
  -9.013165e+01   1.917893e+02
  -1.393440e+02   6.497324e+01
  -8.344784e+01  -5.562938e+01
  -2.108538e+01  -1.425938e+01
   2.750872e+01   2.337959e+01
  -9.976489e+01   1.161695e+02
  -1.597053e+02   1.722072e+01
  -1.828439e+02  -1.319396e+02
  -1.789115e+01  -1.993693e+02
   1.633896e+02  -1.601082e+02
   1.998919e+02   1.234158e+01
   8.726677e+01   1.122359e+02
  -4.631257e+01   1.091394e+02
  -1.210419e+02   2.951579e+01
  -2.622989e+01  -4.038603e+01
   3.432166e+01  -1.709361e+01
  -4.271136e+01   7.165258e+01
  -1.241285e+02   5.045399e+00
  -1.041236e+02  -5.120312e+01
   4.532019e+00  -1.674036e+02
   1.301536e+02  -1.667819e+02
   2.155280e+02  -3.515744e+01
   1.414413e+02   1.348294e+02
   1.036530e+00   2.483928e+02
  -1.255480e+02   1.776387e+02
  -1.489516e+02   1.523324e+01
  -6.403202e+01  -8.900761e+01
  -7.334500e+01  -1.005747e+02
  -3.168282e+01  -4.971464e+00
  -5.021285e+01   1.067112e+01
   1.353314e+01  -2.671075e+01
   4.857425e+01  -5.935241e+01
   9.542713e+01  -3.868646e+01
   7.406245e+01   1.773176e+01
  -9.482259e-01   1.397993e+02
  -1.466538e+02   1.034564e+02
  -2.069434e+02  -4.926395e+01
  -1.050016e+02  -1.887052e+02
   4.860262e+01  -2.644652e+02
   3.007486e+02  -8.793475e+01
   2.313831e+02   7.005265e+01
   1.336297e+02   1.985396e+02
  -3.264306e+01   1.769684e+02
  -1.325062e+02   1.025934e+02
  -8.097473e+01   2.988544e+00
  -8.806576e+01   1.057363e+02
  -1.105827e+02   5.441092e+01
  -9.617566e+01  -3.113964e+01
  -1.062753e+02  -1.550946e+02
  -2.697700e+01  -2.153538e+02
   1.260352e+02  -1.815721e+02
   1.761753e+02  -5.293995e+01
   1.543792e+02   1.596863e+02
  -5.253170e+00   2.001935e+02
  -4.793080e+01   1.310138e+02
  -8.604657e+01   1.841831e+01
  -3.883700e+01  -3.516569e+01
   4.478576e+00  -4.539978e+01
  -5.814878e+01  -4.777111e+01
  -8.114436e+01  -3.586014e+01
  -7.380414e+01   9.853750e+00
   6.231294e+01  -2.658656e+01
   1.613160e+02  -1.218558e+01
   1.350351e+02   3.650512e+01
   4.887046e-02   6.576303e+01
  -1.065292e+02   6.018161e+01
  -1.348434e+02   1.689918e+00
  -3.081847e+01  -1.835567e+01
   1.088248e+02  -5.608012e+01
   7.431100e+01   2.493748e+01
   9.462886e+00   2.329336e+01
  -7.355380e+01   7.745498e+01
  -3.155616e+01  -1.723623e+01
  -2.376956e+01  -2.965696e+01
  -2.711281e+01   3.539321e+01
  -6.021355e+01  -9.480797e+00
  -5.923258e+01  -1.727902e+01
  -4.884006e+01  -8.286549e+01
   4.063048e+01  -1.566354e+02
   1.130394e+02  -1.381771e+02
   1.775919e+02  -9.865148e-02
   1.169057e+02   7.352464e+01
  -3.424160e+01   1.301554e+02
  -1.020855e+02   4.199176e+01
  -7.806658e+01   2.379205e+00
   6.216116e+01  -9.895292e+00
   1.509902e+02  -2.845497e+01
   6.779128e+01   8.670021e+01
  -6.111396e+01   1.201206e+02
  -1.837252e+02   9.776477e+01
  -1.701329e+02  -2.249813e+01
  -5.352971e+01  -9.023615e+01
   4.838177e+01  -8.927070e+01
   2.230491e+01  -2.300297e+01
  -5.833445e+01   2.926011e+01
  -6.160861e+01  -1.354087e+01
  -2.775611e+01  -1.097411e+02
   1.105373e+02  -1.657797e+02
   1.890241e+02  -4.444028e+01
   1.083863e+02   1.077643e+02
   4.561636e+01   2.087117e+02
  -9.076950e+01   1.109344e+02
  -1.338313e+02   4.725192e+01
  -9.635695e+01  -1.033624e+02
  -3.654058e+01  -9.327163e+01
   5.603622e+01  -3.381152e+01
   2.252873e+01  -3.199055e+00
   4.449045e+01  -3.234932e+00
   3.982064e+01  -5.528907e+01
   7.384300e+01   1.169522e+01
   8.266547e+01   1.216765e+02
   1.541517e+01   1.078669e+02
  -7.905541e+01   4.887742e+01
  -1.478973e+02  -2.685320e+01
  -1.419058e+02  -7.857001e+01
  -6.657570e+01  -7.817378e+01
   5.087834e+01  -1.898403e+01
   1.134383e+02  -4.224427e+01
   4.017249e+01  -7.203136e+00
  -1.426569e+01   4.384002e-01
  -1.205681e+01   3.651306e+00
   1.624046e+01   3.512756e+01
  -1.682425e+01   4.746551e+00
  -6.474889e+01   3.993760e+01
  -1.212550e+02  -5.635637e+01
  -1.454284e+01  -1.067736e+02
   4.808018e+01  -1.724317e+02
   2.060733e+02  -2.146608e-01
   1.510289e+02   5.831966e+01
   2.059381e+01   1.081613e+02
  -4.375369e+01   1.186256e+02
  -7.146686e+01   5.285061e+01
  -8.743803e+01   2.801357e+01
  -1.927527e+01  -9.261713e+00
  -1.186953e+01  -2.338477e+01
  -5.948817e+01   3.475687e+00
  -4.190527e+01  -6.711271e+01
  -7.535302e+01  -9.176812e+01
   4.403680e+01  -8.661431e+01
   1.263421e+02   1.482876e+01
   1.236436e+02   5.411174e+01
   8.520683e+00   9.832237e+01
  -6.293317e+01   4.077502e+01
  -1.043545e+02  -6.046423e+01
  -3.463203e+01  -1.089723e+02
   3.991918e+01  -3.649901e+01
   6.778253e+01   2.655663e+01
   5.453088e+01   4.369228e+01
  -8.248085e+00   6.336300e+01
  -7.628764e+01   2.549754e+01
   1.682024e+01  -6.090628e+00
   3.720305e+01  -3.296855e+01
   8.307272e+00  -1.204264e+01
  -2.629399e+01   4.487702e+01
  -3.125126e+01   6.189217e+01
  -8.835784e+01  -2.612915e+01
   4.643558e+00  -3.777390e+01
   2.151725e+01  -6.637948e+01
   4.008160e+01   2.393800e+01
   5.956952e+00   2.710633e+01
   6.252820e+00   6.200387e+01
   1.532095e+01   1.629699e+01
  -5.381518e+01  -3.091372e+01
   8.565027e+00  -1.604679e+01
  -8.122546e+00   2.023716e+01
  -3.602610e+00  -3.603355e+01
   1.097924e+01   1.716780e+01
   1.237153e+01  -1.660005e+01
   5.200210e+00   2.258108e+01
   1.638128e+01   5.049905e+01
  -2.673775e+01   2.742294e+01
  -2.238371e+01   1.331124e+01
  -2.046967e+01  -6.243153e+01
   3.469511e+01  -9.188005e+01
   4.517726e+01  -5.372455e+01
   6.412103e+01   5.670563e+01
  -6.608502e-01   7.030414e+01
  -4.038018e+01   4.727128e+01
  -1.001408e+02   4.371339e+00
  -3.751316e+01  -5.198168e+01
   1.534239e+01  -1.870200e+01
   5.189868e+01  -3.214191e+01
   2.042240e+01  -3.804685e+01
  -2.967935e+01   1.898490e+01
  -4.331165e+01  -1.325452e+01
   6.052477e+01  -3.672825e+01
   1.164700e+02  -2.061142e+01
