
 $NMID
 id='ANONYMOUS ', fmtdat='(2E16.6)'
 volume=1.0
 tramp=1.0
 $END
  -3.491138e+03  -5.749503e+01
  -2.395239e+03  -2.084051e+03
   2.107152e+02  -2.368693e+03
   1.397943e+03  -1.240633e+03
   9.211567e+02  -2.912319e+02
  -1.522315e+02   3.138943e+02
  -5.706546e+02  -1.016076e+02
   3.850882e+01  -7.296151e+02
   5.853849e+02  -6.245020e+02
   7.657382e+02  -1.782904e+01
   3.238180e+02   5.051848e+02
  -5.434017e+00   7.729343e+02
  -3.597499e+02   2.538333e+02
  -3.509296e+02  -5.716483e+02
   9.891314e+01  -7.416251e+02
   6.141785e+02   1.050493e+02
   3.728743e+02   4.789404e+02
  -2.049756e+02   5.152301e+02
  -4.776958e+02   3.436472e+02
  -5.051382e+02  -2.903260e+02
  -8.741346e+01  -3.985968e+02
  -1.771809e+01  -2.549256e+02
   1.969181e+02  -8.540240e+01
  -7.269954e+01  -1.753195e+01
  -2.308420e+02  -2.101480e+02
  -4.898450e+01  -4.467836e+02
   5.097181e+02  -2.157264e+02
   5.601408e+02   2.980025e+02
   3.860902e+02   4.248907e+02
  -2.942602e+02   3.318732e+02
  -6.335050e+02  -3.644656e+01
  -3.191420e+02  -4.294614e+02
   2.090964e+02  -3.549089e+02
   4.549028e+02  -2.523236e+02
   3.755454e+02   6.302828e+01
   1.488674e+02   3.664714e+02
  -9.181842e+01   1.825988e+02
  -5.815535e+00  -1.270135e+02
   1.827174e+02  -2.691347e+02
   2.948425e+02   4.173040e+01
   1.223704e+02   5.790537e+02
  -2.491080e+02   5.783177e+02
  -4.504201e+02   7.253614e+01
  -2.172466e+02  -3.804292e+02
   1.569206e+02  -2.059343e+02
   2.625223e+02   2.028590e+02
  -5.833789e+01   4.054718e+02
  -4.781628e+02   7.981983e+01
  -5.366648e+02  -3.845889e+02
  -1.435639e+02  -5.036296e+02
   3.788680e+02  -3.150239e+02
   5.905539e+02   5.674869e+01
   3.732852e+02   3.041894e+02
  -5.087208e+01   2.932806e+02
  -3.218031e+02   8.643081e+01
  -2.338449e+02  -5.294508e+01
  -1.067302e+01   2.036289e+01
   3.143533e+01   1.233785e+02
  -1.543023e+02   1.154901e+02
  -3.028657e+02  -8.458159e+01
  -1.540853e+02  -2.600404e+02
   1.750496e+02  -2.638976e+02
   3.523859e+02  -1.347073e+02
   2.216440e+02   1.039690e+02
  -3.726758e+01   3.092789e+02
  -2.572124e+02   3.723279e+02
  -3.078836e+02   1.442100e+02
  -2.200628e+02  -1.602397e+02
  -7.246870e+01  -3.654917e+02
   4.225508e+01  -3.237071e+02
   2.377762e+01  -1.690928e+02
   5.680518e+01  -9.277998e+01
   1.423284e+02  -9.423326e+01
   2.351037e+02  -6.261153e+01
   2.076246e+02   9.365896e+01
   7.432116e+01   2.223337e+02
  -8.044024e+01   1.712643e+02
  -1.592913e+02  -2.636910e+01
  -1.128296e+02  -2.470405e+02
   2.512169e+01  -2.611141e+02
   2.535076e+02  -1.021774e+02
   3.256906e+02   1.688532e+02
   1.834505e+02   2.997435e+02
  -1.083895e+02   2.953546e+02
  -2.275682e+02   1.769660e+02
  -1.390585e+02   1.163939e+02
  -1.301624e+02   6.729761e+01
  -2.496666e+02   3.232216e+01
  -4.000942e+02  -1.528102e+02
  -3.082551e+02  -3.063060e+02
   3.304354e+01  -4.314335e+02
   3.671913e+02  -3.637191e+02
   4.771752e+02  -1.586517e+02
   3.119312e+02   1.292336e+02
   5.872380e+01   2.892088e+02
  -1.503760e+02   2.643282e+02
  -8.716349e+01  -1.846436e+00
   6.655278e+01  -1.168617e+02
   1.081538e+02  -4.980553e+01
   1.891661e+01   1.156888e+02
  -1.502917e+02   9.544506e+01
  -1.177783e+02  -4.479331e+01
   4.011671e+00  -1.286688e+02
   1.721843e+02  -1.693381e+01
   1.336298e+02   2.161666e+02
   2.303422e+00   3.265931e+02
  -2.205842e+02   2.208247e+02
  -3.881286e+02  -5.392956e+01
  -2.920742e+02  -2.150718e+02
  -8.724950e+01  -2.496945e+02
   1.454351e+02  -1.286575e+02
   1.675021e+02   2.206907e+01
  -1.008801e+00   2.542028e+01
  -8.048766e+01  -6.962573e+01
  -1.101639e+01  -1.492137e+02
   1.537371e+02  -9.994407e+01
   2.121634e+02   3.174006e+01
   9.191417e+01   1.066678e+02
  -8.407447e+01   1.891974e+01
  -6.482321e+01  -1.201943e+02
   1.363450e+02  -1.149989e+02
   2.828362e+02   1.677178e-01
   2.764324e+02   1.436015e+02
   4.091906e+01   2.919912e+02
  -2.015549e+02   2.762447e+02
  -3.126975e+02   1.423155e+02
  -1.372879e+02  -1.235042e+01
   6.885555e+01  -9.375871e+01
   6.488734e+01  -2.279008e+00
  -4.281983e+01   6.141225e+01
  -2.114110e+02   5.469702e+01
  -2.051554e+02  -1.218315e+02
  -1.948369e+01  -1.701527e+02
   1.181753e+02  -1.529824e+02
   1.378470e+02  -1.075270e+01
   5.277909e+01   4.981440e+01
   3.047182e+01   3.482517e+01
  -4.026506e+01  -9.291468e+01
   4.719118e+01  -1.018556e+02
   1.950061e+02  -2.030332e+01
   1.889041e+02   1.005810e+02
  -4.065186e+00   2.252376e+02
  -1.576241e+02   1.327209e+02
  -1.827583e+02  -1.628185e+01
  -1.004627e+02  -1.252592e+02
   1.069386e+02  -1.071309e+02
   1.112069e+02  -9.567598e+00
   2.407295e+01   3.914940e+01
  -4.485916e+00   1.724381e+01
   2.097454e+01  -1.673605e+01
   4.047028e+01   6.719623e+00
   7.185202e+01   1.099974e+02
   2.604311e+01   1.771827e+02
  -1.502143e+02   1.463603e+02
  -1.760746e+02   2.530943e+01
  -1.396677e+02  -1.308041e+02
  -1.114817e+01  -2.112681e+02
   1.075305e+02  -1.793264e+02
   1.438219e+02  -1.923137e-01
   8.894981e+01   4.996009e+01
   3.504317e+01   8.821384e+01
   4.389511e+01  -3.400598e+01
   7.660337e+01   3.376176e+01
   5.506663e+01   4.902964e+01
  -5.616323e+01   1.227842e+02
  -1.314984e+02   9.005422e+01
  -1.266658e+02  -2.898443e+01
   7.556349e+00  -1.319812e+02
   1.618990e+02  -5.681179e+01
   1.800382e+02   6.938849e+01
   5.700846e+01   1.927540e+02
  -1.179883e+02   1.906203e+02
  -2.526643e+02   5.125829e+01
  -2.204621e+02  -1.373837e+02
  -1.457333e+02  -1.613294e+02
   2.259584e+01  -1.340531e+02
   6.915324e+01  -7.542362e+01
   3.061091e+01  -7.116154e+01
   7.053113e+01  -1.191757e+02
   6.960876e+01  -1.225459e+02
   1.369547e+02  -3.242447e+01
   1.171553e+02   1.297777e+02
   4.595772e+01   1.634129e+02
  -1.123030e+02   1.591016e+02
  -1.378159e+02  -4.656545e+00
  -1.104206e+02  -1.334250e+02
   1.108467e+01  -1.891621e+02
   9.908538e+01  -9.142225e+01
   6.594184e+01   3.256934e+01
  -1.362860e+01   6.622677e+01
   8.461464e-02   9.309594e+01
   2.598635e+01   3.469873e+00
   8.265540e+01   3.317004e+01
   3.080156e+01   1.830289e+01
  -7.125627e+01   5.537096e+01
  -1.748169e+02   2.571535e+01
  -1.172760e+02  -6.054613e+00
   1.736871e+01  -7.642059e+01
   9.279983e+01  -5.191179e+01
   9.160524e+01   4.426701e+00
   3.191610e+01   2.255466e+00
  -5.579083e+01   2.547954e+01
  -6.992422e+01  -1.891104e+01
  -2.032915e+01  -5.940451e+01
   2.581798e+01  -6.029814e+01
   5.949797e+01   6.340125e+00
   7.362478e+01   4.037368e+01
   5.889499e+01   1.734812e+01
   4.762638e+01   8.230362e+00
   1.075472e+02   2.591821e+01
   3.697545e+01   4.183436e+01
  -2.566095e+01   1.962444e+02
  -1.017131e+02   1.209482e+02
  -1.536499e+02   2.320182e+01
  -9.175656e+01  -9.491469e+01
   3.845981e+01  -1.056343e+02
   9.396609e+01  -3.681273e+01
   6.074377e+01   1.487399e+01
  -4.772339e+01   8.652061e+01
  -1.526923e+02  -5.097130e+01
  -6.303185e+01  -4.717638e+01
   3.731107e+01  -7.763861e+01
   1.802877e+02  -2.991205e+01
   1.214444e+02   3.770095e+01
   3.346953e+01   7.420444e+01
  -9.491839e+01   4.272734e+01
  -3.950955e+01  -1.923683e+01
   5.292974e+01  -4.805990e+01
   1.134216e+02   1.111864e+01
   3.358562e+01   9.586104e+01
  -5.629137e+01   1.650146e+02
  -1.573849e+02   7.932771e+01
  -1.315371e+02  -7.904213e+01
  -4.246790e+00  -1.740170e+02
   4.766289e+01  -1.328894e+02
   8.329469e+01  -3.468711e+00
   9.026710e+01   9.488345e+01
  -7.940249e+00   9.723302e+01
  -6.499449e+01   1.000252e+00
  -3.046692e+01  -6.696917e+01
  -3.070612e+01  -4.427601e+01
  -2.758559e+00   2.382440e+01
  -1.087544e+00  -3.604830e+01
  -5.476537e+00  -9.856536e+01
  -5.450429e+01  -9.830801e+01
   6.180291e+01  -1.557483e+01
   1.404543e+02  -3.500099e+01
   1.090548e+02   7.103432e+01
   5.263230e+01   4.813587e+01
  -6.273960e+01   5.228069e+01
  -1.044840e+02   7.627547e+01
  -6.911455e+01   3.431957e+01
  -7.763133e-01  -5.219678e+01
  -6.181582e+00  -2.708094e+01
   7.451197e+00  -4.144300e+01
   6.150033e+01  -2.934905e+01
   3.914927e+01   3.435063e+00
   5.689614e+01   3.146969e+01
  -6.395021e+00   8.395982e+01
  -9.129786e+01   8.029417e+01
  -1.467521e+02   9.083893e+01
  -1.279592e+02  -7.876487e+01
   9.574242e+00  -1.339346e+02
   9.253547e+01  -1.094461e+02
   8.529039e+01  -2.933367e+01
   8.642728e+01   2.469783e+01
   7.170557e+00   5.373992e+01
   4.973262e+00  -6.691182e+01
  -7.564000e+00  -2.661790e+01
   5.536431e+01   5.933085e+01
  -1.646429e+01   7.306647e+01
  -2.929154e+01   3.243341e+01
  -7.174129e+01  -1.414352e+01
  -7.210057e+01  -1.285660e+02
  -2.458486e+01  -9.189684e+01
   8.717452e+01  -4.318989e+01
   1.176582e+02   7.659221e+01
   5.178269e+01   8.483642e+01
  -2.379332e+01   9.321089e+01
  -6.022247e+01   1.050383e+01
  -6.417477e+01  -5.633397e+01
   1.803426e+01  -5.511427e+01
   3.667562e+01  -3.357087e+01
  -1.572190e+01   4.512744e+01
  -3.113843e+01   3.685950e+00
  -1.375259e+01  -2.013304e+01
   5.466947e+01  -3.515363e+01
   9.214899e+01  -6.301594e+01
   1.084283e+02   2.659102e+01
  -3.109545e+00   1.015189e+02
  -6.639846e+01   9.968807e+01
  -5.320212e+01   1.679427e+01
   1.699289e+01  -2.382651e+01
  -1.499348e+01  -7.713932e+00
  -7.335485e+00   4.026112e+01
   2.205227e+01   3.846543e+01
   4.308799e-01  -1.039636e+01
  -2.188078e+01  -4.136396e+00
  -2.310364e+01  -2.213852e+01
  -4.581671e+01   6.772456e+00
  -4.034724e+00   3.717598e+01
   2.965437e+01   2.513263e+00
  -2.728715e+00   2.895293e+01
   5.919307e+00  -5.676583e+01
   7.814126e+00  -2.217521e+00
   3.615565e+00   3.852973e+01
  -4.782535e-01   3.586962e+01
  -5.758020e+01   7.456501e+00
  -6.296481e+01  -1.221176e+01
  -3.954227e+01  -7.233233e+01
   7.671567e+01  -8.244349e+01
   1.226944e+02  -1.453529e+01
   8.957852e+01   6.303420e+00
  -6.524173e+01   5.371034e+01
  -4.568077e+01   4.582750e+01
   2.724402e+01   1.217328e+01
   2.767563e+01  -6.277654e+00
   6.315127e+01  -1.868523e+01
   2.369895e+01   3.375708e+01
  -4.965368e+01   2.911586e+01
