
 $NMID
 id='ANONYMOUS ', fmtdat='(2E16.6)'
 volume=1.0
 tramp=1.0
 $END
  -4.622054e+03  -1.398151e+02
  -2.784060e+03  -2.969562e+03
   5.601611e+02  -3.162219e+03
   2.139315e+03  -1.187807e+03
   1.081574e+03   6.186097e+02
  -6.887924e+02   4.423166e+02
  -1.023894e+03  -3.968402e+02
   1.697920e+01  -1.151794e+03
   8.404440e+02  -8.825989e+02
   9.431570e+02  -9.690171e+00
   5.014301e+02   8.280614e+02
  -6.771637e+00   1.039151e+03
  -7.528169e+02   2.460534e+02
  -4.681503e+02  -9.170777e+02
   2.363895e+02  -7.256613e+02
   7.156907e+02  -1.457914e+02
   3.035333e+01   5.277004e+02
  -4.302512e+02   3.777029e+02
  -6.780100e+02   2.068449e+02
  -3.602280e+02  -2.035404e+02
  -1.306623e+02  -5.520686e+02
   1.689215e+02  -2.959331e+02
   2.640678e+02  -1.836906e+02
   3.462414e+01   1.442514e+02
  -5.511029e+02  -6.185753e+01
  -1.921660e+02  -4.602559e+02
   4.571007e+02  -5.399102e+02
   8.087267e+02   1.557306e+02
   4.072815e+02   5.465131e+02
  -2.259007e+02   5.042998e+02
  -6.096528e+02   1.024603e+02
  -1.985010e+02  -3.768351e+02
   2.897716e+02  -5.135165e+02
   5.504062e+02  -3.568232e+02
   5.495892e+02   1.584041e+02
   1.346512e+02   4.288890e+02
  -1.739146e+02   2.940186e+02
  -1.234133e+02  -1.082043e+02
   1.428228e+02  -4.551663e+02
   4.689803e+02   1.253341e+01
   2.862475e+02   7.145657e+02
  -3.677148e+02   8.019227e+02
  -7.110784e+02  -1.564384e+00
  -2.916029e+02  -5.382503e+02
   3.158309e+02  -3.444669e+02
   4.087060e+02   3.531610e+02
  -2.255844e+01   5.871660e+02
  -5.640118e+02   1.258328e+02
  -5.613131e+02  -3.994482e+02
  -1.901503e+02  -5.872286e+02
   3.558385e+02  -3.056222e+02
   6.068235e+02   4.691366e+01
   3.787741e+02   3.172290e+02
  -1.388674e+02   3.549559e+02
  -4.616774e+02   7.090305e+01
  -2.416264e+02  -1.861034e+02
   1.282567e+02  -1.232038e+02
   1.442224e+02   1.643823e+02
  -1.791886e+02   2.108973e+02
  -4.162666e+02  -8.967771e+01
  -1.639775e+02  -3.782908e+02
   2.053671e+02  -3.186757e+02
   4.248640e+02  -6.226552e+01
   2.422173e+02   1.361348e+02
  -7.088353e+01   2.058245e+02
  -2.925862e+02   2.587837e+02
  -3.301921e+02   1.580185e+02
  -2.413190e+02  -1.255226e+02
  -6.502341e+01  -4.082166e+02
   4.947339e+01  -4.025620e+02
   9.302693e+01  -1.489718e+02
   4.825757e+01  -3.852627e+01
   1.093368e+02  -8.705001e+01
   2.228049e+02  -1.673806e+02
   3.150929e+02   2.195961e+01
   1.913809e+02   2.932657e+02
  -3.733285e+01   3.123506e+02
  -2.262905e+02   6.275964e+01
  -2.440956e+02  -2.418468e+02
   5.851469e+00  -2.807842e+02
   2.743359e+02  -9.827708e+01
   3.457811e+02   1.988277e+02
   1.529604e+02   3.509450e+02
  -1.398920e+02   3.101425e+02
  -2.504988e+02   1.331089e+02
  -1.592907e+02   3.698825e+01
  -1.172118e+02   8.140843e+00
  -2.322756e+02   1.844040e+01
  -3.953594e+02  -9.591263e+01
  -3.270357e+02  -3.010714e+02
  -2.500090e+01  -4.757531e+02
   3.880974e+02  -4.213577e+02
   4.899542e+02  -2.087384e+02
   3.446580e+02   8.998383e+01
   6.989797e+01   3.321626e+02
  -1.024128e+02   2.491492e+02
  -8.120784e+01   5.548685e+01
   6.474829e+01  -9.928604e+01
   1.856406e+02   2.312408e+00
   4.668581e+01   1.704151e+02
  -1.334389e+02   1.439331e+02
  -1.589896e+02  -4.099237e+01
   2.589808e+01  -1.806696e+02
   1.573794e+02   2.706733e+01
   1.519682e+02   2.591379e+02
  -5.392754e+01   3.416130e+02
  -2.012029e+02   1.473711e+02
  -3.491973e+02  -6.832715e+01
  -2.321267e+02  -2.062213e+02
  -1.015038e+02  -2.279312e+02
   1.062297e+02  -1.280009e+02
   1.172640e+02  -2.162625e+01
   1.728599e+01  -3.707825e+01
  -8.883459e+01  -9.250405e+01
  -5.784298e+01  -1.082281e+02
   1.622572e+02  -9.102185e+01
   1.983490e+02   1.115741e+01
   6.124326e+01   3.927532e+01
  -7.984719e+01   1.304314e+01
  -5.673693e+01  -7.156796e+01
   1.302159e+02  -8.383978e+01
   2.918827e+02  -4.235363e+00
   3.082467e+02   1.594629e+02
   6.452339e+01   2.531472e+02
  -1.637620e+02   2.760313e+02
  -2.427071e+02   1.169356e+02
  -1.555846e+02  -4.133841e+01
   2.003837e+01  -1.083418e+02
   8.034330e+01   7.275453e+01
  -6.704857e+01   1.301982e+02
  -1.814326e+02   7.233630e+01
  -2.443334e+02  -1.001617e+02
  -8.262662e+01  -1.737898e+02
   5.220688e+01  -1.841247e+02
   1.418850e+02  -7.277168e+01
   6.777170e+01   2.372547e+01
  -2.750454e+01   2.822546e+00
  -3.609298e+01  -1.000984e+02
   5.996277e+01  -1.293736e+02
   2.455050e+02  -5.225977e+01
   2.071463e+02   1.387013e+02
   4.944003e+01   2.312885e+02
  -1.601524e+02   1.688495e+02
  -1.917267e+02  -1.470781e+01
  -6.820237e+01  -9.317187e+01
   3.238446e+01  -6.889191e+01
   1.009326e+02  -2.590558e+01
   1.754062e+01   4.557301e+01
  -3.230068e+01   1.080359e+01
   1.030357e+01   2.112278e+01
   3.394163e+01  -2.550356e+00
   5.314500e+01   4.610605e+01
  -2.180635e+00   1.638935e+02
  -1.246231e+02   1.716276e+02
  -2.349605e+02   6.872820e+01
  -1.876066e+02  -1.571242e+02
  -3.873266e+01  -2.699578e+02
   8.081161e+01  -2.310858e+02
   1.445493e+02  -4.483566e+01
   7.204404e+01   4.438702e+01
   6.531228e+01   1.970710e+01
   7.805546e+01  -1.004638e+01
   1.157988e+02  -1.052455e+01
   5.726929e+01   4.327971e+01
  -3.398581e+01   8.205901e+01
  -8.364093e+01   8.473773e+01
  -9.610000e+01  -2.633932e+01
  -1.265395e+01  -1.139801e+02
   1.717951e+02  -1.179541e+02
   2.257690e+02   1.103001e+02
   1.223119e+02   2.114061e+02
  -6.598318e+01   2.710702e+02
  -2.938707e+02   1.087024e+02
  -2.988000e+02  -7.496883e+01
  -9.543028e+01  -1.447873e+02
   3.236413e+00  -1.399306e+02
   7.713750e+01  -9.009972e+01
   7.940027e+01  -4.458681e+01
   8.904584e+01  -8.573360e+01
   7.895620e+01  -2.819331e+01
   9.768004e+01  -3.743370e+00
   1.138226e+02   1.239156e+02
   4.348643e+01   2.089909e+02
  -9.004263e+01   2.058500e+02
  -1.807459e+02   3.979256e+01
  -1.208718e+02  -1.329663e+02
  -2.741724e+01  -1.409455e+02
   9.537170e+01  -6.905510e+01
   6.065015e+01  -1.109341e+01
   2.277281e+01   7.294381e+01
  -2.644552e+01   5.144953e+01
   9.912531e+00   4.574648e+01
   3.932142e+01   2.463461e+01
   2.453863e+01   4.693497e+01
  -7.421062e+01   1.305097e+01
  -1.336709e+02   1.232158e+01
  -1.431408e+02  -4.105739e+01
  -1.528438e+01  -9.603105e+01
   7.927065e+01  -6.212036e+01
   1.042961e+02   2.825068e+00
   4.291143e+01   5.205259e+01
  -4.856739e+01   2.827373e+01
  -7.713200e+01  -4.326057e+00
  -1.412117e+01  -6.646278e+01
   2.912784e+01  -6.681779e+01
   1.953140e+01  -4.671227e+00
   2.504762e+01   3.979663e+01
   7.412375e+01   9.131122e+00
   7.546466e+01  -1.881489e+00
   6.956239e+01  -1.518185e+00
   2.475590e+01   6.889334e+01
  -2.289961e+01   1.197541e+02
  -7.806943e+01   1.323129e+02
  -1.248675e+02   2.156589e+01
  -1.603261e+02  -8.297112e+01
  -2.816132e+01  -1.322180e+02
   8.543900e+01  -3.207870e+01
   4.198640e+01  -4.611247e+00
  -3.912716e+01  -5.320474e+00
  -1.249912e+02  -5.737764e+01
  -6.155552e+01  -8.875500e+01
   7.570139e+01  -8.229024e+01
   2.039022e+02  -4.254465e+01
   1.378982e+02   4.663037e-01
   2.412043e+00   7.369599e+01
  -6.894600e+01   6.774452e+01
  -3.268807e+01   2.866712e+01
   8.420852e+01  -7.292462e+01
   1.446214e+02   2.590553e+01
   4.386543e+01   1.174292e+02
  -1.103518e+02   1.954155e+02
  -1.422984e+02   9.646729e+01
  -1.273402e+02  -7.682876e+01
  -3.453154e+01  -2.151755e+02
   7.873948e+01  -1.096769e+02
   1.050315e+02   3.472052e+01
   9.815710e+01   1.294612e+02
   3.088848e+01   1.021916e+02
  -4.595641e+01   7.594005e+00
  -8.683612e+01  -2.033451e+01
  -2.427231e+01  -3.112256e+01
   3.463913e+01   4.776460e+01
  -2.512140e-01  -2.646789e+01
  -4.561474e+01  -5.437210e+01
  -5.869138e+01  -9.229317e+01
   1.583636e+01  -2.212643e+01
   1.315877e+02   1.497704e+01
   1.087197e+02   6.117653e+01
   3.222683e+01   3.779685e+01
  -8.761157e+01   5.652272e+01
  -4.948219e+01   2.440453e+01
  -1.394778e+01  -1.473262e+00
   5.604960e+01  -1.761235e+01
   8.919665e-01  -3.800302e+01
  -3.774249e+01   5.657820e+00
  -2.137839e+01   1.407256e+01
   6.380393e+01   1.933842e+01
   8.572222e+01   2.730861e+01
   2.023549e+01   3.677946e+01
  -8.401208e+01   8.443370e+01
  -1.788603e+02   3.244867e+01
  -1.537566e+02  -5.280434e+01
   7.231253e+00  -1.593741e+02
   7.632382e+01  -1.451622e+02
   1.211524e+02  -7.241089e+01
   7.823368e+01   7.788645e+00
   1.358238e+01   3.514192e+01
   1.132925e+00   3.479216e+01
   1.472013e+01   1.563209e+01
  -5.220465e+00   6.758077e+01
  -1.145621e+01   8.801138e+01
  -1.331219e+01   6.759012e+01
  -4.988880e+01  -3.642083e+01
  -1.055407e+02  -1.338455e+02
  -3.434894e+01  -9.499173e+01
   5.168735e+01   3.476470e+01
   8.960641e+01   6.665680e+01
   2.872263e+01   6.534788e+01
  -6.547811e+01   2.379735e+01
  -8.936712e+01  -4.228738e+01
  -1.811659e+01  -4.273780e+01
   7.314487e+01  -5.342358e+01
   5.896668e+00  -1.581890e+01
  -5.156581e+00   1.123820e+01
  -6.111494e+01   4.474701e+01
   8.284234e+00   2.784994e+00
   5.657009e+01  -7.803376e+01
   1.121799e+02  -4.818672e+01
   4.867052e+01   2.565332e+00
  -7.381498e+00   9.604932e+01
  -8.172227e+01   1.011882e+02
  -1.567446e+01   1.240308e+01
  -1.217556e+01  -7.477103e+01
   4.123674e+01  -3.986134e+01
   4.213196e+01  -7.434356e-02
   8.668805e+01   7.583370e+01
   3.298223e+00   5.694159e+01
  -2.502564e+01  -3.334893e+00
  -6.495959e+01   8.729208e+00
  -5.565451e+01   3.127031e+01
   2.327341e+01  -1.445481e+01
   2.260887e+01   2.996791e+01
  -1.698105e+01  -3.724598e+01
   2.991114e+01  -5.569496e+01
   2.910736e+01  -9.024307e+00
   3.191127e+01   5.417604e+01
  -1.889177e+01   5.753187e+01
  -3.092803e+01   1.521743e+01
  -5.086975e+01  -3.443159e+01
  -1.844651e+01  -4.028222e+01
   6.302094e+01  -7.444369e+00
   7.626996e+01  -1.426362e+01
   7.932875e+01   5.423757e+01
  -1.101386e+01   3.953864e+01
  -7.058830e+01   2.613555e+00
  -2.811159e+01   3.231283e+01
   2.242002e+01   1.365030e+01
   4.559938e+01  -1.320105e+01
  -2.834751e+00   1.205476e+01
  -1.065061e+02   3.719924e+01
