
 $NMID
 id='ANONYMOUS ', fmtdat='(2E16.6)'
 volume=1.0
 tramp=1.0
 $END
   4.227688e+03   6.713964e+01
   2.719897e+03   2.523108e+03
  -6.776801e+02   2.935080e+03
  -1.985243e+03   9.261926e+02
  -1.221096e+03  -6.800187e+02
   5.970881e+02  -4.280547e+02
   8.451112e+02   3.851208e+02
  -2.683954e+01   9.407725e+02
  -8.503013e+02   8.353432e+02
  -9.080366e+02  -2.014426e+02
  -5.599545e+02  -8.600150e+02
   2.266135e+02  -1.014258e+03
   5.192022e+02  -6.351735e+01
   3.170831e+02   8.068868e+02
  -5.262228e+02   7.565392e+02
  -5.107866e+02   1.195938e+01
  -1.570150e+02  -6.342021e+02
   1.487812e+02  -7.255853e+02
   5.664131e+02   1.100352e+01
   3.279329e+02   3.641856e+02
  -2.068224e+01   4.422580e+02
  -8.465469e+01   3.185274e+02
  -1.248018e+02   1.005371e+02
   1.263907e+02  -1.459058e+02
   4.909608e+02   9.044126e+01
   2.094783e+02   4.746485e+02
  -4.640266e+02   4.590508e+02
  -8.990383e+02   1.438716e+01
  -5.535004e+02  -6.079633e+02
   4.667782e+02  -5.176108e+02
   8.657027e+02   1.073880e+02
   5.575452e+02   5.946600e+02
  -2.415623e+02   5.401707e+02
  -6.444328e+02   1.061006e+02
  -4.882743e+02  -2.910996e+02
  -1.428051e+02  -4.873467e+02
   3.213541e+02  -3.469044e+02
   2.571656e+02   2.482296e+02
  -1.791490e+02   4.851035e+02
  -5.222408e+02  -1.091291e+01
  -2.726423e+02  -7.380371e+02
   3.927514e+02  -8.078304e+02
   6.818926e+02   4.509643e+00
   2.043878e+02   6.860337e+02
  -3.744167e+02   4.149457e+02
  -4.873519e+02  -3.496696e+02
   5.176619e+01  -6.383792e+02
   5.746165e+02  -2.441489e+02
   6.382070e+02   3.886230e+02
   1.595698e+02   6.689121e+02
  -3.946349e+02   4.231782e+02
  -6.576617e+02  -4.225557e+01
  -3.826413e+02  -3.883478e+02
   2.281490e+02  -3.613101e+02
   5.043638e+02  -2.405695e+01
   2.107199e+02   2.184950e+02
  -2.140477e+02   1.209138e+02
  -2.352879e+02  -1.794339e+02
   1.442101e+02  -1.666643e+02
   3.867689e+02   1.020533e+02
   1.708284e+02   3.360440e+02
  -2.142094e+02   2.209597e+02
  -3.354452e+02   3.174606e+01
  -2.003408e+02  -1.048726e+02
  -1.247177e+01  -2.552863e+02
   2.216160e+02  -3.386053e+02
   4.027948e+02  -2.033174e+02
   3.581857e+02   2.089646e+02
   9.250957e+01   5.245767e+02
  -1.193813e+02   4.174525e+02
  -9.056915e+01   7.881031e+01
   2.456303e+00  -8.827214e+00
  -6.526933e+01   1.114593e+02
  -2.454428e+02   1.505253e+02
  -3.103434e+02  -5.000032e+01
  -1.498898e+02  -2.589719e+02
   8.785141e+01  -2.550596e+02
   2.320303e+02  -3.431632e+01
   1.941593e+02   2.149842e+02
   1.037522e+01   2.963408e+02
  -2.940784e+02   1.355001e+02
  -4.748782e+02  -1.524232e+02
  -2.336917e+02  -3.486280e+02
   1.092747e+02  -3.304464e+02
   2.695741e+02  -9.407080e+01
   1.477068e+02   2.201057e+01
   6.035362e+01  -2.168293e+01
   1.805043e+02  -1.029066e+02
   3.994390e+02   5.629559e+01
   3.558877e+02   3.004478e+02
  -1.688465e+01   4.517138e+02
  -3.543327e+02   4.220533e+02
  -4.529462e+02   2.475794e+02
  -3.403761e+02  -9.358567e+01
  -2.961463e+01  -2.919412e+02
   1.844864e+02  -2.309000e+02
   6.707497e+01   1.912437e+01
  -1.720250e+02   1.433616e+02
  -2.707209e+02   3.657166e-01
  -4.986364e+01  -2.591230e+02
   1.309998e+02  -2.279925e+02
   1.617206e+02   5.275852e+01
  -2.948985e+01   1.653689e+02
  -1.746470e+02   9.862316e+00
  -1.457126e+02  -2.411975e+02
   2.645840e+01  -4.006592e+02
   1.849100e+02  -2.408029e+02
   3.273272e+02   4.069244e+01
   2.638746e+02   2.371593e+02
   1.098283e+02   3.117076e+02
  -1.526070e+02   1.764658e+02
  -2.021371e+02   1.585930e+01
  -3.596300e+01  -6.240745e+01
   1.159632e+02   4.268881e+01
   7.119341e+00   1.716303e+02
  -2.051672e+02   9.412533e+01
  -2.541451e+02  -2.858663e+01
  -2.830537e+01  -9.040412e+01
   1.458798e+02  -2.284138e+01
   8.970065e+01   6.288094e+01
  -1.131200e+02   6.821640e+01
  -2.523959e+02  -8.525385e-01
  -2.953969e+02  -1.518930e+02
  -9.582083e+01  -2.455318e+02
   1.849278e+02  -2.707626e+02
   3.073381e+02  -1.619983e+02
   2.165212e+02   8.664979e+01
  -1.133200e+01   9.390994e+01
  -1.049623e+02  -3.982449e+00
   2.119053e+00  -1.185128e+02
   2.078737e+02  -7.207121e+01
   1.969877e+02   9.035563e+01
   6.580962e+01   1.861709e+02
  -1.051734e+02   1.711089e+02
  -1.727204e+02   1.320609e+01
  -1.020773e+02  -7.759170e+01
   2.067696e+01  -4.094563e+01
   4.916056e+01   4.900795e+01
  -1.178502e+02   9.248249e+01
  -1.691903e+02  -2.368717e+00
  -1.502368e+02  -1.254283e+02
  -1.359641e+01  -2.144178e+02
   1.814833e+02  -1.471626e+02
   2.168112e+02  -2.241481e+00
   9.529846e+01   8.662715e+01
  -6.593044e+01   8.047808e+01
  -2.734469e+01   3.483131e+01
   2.162879e+01   8.004535e+00
   4.141849e+01  -2.282259e+01
   2.810862e+00   2.764026e+01
  -3.879389e+01  -1.469002e+01
  -7.629266e+01  -6.483982e+01
  -4.266147e+01  -1.672104e+02
   1.593977e+02  -1.731378e+02
   2.402894e+02  -3.755862e+01
   1.882313e+02   1.746820e+02
  -2.113391e+00   2.305280e+02
  -1.519535e+02   1.111476e+02
  -1.152406e+02   3.898421e+01
  -6.558752e+01  -6.265399e+01
  -1.802282e+00  -1.750451e+01
  -5.870573e+01   4.411345e+01
  -9.505895e+01  -2.480420e+01
  -8.883867e+01  -3.866939e+01
   1.634593e+00  -1.248519e+02
   1.278192e+02  -4.676878e+01
   8.114920e+01   5.769941e+01
   4.466919e-01   1.287413e+02
  -1.669579e+02   9.281981e+01
  -1.695100e+02  -6.827139e+01
  -1.058458e+02  -2.271514e+02
   1.189144e+02  -2.501310e+02
   3.103404e+02  -1.313773e+02
   2.868359e+02   9.275172e+01
   9.539007e+01   2.350274e+02
   4.279353e+00   1.505080e+02
  -7.144877e+01   1.080240e+02
  -8.664821e+01   8.442168e+01
  -6.656696e+01   8.032465e+01
  -1.172703e+02   5.187811e+01
  -1.533084e+02  -1.119652e+01
  -1.308404e+02  -1.492149e+02
  -3.768632e+01  -2.186132e+02
   9.754382e+01  -1.769231e+02
   2.002595e+02  -3.074502e+01
   1.573187e+02   7.587953e+01
   4.086807e+01   1.242705e+02
  -1.212126e+02   8.394593e+01
  -7.244121e+01   3.873680e+01
  -4.092222e+01  -3.074014e+01
   8.299228e+00  -5.156855e+01
  -2.889826e+01  -3.856527e+01
  -6.547736e+01  -5.125171e+01
  -3.995725e+01  -2.884530e+01
   6.190270e+01  -2.746861e+01
   1.728368e+02  -2.040550e+01
   1.534391e+02   8.473917e+01
   2.814781e+01   9.476808e+01
  -9.668463e+01   8.923216e+01
  -1.259247e+02   2.379014e+01
  -5.125016e+01  -4.576069e+01
   4.389257e+01  -8.473762e+01
   1.038788e+02  -3.107636e+01
   1.603146e+00   4.393519e+01
  -4.145843e+01   4.590867e+01
  -5.549252e+01   2.782274e+01
  -6.732236e+00  -4.594041e+01
  -2.594260e+01  -1.668938e+01
  -7.332862e+01   1.185060e+01
  -8.272297e+01  -1.678080e+00
  -2.836400e+01  -6.034666e+01
   2.260647e+01  -1.101987e+02
   1.702432e+02  -1.535904e+02
   1.656434e+02   7.701075e+00
   1.304933e+02   7.276006e+01
   2.734512e+01   1.822834e+02
  -9.118241e+01   4.677293e+01
  -6.963322e+01  -2.062013e+01
   4.596853e+01  -4.000924e+01
   1.261977e+02   5.371531e+01
   5.769434e+01   9.928431e+01
  -9.205547e+01   1.250514e+02
  -1.696099e+02   9.605172e+01
  -1.692386e+02  -2.427153e+01
  -4.066326e+01  -1.289421e+02
   8.261056e+01  -4.798127e+01
   7.542696e+01  -1.654690e+01
  -7.939630e+01  -7.432939e+00
  -8.326213e+01   3.997214e+00
  -2.606875e+00  -1.111833e+02
   1.101314e+02  -1.500336e+02
   1.612297e+02  -7.667096e+01
   1.261753e+02   9.133946e+01
  -9.511458e+00   1.836854e+02
  -6.347061e+01   1.481667e+02
  -1.265843e+02  -5.935468e+00
  -6.540065e+01  -1.389193e+02
  -3.060019e+01  -1.471718e+02
   2.880790e+01   6.201475e+00
   5.934853e+01   6.954464e+01
   2.828744e+01  -2.215273e+01
  -4.443549e+00  -5.490961e+01
   3.267551e+01   5.765156e+01
   8.045921e+01   1.307840e+02
   1.530515e+01   1.454270e+02
  -6.586294e+01   3.721895e+01
  -1.513246e+02   2.565032e+00
  -1.152344e+02  -5.439468e+01
  -8.388605e+00  -1.118613e+02
   9.775589e+01  -7.235300e+01
   9.716762e+01   1.640886e+01
  -1.035909e+01  -9.836879e+00
  -2.657029e+01   2.675070e+01
  -4.081586e+01   1.602271e+01
   6.991097e+01  -4.998506e+01
  -3.510270e+01   2.276272e+01
  -4.854553e+01   4.102385e+00
  -4.694483e+01   1.181485e+01
  -2.120732e+01  -7.144715e+01
   7.493985e+01  -1.004302e+02
   1.610346e+02  -6.408900e+01
   1.543998e+02   5.092812e+01
   1.643796e+01   1.556452e+02
  -1.071076e+02   1.322789e+02
  -7.504573e+01   7.072790e+01
  -1.296830e+02  -1.606149e+01
  -5.158075e+01  -3.187219e+01
  -3.180962e+01   1.448160e+01
   1.379885e+01   2.862659e+00
  -8.817209e+00  -3.617092e+01
   2.327262e-02  -8.341880e+01
  -9.687522e+00  -7.329874e+01
   7.195350e+01  -6.472115e+00
   8.137649e+01   1.265782e+02
   1.466543e+01   9.357081e+01
  -7.248775e+01   3.734570e+01
  -9.001862e+01  -6.330083e+01
  -1.952802e+01  -8.581495e+01
   7.969647e+01  -4.899919e+01
   7.470501e+01   1.211651e+01
   2.437202e+01   3.346474e+01
  -2.159705e+01   5.610764e+01
  -1.753602e+01   2.442261e+01
   4.658498e+01   4.024721e+01
   1.256320e+00   1.089946e+01
  -1.299501e+01   7.499020e+00
  -7.380893e+01   6.397316e+01
  -6.976654e+01   6.558932e+01
  -4.955080e+01  -1.465660e+01
   4.026535e+01  -1.021589e+02
   4.663832e+01  -6.532085e+01
   5.423927e+01   2.930319e+01
  -3.964354e+01   5.252978e+01
  -5.353100e+01   4.236279e+01
  -5.707109e+01  -1.018412e+01
  -2.891959e+01  -5.622547e+01
  -4.924541e+00  -5.663316e+01
  -1.498975e+01   1.188014e+01
   4.598131e+01   3.035894e+01
   3.350762e+01  -3.745629e-01
   5.632852e+00  -4.589486e+01
  -1.124488e+01   3.653508e+00
  -2.729300e+00   3.551511e+01
  -4.857809e+01   5.819772e+01
  -5.204602e+01   1.025007e+00
  -6.887144e+01  -5.839382e+01
   4.306284e+01  -6.512301e+01
   4.262055e+01  -1.044312e+01
   7.888945e+01   4.823904e+01
   2.054311e+01   6.658458e+01
  -6.358815e+01   4.623454e+01
  -6.214186e+01  -3.875370e+01
  -4.283593e+01  -5.018560e+01
   3.890062e+01  -4.679066e+01
   6.100036e+01   2.223265e+01
   4.495707e+01   2.443409e+01
  -8.764837e+00  -1.437507e+00
  -5.180641e+01  -1.831254e+01
   1.293736e+01  -3.926537e+01
   5.756541e+01  -3.417140e+01
