
 $NMID
 id='ANONYMOUS ', fmtdat='(2E16.6)'
 volume=1.0
 tramp=1.0
 $END
   3.168228e+03   1.612628e+01
   1.920130e+03   1.976087e+03
  -2.586592e+02   1.956439e+03
  -1.313151e+03   1.074590e+03
  -6.263266e+02  -2.500707e+01
   3.956135e+02  -2.841548e+02
   4.610405e+02   1.561570e+02
  -1.050270e+02   6.775057e+02
  -4.942472e+02   5.130139e+02
  -6.211419e+02   1.440573e+01
  -2.966712e+02  -5.692153e+02
   1.505219e+02  -4.726292e+02
   4.775340e+02   2.170239e+00
   2.928186e+02   3.218625e+02
  -1.254981e+02   4.682432e+02
  -5.257710e+02   1.662711e+00
  -1.324827e+02  -4.410970e+02
   2.468275e+02  -7.817695e+02
   5.218946e+02  -2.097401e+02
   5.129707e+02   9.738990e+01
   1.260462e+02   1.983170e+02
  -2.834261e+02   2.287142e+02
  -2.348905e+02   6.270474e-01
  -7.476335e+01   1.128596e+02
   1.782398e+02   2.409096e+02
   8.021128e+01   4.387232e+02
  -2.762473e+02   1.110563e+02
  -6.471776e+02  -3.330359e+02
  -1.050098e+02  -4.665679e+02
   3.843941e+02  -2.556182e+02
   5.531813e+02   9.172380e+01
   2.153619e+02   3.085487e+02
  -2.660158e+02   3.939260e+02
  -4.100585e+02   1.684671e+02
  -2.262753e+02  -1.563246e+02
   4.175517e+01  -3.070899e+02
   1.497298e+01  -1.851034e+02
   3.856960e+01   8.406071e+01
  -1.260773e+02   1.098410e+02
  -1.994975e+02  -7.919089e+01
  -6.684982e+01  -4.494580e+02
   2.110027e+02  -3.277269e+02
   2.829657e+02   4.300230e+01
   1.484148e+02   3.340411e+02
  -9.044040e+01   9.183850e+01
  -1.419493e+02  -2.710602e+02
   1.300393e+02  -3.207933e+02
   4.292486e+02  -3.584641e+01
   4.234467e+02   3.364770e+02
   1.551210e+02   4.573398e+02
  -2.641397e+02   2.700452e+02
  -4.681654e+02  -2.563830e+01
  -2.859032e+02  -2.282759e+02
   6.278675e+01  -2.435969e+02
   2.716839e+02  -9.400357e+01
   1.855197e+02   6.172936e+01
   1.626227e+01   3.954596e+01
  -1.166610e+01  -2.540503e+01
   7.895122e+01  -1.347187e+01
   1.744187e+02   1.236489e+02
   1.105972e+02   2.120750e+02
  -1.308099e+02   2.165961e+02
  -3.083781e+02   1.002594e+02
  -2.423688e+02  -5.617723e+01
  -5.527616e+01  -2.531074e+02
   2.395193e+02  -3.365579e+02
   3.417714e+02  -1.742042e+02
   2.373180e+02   1.579903e+02
   6.281338e+01   3.669652e+02
  -5.173321e+01   3.255758e+02
  -5.658910e+01   1.470830e+02
  -4.207882e+01   9.285937e+01
  -1.330726e+02   1.511196e+02
  -2.461064e+02   9.471958e+01
  -2.354283e+02  -1.125829e+02
  -1.262100e+02  -2.148924e+02
   1.253328e+01  -1.621994e+02
   1.372290e+02   5.399888e+01
   1.053450e+02   2.264567e+02
  -7.750854e+01   1.923754e+02
  -2.113025e+02   3.591923e+01
  -2.918779e+02  -1.791305e+02
  -1.568206e+02  -2.802376e+02
   7.480914e+01  -2.247762e+02
   1.259973e+02  -1.234854e+02
   8.039620e+01  -4.749369e+01
   1.315897e+02  -7.238751e+01
   2.178849e+02  -4.860960e+01
   3.596670e+02   8.066667e+01
   2.887300e+02   2.918231e+02
  -5.859963e+01   4.149829e+02
  -3.751472e+02   3.331158e+02
  -4.175483e+02   8.996658e+01
  -2.961830e+02  -1.188876e+02
  -4.856497e+01  -2.328950e+02
   8.023634e+01  -1.703408e+02
   5.448808e+01  -6.004869e+00
  -8.019772e+01   7.987466e+01
  -1.453303e+02  -1.310879e+01
  -6.673295e+01  -1.312163e+02
   6.267880e+01  -1.397786e+02
   1.248349e+02   3.892884e+00
  -3.766459e+01   1.058713e+02
  -1.504599e+02   1.033431e+01
  -1.541848e+02  -2.192306e+02
   3.702905e+01  -3.242527e+02
   2.514760e+02  -1.910601e+02
   3.434394e+02   4.146670e+01
   2.600367e+02   2.491599e+02
   8.450437e+01   2.731799e+02
  -1.455217e+02   1.105498e+02
  -1.664029e+02  -3.772764e+00
  -3.203904e+01  -3.551645e+01
   2.169684e+01   6.369911e+01
   9.610366e+00   1.003176e+02
  -1.018562e+02   7.104192e+01
  -1.744919e+02  -3.120356e+01
   2.170038e+01  -6.400597e+01
   9.394506e+01  -1.856276e+01
   2.943243e+01   6.695063e+01
  -1.275099e+02   9.067115e+01
  -2.630652e+02   5.240643e+01
  -2.270198e+02  -9.622365e+01
   9.683684e+00  -2.631392e+02
   2.028953e+02  -2.229139e+02
   2.137665e+02  -1.085605e+02
   1.088694e+02   3.923305e+01
   1.204746e+00   8.419354e+01
  -6.333179e+01  -2.999037e+00
   3.016469e+01  -7.242737e+01
   1.370198e+02  -1.144021e+01
   1.545785e+02   1.303811e+02
   6.195445e+01   1.761703e+02
  -5.258953e+01   1.300967e+02
  -1.519060e+02  -5.209978e+00
  -3.971699e+01  -8.962011e+01
   1.122852e-01   6.683380e+01
   6.772076e+01   1.294533e+02
  -7.478063e+01   1.466588e+02
  -1.888193e+02   6.499267e+01
  -1.829617e+02  -1.199373e+02
  -2.937039e+01  -2.204184e+02
   1.278553e+02  -1.101198e+02
   1.538256e+02  -5.311435e+01
   5.970211e+01   1.391919e+02
  -4.259555e+01   1.038512e+02
  -4.416348e+01   1.366570e+01
  -1.212040e+00  -1.974428e+01
   7.279538e+01  -1.445838e+01
   3.342639e+01   5.818780e+01
  -8.968717e+01   6.265245e+01
  -1.422574e+02  -4.666534e+01
  -7.194488e+01  -1.700831e+02
   9.711762e+01  -1.495240e+02
   2.422678e+02  -2.176433e+01
   1.809493e+02   1.266347e+02
   3.025225e+01   2.328799e+02
  -8.254970e+01   1.317454e+02
  -1.059843e+02  -6.595744e+00
  -8.113710e+01  -6.971059e+01
   1.815180e+01  -3.049030e+01
  -3.256654e+01   5.688127e+00
  -8.167335e+01   5.356400e+01
  -7.296781e+01   1.054337e+01
  -5.284825e+00  -1.111224e+02
   5.354592e+01  -6.512193e+01
   9.314738e+01  -1.707417e+01
   1.495925e+01   1.235744e+02
  -9.589743e+01   7.968729e+01
  -1.725395e+02  -1.830765e+01
  -7.928577e+01  -1.755766e+02
   1.036543e+02  -2.048250e+02
   2.269843e+02  -8.853162e+01
   2.479362e+02   1.251013e+02
   5.880088e+01   1.294831e+02
  -4.628179e+01   1.308878e+02
  -2.653500e+01   4.023962e+01
  -4.912893e+01   6.970487e+01
  -3.868068e+01   8.905291e+01
  -8.948669e+01   9.279057e+01
  -1.321789e+02   3.743145e+01
  -1.297496e+02  -1.488255e+02
  -4.813629e+01  -2.175020e+02
   4.463146e+01  -1.443715e+02
   1.389573e+02  -4.877164e+01
   1.340409e+02   1.163838e+02
   4.686159e+00   1.343884e+02
  -3.236219e+01   6.809853e+01
  -6.506451e+01  -5.438700e+01
   9.568904e+00  -6.301351e+01
   1.945561e+01  -2.742943e+01
   1.035531e+01   3.733595e+01
  -8.915189e+01  -1.649014e+01
  -1.826854e+01  -3.515890e+01
   1.858166e+01  -4.845595e+01
   1.267411e+02   1.795893e+01
   1.352440e+02   6.074808e+01
   1.030172e+01   5.406790e+01
  -1.106429e+02   4.593706e+01
  -9.018399e+01   2.085798e+01
  -2.363201e+01  -2.425646e+01
   9.129869e+01  -3.273270e+01
   7.606948e+01   3.002243e+01
  -9.520767e+00   9.672034e+01
  -7.542901e+01   7.241184e+01
  -6.643629e+01   1.586715e+00
  -7.253374e+01  -8.177197e+01
  -6.532826e+01  -6.417691e+01
  -7.506474e+01   2.954935e+00
  -1.925400e+01  -1.936988e+01
  -6.822149e+00  -4.709080e+01
   3.328719e+01  -1.311508e+02
   7.815402e+01  -1.461330e+02
   1.762206e+02  -4.714018e+01
   1.293867e+02   8.135300e+01
  -3.039290e+01   9.899524e+01
  -5.026387e+01   8.324622e+01
  -8.421114e+01  -4.164144e+01
   5.172726e+01  -1.596960e+01
   1.222808e+02   3.934270e+01
   9.589588e+01   8.547258e+01
  -8.141096e+01   6.805842e+01
  -1.536831e+02   2.399042e+01
  -1.569204e+02  -1.566642e+01
  -1.432766e+01  -8.438124e+01
   1.468718e+01  -5.995257e+01
   2.627711e+01  -3.611984e+01
  -5.585683e+01   1.203172e+01
  -8.034209e+01  -4.784750e+01
  -3.001509e+01  -1.029761e+02
   5.672370e+01  -1.361519e+02
   1.442968e+02  -2.420851e+01
   8.800494e+01   1.127663e+02
  -4.153111e+01   1.988418e+02
  -6.827988e+01   1.300434e+02
  -8.441198e+01  -5.540908e+01
  -4.753991e+01  -1.636398e+02
  -9.259913e+00  -9.316716e+01
   4.283779e+01  -3.682421e+01
   1.961636e+01   6.355236e+01
   4.500192e+01  -7.363190e+00
  -2.126058e+01   9.940730e+00
   4.308193e+01   1.461510e+01
   8.584322e+01   8.820579e+01
   5.459237e+01   8.242143e+01
  -3.902864e+01   1.880649e+01
  -8.311446e+01  -4.275290e+01
  -1.313058e+02  -3.796172e+01
  -3.313937e+01  -5.578885e+00
   7.234289e+01  -6.979367e+00
   8.648151e+01   2.007191e+01
  -6.997104e+00   1.526959e+01
  -3.429658e+01   3.951622e+01
  -6.588771e+01   1.436715e+01
   4.648711e+00   2.062815e+01
  -3.497447e+01   1.925410e+01
  -6.107095e+01  -1.329690e+01
  -7.501913e+01  -5.932393e+01
  -3.566043e+01  -6.209499e+01
   1.275227e+02  -8.397212e+01
   1.790995e+02  -5.104368e+01
   1.406508e+02   4.497512e+01
   1.171724e+01   1.209646e+02
  -7.750845e+01   1.499172e+02
  -1.182502e+02   7.730083e+01
  -3.740144e+01  -4.553178e+01
  -4.881577e+00  -2.263962e+01
  -6.726027e+00  -5.632185e+01
  -2.140775e+00   1.766973e+01
  -5.729182e+01  -6.963014e+01
  -1.065595e+01  -6.241243e+01
   3.042490e+01  -7.352139e+01
   7.656176e+01   4.264164e+01
   5.536584e+01   9.027721e+01
   2.514801e+00   1.219966e+02
  -8.818190e+01   3.610017e+01
  -1.161557e+02  -4.594594e+01
  -7.957277e+01  -1.018320e+02
   4.565887e+01  -3.486729e+01
   6.103374e+01  -9.574195e+00
   5.282291e+01   8.252339e+01
  -5.960263e+01   1.091919e+02
  -7.528636e+01  -4.403164e+00
  -1.720291e+01  -4.543768e+01
   6.380074e+01   1.317818e+01
   3.450346e+01  -7.409657e+00
  -5.614790e+01   4.403565e+01
  -1.117268e+02   8.307987e+01
  -6.067691e+01  -4.915113e+00
   4.020554e+01  -9.659206e+01
   5.151355e+01  -1.080045e+02
   4.980091e+01  -4.947773e+00
   7.086684e+00   4.470454e+01
  -6.326701e+00   6.784901e+01
  -2.341992e+01   6.418234e+00
  -6.425452e+01  -1.282730e+01
  -2.478631e+00  -3.950738e+01
   8.781708e+00   1.169953e-01
   6.332308e+01   3.659981e+01
   4.823900e+01   5.629164e+00
  -1.434898e+01  -9.918986e+00
  -3.582796e+01  -2.890517e+01
  -1.234028e+01   2.134925e+01
   1.117112e+01   2.566521e+01
   3.047641e+01   3.198257e+01
  -4.689202e+00  -8.157419e+00
  -2.157737e+01  -5.817755e+01
   3.115470e+01  -1.009255e+01
   4.263963e+01   5.403015e+01
   2.735319e+01   2.594601e+01
  -1.504775e+01   3.323099e+01
  -6.563361e+01  -2.394357e+01
  -4.823116e+01  -5.398156e+01
   4.218554e+01  -2.185185e+00
   5.129554e+01  -3.887117e+01
   3.080321e+01  -4.455108e+01
  -2.123536e+01  -2.361481e+01
  -8.144780e+00   1.793664e+01
   4.046348e+01  -1.788540e+01
   4.561092e+01   7.314824e-01
