
 $NMID
 id='ANONYMOUS ', fmtdat='(2E16.6)'
 volume=1.0
 tramp=1.0
 $END
  -4.714005e+03   6.415856e+01
  -2.472956e+03  -2.653220e+03
   6.260705e+02  -2.882457e+03
   2.102616e+03  -1.153503e+03
   9.947738e+02   4.304891e+02
  -6.910284e+02   6.892980e+02
  -8.070421e+02  -2.297055e+02
  -1.870456e+02  -1.220490e+03
   8.140540e+02  -8.211015e+02
   1.041814e+03  -6.801672e+01
   4.882189e+02   8.191044e+02
  -2.198574e+02   8.912310e+02
  -6.202532e+02   2.042822e+02
  -3.874707e+02  -5.716073e+02
   1.536979e+02  -8.041854e+02
   4.214661e+02  -3.824762e+01
   4.833587e+02   6.505909e+02
  -2.927145e+02   6.658165e+02
  -6.229449e+02   3.195704e+02
  -6.004711e+02  -3.573460e+02
  -9.271752e+01  -5.227553e+02
   3.785368e+02  -3.665887e+02
   4.546174e+01   5.402858e+01
  -1.636888e+02   7.419210e+01
  -2.137260e+02  -2.284542e+01
  -1.793393e+02  -2.913318e+02
   5.689226e+02  -4.645402e+02
   8.731297e+02   1.119584e+02
   4.774258e+02   6.959771e+02
  -3.648423e+02   4.345172e+02
  -7.587380e+02  -2.097030e+01
  -3.479635e+02  -4.638024e+02
   3.081854e+02  -5.108239e+02
   5.702885e+02  -3.083297e+02
   4.441134e+02   2.398925e+02
   1.459835e+02   3.960704e+02
  -1.667530e+02   2.789587e+02
  -1.154497e+02  -1.594929e+02
   1.385897e+02  -5.146010e+02
   4.898098e+02  -4.891792e+01
   2.341929e+02   6.574163e+02
  -3.274385e+02   7.515702e+02
  -5.685915e+02   5.682323e+01
  -2.919961e+02  -5.528916e+02
   1.811616e+02  -3.525857e+02
   3.275654e+02   3.031394e+02
  -2.877992e+01   6.242284e+02
  -4.859692e+02   1.721437e+02
  -5.849181e+02  -3.456459e+02
  -2.130259e+02  -5.972393e+02
   3.424920e+02  -3.793749e+02
   6.159215e+02   8.086462e+01
   3.813800e+02   4.460813e+02
  -1.581798e+02   4.648389e+02
  -4.915525e+02   1.222963e+02
  -3.032010e+02  -1.638131e+02
   1.175048e+02  -1.385792e+02
   1.268294e+02   1.245547e+02
  -2.190356e+02   1.487292e+02
  -3.952869e+02  -7.169872e+01
  -1.759396e+02  -3.039965e+02
   2.197036e+02  -2.319960e+02
   3.410325e+02  -6.452199e+01
   1.828946e+02   5.131359e+01
  -6.127494e+01   1.747426e+02
  -2.471726e+02   2.912350e+02
  -3.443808e+02   2.376083e+02
  -2.884917e+02  -1.291751e+02
  -9.903495e+01  -4.638089e+02
   8.256350e+01  -4.210568e+02
   1.289584e+02  -1.309023e+02
   2.469211e+01  -2.614812e+01
   3.049253e+01  -9.424638e+01
   2.005733e+02  -1.705086e+02
   3.066678e+02   2.720812e+01
   1.503005e+02   2.477032e+02
  -4.734294e+01   2.252989e+02
  -1.935733e+02   1.092558e+01
  -1.741659e+02  -2.214531e+02
  -4.423699e+01  -2.722987e+02
   2.242155e+02  -1.083197e+02
   3.956333e+02   1.509329e+02
   2.475019e+02   3.893266e+02
  -7.393973e+01   3.213165e+02
  -2.567223e+02   1.304505e+02
  -1.956552e+02   1.531801e+01
  -1.588042e+02   6.220057e+01
  -2.307053e+02   5.296010e+01
  -3.840222e+02  -6.881298e+01
  -3.335965e+02  -2.915663e+02
   1.342509e+01  -4.873408e+02
   4.041417e+02  -4.278489e+02
   5.002925e+02  -2.302906e+02
   3.331331e+02   5.342832e+01
   9.429356e+01   2.639865e+02
  -4.923393e+01   2.637302e+02
  -1.965867e+01   8.701161e+01
   7.780455e+01  -7.673974e+01
   1.871814e+02   6.717064e+00
   2.866045e+01   2.017081e+02
  -1.920543e+02   1.624878e+02
  -2.393255e+02  -9.543552e+01
  -3.312489e+01  -2.006174e+02
   1.791409e+02  -6.747730e+01
   1.943066e+02   2.160213e+02
  -6.146124e-01   3.854524e+02
  -2.319026e+02   2.034171e+02
  -3.389252e+02  -6.261724e+01
  -3.000304e+02  -2.677390e+02
  -1.079944e+02  -2.718132e+02
   8.988367e+01  -1.553596e+02
   1.652878e+02  -3.232355e+01
   6.205934e+01  -1.806580e+01
  -5.443250e+01  -8.771492e+01
   2.441475e+01  -1.358438e+02
   1.436254e+02  -1.152536e+02
   2.083264e+02   2.423067e+01
   5.348439e+01   6.112534e+01
  -8.107180e+01   3.577334e+01
  -7.407887e+01  -4.097086e+01
   1.152112e+02  -7.641852e+01
   2.655764e+02  -5.702936e+01
   2.937976e+02   1.121787e+02
   6.268560e+01   2.205517e+02
  -2.182202e+02   2.487635e+02
  -2.793990e+02   1.201638e+02
  -1.702266e+02  -3.655471e+01
   7.738576e+01  -1.178937e+02
   1.274834e+02   9.803171e-01
  -3.302954e+00   1.212961e+02
  -2.480600e+02   6.352816e+01
  -2.465543e+02  -1.162020e+02
  -7.021929e+01  -2.024595e+02
   6.223749e+01  -1.553294e+02
   1.075297e+02  -5.118592e+01
   8.755889e+01  -2.103160e+01
   4.789523e+01  -8.476545e+00
  -7.233143e+00  -6.388083e+01
   9.674491e+01  -1.219892e+02
   2.146044e+02  -5.793485e+01
   1.864561e+02   1.092270e+02
   1.565382e+01   1.878782e+02
  -1.428169e+02   1.963142e+02
  -1.568247e+02   1.730212e+01
  -7.027006e+01  -1.142504e+02
   6.571317e+01  -1.408515e+02
   6.611974e+01  -3.124359e+01
   2.999883e+00   4.549409e+01
  -5.147442e+00  -1.028568e+01
   7.127846e+01  -1.634465e+01
   8.188428e+01   2.698214e+01
   4.493432e+01   9.392048e+01
   1.309270e+01   1.757609e+02
  -9.489427e+01   1.534437e+02
  -2.005233e+02   6.988291e+01
  -2.037160e+02  -1.409002e+02
  -5.982381e+01  -2.726998e+02
   6.508527e+01  -1.721308e+02
   1.442631e+02  -2.361395e+01
   6.431437e+01   6.514828e+01
   2.873208e+01   4.054384e+01
   8.889646e+01  -3.755930e+01
   9.296126e+01  -1.566352e+01
   3.058041e+01   6.951414e+01
  -5.640426e+01   1.235012e+02
  -1.224632e+02   3.206030e+01
  -6.664095e+01  -4.278137e+01
  -3.006475e+01  -9.019645e+01
   1.298273e+02  -4.492147e+01
   1.847575e+02   3.280693e+01
   9.059121e+01   1.659280e+02
  -8.326270e+01   1.830984e+02
  -2.713899e+02   6.850368e+01
  -2.627753e+02  -9.265752e+01
  -7.249698e+01  -1.618133e+02
   6.577451e+01  -1.567015e+02
   1.114061e+02  -5.042617e+01
   1.098437e+02  -4.986835e+01
   6.425347e+01  -8.418266e+01
   1.455821e+02  -4.204462e+01
   1.197537e+02   3.795052e+01
   6.382922e+01   1.664867e+02
  -1.052481e+01   2.291058e+02
  -8.175794e+01   1.761836e+02
  -1.606722e+02   3.274662e+01
  -1.047403e+02  -1.053769e+02
  -2.089147e+01  -1.829196e+02
   4.841815e+01  -8.353342e+01
   4.445730e+01   2.775325e+01
   3.086148e+00   4.490341e+01
  -1.192893e+01   1.872009e+01
   4.820110e+01   6.647744e-01
   8.956833e+01   1.993921e+01
   5.296560e+01   3.241080e+01
  -8.130017e+01   5.022868e+01
  -1.662790e+02   2.660461e+01
  -1.201982e+02  -3.805643e+01
   1.817805e+01  -8.330292e+01
   1.216573e+02  -6.254675e+01
   1.163532e+02  -3.190064e+01
   4.330765e+01   4.756319e+01
  -7.036274e+01   3.096992e+01
  -5.664833e+01  -3.028598e+01
   1.811449e+01  -6.943934e+01
   8.845898e+01  -8.455200e+01
   1.019361e+02   2.823613e+01
   4.146445e+01   7.492642e+01
   1.721301e+01   8.695410e+01
   4.230416e+01   1.973351e+01
   6.692519e+01  -2.741874e+01
   3.365451e+01   5.605277e+01
  -1.007581e+01   1.381403e+02
  -1.461668e+02   1.335018e+02
  -1.726239e+02   5.653549e+01
  -1.363779e+02  -1.047996e+02
  -1.201598e+01  -1.169192e+02
   6.462458e+01  -9.662881e+01
   9.029247e+01   3.422608e+01
  -2.940357e+01   2.607225e+01
  -1.472087e+02  -1.897437e+01
  -9.428878e+01  -7.840414e+01
   4.496513e+01  -1.248008e+02
   1.728271e+02  -7.322864e+01
   2.018364e+02  -1.238876e+01
   4.463540e+01   6.354511e+01
  -1.183841e+02   6.134833e+01
  -1.263509e+01   2.382958e+01
   3.930189e+01  -1.574249e+01
   1.005780e+02   3.830131e+01
   7.679776e+01   5.201160e+01
  -8.702020e+01   1.226518e+02
  -1.379890e+02   8.123494e+01
  -1.547459e+02  -7.908327e+01
   2.002671e+01  -1.599362e+02
   1.460383e+02  -1.388639e+02
   1.330356e+02   1.082950e+01
   4.317292e+01   9.104185e+01
  -5.882637e+01   9.609672e+01
  -9.451355e+01   4.172431e+01
  -3.033845e+01   9.820959e+00
  -1.187384e+01  -2.133126e+01
   9.142476e+00  -1.826851e+01
   1.529441e+01  -2.649269e+01
  -7.382717e+01  -1.157721e+02
  -4.417058e+01  -7.404390e+01
   1.996980e+01   6.149020e-02
   1.509264e+02   7.469013e+00
   1.089635e+02   4.649143e+01
   2.359064e+01   3.914662e+01
  -7.179465e+01   1.995998e+01
  -9.372102e+01  -4.227210e+00
   7.404117e+00   1.071824e+01
   6.526506e+01  -4.438926e+01
  -6.318882e+00  -4.629159e+00
  -1.225162e+01  -1.045090e+01
  -1.573054e+00  -1.533539e+00
   6.340735e+01  -3.417618e+01
   1.162989e+02   3.847837e+01
   2.764712e+01   1.036110e+02
  -8.311108e+01   1.355636e+02
  -2.005264e+02   8.262031e+01
  -1.413757e+02  -7.287800e+01
  -2.001056e+01  -1.419395e+02
   1.000764e+02  -1.765652e+02
   1.184560e+02  -2.090909e+01
   8.810569e+01   1.777839e+01
  -4.747434e+00   4.044564e+01
  -1.347607e+01   1.031158e+01
   7.718877e+00   1.440304e+01
   2.477892e+01   3.069097e+01
   3.919997e+01   7.335317e+01
  -3.274118e+01   4.064278e+01
  -7.713269e+01  -2.386864e+01
  -1.071166e+02  -7.276834e+01
  -2.852798e+01  -1.412998e+02
   1.080891e+02  -8.216018e+00
   1.241012e+02   8.054483e+01
   2.100604e+01   9.508888e+01
  -9.604396e+01   6.638298e+01
  -1.292407e+02   2.013799e+01
  -1.799750e+01  -4.422526e+01
   4.832497e+01  -6.769269e+01
   2.731297e+01  -3.596140e+01
  -5.131705e+01  -1.388403e+01
  -1.071985e+02   3.670695e+00
   3.855292e+00  -4.567987e+01
   1.080464e+02  -5.298723e+01
   1.320019e+02  -6.419403e+01
   6.700537e+01   2.032095e+01
   2.087957e+01   8.511477e+01
  -6.993599e+01   9.632171e+01
  -6.260550e+01   3.412508e+01
  -1.388987e+01  -3.058628e+01
   5.627038e+01  -5.282177e+01
   1.934683e+01   5.066632e+01
   5.790337e+01   4.740274e+01
  -2.445934e+01   2.392642e+01
  -3.188994e+01   2.436067e+01
  -3.030772e+01  -4.144095e+01
  -6.083083e+00  -2.133307e+01
  -2.281617e+00   4.295930e+01
  -5.102902e+00   6.547176e+01
  -1.957922e+01  -5.925614e+01
   2.910390e+01  -3.238323e+01
   6.475646e+01  -8.799053e+00
   3.686106e+01   5.274635e+01
  -2.375948e+01   8.563346e+01
  -3.429997e+01   3.924457e+01
  -6.827087e+01  -2.929491e+01
  -3.553793e+01  -6.346763e+01
   4.255381e+01  -5.258727e+01
   1.043605e+02   4.696632e+00
   5.474065e+01   5.672846e+01
  -5.180187e+01   6.376032e+01
  -7.465771e+01   1.929738e+01
  -4.422065e+01   2.993224e+01
   1.695647e+01  -1.700384e+01
   3.337677e+01   1.053961e+01
  -1.974782e+00   3.344066e+01
  -7.117250e+01   3.113765e+01
