
 $NMID
 id='ANONYMOUS ', fmtdat='(2E16.6)'
 volume=1.0
 tramp=1.0
 $END
   3.484234e+03   1.812962e+01
   2.086572e+03   1.950031e+03
  -2.557614e+02   2.280023e+03
  -1.382096e+03   1.099180e+03
  -9.672719e+02  -1.856860e+02
   1.392218e+02  -2.228656e+02
   5.161517e+02   3.397925e+02
   1.987526e+02   7.842744e+02
  -4.564082e+02   5.458129e+02
  -8.241612e+02   8.104696e+01
  -4.119047e+02  -7.087897e+02
   2.475580e+02  -6.816248e+02
   3.995392e+02  -2.181723e+02
   3.661967e+02   7.063570e+02
  -2.642614e+02   8.475958e+02
  -4.574569e+02   2.644557e+02
  -1.139428e+02  -4.150950e+02
   3.471187e+02  -5.139527e+02
   6.164064e+02  -2.751528e+02
   3.035718e+02   1.476721e+02
   1.257773e+02   4.134026e+02
  -2.297538e+02   2.745248e+02
  -1.071943e+02   2.327048e+01
   2.643401e+02   1.444351e+02
   6.452334e+01   1.033633e+02
  -6.106661e+01   2.958985e+02
  -5.329608e+02   1.695962e+02
  -6.661139e+02  -1.755983e+02
  -2.233097e+02  -4.480150e+02
   3.361444e+02  -2.280950e+02
   5.151029e+02  -6.009703e+00
   1.461773e+02   3.835273e+02
  -3.330084e+02   3.316521e+02
  -4.936673e+02   1.990099e+02
  -3.215772e+02  -2.823678e+02
  -7.547126e+01  -3.494295e+02
   7.869081e+01  -1.675114e+02
   1.935030e+01   1.596582e+02
  -1.594314e+02   2.207653e+02
  -3.335666e+02  -1.017863e+02
   3.950522e+00  -5.275370e+02
   2.433122e+02  -3.960496e+02
   2.772709e+02  -1.434332e+01
   1.379692e+02   3.198096e+02
  -1.214129e+02   1.743575e+02
  -1.538925e+02  -2.575778e+02
   1.199316e+02  -4.178518e+02
   4.471881e+02  -9.417550e+01
   4.800370e+02   3.123808e+02
   1.360832e+02   4.705005e+02
  -2.507000e+02   2.737527e+02
  -4.750293e+02   2.395805e+00
  -3.717110e+02  -2.361264e+02
   2.181258e+01  -2.907366e+02
   2.987152e+02  -1.217473e+02
   2.696537e+02   4.353680e+01
   9.840088e+01   5.201112e+01
   1.804359e+00  -3.071849e+01
   7.620063e+01  -7.455292e+01
   2.101033e+02   6.905401e+01
   1.168455e+02   2.131655e+02
  -1.503944e+02   2.971918e+02
  -2.945346e+02   1.471914e+02
  -1.924875e+02  -8.437592e+01
   4.452685e+01  -3.344093e+02
   2.943692e+02  -3.481231e+02
   4.055628e+02  -1.168724e+02
   2.399747e+02   1.953870e+02
   2.790632e+01   4.334477e+02
  -9.584069e+01   3.570178e+02
  -8.515139e+01   1.998078e+02
  -5.595006e+01   9.168944e+01
  -1.006864e+02   5.254614e+01
  -2.628283e+02   2.732656e+01
  -2.767875e+02  -7.513422e+01
  -1.200248e+02  -2.724935e+02
   5.165803e+01  -1.687427e+02
   1.521506e+02   8.353855e+01
   1.385228e+02   2.685178e+02
  -3.441394e+01   2.707110e+02
  -2.067368e+02   5.407142e+01
  -2.806781e+02  -2.217297e+02
  -1.685285e+02  -3.437918e+02
   2.724600e+01  -2.388650e+02
   1.930068e+02  -1.464404e+02
   1.902908e+02  -9.856146e+01
   2.100729e+02  -6.909357e+01
   2.951322e+02  -5.143650e+01
   3.635519e+02   1.249380e+02
   2.599615e+02   2.944085e+02
  -5.890813e+01   3.899205e+02
  -3.913189e+02   3.700232e+02
  -4.934494e+02   1.486623e+02
  -3.062293e+02  -5.554339e+01
  -8.803534e+01  -2.330949e+02
   8.907841e+01  -2.187293e+02
   2.265612e+01  -3.278543e+01
  -1.152784e+02   1.260101e+01
  -1.448101e+02  -3.376656e+01
  -1.827416e+00  -1.242812e+02
   1.455258e+02  -1.384658e+02
   1.516638e+02   4.414188e+01
   8.480994e+00   6.067609e+01
  -1.569925e+02  -4.504757e+01
  -1.589574e+02  -2.321892e+02
   7.515979e+01  -3.400123e+02
   2.678086e+02  -1.319030e+02
   3.699740e+02   8.918659e+01
   2.702205e+02   2.716265e+02
   4.434704e+01   2.602046e+02
  -1.185354e+02   1.244237e+02
  -1.511018e+02  -6.921621e+00
  -2.659120e+01   2.006599e+01
   1.080640e+02   1.000214e+02
   2.372084e+01   1.691535e+02
  -8.476286e+01   9.476777e+01
  -1.434719e+02   3.162777e-01
  -5.619916e+01  -5.685535e+01
   3.938544e+01  -9.899739e+00
   1.243361e+01   8.980920e+01
  -1.780855e+02   8.587881e+01
  -2.979451e+02   1.346910e+01
  -2.865897e+02  -1.862502e+02
  -5.454353e+01  -2.840746e+02
   1.892362e+02  -2.785540e+02
   2.561159e+02  -1.590839e+02
   1.747365e+02   3.846045e+01
  -5.054433e+01   8.832352e+01
  -9.763603e+01   1.867777e+01
   2.900789e+01  -3.431357e-01
   1.635067e+02  -3.190836e+01
   1.959820e+02   1.102705e+02
   3.158861e+01   1.548356e+02
  -6.030869e+01   1.090988e+02
  -9.019967e+01   3.867104e+01
  -2.343008e+01  -3.146760e+01
   4.503219e+00   5.021830e+01
  -2.799482e+01   1.181886e+02
  -1.174663e+02   7.983275e+01
  -1.828739e+02  -2.195819e+01
  -1.196290e+02  -1.729964e+02
   2.257639e+01  -2.000514e+02
   2.159375e+02  -1.842076e+02
   2.056923e+02  -2.746602e+01
   5.825035e+01   9.397843e+01
  -4.414362e+01   1.211069e+02
  -8.566806e+01   1.623247e+01
  -1.060627e+01   8.772793e+00
   2.097263e+01  -1.437976e+01
  -3.351698e+01   1.667651e+01
  -7.988915e+01  -3.320810e+01
  -7.058890e+01  -1.026057e+02
  -2.123008e+01  -1.557234e+02
   1.221966e+02  -1.149537e+02
   2.363843e+02   3.579074e+01
   1.829177e+02   1.905108e+02
   3.760654e+01   2.028028e+02
  -1.278916e+02   1.635777e+02
  -1.645833e+02   9.456824e+00
  -6.864144e+01  -5.840216e+01
  -4.135781e+01  -7.325412e+01
  -6.789525e+01  -1.666767e+01
  -1.118664e+02  -3.203036e+01
  -7.926421e+01  -6.849372e+01
   4.919498e+01  -1.231447e+02
   1.269154e+02  -7.650500e+01
   1.351506e+02   8.478844e+00
  -5.259981e+00   8.035725e+01
  -1.313526e+02   7.640547e+01
  -1.763304e+02  -4.664334e+01
  -2.515404e+01  -2.081130e+02
   1.563493e+02  -2.378630e+02
   2.740021e+02  -1.051186e+02
   2.522937e+02   1.057628e+02
   8.924741e+01   1.679676e+02
  -4.771723e+01   1.000861e+02
  -7.036871e+01   7.220390e+01
  -3.721010e+01   5.593882e+01
  -1.829406e+01   8.622994e+01
  -9.522301e+01   1.230246e+02
  -1.460709e+02  -7.666205e+00
  -1.506069e+02  -1.337040e+02
  -5.943528e+01  -2.296049e+02
   9.731947e+01  -1.590612e+02
   1.485748e+02  -3.162019e+01
   9.487468e+01   8.892182e+01
   6.644660e+00   1.452058e+02
  -6.112837e+01   5.010221e+01
  -3.802523e+01  -3.432370e+01
   4.824716e+00  -7.875524e+01
   5.201455e+01  -3.798906e+01
  -1.908116e+01  -2.420997e+01
  -3.859893e+01  -1.356569e+01
  -5.480101e+01   6.419619e+00
   6.768506e+01   4.023147e+01
   1.987893e+02   2.743147e+01
   1.253629e+02   5.052032e+01
  -2.473187e+01   4.663173e+01
  -1.454865e+02   5.723970e+01
  -1.415850e+02   3.596161e+01
  -3.718168e+01   1.008021e+01
   1.014697e+02  -1.463699e+01
   7.728553e+01   2.109522e+01
   7.633757e+00   5.002345e+01
  -8.305257e+01   5.559610e+01
  -6.582733e+01  -4.587456e+00
  -6.293762e+01  -4.744771e+01
  -7.369943e+01  -4.927638e+01
  -8.282499e+01  -2.354241e+01
  -7.209526e+01   5.652588e+00
  -1.265334e+01  -1.008516e+02
   8.033858e+01  -1.781568e+02
   1.580863e+02  -1.489039e+02
   1.694950e+02  -3.575816e+01
   1.203976e+02   7.664475e+01
  -3.050050e+01   8.494729e+01
  -1.036754e+02   3.484092e+01
  -6.797529e+01   8.544549e+00
   5.139102e+01  -3.080561e+01
   1.803722e+02   6.876797e+01
   7.842588e+01   9.809179e+01
  -6.122955e+01   1.139329e+02
  -1.946922e+02   8.611012e+01
  -1.309277e+02  -2.107620e+01
  -3.423959e+01  -3.859003e+01
   7.181931e+01  -4.418428e+01
   5.192811e+01   5.618406e+01
  -5.985727e+01   4.617309e+01
  -9.226495e+01  -2.087601e+01
  -6.854283e+01  -1.311717e+02
   8.963493e+01  -1.706808e+02
   1.828617e+02  -9.776319e+01
   1.322722e+02   9.426284e+01
   9.381934e+00   2.143223e+02
  -8.778462e+01   1.503019e+02
  -1.070854e+02  -1.059968e+01
  -5.947450e+01  -1.495410e+02
   2.652183e+01  -1.351418e+02
   9.497976e+01  -3.037047e+01
   2.799323e+01   2.868729e+01
   2.067146e+01   9.018659e+00
  -2.094335e+01  -5.311082e+01
   6.230641e+01   3.886470e+01
   5.114619e+01   1.207152e+02
   5.334782e+01   9.277951e+01
  -5.263896e+01   3.993124e+01
  -1.302530e+02  -2.129802e+01
  -1.039897e+02  -6.139613e+01
   2.042628e+00  -4.501398e+01
   9.290858e+01  -1.589379e+01
   1.001613e+02   9.235502e+00
   4.641036e+01   6.061218e+01
  -1.449935e+01   5.388141e+00
  -4.426644e+00  -8.967759e+00
   1.866956e+01  -1.984890e+00
  -1.997237e+01   2.381975e+01
  -9.509726e+01  -9.114271e+00
  -8.435285e+01  -4.751531e+01
   2.447231e+01  -1.043899e+02
   1.415978e+02  -9.057802e+01
   2.097695e+02  -7.649943e+01
   1.669536e+02   5.219624e+01
   1.652070e+01   1.431001e+02
  -7.790482e+01   1.589187e+02
  -7.922049e+01   9.380627e+01
  -8.799142e+01  -1.750468e+01
  -5.327515e+01  -3.262403e+01
  -4.771953e+01  -3.266528e+01
   9.621744e-01   5.708854e+00
  -4.176903e+01  -3.515301e+01
   4.260687e+00  -7.324735e+01
   4.153610e+01  -7.403169e+01
   1.029419e+02   5.180566e+01
   5.999094e+01   1.079577e+02
  -3.314699e+01   1.223375e+02
  -1.034385e+02   5.760129e+01
  -8.441902e+01  -7.816683e+01
  -5.819187e+01  -1.297089e+02
   8.098888e+01  -6.775146e+01
   1.174203e+02   2.911096e+01
   6.862728e+01   7.201945e+01
  -4.891110e+00   6.646969e+01
  -3.447064e+01   4.501964e+01
   4.735510e+01   7.154844e+00
   3.904689e+01  -4.437028e+00
   2.197627e+01   7.241185e+01
  -1.032646e+02   8.790352e+01
  -1.052511e+02   2.084322e+01
  -8.933227e+01  -2.391271e+01
  -5.126712e+00  -1.350960e+02
   7.515865e+01  -9.671130e+01
   4.032835e+01  -1.366113e+01
   1.053958e+01   3.823316e+01
  -8.502790e+00   6.392476e+01
  -3.050805e+01   3.150674e+01
  -3.419926e+01  -1.920070e+01
   1.618678e+01  -2.631200e+01
   3.344984e+01   2.579796e+01
   5.137509e+00   1.095767e+01
   2.952311e+01  -1.669855e+01
  -5.836192e+00  -3.858570e+01
   1.011133e+01   1.269222e+01
   1.797283e+01   2.027002e+01
   3.425509e+00   5.717623e+01
  -6.489310e+01   5.345535e+01
  -6.137210e+01  -3.753605e+01
  -3.037385e+01  -6.722993e+01
   1.356901e+01  -2.829693e+01
   5.930046e+01   2.005995e+01
   7.381701e+00   6.256185e+01
  -2.301779e+01   5.493211e+01
  -9.232957e+01   3.494691e+01
  -4.168386e+01  -4.914541e+01
   2.684177e+01  -2.487852e+01
   3.757734e+01  -6.304520e+01
   2.922612e+01  -6.335330e+00
  -4.049269e+01   3.768974e+00
  -3.246210e+01   1.105029e+01
   2.785739e+01  -4.088520e+01
   1.082960e+02   1.453812e+01
