
 $NMID
 id='ANONYMOUS ', fmtdat='(2E16.6)'
 volume=1.0
 tramp=1.0
 $END
   4.343000e+03   1.015786e+02
   2.472336e+03   2.435550e+03
  -8.117004e+02   2.502178e+03
  -1.855067e+03   7.192736e+02
  -8.405668e+02  -2.961400e+02
   4.714269e+02  -3.745321e+02
   8.881736e+02   4.739467e+02
   3.989656e+01   8.793528e+02
  -7.946168e+02   6.883990e+02
  -9.371888e+02  -7.815777e+01
  -3.778076e+02  -9.167331e+02
   1.380301e+02  -9.255720e+02
   5.436025e+02  -1.374675e+02
   2.759406e+02   6.741707e+02
  -2.755568e+02   7.169325e+02
  -3.793430e+02   4.092127e+01
  -1.646906e+02  -6.377031e+02
   2.507682e+02  -8.840960e+02
   4.085292e+02   2.078955e+01
   3.080479e+02   3.142741e+02
   4.157874e-01   3.692078e+02
  -2.410477e+02   3.362823e+02
  -1.172240e+02  -3.493209e+01
   1.384438e+02  -1.261146e+02
   6.807040e+02   1.199126e+02
   1.434530e+02   4.544124e+02
  -4.700712e+02   3.049174e+02
  -7.524034e+02  -4.487708e+01
  -3.006794e+02  -4.809763e+02
   4.695640e+02  -4.857016e+02
   6.893061e+02   6.759288e+01
   2.012548e+02   3.904053e+02
  -3.299223e+02   4.401635e+02
  -5.366934e+02   2.016212e+02
  -3.321878e+02  -1.204325e+02
  -1.927778e+01  -3.634775e+02
   2.351794e+02  -2.500906e+02
   1.475027e+02   1.475268e+02
  -1.432679e+02   2.748130e+02
  -2.075513e+02  -3.748574e+01
  -1.194177e+02  -5.406678e+02
   3.099640e+02  -5.206998e+02
   4.261481e+02   6.268453e+00
   1.774957e+02   5.133562e+02
  -2.162868e+02   2.536358e+02
  -2.614010e+02  -3.403605e+02
   1.028698e+02  -4.871521e+02
   4.711267e+02  -1.170533e+02
   5.320456e+02   3.834357e+02
   1.569038e+02   5.360442e+02
  -3.234405e+02   3.094201e+02
  -5.342773e+02  -5.543335e+01
  -3.407407e+02  -3.000199e+02
   1.435397e+02  -2.929193e+02
   4.142958e+02  -7.712084e+01
   2.462148e+02   1.212957e+02
  -6.795095e+01   1.036891e+02
  -1.372578e+02  -5.461565e+01
   1.171597e+02  -9.608554e+01
   2.691551e+02   5.459829e+01
   1.546542e+02   2.463348e+02
  -1.836594e+02   2.314858e+02
  -3.362515e+02   1.106404e+02
  -2.916320e+02  -2.901982e+01
  -3.007534e+01  -2.286934e+02
   2.141489e+02  -3.449198e+02
   3.890435e+02  -2.003594e+02
   2.677241e+02   1.350093e+02
   8.839940e+00   4.168637e+02
  -1.405762e+02   3.265935e+02
  -5.697859e+01   7.746600e+01
  -2.503464e+01   8.488926e-01
  -7.766012e+01   1.357499e+02
  -2.226413e+02   1.633470e+02
  -3.002721e+02  -5.904877e+01
  -1.778374e+02  -2.925525e+02
   2.151817e+01  -2.081572e+02
   2.515943e+02   9.580726e+00
   1.724714e+02   2.401267e+02
  -4.811955e+01   2.727000e+02
  -2.872793e+02   8.933550e+01
  -3.255584e+02  -1.928563e+02
  -2.007949e+02  -3.555605e+02
   9.157357e+01  -2.574339e+02
   2.029427e+02  -1.066049e+02
   1.922820e+02  -4.677861e+01
   1.063152e+02  -4.982645e+01
   2.065964e+02  -5.021001e+01
   3.655778e+02   6.082506e+01
   3.154421e+02   3.272425e+02
  -1.860300e+01   4.002080e+02
  -3.954123e+02   3.825397e+02
  -5.091726e+02   1.450738e+02
  -3.094626e+02  -1.145486e+02
  -4.317015e+01  -3.367491e+02
   1.306489e+02  -2.127707e+02
   1.463537e+02  -2.666871e+01
  -8.826085e+01   7.972228e+01
  -1.649986e+02  -1.425749e+01
  -5.358245e+01  -1.732339e+02
   1.474124e+02  -1.739317e+02
   1.190098e+02   6.777370e+01
   1.526515e+00   1.707106e+02
  -1.700268e+02  -1.460792e-01
  -1.278691e+02  -2.322495e+02
   7.891743e+01  -2.926692e+02
   2.601958e+02  -1.557007e+02
   3.303025e+02   4.910821e+01
   2.992274e+02   2.345280e+02
   7.270236e+01   2.443673e+02
  -1.147390e+02   1.746559e+02
  -1.620143e+02   1.242056e+01
  -4.323335e+00  -3.351796e+01
   2.449516e+01   7.465289e+01
   1.533996e+01   1.810308e+02
  -1.201137e+02   8.669004e+01
  -1.540119e+02  -2.100264e+01
  -4.600071e+01  -7.051609e+01
   7.222862e+01  -1.403014e+01
   1.981034e+01   6.650096e+01
  -1.165691e+02   9.746114e+01
  -2.481877e+02  -2.559167e+01
  -2.223610e+02  -1.440542e+02
  -4.643541e+01  -2.878958e+02
   2.012696e+02  -2.507542e+02
   2.837051e+02  -1.259292e+02
   1.063041e+02   8.301134e+01
  -3.145989e+01   1.062942e+02
  -4.221790e+01   1.132297e+00
   6.728893e+01  -1.127491e+02
   1.420913e+02  -5.652312e+01
   2.109775e+02   1.019901e+02
   7.279247e+01   2.016401e+02
  -6.495330e+01   1.307375e+02
  -1.573906e+02   4.679393e+01
  -6.266686e+01  -5.058276e+01
   1.453263e+01  -1.027375e+01
   3.010563e+01   9.555294e+01
  -6.726399e+01   1.252373e+02
  -1.952759e+02   7.942136e+00
  -1.682293e+02  -1.411173e+02
  -3.133594e+01  -2.077560e+02
   1.126311e+02  -1.733361e+02
   1.924510e+02   5.404504e+00
   6.930758e+01   9.020742e+01
  -4.236279e+01   1.077477e+02
  -5.283500e+01   5.066896e+01
  -3.252988e+01  -5.497484e+00
   1.976441e+00  -2.623233e-03
  -3.424471e+01  -5.164991e+00
  -9.154875e+01  -5.452458e+01
  -1.028554e+02  -1.343130e+02
  -3.625156e+00  -1.822497e+02
   1.183348e+02  -1.013666e+02
   2.204205e+02  -1.980352e+01
   2.099755e+02   1.361204e+02
   3.910223e+01   2.192955e+02
  -1.063053e+02   1.698111e+02
  -1.340165e+02   7.859860e+01
  -7.401545e+01  -5.245464e+01
  -4.684140e+01  -6.150402e+01
  -4.908370e+01   3.197956e+01
  -6.326578e+01   3.380368e+00
  -5.938576e+01  -8.024239e+01
   5.694694e+01  -1.299465e+02
   1.170072e+02  -1.007006e+02
   4.880773e+01   6.370530e+00
  -2.486080e+01   9.846181e+01
  -1.219915e+02   1.099777e+02
  -1.633283e+02   4.564612e+00
  -1.099115e+02  -1.880562e+02
   8.364926e+01  -2.580498e+02
   2.695059e+02  -9.945502e+01
   2.718543e+02   7.755956e+01
   8.392818e+01   1.776615e+02
  -6.190337e+01   1.233376e+02
  -1.298856e+02   3.913479e+01
  -7.608318e+01   5.012721e+01
  -4.934675e+01   9.045382e+01
  -7.559775e+01   9.953189e+01
  -1.100496e+02  -2.689578e+00
  -1.382584e+02  -1.372335e+02
  -5.649613e+01  -1.745201e+02
   8.011381e+01  -1.480423e+02
   1.760002e+02  -5.034730e+01
   1.946309e+02   8.937017e+01
   5.521368e+01   1.280531e+02
  -8.650783e+01   4.577180e+01
  -6.742456e+01   6.380480e+00
  -9.918236e+00  -7.124410e+01
   2.640701e+01  -2.754514e+01
  -7.973902e+01  -1.934950e+01
  -1.084858e+02  -1.436922e+01
  -3.645258e+01  -1.105261e+01
   4.882371e+01  -5.143860e+01
   1.631783e+02  -1.662336e+01
   1.208457e+02   2.601847e+01
   1.601026e+01   9.875228e+01
  -1.154434e+02   1.047008e+02
  -1.421622e+02  -1.985507e+01
  -4.103048e+01  -9.750358e+01
   1.684913e+01  -8.939759e+01
   7.786270e+01   6.560661e+00
   1.281630e+01   8.247620e+01
  -2.326537e+01   6.255243e+01
  -8.514659e+01  -4.087372e+00
  -4.715415e+01  -8.178634e+01
  -4.455692e+01  -4.517848e+01
  -2.833858e+01  -1.519914e+01
   1.329158e+00   2.362457e+00
  -1.390542e+01  -6.458136e+01
   1.743538e+01  -1.389906e+02
   1.336057e+02  -8.222974e+01
   1.562382e+02  -3.876749e+01
   1.196151e+02   7.888219e+01
  -8.086696e+00   9.164600e+01
  -9.524733e+01   4.514595e+01
  -1.859482e+01   2.356738e+01
   3.223541e+01  -2.045884e+01
   1.061385e+02   4.546249e+01
   9.370793e+01   1.247549e+02
  -7.469285e+01   1.494652e+02
  -1.780040e+02   3.076103e+01
  -1.367469e+02  -5.966498e+01
  -3.630368e+01  -1.146797e+02
   5.245565e+01  -3.492122e+01
  -4.882538e+00   3.163733e+01
  -6.541731e+01   1.292508e+01
  -9.057729e+01   2.613449e+00
  -4.767918e+01  -1.086627e+02
   6.965975e+01  -1.918159e+02
   1.212332e+02  -8.711758e+01
   1.222817e+02   8.561935e+01
   4.738923e+01   2.215118e+02
  -9.441037e+01   1.591697e+02
  -1.056819e+02  -5.388566e+00
  -4.266215e+01  -1.119438e+02
   1.728503e+01  -1.126675e+02
   3.483051e+01  -3.684503e+01
   2.554166e+01  -9.163634e-01
   9.350712e+00  -3.813691e+01
  -1.879490e+00  -2.105491e+01
   2.193116e+01   6.091531e+01
   3.528609e+01   9.815607e+01
   4.734561e+01   1.214807e+02
  -3.396147e+01   6.382303e+01
  -1.533233e+02  -8.256149e+00
  -1.450611e+02  -8.528120e+01
  -4.685569e+01  -6.157502e+01
   5.412120e+01  -4.030765e+01
   8.118372e+01   4.744691e+00
   1.647406e+01  -1.481867e-01
   1.707417e+01  -1.109584e+01
   2.446111e+01   3.178302e+01
   4.757222e+00   3.460022e+01
  -1.128178e+01   9.165898e+00
  -9.391725e+01   2.321398e+01
  -1.011097e+02  -4.815669e+01
  -4.075867e+01  -1.003649e+02
   1.231871e+02  -5.866243e+01
   1.937049e+02  -5.625209e+01
   1.286458e+02   7.008202e+01
   5.294647e+00   1.367813e+02
  -6.970983e+01   1.326342e+02
  -1.156177e+02   4.250774e+01
  -6.932654e+01  -1.329517e+01
  -2.621295e+01  -2.394634e+01
  -9.398247e+00   5.378630e+00
  -1.424939e+01  -3.342623e+01
  -6.875100e+01  -2.914719e+01
  -5.331306e+01  -1.003364e+02
   2.588481e+01  -9.263760e+01
   7.324716e+01   2.454320e+01
   6.752986e+01   6.885320e+01
   1.649262e+01   6.221705e+01
  -3.999167e+01   5.217865e+01
  -8.110968e+01  -4.481535e+01
  -6.129194e+01  -5.875475e+01
   3.274327e+01  -3.704960e+01
   7.814928e+01   1.738069e+01
   1.388129e+01   5.121423e+01
  -1.708869e+01   4.333610e+01
   2.497040e+01   6.341013e+01
   6.160696e+01   5.173457e+01
   4.073057e+01   6.349602e+00
  -3.035512e+01  -1.014419e+00
  -1.098372e+02   6.191863e+01
  -1.037612e+02   1.866391e+01
  -5.151507e+01  -4.527049e+01
   2.530825e+01  -4.824105e+01
   4.554605e+01  -7.876305e+01
   2.599990e+01  -3.934609e+01
   1.043288e+01   3.051595e+01
   1.724207e+01   6.761698e+01
  -4.371451e+01  -1.251369e+01
  -4.328144e+01  -9.400491e+01
  -8.296498e+00  -1.441897e+01
   2.176550e+01  -5.189014e+00
   2.186836e+01   5.065457e+01
   1.914017e+01  -4.232599e+01
  -2.474848e+01  -3.868743e+00
  -2.929198e+01   2.663607e+01
  -1.862613e+01   4.255248e+01
  -6.834743e+01   6.072068e+01
  -1.747758e+01  -2.141636e+01
  -3.916906e+00  -4.294161e+01
   2.411252e+01  -3.691884e+01
   3.695817e+01  -3.326099e+01
   3.406473e+01   1.057255e+01
  -1.061396e+00   6.660158e+01
  -3.534715e+01  -2.198720e+01
  -8.435453e+01  -1.358618e+01
  -2.927771e+01  -3.608426e+01
   1.452563e+01  -3.639338e+01
   7.632322e+01   1.122116e+01
  -2.174635e+00  -2.509082e+01
  -2.831349e+01  -3.108406e+01
  -2.181503e+01  -1.229794e+01
   2.087503e+01  -5.041451e+01
   1.070892e+02  -4.150709e+01
