
 $NMID
 id='ANONYMOUS ', fmtdat='(2E16.6)'
 volume=1.0
 tramp=1.0
 $END
  -3.631823e+03  -5.346666e+01
  -2.079632e+03  -2.276712e+03
   3.544408e+02  -2.083292e+03
   1.600424e+03  -8.222168e+02
   9.413831e+02   4.576864e+02
  -3.761879e+02   4.743201e+02
  -5.581467e+02  -2.904085e+02
  -1.527767e+02  -8.413648e+02
   6.567089e+02  -6.131777e+02
   8.112852e+02   9.440313e+01
   5.379519e+02   8.659302e+02
  -1.715625e+02   7.428948e+02
  -4.075364e+02   1.912745e+02
  -2.366487e+02  -5.581354e+02
   2.802136e+02  -5.163345e+02
   4.701920e+02   9.213348e+01
   2.299725e+02   4.942909e+02
  -1.022689e+02   5.296378e+02
  -6.721444e+02   1.563498e+02
  -5.512766e+02  -3.632406e+02
   1.393958e+02  -3.582771e+02
   1.257384e+02  -3.492734e+02
   1.965323e+02  -1.543721e+02
  -1.817275e+02  -1.552870e+02
  -2.530654e+02  -1.289463e+02
  -9.050076e+01  -3.476621e+02
   4.838688e+02  -2.614265e+02
   6.135193e+02   1.840245e+02
   2.882853e+02   6.687373e+02
  -3.210674e+02   2.833507e+02
  -5.837482e+02  -1.805606e+02
  -2.165138e+02  -3.638753e+02
   2.531759e+02  -5.091454e+02
   5.292358e+02  -1.193734e+02
   3.393681e+02   2.493025e+02
   3.304794e+01   3.260429e+02
  -1.967711e+02   2.059955e+02
  -1.170809e+01  -1.224725e+02
   1.564544e+02  -2.270461e+02
   3.102039e+02   5.067299e+01
   4.676526e+01   4.773239e+02
  -2.387768e+02   4.771972e+02
  -3.996489e+02   3.338078e+01
  -7.889470e+01  -2.818028e+02
   1.532386e+02  -1.207875e+02
   2.016661e+02   2.619859e+02
  -3.676795e+01   3.123068e+02
  -3.469808e+02   4.344987e+01
  -4.640984e+02  -3.432559e+02
  -1.481570e+02  -3.979496e+02
   3.172394e+02  -2.370408e+02
   5.124729e+02   6.456335e+01
   3.093034e+02   2.457977e+02
  -4.752522e+01   2.658821e+02
  -2.795645e+02   6.462477e+01
  -2.038850e+02  -1.043544e+02
  -3.510900e+01  -3.661512e+01
   3.627645e+01   1.448542e+02
  -1.611251e+02   1.265188e+02
  -2.601978e+02  -3.171516e+01
  -1.425064e+02  -2.701532e+02
   1.206491e+02  -2.258635e+02
   2.394726e+02  -8.917670e+01
   1.506407e+02   8.595316e+01
  -1.294197e+01   2.609116e+02
  -2.623145e+02   2.979430e+02
  -3.630889e+02   1.582460e+02
  -2.071316e+02  -9.809073e+01
  -7.040303e+01  -3.360349e+02
   3.146453e+01  -3.066030e+02
   6.877574e+01  -1.854742e+02
   3.477392e+01  -1.128254e+01
   8.146738e+01  -7.825215e+01
   1.805909e+02  -5.951272e+01
   2.174066e+02   6.003419e+01
   9.778861e+01   2.184029e+02
  -6.358831e+01   1.740569e+02
  -2.178688e+02  -1.892797e+01
  -1.731979e+02  -1.641295e+02
   5.597467e+01  -2.455186e+02
   2.284356e+02  -1.062853e+02
   2.853240e+02   1.311168e+02
   7.776553e+01   2.844837e+02
  -1.199515e+02   2.528295e+02
  -1.420399e+02   7.176927e+01
  -1.434033e+02   5.493083e+01
  -1.581160e+02  -1.964929e+01
  -2.587282e+02   1.849631e+01
  -3.063725e+02  -9.786759e+01
  -2.689945e+02  -2.554835e+02
   5.824612e+01  -4.321535e+02
   3.434709e+02  -4.037325e+02
   4.453524e+02  -1.644050e+02
   3.283212e+02   1.280356e+02
   2.422141e+01   2.684960e+02
  -6.683519e+01   2.160166e+02
  -5.094527e+01   4.061397e+00
   6.661686e+01  -5.069956e+01
   1.590278e+02   1.616178e+01
   2.542188e+01   1.470216e+02
  -1.215154e+02   1.218833e+02
  -1.282933e+02  -8.140883e+01
   6.234439e+01  -1.636566e+02
   1.266622e+02  -1.227997e+01
   1.837419e+02   2.039262e+02
   5.555224e+00   3.174743e+02
  -2.162536e+02   1.835462e+02
  -2.919185e+02  -7.458488e+01
  -2.577254e+02  -2.739179e+02
  -2.975221e+01  -2.148306e+02
   1.158193e+02  -1.081786e+02
   1.873020e+02   8.516689e+00
   2.806856e+01   2.435398e+01
  -1.870981e+01  -8.027443e+01
  -6.511512e+00  -7.646743e+01
   9.219862e+01  -6.428077e+01
   1.646331e+02   5.823746e+01
   8.982462e-01   6.616377e+01
  -6.934981e+01   1.319590e+01
  -5.544447e+01  -1.387728e+02
   1.493954e+02  -7.863807e+01
   3.031265e+02   4.819307e+01
   2.289782e+02   1.515223e+02
   2.862039e+01   2.652316e+02
  -2.125354e+02   2.166488e+02
  -2.798008e+02   9.108604e+01
  -1.650720e+02  -4.525648e+01
   2.990401e+01  -1.099346e+02
   5.722932e+01   6.711542e+00
  -6.496005e+01   7.991558e+01
  -1.462229e+02   3.802441e+01
  -1.915706e+02  -1.066246e+02
   8.784104e+00  -1.568940e+02
   1.141359e+02  -1.346632e+02
   1.267762e+02  -4.442413e+00
   2.859589e+01   1.497327e+01
  -5.726942e+01   2.678159e+00
  -4.415601e+01  -5.736938e+01
   8.582871e+01  -1.003206e+02
   1.801206e+02  -3.397910e+01
   1.870835e+02   1.071197e+02
   2.576911e+01   2.103746e+02
  -1.289254e+02   1.440563e+02
  -2.082052e+02   3.164620e+01
  -1.019981e+02  -8.918711e+01
  -1.551071e+00  -1.112853e+02
   2.729302e+01  -2.789039e+01
   9.998150e+00   7.269457e+00
   2.229718e+01  -1.601761e+01
   6.996733e+01  -3.070356e+01
   5.543744e+01  -1.651650e+01
   4.212928e+01   5.732510e+01
   8.086290e+00   1.252878e+02
  -9.347092e+01   1.385837e+02
  -1.632164e+02   3.445976e+01
  -1.473117e+02  -1.219738e+02
  -5.752673e+01  -1.562203e+02
   4.856572e+01  -1.112747e+02
   8.713502e+01   4.079150e+00
   6.411199e+01  -1.320174e+01
   3.399538e+01  -3.719622e+01
   6.392238e+01   1.768750e+00
   7.920331e+01   4.216396e+01
   3.959277e+01   4.007935e+01
  -4.862925e+01   6.558661e+01
  -9.050571e+01   3.807453e+01
  -6.137883e+01  -2.054524e+00
   3.399028e+01  -1.132991e+02
   1.370501e+02  -7.216476e+01
   2.150482e+02   9.639377e+01
   7.716335e+01   2.215454e+02
  -1.240062e+02   2.212466e+02
  -2.359407e+02   7.613972e+01
  -2.368742e+02  -8.965282e+01
  -1.299282e+02  -1.661030e+02
  -1.481481e+01  -1.176121e+02
   7.977473e+01  -6.298278e+01
   1.137475e+02  -7.446886e+01
   5.887122e+01  -1.252559e+02
   1.110817e+02  -6.683321e+01
   1.198689e+02   2.892306e+00
   9.331751e+01   1.366745e+02
  -2.545084e+01   2.245035e+02
  -1.232701e+02   1.712529e+02
  -1.656810e+02   2.460140e+01
  -1.067691e+02  -1.123873e+02
   7.207491e+00  -1.042704e+02
   8.371703e+01  -6.037847e+01
   2.670751e+01  -1.529258e+01
  -1.595107e-01   2.607211e+00
  -3.646335e+01   3.604962e+01
   7.823243e+01   2.449083e+01
   8.091895e+01   5.958518e+01
   3.933600e+01   6.719265e+01
  -5.094453e+01   3.458694e+01
  -1.793975e+02  -2.676180e+01
  -1.565782e+02  -5.477360e+01
  -1.426835e+01  -6.203428e+01
   1.382717e+02  -7.546472e+01
   1.266770e+02   1.190892e+01
  -6.777211e+00   7.307505e+01
  -3.854738e+01   8.457174e+01
  -9.374358e+01   1.108491e+01
   8.969930e+00  -1.064718e+02
  -3.135761e+01  -6.922030e+01
   6.868319e+01  -6.388450e+00
   5.815159e+01   5.086533e+01
   4.272136e+01   4.099338e+01
   9.941656e+01  -5.340338e+01
   4.751372e+01  -1.965262e+01
   6.290300e+01   6.145931e+01
  -5.197519e+00   1.657391e+02
  -9.452880e+01   1.393727e+02
  -1.439292e+02   4.973396e+01
  -1.669003e+02  -8.335324e+01
   7.461472e+00  -9.398786e+01
   3.257862e+01  -4.794315e+01
   6.461041e+01   4.611584e+00
  -6.952236e+01   1.903275e+01
  -1.385823e+02  -4.331021e+01
  -2.674183e+01  -1.253823e+02
   4.606560e+01  -1.248943e+02
   2.109684e+02  -4.623155e+01
   1.292517e+02   1.414950e+01
   4.019130e+01   4.066796e+01
  -7.013327e+01   3.979066e+01
  -1.066087e+02   1.383941e+01
   6.836495e+01  -3.059188e+01
   8.540807e+01   3.687500e+00
   6.334319e+01   9.547874e+01
  -9.089635e+01   1.376180e+02
  -1.534123e+02   7.227780e+01
  -8.991955e+01  -6.146058e+01
   5.803980e+00  -1.589161e+02
   1.310696e+02  -1.139374e+02
   1.124174e+02   5.106225e+00
   5.738431e+01   1.157763e+02
   5.434320e+00   1.651844e+02
  -2.021077e+01  -8.769522e+00
  -7.175296e+01  -1.952959e+01
  -2.463596e+01  -8.799604e+01
   4.081595e+00   5.622072e+00
   2.699465e+01  -8.190334e+00
  -4.021677e+01  -3.045765e+01
  -4.191821e+01  -9.333656e+01
   3.397832e+01  -3.833718e+01
   1.473099e+02  -2.820647e-01
   1.047001e+02   3.531478e+01
   2.129595e+01   2.679510e+01
  -8.719036e+01  -2.178176e+01
  -9.512196e+01  -3.525195e-01
  -1.398499e+01   1.327305e+01
   4.643353e+01  -2.341428e+01
   1.362421e+01  -2.432520e+01
  -1.930346e+01  -1.608684e+01
  -9.817802e-02   2.173557e+01
   9.645280e+01  -9.842914e+00
   1.322284e+02   6.237375e-01
   1.906248e+01   7.796218e+01
  -9.939603e+01   1.068084e+02
  -1.687056e+02   4.945195e+01
  -1.324410e+02  -5.937033e+01
  -3.877800e+00  -1.279428e+02
   8.640739e+01  -1.472788e+02
   1.083636e+02  -7.904316e+01
   1.017057e+02   3.149635e+01
   2.848816e-01   3.328543e+01
   2.723143e+00   8.106419e+00
  -4.265138e-01  -2.745151e+00
   8.611549e+00   2.277168e+01
   3.676982e+00   5.707309e+01
   1.875447e+01   8.416535e+01
  -6.731178e+01  -3.142064e+01
  -3.591093e+01  -1.037417e+02
  -2.111449e+01  -1.312302e+02
   8.600059e+01  -1.346975e+01
   7.353840e+01   4.515973e+01
   5.367271e+01   9.720568e+01
  -2.143469e+01   3.673069e+01
  -9.704910e+01  -4.603164e+01
  -5.500675e+00  -6.508311e+01
   2.996893e+01  -4.449517e+01
   5.854906e+01  -4.654859e+01
  -3.848786e+01  -2.533108e-01
  -3.189101e+01  -2.092393e+01
  -4.181032e+01   1.143852e+01
   7.300388e+01  -3.507159e+01
   8.962526e+01  -5.454258e+01
   9.119366e+01   1.462410e+01
  -3.964453e+01   7.750276e+01
  -7.829990e+01   5.055052e+01
  -1.449671e+01  -1.563524e+00
   2.824136e+01  -6.663350e+01
   6.196468e+01  -8.544745e+01
   4.253141e+01  -3.307251e+01
   9.226615e+00   6.424983e+01
  -4.853642e+00   6.528825e+01
  -3.513552e+01   2.842686e+01
  -2.371351e+01  -3.669457e+01
  -4.228839e+01   2.593382e+01
  -5.623932e+00  -4.302134e+01
   2.874163e+01  -1.562590e+01
   1.608881e+01  -1.298374e+01
   2.376590e+01  -5.488096e+01
   4.043494e+01  -2.410315e+01
   5.935099e+01   2.552582e+01
  -7.086764e+00   5.047629e+01
  -1.255981e+01   2.131323e+01
  -2.723123e+01  -3.718686e+01
   2.688575e+01  -4.988812e+01
   6.431077e+01  -3.745490e+01
   7.423550e+01   4.521479e+01
   3.256206e+01   5.374712e+01
  -5.075713e+01   3.914294e+01
  -6.731402e+01   1.523649e+00
  -4.616864e+01  -2.898852e-01
   3.259285e+01   1.688931e+01
   7.351478e+01   1.075823e+01
  -1.879457e+01   7.682252e+01
  -8.431720e+01   5.091860e+01
