
 $NMID
 id='ANONYMOUS ', fmtdat='(2E16.6)'
 volume=1.0
 tramp=1.0
 $END
   4.536431e+03   8.034716e+00
   2.764345e+03   2.779010e+03
  -4.662815e+02   3.207669e+03
  -2.365169e+03   1.191879e+03
  -1.149517e+03  -4.237501e+02
   7.560982e+02  -6.230761e+02
   9.356808e+02   3.696922e+02
   6.382437e+01   1.172080e+03
  -7.578909e+02   8.295979e+02
  -9.540075e+02  -8.890157e+01
  -6.182485e+02  -8.779391e+02
   1.930472e+02  -9.784819e+02
   5.854767e+02  -2.136335e+02
   4.277657e+02   6.670580e+02
  -1.429542e+02   9.843518e+02
  -6.331643e+02   5.181981e+01
  -3.596474e+02  -9.086433e+02
   1.542140e+02  -6.741091e+02
   6.283468e+02  -4.271279e+00
   3.745495e+02   3.368656e+02
   9.408072e+01   3.785745e+02
  -4.527718e+02   1.878867e+02
  -2.698369e+02  -6.432682e+01
   1.036615e+02  -2.726532e+02
   4.791639e+02   5.756987e+01
   2.001669e+02   5.348059e+02
  -4.200645e+02   6.255523e+02
  -8.367880e+02   1.729131e+02
  -4.000825e+02  -6.105142e+02
   3.330511e+02  -5.180372e+02
   7.864491e+02   6.716834e+01
   3.636143e+02   4.807201e+02
  -2.360080e+02   5.978511e+02
  -5.644325e+02   2.320217e+02
  -5.066377e+02  -2.434606e+02
  -1.293029e+02  -4.928954e+02
   2.598212e+02  -4.231045e+02
   2.855918e+02   2.233703e+02
  -2.010648e+02   4.621693e+02
  -5.932663e+02  -6.332960e+01
  -2.981378e+02  -7.435793e+02
   3.992555e+02  -7.862178e+02
   7.055845e+02  -6.186043e+00
   2.671262e+02   6.491269e+02
  -3.739300e+02   3.969694e+02
  -4.351618e+02  -3.821199e+02
   1.037061e+02  -6.274977e+02
   6.559991e+02  -1.039722e+02
   6.613638e+02   5.063617e+02
   1.571063e+02   6.858505e+02
  -4.285590e+02   4.018033e+02
  -6.964054e+02  -6.735156e+01
  -4.255715e+02  -4.195578e+02
   1.535161e+02  -3.879694e+02
   4.595616e+02  -4.922823e+01
   2.361456e+02   2.486535e+02
  -1.517443e+02   1.477604e+02
  -1.326781e+02  -1.555370e+02
   1.924821e+02  -2.354894e+02
   3.721569e+02   4.509727e+01
   1.196543e+02   3.177658e+02
  -2.341346e+02   3.567538e+02
  -3.681812e+02   1.736484e+02
  -2.332670e+02  -7.578255e+01
   3.856060e+01  -2.786495e+02
   2.918587e+02  -3.603444e+02
   3.739174e+02  -1.630631e+02
   2.744189e+02   2.093678e+02
   8.637475e+00   4.913808e+02
  -1.548715e+02   4.221606e+02
  -1.349817e+02   1.086273e+02
  -3.050028e+01  -3.188917e+01
  -3.367534e+01   5.103512e+01
  -2.035886e+02   1.326682e+02
  -3.091110e+02  -5.195628e+01
  -1.823676e+02  -2.915927e+02
   3.074390e+01  -3.048484e+02
   1.878099e+02  -9.990439e+00
   1.829068e+02   2.483891e+02
  -7.119341e+00   3.158896e+02
  -2.494625e+02   8.119903e+01
  -3.559069e+02  -1.899035e+02
  -1.894682e+02  -3.600858e+02
   9.040826e+01  -3.005112e+02
   2.059066e+02  -1.523092e+02
   1.277157e+02   7.770045e+00
   1.288136e+02  -1.709971e+01
   2.282937e+02   2.073594e+00
   4.197330e+02   7.487708e+01
   3.625023e+02   2.616687e+02
   2.985001e+01   4.474252e+02
  -3.771765e+02   4.434479e+02
  -5.296359e+02   2.156524e+02
  -3.419734e+02  -7.540027e+01
  -3.289100e+00  -3.241741e+02
   1.544516e+02  -2.984046e+02
   1.161944e+02  -7.136649e+01
  -7.764358e+01   8.826951e+01
  -1.730382e+02   4.095778e+01
   1.640335e+01  -1.820327e+02
   1.797372e+02  -2.086556e+02
   1.887188e+02   5.140078e+01
  -2.330655e+01   2.096050e+02
  -2.198385e+02   8.931926e+01
  -1.744946e+02  -2.332629e+02
  -1.731042e+01  -4.353105e+02
   1.813883e+02  -2.706071e+02
   3.143274e+02   2.162091e+01
   2.767560e+02   2.310536e+02
   1.072546e+02   2.696501e+02
  -1.359660e+02   1.499702e+02
  -1.831507e+02  -8.801695e+00
  -1.872515e+01  -6.114460e+01
   9.718147e+01   3.378225e+01
   2.790076e+01   1.446148e+02
  -1.756963e+02   1.268592e+02
  -2.257978e+02  -5.311550e+01
  -4.675362e+01  -1.401589e+02
   1.327788e+02  -4.394523e+01
   1.253045e+02   6.995710e+01
  -9.649806e+01   1.380509e+02
  -2.924350e+02   8.535817e+00
  -3.058819e+02  -1.327051e+02
  -6.593776e+01  -2.528376e+02
   1.475244e+02  -2.596439e+02
   2.581857e+02  -1.710640e+02
   1.048867e+02   1.118456e+01
  -6.782716e+01   8.151136e+01
  -6.902153e+01   4.838822e+01
   7.149220e+01  -1.074011e+02
   1.966741e+02  -7.823555e+01
   2.307110e+02   5.435852e+01
   5.596052e+01   1.899689e+02
  -9.146783e+01   1.800743e+02
  -1.644120e+02   8.582245e+01
  -9.147475e+01  -3.514141e+01
   4.574363e+01   1.368420e+00
   8.779720e+01   5.194946e+01
  -2.880238e+01   9.821172e+01
  -1.772445e+02   4.853606e+01
  -1.901600e+02  -1.205643e+02
  -5.586153e+01  -2.009022e+02
   1.751964e+02  -1.751566e+02
   1.888614e+02  -1.229698e+01
   6.353747e+01   1.105947e+02
  -5.212541e+01   8.822451e+01
  -1.200383e+02   5.208498e+01
  -2.762892e+01  -2.771324e+00
   3.409269e+01  -3.347606e+01
  -1.719611e+01   3.605917e+00
  -6.935594e+01   1.408491e+01
  -1.248169e+02  -7.344433e+01
  -8.417245e+00  -1.695993e+02
   1.681529e+02  -1.818971e+02
   2.726706e+02  -1.332608e+01
   2.130239e+02   1.639006e+02
   1.501628e+01   2.396837e+02
  -1.559076e+02   1.752579e+02
  -1.448514e+02  -1.751942e+01
  -7.933916e+01  -8.209015e+01
  -3.190813e+00  -2.569122e+01
  -6.083044e+01   9.324710e+00
  -9.274442e+01   3.051805e+01
  -6.031569e+01  -5.852816e+01
   2.766612e+01  -1.187174e+02
   1.239507e+02  -4.349477e+01
   1.364525e+02   4.495871e+00
   4.037984e+01   1.026577e+02
  -1.505955e+02   1.041871e+02
  -2.118297e+02  -3.890256e+01
  -8.633807e+01  -1.390805e+02
   1.200808e+02  -2.147415e+02
   2.811054e+02  -8.298777e+01
   2.414018e+02   9.961649e+01
   7.749350e+01   1.752628e+02
  -7.383020e+01   1.367373e+02
  -8.770377e+01   1.153522e+02
  -4.306425e+01   4.482282e+01
  -2.959337e+01   1.107643e+02
  -9.213935e+01   5.708125e+01
  -1.220838e+02  -3.532580e+01
  -1.444644e+02  -1.319677e+02
  -4.308950e+01  -1.843557e+02
   8.981682e+01  -1.719284e+02
   1.246770e+02  -4.029515e+01
   1.006208e+02   9.404601e+01
   4.081274e+01   1.507610e+02
  -9.730328e+01   1.038863e+02
  -4.643640e+01  -5.564071e+00
  -3.609748e+01  -5.094795e+01
   4.570599e+01  -4.105853e+01
  -2.392882e+01  -3.204675e+01
  -5.072876e+01   2.444589e+01
  -3.912288e+01  -8.368405e+00
   6.069788e+01  -5.079910e+01
   1.273885e+02  -3.567952e+01
   1.870069e+02   3.697450e+01
   4.693331e+01   1.035721e+02
  -8.517110e+01   1.016923e+02
  -8.787707e+01  -9.174871e+00
  -1.138609e+01  -5.082584e+01
   2.639112e+01  -8.522596e+00
   6.079080e+01   7.023354e+01
   2.068211e+01   5.965384e+01
  -4.387985e+01   8.312775e+01
  -5.559244e+01  -1.917401e+00
  -2.009575e+01  -2.186928e+01
  -8.175015e+01  -8.701861e+01
  -7.020966e+01  -1.694698e+01
  -4.475210e+01   3.685782e+01
  -4.016983e+01  -3.097269e+01
   3.516301e+01  -1.212825e+02
   3.954796e+01  -1.403568e+02
   1.354857e+02  -5.918946e+01
   1.282321e+02   6.970697e+01
   1.130983e+00   7.972654e+01
  -1.069007e+02   2.708555e+01
  -1.252318e+02   9.249500e+00
   3.369994e+01  -1.509048e+01
   1.722593e+02   2.573992e+01
   8.939518e+01   7.627864e+01
  -7.204974e+01   1.117869e+02
  -1.570913e+02   5.550480e+01
  -1.389328e+02  -3.831275e+01
  -5.770113e+01  -9.323313e+01
   7.248158e+01  -3.724571e+01
   4.129071e+01  -3.444947e+00
  -5.562748e+01   6.484904e+01
  -7.997103e+01  -1.097332e+01
  -4.675542e+01  -9.757068e+01
   1.218982e+02  -1.707496e+02
   1.511750e+02  -3.275997e+01
   1.092264e+02   9.622494e+01
   3.544243e+01   2.039248e+02
  -9.980211e+01   1.630142e+02
  -1.297098e+02  -1.832562e+01
  -2.609419e+01  -1.209920e+02
   1.202134e+01  -1.350220e+02
   6.984799e+01  -4.314376e-01
   9.856519e+01   2.569832e+01
   2.911488e+01   4.332173e+01
  -5.980164e+00   4.936095e+00
  -8.234762e+00   1.623782e+01
   5.190704e+01   8.477062e+01
   8.866783e+01   7.288644e+01
   1.597879e+00   4.399434e+01
  -1.162190e+02  -8.588119e+00
  -1.174800e+02  -4.348752e+01
  -7.430312e+00  -3.762793e+01
   8.373464e+01  -7.770928e+01
   4.231873e+01  -1.607769e+01
   2.990844e+00   2.564107e+01
  -6.416814e+01   4.061579e+01
  -3.749525e+01   5.374252e+01
   1.312046e+01   2.244876e+01
  -2.343134e+01  -3.226344e+01
  -1.015551e+02  -6.253811e-01
  -1.016682e+02  -8.291031e+01
  -8.041964e+00  -9.887123e+01
   1.327895e+02  -9.559126e+01
   1.880952e+02  -6.846935e+01
   9.551159e+01   3.860359e+01
   4.829756e+01   1.491817e+02
  -5.904979e+01   1.523855e+02
  -7.798844e+01   7.366026e+01
  -8.892344e+01  -9.334303e+00
  -7.431294e+01  -2.275299e+01
  -1.049348e+01   1.559110e+01
  -5.280981e+01   7.064132e+00
  -1.915843e+01  -4.628714e+01
   1.283159e+01  -1.162759e+02
   3.679100e+01  -1.155018e+02
   3.481617e+01  -3.156537e+01
   8.024903e+01   1.147581e+02
   4.664963e+01   1.377959e+02
  -5.408915e+01   3.765180e+01
  -9.592671e+01  -5.531627e+01
  -3.275146e+01  -1.096535e+02
   9.710973e+01  -3.928217e+01
   9.795213e+01   2.711061e+00
  -2.175461e+01   4.065783e+01
  -4.576698e+01   4.869107e+01
  -2.261903e+01   3.171006e+01
   1.435908e+01  -4.419697e+01
   6.666397e+01  -3.489389e+01
   1.824211e+01  -1.424892e-01
  -1.022862e+01   5.214269e+01
  -5.018712e+01   7.790868e+01
  -1.004110e+02  -3.416795e+01
   3.167881e+01  -6.468760e+01
   6.418572e+01  -7.510137e+01
   6.002645e+01   4.069329e+00
   4.909627e+00   6.959388e+01
  -2.512782e+01   4.597614e+01
  -6.016159e+01  -4.317764e+01
  -5.817579e+01  -6.346070e+01
   4.648911e-01  -3.181811e+01
   6.215764e+01   4.677279e+00
   3.180445e+01   2.508025e+01
   9.689592e+00   4.566517e+01
  -3.076533e+01  -3.978464e+01
  -2.705909e+01  -4.607666e+00
  -5.919472e+01   3.632358e+01
   2.117619e+01   2.804894e+01
  -3.610325e+01  -1.708506e+01
  -3.146793e+01  -3.871452e+01
  -1.397445e+01  -6.731589e+01
   6.143713e+01   2.043027e+01
   4.115802e+01   4.160951e+01
   4.654235e+01   7.724467e+01
  -5.219384e+01   6.766309e+01
  -7.804496e+01  -8.934633e+00
  -6.850185e+01   1.037749e+01
   8.623088e+00  -1.660201e+01
   7.712605e+01  -1.513311e+01
   3.314036e+01   1.431030e+01
  -3.173876e+01  -4.561556e+01
  -7.212030e+01  -6.866483e+00
   2.558942e+01  -1.225113e+01
   1.126999e+02  -1.521907e+01
