
 $NMID
 id='ANONYMOUS ', fmtdat='(2E16.6)'
 volume=1.0
 tramp=1.0
 $END
   4.305744e+03  -2.240361e+02
   2.830066e+03   2.483935e+03
  -5.843498e+02   2.863499e+03
  -2.184152e+03   8.298387e+02
  -1.008920e+03  -5.406458e+02
   4.794189e+02  -4.444082e+02
   9.288304e+02   3.010323e+02
  -6.521627e+01   9.787924e+02
  -9.049267e+02   6.872310e+02
  -9.504069e+02  -1.979293e-01
  -4.396198e+02  -7.904327e+02
   2.022657e+02  -9.627588e+02
   6.186543e+02   4.743786e+01
   5.574442e+02   5.412262e+02
  -2.558435e+02   6.378023e+02
  -8.609018e+02   1.185483e+02
  -5.050970e+02  -6.911686e+02
   3.679706e+02  -8.434828e+02
   6.863287e+02  -1.100796e+02
   5.144663e+02   2.583893e+02
  -3.810459e+01   4.589428e+02
  -1.820914e+02   2.311213e+02
  -2.963579e+02   5.453220e+01
   6.786698e+01   9.559390e+00
   4.323063e+02   1.528515e+02
   1.970640e+02   4.593198e+02
  -4.232721e+02   3.253397e+02
  -8.049984e+02  -1.000919e+02
  -4.124898e+02  -5.548827e+02
   4.211281e+02  -4.565046e+02
   7.806797e+02  -2.674075e+01
   4.369205e+02   4.677972e+02
  -2.239146e+02   5.572795e+02
  -5.285143e+02   2.748022e+02
  -3.259148e+02  -1.679546e+02
  -4.518001e+01  -4.342562e+02
   1.832361e+02  -3.208670e+02
   1.446927e+02   2.217558e+02
  -1.679212e+02   4.249903e+02
  -4.389960e+02  -2.172309e+01
  -2.320788e+02  -7.045561e+02
   3.012917e+02  -7.481375e+02
   6.309921e+02   2.180071e+01
   2.289416e+02   5.711639e+02
  -3.030930e+02   3.375421e+02
  -3.391213e+02  -3.900846e+02
   1.274939e+02  -5.296163e+02
   5.694304e+02  -1.296166e+02
   5.050586e+02   4.342784e+02
   1.436786e+02   6.209973e+02
  -4.361285e+02   3.619048e+02
  -6.278827e+02  -1.092105e+02
  -3.572997e+02  -4.751913e+02
   1.757016e+02  -4.270401e+02
   4.747997e+02  -8.527416e+01
   2.665645e+02   3.046441e+02
  -1.306297e+02   1.392648e+02
  -1.697403e+02  -1.804538e+02
   1.559762e+02  -2.435101e+02
   3.074065e+02   9.135509e+01
   1.729626e+02   3.210893e+02
  -1.835591e+02   2.428213e+02
  -2.975788e+02   1.036732e+02
  -1.979743e+02  -3.244650e+01
   1.557848e+01  -1.977675e+02
   1.841804e+02  -3.897549e+02
   3.300205e+02  -2.574190e+02
   3.141332e+02   1.344203e+02
   4.487272e+01   5.231786e+02
  -1.478075e+02   4.142768e+02
  -1.185130e+02   6.468168e+01
  -2.809175e+00  -5.344669e+01
  -5.828955e+00   7.039659e+01
  -1.878040e+02   1.646524e+02
  -3.355476e+02  -7.368473e+01
  -2.014180e+02  -2.633099e+02
   8.231735e+01  -2.259383e+02
   2.651703e+02  -5.329871e+00
   1.962116e+02   2.742482e+02
  -2.940487e+01   3.786357e+02
  -2.993989e+02   9.270121e+01
  -4.307552e+02  -2.263694e+02
  -2.373779e+02  -3.735570e+02
   1.134588e+02  -3.312694e+02
   2.707835e+02  -8.872940e+01
   1.984193e+02  -4.398791e-01
   9.181046e+01  -2.273736e+01
   1.676706e+02  -5.623015e+01
   3.764699e+02   3.645782e+01
   3.675863e+02   2.489226e+02
   6.578844e+00   4.368245e+02
  -3.424176e+02   4.467494e+02
  -5.039765e+02   2.281237e+02
  -3.494043e+02  -7.908841e+01
  -3.129610e+01  -3.365961e+02
   1.438765e+02  -2.656141e+02
   9.272819e+01  -4.911647e+01
  -9.374897e+01   9.957988e+01
  -2.242285e+02   1.235237e+01
   1.080721e+00  -1.595108e+02
   1.971246e+02  -1.198212e+02
   1.617771e+02   8.492483e+01
  -2.373717e+01   2.280430e+02
  -2.500138e+02   6.319828e+01
  -1.857090e+02  -2.629916e+02
   2.848003e+01  -3.916727e+02
   1.991184e+02  -2.374271e+02
   3.278491e+02   6.832340e+01
   3.161974e+02   2.402288e+02
   8.903951e+01   2.306599e+02
  -1.326017e+02   1.831205e+02
  -1.495203e+02   1.508230e+01
  -5.733265e+01  -5.953907e+01
   8.675522e+01  -5.797482e+00
   5.006452e+01   1.074041e+02
  -9.904473e+01   9.036517e+01
  -1.572562e+02   2.107314e+01
  -6.855324e+01  -4.888997e+01
   1.155471e+02   4.190421e+01
   6.278553e+01   8.386788e+01
  -1.376617e+02   6.873316e+01
  -2.978833e+02  -9.100648e+00
  -2.659763e+02  -1.379037e+02
  -7.455337e+01  -2.405416e+02
   1.789780e+02  -3.064951e+02
   2.475724e+02  -1.584026e+02
   1.824599e+02   4.617128e+01
   3.766840e+01   8.647347e+01
  -8.482676e+01  -3.665689e+01
  -1.599901e+01  -1.474718e+02
   2.273140e+02  -1.842010e+01
   2.879513e+02   1.391963e+02
   8.399061e+01   2.471060e+02
  -5.915568e+01   1.692154e+02
  -1.455888e+02   1.180483e+01
  -8.250703e+01  -4.357499e+01
  -1.612539e+00  -3.385519e+01
   4.499318e+01   6.819934e+01
  -8.506279e+01   1.060491e+02
  -1.850460e+02   6.206941e+01
  -1.843075e+02  -1.172571e+02
  -2.342510e+01  -2.270071e+02
   1.755264e+02  -1.779868e+02
   2.132091e+02  -1.428783e+01
   2.990445e+01   1.236065e+02
  -1.292646e+02   1.034431e+02
  -6.029018e+01   2.921312e+01
  -1.831917e+01  -1.045426e+02
   1.502496e+00  -6.658613e+00
  -1.689563e+01   4.228321e+01
  -5.521791e+01   1.780288e+01
  -5.550010e+01  -8.411567e+01
  -2.993134e+01  -1.592401e+02
   7.333207e+01  -1.747722e+02
   2.084572e+02  -2.744159e+01
   2.165716e+02   1.393221e+02
   8.338035e+01   2.287744e+02
  -4.156205e+01   2.018185e+02
  -1.376583e+02   3.168664e+00
  -5.221517e+01  -6.162425e+01
  -4.180617e+01  -4.065088e+01
  -4.865792e+01   5.527292e+01
  -4.237068e+01  -4.439437e+00
  -9.554370e+00  -3.045444e+01
   4.199857e+01  -6.284763e+01
   7.024271e+01  -4.194703e+01
   3.469095e+01   3.128033e+01
  -6.863263e+01   3.802693e+01
  -1.039974e+02   1.161270e+02
  -1.696177e+02  -4.389797e+01
  -1.042055e+02  -2.347863e+02
   1.042705e+02  -2.290338e+02
   3.126050e+02  -9.993945e+01
   2.849906e+02   9.742863e+01
   8.638672e+01   2.135294e+02
  -9.605067e+01   1.780855e+02
  -1.232181e+02   1.054461e+02
  -1.134171e+02   5.787265e+01
  -8.132901e+01   6.527227e+01
  -6.073690e+01   7.672414e+01
  -9.898866e+01  -2.854218e+01
  -1.242025e+02  -1.143654e+02
  -8.600132e+01  -1.743266e+02
   6.689339e+01  -1.895434e+02
   1.806686e+02  -7.594008e+01
   1.668934e+02   1.486331e+02
   3.664770e+01   1.535873e+02
  -7.524773e+01   1.341017e+02
  -8.264470e+01  -3.095338e+01
   1.500748e+01  -7.509519e+01
  -1.952133e+01  -4.191666e+01
  -4.001538e+01  -1.544578e+01
  -7.467137e+01  -9.700269e+00
   1.049008e+01  -5.987778e+01
   9.020247e+01   5.502034e+01
   1.595956e+02  -1.249076e+01
   1.417210e+02   2.079406e+01
  -1.070907e+01   4.226317e+01
  -1.064960e+02   9.256192e+01
  -2.098354e+02   3.916054e+01
  -5.580907e+01  -5.604119e+01
   3.915193e+01  -3.525127e+01
   7.705008e+01  -2.419201e+00
  -7.286309e+00   4.365687e+01
  -8.490438e+01   7.638396e+01
  -9.000878e+01   2.000609e+01
  -4.999767e+01  -2.570478e+01
  -4.496639e+01  -3.117514e+01
  -7.841651e+01  -6.312067e+01
  -6.535386e+01   1.213011e+01
  -8.832889e-01  -5.518349e+01
   1.966537e+01  -1.327443e+02
   1.003068e+02  -1.391420e+02
   1.287478e+02  -7.043976e+01
   1.328247e+02   9.614219e+01
  -6.499373e-01   1.282256e+02
  -8.371355e+01   6.980715e+01
  -8.489167e+01   2.924516e+01
   5.540637e+01  -3.327754e+01
   1.365766e+02   3.666667e+01
   6.723394e+01   6.042309e+01
  -5.591048e+01   8.894533e+01
  -1.548733e+02   6.488547e+01
  -1.604547e+02  -6.438114e+01
  -5.843206e+01  -6.688991e+01
   3.045731e+01  -2.941327e+01
   8.137069e+00  -2.040689e+01
  -3.246884e+01   4.674307e+00
  -7.703021e+01  -1.509590e+01
  -4.027003e+01  -1.404300e+02
   5.371936e+01  -1.570082e+02
   1.418514e+02  -3.164808e+01
   1.649958e+02   9.995104e+01
   2.782298e+01   1.755742e+02
  -8.010471e+01   1.018878e+02
  -1.171489e+02  -3.496530e+01
  -1.035609e+02  -7.747958e+01
  -2.169675e+01  -1.071663e+02
   3.025550e+00  -5.467363e+01
   5.737368e+01   2.765933e+01
   4.698782e+01  -3.147391e+01
   2.604683e+01  -2.280586e+01
   4.463965e+01   3.370195e+01
   7.283077e+01   9.131653e+01
   4.722970e+01   9.051930e+01
  -8.597540e+01   3.324997e+01
  -1.310677e+02  -5.685430e+01
  -1.377763e+02  -7.576380e+01
   2.506061e+01  -3.694934e+01
   6.622101e+01   1.557895e+00
   4.703613e+01  -1.217568e+01
  -7.254910e+00  -5.565065e+01
  -3.204639e+01  -3.886275e+01
  -1.151872e+01   2.020363e+01
   2.774731e+01  -1.605523e+00
  -2.451044e+01   3.015968e+01
  -5.927692e+01  -2.934723e+01
  -8.250830e+01  -7.786849e+01
  -1.883594e+01  -1.002814e+02
   9.971395e+01  -1.199388e+02
   1.961124e+02  -6.516546e+01
   1.534890e+02   7.290573e+01
   2.928824e+01   1.764074e+02
  -5.746943e+01   1.786551e+02
  -9.787074e+01   1.909120e+01
  -6.841484e+01  -2.581601e+00
  -2.064863e+01  -5.895626e+01
   1.213372e+01   4.530820e+01
  -1.928052e+01   2.202871e+00
  -3.766209e+01  -7.756673e+01
  -1.518600e+01  -6.663646e+01
   6.276893e+01  -8.112430e+01
   6.712523e+01  -1.607646e+01
   9.422156e+01   9.998094e+01
  -4.419431e+00   9.755644e+01
  -6.896132e+01   5.330586e+01
  -6.662262e+01  -7.437127e+01
  -2.839826e+01  -8.664048e+01
   5.318730e+01  -9.485842e+01
   7.596629e+01   1.556645e+01
  -3.649930e+00   5.354234e+01
  -2.304677e+01   8.970752e+01
   2.409384e+01   2.523062e+00
   4.218861e+01  -7.103811e+01
   3.078679e+01  -4.608627e+01
   3.743629e+01   5.133253e+01
  -4.376423e+01   5.209437e+01
  -8.770683e+01   6.489603e+01
  -5.367253e+01   6.709938e+00
   3.786885e+01  -9.269089e+01
   5.292302e+01  -6.680918e+01
  -3.472840e+00   2.603868e+01
   9.319999e+00   7.999080e+01
  -3.813099e+01   4.544282e+01
  -5.366245e+01  -4.609745e+01
  -7.061664e+00  -5.897894e+01
   1.917442e+01  -5.318917e+01
   5.560053e+01  -2.103641e+01
   6.368010e+01   8.605224e+00
   1.222629e+01   5.262671e+01
   9.719222e+00   1.575300e+00
   6.895725e+00   3.429542e+00
   2.688112e+01   4.083255e+01
  -2.856008e+01   6.079327e+01
  -6.690018e+01   5.497470e+01
  -4.154609e+01  -1.817419e+01
  -2.636340e+01  -6.985757e+01
   3.155477e+01  -4.199215e+01
   5.013962e+01   8.924852e-01
  -1.675447e+01   4.010651e+01
  -1.804718e+01   4.547859e+01
  -3.428543e+01   2.550136e-01
  -7.703055e+01  -4.093496e+01
   1.581660e+01  -3.222346e+00
   7.039965e+01   6.668882e-01
   1.369891e+01  -1.374109e+01
  -2.625040e+01   1.915351e+01
  -2.736019e+01  -2.998935e+01
   2.444999e+01  -4.242345e+00
   1.001485e+02   4.451491e+00
