
 $NMID
 id='ANONYMOUS ', fmtdat='(2E16.6)'
 volume=1.0
 tramp=1.0
 $END
   3.122384e+03   7.557658e+01
   1.811946e+03   1.762348e+03
  -1.147103e+02   1.643008e+03
  -1.121363e+03   1.176584e+03
  -8.371208e+02   1.946362e+02
   8.647133e+01  -2.119377e+02
   4.163133e+02   2.890444e+02
  -1.112659e+02   6.387354e+02
  -4.626167e+02   4.982873e+02
  -5.204969e+02   2.945374e+01
  -4.217746e+02  -6.005251e+02
  -2.112315e+01  -4.704549e+02
   2.042252e+02  -1.470236e+02
   2.581361e+02   3.457123e+02
  -1.628063e+02   7.359935e+02
  -2.847805e+02  -1.309761e+01
  -2.922283e+02  -2.874352e+02
   1.794950e+02  -3.358772e+02
   3.803480e+02  -1.621967e+02
   3.549319e+02  -1.692182e+01
   1.852638e+02   4.514737e+02
  -8.016111e+01   8.882822e+01
  -9.622845e+01   5.369725e+00
   1.732537e+02   2.331746e+01
   2.310681e+02   3.743787e+02
   8.140928e+01   2.666904e+02
  -3.284469e+02   1.343700e+02
  -4.514064e+02  -2.942083e+02
  -1.236664e+02  -3.390353e+02
   4.017664e+02  -5.818635e+01
   4.246183e+02   2.646877e+02
   2.220032e+02   4.146986e+02
  -2.195300e+02   3.721798e+02
  -5.452148e+02   7.413370e+01
  -3.072018e+02  -1.733485e+02
  -9.478206e+01  -2.781813e+02
   1.920134e+00  -1.105556e+02
  -3.411026e+01  -1.023307e+01
  -1.501586e+02   1.397637e+02
  -1.254404e+02  -1.859823e+02
   8.289571e+01  -3.788523e+02
   2.699702e+02  -2.988157e+02
   2.768639e+02   5.159808e+01
   1.290630e+02   1.857469e+02
  -1.112936e+02   1.673393e+02
  -1.640967e+02  -1.746471e+02
   5.143704e+01  -2.748446e+02
   3.064272e+02  -6.562873e+01
   4.467563e+02   2.505364e+02
   1.590122e+02   3.486747e+02
  -1.946158e+02   2.439693e+02
  -4.844871e+02   4.484353e+00
  -3.728875e+02  -2.093765e+02
   6.069046e+00  -2.006826e+02
   2.420507e+02  -8.766355e+01
   2.200277e+02   1.079879e+01
   7.285487e+01   4.747366e+01
   2.603149e+01  -5.678198e+00
   8.969094e+01  -4.943933e+01
   1.841870e+02   3.225551e+01
   1.024687e+02   2.107150e+02
  -1.448457e+02   2.770114e+02
  -2.762265e+02   1.728595e+02
  -2.168118e+02  -5.475208e+01
  -2.641022e+00  -2.869230e+02
   2.670155e+02  -3.376471e+02
   3.067482e+02  -1.140342e+02
   1.578462e+02   1.521286e+02
   4.135378e+01   2.986767e+02
  -4.257348e+01   2.746937e+02
  -1.301687e+01   1.748773e+02
   2.090452e+00   8.020923e+01
  -8.504088e+01   5.165057e+01
  -1.856455e+02   1.826137e+01
  -2.195151e+02  -1.020085e+02
  -8.559553e+01  -2.106765e+02
   6.446001e+01  -1.373968e+02
   1.855499e+02   3.522998e+01
   1.232301e+02   2.463686e+02
  -4.663718e+01   2.108941e+02
  -1.999180e+02   6.423654e+01
  -2.762830e+02  -1.556846e+02
  -1.272017e+02  -2.817788e+02
   4.144768e+01  -3.002548e+02
   1.609694e+02  -1.219375e+02
   1.240421e+02  -5.127814e+01
   1.332455e+02  -3.828374e+01
   2.403531e+02  -4.753619e+01
   3.415172e+02   6.198433e+01
   2.634829e+02   2.037695e+02
  -1.142958e+01   3.447793e+02
  -3.021638e+02   3.379625e+02
  -4.171095e+02   1.723001e+02
  -2.706733e+02  -5.947320e+01
  -4.779954e+01  -1.888655e+02
   1.030609e+02  -1.547308e+02
  -1.381683e+01  -8.297438e+01
  -1.333869e+02   1.398438e+01
  -1.440923e+02  -8.373296e+01
  -4.103150e+01  -1.585360e+02
   1.090548e+02  -5.419545e+01
   1.323309e+02   3.413518e+01
   3.030319e+01   1.268852e+02
  -1.254206e+02   6.278942e+00
  -8.867316e+01  -1.880177e+02
   4.401157e+01  -2.689723e+02
   1.925647e+02  -1.669490e+02
   2.388758e+02   7.800024e+01
   2.342018e+02   2.019969e+02
   5.291581e+01   2.184837e+02
  -5.489341e+01   1.197166e+02
  -7.823556e+01   1.168382e+01
  -1.227903e+01  -2.339743e+00
   2.077350e+01   5.953545e+01
  -2.810798e+01   8.434736e+01
  -1.125496e+02   6.260844e+01
  -9.863997e+01   2.761636e+01
  -1.457349e+01  -1.978804e+01
   6.551388e+01   4.774646e+00
   2.281296e+01   6.871509e+01
  -1.123129e+02   6.250645e+01
  -2.658551e+02  -3.781841e+01
  -2.093042e+02  -1.477752e+02
  -3.562528e+01  -1.581986e+02
   1.537547e+02  -1.896906e+02
   1.895666e+02  -6.508909e+01
   6.729756e+01   2.436894e+01
  -5.480137e+01   5.219945e+01
  -1.933912e+01  -3.109998e+01
   3.087432e+01  -8.552302e+01
   1.624622e+02  -4.178682e+01
   1.530930e+02   9.679106e+01
   3.537789e+01   1.438921e+02
  -4.405461e+01   8.082743e+01
  -9.060238e+01   2.387124e+01
   1.740736e+01  -5.043251e+01
  -2.477843e+01   2.632421e+01
  -3.822358e+00   8.106426e+01
  -8.348937e+01   1.166608e+02
  -1.754889e+02   3.354853e+01
  -9.970536e+01  -9.603770e+01
  -2.469703e+01  -1.584637e+02
   9.041220e+01  -1.634820e+02
   9.852216e+01  -3.687810e+01
   2.034346e+01   7.671804e+01
  -3.364577e+01   8.920355e+01
  -7.327573e+01  -3.763615e+01
  -2.474189e+01  -3.744006e+01
   4.556397e+01   2.404168e+01
  -3.098915e+01   2.150475e+01
  -6.860623e+01   1.811835e+01
  -1.147331e+02  -1.302156e+02
  -1.712621e+01  -1.767927e+02
   1.772175e+02  -1.682465e+02
   2.040673e+02  -2.785093e+01
   2.088495e+02   1.310128e+02
  -1.371224e+01   1.856963e+02
  -7.459545e+01   1.865748e+02
  -8.689708e+01   5.386857e+01
  -7.035342e+01  -4.344235e+01
  -4.561539e+01  -1.150340e+01
  -8.142780e+01   1.311465e+01
  -1.019620e+02  -2.569431e+01
  -4.672623e+00  -6.773688e+01
   6.048949e+01  -1.242991e+02
   1.145877e+02  -2.769945e+01
   8.161291e+01   9.595056e+01
  -2.086147e+01   1.200017e+02
  -1.465360e+02   4.774961e+01
  -1.545011e+02  -1.034215e+02
  -2.257613e+01  -1.767618e+02
   1.495216e+02  -1.712715e+02
   1.916483e+02  -6.446852e+01
   1.864683e+02   9.586948e+01
   8.112824e+01   1.728383e+02
  -1.017744e+01   9.165074e+01
  -8.974004e+01   5.856407e+01
  -9.591988e+01   4.039756e+01
  -3.490902e+01   1.079323e+02
  -9.619455e+01   6.685701e+01
  -8.753958e+01  -4.238186e+01
  -1.281030e+02  -1.272671e+02
   3.954865e+00  -2.003062e+02
   8.392570e+01  -1.103438e+02
   1.168101e+02   1.204243e+01
   1.079262e+02   1.473775e+02
  -4.233729e+01   1.382213e+02
  -7.545402e+01   9.728099e+01
  -6.096058e+01  -6.165706e+00
   6.003518e-01  -4.279955e+01
  -7.925203e+00  -5.379517e+01
  -6.983973e+01  -4.030415e+01
  -2.075946e+01  -1.017904e+01
  -3.741737e+01  -1.787031e+01
   8.161042e+01  -2.667615e+01
   1.626937e+02  -2.369942e+01
   9.840936e+01   4.185616e+01
   7.679394e+00   9.692627e+01
  -6.980689e+01   6.816832e+01
  -1.095774e+02  -6.762375e+00
  -3.003248e+01   5.741008e+00
   1.396524e+01  -2.495031e+01
   5.212178e+01   4.799538e+01
   3.330897e+01   3.284645e+01
  -2.855161e+01   4.099402e+01
  -6.132981e+01   2.530793e+01
  -5.589446e+01  -6.572079e+01
  -3.396640e+01   4.673416e-01
  -6.157418e+01   3.678529e+01
  -7.091231e+01   2.602991e+01
  -3.249964e+01  -1.009433e+02
  -6.890676e+00  -1.799665e+02
   1.196611e+02  -1.261019e+02
   1.508395e+02  -4.276706e+01
   1.234148e+02   1.158735e+02
   3.855191e+00   1.645775e+02
  -8.091344e+01   8.972499e+01
  -7.422375e+01  -2.394419e+01
   1.291286e+01  -3.678134e+01
   1.156466e+02   1.073780e+01
   7.373635e+01   7.476349e+01
  -3.046785e+01   1.039878e+02
  -1.600300e+02   6.659128e+01
  -8.475156e+01  -5.375545e+01
  -1.087253e+01  -8.401840e+01
   6.463307e+01  -1.049531e+02
   4.894079e+01  -2.630980e+01
  -4.336238e+01   2.037568e+01
  -8.501047e+01   5.190769e+00
  -3.084845e+01  -9.883977e+01
   6.165796e+01  -1.244524e+02
   1.374927e+02  -8.138442e+01
   1.284598e+02   4.181687e+01
   3.114104e+01   1.157474e+02
  -5.482563e+01   1.089594e+02
  -9.844466e+01  -2.524354e+01
  -7.928956e+01  -9.205134e+01
   1.914599e+01  -6.875674e+01
   4.744687e+01  -3.509837e+01
   6.376674e+01   5.147155e+01
   1.272953e+01   1.539964e+00
   1.579958e+01   9.516404e+00
  -2.045658e+01   1.418576e+01
   1.956802e+01   7.171529e+01
   8.845006e+00   7.362651e+01
  -2.397879e+01   5.269763e+01
  -1.181066e+02  -2.750134e+01
  -6.000901e+01  -3.749251e+01
  -2.035063e+01  -2.366956e+01
   6.906293e+01  -3.542174e+01
   6.860430e+01  -4.406695e+00
  -2.099964e+01  -8.697914e+00
  -3.529978e+00  -3.485504e+01
  -1.052229e+01  -6.923830e+00
  -1.412479e+01  -6.118248e+00
  -1.078379e+01  -9.530042e-01
  -9.557422e+01  -1.437084e+01
  -5.174860e+01  -1.914687e+01
  -1.094960e+01  -9.657177e+01
   1.380521e+02  -1.144043e+02
   1.574324e+02  -6.471366e+01
   1.121605e+02  -1.141253e+00
   3.268338e+01   1.753475e+02
  -3.146330e+01   1.374281e+02
  -1.329103e+02   6.648498e+01
  -7.074651e+01   1.984299e+01
  -8.031573e+00   2.814558e+01
   6.621845e+00  -6.564442e+00
  -6.197314e+01  -7.208730e+00
  -5.518759e+01  -2.796502e+01
  -3.794746e+01  -4.183252e+01
   1.367122e+01  -8.951793e+01
   3.617657e+01  -5.356703e+00
   8.269232e+01   7.386661e+01
   2.831115e+01   8.324407e+01
  -8.091265e+01   1.307325e+01
  -9.535806e+01  -4.588102e+01
  -4.597569e+01  -5.847462e+01
   8.002989e+01  -6.941178e+01
   9.722262e+01   1.151867e+01
   6.658302e+01   4.008535e+00
   9.029730e+00   1.493078e+01
  -2.751351e+00  -6.487501e+00
   3.566989e+00  -1.779123e+01
   6.685649e+01  -3.092091e+01
   2.773897e+01   3.846912e+01
  -3.431180e+01   7.158396e+01
  -8.824178e+01   6.235239e+01
  -2.101640e+01  -1.342311e+01
   3.559327e+01  -6.292316e+01
   1.409702e+01  -9.709829e+01
   2.354487e+01  -1.063131e+01
   3.022943e-01   4.885983e+01
  -2.850400e+01   6.044594e+01
  -2.793350e+01  -1.277262e+01
  -5.289742e+00  -2.799757e+01
   4.177870e+01  -1.578826e+01
   6.426825e+01  -5.220090e-01
   9.395212e+00   2.648946e+01
   4.101935e+00  -1.727184e+01
  -4.022187e+01  -4.882496e+01
   4.609627e+00  -6.964182e+00
   3.437178e+01  -6.638757e+00
   3.830857e+01   1.527074e+01
   1.282209e+01   2.679315e+01
  -2.241960e+00   1.750590e+00
  -2.322684e+01  -5.531772e+01
   4.438991e+01  -2.574398e+01
   3.633782e+01   1.568796e+01
   2.919243e+01   6.298503e+01
  -2.807247e+01   1.463397e+00
  -6.521390e+01  -1.076664e+01
  -5.519079e+01  -1.393932e+01
   1.384735e+01  -7.538164e+00
   2.855053e+01  -2.883852e+01
   2.537933e+01  -9.967461e+00
  -1.062505e-01   1.611182e+01
  -5.506808e+01  -6.130844e+01
   7.101490e+00  -3.298293e+01
   2.286500e+01  -3.921429e+01
