
 $NMID
 id='ANONYMOUS ', fmtdat='(2E16.6)'
 volume=1.0
 tramp=1.0
 $END
  -2.919896e+03  -3.175536e+02
  -1.537966e+03  -1.484722e+03
  -1.728910e+02  -1.777182e+03
   9.161395e+02  -1.103779e+03
   8.659410e+02  -1.596830e+02
  -6.962404e+01   3.130259e+02
  -3.418624e+02  -7.654410e+01
   4.531947e+01  -5.262664e+02
   4.422560e+02  -4.892789e+02
   7.086247e+02  -2.729236e+01
   3.920742e+02   4.469365e+02
  -1.323033e+02   5.613340e+02
  -4.737301e+02   1.330735e+02
  -8.774400e+01  -2.477729e+02
   1.024975e+02  -6.147756e+02
   3.000357e+02   1.045873e+02
   3.479774e+02   4.088935e+02
  -5.221524e+01   5.532079e+02
  -3.475696e+02   3.999097e+02
  -4.090384e+02  -2.404111e+02
  -1.353693e+02  -1.570418e+02
   1.375163e+02  -3.611217e+02
   1.607648e+01  -1.330078e+02
  -1.556351e+02  -1.005362e+02
  -1.209942e+02  -1.686634e+02
   9.594640e+01  -3.197295e+02
   5.925676e+02  -1.043041e+02
   5.406069e+02   4.641470e-03
   1.318654e+02   2.577760e+02
  -2.948866e+02   2.150279e+02
  -3.184155e+02  -8.634406e+01
  -1.011737e+02  -2.248331e+02
   3.136280e+02  -4.257710e+02
   5.095859e+02  -1.080612e+02
   3.378239e+02   1.249597e+02
   1.015809e+02   2.868871e+02
  -1.326281e+01   2.076372e+02
   1.261220e+02  -1.048848e+02
   1.563699e+02  -1.136400e+02
   1.644380e+02   4.934420e+01
  -3.207792e+01   3.557797e+02
  -1.521810e+02   3.296699e+02
  -1.977732e+02   3.311587e+01
  -1.011909e+02  -2.071020e+02
   1.593673e+02  -5.458476e+01
   1.183853e+02   2.401320e+02
  -1.598595e+02   2.960458e+02
  -3.611264e+02   2.771285e+01
  -4.246342e+02  -3.269243e+02
  -1.126987e+02  -4.009720e+02
   2.450251e+02  -2.317754e+02
   4.208676e+02   4.353436e+01
   2.635799e+02   2.170919e+02
  -2.443762e+01   1.558431e+02
  -1.915957e+02   5.164145e+01
  -1.928963e+02  -2.184111e+01
  -4.795219e+01  -1.557847e+01
   4.179860e+01  -3.837488e+01
  -4.671997e+01   7.710240e+00
  -1.753329e+02  -4.367954e+01
  -1.082612e+02  -1.608521e+02
   1.506599e+02  -1.799741e+02
   3.421719e+02  -1.160161e+02
   2.427097e+02   1.371800e+02
  -3.283005e+01   2.865676e+02
  -2.430536e+02   2.815101e+02
  -3.299283e+02   1.084786e+02
  -1.855229e+02  -1.205071e+02
  -7.729748e+01  -2.875686e+02
   1.772039e+01  -2.591735e+02
   3.093742e+01  -1.761284e+02
   2.658383e+01  -1.525308e+02
   1.227262e+02  -9.418591e+01
   2.083354e+02  -4.202901e+00
   2.076585e+02   1.223104e+02
   1.025888e+02   1.951517e+02
  -7.638297e+01   1.198561e+02
  -1.485143e+02  -7.050489e+01
  -1.458345e+02  -2.436092e+02
   5.549508e+01  -2.237576e+02
   2.712869e+02  -3.973013e+01
   3.157345e+02   1.466283e+02
   1.827726e+02   2.828190e+02
  -2.920859e+01   2.215174e+02
  -1.361694e+02   1.963117e+02
  -1.244079e+02   9.579422e+01
  -1.226785e+02   8.076312e+01
  -2.548194e+02   3.697096e+00
  -3.250952e+02  -1.315996e+02
  -2.492118e+02  -2.867058e+02
   6.722307e+01  -3.833889e+02
   3.481273e+02  -3.147876e+02
   3.716054e+02  -1.369088e+02
   2.462046e+02   1.150184e+02
  -1.810384e+01   2.255056e+02
  -6.530996e+01   1.608275e+02
   4.200684e+00   2.951294e+01
   1.219625e+02  -2.276748e+01
   6.644062e+01  -1.088890e+01
   7.463245e+00   8.535605e+01
  -7.360739e+01   6.461177e+01
  -8.310272e+01  -8.810159e+01
   3.921429e+01  -9.017181e+01
   1.580113e+02   6.257150e+01
   9.869953e+01   2.541972e+02
  -2.671338e+01   3.368094e+02
  -2.470291e+02   1.464673e+02
  -3.174247e+02  -7.643609e+01
  -2.398757e+02  -1.828348e+02
  -5.117117e+01  -2.095933e+02
   1.245993e+02  -1.182975e+02
   1.391442e+02  -7.615617e+00
  -3.749088e+01  -1.135045e+01
  -8.902296e+01  -4.938605e+01
  -1.192368e+01  -1.252507e+02
   1.236295e+02  -3.464682e+01
   1.855842e+02   3.099233e+00
   4.158177e+01   1.949410e+01
  -2.701969e+01   1.096322e+01
  -2.344471e+01  -7.816223e+01
   1.381036e+02  -1.253481e+02
   3.037643e+02   5.459238e+00
   2.650104e+02   1.498775e+02
  -5.079043e+00   2.626986e+02
  -1.903773e+02   1.762092e+02
  -2.585186e+02   5.991939e+01
  -1.358955e+02  -6.375994e+01
   5.491041e+01  -8.591515e+01
   1.077929e+02   2.766949e+01
  -4.787756e+00   7.259078e+01
  -1.541783e+02   1.305266e+01
  -1.980182e+02  -9.462597e+01
  -3.573599e+01  -1.975518e+02
   8.849439e+01  -1.086835e+02
   1.061567e+02  -3.337681e+01
   7.436907e+01   5.860268e+01
  -6.279555e+01  -3.093234e+01
  -2.063144e+01  -7.267202e+01
   8.614001e+01  -8.189268e+01
   2.090865e+02  -4.085392e+01
   1.986196e+02   1.290389e+02
   4.224270e+01   1.782603e+02
  -1.390660e+02   1.226757e+02
  -1.251249e+02   5.240173e+01
   1.019954e+01  -6.503276e+01
   6.161664e+01  -9.367278e+01
   4.349404e+01  -5.478846e+00
  -2.563093e+01   4.405858e+01
  -3.681173e+01   4.054259e+01
   2.418120e+01  -2.274670e+01
   8.002438e+01  -6.623384e+00
   6.931650e+01   8.650243e+01
  -2.325445e+01   1.194043e+02
  -1.207499e+02   1.544302e+02
  -2.171781e+02   3.456767e+01
  -1.940056e+02  -1.604836e+02
   1.127937e+01  -1.619797e+02
   1.125501e+02  -1.341353e+02
   1.404925e+02  -4.540157e+01
   5.899953e+01   4.791963e+01
   5.545718e+01   9.996510e+00
   6.127053e+01   2.613276e+01
   8.686271e+01  -1.497768e+01
   4.596535e+01   4.764452e+01
  -4.216190e+01   1.584830e+02
  -1.468395e+02   1.019084e+02
  -1.358499e+02  -4.456665e+01
  -6.414338e+00  -1.434016e+02
   1.320185e+02  -1.387929e+02
   2.039096e+02   7.110122e+01
   9.846464e+01   1.945624e+02
  -1.560684e+02   1.803519e+02
  -2.204888e+02   3.039464e+01
  -2.015417e+02  -9.333470e+01
  -9.943021e+01  -1.380695e+02
   2.819952e+01  -1.282790e+02
   8.725815e+01  -8.912790e+01
   4.317992e+01  -3.153641e+01
   2.466586e+01  -9.572603e+01
   4.049716e+01  -8.572045e+01
   1.239438e+02   4.209904e+00
   1.505282e+02   1.157690e+02
   5.167397e+01   2.193972e+02
  -7.847023e+01   1.506491e+02
  -1.578253e+02   2.987375e+01
  -6.959953e+01  -4.750274e+01
   2.620544e+01  -1.088262e+02
   9.217401e+01  -5.283675e+01
   6.971991e+01   5.714703e+01
   6.548546e+00   6.193263e+01
  -6.920719e+01   4.747403e+00
   1.716693e+01  -4.290825e+01
   4.806881e+01  -1.320591e+01
   7.894011e+00   5.144591e+01
  -5.909549e+01   6.869702e+01
  -1.007955e+02  -1.204347e+01
  -1.404056e+02  -3.816784e+01
  -1.621687e+00  -1.098008e+02
   1.130027e+02  -7.277980e+01
   1.028122e+02  -1.124859e+01
   1.676989e+01   3.445488e+00
  -7.166570e+01   1.304531e+01
  -4.929932e+01   1.253100e+01
  -2.611378e+01  -8.876094e+01
   4.170313e+01  -6.859106e+01
   6.433108e+01  -1.896128e+01
   4.979227e+01   6.001211e+01
   8.473064e+01   3.438874e+01
   4.479512e+01  -2.166314e+01
   3.905155e+01   1.384527e+01
   5.354368e+01   1.390419e+02
  -1.020599e+01   1.382126e+02
  -6.093688e+01   1.787119e+02
  -1.418587e+02   2.573741e+01
  -1.223439e+02  -4.251907e+01
   2.183929e+00  -8.456588e+01
   7.727952e+01  -3.390684e+01
   2.760061e+01   1.502811e+01
  -8.528598e+01  -1.593923e-01
  -1.484132e+02  -6.945693e+01
  -5.977121e+01  -1.090110e+02
   5.616177e+01  -1.416430e+02
   1.394236e+02  -4.701705e+01
   1.166733e+02   1.684914e+01
   8.230003e+01   9.870120e+01
  -3.128998e+01   5.490835e+01
  -1.666390e+01   1.412228e+01
   5.571163e+01  -3.652354e+01
   1.051853e+02   4.239869e+01
  -3.744899e+00   9.903970e+01
  -6.228535e+01   1.364202e+02
  -1.744391e+02   7.587919e+01
  -1.346059e+02  -8.949016e+01
  -3.091996e+01  -1.616849e+02
   6.229795e+01  -9.943886e+01
   8.462723e+01  -3.018609e+01
   6.642285e+01   1.096832e+02
  -2.292541e+01   9.576229e+01
  -3.998316e+01   9.349191e-01
  -4.669299e+01  -2.264512e+00
  -2.194543e+00  -1.106279e+01
  -8.778569e+00   3.293150e+01
  -3.585878e+01  -5.488848e+01
  -1.695981e+01  -1.220229e+02
   6.261029e+00  -7.034261e+01
   1.150449e+02  -2.670287e+00
   9.442461e+01   5.803932e+01
   9.021707e+01   8.392136e+01
  -3.376799e+01   6.421302e+01
  -1.005044e+02   1.617024e+01
  -9.046894e+01   1.209528e-02
  -5.349349e+01  -2.215557e+01
   5.663486e+01  -3.069657e+01
   4.521658e+01  -9.451628e+00
   2.045425e+01  -3.459687e-01
   3.081437e+01   6.636718e+00
   6.400632e+01  -1.248099e+01
   7.992711e+01  -1.927789e+01
   1.306175e+00   9.062459e+01
  -8.940912e+01   9.110849e+01
  -1.755415e+02   6.278624e+01
  -1.449303e+02  -8.242161e+01
  -2.263951e+01  -1.130308e+02
   5.688948e+01  -1.409456e+02
   1.124807e+02  -5.913606e+01
   6.699512e+01   2.954353e+01
   4.569552e+01   5.257291e+01
   9.048227e+00   3.065102e+00
  -9.982947e+00   3.996143e+01
   4.738267e+01   3.582011e+01
   2.196469e+01   7.481046e+01
  -3.424427e+01   5.258666e+01
  -3.986927e+01  -8.434430e+00
  -6.365035e+01  -8.186360e+01
   2.465976e+00  -8.147658e+01
   6.165609e+01  -3.143479e+01
   8.132127e+01   7.119560e+01
   6.440971e+01   1.046282e+02
  -5.319445e+01   5.963777e+01
  -1.130971e+02  -1.568673e+01
  -6.165946e+01  -5.241076e+01
  -7.433169e+00  -8.783798e+01
   5.505677e+01  -4.613133e+01
   2.571907e+01  -1.684859e+01
  -2.592237e+01  -1.636510e+01
   7.966520e+00  -1.620278e+01
   5.734254e+01  -3.207175e+01
   9.109902e+01  -7.174488e+00
   5.384850e+01   3.590811e+01
  -1.876599e+01   4.730545e+01
  -6.924758e+01   7.282807e+01
  -1.363472e+01   1.620747e+01
  -1.062037e+01  -4.288619e+01
   4.971045e+01   3.051466e+00
   4.679033e+01  -3.834441e+00
  -5.426376e+00   6.287769e+01
  -4.734394e+01   7.326365e+01
  -5.097573e+01   4.788077e+00
  -5.832322e+01  -1.273094e+01
  -2.069334e+01  -1.588144e+01
  -7.471411e+00  -5.127642e+00
   1.904070e+01  -1.007403e+01
  -2.604145e+01  -1.671059e-01
   8.949071e+00  -4.408760e+01
   2.989259e+01   3.059058e+01
   3.421394e+01   2.180306e+01
   1.255169e+01   5.259789e+01
  -7.040187e+01   9.074331e+00
  -7.049579e+01  -1.880225e+01
   9.476662e+00  -6.993692e+01
   5.051654e+01  -3.108061e+01
   1.148471e+02   5.374606e+00
   6.302054e+01   2.524774e+01
  -1.039311e+01   4.145692e+01
  -6.190976e+01   3.035096e+01
  -1.484783e+01   3.384609e+00
   2.117027e+01  -1.801996e+01
   2.682570e+01  -4.491144e+01
  -1.518260e+00   2.652487e+01
  -2.609116e+01   3.308119e+01
