
 $NMID
 id='ANONYMOUS ', fmtdat='(2E16.6)'
 volume=1.0
 tramp=1.0
 $END
   3.602968e+03  -5.507283e+01
   2.325731e+03   2.251368e+03
  -3.592372e+02   2.484842e+03
  -1.693878e+03   9.711759e+02
  -9.152269e+02  -3.450938e+02
   1.302670e+02  -4.354806e+02
   5.505976e+02   3.461065e+02
   1.405575e+02   8.218948e+02
  -6.372492e+02   6.046362e+02
  -7.283850e+02   7.761202e+01
  -4.553730e+02  -6.257199e+02
   9.915748e+01  -6.937289e+02
   4.167896e+02   9.901458e+00
   4.065535e+02   6.051410e+02
  -1.293849e+02   6.194644e+02
  -3.083835e+02   1.697371e+02
  -2.887397e+02  -5.607515e+02
   2.570762e+02  -8.662344e+02
   6.641675e+02  -7.170388e+01
   5.254915e+02   2.296552e+02
   1.254740e+02   7.098595e+02
  -1.984158e+02   2.659894e+02
  -3.019532e+02  -3.079451e+01
   9.750496e+01   3.621193e+00
   3.485081e+02   2.691708e+02
  -9.185760e-01   4.622021e+02
  -4.664176e+02   3.224051e+02
  -7.781586e+02  -5.476005e+01
  -3.823911e+02  -3.892607e+02
   2.575951e+02  -4.007552e+02
   7.292092e+02   6.447880e+01
   2.664513e+02   3.784130e+02
  -3.604543e+02   3.874013e+02
  -4.088385e+02   1.073143e+02
  -3.186161e+02  -2.773645e+02
  -1.227637e+01  -4.967954e+02
   1.536682e+02  -2.429286e+02
   1.454886e+02   2.492820e+02
  -2.296289e+02   2.922092e+02
  -3.448554e+02  -1.281786e+02
  -1.389066e+02  -6.157131e+02
   2.441441e+02  -5.993415e+02
   5.131535e+02   3.615520e+01
   2.301595e+02   4.027157e+02
  -1.727347e+02   2.355471e+02
  -3.165041e+02  -3.211455e+02
   7.937571e+01  -4.540342e+02
   5.456433e+02  -1.479030e+02
   6.345519e+02   3.592766e+02
   1.965676e+02   5.856427e+02
  -3.964501e+02   3.204652e+02
  -6.804208e+02  -7.382311e+01
  -3.467320e+02  -3.377757e+02
   1.781165e+02  -3.002430e+02
   3.858664e+02  -7.375785e+01
   2.224800e+02   1.463619e+02
  -3.602687e+01   6.137528e+01
  -1.047626e+02  -8.471574e+01
   1.111684e+02  -7.454409e+01
   2.628942e+02   3.885090e+01
   1.631215e+02   2.189392e+02
  -1.015493e+02   2.371280e+02
  -3.247906e+02   1.258474e+02
  -2.978187e+02  -6.974884e+01
  -5.977565e+01  -2.669724e+02
   2.379952e+02  -3.629154e+02
   3.937391e+02  -1.837391e+02
   2.926375e+02   1.705730e+02
   5.802527e+01   4.008826e+02
  -1.072157e+02   3.297294e+02
  -6.883778e+01   1.457161e+02
   2.275244e+01   6.632008e+01
  -8.853101e+01   1.208639e+02
  -2.662761e+02   1.120430e+02
  -3.382339e+02  -5.485571e+01
  -1.417021e+02  -2.846495e+02
   9.281655e+01  -2.487695e+02
   2.168908e+02  -3.077989e+01
   1.203148e+02   2.090878e+02
  -6.806380e+01   2.775895e+02
  -2.549777e+02   1.232346e+02
  -3.031213e+02  -2.329844e+02
  -1.568415e+02  -4.004201e+02
   9.217925e+01  -3.488745e+02
   2.266838e+02  -1.675129e+02
   1.617610e+02  -1.985990e+01
   1.686177e+02  -5.016109e+01
   2.995275e+02  -2.593041e+01
   4.139742e+02   1.218524e+02
   3.316190e+02   3.741418e+02
  -5.214817e+01   4.633598e+02
  -3.732698e+02   3.998952e+02
  -5.100902e+02   1.825943e+02
  -3.304522e+02  -9.441294e+01
  -7.692594e+01  -2.657470e+02
   9.737939e+01  -2.092748e+02
   2.576056e+01  -5.713058e+00
  -1.553161e+02   5.144171e+01
  -1.633919e+02  -7.103476e+01
  -3.900848e+01  -2.045788e+02
   1.624998e+02  -1.839494e+02
   1.476489e+02   2.119843e+01
  -2.208597e+01   1.328622e+02
  -1.248779e+02   3.010795e+01
  -1.012945e+02  -2.469381e+02
   1.052913e+02  -3.422436e+02
   2.227791e+02  -2.162320e+02
   3.130348e+02   9.852918e+01
   2.821191e+02   3.185867e+02
   8.418035e+01   2.948867e+02
  -1.159369e+02   1.590586e+02
  -1.785563e+02  -8.816665e+00
  -7.214971e+01  -3.921784e+01
   3.415031e+01   6.805296e+01
  -4.964737e+00   9.005127e+01
  -1.553698e+02   6.944826e+01
  -1.810289e+02  -2.050626e+01
  -3.914905e+01  -1.414479e+01
   6.563455e+01  -2.238690e+01
   5.295267e+01   4.032378e+00
  -9.750052e+01   2.945771e+01
  -2.910049e+02  -1.681462e+01
  -2.877527e+02  -1.555821e+02
  -1.730824e+01  -2.808873e+02
   2.341903e+02  -2.790631e+02
   3.002601e+02  -1.027374e+02
   1.659716e+02   4.505076e+01
   1.189572e+01   1.165774e+02
  -4.702459e+01  -6.133168e+00
   4.696268e+01  -6.014514e+01
   1.960288e+02   4.803357e+00
   1.433211e+02   9.482454e+01
   2.686747e+01   2.000399e+02
  -9.123906e+01   1.464168e+02
  -9.604314e+01   1.973834e+01
  -8.649584e+01  -3.419308e+01
   2.121379e+01  -2.379232e+01
   2.115440e+01   1.265869e+02
  -9.444084e+01   1.219678e+02
  -1.862452e+02   1.406036e+01
  -1.648712e+02  -1.797472e+02
  -7.675586e+00  -2.327562e+02
   1.528175e+02  -1.344424e+02
   1.889689e+02  -2.491677e+01
   9.020421e+01   1.316541e+02
  -9.615485e+01   7.455722e+01
  -6.497979e+01   4.178166e+00
   1.568181e+01  -1.782699e+01
   3.727088e+01  -2.923080e-01
  -1.432020e+01   1.084600e+01
  -9.170440e+01  -8.419770e+00
  -9.163523e+01  -5.927792e+01
  -5.697564e+01  -1.919479e+02
   9.813603e+01  -1.649231e+02
   2.483289e+02  -1.490565e+00
   2.044347e+02   1.529927e+02
   3.846321e+01   2.695945e+02
  -1.291095e+02   1.741802e+02
  -1.687924e+02   3.207890e+01
  -8.810606e+01  -4.926662e+01
  -3.016368e+01  -7.662615e+01
  -4.667719e+01   1.686246e+00
  -8.497590e+01  -2.427617e+01
  -6.032884e+01  -1.074839e+02
   2.990893e+01  -1.143768e+02
   1.704133e+02  -7.142624e+01
   1.170933e+02   3.029019e+01
  -2.978961e+01   1.275395e+02
  -1.457365e+02   6.265137e+01
  -2.085859e+02  -6.160987e+01
  -9.971627e+01  -2.340106e+02
   1.432333e+02  -2.359832e+02
   2.526797e+02  -7.102997e+01
   2.284578e+02   9.440062e+01
   8.254639e+01   1.801096e+02
  -7.269616e+01   1.501451e+02
  -1.288712e+02   7.399380e+01
  -9.061711e+01   4.790963e+01
  -3.180336e+01   1.196443e+02
  -1.103166e+02   1.137265e+02
  -1.357503e+02  -3.602916e+01
  -1.555077e+02  -1.694357e+02
  -7.498938e+01  -2.523412e+02
   9.622007e+01  -1.771015e+02
   1.761708e+02  -1.437398e+00
   1.782930e+02   1.029458e+02
  -4.248743e+00   1.437653e+02
  -1.142642e+02   4.701550e+01
  -8.154199e+01  -3.049103e+01
  -1.327173e+01  -4.294720e+01
   1.824755e+01  -6.167647e+01
  -3.023508e+01  -8.330143e+01
  -8.357975e+01  -2.856597e+01
  -6.325153e+01  -9.893383e+00
   4.085808e+01  -9.598275e+00
   1.652046e+02  -1.829290e+01
   1.320968e+02   1.010826e+02
  -4.521549e+01   9.990297e+01
  -1.687959e+02   4.161384e+01
  -1.537918e+02   1.497054e+01
  -4.175951e+01  -1.041870e+01
   8.173706e+01  -4.087339e+01
   7.394276e+01   2.214277e+00
   1.139417e+01   9.824029e+01
  -9.753227e+01   6.036562e+01
  -5.965955e+01  -5.660365e+00
  -4.885844e+01  -1.283011e+00
  -7.315964e+01  -8.132126e+01
  -8.656651e+01  -3.566786e+01
  -5.561274e+01  -2.576062e+01
   4.420694e+00  -9.310534e+01
   2.811629e+01  -1.241569e+02
   1.181766e+02  -1.438895e+02
   1.611148e+02  -4.816960e+00
   5.301586e+01   9.952605e+01
  -6.522042e+01   1.501496e+02
  -1.029433e+02   5.451424e+01
  -6.917537e+01  -2.236871e+01
   9.703623e+01   7.462197e-01
   1.326810e+02   4.100867e+01
   1.840913e+01   9.093565e+01
  -1.427626e+02   1.110106e+02
  -1.752738e+02   5.025001e+01
  -1.237159e+02  -7.056674e+00
  -1.310416e+01  -8.688978e+01
   5.579199e+01  -7.936991e+01
   2.539158e+01  -2.400025e+01
  -7.396150e+01  -7.858963e+00
  -1.315075e+02  -6.070426e+01
  -4.505220e+01  -1.444560e+02
   1.155591e+02  -2.080086e+02
   1.584932e+02  -7.861005e+01
   1.299733e+02   1.021842e+02
  -2.747675e+01   1.623460e+02
  -9.052092e+01   1.355034e+02
  -1.176197e+02  -6.749552e+01
  -7.434075e+01  -1.755260e+02
  -4.437116e+00  -9.886270e+01
   4.579719e+01  -3.500315e+01
   3.979675e+01   4.336846e+01
   2.983535e+01   1.494574e+01
   1.662034e+01  -7.849165e+00
   2.028386e+00   9.761173e+00
   5.986132e+01   9.715393e+01
   1.611994e+01   8.877947e+01
  -6.404867e+01   2.130019e+01
  -1.586841e+02  -3.109584e+01
  -1.460870e+02  -1.070388e+02
  -3.412330e+01  -8.584197e+01
   8.716717e+01  -1.670136e+01
   1.026778e+02  -2.842823e+01
   3.663233e+01   4.076694e+01
  -4.275922e+01  -7.248082e+00
  -3.383546e+01   5.311082e+01
  -1.858688e+01   2.626713e+01
  -3.089791e+01   1.654688e+01
  -7.225993e+01  -2.012454e+01
  -1.106338e+02  -3.853789e+01
  -4.183869e+01  -1.100607e+02
   1.081226e+02  -9.877869e+01
   1.971775e+02  -5.029559e+01
   1.462464e+02   4.209720e+01
  -5.418360e+00   1.323235e+02
  -9.839241e+01   1.141297e+02
  -6.769098e+01   5.336433e+01
  -5.122833e+01   8.771002e+00
  -2.011025e+01  -4.299100e+01
   3.769654e-01  -1.225229e+01
   5.592096e+00   2.732817e+01
  -5.660417e+01  -1.691383e-01
  -4.124957e+01  -1.222286e+02
   7.246142e+01  -6.833606e+01
   7.262330e+01   2.865999e+01
   1.027882e+02   1.056555e+02
  -8.795953e+00   8.920522e+01
  -5.608761e+01   1.854379e+01
  -6.895784e+01  -6.079737e+01
   2.655296e+01  -7.824696e+01
   7.066401e+01  -3.403365e+01
   8.920196e+01   3.551781e+01
  -1.474786e+01   2.290593e+01
  -2.974248e+01   5.890533e+01
  -3.284742e+01   5.779596e+01
   5.559436e+01  -3.879959e+00
   6.077093e+01  -4.356513e+00
   5.714916e+01   5.974811e+01
  -8.516685e+01   9.004065e+01
  -1.366422e+02   6.239479e+01
  -7.725915e+01   5.076983e+01
   3.154653e+01  -6.724290e+01
   7.163875e+01  -6.874948e+01
   8.411557e+00  -2.057706e+01
  -1.142158e+01   1.078047e+01
   1.578869e-01   5.004315e+01
   2.123463e+01  -2.552667e+01
  -1.320518e+01  -3.815511e+01
   3.643878e+00  -4.771051e+00
   9.394415e+00   5.621640e+00
   3.726395e+01   1.801399e+01
   4.837810e+00   2.402409e+01
  -2.625716e+01  -2.246633e+01
  -2.935678e+01  -1.795352e+01
   1.663154e+01  -6.283669e-01
  -5.216966e+01   4.669824e+01
  -1.661887e+01  -1.551767e+01
  -1.524857e+01  -1.548678e+01
  -1.473056e+01  -3.978312e+01
   3.692841e+01   8.550003e+00
   1.379664e+01   4.095529e+01
   6.408541e+01   6.865334e+01
  -6.106187e+01   3.562535e+01
  -6.057393e+01  -1.309178e+01
  -5.446774e+01  -4.238070e+01
   6.989822e+01  -3.084511e+01
   6.314704e+01  -4.591730e+01
   6.694888e+01  -3.692223e+01
  -3.393720e+01   2.823780e+01
  -1.305635e+01   3.710857e+00
   4.443142e+01   3.050603e+01
   8.948099e+01   1.689331e+01
