
 $NMID
 id='ANONYMOUS ', fmtdat='(2E16.6)'
 volume=1.0
 tramp=1.0
 $END
  -4.390513e+03   5.532421e+01
  -2.709539e+03  -2.745449e+03
   4.943493e+02  -2.785357e+03
   1.926448e+03  -1.043657e+03
   1.007516e+03   3.462301e+02
  -7.884857e+02   5.078370e+02
  -8.036798e+02  -4.336598e+02
  -9.678710e+01  -1.085253e+03
   7.947421e+02  -7.734689e+02
   8.975658e+02   1.016396e+02
   5.854457e+02   8.203079e+02
  -1.689601e+02   9.709602e+02
  -5.521007e+02   9.947342e+01
  -4.987759e+02  -6.331337e+02
   1.921103e+02  -7.600900e+02
   6.510488e+02  -1.057838e+02
   1.927843e+02   7.482881e+02
  -3.809285e+02   5.318070e+02
  -4.313163e+02   2.862984e+02
  -4.538828e+02  -2.834345e+02
   1.252449e+01  -4.145407e+02
   2.759137e+02  -2.742662e+02
   1.517667e+02   2.324963e+02
  -1.673605e+02   7.909953e+01
  -4.251343e+02  -9.536551e+01
  -2.708834e+02  -5.101739e+02
   4.050595e+02  -4.240140e+02
   7.845847e+02   1.042124e+02
   4.556658e+02   5.745221e+02
  -4.022805e+02   4.655893e+02
  -7.801834e+02   4.665013e+01
  -5.597845e+02  -4.559377e+02
   1.880368e+02  -5.550786e+02
   6.243641e+02  -2.543589e+02
   3.684507e+02   2.655564e+02
   7.590047e+01   4.282780e+02
  -1.832418e+02   2.848210e+02
  -1.101607e+02  -1.850491e+02
   1.218240e+02  -3.454549e+02
   4.155909e+02   5.016292e+01
   2.201727e+02   6.725537e+02
  -3.162033e+02   6.295233e+02
  -6.161084e+02   2.389078e+01
  -2.473505e+02  -5.575846e+02
   3.185208e+02  -3.794789e+02
   4.311411e+02   2.430233e+02
  -5.461284e+01   5.983586e+02
  -5.613941e+02   2.331804e+02
  -5.711975e+02  -3.871755e+02
  -1.390176e+02  -6.485065e+02
   4.295563e+02  -3.841046e+02
   6.798930e+02   1.423334e+02
   3.352514e+02   4.466420e+02
  -1.692707e+02   4.399953e+02
  -4.468892e+02   9.920259e+01
  -2.260048e+02  -1.803555e+02
   7.795051e+01  -1.209234e+02
   8.881877e+01   1.648150e+02
  -1.739164e+02   2.009393e+02
  -3.366605e+02  -9.204611e+01
  -1.549499e+02  -3.204120e+02
   2.099946e+02  -2.783238e+02
   3.283599e+02  -6.879541e+01
   1.732601e+02   1.248624e+02
  -7.240233e+01   2.523890e+02
  -2.380423e+02   3.716448e+02
  -3.151487e+02   2.027156e+02
  -2.641964e+02  -1.983907e+02
  -3.502798e+01  -4.931004e+02
   1.358935e+02  -3.859543e+02
   1.185325e+02  -1.114170e+02
   4.731879e+01   7.557354e+00
   8.388829e+01  -1.087370e+02
   2.317160e+02  -1.309903e+02
   2.379975e+02   9.488589e+01
   1.408449e+02   3.202487e+02
  -9.299893e+01   2.603312e+02
  -2.234654e+02  -1.158514e+01
  -1.743403e+02  -2.706265e+02
   4.631465e+01  -2.952780e+02
   3.255626e+02  -5.505149e+01
   3.673891e+02   1.817518e+02
   1.972443e+02   3.625521e+02
  -1.143826e+02   3.187186e+02
  -2.903137e+02   1.330689e+02
  -1.811468e+02   3.309827e+01
  -7.026574e+01   4.509346e+01
  -2.265231e+02   8.643016e+01
  -4.122252e+02  -8.170598e+01
  -3.614539e+02  -3.091051e+02
   4.690250e+00  -4.764459e+02
   3.830752e+02  -4.416284e+02
   4.902667e+02  -1.784876e+02
   3.030760e+02   1.398103e+02
   5.169622e+01   3.411127e+02
  -1.193400e+02   3.035566e+02
  -1.324191e+02   3.361475e+01
   5.004350e+01  -1.383892e+02
   1.798413e+02   6.595790e-01
   3.709006e+01   1.813475e+02
  -1.501910e+02   1.258157e+02
  -1.823616e+02  -1.137124e+02
   5.158575e+01  -2.043053e+02
   2.131610e+02  -4.190602e+01
   1.386565e+02   2.070656e+02
  -3.618452e+01   3.261781e+02
  -2.335216e+02   1.649175e+02
  -2.959920e+02  -2.522806e+01
  -3.186565e+02  -2.231496e+02
  -8.711475e+01  -2.850492e+02
   1.402608e+02  -1.880412e+02
   1.915911e+02  -6.041442e+01
   7.982269e+01   3.784492e+01
  -4.417485e+01  -1.547114e+01
  -4.989744e+01  -3.465522e+01
   5.665318e+01  -8.012012e+01
   1.571215e+02  -2.137348e+00
   5.845827e+01   1.913511e+01
  -1.086289e+02  -5.345578e+01
  -5.403666e+01  -7.550243e+01
   1.268173e+02  -1.255103e+02
   2.930399e+02  -1.389390e+01
   2.831327e+02   7.906808e+01
   2.898506e+01   2.381141e+02
  -1.860099e+02   2.776154e+02
  -2.800259e+02   1.141548e+02
  -1.699348e+02  -3.448863e+01
  -1.689798e+01  -1.037136e+02
   8.938922e+01   2.119752e+01
  -2.846717e+01   1.068029e+02
  -1.621525e+02   5.867908e+01
  -2.248652e+02  -1.424151e+02
  -1.152040e+02  -2.141966e+02
   5.683245e+01  -1.231913e+02
   1.495373e+02  -5.316493e+01
   6.887233e+01   3.878779e+01
   1.516125e+01  -2.695238e+01
  -6.112676e+01  -7.842460e+01
   5.186347e+01  -1.143147e+02
   1.542821e+02  -2.745829e+01
   1.649032e+02   1.281970e+02
   2.418014e+01   2.180693e+02
  -1.821422e+02   1.552247e+02
  -2.280989e+02  -4.403189e+01
  -5.386836e+01  -1.006308e+02
   4.720518e+01  -8.001213e+01
   1.264461e+02  -8.530842e+00
   6.073272e+01   7.684843e+01
   1.201584e+00   5.082136e+01
  -2.209729e+01  -1.545708e+01
   7.234688e+01   1.670571e+01
   7.871299e+01   1.086271e+02
  -2.072657e+01   1.256403e+02
  -1.470960e+02   1.515143e+02
  -2.527921e+02  -9.089322e+00
  -2.049087e+02  -1.259948e+02
  -4.910789e+01  -2.341535e+02
   1.167323e+02  -1.706424e+02
   1.347154e+02  -1.518528e+00
   6.902429e+01   5.127047e+01
   1.044772e+00   4.097498e+01
   4.647560e+01  -2.009495e+01
   8.662085e+01  -4.493647e+00
   4.947424e+01   6.696812e+01
  -7.013473e+00   9.653844e+01
  -7.880634e+01   1.325442e+01
  -4.440859e+01  -9.412068e+01
   7.426086e+01  -1.241196e+02
   1.753016e+02  -8.550583e+01
   2.007347e+02   6.209202e+01
   8.854980e+01   2.410261e+02
  -1.318212e+02   2.823331e+02
  -2.836418e+02   1.229482e+02
  -2.483630e+02  -1.165418e+02
  -1.144963e+02  -1.693172e+02
   2.607116e+01  -1.737049e+02
   1.139810e+02  -7.694886e+01
   1.175801e+02  -6.570491e+01
   6.020157e+01  -1.035281e+02
   6.841613e+01  -7.101327e+01
   1.279292e+02   2.195721e+01
   1.148108e+02   1.419006e+02
   8.635937e+01   1.823778e+02
  -1.189441e+02   1.488886e+02
  -1.576453e+02   1.299791e+01
  -1.253066e+02  -1.129679e+02
  -4.726015e+01  -1.484296e+02
   3.971061e+01  -1.057958e+02
   3.256617e+01   4.698794e+00
   2.954682e+01   6.828192e+01
   2.971756e+00   2.747060e+01
   6.292969e+01  -1.144161e+01
   9.629394e+01   1.307669e+01
   5.025900e+01   5.222278e+01
  -8.030833e+01   8.282599e+01
  -2.126215e+02   7.502396e+01
  -1.361119e+02  -6.302422e+01
   1.753246e+00  -9.781015e+01
   1.125624e+02  -9.360637e+01
   1.395225e+02   1.632454e+01
   5.908151e+01   6.378582e+01
  -6.971488e+01   3.079236e+01
  -1.051196e+02  -1.361932e+01
  -2.640862e+01  -1.005079e+02
   4.416581e+01  -3.795621e+01
   8.948076e+01   2.290586e+00
   4.688744e+01   3.577148e+01
   1.955407e+01   6.022192e+01
   5.039646e+01   3.004430e+01
   8.089622e+01  -3.365674e+00
   3.961939e+01   6.375052e+01
  -9.646457e+01   1.165425e+02
  -8.586892e+01   6.928211e+01
  -1.417855e+02   3.625539e+01
  -7.708389e+01  -8.831095e+01
   3.493464e+01  -1.441188e+02
   9.688393e+01  -7.213368e+01
   5.680077e+01   2.536817e+01
  -7.772814e+01   2.101122e+01
  -1.427561e+02  -2.673879e+01
  -9.238604e+01  -1.233504e+02
   1.115990e+02  -1.619329e+02
   1.931391e+02  -6.596347e+01
   1.755786e+02   2.378249e+01
   5.263732e+01   7.568274e+01
  -6.673303e+00   1.072943e+02
  -3.363811e+01   2.860911e+01
   3.844276e+01  -1.420828e+00
   9.843814e+01   3.881762e+01
   2.938791e+01   1.129045e+02
  -6.118449e+01   1.103919e+02
  -1.350331e+02   2.814015e+01
  -1.140688e+02  -7.888016e+01
  -1.483449e+01  -1.454754e+02
   7.461591e+01  -1.274766e+02
   8.821923e+01  -8.157161e+00
   3.890742e+01   1.242984e+02
  -1.173170e+01   1.154443e+02
  -5.289202e+01  -1.181870e+01
  -2.959015e+01  -1.477954e+01
   3.202023e+00  -2.751838e+01
   2.361563e+01   2.072514e+01
  -2.884547e+01   2.192887e+01
  -6.413268e+01  -4.715975e+01
  -3.480671e+01  -1.003689e+02
   1.197875e+02  -4.094652e+01
   1.233914e+02  -4.494801e+00
   1.259051e+02   8.778245e+01
  -9.252537e+00   6.956326e+01
  -1.120074e+02   3.698059e+01
  -1.370813e+02   1.408653e+01
  -1.144826e+01  -5.139323e+00
   3.221465e+01  -3.123585e+00
   1.578968e+01   5.552100e+00
  -4.278413e+01  -4.155883e+00
   8.548598e+00  -2.026577e+01
   1.033894e+02   4.512674e+00
   9.690688e+01   2.218332e+00
   1.926859e+01   1.152571e+02
  -9.505957e+01   1.172605e+02
  -1.818012e+02   9.090271e+01
  -1.270235e+02  -4.572619e+01
  -6.606414e+01  -1.708994e+02
   6.903503e+01  -1.563732e+02
   9.772391e+01  -8.808159e+01
   1.173622e+02   2.007322e+01
   1.011767e+01   3.778422e+01
  -1.111479e+01   8.836488e+00
   1.366176e+01  -3.885898e+01
   4.156131e+01   5.476518e+01
   1.581135e+01   8.132377e+01
  -2.641759e+01   7.538140e+01
  -7.953671e+01  -1.501705e+01
  -7.451496e+01  -9.230855e+01
  -6.845378e+00  -1.307203e+02
   1.045360e+02  -5.359981e+01
   7.259704e+01   6.688703e+01
   6.441344e+01   8.851774e+01
  -4.623047e+01   6.717825e+01
  -5.434246e+01  -4.218270e+01
  -4.866600e+01  -5.803461e+01
   2.210987e+01  -8.225968e+01
   2.591771e+01  -3.107763e+01
   3.703589e+00   1.497159e+01
  -6.545676e+01   3.025981e+01
  -3.042357e+01   1.133809e+00
   7.054942e+01  -6.810215e+01
   1.063146e+02  -5.255323e+01
   6.988319e+01   2.211992e+01
  -2.376940e+01   9.339533e+01
  -2.300864e+01   7.641075e+01
  -9.503008e+00   2.457296e+00
  -3.075785e+00  -7.747264e+01
   8.804879e+00  -7.463885e+01
   5.017281e+01   4.497448e+01
  -3.587283e+01   6.292278e+01
  -1.526581e+01   8.339063e+01
  -5.011200e+01  -7.771877e+00
  -5.956323e+01  -4.897668e+01
  -4.648670e+01  -2.408124e+01
  -1.324680e+01   8.938643e+00
  -1.047793e+01   3.934226e+01
   1.901368e+01  -1.600040e+01
   7.223597e+00  -2.711308e+01
   3.953154e+01  -3.010800e+01
   2.538665e+01   4.305602e+01
  -1.922345e+01   8.678453e+01
  -3.783523e+01   3.478810e+01
  -2.403033e+01  -5.558525e+01
  -1.975673e+01  -1.062908e+02
   5.280232e+01  -3.286032e+01
   1.033624e+02   2.832522e+01
   5.224542e+01   5.651214e+01
  -2.581703e+00   4.107184e+01
  -8.523845e+01  -2.132244e+01
  -1.748855e+01  -1.960303e+01
   1.868675e+01  -2.976728e+00
   4.049337e+01   9.697360e+00
  -2.187430e+01   2.855092e+01
  -9.528780e+01  -1.812782e+00
