
 $NMID
 id='ANONYMOUS ', fmtdat='(2E16.6)'
 volume=1.0
 tramp=1.0
 $END
  -4.270029e+03   3.123069e+02
  -2.542850e+03  -2.870868e+03
   8.771896e+02  -2.775467e+03
   2.393071e+03  -7.198160e+02
   9.614448e+02   1.150496e+03
  -6.925290e+02   5.719974e+02
  -9.489316e+02  -5.294892e+02
   4.816530e+01  -1.137600e+03
   8.424620e+02  -7.526627e+02
   1.062733e+03   1.438056e+02
   3.401035e+02   9.673936e+02
  -3.009616e+02   9.449157e+02
  -8.242692e+02   1.250278e+02
  -3.116044e+02  -9.009338e+02
   4.472437e+02  -8.595894e+02
   6.494264e+02   1.631695e+02
   1.289318e+02   6.967299e+02
  -3.327663e+02   7.233905e+02
  -8.719427e+02  -1.386242e+02
  -3.468241e+02  -5.146945e+02
   8.575399e+01  -5.421517e+02
   2.614754e+02  -2.658808e+02
   1.463932e+02   1.294185e+02
  -1.703004e+02   3.266145e+01
  -6.261698e+02  -7.783551e+01
  -1.868401e+02  -3.725506e+02
   4.287268e+02  -4.229516e+02
   8.826803e+02   1.223703e+02
   4.254637e+02   5.132663e+02
  -4.728801e+02   4.312597e+02
  -8.251145e+02  -1.289947e+02
  -3.574195e+02  -5.280045e+02
   3.286447e+02  -4.913312e+02
   5.895359e+02  -1.664458e+02
   4.891391e+02   2.387610e+02
   1.306946e+02   5.759625e+02
  -2.385809e+02   3.355463e+02
  -2.237255e+02  -1.824767e+02
   1.458659e+02  -4.466952e+02
   3.910712e+02  -1.188386e+01
   2.586121e+02   7.815057e+02
  -3.379136e+02   6.921385e+02
  -6.605243e+02  -6.417274e+00
  -2.796393e+02  -5.459362e+02
   3.158571e+02  -3.048132e+02
   3.885861e+02   3.797921e+02
  -5.332084e+01   5.465067e+02
  -6.181364e+02   1.405735e+02
  -6.722156e+02  -4.585324e+02
  -1.732729e+02  -6.472522e+02
   4.237391e+02  -3.365849e+02
   6.920725e+02   7.086259e+01
   3.606137e+02   3.464968e+02
  -2.004085e+02   3.666141e+02
  -4.564688e+02   5.161872e+01
  -2.116442e+02  -2.391582e+02
   1.575089e+02  -1.342670e+02
   1.540692e+02   1.960285e+02
  -1.738323e+02   2.070352e+02
  -3.816441e+02  -1.131924e+02
  -1.302336e+02  -3.995737e+02
   2.677918e+02  -3.519673e+02
   3.868237e+02  -8.515758e+01
   2.376855e+02   1.556132e+02
   3.353091e+01   3.044284e+02
  -1.906929e+02   3.029474e+02
  -3.681921e+02   2.457484e+02
  -3.160051e+02  -1.183613e+02
  -8.540762e+01  -4.179653e+02
   1.131792e+02  -3.558977e+02
   1.228825e+02  -9.515766e+01
   8.428555e+00   3.014245e+01
   2.745675e+01  -1.468195e+02
   2.133579e+02  -2.120715e+02
   3.333893e+02  -1.861382e+01
   2.001697e+02   2.753735e+02
  -7.003063e+01   2.717600e+02
  -2.099282e+02   5.738581e-01
  -1.825730e+02  -2.604821e+02
   3.823830e+01  -2.893105e+02
   2.836477e+02  -1.276090e+02
   4.255082e+02   1.740056e+02
   2.321623e+02   3.380844e+02
  -1.182918e+02   3.326273e+02
  -2.865212e+02   1.212975e+02
  -1.964773e+02  -6.820434e+00
  -4.684526e+01   7.292944e+01
  -2.064111e+02   7.576626e+01
  -4.103752e+02  -1.700163e+01
  -3.818509e+02  -2.880576e+02
  -5.592526e+01  -4.747897e+02
   3.521894e+02  -4.509911e+02
   4.998280e+02  -2.394432e+02
   3.855860e+02   1.083270e+02
   6.681145e+01   2.837944e+02
  -1.628593e+02   2.418436e+02
  -7.723022e+01   2.968889e+01
   1.090466e+02  -1.440636e+02
   2.376483e+02  -2.224990e+01
   1.079816e+02   1.712651e+02
  -1.424539e+02   2.241024e+02
  -2.036306e+02   3.896576e+00
  -1.552485e+01  -2.195860e+02
   1.615448e+02  -4.010837e+01
   1.485787e+02   2.280519e+02
  -4.706237e+01   3.214187e+02
  -2.191589e+02   1.190797e+02
  -2.867935e+02  -9.916323e+01
  -2.413453e+02  -2.687880e+02
  -1.069091e+02  -2.513302e+02
   1.141587e+02  -1.549038e+02
   1.969397e+02  -4.587433e+01
   6.639577e+01   6.160635e+01
  -7.739317e+01  -2.863478e+01
  -5.737464e+01  -1.088689e+02
   1.335222e+02  -1.362092e+02
   1.995400e+02  -1.390668e+00
   1.062184e+02   2.888480e+01
  -8.224366e+01   6.943169e+01
  -4.942726e+01  -5.895848e+01
   8.991233e+01  -1.103788e+02
   2.915387e+02  -2.266395e+01
   2.478235e+02   1.287425e+02
   4.280718e+01   2.557908e+02
  -1.666848e+02   2.944305e+02
  -2.552819e+02   1.021647e+02
  -1.966798e+02  -8.463645e+01
   6.551809e+01  -1.260777e+02
   9.038576e+01  -4.087313e+01
   2.630546e+01   1.303880e+02
  -1.604930e+02   4.597640e+01
  -2.091566e+02  -1.013785e+02
  -7.386814e+01  -2.405480e+02
   1.427823e+02  -1.670223e+02
   1.301533e+02  -1.762715e+01
   6.858668e+01   8.700519e+01
   1.740931e+00  -2.789566e-01
  -4.949927e+01  -8.643904e+01
   1.079368e+02  -1.253227e+02
   2.108915e+02  -6.274776e+01
   2.374885e+02   1.235231e+02
   6.502056e+01   2.407582e+02
  -1.482322e+02   1.947475e+02
  -1.852069e+02  -3.265519e+01
  -8.028119e+01  -1.413947e+02
   6.847379e+01  -1.281467e+02
   8.061501e+01  -8.130504e+00
   2.104877e+01  -5.127318e+00
   2.759887e+00  -9.606244e+00
   2.300441e+01  -1.734035e+01
   6.510287e+01   1.709846e+01
   7.397200e+01   8.353581e+01
   2.598702e+01   1.481469e+02
  -1.252452e+02   1.361610e+02
  -2.035788e+02  -1.380920e+01
  -1.960349e+02  -1.251971e+02
  -3.975171e+01  -2.479018e+02
   9.527892e+01  -1.775362e+02
   1.822887e+02  -6.238660e+01
   4.304859e+01   7.705629e+01
   4.118083e+01   7.004975e+01
   4.887267e+01  -1.242186e+01
   9.382651e+01  -6.006219e+00
   4.464766e+01   1.693986e+01
  -2.837002e+00   8.551648e+01
  -7.885502e+01   8.107389e+01
  -6.000717e+01  -1.070934e+01
  -7.992566e+00  -9.828399e+01
   1.072830e+02  -1.039865e+02
   2.140909e+02   3.292064e+01
   1.276585e+02   2.504076e+02
  -8.553084e+01   2.795522e+02
  -2.936534e+02   1.076582e+02
  -2.769611e+02  -1.217968e+02
  -1.178277e+02  -1.901760e+02
   5.163014e+01  -1.359576e+02
   7.679860e+01  -6.774621e+01
   8.649882e+01  -4.276423e+01
   6.600123e+01  -1.096001e+02
   1.264151e+02  -6.224711e+01
   1.842140e+02   4.734461e+01
   1.143110e+02   1.476951e+02
  -1.230146e+01   2.305074e+02
  -1.293233e+02   1.711019e+02
  -2.336157e+02   1.486569e+01
  -1.403871e+02  -1.649179e+02
   2.474714e+01  -1.808101e+02
   9.068953e+01  -9.454312e+01
   9.631230e+01   1.172501e+01
   2.896325e+00   5.367392e+01
  -8.045134e-01   4.485109e+01
   5.926446e+01  -1.276422e+01
   4.856097e+01   3.226200e+01
   1.660713e+01   5.412662e+01
  -8.248085e+01   5.403306e+01
  -1.222815e+02   2.619033e+00
  -1.413300e+02  -6.844201e+01
  -3.809428e+01  -8.896439e+01
   9.730350e+01  -1.003554e+02
   1.184141e+02  -4.002407e+01
   8.277923e+01   4.827951e+01
  -1.671701e+01   5.405209e+01
  -8.495474e+01  -1.627088e+01
  -1.443873e+01  -4.775007e+01
   6.473092e+01  -7.498965e+01
   5.704498e+01   1.334470e+01
   6.843703e+01   8.787480e+01
   3.133453e+01   2.043532e+01
   2.030801e+01   3.377806e-04
   7.646343e+01  -5.986479e+00
   2.666489e+00   9.199823e+01
  -1.551802e+01   1.030843e+02
  -1.152951e+02   1.160839e+02
  -1.591386e+02  -7.913613e+00
  -8.560650e+01  -1.206168e+02
   2.440092e+01  -9.339516e+01
   1.350168e+02  -1.092808e+02
   4.297231e+01   8.168000e-02
  -4.862048e+01   5.406074e+01
  -1.208242e+02  -9.801584e+00
  -5.472970e+01  -9.765464e+01
   1.175689e+02  -1.243067e+02
   2.213576e+02  -6.995848e+01
   1.481747e+02   5.440366e+01
   2.667874e+01   1.125878e+02
  -9.378682e+01   7.839586e+01
  -5.690149e+01  -1.376009e+01
   4.513797e+01  -4.741989e+01
   4.806678e+01   7.347369e+00
   5.087566e+01   1.125120e+02
  -1.030977e+02   8.896779e+01
  -1.789639e+02   9.503993e+00
  -1.044788e+02  -1.220808e+02
   2.656790e+01  -1.856366e+02
   1.358141e+02  -1.028004e+02
   1.343426e+02   6.093865e+01
   6.493093e+01   1.030925e+02
  -3.251826e+01   6.726707e+01
  -5.531890e+01   3.816106e+00
  -4.260064e+01  -1.792688e+00
  -6.348849e+01   1.973941e+01
  -3.437293e+01   1.518898e+01
  -4.287479e+01  -2.028353e+01
  -2.869871e+01  -6.621506e+01
  -2.452766e+01  -7.989598e+01
   4.465075e+01  -8.384118e+01
   1.339480e+02   9.617378e+00
   9.783100e+01   5.458879e+01
   6.513507e+00   6.640052e+01
  -8.205828e+01   5.074249e+01
  -8.877108e+01   2.875632e+00
  -1.775880e+01  -3.502174e+01
   4.369243e+01  -4.436693e+01
   6.765742e+00  -1.609514e+01
  -3.594537e+01  -1.052853e+01
  -3.353099e+01  -1.862992e+01
   9.375582e+01   2.674568e+01
   1.033317e+02  -1.114516e+01
   2.288740e+01   7.607668e+01
  -7.356255e+01   9.312492e+01
  -1.724500e+02   2.284416e+01
  -9.271179e+01  -6.901957e+01
  -2.390599e+01  -1.594375e+02
   7.346907e+01  -1.640697e+02
   1.057912e+02  -3.963697e+01
   8.137898e+01   6.446830e+01
   1.884671e+01   6.771905e+01
   1.712907e+01  -1.704299e+01
   2.115467e+01   4.237680e+01
   3.606207e+01   7.290157e+01
  -6.041005e+00   1.167567e+02
  -5.494069e+01   5.965215e+01
  -1.154512e+02  -4.643979e+01
  -7.839747e+01  -1.348212e+02
  -1.452608e+00  -1.081737e+02
   6.747020e+01  -2.987193e+01
   1.347724e+02   7.128366e+01
   6.706113e+01   1.011885e+02
  -4.027076e+01   8.485231e+01
  -9.715898e+01  -1.089630e+00
  -5.494322e+01  -7.415434e+01
   5.593867e+00  -1.131103e+01
   2.952071e+01  -1.170279e+01
  -9.634767e+01  -1.794609e+01
  -7.326094e+01  -3.927594e+01
  -5.197397e+01  -8.704219e+01
   8.000101e+01  -1.011600e+02
   1.217256e+02  -5.288169e+01
   6.905832e+01  -8.118849e+00
   3.160928e+00   1.048910e+02
  -5.829625e+01   5.658183e+01
  -6.507042e+01   2.506763e+01
  -6.612016e+00  -6.658211e+01
   9.371051e+00  -9.718145e+01
   4.720082e+01   1.643030e+00
   3.807193e+01   6.129836e+01
  -3.647825e+01   6.730386e+01
  -4.836785e+01  -1.882589e+00
  -5.315744e+01  -5.114852e+01
   2.952625e+01   1.116474e+01
  -6.821854e+00  -4.005701e+01
   1.396168e+00   2.466988e+00
   5.453243e+00  -3.560011e+01
   2.187222e+01  -4.085831e+01
   9.893150e+00   2.917051e+01
   1.367996e+01   5.109381e+01
   1.748018e+01   5.186793e+01
  -6.111806e+01  -2.051823e+01
  -7.369478e+01  -8.253786e+01
  -1.946121e+01  -9.152635e+01
   5.482823e+01  -1.801347e+01
   1.313049e+02   4.371770e+01
   7.052887e+01   7.122628e+01
  -3.492279e+01   3.410291e+01
  -1.012716e+02   8.520111e+00
  -8.291760e+00   2.151137e+01
   2.165968e+01   3.634317e+01
   6.601411e+01   1.817798e+01
  -3.374410e+01   6.232367e+00
  -6.398954e+01   2.536302e+01
