
 $NMID
 id='ANONYMOUS ', fmtdat='(2E16.6)'
 volume=1.0
 tramp=1.0
 $END
   4.111805e+03  -2.400436e+01
   2.565573e+03   2.618255e+03
  -8.284080e+02   2.635462e+03
  -2.111251e+03   9.200479e+02
  -8.621441e+02  -5.301831e+02
   4.342805e+02  -5.244543e+02
   7.350750e+02   3.965258e+02
  -8.175614e+01   1.021200e+03
  -7.987199e+02   7.085077e+02
  -7.449911e+02   1.263027e+00
  -5.322960e+02  -8.257758e+02
   2.927979e+02  -7.147414e+02
   7.171767e+02  -3.175622e+02
   4.014836e+02   6.779295e+02
  -1.598074e+02   6.610818e+02
  -5.580273e+02  -3.423923e+00
  -2.664352e+02  -7.091275e+02
   2.686044e+02  -7.254674e+02
   6.391073e+02  -1.034035e+02
   3.587714e+02   3.163333e+02
  -1.160903e+02   4.787064e+02
  -1.866093e+02   7.805225e+01
  -3.181306e+02   1.667467e+02
  -5.467024e+01   7.862015e+01
   3.588109e+02   3.651220e+02
   1.694032e+02   4.908863e+02
  -3.644667e+02   3.089837e+02
  -7.755231e+02  -1.320735e+02
  -3.891565e+02  -3.782704e+02
   3.221120e+02  -4.236090e+02
   6.310688e+02   1.529766e+01
   2.180338e+02   5.337485e+02
  -3.702177e+02   5.311450e+02
  -6.280740e+02   2.473016e+02
  -4.080456e+02  -2.472023e+02
  -8.660671e+00  -5.390796e+02
   1.691945e+02  -2.652981e+02
   1.141008e+02   1.464077e+02
  -1.661301e+02   3.191622e+02
  -3.502898e+02  -8.476734e+01
  -1.494280e+02  -6.159706e+02
   3.298055e+02  -6.149124e+02
   5.371428e+02   8.754018e+01
   1.338731e+02   4.484775e+02
  -2.798509e+02   2.417585e+02
  -2.979425e+02  -3.356205e+02
   6.835679e+01  -4.745285e+02
   4.952612e+02  -1.135013e+02
   6.062472e+02   3.949044e+02
   2.249578e+02   5.250982e+02
  -3.705916e+02   3.359504e+02
  -6.678130e+02  -2.001542e+01
  -4.019887e+02  -3.631992e+02
   1.342606e+02  -3.765532e+02
   4.007401e+02  -8.404870e+01
   2.211680e+02   1.694614e+02
  -8.293062e+01   6.737614e+01
  -1.306831e+02  -1.405138e+02
   1.429522e+02  -1.466974e+02
   2.854932e+02   1.600225e+01
   1.591496e+02   2.268103e+02
  -1.304183e+02   2.777353e+02
  -2.376640e+02   1.814581e+02
  -2.144237e+02  -1.234464e+01
  -3.238739e+01  -2.296479e+02
   1.720396e+02  -3.212466e+02
   3.410384e+02  -1.490670e+02
   2.831812e+02   1.863063e+02
   5.962915e+01   3.868929e+02
  -8.351967e+01   3.470191e+02
  -8.448380e+01   1.287702e+02
  -4.380057e+01   4.251159e+01
  -5.250009e+01   1.154207e+02
  -1.843374e+02   1.112826e+02
  -2.547615e+02  -8.298616e+01
  -1.953627e+02  -2.521948e+02
   9.273848e+01  -2.373971e+02
   2.734882e+02  -3.828615e+01
   2.217576e+02   1.919164e+02
  -3.901993e+01   3.232750e+02
  -3.166458e+02   9.392243e+01
  -3.587161e+02  -1.787844e+02
  -1.749846e+02  -3.115985e+02
   1.011785e+02  -3.067128e+02
   2.011124e+02  -1.461069e+02
   1.960506e+02  -4.766554e+01
   1.780939e+02  -2.700041e+01
   2.525111e+02  -4.899265e+01
   4.418484e+02   7.012078e+01
   3.275673e+02   2.926286e+02
   1.711093e+01   4.396479e+02
  -3.038479e+02   4.194685e+02
  -4.712053e+02   2.266087e+02
  -3.587742e+02  -1.153381e+02
  -9.692486e+01  -3.349694e+02
   1.116177e+02  -2.666687e+02
   7.177684e+01  -9.407439e+01
  -8.431365e+01   7.801424e+01
  -1.705613e+02   6.249754e+00
  -6.189605e+01  -1.715579e+02
   1.165985e+02  -1.823967e+02
   1.754928e+02   5.076633e+01
  -2.298160e+01   1.764256e+02
  -1.787803e+02   2.289237e+01
  -9.962816e+01  -2.622278e+02
   1.175215e+01  -3.720840e+02
   2.135082e+02  -2.469832e+02
   3.388715e+02   4.709252e+01
   2.780312e+02   2.666028e+02
   9.592942e+01   2.599295e+02
  -1.162189e+02   1.649024e+02
  -1.569857e+02  -2.462952e+00
  -6.927296e+01  -2.699942e+01
   4.484647e+01   6.786128e+01
   2.083638e+01   1.565430e+02
  -1.722770e+02   1.143160e+02
  -1.670463e+02  -1.690352e+01
  -3.929874e+01  -3.860444e+01
   4.753081e+01  -3.479498e+01
   1.101023e+01   5.763354e+01
  -1.269925e+02   7.980693e+01
  -2.797203e+02   1.895496e+01
  -2.502783e+02  -1.401254e+02
  -4.244879e+01  -2.612166e+02
   1.916462e+02  -2.608043e+02
   3.033092e+02  -1.308668e+02
   1.514693e+02   6.836011e+01
  -4.272185e+01   9.507363e+01
  -8.092553e+01  -3.413254e+00
   7.811334e+01  -8.644790e+01
   2.181099e+02  -2.966595e+01
   1.904774e+02   1.496059e+02
   7.481032e+01   2.021628e+02
  -7.441497e+01   1.533645e+02
  -1.561113e+02  -1.070408e+01
  -4.521748e+01  -7.991152e+01
   2.794475e+01  -1.880689e+01
   3.589180e+01   8.521337e+01
  -5.311095e+01   1.423703e+02
  -2.011376e+02   2.180290e+01
  -1.470761e+02  -1.640220e+02
   2.051202e+00  -2.992766e+02
   1.723291e+02  -1.744952e+02
   1.938628e+02   2.215309e+01
   2.680823e+01   1.259924e+02
  -6.578750e+01   1.349583e+02
  -5.345868e+01   3.714906e+01
  -3.500459e+01   9.924787e-02
  -2.408234e+01  -4.937515e+01
  -2.071151e+01   1.022039e+01
  -1.045812e+02  -1.085195e+01
  -1.480735e+02  -1.236518e+02
  -3.165983e+01  -1.712615e+02
   1.213100e+02  -1.498237e+02
   1.731190e+02  -1.758371e+01
   1.244754e+02   1.441424e+02
   2.016024e+01   2.012187e+02
  -1.012465e+02   1.120910e+02
  -1.286644e+02   6.544870e+00
  -5.729313e+01  -2.624842e+01
  -2.457513e+01  -3.472228e+01
  -7.790247e+01   3.889839e+01
  -6.332467e+01   2.796039e+01
  -5.917444e+01  -3.905994e+01
   4.424666e+01  -9.231913e+01
   1.164340e+02  -5.798307e+01
   9.562148e+01   1.037489e+02
  -3.847163e+01   1.503162e+02
  -1.672901e+02   7.929639e+01
  -2.001607e+02  -4.428028e+01
  -6.496262e+01  -2.329473e+02
   1.336201e+02  -2.368130e+02
   2.464556e+02  -3.875159e+01
   2.092535e+02   1.338855e+02
   8.150175e+01   1.616697e+02
  -6.113528e+01   1.361986e+02
  -8.357340e+01   5.970399e+01
  -5.686004e+01   3.536561e+01
  -2.684688e+01   1.072393e+02
  -1.139685e+02   7.271983e+01
  -1.380614e+02  -5.364470e+00
  -1.489165e+02  -1.392078e+02
  -6.519500e+01  -2.702959e+02
   1.058769e+02  -1.694028e+02
   1.801951e+02  -4.254868e+01
   1.406622e+02   1.303346e+02
   8.614652e+00   1.453196e+02
  -9.973305e+01   5.917770e+01
  -5.990168e+01  -5.197558e+01
  -2.254143e+01  -9.509937e+01
   3.978063e+01  -7.134941e+01
  -1.611883e+01   4.230230e+00
  -2.777890e+01  -1.661928e+01
  -3.155866e+01  -2.600946e+01
   4.671534e+01   2.453881e+01
   1.164262e+02  -4.421446e+00
   9.578333e+01   4.898924e+01
  -2.814427e+01   1.336811e+02
  -1.326221e+02   5.677504e+01
  -1.678232e+02   2.211508e+01
  -5.753871e+01  -3.770742e+01
   2.316418e+01  -4.898746e+01
   6.291062e+01  -3.122316e-01
  -5.362309e+00   5.449723e+01
  -5.542172e+01   8.753728e+01
  -2.318209e+01   1.408071e+00
  -4.684692e+01  -2.680183e+01
  -5.755846e+01  -6.407583e+00
  -4.900846e+01  -1.290217e+01
  -1.141994e+02  -1.777541e+01
  -2.970140e+00  -5.916646e+01
   5.325367e+01  -1.424099e+02
   1.059457e+02  -1.606684e+02
   1.644072e+02  -3.214058e+01
   1.262648e+02   7.450102e+01
   2.491449e+01   1.051180e+02
  -5.861751e+01   8.679276e+01
  -6.045572e+01  -2.673875e+00
   4.833047e+01  -3.660126e+00
   9.990791e+01   4.004162e+01
   3.728291e+01   7.183439e+01
  -7.836326e+01   8.062002e+01
  -1.946526e+02   3.424595e+01
  -1.663036e+02  -4.396975e+01
  -1.214203e+01  -9.409584e+01
   4.106315e+01  -6.790145e+01
   2.375177e+01  -2.193009e+01
  -5.955810e+01   1.860915e+01
  -1.402196e+02  -1.921864e+01
  -4.215861e+01  -1.034561e+02
   1.151239e+02  -1.428369e+02
   1.297087e+02  -4.115348e+01
   1.344872e+02   7.911604e+01
   1.268693e+01   1.835574e+02
  -8.909652e+01   1.638247e+02
  -1.279689e+02  -3.137108e+01
  -1.087500e+02  -6.727528e+01
  -2.970155e+01  -9.817967e+01
   2.386421e+01  -4.196248e+01
   5.653229e+01   2.150349e+01
   1.201223e+01  -6.829878e+00
  -4.493614e+01   6.530592e-01
  -5.983844e+00   6.621275e+00
   1.119585e+02   7.082815e+01
   7.154464e+01   9.890424e+01
  -6.499655e+01   3.686995e+01
  -1.132315e+02  -3.560257e+01
  -9.644699e+01  -3.669394e+01
  -5.173888e+01  -2.366233e+01
   3.851072e+01  -2.570237e+01
   7.571843e+01  -2.978626e+00
  -1.201900e+01  -2.085222e+01
  -3.361760e+01   1.742879e+01
  -5.221868e+00  -2.355050e+01
   9.634666e+00  -2.130353e+01
  -3.684472e+00  -2.197877e+01
  -7.151720e+01  -1.254419e+00
  -8.425881e+01  -5.117108e+01
   3.738461e+01  -8.204675e+01
   1.132326e+02  -1.114946e+02
   1.803861e+02  -3.072871e+01
   1.609086e+02   3.377383e+01
  -4.028819e+01   1.371561e+02
  -7.334712e+01   1.565690e+02
  -6.939901e+01   5.972742e+01
  -1.156233e+02  -2.519135e+01
  -1.576789e+01  -1.795478e+01
   6.017999e+00  -1.068390e+01
  -1.236576e+01  -1.352299e+01
  -5.159894e+01  -4.947106e+01
  -3.304500e+01  -1.180899e+02
   3.148804e+01  -7.504867e+01
   8.846322e+01   3.028656e+01
   1.094447e+02   9.509526e+01
   7.327432e+00   9.613962e+01
  -8.268751e+01  -2.543197e+00
  -7.148743e+01  -6.764443e+01
   9.255294e+00  -1.146494e+02
   5.509592e+01  -3.120441e+01
   1.265294e+02   2.246867e+01
   6.911275e+01   8.448174e+01
  -1.824030e+01   6.748216e+01
  -2.809515e+01   7.194886e+01
   1.511937e+01  -3.126721e+01
   1.870380e+01  -3.142673e+01
  -1.134449e+01   9.872368e+00
  -9.652078e+01   2.506339e+01
  -8.643126e+01   3.838043e+01
  -3.686601e+01  -2.297156e+01
   5.761689e+01  -9.158262e+01
   5.931089e+01  -7.695929e+01
   2.941120e+01  -3.366386e+01
   1.239885e+01   9.489454e+01
  -6.382361e+01   4.735469e+01
  -5.428312e+01  -2.779374e+01
  -2.123202e+01  -5.661034e+01
   7.460968e-03  -5.520926e+01
   6.728950e+01  -2.062367e+00
   6.920904e+01   2.202887e+01
   2.001978e+01   1.809041e+01
  -1.122971e+01  -1.568709e+01
   2.478278e+01   2.855423e+01
  -1.121373e+01   7.632584e+01
  -3.864945e+01   5.674016e+01
  -5.767702e+01   2.013436e+01
  -1.241698e+01  -6.964364e+01
  -1.294518e+00  -8.168385e+01
   5.554307e+01  -5.615066e+01
   7.394785e+01   4.556946e+01
   1.498967e+01   3.311588e+01
  -6.048392e+01   1.584319e+01
  -7.682054e+01  -2.976109e+01
  -2.599242e+01  -4.057901e+01
   4.640517e+01  -1.541459e+01
   9.742535e+01  -1.677076e+01
   2.941706e+01   1.594927e+00
  -3.342061e+01  -3.094167e+00
  -2.275572e+01  -4.396820e+01
   2.085945e+01  -4.422085e+01
   7.221531e+01  -1.611880e+00
