
 $NMID
 id='ANONYMOUS ', fmtdat='(2E16.6)'
 volume=1.0
 tramp=1.0
 $END
  -3.640403e+03   2.063860e+01
  -2.178159e+03  -2.151786e+03
   4.720507e+02  -2.322891e+03
   1.487472e+03  -1.258731e+03
   8.565375e+02   4.759573e+02
  -3.772635e+02   4.370250e+02
  -8.039739e+02  -1.074250e+02
  -1.435304e+02  -8.360673e+02
   6.134727e+02  -7.161373e+02
   7.428279e+02  -1.273323e+02
   3.793366e+02   6.515329e+02
  -2.065303e+02   6.290589e+02
  -6.154149e+02   4.030034e+01
  -4.054001e+02  -5.354023e+02
   2.059818e+02  -6.277660e+02
   4.801173e+02  -1.031891e+02
   1.655560e+02   4.977969e+02
  -2.623318e+01   5.359901e+02
  -6.183354e+02   2.566139e+02
  -3.798280e+02  -3.828256e+02
   3.902457e+01  -2.266891e+02
   6.027505e+01  -2.817812e+02
   6.106040e+01  -1.403298e+02
  -1.254069e+02   1.576727e+02
  -4.506027e+02  -1.620350e+02
  -1.567820e+02  -4.258827e+02
   3.362261e+02  -3.321208e+02
   8.357110e+02   1.264696e+02
   3.615738e+02   4.783121e+02
  -4.652762e+02   3.675986e+02
  -7.357398e+02  -2.496445e+01
  -1.750234e+02  -5.013266e+02
   3.567980e+02  -3.244224e+02
   3.318413e+02  -1.559420e+02
   2.937384e+02   1.691974e+02
   5.120135e+01   4.222815e+02
  -8.585701e+01   1.730017e+02
  -1.041163e+02  -2.235714e+02
   1.702811e+02  -3.262910e+02
   3.325182e+02   1.478329e+02
   1.642063e+02   6.126791e+02
  -3.273867e+02   6.089794e+02
  -5.383442e+02  -1.482989e+00
  -1.446393e+02  -4.988893e+02
   2.662028e+02  -1.661705e+02
   2.324983e+02   3.759459e+02
  -1.312950e+02   5.069368e+02
  -5.624214e+02   9.825944e+01
  -5.789914e+02  -4.139768e+02
  -1.602452e+02  -6.050361e+02
   3.388646e+02  -3.893704e+02
   5.936709e+02   7.134375e+01
   3.602423e+02   3.691785e+02
  -1.635914e+02   3.302490e+02
  -3.554061e+02   2.943084e+01
  -1.418085e+02  -1.834286e+02
   1.414718e+02  -5.823479e+01
   6.367238e+01   1.774382e+02
  -2.442780e+02   1.462329e+02
  -3.285482e+02  -1.200939e+02
  -5.556419e+01  -3.115771e+02
   2.332600e+02  -2.635750e+02
   3.645498e+02  -8.197091e+01
   2.156999e+02   6.756023e+01
  -7.569097e+00   2.710805e+02
  -2.056330e+02   3.908412e+02
  -3.566084e+02   2.301246e+02
  -2.829894e+02  -1.461595e+02
  -4.164185e+01  -3.936521e+02
   8.192831e+01  -3.250536e+02
   3.848554e+01  -7.760521e+01
  -1.202238e+00  -7.281004e+01
   6.942396e+01  -1.624195e+02
   2.447577e+02  -1.495640e+02
   3.005348e+02   7.363855e+01
   1.039131e+02   2.590159e+02
  -8.414900e+01   2.025919e+02
  -1.626813e+02  -4.571543e+01
  -1.414238e+02  -2.721872e+02
   2.068651e+01  -2.229311e+02
   2.730672e+02  -5.457191e+01
   3.449506e+02   2.072869e+02
   1.819553e+02   3.833655e+02
  -9.474257e+01   2.710909e+02
  -2.379152e+02   1.503760e+02
  -1.677076e+02  -1.497644e+01
  -1.163705e+02   6.780120e+01
  -1.985073e+02   7.921248e+01
  -3.752637e+02  -4.903685e+01
  -3.598947e+02  -2.615802e+02
  -4.273833e+01  -4.358265e+02
   3.580321e+02  -4.465746e+02
   4.568733e+02  -1.898716e+02
   2.976414e+02   7.512627e+01
   3.740145e+01   2.816092e+02
  -1.481098e+02   2.030376e+02
   2.645338e+00  -1.325075e+01
   1.473141e+02  -7.258932e+01
   1.818153e+02   3.311602e+01
   1.147464e+01   1.565144e+02
  -1.773861e+02   1.674368e+02
  -1.484924e+02  -4.955974e+01
   4.207692e+01  -1.655454e+02
   2.221566e+02  -3.471885e+01
   1.477716e+02   2.097269e+02
  -8.970993e+00   3.071968e+02
  -1.999487e+02   2.279373e+02
  -3.250262e+02  -1.901138e+00
  -2.688508e+02  -2.317765e+02
  -9.222994e+01  -2.684214e+02
   1.317129e+02  -1.780375e+02
   1.463067e+02   2.116630e+01
   3.809676e+01   8.234395e+01
  -6.453246e+01  -4.883145e+01
  -1.539550e+01  -1.201181e+02
   1.643097e+02  -9.161501e+01
   1.805477e+02   2.484251e+01
   4.037624e+01   8.302076e+01
  -9.791792e+01   4.973296e+00
  -7.957650e+01  -7.389270e+01
   9.934270e+01  -5.959444e+01
   2.450928e+02   2.769934e+01
   2.177962e+02   1.481578e+02
   4.673419e+01   2.390180e+02
  -2.215207e+02   2.289226e+02
  -2.785387e+02   8.594451e+01
  -1.456900e+02  -7.327889e+01
  -1.445680e+01  -9.944528e+01
   9.647306e+01  -2.070608e+01
  -1.912290e+00   9.035129e+01
  -1.188072e+02   5.165546e+01
  -1.702198e+02  -8.907977e+01
  -7.110298e+01  -1.902301e+02
   4.956830e+01  -1.678898e+02
   1.483586e+02  -3.624019e+01
   1.192692e+02   8.766259e+01
  -6.615375e+00   2.562459e+01
  -6.983598e+01  -9.179575e+01
   6.611623e+01  -1.579520e+02
   1.636225e+02  -4.136969e+01
   1.907096e+02   1.428960e+02
  -6.965861e+00   2.246666e+02
  -1.398470e+02   1.523825e+02
  -1.489443e+02  -2.001467e+01
  -3.574806e+01  -9.214798e+01
   7.329951e+01  -8.914347e+01
   7.407960e+01  -1.119514e+01
   5.630822e+01   5.121560e+01
  -2.974816e+01   4.044122e+01
  -1.112495e+01  -9.381963e+00
   2.541722e+01  -3.079675e+01
   8.269293e+01   5.651637e+01
   3.295545e+01   1.416889e+02
  -1.045982e+02   1.731673e+02
  -2.262569e+02   4.233659e+01
  -1.553856e+02  -1.311599e+02
  -6.617403e+01  -2.585719e+02
   9.306121e+01  -1.806861e+02
   1.136244e+02  -5.799549e+01
   5.691116e+01   4.020127e+01
   5.668615e+01   3.906038e+01
   3.703378e+01  -2.891783e+00
   6.152922e+01  -1.050933e+01
   5.515183e+01   4.280675e+01
  -9.660868e+00   7.067953e+01
  -9.021039e+01   7.098936e+01
  -7.324096e+01  -1.663228e+01
   7.678532e+00  -1.196893e+02
   9.609949e+01  -5.427516e+01
   1.806342e+02   6.652779e+01
   1.108365e+02   2.077450e+02
  -8.491105e+01   2.271085e+02
  -2.698497e+02   8.971382e+01
  -2.503750e+02  -6.569994e+01
  -7.041478e+01  -1.574338e+02
   7.464083e+01  -1.350310e+02
   7.059080e+01  -6.023767e+01
   6.970943e+01  -4.734868e+01
   2.740122e+01  -9.016335e+01
   7.563894e+01  -7.440552e+01
   1.189534e+02   1.995828e+01
   7.581519e+01   1.359709e+02
  -8.221953e+00   1.878871e+02
  -8.214493e+01   1.526341e+02
  -1.317777e+02   1.488951e+01
  -8.042291e+01  -7.980184e+01
  -3.029672e+01  -1.474661e+02
   6.618731e+01  -9.003506e+01
   5.655814e+01   3.107806e+01
   6.917450e+00   2.680815e+01
  -3.573540e+01   1.491308e+01
   4.269265e+01  -4.739594e+00
   7.743399e+01   2.237104e+01
   6.192036e+01   5.138882e+01
  -3.669290e+01   5.412056e+01
  -1.136491e+02   4.586899e+01
  -1.261661e+02  -5.425506e+01
  -5.689723e+01  -7.800441e+01
   1.118505e+02  -8.203175e+01
   1.600117e+02  -1.483447e+01
   1.012322e+02   5.949401e+01
  -7.260979e+01   7.773825e+01
  -1.024056e+02   3.629486e+01
  -5.782741e+01  -5.085639e+01
   1.984625e+01  -5.546544e+01
   3.492824e+01  -1.583256e+01
   5.396171e+01   2.166777e+01
   4.139061e+01   2.023362e+01
   6.302455e+01  -2.195201e+01
   3.672546e+01   1.316388e+01
   3.421343e+01   7.850629e+01
  -9.179803e+00   1.259677e+02
  -1.013188e+02   1.576322e+02
  -1.601458e+02   4.171828e+01
  -1.297417e+02  -6.973566e+01
   1.029285e+01  -1.502884e+02
   8.057673e+01  -7.754160e+01
   6.096072e+01   1.858356e+01
  -6.055699e+01   1.147655e+01
  -1.546267e+02  -5.807005e+01
  -5.103220e+01  -1.218220e+02
   7.379269e+01  -1.491305e+02
   1.665811e+02  -4.340427e+01
   1.229610e+02   4.872165e+01
   5.430919e+00   9.646572e+01
  -2.805024e+01   5.207729e+01
  -4.556180e+01  -8.588004e-01
   3.773713e+01   1.116438e+01
   6.520311e+01   5.562499e+01
   3.850425e+01   1.426011e+02
  -9.187393e+01   1.256034e+02
  -1.796989e+02   4.927883e+01
  -1.262115e+02  -8.880200e+01
   6.154144e+00  -1.921229e+02
   7.157846e+01  -1.459775e+02
   1.002684e+02  -7.631609e-01
   8.453494e+00   8.702375e+01
  -1.826409e+01   8.796054e+01
  -5.994327e+01   1.461481e+01
   4.727545e+00  -1.916282e+01
   1.658029e+01   2.881318e+01
   1.092291e+01   8.750070e+00
   4.907309e-01   3.057249e+01
  -5.625991e+01  -2.031537e+01
  -2.265831e+01  -7.203416e+01
   1.474460e+01  -4.597040e+01
   8.271929e+01   3.086188e+01
   7.932158e+01   7.938718e+01
   4.617475e+01   8.956767e+01
  -8.914696e+01   2.629559e+01
  -5.774668e+01  -7.357867e+00
  -2.179817e+01   1.113886e+01
  -8.781863e-01  -3.097793e+01
   2.282035e+01  -2.026146e+01
   2.303049e+01  -1.085576e+01
   1.380094e+01  -1.685108e+01
   3.338455e+01  -5.535241e+01
   9.065608e+01   6.976231e+01
  -4.948571e+00   8.665908e+01
  -1.140856e+02   1.330386e+02
  -1.661302e+02   7.055918e+01
  -1.495623e+02  -1.993896e+01
   5.243441e+00  -1.557248e+02
   1.124316e+02  -1.961962e+02
   1.067024e+02  -6.983437e+01
   9.344766e+01   4.111818e+01
  -6.233480e+00   3.671441e+01
  -4.621563e+01   1.647153e+01
   2.504672e-01  -5.565676e+00
   8.462294e+00   2.486081e+01
   4.593382e+01   8.995207e+01
  -4.482058e+01   6.967580e+01
  -1.142109e+02  -3.218877e+01
  -7.293441e+01  -1.297761e+02
  -1.158602e+01  -1.139452e+02
   9.308080e+01  -7.829259e+01
   1.096742e+02   5.208054e+01
   4.706055e+01   8.973037e+01
  -6.742432e+01   8.523716e+01
  -1.211431e+02  -5.577659e+00
  -1.059267e+01  -6.175795e+01
   4.968328e+01  -5.088061e+01
   2.521237e+01  -4.259489e+01
  -2.694981e+01  -3.003847e+01
  -5.003064e+01  -1.004410e+01
  -2.023346e+01  -1.082555e+01
   4.593753e+01  -4.483098e+01
   9.592801e+01  -2.820573e+01
   2.693179e+01   6.746331e+01
  -3.001740e+01   6.826911e+01
  -8.083695e+01   6.744228e+01
  -3.128468e+01   3.695733e+01
   4.349957e+00  -6.327638e+01
   1.272513e+01  -3.096414e+01
   4.847614e+01   1.316374e+01
   3.879452e+01   2.719191e+01
  -3.261794e+01   5.998412e+01
  -4.929912e+01   2.302315e+01
  -3.766400e+01   1.848556e+01
  -9.022551e+00   3.761925e+01
  -3.371479e+01   1.429225e+01
   9.654706e+00   8.419377e+00
   2.579381e+01  -4.539097e+01
   4.701477e+01  -3.392612e+01
   5.516343e+01  -1.770439e+01
   3.280251e+01   1.843973e+01
   1.114061e+01   1.082333e+02
  -5.524887e+01  -1.430140e+01
  -5.713392e+01  -1.914725e+01
  -1.656891e+01  -2.439747e+01
   2.730404e+01  -6.263476e+01
   7.122494e+01   4.028908e+00
   3.197887e+01   3.485635e+01
  -9.924162e+01   5.018491e+01
  -4.880102e+01   2.381251e+01
   2.272698e+01   2.349644e+01
   2.139889e+01  -2.009988e+01
   2.248816e+01   4.933952e+01
  -3.757333e+01   3.373858e+01
  -9.649192e+01  -1.278624e+01
