
 $NMID
 id='ANONYMOUS ', fmtdat='(2E16.6)'
 volume=1.0
 tramp=1.0
 $END
  -2.808339e+03  -4.448329e+01
  -1.924447e+03  -1.698064e+03
   6.980194e+01  -1.909315e+03
   1.233602e+03  -8.929059e+02
   8.404991e+02   9.734772e+01
  -1.387118e+02   3.830658e+02
  -5.059532e+02  -1.790838e+02
  -1.550822e+02  -5.412271e+02
   4.005016e+02  -5.719623e+02
   6.437720e+02   5.442076e+01
   4.447045e+02   5.857041e+02
  -1.577185e+02   5.995578e+02
  -2.371173e+02   1.557008e+02
  -5.021080e+02  -5.262730e+02
   1.278765e+02  -3.565664e+02
   4.260260e+02  -5.326924e+01
   2.310425e+02   5.473630e+02
  -1.147835e+02   4.709900e+02
  -4.011111e+02   2.518244e+02
  -4.663660e+02  -1.843596e+02
  -1.178971e+02  -2.487611e+02
   1.745131e+02  -1.953564e+02
  -9.083564e+01  -8.279834e+01
  -2.376711e+02   1.001139e+02
  -2.910972e+02  -1.067904e+02
   4.052304e+01  -3.917857e+02
   4.760787e+02  -2.538755e+02
   5.919166e+02   1.572431e+02
   1.893554e+02   2.870580e+02
  -3.144688e+02   1.646312e+02
  -6.696332e+02  -1.604498e+02
  -2.651860e+02  -3.675829e+02
   2.449695e+02  -4.144759e+02
   4.260864e+02  -1.694275e+02
   3.929866e+02   2.251356e+02
   9.531424e+01   3.939673e+02
  -8.873894e+01   1.752279e+02
  -3.607878e+01  -1.088635e+02
   2.125541e+02  -1.533406e+02
   3.075704e+02   1.569867e+02
   7.349043e+01   4.823871e+02
  -3.132796e+02   4.852171e+02
  -3.828104e+02  -2.088107e+01
  -1.830148e+02  -3.598848e+02
   1.348859e+02  -1.524063e+02
   1.964663e+02   2.557645e+02
  -1.067915e+02   4.263748e+02
  -4.539112e+02   1.001806e+02
  -4.655907e+02  -3.201004e+02
  -1.742364e+02  -4.834282e+02
   2.391390e+02  -2.538082e+02
   4.690319e+02   3.791862e+01
   2.775894e+02   2.293079e+02
  -1.082092e+02   2.146600e+02
  -3.040444e+02   9.658387e+00
  -1.637574e+02  -1.046724e+02
   3.516282e+01  -3.533069e+00
   8.286693e+01   7.856012e+01
  -1.099581e+02   3.875189e+01
  -2.706473e+02  -7.031776e+01
  -1.459725e+02  -2.386030e+02
   1.519790e+02  -2.300675e+02
   3.502689e+02  -1.399286e+02
   2.432926e+02   8.297250e+01
  -5.929133e+00   2.888868e+02
  -2.590106e+02   2.927466e+02
  -3.495551e+02   1.250758e+02
  -2.133957e+02  -1.663228e+02
  -4.180583e+01  -3.192064e+02
   9.981117e+01  -2.433432e+02
   9.022289e+01  -1.536805e+02
   5.353838e+01  -1.067162e+02
   1.053407e+02  -1.550400e+02
   2.642376e+02  -1.012449e+02
   2.632032e+02   1.475922e+02
   1.171357e+02   3.262205e+02
  -1.209350e+02   1.981283e+02
  -2.729620e+02   9.812769e+00
  -1.600329e+02  -2.214776e+02
   4.438278e+01  -2.503294e+02
   2.588957e+02  -4.643509e+01
   2.945801e+02   1.167245e+02
   1.038564e+02   2.651199e+02
  -6.259185e+01   1.923844e+02
  -1.725333e+02   7.755266e+01
  -7.890535e+01   6.297989e+01
  -1.168185e+02   2.566011e+01
  -2.088841e+02   4.332225e+01
  -3.186235e+02  -7.119601e+01
  -2.861020e+02  -2.772778e+02
   1.395384e+01  -3.908742e+02
   3.041334e+02  -3.445413e+02
   4.051751e+02  -1.280745e+02
   2.680233e+02   9.820271e+01
   3.940623e+01   2.456677e+02
  -6.813699e+01   1.746878e+02
  -4.766625e+01   1.210680e+01
   1.092202e+02  -6.499395e+01
   1.657686e+02   6.256314e+00
   1.037377e+01   1.164370e+02
  -1.315217e+02   9.460848e+01
  -1.549860e+02  -4.721267e+01
   1.021171e+01  -1.399802e+02
   1.684541e+02  -4.170890e+00
   1.393555e+02   2.239381e+02
   2.137497e+00   3.488638e+02
  -2.049119e+02   1.703252e+02
  -2.938218e+02  -5.726067e+01
  -2.123633e+02  -2.625469e+02
  -4.703780e+01  -2.633626e+02
   1.251857e+02  -1.292260e+02
   1.271526e+02  -6.417377e+00
   1.024121e+01   1.837706e+01
  -3.269237e+01  -6.270814e+01
   1.162568e+01  -1.283216e+02
   1.325574e+02  -3.500657e+01
   1.699332e+02   4.908466e+01
   6.271203e+01   9.902203e+01
  -6.255715e+01   4.112150e+01
  -2.955507e+00  -8.530701e+01
   1.314821e+02  -7.183310e+01
   2.702725e+02   4.996156e+01
   2.056905e+02   1.030321e+02
   1.795296e+01   2.370690e+02
  -1.774171e+02   2.244603e+02
  -2.748977e+02   7.718223e+01
  -1.139747e+02   9.216067e-01
   4.956074e+01  -7.339237e+01
   5.742703e+01   3.703489e+01
  -4.899670e+01   1.051710e+02
  -2.100946e+02   1.979768e+01
  -1.936894e+02  -1.217665e+02
  -4.045639e+01  -2.096653e+02
   1.010434e+02  -1.341675e+02
   8.375784e+01  -1.172231e+01
   9.294352e+00   2.204933e+01
  -5.628981e+01  -1.879722e+00
  -2.772873e+01  -1.021023e+02
   8.036604e+01  -1.237518e+02
   1.672963e+02  -3.405569e+01
   1.460507e+02   1.200184e+02
   1.657060e+01   1.657125e+02
  -1.215758e+02   1.564175e+02
  -1.758282e+02   9.708517e+00
  -2.297029e+01  -1.097566e+02
   7.714765e+01  -9.897580e+01
   1.040277e+02  -5.133901e+00
  -6.755727e-01   2.867518e+01
  -3.841766e+01   1.468346e+01
   6.443987e+00  -1.094959e+01
   4.551967e+01   2.033958e+00
   8.121982e+01   6.137013e+01
   3.929847e+01   1.243911e+02
  -1.173993e+02   1.451623e+02
  -2.126772e+02   4.493600e+01
  -1.970998e+02  -9.756979e+01
  -3.862961e+01  -1.775676e+02
   1.089734e+02  -1.156941e+02
   1.100443e+02  -4.931115e+01
   4.005841e+01   9.472465e+01
   4.696369e+01   2.929167e+01
   5.354113e+01   4.489266e+00
   1.062606e+02  -2.495539e+01
   5.169098e+01   8.705085e+00
  -6.313380e+01   7.350686e+01
  -8.113428e+01   2.372983e+01
  -7.259651e+01  -2.684803e+01
   1.617152e+01  -7.834434e+01
   1.247103e+02  -4.916580e+01
   1.753579e+02   7.045268e+01
   1.030294e+02   2.014930e+02
  -1.159474e+02   2.207110e+02
  -2.407604e+02   9.124819e+01
  -2.244985e+02  -8.393108e+01
  -2.438463e+01  -1.874072e+02
   3.784093e+01  -1.582154e+02
   1.086317e+02  -9.321220e+01
   8.513725e+01  -8.368664e+01
   4.439374e+01  -5.901855e+01
   9.366957e+01  -2.981443e+01
   1.100017e+02   1.021966e+01
   7.867232e+01   1.648728e+02
  -7.496274e+00   2.336058e+02
  -1.066573e+02   1.868216e+02
  -1.586951e+02   4.411927e+01
  -9.279832e+01  -9.587694e+01
  -1.035371e+01  -1.377138e+02
   9.758595e+01  -8.017007e+01
   7.359939e+00  -1.199662e+01
  -2.340625e+01   4.006672e+01
  -6.847574e-01   2.815712e+01
   4.558261e+01  -2.611351e+01
   7.982390e+01   3.807983e+01
   1.375321e+01   5.323972e+01
  -7.643709e+01   6.017997e+01
  -1.379992e+02   2.817789e+01
  -1.298360e+02  -8.976843e+01
  -2.827699e+01  -9.545813e+01
   1.313409e+02  -9.837501e+01
   1.413513e+02  -1.854508e+01
   4.578328e+01   5.991943e+01
  -9.522914e+01   6.710716e+01
  -1.160923e+02  -1.892981e+01
  -1.981088e+01  -9.571317e+01
   6.287022e+01  -7.165625e+01
   7.049291e+01  -4.510478e+00
   1.070731e+02   3.751358e+01
   1.845979e+01   4.339472e+01
   5.716628e+01  -1.803712e+00
   1.065296e+02   1.172507e+01
   4.390039e+01   3.629277e+01
  -4.866715e+01   1.500410e+02
  -1.522967e+02   9.594247e+01
  -1.549670e+02   7.368185e+01
  -1.344931e+02  -9.331726e+01
   7.237535e+00  -1.182858e+02
   1.012763e+01  -3.363024e+01
   7.082724e+01   1.615492e+01
  -6.752580e+01   5.640999e+01
  -9.662422e+01  -2.220524e+01
  -2.980526e+01  -6.898096e+01
   7.281991e+01  -1.075511e+02
   1.839714e+02  -3.357092e+01
   1.244840e+02   6.222756e+01
   6.205255e+00   7.074798e+01
  -7.943019e+01   6.350866e+01
  -7.183107e+01   1.031724e+01
   1.081235e+01  -3.518636e+01
   1.051623e+02  -2.396778e+00
   3.410996e+01   1.045065e+02
  -1.312697e+02   1.381460e+02
  -1.421577e+02   9.481657e+00
  -1.050786e+02  -7.812359e+01
  -5.226099e+00  -1.872603e+02
   1.312103e+02  -1.574385e+02
   1.300012e+02   3.493130e-01
   4.199229e+01   1.173514e+02
   1.118206e+00   7.534359e+01
  -7.797093e+00   3.346865e+01
  -8.847651e+00  -2.396741e+01
  -2.267082e+01  -1.242236e+01
  -1.611227e+01   3.738887e+01
  -4.345038e+01  -8.126566e+00
  -5.939566e+01  -7.839548e+01
  -3.722152e+01  -1.177634e+02
   8.661257e+01  -5.657844e+01
   1.080630e+02   7.753899e+01
   1.427286e+02   5.687009e+01
  -2.223384e-02   8.126115e+01
  -7.456774e+01  -1.720200e+00
  -1.083484e+02  -3.012364e+01
  -7.434786e+00  -1.626556e+01
   4.190986e+01  -1.734321e+01
   3.458477e+01  -4.168789e+01
  -3.408526e+01   2.135403e+01
  -4.995327e+01   1.758648e+01
   2.562228e+01  -2.093855e+01
   3.820214e+01   5.856015e+00
   1.142784e+01   2.173465e+01
  -6.511682e+01   9.382393e+01
  -1.662905e+02   5.590593e+01
  -1.118739e+02  -4.903066e+01
  -1.913072e+01  -1.717666e+02
   1.109825e+02  -1.471914e+02
   1.091071e+02  -9.376582e+01
   7.079386e+01   3.186010e+01
  -1.357178e+01   7.214653e+01
  -1.881771e+01   3.279553e+01
   1.867505e+01   4.106923e+01
   1.398074e+01   3.300292e+01
   2.132693e+01   8.783875e+01
  -2.927211e+01   7.066229e+01
  -3.906395e+01   1.266215e+01
  -7.143155e+01  -7.450489e+01
  -9.256282e+00  -6.807282e+01
   7.703717e+01  -2.255156e+01
   1.198570e+02   7.797021e+01
   2.907412e+01   1.224899e+02
  -3.571694e+01   2.103381e+01
  -1.280495e+02   2.159782e+00
  -5.962309e+01  -4.092575e+01
   1.671737e+01  -3.343430e+01
   7.587392e+01  -2.574963e+01
   1.107946e+01  -2.522093e+01
  -6.039254e+01   2.241429e+01
   1.674712e+00  -2.533212e+01
   9.182750e+01  -7.254101e+01
   9.672491e+01  -5.486587e+00
   6.744222e+01  -1.381805e+01
  -5.497573e+01   6.489178e+01
  -1.041905e+02   5.102844e+01
  -4.234268e+01   1.299296e+01
   2.864238e+01  -4.671480e+01
   4.826103e+01  -5.784595e+01
   3.162197e+01   1.383721e+01
   4.314699e+01   3.217448e+01
  -1.904714e+00   4.514951e+01
   5.335893e+00   2.196556e+01
   1.419256e+00   7.566912e+00
   1.096212e+00  -2.299282e+00
   6.895408e+00   5.793131e+01
  -3.293787e+01   1.997387e+01
   4.609759e+00  -5.071211e+01
  -1.815588e+01  -8.945024e+01
   6.685661e+01  -4.950433e+01
   2.440033e+01   5.239926e+01
   7.825943e+01   4.710622e+01
  -3.761182e+01   3.140562e+01
  -5.303593e+01  -7.113328e+01
  -5.504632e+01  -5.223899e+01
   4.654695e+01  -5.901479e+01
   1.099998e+02   4.999467e+00
   4.264681e+01  -4.188227e+00
  -5.401245e+01   5.156664e+01
  -1.005151e+02   2.155088e+01
  -3.931382e+01   2.231294e+01
   5.050478e+01  -3.794689e+01
   6.642424e+01   2.422611e+00
  -3.022400e+01   3.311172e+01
  -9.464615e+01   2.297700e+01
