
 $NMID
 id='ANONYMOUS ', fmtdat='(2E16.6)'
 volume=1.0
 tramp=1.0
 $END
  -5.263096e+07   1.332347e+06
  -3.268246e+07  -3.175584e+07
   5.914530e+06  -3.590168e+07
   2.555820e+07  -1.451947e+07
   1.579257e+07   6.110470e+06
  -2.821122e+06   8.893841e+06
  -9.349824e+06  -8.515596e+05
  -2.921279e+06  -9.159414e+06
   5.635952e+06  -9.022093e+06
   9.073079e+06  -2.146148e+06
   6.693772e+06   5.681469e+06
   9.159563e+05   8.069102e+06
  -3.678034e+06   2.632403e+06
  -2.532770e+06  -5.108702e+06
   3.449046e+06  -6.282525e+06
   7.455245e+06   1.060263e+06
   4.412362e+06   9.492502e+06
  -3.280566e+06   1.116926e+07
  -9.327881e+06   5.760029e+06
  -1.013249e+07  -1.676707e+06
  -6.337966e+06  -6.807391e+06
  -8.838456e+05  -8.008428e+06
   2.490689e+06  -5.745792e+06
   1.621011e+06  -2.697660e+06
  -1.027115e+06  -2.141955e+06
  -2.154165e+05  -3.934252e+06
   5.039392e+06  -4.140908e+06
   9.041827e+06  -5.622873e+05
   6.647152e+06   3.750054e+06
   2.964161e+05   4.677047e+06
  -3.439308e+06   2.387643e+06
  -2.244980e+06   7.329019e+03
   6.767693e+05  -8.484654e+05
   2.192031e+06  -3.861496e+05
   2.022609e+06   1.390412e+06
   6.280312e+05   3.668989e+06
  -1.614900e+06   3.605959e+06
  -2.948381e+06  -2.231633e+04
  -1.640829e+06  -3.306190e+06
   6.175819e+05  -1.763774e+06
   2.727203e+05   2.312751e+06
  -2.312517e+06   2.213737e+06
  -2.393476e+06  -2.950036e+06
   2.094089e+06  -5.849243e+06
   6.452074e+06  -1.184254e+06
   4.968092e+06   6.325288e+06
  -1.555216e+06   8.036448e+06
  -6.894855e+06   2.434926e+06
  -6.640364e+06  -4.066623e+06
  -1.865172e+06  -5.688260e+06
   3.254720e+06  -2.644089e+06
   5.037923e+06   1.358452e+06
   2.390112e+06   3.279354e+06
  -2.220932e+06   2.149681e+06
  -4.292616e+06  -7.606583e+05
  -1.914233e+06  -2.520154e+06
   1.580073e+06  -1.330461e+06
   1.676633e+06   9.502749e+05
  -1.222610e+06   9.501186e+05
  -2.430458e+06  -1.548073e+06
   4.054541e+05  -3.267212e+06
   4.259802e+06  -1.958238e+06
   5.040652e+06   1.109780e+06
   2.296153e+06   3.679640e+06
  -1.610064e+06   4.970424e+06
  -4.657674e+06   4.601088e+06
  -5.789344e+06   1.713651e+06
  -4.324557e+06  -2.890444e+06
  -9.689525e+05  -5.787420e+06
   1.677412e+06  -4.562118e+06
   1.673298e+06  -1.242491e+06
   2.381197e+05   2.187520e+05
   3.704572e+04  -8.673940e+05
   1.512514e+06  -1.625527e+06
   2.620486e+06  -1.947672e+05
   1.879460e+06   1.835104e+06
  -9.468131e+03   2.022419e+06
  -1.497366e+06   1.649171e+05
  -1.598798e+06  -1.997748e+06
  -8.334814e+03  -2.787316e+06
   2.596529e+06  -1.573265e+06
   4.210997e+06   1.077449e+06
   3.076970e+06   3.479327e+06
   4.838998e+04   3.960653e+06
  -2.069928e+06   2.600713e+06
  -2.074625e+06   1.136602e+06
  -1.739035e+06   6.979066e+05
  -2.811945e+06   4.981511e+05
  -4.162465e+06  -6.823110e+05
  -3.352872e+06  -2.612609e+06
  -1.512308e+05  -3.944288e+06
   3.044669e+06  -3.738473e+06
   3.968899e+06  -2.029075e+06
   2.515344e+06   3.968999e+05
   2.526462e+05   2.115206e+06
  -1.042270e+06   1.830097e+06
  -5.293448e+05  -3.318720e+04
   1.033904e+06  -1.249185e+06
   1.815574e+06  -3.966573e+05
   8.860347e+05   1.133731e+06
  -4.943055e+05   1.062351e+06
  -4.232180e+05  -3.833876e+05
   1.026407e+06  -7.092528e+05
   1.835673e+06   1.190982e+06
   6.983521e+05   3.357349e+06
  -1.493273e+06   3.346979e+06
  -3.046698e+06   1.135482e+06
  -3.224774e+06  -1.376447e+06
  -2.201685e+06  -2.674140e+06
  -4.318430e+05  -2.518343e+06
   1.188870e+06  -1.402086e+06
   1.508568e+06  -2.179018e+05
   4.730497e+05   4.212769e+04
  -3.474211e+05  -7.206686e+05
   3.833507e+05  -1.292302e+06
   1.823847e+06  -5.743999e+05
   1.964766e+06   8.352795e+05
   3.853592e+05   1.361789e+06
  -1.125783e+06   5.564077e+05
  -8.581033e+05  -4.431565e+05
   8.279788e+05  -5.112276e+05
   2.116090e+06   3.108126e+05
   1.683253e+06   1.321103e+06
  -2.469725e+05   1.907790e+06
  -2.224818e+06   1.594991e+06
  -2.667665e+06   2.694047e+05
  -1.179124e+06  -1.209664e+06
   8.680825e+05  -1.449364e+06
   1.494647e+06  -1.983771e+05
   2.023838e+05   1.031138e+06
  -1.452767e+06   7.154848e+05
  -1.659457e+06  -7.467861e+05
  -3.306471e+05  -1.597151e+06
   1.056731e+06  -9.501288e+05
   1.221460e+06   2.996737e+05
   2.419889e+05   7.595851e+05
  -7.677432e+05   6.037142e+04
  -7.133183e+05  -1.008358e+06
   5.472409e+05  -1.369121e+06
   1.925552e+06  -5.281659e+05
   1.959960e+06   1.000931e+06
   3.778105e+05   1.994497e+06
  -1.380318e+06   1.588783e+06
  -1.664268e+06   2.086287e+05
  -4.874172e+05  -8.384587e+05
   6.340806e+05  -7.764747e+05
   6.075311e+05  -7.021129e+04
  -1.238741e+05   3.499583e+05
  -4.811418e+05   1.920009e+05
  -1.126416e+05  -7.853918e+04
   4.467002e+05   6.679569e+04
   5.100984e+05   6.520270e+05
  -1.954482e+05   1.150764e+06
  -1.330269e+06   8.673409e+05
  -2.005114e+06  -3.927833e+05
  -1.415742e+06  -1.864675e+06
   2.032570e+05  -2.328476e+06
   1.556280e+06  -1.360124e+06
   1.629384e+06   1.253710e+05
   8.181017e+05   8.696878e+05
   2.894381e+05   6.265063e+05
   4.506070e+05   1.990404e+05
   6.095647e+05   2.899001e+05
   9.651094e+04   7.347824e+05
  -8.434915e+05   8.715658e+05
  -1.397419e+06   3.118493e+05
  -1.007006e+06  -6.999546e+05
   2.476413e+05  -1.407209e+06
   1.659587e+06  -1.032571e+06
   2.163636e+06   4.635567e+05
   1.095671e+06   2.022259e+06
  -9.665488e+05   2.285692e+06
  -2.449772e+06   1.002776e+06
  -2.269938e+06  -6.346330e+05
  -9.194668e+05  -1.297289e+06
   2.082074e+05  -9.135161e+05
   3.805635e+05  -4.814215e+05
   6.799495e+04  -7.112555e+05
   8.505786e+04  -1.252706e+06
   6.349715e+05  -1.245176e+06
   1.242064e+06  -3.154443e+05
   1.289476e+06   1.031940e+06
   5.414330e+05   1.818337e+06
  -5.926563e+05   1.382590e+06
  -1.237375e+06   2.697891e+02
  -7.878149e+05  -1.235389e+06
   3.730933e+05  -1.350128e+06
   1.127098e+06  -3.978745e+05
   7.939694e+05   6.716451e+05
  -1.118061e+05   1.045130e+06
  -5.189806e+05   7.632149e+05
  -8.636126e+04   4.027044e+05
   4.165092e+05   3.184688e+05
   5.857628e+04   3.667828e+05
  -1.106894e+06   2.085940e+05
  -1.989333e+06  -3.088443e+05
  -1.561928e+06  -9.931602e+05
   3.005877e+04  -1.388397e+06
   1.525862e+06  -1.110581e+06
   1.766201e+06  -2.733430e+05
   8.104154e+05   4.792453e+05
  -2.469420e+05   5.535835e+05
  -4.966691e+05   3.446260e+04
  -3.780576e+04  -4.054324e+05
   4.215477e+05  -2.489028e+05
   4.653169e+05   3.255276e+05
   2.500409e+05   6.865008e+05
   9.874662e+04   4.541193e+05
   1.355818e+05  -8.753000e+04
   2.689893e+05  -2.729221e+05
   2.653132e+05   2.244389e+05
  -1.314453e+05   9.442806e+05
  -8.591996e+05   1.030316e+06
  -1.311390e+06   1.859101e+05
  -8.305287e+05  -8.677037e+05
   3.877361e+05  -1.103441e+06
   1.206104e+06  -3.413735e+05
   7.076879e+05   5.441317e+05
  -6.756127e+05   6.268631e+05
  -1.528327e+06  -9.294003e+04
  -9.623655e+05  -8.369878e+05
   4.747637e+05  -9.529625e+05
   1.446548e+06  -4.529110e+05
   1.183874e+06   1.910694e+05
   1.250562e+05   4.953272e+05
  -6.278224e+05   2.579349e+05
  -3.759225e+05  -2.820356e+05
   5.522740e+05  -5.077291e+05
   1.135277e+06   6.201933e+04
   6.613728e+05   1.122253e+06
  -5.410253e+05   1.640628e+06
  -1.411482e+06   8.680218e+05
  -1.212426e+06  -7.151101e+05
  -2.073159e+05  -1.719034e+06
   7.076061e+05  -1.243115e+06
   8.927748e+05   1.740472e+05
   4.130983e+05   1.149716e+06
  -2.208607e+05   9.319044e+05
  -5.461920e+05   8.024261e+04
  -4.405513e+05  -3.622556e+05
  -1.464496e+05  -1.321088e+05
  -5.148843e+04   9.037475e+04
  -2.889516e+05  -2.837551e+05
  -5.033642e+05  -9.275054e+05
  -1.761669e+05  -1.039015e+06
   7.012470e+05  -3.875913e+05
   1.419691e+06   4.383251e+05
   1.224004e+06   8.016486e+05
   1.818996e+05   6.744313e+05
  -8.055713e+05   4.069969e+05
  -9.427322e+05   1.760028e+05
  -3.605680e+05  -5.260520e+04
   1.328198e+05  -2.181255e+05
   5.050237e+04  -1.947805e+05
  -2.361963e+05  -8.464020e+04
  -5.627198e+04  -1.246815e+05
   6.141339e+05  -2.349599e+05
   1.008561e+06  -5.899602e+03
   4.512220e+05   6.575560e+05
  -7.770966e+05   1.149555e+06
  -1.636970e+06   7.644117e+05
  -1.384221e+06  -3.822599e+05
  -2.880184e+05  -1.345590e+06
   7.260969e+05  -1.341384e+06
   1.001401e+06  -5.441562e+05
   6.283899e+05   2.055588e+05
   1.417832e+05   3.417193e+05
  -4.695914e+04   7.229285e+04
   8.774533e+04  -5.202840e+03
   2.858732e+05   3.589915e+05
   2.396749e+05   7.775290e+05
  -1.586463e+05   6.598522e+05
  -6.502442e+05  -9.402165e+04
  -7.343442e+05  -8.889440e+05
  -1.503927e+05  -9.887092e+05
   7.039203e+05  -2.676497e+05
   1.010139e+06   6.573685e+05
   3.663962e+05   1.042117e+06
  -6.695379e+05   6.785824e+05
  -1.087743e+06  -4.643806e+04
  -5.366404e+05  -5.939800e+05
   2.634948e+05  -6.774862e+05
   3.767006e+05  -3.684605e+05
  -2.169757e+05  -1.542346e+03
  -6.190284e+05   4.980695e+04
  -1.536576e+05  -2.968866e+05
   7.855918e+05  -6.632240e+05
   1.225391e+06  -5.272321e+05
   7.604199e+05   1.712140e+05
  -7.600956e+04   8.464831e+05
  -5.349537e+05   8.451337e+05
  -4.249354e+05   1.817450e+05
  -6.864980e+04  -4.497763e+05
   2.170981e+05  -4.337491e+05
   3.365055e+05   1.174350e+05
   2.570663e+05   5.505283e+05
  -3.502170e+04   4.287530e+05
  -3.764467e+05  -2.784778e+04
  -4.721343e+05  -2.744318e+05
  -2.377740e+05  -1.008536e+05
   4.833870e+04   1.571416e+05
   8.703497e+04   7.160623e+04
  -4.199737e+04  -3.223099e+05
  -4.166407e+03  -5.444501e+05
   2.838596e+05  -2.493830e+05
   4.695538e+05   3.284774e+05
   1.970578e+05   6.109601e+05
  -3.754424e+05   3.182177e+05
  -6.558055e+05  -2.411017e+05
  -2.637183e+05  -5.375736e+05
   4.877018e+05  -3.654510e+05
   8.618349e+05   4.506418e+04
   4.743630e+05   3.532794e+05
  -2.725833e+05   4.063630e+05
  -6.132321e+05   2.515814e+05
  -2.565335e+05   2.878342e+04
   3.060823e+05  -8.478212e+04
   3.803358e+05   3.198287e+04
  -1.402164e+05   2.660950e+05
  -6.795878e+05   2.706111e+05
