
 $NMID
 id='ANONYMOUS ', fmtdat='(2E16.6)'
 volume=1.0
 tramp=1.0
 $END
   3.346866e+07  -1.228740e+05
   2.037307e+07   2.037720e+07
  -4.072400e+06   2.261418e+07
  -1.628723e+07   9.095434e+06
  -9.988456e+06  -3.817087e+06
   1.787212e+06  -5.600689e+06
   5.928117e+06   4.868137e+05
   1.884532e+06   5.798682e+06
  -3.563260e+06   5.799925e+06
  -5.784282e+06   1.381433e+06
  -4.243597e+06  -3.717770e+06
  -5.043809e+05  -5.227623e+06
   2.417712e+06  -1.624951e+06
   1.621667e+06   3.390642e+06
  -2.227183e+06   4.081301e+06
  -4.749684e+06  -6.967336e+05
  -2.753646e+06  -6.097933e+06
   2.185136e+06  -7.106903e+06
   6.018993e+06  -3.560521e+06
   6.430739e+06   1.236313e+06
   3.884186e+06   4.440759e+06
   3.907056e+05   5.047254e+06
  -1.610795e+06   3.522123e+06
  -8.906332e+05   1.686397e+06
   7.818746e+05   1.506075e+06
   7.856407e+04   2.668518e+06
  -3.419469e+06   2.639869e+06
  -5.932404e+06   2.039287e+05
  -4.234608e+06  -2.551449e+06
  -3.706328e+04  -3.036593e+06
   2.363306e+06  -1.457414e+06
   1.480141e+06   1.369690e+05
  -5.525659e+05   6.683788e+05
  -1.581715e+06   2.437012e+05
  -1.358721e+06  -1.035161e+06
  -3.066272e+05  -2.482276e+06
   1.136253e+06  -2.279118e+06
   1.845887e+06   1.477880e+05
   9.178456e+05   2.159846e+06
  -4.532690e+05   1.019563e+06
  -1.212139e+05  -1.609746e+06
   1.530958e+06  -1.454194e+06
   1.520304e+06   1.888101e+06
  -1.333471e+06   3.687609e+06
  -4.034129e+06   6.763023e+05
  -3.054633e+06  -4.058828e+06
   1.060750e+06  -5.069146e+06
   4.425616e+06  -1.467874e+06
   4.266138e+06   2.667212e+06
   1.209805e+06   3.688187e+06
  -2.109093e+06   1.724281e+06
  -3.283925e+06  -8.664016e+05
  -1.572848e+06  -2.109537e+06
   1.410010e+06  -1.369379e+06
   2.743636e+06   5.046902e+05
   1.218270e+06   1.612981e+06
  -1.019013e+06   8.366382e+05
  -1.098148e+06  -6.155671e+05
   7.326033e+05  -6.244973e+05
   1.524778e+06   9.274607e+05
  -2.245004e+05   1.998665e+06
  -2.654566e+06   1.199297e+06
  -3.182565e+06  -7.050682e+05
  -1.445054e+06  -2.342813e+06
   1.108605e+06  -3.193738e+06
   3.115995e+06  -2.936537e+06
   3.795629e+06  -1.021291e+06
   2.744522e+06   1.958091e+06
   5.471120e+05   3.777650e+06
  -1.094912e+06   2.955774e+06
  -1.044577e+06   8.462857e+05
  -1.684993e+05  -5.621397e+04
  -1.259040e+05   6.214013e+05
  -1.104350e+06   1.030526e+06
  -1.770720e+06   3.156738e+04
  -1.217024e+06  -1.302877e+06
   6.478000e+04  -1.383816e+06
   1.047346e+06  -9.985196e+04
   1.072645e+06   1.364794e+06
  -2.953313e+04   1.859610e+06
  -1.742758e+06   9.881399e+05
  -2.733753e+06  -7.868368e+05
  -1.929084e+06  -2.307535e+06
   3.667111e+04  -2.539238e+06
   1.355732e+06  -1.625707e+06
   1.321494e+06  -7.091433e+05
   1.116403e+06  -4.619741e+05
   1.844023e+06  -3.315948e+05
   2.736146e+06   4.602198e+05
   2.199772e+06   1.737221e+06
   8.107697e+04   2.610912e+06
  -2.047249e+06   2.459618e+06
  -2.663536e+06   1.303820e+06
  -1.666664e+06  -3.123871e+05
  -1.229723e+05  -1.424046e+06
   7.331077e+05  -1.198579e+06
   3.506406e+05   3.847426e+04
  -7.048852e+05   8.189168e+05
  -1.199092e+06   2.445697e+05
  -5.623999e+05  -7.563614e+05
   3.453449e+05  -7.052955e+05
   2.975447e+05   2.474557e+05
  -6.436956e+05   4.864516e+05
  -1.187402e+06  -7.275063e+05
  -4.914574e+05  -2.159790e+06
   9.139199e+05  -2.214776e+06
   1.969698e+06  -8.075055e+05
   2.153197e+06   8.687640e+05
   1.498686e+06   1.779559e+06
   2.955234e+05   1.693230e+06
  -8.052041e+05   9.296330e+05
  -1.011017e+06   1.304704e+05
  -3.136385e+05  -3.078161e+04
   2.271167e+05   4.791472e+05
  -2.562623e+05   8.444379e+05
  -1.197636e+06   3.649412e+05
  -1.286684e+06  -5.530590e+05
  -2.519758e+05  -8.921261e+05
   7.447818e+05  -3.665482e+05
   5.789434e+05   2.934324e+05
  -5.367558e+05   3.528447e+05
  -1.411901e+06  -1.866118e+05
  -1.141122e+06  -8.751210e+05
   1.514237e+05  -1.280808e+06
   1.482821e+06  -1.064365e+06
   1.773401e+06  -1.706860e+05
   7.717073e+05   8.021514e+05
  -5.820913e+05   9.430577e+05
  -9.794914e+05   1.158880e+05
  -1.185549e+05  -6.800229e+05
   9.656924e+05  -4.630151e+05
   1.096063e+06   4.971903e+05
   2.230466e+05   1.055957e+06
  -6.916309e+05   6.345450e+05
  -8.080446e+05  -1.883393e+05
  -1.667256e+05  -4.967258e+05
   5.014852e+05  -3.654156e+04
   4.641547e+05   6.715406e+05
  -3.743851e+05   9.041527e+05
  -1.282937e+06   3.357271e+05
  -1.292974e+06  -6.778334e+05
  -2.389049e+05  -1.323000e+06
   9.193352e+05  -1.044665e+06
   1.101405e+06  -1.337664e+05
   3.232134e+05   5.546097e+05
  -4.210700e+05   5.145126e+05
  -4.114990e+05   4.466248e+04
   7.349243e+04  -2.435605e+05
   3.270469e+05  -1.425236e+05
   9.772179e+04   4.974196e+04
  -2.788058e+05  -3.071622e+04
  -3.371860e+05  -4.174560e+05
   1.250191e+05  -7.564132e+05
   8.818157e+05  -5.706441e+05
   1.327657e+06   2.687098e+05
   9.287042e+05   1.244004e+06
  -1.465066e+05   1.547451e+06
  -1.039019e+06   9.053946e+05
  -1.088889e+06  -8.076996e+04
  -5.566713e+05  -5.864327e+05
  -2.004811e+05  -4.391201e+05
  -2.901568e+05  -1.522808e+05
  -3.870046e+05  -1.942433e+05
  -5.556987e+04  -4.789892e+05
   5.584014e+05  -5.755218e+05
   9.294825e+05  -2.091618e+05
   6.767618e+05   4.687700e+05
  -1.603570e+05   9.431461e+05
  -1.105525e+06   6.868210e+05
  -1.438602e+06  -3.144499e+05
  -7.240102e+05  -1.343685e+06
   6.421971e+05  -1.508676e+06
   1.620726e+06  -6.591135e+05
   1.506147e+06   4.189270e+05
   6.209560e+05   8.605364e+05
  -1.292938e+05   6.175117e+05
  -2.615578e+05   3.343020e+05
  -6.826419e+04   4.757304e+05
  -7.580644e+04   8.223376e+05
  -4.275094e+05   8.136841e+05
  -8.212669e+05   1.982673e+05
  -8.483635e+05  -6.941997e+05
  -3.485652e+05  -1.211734e+06
   4.027431e+05  -9.156349e+05
   8.224197e+05   3.521684e+03
   5.185541e+05   8.179688e+05
  -2.459115e+05   8.911131e+05
  -7.368442e+05   2.662506e+05
  -5.177227e+05  -4.337229e+05
   7.072493e+04  -6.807837e+05
   3.333772e+05  -5.020619e+05
   5.186141e+04  -2.712478e+05
  -2.730141e+05  -2.176235e+05
  -3.557227e+04  -2.456301e+05
   7.303524e+05  -1.332412e+05
   1.311323e+06   2.143657e+05
   1.030520e+06   6.626596e+05
  -2.009778e+04   9.125255e+05
  -1.009346e+06   7.234606e+05
  -1.168679e+06   1.777361e+05
  -5.356841e+05  -3.094981e+05
   1.636394e+05  -3.592670e+05
   3.253145e+05  -2.435300e+04
   1.716514e+04   2.630430e+05
  -2.857900e+05   1.617465e+05
  -3.057361e+05  -2.194174e+05
  -1.538763e+05  -4.623498e+05
  -5.469825e+04  -3.051119e+05
  -8.974333e+04   6.393460e+04
  -1.849225e+05   1.896471e+05
  -1.765785e+05  -1.487640e+05
   9.586759e+04  -6.307637e+05
   5.762139e+05  -6.779718e+05
   8.630960e+05  -1.074992e+05
   5.363700e+05   5.841829e+05
  -2.659800e+05   7.223224e+05
  -7.992762e+05   2.095667e+05
  -4.664025e+05  -3.687516e+05
   4.493438e+05  -4.139149e+05
   1.017464e+06   6.372957e+04
   6.464477e+05   5.554142e+05
  -3.093898e+05   6.357669e+05
  -9.625132e+05   3.069263e+05
  -7.922019e+05  -1.241209e+05
  -8.586190e+04  -3.307393e+05
   4.163519e+05  -1.722197e+05
   2.445915e+05   1.874116e+05
  -3.754280e+05   3.310750e+05
  -7.551921e+05  -5.482840e+04
  -4.256719e+05  -7.555916e+05
   3.801199e+05  -1.086479e+06
   9.499204e+05  -5.636550e+05
   8.024035e+05   4.863504e+05
   1.270941e+05   1.147017e+06
  -4.766795e+05   8.278338e+05
  -5.931338e+05  -1.145138e+05
  -2.743418e+05  -7.647715e+05
   1.431383e+05  -6.212492e+05
   3.606343e+05  -5.314706e+04
   2.972169e+05   2.433348e+05
   1.036221e+05   8.915677e+04
   3.184174e+04  -6.117711e+04
   1.804059e+05   1.884086e+05
   3.257196e+05   6.189995e+05
   1.193871e+05   6.918212e+05
  -4.596024e+05   2.530722e+05
  -9.435025e+05  -2.996851e+05
  -8.171682e+05  -5.384994e+05
  -1.176949e+05  -4.479708e+05
   5.449245e+05  -2.669976e+05
   6.300705e+05  -1.147224e+05
   2.332204e+05   3.463298e+04
  -9.238718e+04   1.442784e+05
  -2.626455e+04   1.311149e+05
   1.658456e+05   6.002884e+04
   3.370772e+04   8.461451e+04
  -4.195153e+05   1.515560e+05
  -6.706724e+05  -5.348451e+03
  -2.837048e+05  -4.420930e+05
   5.335442e+05  -7.566983e+05
   1.090211e+06  -4.902664e+05
   9.094815e+05   2.707298e+05
   1.796802e+05   8.993331e+05
  -4.906262e+05   8.842535e+05
  -6.711035e+05   3.497394e+05
  -4.189869e+05  -1.451943e+05
  -8.854412e+04  -2.290610e+05
   3.983908e+04  -4.482405e+04
  -5.445090e+04   7.632120e+03
  -1.908766e+05  -2.374052e+05
  -1.573663e+05  -5.180846e+05
   1.121896e+05  -4.366385e+05
   4.349047e+05   7.206123e+04
   4.789240e+05   6.030584e+05
   8.414204e+04   6.601894e+05
  -4.768172e+05   1.667295e+05
  -6.665537e+05  -4.522049e+05
  -2.311060e+05  -6.967917e+05
   4.529863e+05  -4.412667e+05
   7.200983e+05   4.188119e+04
   3.471060e+05   3.949041e+05
  -1.813687e+05   4.417825e+05
  -2.474396e+05   2.392498e+05
   1.518388e+05   3.543956e+03
   4.142703e+05  -2.802222e+04
   9.735426e+04   1.978676e+05
  -5.271676e+05   4.365386e+05
  -8.118028e+05   3.456622e+05
  -4.963920e+05  -1.156914e+05
   5.802447e+04  -5.599966e+05
   3.566822e+05  -5.540120e+05
   2.783780e+05  -1.110885e+05
   3.943147e+04   3.034941e+05
  -1.498551e+05   2.835468e+05
  -2.249412e+05  -8.666030e+04
  -1.660406e+05  -3.686439e+05
   2.957232e+04  -2.797421e+05
   2.506642e+05   2.412459e+04
   3.088077e+05   1.823002e+05
   1.563890e+05   6.498913e+04
  -2.663375e+04  -1.008298e+05
  -5.472768e+04  -3.821964e+04
   1.789629e+04   2.209394e+05
  -1.531445e+04   3.585019e+05
  -1.975327e+05   1.533826e+05
  -3.034954e+05  -2.316059e+05
  -1.156500e+05  -4.117446e+05
   2.561583e+05  -2.065693e+05
   4.313492e+05   1.706071e+05
   1.687951e+05   3.630021e+05
  -3.255974e+05   2.380353e+05
  -5.700421e+05  -4.031608e+04
  -3.110765e+05  -2.393017e+05
   1.856675e+05  -2.635628e+05
   4.096974e+05  -1.564516e+05
   1.662018e+05  -1.491342e+04
  -2.125172e+05   5.071134e+04
  -2.573021e+05  -3.059297e+04
   9.996200e+04  -1.816098e+05
   4.636251e+05  -1.768830e+05
