
 $NMID
 id='ANONYMOUS ', fmtdat='(2E16.6)'
 volume=1.0
 tramp=1.0
 $END
  -5.618627e+07   1.085879e+06
  -3.434538e+07  -3.415526e+07
   6.766883e+06  -3.810035e+07
   2.715662e+07  -1.504890e+07
   1.644173e+07   6.689024e+06
  -3.140197e+06   9.313854e+06
  -9.746596e+06  -1.049620e+06
  -2.916200e+06  -9.628837e+06
   5.954019e+06  -9.356098e+06
   9.523949e+06  -2.158829e+06
   7.095586e+06   6.016840e+06
   1.017686e+06   8.538813e+06
  -3.921303e+06   2.834830e+06
  -2.771125e+06  -5.326302e+06
   3.573562e+06  -6.566370e+06
   7.840302e+06   1.177670e+06
   4.623749e+06   1.005639e+07
  -3.522769e+06   1.181107e+07
  -9.948130e+06   6.092839e+06
  -1.083500e+07  -1.821165e+06
  -6.774578e+06  -7.355674e+06
  -8.479679e+05  -8.648882e+06
   2.833380e+06  -6.087569e+06
   1.820852e+06  -2.647586e+06
  -1.187503e+06  -2.042919e+06
  -4.139434e+05  -4.143219e+06
   5.247920e+06  -4.558163e+06
   9.622241e+06  -7.746637e+05
   7.139933e+06   3.940489e+06
   3.905263e+05   5.078538e+06
  -3.648877e+06   2.708709e+06
  -2.513963e+06   1.003318e+05
   5.124426e+05  -9.866467e+05
   2.235139e+06  -6.171316e+05
   2.268174e+06   1.330376e+06
   8.414621e+05   3.913848e+06
  -1.708780e+06   3.908255e+06
  -3.271109e+06  -4.104635e+04
  -1.804370e+06  -3.624356e+06
   7.731333e+05  -1.960236e+06
   4.548966e+05   2.443162e+06
  -2.370498e+06   2.356546e+06
  -2.494076e+06  -3.121788e+06
   2.305671e+06  -6.133031e+06
   6.911812e+06  -1.113845e+06
   5.231803e+06   6.816356e+06
  -1.747857e+06   8.528844e+06
  -7.353115e+06   2.562461e+06
  -7.012698e+06  -4.259347e+06
  -1.974329e+06  -5.936475e+06
   3.378712e+06  -2.771082e+06
   5.245900e+06   1.382557e+06
   2.479760e+06   3.393166e+06
  -2.356410e+06   2.224971e+06
  -4.518595e+06  -8.241086e+05
  -1.990766e+06  -2.662348e+06
   1.682228e+06  -1.398859e+06
   1.750015e+06   9.730560e+05
  -1.288433e+06   9.184811e+05
  -2.470531e+06  -1.702857e+06
   5.769618e+05  -3.415654e+06
   4.574665e+06  -1.957863e+06
   5.287480e+06   1.250690e+06
   2.378983e+06   3.906588e+06
  -1.670095e+06   5.294127e+06
  -4.866483e+06   4.968720e+06
  -6.138398e+06   1.905141e+06
  -4.660824e+06  -3.042706e+06
  -1.101190e+06  -6.134902e+06
   1.732465e+06  -4.783454e+06
   1.705855e+06  -1.238144e+06
   1.342718e+05   2.425675e+05
  -7.951995e+04  -1.013617e+06
   1.556388e+06  -1.871194e+06
   2.830294e+06  -3.413811e+05
   2.114314e+06   1.868782e+06
   1.112067e+05   2.158992e+06
  -1.544015e+06   2.761719e+05
  -1.752054e+06  -2.009884e+06
  -9.908303e+04  -2.936327e+06
   2.724085e+06  -1.741522e+06
   4.514604e+06   1.068982e+06
   3.321193e+06   3.684464e+06
   5.894656e+04   4.234769e+06
  -2.221234e+06   2.767818e+06
  -2.206091e+06   1.178827e+06
  -1.806455e+06   7.201405e+05
  -2.918153e+06   5.566423e+05
  -4.361912e+06  -6.400113e+05
  -3.560506e+06  -2.665891e+06
  -2.494716e+05  -4.122572e+06
   3.092313e+06  -3.999458e+06
   4.118704e+06  -2.256013e+06
   2.685401e+06   3.382215e+05
   3.545764e+05   2.240593e+06
  -1.044312e+06   1.983385e+06
  -5.712445e+05  -1.780483e+04
   1.051511e+06  -1.349764e+06
   1.903510e+06  -4.535100e+05
   9.613981e+05   1.188552e+06
  -4.830512e+05   1.136081e+06
  -4.338018e+05  -3.719638e+05
   1.046147e+06  -7.087207e+05
   1.870441e+06   1.258048e+06
   7.088303e+05   3.464450e+06
  -1.511312e+06   3.419310e+06
  -3.092212e+06   1.165594e+06
  -3.322170e+06  -1.354713e+06
  -2.342252e+06  -2.677596e+06
  -5.323217e+05  -2.587121e+06
   1.196710e+06  -1.505765e+06
   1.575917e+06  -2.796758e+05
   4.958629e+05   3.187560e+04
  -3.803757e+05  -7.452975e+05
   3.844689e+05  -1.359968e+06
   1.908002e+06  -6.297631e+05
   2.066559e+06   8.451541e+05
   4.181542e+05   1.416322e+06
  -1.162844e+06   6.024866e+05
  -8.984625e+05  -4.302232e+05
   8.369920e+05  -5.310691e+05
   2.180132e+06   2.707081e+05
   1.769855e+06   1.304125e+06
  -1.981423e+05   1.967722e+06
  -2.265030e+06   1.715851e+06
  -2.774840e+06   3.494821e+05
  -1.256641e+06  -1.243341e+06
   8.898344e+05  -1.541120e+06
   1.573141e+06  -2.311578e+05
   2.346599e+05   1.088706e+06
  -1.507816e+06   7.840773e+05
  -1.746212e+06  -7.436020e+05
  -3.740999e+05  -1.649390e+06
   1.075476e+06  -9.981560e+05
   1.264477e+06   2.911217e+05
   2.569044e+05   7.799524e+05
  -8.055041e+05   7.236848e+04
  -7.728050e+05  -1.042623e+06
   5.374963e+05  -1.452824e+06
   2.005842e+06  -6.071996e+05
   2.081036e+06   9.983715e+05
   4.434501e+05   2.079122e+06
  -1.408115e+06   1.691368e+06
  -1.731392e+06   2.533677e+05
  -5.231257e+05  -8.613926e+05
   6.425779e+05  -8.222631e+05
   6.292460e+05  -9.741490e+04
  -1.102482e+05   3.524825e+05
  -4.745700e+05   2.152126e+05
  -1.077519e+05  -5.164448e+04
   4.556458e+05   8.521565e+04
   5.276776e+05   6.725544e+05
  -1.860380e+05   1.197773e+06
  -1.368333e+06   9.342086e+05
  -2.104723e+06  -3.609802e+05
  -1.528226e+06  -1.915301e+06
   1.488691e+05  -2.438187e+06
   1.579405e+06  -1.456611e+06
   1.689997e+06   8.348100e+04
   8.762536e+05   8.633988e+05
   3.408413e+05   6.239752e+05
   5.016125e+05   1.986536e+05
   6.500852e+05   3.073681e+05
   1.111392e+05   7.749879e+05
  -8.592812e+05   9.255338e+05
  -1.441041e+06   3.599441e+05
  -1.065513e+06  -6.904933e+05
   2.133789e+05  -1.459776e+06
   1.696457e+06  -1.117722e+06
   2.267294e+06   4.240267e+05
   1.190153e+06   2.079356e+06
  -9.604825e+05   2.403142e+06
  -2.532613e+06   1.096512e+06
  -2.371581e+06  -6.074712e+05
  -9.812231e+05  -1.313679e+06
   1.846583e+05  -9.388929e+05
   3.622221e+05  -5.144254e+05
   3.985563e+04  -7.677875e+05
   6.206969e+04  -1.331372e+06
   6.436958e+05  -1.321738e+06
   1.298381e+06  -3.579459e+05
   1.379139e+06   1.047442e+06
   6.161659e+05   1.888427e+06
  -5.820240e+05   1.463405e+06
  -1.290342e+06   3.237573e+04
  -8.475363e+05  -1.271647e+06
   3.626637e+05  -1.412124e+06
   1.164129e+06  -4.256167e+05
   8.303348e+05   6.955359e+05
  -1.085727e+05   1.090067e+06
  -5.314881e+05   7.940406e+05
  -7.778855e+04   4.122482e+05
   4.495224e+05   3.223907e+05
   7.386944e+04   3.827469e+05
  -1.153465e+06   2.402222e+05
  -2.090251e+06  -2.805162e+05
  -1.653976e+06  -1.001259e+06
   9.191928e+03  -1.448040e+06
   1.577815e+06  -1.192213e+06
   1.835349e+06  -3.229641e+05
   8.441794e+05   4.853726e+05
  -2.534930e+05   5.843418e+05
  -5.153635e+05   4.179988e+04
  -4.506980e+04  -4.323534e+05
   4.335405e+05  -2.772435e+05
   4.965154e+05   3.294765e+05
   2.894041e+05   7.191351e+05
   1.224221e+05   4.811452e+05
   1.316619e+05  -9.151976e+04
   2.601038e+05  -2.945582e+05
   2.810953e+05   2.261017e+05
  -1.051340e+05   9.934069e+05
  -8.730234e+05   1.101464e+06
  -1.381184e+06   2.226609e+05
  -9.003703e+05  -8.966016e+05
   3.852313e+05  -1.170923e+06
   1.266515e+06  -3.892522e+05
   7.589947e+05   5.494294e+05
  -6.894338e+05   6.695024e+05
  -1.591662e+06  -5.569600e+04
  -1.016681e+06  -8.376413e+05
   4.691392e+05  -9.933201e+05
   1.483960e+06  -5.053474e+05
   1.229062e+06   1.637919e+05
   1.429114e+05   5.075811e+05
  -6.454831e+05   2.820981e+05
  -3.998671e+05  -2.902480e+05
   5.654669e+05  -5.542105e+05
   1.197412e+06   2.971387e+04
   7.326712e+05   1.162332e+06
  -5.174508e+05   1.744443e+06
  -1.455872e+06   9.566821e+05
  -1.292104e+06  -7.122759e+05
  -2.679964e+05  -1.791764e+06
   6.996230e+05  -1.316103e+06
   9.306210e+05   1.594116e+05
   4.586755e+05   1.184339e+06
  -2.056607e+05   9.687081e+05
  -5.668780e+05   9.425863e+04
  -4.680539e+05  -3.590913e+05
  -1.544337e+05  -1.255938e+05
  -5.098415e+04   9.177401e+04
  -3.120691e+05  -3.017985e+05
  -5.528078e+05  -9.608266e+05
  -2.092084e+05  -1.071923e+06
   7.272780e+05  -4.142245e+05
   1.495978e+06   4.167686e+05
   1.296885e+06   7.957071e+05
   2.068294e+05   7.001470e+05
  -8.269551e+05   4.557869e+05
  -9.763387e+05   2.114506e+05
  -3.782883e+05  -5.353844e+04
   1.317132e+05  -2.350829e+05
   4.877191e+04  -1.940304e+05
  -2.483818e+05  -6.977816e+04
  -6.537882e+04  -1.319313e+05
   6.329528e+05  -2.750731e+05
   1.058859e+06  -3.554838e+04
   4.981919e+05   6.893490e+05
  -7.804479e+05   1.237317e+06
  -1.702312e+06   8.451162e+05
  -1.472226e+06  -3.682937e+05
  -3.437255e+05  -1.402875e+06
   7.263775e+05  -1.424591e+06
   1.038958e+06  -6.021423e+05
   6.678736e+05   1.926714e+05
   1.606630e+05   3.576331e+05
  -4.718470e+04   8.809681e+04
   8.767403e+04  -1.164765e+03
   3.041864e+05   3.653877e+05
   2.707395e+05   8.038077e+05
  -1.479923e+05   6.985659e+05
  -6.884028e+05  -7.423382e+04
  -8.036695e+05  -9.112786e+05
  -1.911645e+05  -1.041271e+06
   7.343236e+05  -3.110568e+05
   1.086255e+06   6.572085e+05
   4.168689e+05   1.086788e+06
  -6.870693e+05   7.354592e+05
  -1.145828e+06  -1.991597e+04
  -5.766687e+05  -6.153015e+05
   2.644684e+05  -7.217186e+05
   3.903896e+05  -3.911802e+05
  -2.251188e+05   1.403549e+04
  -6.468069e+05   7.276335e+04
  -1.697456e+05  -3.101183e+05
   8.027638e+05  -7.164471e+05
   1.266995e+06  -5.770474e+05
   8.004686e+05   1.690522e+05
  -5.792095e+04   8.915094e+05
  -5.436145e+05   8.960327e+05
  -4.503753e+05   1.987176e+05
  -9.062601e+04  -4.710654e+05
   2.180657e+05  -4.647810e+05
   3.623050e+05   1.083927e+05
   2.861222e+05   5.702221e+05
  -2.930621e+04   4.561539e+05
  -3.983660e+05  -1.664609e+04
  -4.993808e+05  -2.794873e+05
  -2.477886e+05  -1.017382e+05
   5.216019e+04   1.702485e+05
   8.230240e+04   8.002788e+04
  -6.399385e+04  -3.429759e+05
  -2.157317e+04  -5.887231e+05
   2.997579e+05  -2.820973e+05
   5.156399e+05   3.342301e+05
   2.333125e+05   6.458350e+05
  -3.852437e+05   3.500267e+05
  -7.017647e+05  -2.351820e+05
  -2.970188e+05  -5.573251e+05
   5.028600e+05  -3.956674e+05
   9.102288e+05   2.429492e+04
   5.088437e+05   3.584218e+05
  -2.790598e+05   4.371747e+05
  -6.429233e+05   2.837342e+05
  -2.726912e+05   3.290328e+04
   3.188253e+05  -1.089605e+05
   4.052122e+05   1.441846e+04
  -1.305220e+05   2.860308e+05
  -6.978434e+05   3.135976e+05
