
 $NMID
 id='ANONYMOUS ', fmtdat='(2E16.6)'
 volume=1.0
 tramp=1.0
 $END
   3.311284e+03  -9.506878e+01
   2.172521e+03   1.882979e+03
  -1.146224e+02   2.047434e+03
  -1.330765e+03   1.121221e+03
  -1.083125e+03   1.676956e+02
  -7.252073e+01  -3.328576e+02
   4.142139e+02   1.068206e+02
  -2.675982e+00   4.345995e+02
  -5.485490e+02   6.392624e+02
  -8.855916e+02   7.273932e+01
  -6.033198e+02  -3.185851e+02
  -8.675861e+00  -6.194961e+02
   2.851060e+02  -1.509884e+02
   3.638473e+02   4.568701e+02
  -1.792202e+01   5.659331e+02
  -3.729733e+02   1.827146e+02
  -2.135325e+02  -3.960844e+02
   1.504297e+01  -7.198143e+02
   3.163592e+02  -4.075934e+02
   3.992634e+02   2.769039e+02
   1.930447e+02   3.068740e+02
  -1.612963e+02   2.680846e+02
   2.638423e+01  -1.736568e+02
   1.326556e+02   6.041260e+01
   1.269397e+02   4.297131e+02
  -5.949189e+01   2.654105e+02
  -6.384089e+02   2.307340e+02
  -5.884132e+02  -2.113073e+02
  -1.469349e+02  -3.693216e+02
   2.323547e+02  -1.524680e+02
   3.750200e+02   1.369239e+01
   1.972333e+02   2.745260e+02
  -2.057698e+02   2.541584e+02
  -3.973867e+02   1.915864e+02
  -3.214483e+02  -1.281115e+02
   2.442265e+01  -1.928673e+02
   4.001677e+01  -6.568332e+01
  -1.461234e+02   4.508591e+01
  -1.654572e+02   1.362011e+02
  -2.094368e+02  -1.672360e+02
  -1.442950e+01  -4.191383e+02
   2.185484e+02  -3.184846e+02
   2.458586e+02  -1.775589e+01
   1.077212e+02   2.876328e+02
  -1.019177e+02   1.078470e+02
  -1.118365e+02  -1.832213e+02
   4.918373e+01  -2.883821e+02
   4.101661e+02  -5.323114e+01
   4.712770e+02   3.576137e+02
   1.541044e+02   4.548762e+02
  -2.727439e+02   2.453080e+02
  -5.284212e+02  -5.407276e+01
  -3.320837e+02  -2.500567e+02
   1.087480e+01  -2.057539e+02
   2.165083e+02  -9.212160e+01
   1.655201e+02   1.331544e+01
  -5.360534e+00  -9.318885e+00
  -2.900856e+01  -5.350521e+01
   1.032667e+02  -2.542936e+01
   2.005241e+02   1.479962e+01
   1.546896e+02   1.411427e+02
  -1.172803e+02   2.022627e+02
  -3.245368e+02   1.183573e+02
  -3.003095e+02  -6.514572e+01
   1.960798e+01  -2.338512e+02
   2.519391e+02  -2.909866e+02
   3.227889e+02  -1.890286e+02
   1.994439e+02   1.138862e+02
   3.124691e+01   2.485209e+02
   2.810470e+01   2.480840e+02
  -1.164793e+01   1.288941e+02
  -6.299419e+01   6.108008e+01
  -1.263368e+02   7.541821e+01
  -2.058006e+02   5.894894e+01
  -1.672450e+02  -8.400491e+01
  -7.496751e+01  -2.478991e+02
   3.025601e+01  -2.235936e+02
   1.836617e+02   1.574808e+01
   1.446836e+02   2.416590e+02
  -2.348528e+00   2.651441e+02
  -2.149323e+02   7.075930e+01
  -3.260062e+02  -1.316419e+02
  -1.852108e+02  -2.558395e+02
   1.814750e+01  -2.269993e+02
   1.527094e+02  -1.714446e+02
   1.482389e+02  -1.047346e+02
   1.713111e+02  -1.263260e+02
   2.642282e+02  -1.257139e+01
   3.878774e+02   1.493466e+02
   3.128689e+02   3.201257e+02
   2.769375e+01   4.691907e+02
  -2.780063e+02   3.836111e+02
  -4.585311e+02   1.938761e+02
  -2.926644e+02  -8.926181e+01
  -8.015471e+01  -2.504436e+02
   6.141942e+01  -2.330423e+02
   1.592638e+01  -3.124657e+01
  -4.524628e+01   5.429829e+01
  -1.081250e+02  -1.988275e+01
  -4.508357e+01  -1.423679e+02
   4.849035e+01  -1.008640e+02
   4.990591e+01   2.357133e+01
   1.440074e+01   5.349095e+01
  -1.540717e+02   1.569628e+01
  -1.647372e+02  -2.498105e+02
  -9.227419e+00  -2.885085e+02
   2.454185e+02  -2.045296e+02
   3.489462e+02   3.797377e+01
   2.642772e+02   2.318194e+02
   5.673850e+01   2.857844e+02
  -1.524100e+02   1.292731e+02
  -1.378595e+02   8.872442e+00
  -5.719678e+01  -2.462380e+01
   4.549510e+01   5.089689e+01
   2.229199e+01   9.382148e+01
  -1.117303e+02   7.054147e+01
  -1.101697e+02  -5.810228e+00
  -3.301979e+01  -9.749437e+00
   8.397234e+01   4.110342e+01
   5.070440e+01   1.021028e+02
  -1.546782e+02   1.150494e+02
  -2.858321e+02  -8.948305e+00
  -2.281487e+02  -1.805008e+02
  -1.963530e+01  -2.871585e+02
   2.080728e+02  -2.264862e+02
   2.749663e+02  -5.001472e+01
   1.587681e+02   2.822047e+01
   2.461690e+01   8.251828e+01
  -8.030099e+01  -1.207472e+01
   5.374846e+01  -4.383492e+01
   1.894099e+02   5.025746e+00
   1.334964e+02   1.161538e+02
   1.791863e+01   1.436934e+02
  -1.068472e+02   6.900500e+01
  -1.087883e+02  -1.177786e+01
   3.373498e+01  -7.242828e+01
   1.003828e+02   1.688874e+01
   7.235608e+01   9.408200e+01
  -8.272383e+01   1.250265e+02
  -2.276016e+02   1.149148e+01
  -1.958094e+02  -1.168921e+02
  -4.368422e+01  -2.427298e+02
   1.394881e+02  -1.345964e+02
   1.648614e+02  -5.001519e+01
   7.995888e+01   4.565015e+01
   5.869310e+00   8.700757e+01
  -6.519253e+01   5.276939e+01
   2.171043e+01   4.035204e+01
   1.707173e+01   3.869542e+01
  -4.166422e+01   7.111900e+01
  -1.041825e+02   3.196039e+00
  -9.607562e+01  -1.436650e+02
  -2.139949e+01  -1.838965e+02
   1.419173e+02  -1.298686e+02
   2.334835e+02  -3.854612e+01
   2.118825e+02   1.038375e+02
   5.668014e+01   1.677104e+02
  -7.136039e+01   1.459354e+02
  -1.045217e+02   5.880296e+01
  -4.291089e+01  -4.078887e+00
  -5.701145e+01   3.986379e+01
  -6.435845e+01   6.377940e+00
  -1.048798e+02  -4.331188e+01
  -4.444107e+01  -6.988863e+01
   5.131084e+01  -1.335690e+02
   1.574792e+02  -7.454365e+01
   1.623784e+02   3.344118e+01
  -1.526652e+01   1.002589e+02
  -1.643436e+02   9.141225e+01
  -1.674854e+02  -8.803141e+01
  -7.060671e+01  -1.944079e+02
   1.296335e+02  -2.194293e+02
   2.388240e+02  -1.015618e+02
   1.858611e+02   6.468823e+01
   5.879010e+01   1.249345e+02
  -4.413053e+01   3.907082e+01
  -7.792839e+01   8.389673e+01
  -6.695006e+01   6.320994e+01
  -6.630351e+01   1.194428e+02
  -9.635441e+01   1.087204e+02
  -1.696745e+02  -3.203280e+01
  -1.483672e+02  -1.604023e+02
  -5.467846e+01  -2.294455e+02
   7.995729e+01  -1.748914e+02
   1.575015e+02   1.772503e+01
   1.077183e+02   8.461964e+01
  -1.982825e+01   1.506100e+02
  -8.142677e+01   6.844019e+01
  -3.538001e+01   1.928882e+00
   3.036552e+01  -1.179899e+01
   4.509175e+01  -5.760187e+00
  -4.964678e+01   1.203080e+00
  -1.364953e+02  -2.460070e+01
  -2.966305e+01  -4.649014e+01
   9.044806e+01  -4.516915e+01
   1.771504e+02  -5.416181e+01
   1.552318e+02   4.049377e+01
  -2.110115e+01   7.955356e+01
  -1.007495e+02   3.911588e+01
  -1.329173e+02   9.235682e+00
  -2.863306e+01  -2.282400e+01
   4.517129e+01  -4.543760e+01
   4.608121e+01   1.279718e+01
  -2.209938e+01   4.625808e+01
  -8.706511e+01   3.777389e+01
  -9.463583e+01  -3.531857e+01
  -2.764644e+01  -6.575298e+01
  -5.159903e+01  -3.501410e+01
  -1.815517e+01   2.848777e+01
  -1.299525e+01   1.068055e+01
  -3.794126e+01  -8.290545e+01
   7.922720e+00  -1.633018e+02
   1.099739e+02  -1.275391e+02
   1.594193e+02  -2.358869e+01
   1.012586e+02   8.782181e+01
  -3.823276e+01   1.258598e+02
  -7.148353e+01   8.826123e+01
  -3.399248e+01   3.524710e+01
   8.124540e+01   7.292006e+00
   8.574266e+01   6.511028e+01
   7.358030e+01   1.158276e+02
  -9.964584e+01   9.963557e+01
  -1.970696e+02   4.769588e+01
  -2.028543e+02  -2.956204e+01
   3.772190e+00  -5.997125e+01
   4.088246e+01  -3.625125e+01
   3.128221e+01  -1.074769e+01
  -5.224516e+01   4.498991e+01
  -4.112081e+01  -2.076061e+01
   4.774192e+00  -1.321450e+02
   8.363072e+01  -1.174800e+02
   1.517850e+02  -7.005841e+01
   1.065134e+02   1.203032e+02
  -7.453234e+00   1.932727e+02
  -1.009012e+02   1.036635e+02
  -1.425675e+02  -3.876611e+01
  -8.864913e+00  -1.315017e+02
   2.341029e+01  -1.139501e+02
   6.728748e+01   4.965583e-01
   8.110563e+01   1.845620e+01
  -2.180617e+01   2.381682e+01
  -3.715038e+01  -9.836993e+00
   4.403283e+00   1.342631e+01
   5.833300e+01   8.252958e+01
   2.563367e+01   1.141033e+02
  -5.718973e+01   2.238443e+01
  -1.843964e+02  -1.769149e+01
  -1.409502e+02  -5.992697e+01
  -4.201160e+00  -6.887596e+01
   1.545860e+02  -3.476976e+01
   9.898692e+01   1.393380e+01
   2.174267e+01   4.163505e+01
  -4.343510e+01   2.210974e+01
  -1.353822e+01  -5.837072e+00
   1.656917e+01  -7.153644e+00
   2.003626e+01  -1.464024e+01
  -6.049994e+01   1.969719e+00
  -8.379006e+01   1.000616e+01
  -8.154867e+01  -6.806403e+01
   8.552295e+01  -1.357898e+02
   2.091568e+02  -8.897684e+01
   1.464393e+02   3.608245e+01
   5.195523e+01   1.637670e+02
  -7.050361e+01   2.156041e+02
  -1.281807e+02   8.627845e+01
  -1.093727e+02  -3.196281e+01
  -5.813927e+01  -1.047744e+02
   6.632710e+01  -2.592034e+01
   1.636119e+01  -1.676650e+01
  -5.053708e+01  -4.669692e+01
   1.954776e+01  -1.135343e+02
   2.073447e+01  -6.263044e+01
   3.362761e+01   1.567345e+01
   1.069925e+02   8.903702e+01
  -6.197529e+00   9.716309e+01
  -5.461674e+01   5.487426e+01
  -9.884136e+01  -6.139569e+01
  -1.509709e+01  -1.006789e+02
   7.229710e+01  -6.325538e+01
   8.568622e+01   2.514300e+01
   2.960237e-01   3.269120e+01
  -5.204823e+01   9.870257e+00
  -5.807614e+01   2.542287e+01
   3.514011e+01  -3.139469e+01
   1.070545e+02  -8.571602e+00
   3.143384e+01   5.882125e+01
  -5.339366e+01   9.243578e+01
  -1.061389e+02   6.479448e+01
  -5.192761e+01  -1.732337e+01
  -5.452096e+00  -1.270101e+02
   2.391130e+01  -9.214392e+01
   5.178485e+01  -1.547362e+01
   8.813593e-01   5.411544e+01
  -6.864721e+01   3.346709e+01
  -2.795280e+01  -1.970322e+01
  -5.006152e+01  -7.263750e+01
   7.289144e+00  -5.847914e+01
   1.826704e+01  -3.577235e+01
   3.150402e+01   5.723309e+01
   2.282111e+01   1.711458e+01
   1.276744e+01  -8.690276e+00
   4.815148e+00  -2.521108e+01
  -5.743230e+00   5.172604e+01
   3.476341e+00   8.945808e+01
  -7.157354e+00   1.324592e+01
  -2.941494e+01  -4.273892e+01
  -2.538053e+01  -6.467457e+01
   1.847760e+01  -7.560000e+00
   4.458325e+01   4.114885e+01
   4.255242e+01   3.869281e+01
  -3.046205e+01   7.802458e+01
  -9.639394e+01  -4.146576e+00
  -4.430027e+01  -1.224987e+01
   1.753464e+01  -3.962227e+01
   4.514211e+01  -6.540886e+01
   5.077294e+01  -3.592098e+01
  -4.268258e+01   4.574290e+00
  -1.435096e+01  -1.672762e+01
   4.123837e+01  -3.772776e+01
   5.650546e+01  -6.873018e+01
