
 $NMID
 id='ANONYMOUS ', fmtdat='(2E16.6)'
 volume=1.0
 tramp=1.0
 $END
  -2.815647e+03   1.642897e+02
  -1.863601e+03  -1.365297e+03
   1.372491e+02  -1.701528e+03
   7.935376e+02  -1.086962e+03
   8.944574e+02  -2.724926e+02
   9.567728e+01   8.804306e+01
  -2.456064e+02  -4.007362e+01
  -1.532878e+02  -4.863887e+02
   4.039817e+02  -5.200547e+02
   6.465095e+02   9.280706e+01
   3.792049e+02   4.436769e+02
   4.473407e+01   5.333109e+02
  -1.380774e+02   1.337615e+02
   2.400555e+01  -3.349466e+02
   6.396743e+01  -2.439899e+02
   1.651507e+02  -2.184789e+02
   5.088659e+02   2.887079e+02
  -7.798233e+01   4.327434e+02
  -5.397752e+02   4.186390e+02
  -4.363257e+02   1.289561e+02
  -1.892175e+02  -3.241496e+02
   1.050442e+02  -1.872022e+02
   8.382311e+01  -9.884701e+01
  -1.236503e+02  -1.404807e+02
  -9.230199e+01  -3.254820e+02
   2.145240e+01  -3.419881e+02
   4.955008e+02  -2.557676e+02
   5.571251e+02   1.283571e+02
   1.598599e+02   3.027808e+02
  -2.974049e+02   1.240750e+02
  -4.139787e+02  -9.374075e+01
  -8.398736e+01  -4.068044e+02
   2.883037e+02  -3.146399e+02
   4.090052e+02  -1.629167e+02
   2.744790e+02   1.767287e+02
   3.051707e+01   3.108169e+02
  -1.109556e+01   1.388328e+02
   1.767275e+02  -8.173015e+01
   1.901157e+02  -1.203991e+02
   2.086474e+02   1.211598e+02
   4.734891e+01   4.719588e+02
  -1.715444e+02   4.169663e+02
  -2.671985e+02  -9.915269e+00
  -6.072803e+01  -2.190221e+02
   1.661738e+02  -1.092507e+02
   1.339936e+02   2.635946e+02
  -1.163816e+02   3.989375e+02
  -4.230676e+02   1.108816e+02
  -5.062157e+02  -3.360092e+02
  -1.735905e+02  -4.546369e+02
   2.796582e+02  -2.664960e+02
   5.051061e+02   1.770229e+01
   3.098508e+02   2.055448e+02
  -4.050579e+01   2.220185e+02
  -2.402634e+02   8.058776e+01
  -2.128300e+02  -7.983159e+00
  -3.278715e+01  -5.090732e+01
   4.374783e+01  -2.526793e+00
  -2.622696e+01   6.670102e+01
  -1.540337e+02   8.982338e+00
  -6.480384e+01  -1.492665e+02
   1.090706e+02  -2.501346e+02
   3.493481e+02  -1.532054e+02
   2.863971e+02   1.294784e+02
  -3.240060e+01   3.565798e+02
  -3.494598e+02   3.847864e+02
  -3.134246e+02   1.815017e+02
  -1.983886e+02  -1.312734e+02
  -2.807700e+01  -3.500774e+02
   6.748065e+00  -3.125694e+02
  -5.465290e+01  -2.128473e+02
   4.740083e+01  -1.501242e+02
   1.786689e+02  -7.949144e+01
   3.110754e+02  -2.451315e+01
   2.068060e+02   2.153421e+02
   7.543507e+01   2.843356e+02
  -8.165099e+01   1.979635e+02
  -2.151093e+02  -8.970106e+01
  -1.648464e+02  -2.773949e+02
   1.141937e+01  -2.549398e+02
   2.559593e+02  -4.483766e+01
   3.003100e+02   2.205460e+02
   1.559604e+02   2.837899e+02
  -1.036376e+01   2.746016e+02
  -1.699556e+02   1.409138e+02
  -1.608827e+02   8.692861e+01
  -1.675253e+02   4.279231e+01
  -2.548664e+02   1.767801e+01
  -4.094694e+02  -9.875947e+01
  -3.154941e+02  -2.764404e+02
  -7.920797e+00  -4.037760e+02
   3.436995e+02  -4.053528e+02
   4.887686e+02  -1.794431e+02
   3.151606e+02   9.637356e+01
   6.032173e+00   2.265959e+02
  -1.286640e+02   2.092981e+02
  -4.061952e+01   6.451901e+01
   9.647605e+01   3.123824e+00
   1.285955e+02   3.883400e+01
   1.477765e+01   1.263086e+02
  -8.322394e+01   7.171365e+01
  -1.070782e+02  -1.685400e+01
  -1.736814e+01  -1.078106e+02
   1.347501e+02   2.774257e+01
   1.043440e+02   2.137394e+02
  -6.899691e+00   3.192832e+02
  -2.389361e+02   1.635894e+02
  -3.140479e+02  -5.827351e+01
  -2.550403e+02  -2.494484e+02
  -8.919866e+01  -2.293315e+02
   7.167944e+01  -8.801914e+01
   1.306394e+02  -6.709121e+00
   3.037247e+01  -1.322441e+01
  -1.658848e+01  -1.082254e+02
   3.033063e+01  -1.348303e+02
   1.149419e+02  -9.160260e+01
   1.104217e+02   1.930343e+01
  -1.104752e+01   3.255344e+01
  -8.767972e+01  -2.023188e+01
  -1.661170e+01  -1.131806e+02
   2.342102e+02  -1.269651e+02
   3.592397e+02   3.143056e+00
   2.490244e+02   2.129191e+02
  -6.579574e+01   3.285075e+02
  -3.066594e+02   2.699453e+02
  -3.070605e+02   8.033574e+01
  -1.207513e+02  -1.059221e+02
   4.642004e+01  -1.112461e+02
   9.353611e+01   7.017564e+01
  -4.763605e+01   1.092760e+02
  -1.929998e+02   5.354247e+01
  -2.202746e+02  -1.330869e+02
  -7.979892e+01  -1.891748e+02
   8.802955e+01  -1.060645e+02
   1.646828e+02  -4.997046e+00
   6.611255e+01   6.008971e+01
  -5.989885e+00  -4.674607e+01
  -1.999001e+01  -1.468822e+02
   9.148448e+01  -1.244688e+02
   2.391230e+02  -2.431039e+01
   1.904801e+02   1.575000e+02
   1.165743e+01   2.032253e+02
  -1.604530e+02   2.026178e+02
  -1.815179e+02   5.256640e+01
  -8.727930e+01  -6.853694e+01
   6.834575e+01  -1.032224e+02
   3.974522e+01   7.223880e+00
   3.237421e+01   4.527761e+01
  -3.759440e+01   7.606771e+01
   3.834453e+01   2.507211e+01
   6.489350e+01   9.035385e+00
   1.389478e+02   1.056288e+02
   3.821538e+01   1.724607e+02
  -1.890592e+02   1.467475e+02
  -2.779176e+02   4.097797e+00
  -2.453882e+02  -1.669247e+02
  -3.490064e+01  -2.539719e+02
   1.423128e+02  -1.746293e+02
   1.508158e+02  -7.550922e+01
   8.746001e+01   4.440981e+00
   4.188879e+01   3.116608e+01
   5.784239e+01   1.021916e+01
   1.287813e+02   2.871180e+01
   7.391062e+01   7.344929e+01
  -3.874441e+01   1.074800e+02
  -1.670500e+02   1.053730e+02
  -1.115253e+02  -6.052155e+01
  -4.032759e+01  -1.586443e+02
   2.146662e+02  -1.686617e+02
   2.293275e+02   7.349164e+01
   1.035953e+02   2.023951e+02
  -1.281267e+02   2.284095e+02
  -2.842216e+02   7.951537e+01
  -2.667929e+02  -7.787814e+01
  -1.540332e+02  -1.755928e+02
  -2.129291e+00  -1.521847e+02
   7.072379e+01  -7.928456e+01
   5.937282e+01  -7.991638e+01
   3.768953e+01  -1.120308e+02
   9.630097e+01  -7.638812e+01
   1.578458e+02   5.190016e+01
   1.239008e+02   1.199919e+02
   6.683853e+01   2.591055e+02
  -1.445797e+02   1.850138e+02
  -1.748592e+02   1.544854e+01
  -7.794135e+01  -1.012347e+02
   9.110532e+00  -1.467992e+02
   9.639881e+01  -1.135686e+02
   4.875198e+01  -1.027111e+01
  -4.022463e+01  -1.866810e+01
  -9.475447e+01  -3.479182e+01
   7.320662e+01  -6.093213e+00
   1.101595e+02   2.430467e+01
   5.487307e+01   6.488913e+01
  -1.355258e+02   1.187276e+02
  -2.093696e+02   3.050342e+01
  -1.624083e+02  -4.108483e+01
  -7.964406e+00  -1.216631e+02
   1.344852e+02  -1.135535e+02
   1.686020e+02  -4.416327e+01
   5.354949e+01   6.118066e+01
  -4.915246e+01   7.235480e+01
  -9.152063e+01  -1.856515e+01
  -2.580715e+01  -9.219226e+01
   5.836577e+01  -1.113905e+02
   1.123529e+02  -6.817001e+00
   1.131809e+02   9.536999e+01
   6.244731e+01   4.086311e+01
   2.207665e+01  -2.074845e+01
   6.946970e+01   2.848032e+00
   3.238291e+01   8.778149e+01
  -4.440853e+01   1.548022e+02
  -1.146657e+02   1.501316e+02
  -1.843559e+02   5.012757e+01
  -1.237779e+02  -9.652978e+01
  -4.174000e+00  -1.209356e+02
   9.433927e+01  -9.762107e+01
   9.438494e+01   2.625278e+00
  -4.931162e+01   6.245021e+00
  -1.569338e+02  -5.075598e+00
  -7.761816e+01  -1.149644e+02
   8.942226e+01  -1.401641e+02
   2.091353e+02  -9.955190e+01
   1.643026e+02   3.644459e+01
   7.437133e+01   4.414416e+01
  -1.383635e+01   5.040359e+01
  -5.663316e+01   1.736868e+01
   5.099341e+01  -2.625931e+00
   9.813092e+01   5.392066e+01
   4.847312e+01   8.639494e+01
  -6.616636e+01   2.125718e+02
  -1.640397e+02   9.316997e+01
  -1.383129e+02  -4.950755e+01
  -4.440460e+01  -2.349584e+02
   7.659592e+01  -1.482586e+02
   7.235029e+01  -2.854946e+01
   8.866147e+01   8.347835e+01
  -3.410501e+01   1.035922e+02
  -5.057000e+01   2.268124e+01
  -2.234970e+01  -3.623312e+01
  -2.557435e+01  -1.510301e+01
  -3.213383e+01   1.687434e+01
  -2.301290e+01   5.577341e+00
  -4.224031e+01  -5.140131e+01
  -3.330632e+00  -8.943257e+01
   7.109423e+01  -1.780558e+01
   1.715495e+02   3.367772e+01
   1.311015e+02   8.516142e+01
   2.277770e+01   5.366519e+01
  -7.388108e+01   5.729896e+01
  -8.293088e+01   1.412166e+01
  -2.778431e+01  -4.049459e+01
   3.629688e+01  -5.425138e+01
   4.880075e+01   2.261303e+01
   6.595046e-01   3.053761e+01
  -1.487663e+01   2.748620e+01
   4.714717e+01  -1.823529e+01
   1.014553e+02  -1.812809e+01
  -2.418627e+01   3.645042e+01
  -9.200609e+01   1.338178e+02
  -1.896631e+02   8.483570e+01
  -1.019073e+02  -4.830544e+01
  -2.274386e+01  -1.439210e+02
   6.048557e+01  -1.528274e+02
   8.536914e+01  -5.774751e+01
   6.258861e+01  -9.047281e+00
   8.383022e+01   5.999342e+01
  -3.937868e+00   3.318547e+01
   6.603523e+01   1.830738e+01
   1.511831e+01   4.167410e+01
  -3.006846e+00   9.727080e+01
  -4.150679e+01   8.927797e+01
  -5.491356e+01  -4.506872e+00
  -1.031171e+02  -1.249619e+02
  -2.295904e+01  -9.810129e+01
   9.796107e+01  -1.978711e+01
   9.752790e+01   6.815294e+01
   5.275979e+01   1.209519e+02
  -9.267795e+01   5.793648e+01
  -9.166631e+01   1.534563e+00
  -6.318263e+01  -6.769433e+01
   2.371655e+01  -4.596641e+01
   4.445597e+01  -3.531852e+00
  -5.566873e+00  -1.070480e+01
  -7.265786e+01   2.870161e+00
   8.088539e+00  -3.122208e+00
   4.015077e+01  -6.726723e+01
   9.993559e+01  -5.438850e+01
   1.201298e+01   2.428155e+01
  -2.364398e+00   1.052426e+02
  -8.763678e+01   9.758713e+01
  -3.614260e+01   4.466816e-01
   1.986926e+01  -7.335273e+01
   3.786140e+01  -4.806237e+01
   4.312332e+01   6.427942e+00
  -8.109182e+00   4.835312e+01
   3.683965e+01   7.995799e+01
  -5.669364e+01  -2.973580e+01
  -2.924304e+01  -5.157302e+01
  -3.138407e+00  -1.077311e+01
  -1.527080e+01   4.022660e+01
   1.663507e+01   1.744293e+00
  -2.539185e+01  -4.160038e+01
  -2.076251e+01  -4.593792e+01
  -2.008235e+00  -2.968754e+01
  -2.096475e+01   2.414499e+01
   6.737858e+01   4.854519e+01
  -5.814710e+01   6.627413e+00
  -5.630109e+01  -5.730928e+01
   1.314148e+00  -6.366250e+01
   4.958155e+01  -4.717614e+01
   1.103953e+02  -8.299441e+00
   6.990435e+01   4.290315e+01
  -3.414796e+01   5.887088e+01
  -1.149903e+02   2.967723e+01
  -1.885676e+01   1.744128e+01
   2.603497e+01  -2.178028e+01
  -2.477416e+01   1.328385e+01
  -5.391204e+01  -5.606277e+00
  -7.592173e+01  -1.817553e+00
