
 $NMID
 id='ANONYMOUS ', fmtdat='(2E16.6)'
 volume=1.0
 tramp=1.0
 $END
   2.624490e+03  -4.270668e+02
   1.918447e+03   1.628389e+03
   1.497709e+02   2.015511e+03
  -1.209176e+03   1.329521e+03
  -8.313520e+02   2.357931e+02
  -6.584516e+01  -1.018918e+02
   3.109617e+02   1.806502e+02
  -8.266466e+01   5.398330e+02
  -4.701547e+02   4.112900e+02
  -4.961274e+02   1.040378e+02
  -4.948799e+02  -4.942986e+02
   7.290766e+01  -6.912591e+02
   2.678975e+02  -1.817546e+02
   2.417491e+02   3.644570e+02
  -3.133852e+02   3.587091e+02
  -2.524804e+02  -1.377988e+02
  -2.486584e+02  -2.712611e+02
  -1.599322e+02  -7.725986e+02
   5.459579e+02  -3.601563e+02
   4.714283e+02  -7.668861e+01
   2.927206e+02   5.129400e+02
  -2.562050e+01   2.478788e+02
   1.112449e+02   7.910179e+01
   7.813536e+01   9.443434e+01
   2.407186e+02   3.245535e+02
  -4.029544e+01   3.809169e+02
  -4.891288e+02   1.357420e+02
  -5.178771e+02  -9.915348e+01
  -1.013590e+02  -2.750587e+02
   3.874875e+02  -1.421135e+02
   4.202995e+02   1.481501e+02
   1.096277e+02   3.336819e+02
  -3.096827e+02   3.092609e+02
  -3.827364e+02   1.151536e+02
  -2.575631e+02  -8.578780e+01
  -8.252665e+01  -2.413560e+02
   2.036396e+01  -2.115808e+02
  -1.109148e+02   4.534852e+01
  -1.534053e+02   7.894345e+01
  -6.701672e+01  -1.999866e+02
   7.295660e+01  -4.434013e+02
   2.428798e+02  -3.030143e+02
   1.811038e+02   6.901479e+01
   5.910115e+01   2.111590e+02
  -8.589724e+01   9.292052e+01
  -3.373778e+01  -3.098925e+02
   1.465215e+02  -3.079786e+02
   3.727460e+02  -5.861315e+01
   4.361301e+02   3.904922e+02
   1.450871e+02   5.147894e+02
  -3.058569e+02   2.500567e+02
  -4.662724e+02  -4.014078e+01
  -3.231008e+02  -1.713597e+02
   5.414672e+01  -1.859368e+02
   2.568449e+02  -8.132056e+01
   1.418081e+02  -7.078100e+01
  -9.638199e+00  -3.039202e+01
  -3.657906e+01   2.094093e-01
   1.458942e+02  -1.715325e+01
   2.984311e+02   3.744814e+01
   1.412430e+02   1.853772e+02
  -1.670634e+02   2.804715e+02
  -3.625380e+02   2.027735e+02
  -2.629324e+02  -1.082812e+02
   8.520862e+01  -3.424584e+02
   2.892936e+02  -3.670013e+02
   3.076046e+02  -1.053714e+02
   2.517610e+02   2.153133e+02
   7.161310e+01   3.530295e+02
  -7.581999e+00   2.565910e+02
   2.376980e+01   1.583391e+02
  -1.434796e+01   1.237974e+02
  -1.136610e+02   1.300012e+02
  -2.207203e+02   9.762553e+01
  -2.387861e+02  -8.226693e+01
  -8.787575e+01  -2.408808e+02
   8.395785e+01  -1.983348e+02
   1.834484e+02   3.985568e+01
   1.326805e+02   1.951174e+02
   4.694990e+01   2.638294e+02
  -2.182306e+02   9.269404e+01
  -2.971284e+02  -1.393688e+02
  -1.786249e+02  -2.443504e+02
  -6.656783e+00  -2.790726e+02
   1.707843e+02  -1.525959e+02
   1.676077e+02  -1.156364e+02
   2.289635e+02  -8.514083e+01
   2.461787e+02  -3.192738e+01
   4.330154e+02   1.310182e+02
   3.528956e+02   3.162249e+02
  -2.456687e+01   4.556198e+02
  -4.017752e+02   4.098804e+02
  -4.739413e+02   1.512574e+02
  -2.954504e+02  -9.854593e+01
  -3.485060e+01  -2.561700e+02
   1.142735e+02  -2.101866e+02
   1.359043e+00  -1.609811e+01
  -1.204588e+02   7.051056e-01
  -3.859344e+01  -8.478768e+01
   1.247652e+01  -1.043244e+02
   1.074858e+02  -1.139026e+02
   7.699159e+01   5.952341e+01
  -3.276472e+01   1.062615e+02
  -1.055863e+02  -1.239615e+01
  -8.134425e+01  -2.001812e+02
   4.327580e+01  -2.773603e+02
   2.193814e+02  -1.909704e+02
   3.399374e+02   9.816074e+01
   2.472155e+02   3.183804e+02
   4.123414e+01   2.821599e+02
  -1.705634e+02   1.202808e+02
  -1.623380e+02  -1.134869e+00
  -3.584054e+01   1.850471e+01
   8.347279e+01   2.338160e+01
   2.384737e+01   9.157336e+01
  -1.046188e+02   2.881481e+01
  -1.129439e+02   1.313439e+01
   8.013313e+00  -6.646249e+01
   1.043314e+02   4.166552e+01
   6.496445e+01   1.181838e+02
  -1.313870e+02   1.175350e+02
  -2.916355e+02  -1.730003e+01
  -2.867151e+02  -1.394837e+02
  -2.237506e+01  -2.334327e+02
   2.070783e+02  -1.868150e+02
   2.133858e+02  -9.254744e+01
   9.900433e+01   3.434208e+01
  -2.524803e+01   3.473163e+01
  -2.052829e+01  -4.748243e+01
   9.596067e+01  -4.687130e+01
   1.959807e+02   6.349835e+00
   1.722908e+02   9.889204e+01
   8.707542e+01   1.390898e+02
  -5.690415e+01   1.299842e+02
  -6.865373e+01   2.016231e-01
  -1.658789e+01  -2.386429e+01
   1.980416e+01   2.936515e+01
   3.035081e+01   1.115914e+02
  -1.256948e+02   1.159018e+02
  -2.248605e+02   2.813543e+01
  -1.570705e+02  -1.272559e+02
  -4.734091e+01  -1.937105e+02
   1.282124e+02  -1.292110e+02
   2.086225e+02   4.123091e+00
   1.080241e+02   1.017616e+02
  -5.307897e+01   8.482650e+01
  -9.933112e+01   1.783049e+01
   2.946667e+01  -2.423702e+01
   6.540121e+01  -1.909262e-02
   6.974531e+00   6.511850e+01
  -8.737186e+01   1.816322e+01
  -1.108239e+02  -1.058516e+02
  -3.768010e+01  -1.985716e+02
   1.452050e+02  -1.111028e+02
   2.037643e+02   2.186574e+01
   1.512918e+02   1.303920e+02
   9.279293e+00   2.407863e+02
  -1.236032e+02   1.344966e+02
  -1.237269e+02   1.510211e+01
  -8.787157e+01   1.060728e+01
  -2.355199e+01  -7.031527e+01
  -5.822676e+01  -4.545538e+01
  -3.644763e+01   1.360796e+01
  -1.696615e+01   1.305532e+00
   9.252652e+01  -1.237938e+02
   1.045925e+02  -7.131015e+01
   7.148790e+01   5.013474e+01
   2.086200e+01   1.016776e+02
  -1.194453e+02   1.129726e+02
  -1.543393e+02  -4.935413e+01
  -4.807733e+01  -1.727741e+02
   8.612070e+01  -1.662863e+02
   1.960800e+02   1.338625e+01
   2.181603e+02   1.461032e+02
   1.219093e+02   1.789441e+02
  -3.590009e+01   1.294785e+02
  -5.762773e+01   3.698727e+01
  -6.448675e+01   1.060966e+02
  -5.545547e+01   1.243858e+02
  -9.423930e+01   9.231363e+01
  -1.020929e+02  -7.112868e+01
  -1.308589e+02  -1.727001e+02
  -2.609188e+01  -2.583761e+02
   1.356335e+02  -1.584828e+02
   1.419676e+02  -9.862818e+00
   1.337550e+02   1.011180e+02
   2.308227e+01   1.067810e+02
  -3.208076e+01   2.247929e+01
   2.976958e+00   1.020663e+00
   2.679656e+01  -1.228593e+01
   5.510738e+00  -7.590984e+01
  -2.035500e+01   2.995027e+01
  -7.230577e+01   2.179607e+01
   9.313083e+00  -3.742542e+01
   8.011231e+01  -1.934167e+01
   1.867721e+02   2.359965e+01
   1.568851e+02   8.935476e+01
   1.021173e+01   8.862513e+01
  -1.066807e+02   7.026539e+01
  -1.728637e+02  -2.925265e+01
  -4.390329e+01  -1.086215e+02
   3.886525e+01  -5.387809e+01
   1.772248e+01   6.377497e+01
   3.974622e+00   5.112548e+01
  -3.695701e+01   9.297551e+01
  -7.231446e+01  -4.617013e+01
   2.553713e-01  -9.337900e+01
  -1.417682e+01  -3.209383e+01
  -2.602058e+01  -6.991853e-01
  -5.326028e+01  -1.689763e+01
  -3.711231e+01  -5.341935e+01
   2.414128e+01  -1.440737e+02
   1.465626e+02  -1.830676e+02
   2.254172e+02  -2.093109e+01
   1.095520e+02   1.000850e+02
   3.695000e+01   1.548533e+02
  -2.781577e+01   7.037820e+01
  -1.790073e+01  -1.943164e+01
   4.612368e+01  -5.631510e+01
   1.534102e+02   4.499263e+01
   3.607296e+01   1.072365e+02
  -1.165595e+02   1.245106e+02
  -1.553636e+02   6.839303e+01
  -1.534746e+02  -3.814409e+01
   4.893160e+00  -6.137758e+01
   9.365014e+01  -5.701558e+01
   7.002900e+01  -1.147009e+00
  -4.889483e+01  -1.037225e+01
  -7.759288e+01   2.098286e+01
  -5.188455e+01  -8.614753e+01
   6.625852e+01  -1.984273e+02
   1.555706e+02  -5.301924e+01
   1.183378e+02   6.671479e+01
   6.573235e+01   2.252676e+02
  -8.382294e+01   1.482061e+02
  -9.268249e+01  -3.561205e+01
  -4.577711e+01  -1.311258e+02
   4.125040e+01  -8.230866e+01
   7.284555e+00  -2.580704e+01
  -6.611931e-01   6.366482e+01
  -1.944708e+00   4.937822e+00
  -1.733091e+01  -2.718482e+01
   2.749253e+01  -2.153038e+01
   5.692977e+01   1.009933e+02
   2.668361e+01   1.200859e+02
  -3.137496e+01   4.881484e+01
  -6.928512e+01  -3.156970e+01
  -1.231731e+02  -6.171838e+01
  -1.351949e+01  -5.508941e+01
  -3.827233e+00   8.372417e-01
   5.244620e+01  -2.400818e+01
   4.616185e+01  -1.094575e+01
  -3.950170e+01  -3.921012e+01
  -1.361731e+01  -5.574929e+00
   1.617395e+01  -5.495630e+01
   2.433759e+01   2.863922e+01
  -4.408308e+01   8.999926e+00
  -4.154696e+01  -5.526778e+01
  -5.076947e+01  -7.438104e+01
   7.836458e+01  -7.986659e+01
   1.851028e+02  -1.062845e+02
   1.863728e+02   6.364058e+01
   3.730780e+01   1.860733e+02
  -9.971212e+01   1.580202e+02
  -1.313947e+02   9.362991e+01
  -1.126461e+02  -4.339413e+01
  -2.281252e+01  -4.317459e+01
  -5.660862e+00  -6.788606e+01
   1.914681e+01  -5.094804e+01
  -2.165409e+01  -9.802348e+01
  -8.816187e+00  -9.394605e+01
   4.541864e+01  -6.104286e+01
   4.612677e+01  -3.752661e+01
   6.269643e+01   1.040046e+02
   3.057464e+01   1.129986e+02
  -7.156566e+01   3.715007e+01
  -7.630724e+01  -4.475909e+01
  -8.611418e+01  -2.721873e+01
   1.528990e+01  -6.728204e+01
   8.307607e+01   1.578196e+01
   5.032429e+01   3.655529e+01
  -4.539110e+01   5.208472e+01
  -2.734582e+01   5.644815e+01
  -9.419830e+00  -3.348707e+01
   6.938206e+01   2.707689e+01
   3.499009e-02   1.764091e+01
  -9.945616e+01   6.826266e+01
  -1.189289e+02   3.700982e+01
  -9.204331e+01  -7.749823e+01
  -4.312129e+00  -2.618266e+01
   5.883171e+01  -8.221685e+01
  -1.962309e+00  -1.509896e+01
   2.816742e+00   8.621063e+01
  -2.966174e+01   1.184887e+02
  -7.024123e+01   3.863842e+00
  -5.102826e+01  -7.483231e+01
   6.560649e+00  -4.634101e+01
   2.376097e+01  -1.635283e+01
   5.253138e+01   2.008640e+01
   3.300527e+01   4.348638e+00
   3.278757e+01  -8.870346e+00
  -1.141918e+00  -5.648328e+00
   1.719934e+00   3.524355e+01
   2.806795e+01   5.677222e+01
  -3.382172e+01   6.773038e+01
  -1.842437e+01  -1.846784e+00
  -2.387190e+01  -6.780331e+01
  -1.058826e+01  -3.439915e+01
   7.385051e+01   2.940134e+01
   2.402901e+01   3.891232e+01
  -5.085062e+01   1.405922e+01
  -3.091006e+01  -4.709216e+00
  -3.266783e+01  -3.794702e+01
  -8.152893e+00  -3.304153e+01
   6.671264e+01  -2.664659e+01
   2.538430e+01  -1.332098e-01
   2.270189e+01  -1.202550e+01
  -6.322790e+01  -2.682207e+01
   4.001610e+01  -1.490848e+01
   8.097126e+01   2.773456e+01
