
 $NMID
 id='ANONYMOUS ', fmtdat='(2E16.6)'
 volume=1.0
 tramp=1.0
 $END
   2.862160e+03  -2.146428e+02
   2.033642e+03   1.702167e+03
  -6.256014e+01   1.836489e+03
  -9.205087e+02   1.279594e+03
  -1.042993e+03   2.814254e+02
  -1.923676e+02  -1.689305e+02
   2.086335e+02   1.909996e+02
  -2.442937e+00   6.019798e+02
  -5.142339e+02   6.995517e+02
  -6.492776e+02   1.698063e+01
  -4.139858e+02  -5.531954e+02
   2.543305e+01  -5.403776e+02
   7.273510e+01  -2.234844e+02
   3.494886e+02   1.584822e+02
  -3.267088e+01   6.381768e+02
  -5.048554e+02  -5.614307e+01
  -2.285606e+02  -4.517932e+02
  -1.416768e+01  -5.855759e+02
   6.030372e+02  -4.262644e+02
   4.340868e+02   1.450272e+02
   2.103172e+02   4.478718e+02
  -6.103387e+01   2.773310e+02
  -1.745765e+01   2.800332e+01
   3.217769e+02  -5.693419e+01
   3.531937e+02   3.100495e+02
   4.297778e+01   3.189660e+02
  -5.846054e+02   2.598817e+02
  -7.019958e+02  -2.256101e+02
  -2.825705e+01  -2.992857e+02
   4.778059e+02  -8.341963e+01
   4.390646e+02   8.495593e+01
   1.574596e+02   3.051793e+02
  -2.588235e+02   4.063852e+02
  -4.286625e+02   1.957297e+02
  -2.241767e+02  -1.959068e+02
  -6.661586e+01  -3.164884e+02
  -1.323013e+02  -1.737975e+02
  -1.469131e+02   5.899210e+01
  -1.705364e+02   1.552729e+02
  -1.316786e+02  -2.191477e+02
   6.067038e+01  -5.150982e+02
   2.541981e+02  -4.644979e+02
   3.256174e+02  -5.997007e+01
   1.549017e+02   2.299544e+02
  -1.134601e+02   1.525942e+02
  -1.502753e+02  -2.577371e+02
   1.048735e+02  -3.881712e+02
   4.421116e+02  -1.355414e+01
   4.950915e+02   4.112187e+02
   1.932602e+02   4.306630e+02
  -2.452177e+02   2.142401e+02
  -5.284129e+02  -3.379067e+01
  -3.841223e+02  -2.516967e+02
   8.100093e+01  -2.196722e+02
   3.027346e+02  -8.586014e+01
   2.067516e+02  -6.654946e+00
   5.403548e+01   4.238728e+00
  -6.016482e-02  -5.163192e+01
   8.525881e+01  -3.604975e+01
   1.819867e+02   1.807254e+00
   1.092439e+02   1.836611e+02
  -1.089652e+02   2.632204e+02
  -3.144113e+02   1.745908e+02
  -2.592053e+02  -8.474681e+01
   8.198734e+00  -3.441764e+02
   2.657894e+02  -4.176344e+02
   3.114250e+02  -2.568324e+02
   2.639320e+02   1.391992e+02
   5.060617e+01   3.665784e+02
  -1.146079e+01   3.810721e+02
   4.421384e+01   2.179999e+02
   4.039983e+01   9.339684e+01
  -1.220375e+02   1.208273e+02
  -2.514938e+02   7.386659e+01
  -2.474236e+02  -1.624234e+02
  -9.584091e+01  -2.249350e+02
   2.300523e+01  -1.667537e+02
   1.899977e+02   6.937519e+01
   1.432169e+02   2.701677e+02
  -6.103532e+01   2.099212e+02
  -2.573683e+02  -9.179248e+00
  -3.406707e+02  -1.676899e+02
  -1.676485e+02  -3.009245e+02
   5.315911e+01  -2.480396e+02
   2.186503e+02  -2.012541e+02
   2.367685e+02  -1.096606e+02
   1.927032e+02  -1.600869e+01
   3.042338e+02  -2.383606e+00
   4.211717e+02   1.706780e+02
   2.607986e+02   3.357915e+02
  -6.262780e+01   4.481201e+02
  -3.956296e+02   3.852642e+02
  -4.869742e+02   1.874923e+02
  -2.312271e+02  -6.900261e+01
   3.708867e+00  -2.519134e+02
   3.054553e+01  -2.174910e+02
  -7.506357e+00  -3.235959e+01
  -1.365382e+02   8.940113e+00
  -1.756268e+02  -6.195442e+01
   2.612132e+01  -9.922861e+01
   1.280724e+02  -7.723351e+01
   1.075651e+02   5.199780e+01
  -2.512812e+01   1.308416e+02
  -1.969124e+02  -2.593281e+01
  -2.015212e+02  -2.387772e+02
   4.666624e+01  -3.492974e+02
   2.643380e+02  -2.005437e+02
   4.151823e+02   8.952520e+01
   2.891857e+02   2.564821e+02
   5.941836e+01   3.300892e+02
  -1.727080e+02   1.511500e+02
  -2.000715e+02  -2.115734e+01
  -4.715976e+01  -1.597644e+01
   1.114686e+02   6.764088e+01
   4.105154e+01   1.075276e+02
  -1.385557e+02   6.972513e+01
  -1.406403e+02   1.760447e+01
  -4.759083e+01   3.692513e+00
   6.781558e+01   2.350141e+01
   2.597980e+01   1.271063e+02
  -1.815527e+02   1.226787e+02
  -2.989492e+02  -8.540380e+00
  -2.513083e+02  -1.703534e+02
  -1.446934e+01  -2.733000e+02
   2.105742e+02  -2.635249e+02
   2.410983e+02  -1.400059e+02
   1.196284e+02   5.970082e-01
   1.255040e+01   8.564790e+01
   1.112047e+01  -9.145016e+00
   7.620870e+01  -6.820678e+01
   2.188588e+02  -2.094545e+01
   2.069610e+02   1.029252e+02
   1.284853e+01   1.585333e+02
  -9.466351e+01   1.448095e+02
  -1.221366e+02   4.469796e+01
   1.592964e+01  -1.493749e+01
   2.596027e+01   3.318363e+01
  -1.878073e+01   1.066066e+02
  -9.727498e+01   1.340116e+02
  -2.007254e+02  -3.315208e+01
  -1.908510e+02  -1.623705e+02
  -1.615443e+01  -2.043775e+02
   1.919409e+02  -1.746297e+02
   1.805607e+02  -2.308563e+01
   3.967997e+01   9.595216e+01
  -3.540645e+01   8.420101e+01
  -9.591447e+01   2.091013e+01
  -1.895084e+01  -1.221143e+01
  -1.711909e+01  -1.916591e+01
  -8.513005e+01   3.029674e+01
  -8.669191e+01   4.946404e+00
  -1.174283e+02  -7.749585e+01
   1.105325e+00  -2.295069e+02
   2.106682e+02  -1.381716e+02
   2.518838e+02  -6.592305e+00
   1.984438e+02   1.400247e+02
   3.991171e+01   2.279022e+02
  -1.342869e+02   1.851990e+02
  -1.408189e+02   1.405707e+01
  -9.087739e+01  -5.709497e+01
  -7.033758e+01  -4.414809e+01
  -4.590833e+01   1.372255e+01
  -1.011004e+02   6.519622e+00
  -3.529166e+01  -1.115371e+02
   1.052666e+02  -1.172245e+02
   1.425118e+02  -6.184109e+01
   8.478439e+01   3.564035e+01
  -2.887538e+01   1.665103e+02
  -1.774593e+02   1.323008e+02
  -2.323594e+02  -1.226887e+02
  -7.329922e+01  -2.610572e+02
   1.432851e+02  -2.740509e+02
   3.391599e+02  -9.511668e+01
   3.042440e+02   9.294924e+01
   1.775451e+02   1.620352e+02
  -3.677813e+01   1.651520e+02
  -7.607200e+01   7.532505e+01
  -6.421829e+01   6.116005e+01
  -1.234528e+02   9.912361e+01
  -9.151569e+01   6.489746e+01
  -1.500599e+02  -1.901993e+01
  -1.596162e+02  -1.506279e+02
  -4.872177e+01  -2.415086e+02
   8.552951e+01  -2.038912e+02
   2.281241e+02  -5.802550e+01
   1.443042e+02   1.505426e+02
   2.243084e+01   1.630454e+02
  -3.257631e+01   1.107361e+02
  -1.143961e+02  -5.050922e+01
  -6.353306e+01  -1.051382e+02
   1.986842e+01   1.645636e+01
  -8.116609e+01  -1.111048e+01
  -1.002731e+02  -8.111889e+01
   8.001910e+00  -9.942272e+01
   1.154000e+02  -7.290360e+01
   1.658432e+02  -2.408997e+01
   1.856973e+02   3.035838e+01
   4.298783e+00   1.333687e+02
  -1.166947e+02   9.975757e+01
  -1.316208e+02   3.458301e+00
  -2.180497e+01  -6.122628e+01
   6.860072e+01  -4.727411e+01
   6.807637e+01   1.881758e+01
   4.347882e+00   4.993740e+01
  -8.792145e+01   7.379743e+01
  -5.889506e+01   2.983854e+01
   1.438516e+01  -8.285023e+01
   7.565248e+00  -1.855698e+01
  -5.758758e+01  -1.498357e+01
  -7.229470e+01  -1.012777e+01
  -1.095572e+02  -1.143190e+02
  -1.982670e+01  -1.688555e+02
   8.294212e+01  -1.321831e+02
   2.170175e+02  -4.110114e+01
   1.610714e+02   6.788094e+01
   1.897013e+01   1.137212e+02
  -5.353950e+01   7.376722e+01
  -5.572124e+01  -4.370182e+01
   6.396753e+01  -3.555535e+01
   1.448471e+02   4.025299e+01
   8.339233e+01   1.105004e+02
  -2.377999e+01   1.119608e+02
  -2.064673e+02   7.608840e+01
  -1.517426e+02  -2.112647e+01
  -1.308820e+01  -4.435301e+01
   3.237598e+01  -4.426597e+01
   6.879555e+01   1.830459e+01
  -1.335892e+01   5.649594e+01
  -1.300722e+02   2.160023e+01
  -5.537432e+01  -1.444722e+02
   6.625741e+01  -1.594317e+02
   1.471639e+02  -3.357458e+01
   1.585819e+02   7.751890e+01
   2.680684e+01   2.148114e+02
  -7.486455e+01   1.371723e+02
  -1.051879e+02   2.363199e+00
  -6.926656e+01  -1.283181e+02
   6.225531e+01  -1.311038e+02
   2.855019e+01  -3.332662e+01
   5.322063e+01  -4.666333e+00
   2.880188e+01   1.885032e+01
   2.246670e+01   1.220080e+01
   3.238044e+01   2.182125e+01
   1.164581e+02   3.752464e+01
   4.284156e+01   1.074879e+02
  -9.299611e+01   5.814903e+01
  -1.193690e+02  -1.892130e+01
  -1.071576e+02  -6.596526e+01
  -6.052821e+01  -6.379075e+01
   8.683569e+01  -5.955558e+01
   8.179103e+01   6.811563e+00
   4.055378e+01  -4.060897e+01
  -2.722032e+01  -3.435631e+01
   6.233990e+00   4.219341e+01
   4.280900e+01   2.374314e+01
  -4.853876e+00  -2.377140e+01
  -2.751877e+01   1.303415e+01
  -1.145740e+02   8.154880e+00
  -4.401902e+01  -1.123975e+02
   7.298094e+01  -1.483799e+02
   1.918504e+02  -4.231879e+01
   1.500944e+02   8.585224e+01
   3.667563e+01   1.261664e+02
  -6.388961e+01   1.705850e+02
  -1.138621e+02   9.946082e+01
  -7.372305e+01   2.376165e-01
   4.481850e+00  -7.492710e+01
   1.390233e+00  -1.368849e+01
   1.393614e+01  -1.786570e+01
  -3.248706e+00   1.043655e+00
  -3.880487e+01  -6.514083e+01
   7.701973e+00  -7.122711e+01
   9.383181e+01  -3.283436e+01
   1.003697e+02   1.008913e+02
   5.431989e+01   1.520324e+02
  -4.580907e+01   3.269214e+01
  -7.396601e+01  -8.222536e+01
  -2.685385e+01  -1.073759e+02
   5.514191e+01  -5.686059e+01
   3.350049e+01  -3.124327e+01
   2.775519e+01   5.695399e+01
  -2.255755e+01   1.049546e+02
  -1.823190e+01   6.213877e+01
   4.885523e+00  -1.759522e+01
   1.959326e+01   8.145395e+00
   2.210078e+00   1.211851e+01
  -6.325651e+01   4.027585e+01
  -9.611974e+01   5.671640e+01
  -5.853891e+01  -4.619604e+00
  -1.625743e+01  -1.186989e+02
   3.149461e+01  -1.229579e+02
   1.070924e+01   1.215937e+01
  -1.654849e+01   5.764179e+01
  -5.993791e+01   2.724013e+01
  -1.953880e+01   1.222066e+01
  -5.322229e+01  -4.839563e+01
   2.368604e+01  -6.492937e+01
  -6.464842e+00   6.540724e+01
   2.384383e+01   5.130522e+01
   5.846379e-01  -1.811573e+01
  -5.106056e+00  -2.012959e+01
  -2.522558e+01  -5.548160e+00
   1.988236e+01   3.535596e+01
   2.618930e+01   9.359725e+01
  -4.206155e+01   6.542023e+01
  -8.559758e+01  -1.083883e+01
  -5.049563e+01  -6.792108e+01
   3.230582e+01   5.964360e+00
   2.616053e+01  -1.711813e+01
   2.947805e+01   1.003113e+02
  -5.984089e+01   1.076534e+01
  -8.583300e+01  -8.508326e-01
  -3.411738e+01  -7.923076e+01
   5.421101e+01  -4.304779e+01
   4.766148e+01  -1.617749e+01
   2.738463e+01   2.257738e+01
  -3.500353e+00   5.091627e+01
  -5.729778e+01  -1.120104e+01
   1.406212e+01  -5.942262e+01
   4.869724e+01  -2.919588e+01
