
 $NMID
 id='ANONYMOUS ', fmtdat='(2E16.6)'
 volume=1.0
 tramp=1.0
 $END
  -2.653572e+03   8.407759e+01
  -1.683280e+03  -1.302633e+03
   2.160052e+02  -1.533692e+03
   1.206129e+03  -9.305540e+02
   9.689997e+02  -1.738356e+02
   3.585859e+01   1.207465e+02
  -2.820176e+02  -2.046404e+02
  -7.203039e+01  -4.200901e+02
   4.551310e+02  -3.678692e+02
   5.509610e+02   3.531342e+00
   3.916076e+02   3.853703e+02
   4.631264e-01   3.529016e+02
  -2.709919e+02   1.945004e+02
  -2.228307e+02  -1.768834e+02
   6.881907e+01  -5.685498e+02
   4.908898e+02  -1.137454e+02
   2.037371e+02   4.331412e+02
  -8.462813e+00   3.923765e+02
  -4.308957e+02   8.298774e+01
  -3.218170e+02   6.046043e+01
  -2.554707e+02  -3.320728e+02
   8.417397e+01  -2.451315e+02
   5.617963e+01  -2.688286e+02
  -1.085138e+02  -1.052206e+02
  -2.300074e+02  -1.226748e+02
  -3.885660e+01  -1.532497e+02
   4.515048e+02  -5.502454e+01
   4.354217e+02   2.215839e+01
   1.203385e+02   1.778311e+02
  -3.083638e+02   2.246991e+02
  -4.213268e+02  -7.116011e+01
  -2.901119e+02  -2.466620e+02
   1.398470e+02  -3.733873e+02
   3.472838e+02  -6.991367e+01
   2.597025e+02   1.200740e+02
   5.480968e+01   2.959292e+02
  -4.018529e+01   2.744252e+02
   5.761990e+01  -6.610158e+01
   4.768968e+01  -9.250329e+01
   7.256786e+01   1.117925e+02
  -4.658999e+01   3.796889e+02
  -1.898212e+02   3.535186e+02
  -1.837356e+02  -4.745645e+01
  -1.916601e+02  -1.527546e+02
   5.980296e+01  -1.446615e+02
   6.393472e+01   1.885560e+02
  -2.799036e+01   2.717414e+02
  -2.752220e+02   1.207389e+00
  -3.695254e+02  -2.903344e+02
  -1.066233e+02  -3.113865e+02
   1.750004e+02  -1.968989e+02
   3.302739e+02   2.871769e+00
   2.422029e+02   1.154708e+02
  -5.143519e+01   1.339148e+02
  -1.894872e+02   7.437018e+01
  -1.314474e+02   2.132842e+01
   2.090381e+01   3.935238e+00
   1.096028e+00   1.767101e+01
  -8.238012e+01  -2.212172e+01
  -1.798712e+02  -8.005136e+01
  -1.053175e+02  -1.908669e+02
   1.607505e+02  -1.668335e+02
   3.141355e+02  -8.282654e+01
   2.112109e+02   9.822490e+01
  -2.136320e+00   2.799682e+02
  -2.305306e+02   2.637614e+02
  -3.085449e+02   1.246580e+02
  -2.119791e+02  -1.336670e+02
  -9.426478e+01  -2.980691e+02
   1.338073e+01  -2.490822e+02
   2.889889e+01  -1.768798e+02
   4.682335e+01  -1.192458e+02
   1.401448e+02  -1.341960e+02
   2.154478e+02  -5.908606e+01
   2.217951e+02   9.423682e+01
   1.177964e+02   2.402536e+02
  -6.734937e+01   1.762643e+02
  -1.959334e+02  -4.542114e+00
  -1.243354e+02  -1.623603e+02
   1.981294e+01  -1.953618e+02
   2.254530e+02  -6.642845e+01
   2.538812e+02   1.326723e+02
   1.189954e+02   2.197912e+02
  -2.633666e+01   2.194695e+02
  -1.412123e+02   1.263826e+02
  -1.190319e+02   9.315749e+01
  -1.674233e+02   1.135951e+02
  -2.034551e+02   6.558105e+01
  -3.545553e+02  -7.743805e+01
  -2.139831e+02  -2.476754e+02
   3.181035e+01  -3.512458e+02
   2.564940e+02  -2.632526e+02
   3.106269e+02  -1.013272e+02
   2.107521e+02   7.299824e+01
   6.064252e+01   1.767919e+02
  -5.798676e+01   1.482709e+02
  -2.525940e+01   5.914939e+01
   8.343496e+01   8.749206e+00
   7.690045e+01   5.269111e+01
  -1.472728e+01   1.278973e+02
  -1.000036e+02   7.638572e+01
  -7.257115e+01  -2.503698e+01
   7.776489e+01  -9.197415e+01
   1.743769e+02   5.854558e+01
   8.516320e+01   2.527940e+02
  -1.038727e+02   2.720770e+02
  -2.420447e+02   1.488774e+02
  -3.003750e+02  -6.518890e+01
  -2.362798e+02  -1.960802e+02
  -3.666393e+01  -2.282199e+02
   3.596513e+01  -1.449885e+02
   7.288682e+01  -5.942453e+01
   3.938760e+01  -6.016878e+01
  -1.661497e+01  -4.730475e+01
   3.219130e+01  -9.629745e+01
   1.338204e+02  -5.864105e+01
   1.074918e+02   1.908443e+01
  -2.067160e+01   2.541342e+01
  -1.095572e+02   1.080174e+00
  -1.961093e+01  -6.152231e+01
   8.814664e+01  -7.481078e+01
   2.419831e+02   2.666985e+01
   2.203606e+02   1.063652e+02
  -2.600023e+00   2.121151e+02
  -1.366317e+02   1.812576e+02
  -1.976543e+02   6.522524e+01
  -1.047280e+02  -3.705185e+01
  -6.475772e+00  -8.773563e+01
   5.258546e+01  -1.096300e+01
  -5.197484e+01   4.526729e+01
  -1.350609e+02   2.561096e+01
  -1.238993e+02  -8.029711e+01
  -5.082390e+01  -1.319880e+02
   5.048802e+01  -7.463589e+01
   6.779570e+01  -6.077806e+01
   1.073987e+01  -1.502111e+01
  -4.282414e+01  -3.532653e+00
  -5.120531e+01  -6.628444e+01
   5.601545e+01  -8.179308e+01
   1.608553e+02   3.855799e+00
   1.376947e+02   5.746330e+01
  -1.876459e+01   1.430491e+02
  -1.481347e+02   1.160657e+02
  -1.138775e+02   3.150794e-01
  -1.168607e+01  -7.991285e+01
   7.046815e+01  -8.788089e+01
   4.816641e+01  -4.824778e+01
   4.373080e+00   2.747101e+01
  -2.273855e+00  -2.824441e+01
   3.434891e+01   3.131593e+00
   5.958245e+01   4.188526e+01
   8.362116e+01   6.512655e+01
  -2.333395e+00   1.460884e+02
  -9.694452e+01   1.338969e+02
  -1.440605e+02   2.803264e+01
  -1.077556e+02  -8.299241e+01
   3.867199e+00  -1.688528e+02
   6.152303e+01  -1.733629e+02
   8.192718e+01  -4.711019e+01
   2.504372e+01   3.967488e+01
   3.045698e+01   3.261315e+01
   8.836130e+01   2.521126e+01
   3.943305e+01  -2.099166e+00
   2.375631e+01   2.027348e+01
  -6.253999e+01   4.216507e+01
  -7.850195e+01   2.756732e+01
  -6.320531e+01  -5.321339e+01
   1.064627e+00  -5.320184e+01
   1.228571e+02  -3.453727e+01
   1.553919e+02   3.489866e+01
   7.234800e+01   1.517715e+02
  -4.126152e+01   1.949831e+02
  -2.189101e+02   1.246650e+02
  -2.001234e+02  -6.228810e+01
  -7.011087e+01  -1.068193e+02
  -2.296079e+01  -1.384080e+02
   2.152513e+01  -9.811987e+01
   4.369555e+01  -3.184840e+01
   3.467623e+01  -4.981363e+01
   7.523773e+01  -5.844354e+01
   1.308479e+02  -1.993050e+01
   1.107894e+02   8.243542e+01
   5.113282e+01   1.493221e+02
  -7.302436e+01   1.358206e+02
  -1.040437e+02  -3.095452e+01
  -8.583520e+01  -1.110792e+02
   2.488511e+01  -1.425524e+02
   8.736017e+01  -9.155753e+01
   1.934531e+01  -8.712345e+00
   1.548687e+01   3.188738e+01
   4.076650e+01   6.815778e+01
   5.196374e+01   3.376602e+01
   6.539389e+01  -4.297624e+00
  -9.375782e+00   6.987059e+01
  -8.095613e+01   7.042963e+01
  -1.436313e+02   3.864114e+01
  -1.578580e+02  -3.051352e+01
  -4.951386e+01  -6.340837e+01
   5.510015e+01  -1.710424e+01
   7.903264e+01   4.311937e+01
   3.058401e+00   5.030043e+01
  -6.235114e+01   4.865848e+01
  -4.208396e+01  -4.841471e+01
   3.199889e+01  -9.959994e+01
   8.350535e+01  -3.135177e+01
   7.754444e+01  -1.081221e+01
   1.915095e+01   5.485496e+01
   2.636141e+01   7.063983e+01
   5.478665e+01   2.550980e+00
   9.083098e+01  -1.980668e+01
   6.199948e+01   3.131791e+01
  -9.082324e+00   1.115114e+02
  -8.071601e+01   1.025343e+02
  -1.529012e+02   4.439707e+01
  -8.472593e+01  -7.569328e+01
  -2.833647e+01  -1.052030e+02
   4.742152e+01  -4.092111e+00
   3.150497e+01   5.107271e+01
  -7.791048e+01   3.430150e+01
  -6.571086e+01  -5.383271e+01
  -4.423385e+01  -1.345437e+02
   6.409241e+01  -1.348782e+02
   1.425380e+02  -8.228580e+01
   1.575088e+02   4.075336e+01
   2.591028e+01   9.626282e+01
  -1.699192e+01   7.281444e+01
  -2.480388e+01   1.450176e+01
  -1.075705e+01  -2.663292e+01
   4.183148e+01   5.237032e+01
   4.099058e+01   7.645524e+01
  -6.339518e+01   1.102900e+02
  -9.922977e+01   4.554049e+01
  -1.211563e+02  -6.601329e+01
  -3.428097e+01  -1.659791e+02
   6.194164e+01  -1.250859e+02
   9.847666e+01  -2.521827e+01
   5.730413e+01   7.973184e+01
  -6.589376e+01   2.617256e+01
  -7.788001e+01   7.583038e+00
  -2.930729e+01  -6.777988e+00
  -1.237130e+01  -3.964698e+01
   1.202410e+01   4.709931e-01
  -1.059223e+01   2.989742e+01
  -2.868226e+01   5.239032e+00
  -1.135631e+01  -7.213686e+01
   2.510257e+01  -6.195064e+01
   1.096453e+02   4.317312e+01
   8.251762e+01   5.747464e+01
   1.931828e+01   4.458159e+01
  -9.703818e+01   2.488575e+01
  -1.009327e+02   1.419187e+01
  -3.755149e+01  -1.241984e+01
   3.660110e+01  -4.270027e+01
   3.036565e+01  -1.905750e+01
   2.069967e+01   1.564768e+00
   1.579921e+01   4.221023e+01
   6.423212e+01   3.153735e+01
   1.086933e+02   5.009698e+01
   7.085588e+01   5.067761e+01
  -6.549895e+01   8.923730e+01
  -1.554533e+02   4.054068e+01
  -1.530221e+02  -2.760892e+01
  -6.031703e+01  -1.229651e+02
   4.179211e+01  -1.148805e+02
   7.150353e+01  -8.344009e+01
   1.181830e+02  -6.854678e+01
   5.931547e+01   4.620365e+01
  -2.583588e+01   6.123619e+01
  -6.886938e+01  -4.311218e+00
   1.752185e+01   3.559459e+01
  -9.481323e+00   5.259990e+01
  -7.036332e+01  -3.944032e+00
  -4.320638e+01   1.429599e+01
  -4.975350e+01  -6.698130e+01
  -7.011450e+00  -3.733314e+01
   3.499683e+01   7.512423e-01
   9.492833e+01   4.462385e+01
   4.958552e+01   8.530887e+01
  -2.379795e+01   5.879859e+01
  -8.350247e+01   2.391646e+01
  -3.235351e+01  -1.654368e+00
   2.816141e+01  -5.498609e+01
   2.847797e+01  -1.675193e+01
  -5.674271e+01  -1.627091e+01
  -5.704735e+01   1.532965e+01
  -1.817212e+01  -2.247518e+01
   5.232304e+01  -3.227043e+01
   8.789633e+01  -6.148436e+01
   3.146277e+01   2.140347e+00
  -1.652664e+01   1.444429e+01
  -1.239735e+02   5.501309e+01
  -5.170049e+01   1.494065e-01
   6.090916e+01  -4.420187e+01
   1.195582e+01  -2.148491e+01
   6.362197e+01   3.710209e+01
   4.725952e+01   5.252538e+01
  -2.860256e+01   6.520707e+01
  -1.781062e+01  -7.701831e+00
  -7.457542e+01  -3.034051e+01
   6.686047e+00   1.218567e+01
  -2.305565e+01  -1.809931e+01
   5.242693e-01   1.299493e+01
   1.338956e+01  -3.868945e+01
   1.431993e+01  -5.761105e+01
   3.586126e+01  -2.823277e+01
   4.455431e+01   1.236854e+01
   9.924100e+00   4.247576e+01
   1.736972e+01   2.938885e+01
  -8.369283e+01   1.354006e+01
  -2.666511e+01  -3.984845e+01
   1.574154e+01  -3.214253e+01
   6.038076e+01  -2.760378e+01
   1.194430e+01   5.383923e+01
  -2.738523e+01   3.106031e+01
  -9.342256e+01   1.771987e+01
  -4.135380e+01   1.337652e+00
   4.041365e+01  -6.754349e+00
   2.261228e+01  -2.265220e+01
  -2.696155e+01   2.447209e+01
  -6.487637e+01   1.016706e+01
