
 $NMID
 id='ANONYMOUS ', fmtdat='(2E16.6)'
 volume=1.0
 tramp=1.0
 $END
  -2.976812e+03   2.185860e+02
  -1.912329e+03  -1.791505e+03
  -8.434530e+01  -2.091396e+03
   1.274597e+03  -1.312500e+03
   1.072321e+03  -2.456551e+02
   4.575357e+01   2.381738e+02
  -2.752444e+02   1.111882e+02
  -1.299188e+02  -5.849431e+02
   3.516961e+02  -4.522182e+02
   6.418183e+02  -2.057446e+01
   5.122946e+02   4.960818e+02
  -6.980445e+00   5.911128e+02
  -2.491663e+02   2.319445e+02
  -1.563119e+02  -4.120317e+02
   1.050765e+02  -4.981194e+02
   5.394988e+02  -3.317583e+02
   7.548708e+01   5.364774e+02
  -1.524028e+02   3.960893e+02
  -5.095999e+02   2.452785e+02
  -5.351517e+02  -2.128882e+02
  -3.603292e+01  -3.487507e+02
   6.476845e+01  -2.641468e+02
   5.027608e+01   1.051184e+02
  -9.547986e+01  -8.091266e+01
  -2.778431e+02  -2.089538e+02
   6.754546e+01  -4.674920e+02
   3.909069e+02  -2.512490e+02
   5.483733e+02   2.052084e+02
   3.669385e+02   3.493701e+02
  -2.602315e+02   3.102608e+02
  -5.617247e+02  -8.401674e+01
  -2.128890e+02  -4.349565e+02
   1.175176e+02  -2.524995e+02
   3.332398e+02  -1.607685e+02
   3.140015e+02   9.105608e+01
   1.156052e+02   3.100742e+02
  -6.196483e+01   1.204542e+02
  -7.547778e+01  -1.123135e+02
   1.653791e+02  -1.555324e+02
   2.356262e+02   8.469004e+01
   1.419859e+02   4.908290e+02
  -1.972255e+02   3.950336e+02
  -3.510011e+02   5.522315e+01
  -1.261397e+02  -3.146591e+02
   1.357747e+02  -1.556258e+02
   1.704528e+02   2.411447e+02
  -1.051293e+02   4.330281e+02
  -4.583236e+02   9.264813e+01
  -4.425216e+02  -3.439829e+02
  -1.423693e+02  -5.435145e+02
   3.311867e+02  -3.332576e+02
   5.413182e+02   4.715420e+01
   3.459914e+02   2.825059e+02
  -5.754121e+01   3.170129e+02
  -3.281184e+02   6.690027e+01
  -2.929617e+02  -7.771238e+01
   9.248325e+00  -2.811482e+01
   1.147433e+02   3.382166e+01
  -8.032192e+01   6.156027e+01
  -2.363278e+02  -5.998974e+01
  -1.360354e+02  -1.941946e+02
   1.547743e+02  -2.889142e+02
   3.986329e+02  -1.458767e+02
   3.085403e+02   8.088034e+01
  -2.263792e+01   3.540604e+02
  -2.992858e+02   4.129783e+02
  -3.694483e+02   1.531234e+02
  -2.563876e+02  -2.129483e+02
  -3.922145e+01  -4.015688e+02
   1.114600e+01  -3.210231e+02
   4.124239e+01  -1.827819e+02
   7.095026e+01  -1.007858e+02
   2.069778e+02  -9.245542e+01
   2.847961e+02  -4.590964e+01
   2.370817e+02   1.699014e+02
   8.408721e+01   2.997381e+02
  -1.750824e+02   2.194172e+02
  -2.059274e+02  -1.841502e+01
  -1.620811e+02  -2.792628e+02
   4.294935e+01  -2.812635e+02
   2.493328e+02  -1.013455e+02
   3.425030e+02   1.593634e+02
   1.827012e+02   2.975855e+02
  -4.862129e+01   2.318042e+02
  -1.925239e+02   1.613037e+02
  -1.535647e+02   1.059947e+02
  -1.077470e+02   1.146022e+02
  -2.246006e+02   7.203774e+01
  -3.865864e+02  -7.949454e+01
  -3.390952e+02  -3.282644e+02
  -2.940848e+01  -4.005592e+02
   3.050937e+02  -3.638234e+02
   4.214238e+02  -1.480973e+02
   3.056354e+02   1.160761e+02
  -2.488899e+01   2.107137e+02
  -7.041194e+01   1.612908e+02
   1.942086e+01  -3.383545e+01
   1.198030e+02  -2.324959e+01
   1.054419e+02   1.718940e+01
   7.918602e+00   1.320370e+02
  -8.814980e+01   9.973014e+01
  -7.676292e+01  -4.823083e+01
   8.137087e+01  -1.233874e+02
   1.511203e+02   2.548277e+01
   1.298942e+02   2.100193e+02
  -2.743703e+01   2.983734e+02
  -2.444363e+02   1.963015e+02
  -3.544446e+02  -9.439980e+01
  -2.467509e+02  -2.158605e+02
   1.870565e+01  -1.919384e+02
   1.404851e+02  -1.157806e+02
   1.271943e+02   2.193739e+00
  -1.047647e+01   2.620638e+01
  -7.123707e+01  -4.365874e+01
  -5.041389e+00  -9.379938e+01
   1.024102e+02  -6.827492e+01
   1.274930e+02  -1.696001e+01
   1.286261e+01   4.233728e+01
  -9.315168e+01   3.482046e+01
  -1.648488e+01  -9.173040e+01
   1.148915e+02  -1.024728e+02
   2.792481e+02  -1.262894e+01
   2.436228e+02   1.601801e+02
   8.496671e+01   2.615782e+02
  -1.749534e+02   2.261942e+02
  -2.301834e+02   1.156692e+02
  -1.498297e+02  -2.491936e+01
   1.561216e+01  -2.699929e+01
   3.461908e+01  -1.174920e+01
  -4.137518e+01   7.659693e+01
  -1.525617e+02   5.085013e+01
  -1.619849e+02  -8.979360e+01
  -5.835348e+01  -1.780537e+02
   6.679141e+01  -1.244252e+02
   8.174875e+01  -5.040813e+01
   3.312663e+01   8.953156e+01
  -5.645431e+01  -8.182317e+00
  -5.023698e+01  -1.169397e+02
   8.172062e+01  -1.532222e+02
   1.809184e+02  -7.115189e+01
   2.336896e+02   1.247526e+02
  -7.738525e+00   2.028084e+02
  -1.490346e+02   1.247298e+02
  -1.941086e+02   3.327346e+01
  -8.201908e+01  -1.098980e+02
   6.973888e+01  -1.634942e+02
   1.049408e+02  -1.017533e+02
   2.744179e+01   4.329993e+01
   7.385345e-02  -1.533473e+01
  -7.063267e+00   4.428124e+00
   1.283307e+02   2.651700e+01
   9.111103e+01   2.843193e+01
   1.573457e+01   2.000932e+02
  -1.134145e+02   1.593612e+02
  -2.203661e+02   1.976438e+01
  -2.204625e+02  -1.341898e+02
  -2.741741e+01  -2.062510e+02
   6.539214e+01  -1.006213e+02
   7.764637e+01  -5.083281e+01
   4.949869e+01   5.282654e+01
   3.674713e+01   2.570637e+01
   5.580194e+01  -1.667465e+01
   8.943732e+01  -1.662670e+01
   8.186446e+01   1.514007e+01
  -4.741460e+01   4.243325e+01
  -1.334386e+02   3.929732e+01
  -8.341012e+01  -3.400863e+01
   4.825074e+01  -1.265845e+02
   2.277084e+02  -7.968320e+01
   2.030826e+02   8.198752e+01
   9.942912e+01   2.088340e+02
  -1.648806e+02   2.095432e+02
  -2.754660e+02   7.300019e+01
  -2.226340e+02  -9.077484e+01
  -7.890121e+01  -1.432534e+02
   6.720184e+01  -1.325368e+02
   5.503165e+01  -9.059308e+01
   7.130695e+01  -5.238950e+01
   1.299890e+01  -7.969205e+01
   7.644925e+01  -1.001967e+02
   1.632319e+02   4.806769e+00
   1.092515e+02   1.314352e+02
   2.194113e+01   2.621980e+02
  -1.125782e+02   1.424275e+02
  -1.660430e+02   3.392909e+01
  -7.526175e+01  -1.739833e+02
  -6.120789e+00  -1.721355e+02
   1.107756e+02  -6.613530e+01
   6.982897e+01   4.144654e+01
   3.225047e+01   1.076812e+02
  -5.122318e+00   4.708513e+01
   1.080576e+01   4.362712e+01
   1.283043e+02   2.386271e+00
  -7.446794e+00  -4.614926e+00
  -7.603488e+01   5.099645e+01
  -1.698122e+02   1.696280e+01
  -1.537504e+02  -8.658486e+01
  -6.938220e+00  -7.411768e+01
   1.627681e+02  -8.897954e+01
   8.189576e+01  -4.270807e+01
   5.832472e+01   4.691995e+01
  -8.274304e+01   3.695712e+01
  -1.056498e+02  -5.707157e+01
  -4.312652e+01  -4.602620e+01
   3.164562e+01  -5.174239e+01
   7.595300e+01  -1.280656e+01
   8.058889e+01   6.637629e+01
   4.159373e+01  -3.440276e-01
   5.828746e+01  -5.601750e+01
   6.950520e+01   3.521897e+01
   3.178526e+01   1.300770e+02
  -6.254935e+01   1.516845e+02
  -1.246286e+02   1.613567e+02
  -1.612032e+02   3.208694e+01
  -1.149951e+02  -9.079940e+01
   1.726933e+01  -1.689140e+02
   7.043837e+01  -6.732583e+01
   5.725607e+01  -1.081613e+00
  -7.561832e+01   6.166852e+01
  -1.195166e+02  -1.941177e+01
  -9.127437e+01  -9.124595e+01
   8.032549e+01  -1.372450e+02
   1.889027e+02  -7.643647e+01
   1.698526e+02   6.202714e+01
   2.545161e+01   6.819718e+01
  -6.197425e+01   3.376797e+01
  -9.158291e+01  -6.379143e+00
   2.710140e+01  -2.010300e+01
   1.074454e+02   3.617529e+01
   7.270735e+01   8.637200e+01
  -5.680837e+01   1.642750e+02
  -1.454343e+02   5.891378e+01
  -1.341332e+02  -1.530897e+02
  -4.170900e+01  -1.644112e+02
   8.517495e+01  -1.045591e+02
   9.007252e+01   9.274593e+00
   7.846684e+01   1.428006e+02
  -4.787643e+01   1.067294e+02
  -8.753981e+01   4.322392e+00
  -3.811193e+01  -5.905598e+01
  -9.121293e-03   8.020566e-02
   4.902107e+01   8.655374e+00
  -3.665987e+01  -9.754202e+00
  -1.285701e+02  -6.399627e+01
  -2.926019e+01  -9.445010e+01
   4.004881e+01  -6.953100e+01
   1.350285e+02  -8.670440e+00
   8.431312e+01   7.896968e+01
   3.065975e+01   9.187510e+01
  -7.262531e+01   1.141213e+01
  -7.299841e+01   3.387858e+01
   7.350681e+00  -2.998921e+01
   5.630181e+01  -4.209293e+01
   1.479268e+01   2.588541e+01
   3.577656e-01  -7.744425e+00
  -9.462730e+00  -1.312086e+01
   7.157682e+01  -1.243449e+01
   1.130647e+02   1.463723e+01
   1.845416e+01   9.659282e+01
  -1.157906e+02   9.451855e+01
  -1.517635e+02   7.216760e+01
  -1.173208e+02  -2.354764e+01
  -5.197508e+01  -1.887517e+02
   8.591670e+01  -1.245792e+02
   9.631079e+01  -4.656923e+01
   8.895001e+01   3.636855e+01
   1.049887e+01   5.641516e+01
  -3.805515e+01  -1.718074e+00
  -7.582061e+00  -3.111663e+01
   4.591778e+01   7.866416e+01
  -1.030933e+01   6.138167e+01
  -2.937781e+01   6.643718e+01
  -3.078331e+01  -1.817710e+01
  -7.193095e+01  -6.502254e+01
  -1.192008e+00  -1.011176e+02
   6.911072e+01  -1.820492e+01
   8.957473e+01   6.119722e+01
   3.318089e+01   5.888152e+01
  -5.529216e+01   5.014539e+01
  -3.370515e+01  -2.370227e+01
  -2.005087e+01  -4.371697e+01
   6.501850e+01  -9.048892e+01
   7.335160e+01  -7.566994e+00
  -2.615435e+01   1.711189e+01
  -6.170012e+01   4.302904e+01
  -7.398860e+01  -1.211246e+01
   4.406359e+01  -1.054693e+01
   9.735449e+01  -8.074526e+01
   6.136787e+01  -7.631364e+00
  -6.419969e+00   8.198341e+01
  -3.948751e+01   1.236304e+02
  -8.638204e+01   5.372017e+00
   1.623366e+00  -2.066959e+01
   4.185299e+01  -6.209414e+01
  -3.421179e-01   3.228962e+01
   5.891855e+01   4.136270e+01
   5.246003e+01   2.340198e+01
  -5.025267e+01   4.163438e+00
  -7.544894e+01  -1.221181e+01
   9.202609e+00  -4.155452e+00
   1.897269e+01  -1.958674e+00
   2.205298e+01   1.560263e+00
   2.483181e+01  -1.938220e+01
  -1.547027e+01  -6.456435e+01
   2.742840e+01  -2.872755e+01
   8.146068e+01   3.739795e+01
  -2.249418e+01   4.121568e+01
  -3.610318e+01   2.772608e+01
  -6.468211e+01  -4.515210e+01
  -6.949713e+00  -3.939223e+01
   5.841437e+01  -6.311042e+01
   7.644872e+01  -1.062241e+01
   5.511075e+01   2.938835e+01
   2.099832e+01   7.667013e+01
  -1.014304e+02   3.631329e+01
  -1.367386e+01  -2.609408e+01
   5.104283e+01  -7.754957e+00
   3.720644e+01  -3.816130e+01
   3.182522e+00   5.492108e+01
  -3.398089e+01   1.372050e+01
