
 $NMID
 id='ANONYMOUS ', fmtdat='(2E16.6)'
 volume=1.0
 tramp=1.0
 $END
  -1.336257e+03   2.079488e+02
  -8.254955e+02  -3.015150e+02
  -6.928252e+00  -6.820556e+02
   4.663183e+02  -4.628238e+02
   6.587254e+02  -6.266837e+01
   1.913051e+02   1.478517e+02
  -6.605267e+01   1.722718e+02
  -2.618803e+00  -1.615667e+02
  -1.860748e+01  -1.651616e+02
   1.721437e+02   7.041105e+01
   1.799019e+02   2.816637e+02
   1.453072e+00   2.995843e+02
  -9.847117e+01   1.015706e+02
   8.192982e+00  -3.887594e+01
  -3.953829e+01  -2.368898e+02
   3.945343e+00  -6.018801e+01
   2.649795e+02   2.523633e+02
  -1.035804e+02   2.553049e+02
  -2.889050e+02   2.187186e+02
  -1.491919e+02  -5.464530e+01
  -1.481527e+02  -1.737264e+02
   5.218679e+01  -1.123114e+02
  -1.312165e+02  -1.280972e+02
  -1.319046e+02  -1.456008e+02
  -5.811666e+01  -5.344833e+01
   4.228390e+01  -1.842335e+02
   2.165476e+02  -8.363650e+01
   2.622373e+02   1.627480e+01
  -3.353967e+01   1.368442e+02
  -6.792750e+01   8.289027e+01
  -9.456606e+01   5.685838e+01
  -8.360074e+01  -1.525777e+02
   6.671706e+01  -1.241899e+02
   2.075368e+02  -1.494042e+02
   1.445693e+02   6.942913e+01
   4.446754e+01   1.004333e+02
   3.005223e+01   1.236555e+02
   5.691401e+01   5.377371e+01
   3.859289e+01  -1.407653e+01
   7.312225e+01   2.589233e+01
  -2.572516e+01   1.459170e+02
  -1.354057e+02   1.455195e+02
  -5.342145e+01  -2.204227e+01
  -4.560804e+01  -1.064472e+02
   9.488982e+01  -3.265482e+01
   8.137363e+01   1.268720e+02
  -2.180845e+01   2.090286e+02
  -1.641193e+02   8.414664e+01
  -2.174593e+02  -6.046954e+01
  -9.212265e+01  -1.749618e+02
   6.505620e+01  -1.462911e+02
   1.662666e+02   1.702979e+01
   1.535716e+02   9.545315e+01
   4.022741e+00   8.783982e+01
  -1.130006e+02   7.637575e+01
  -8.008324e+01   3.073827e+01
  -4.967414e+01   7.216361e+00
  -2.249945e+01   1.317120e+01
  -4.288454e+01   7.928360e+00
  -1.259832e+02  -3.664185e+01
  -6.850458e+01  -9.286379e+01
   3.350673e+01  -1.347757e+02
   1.617301e+02  -5.016952e+01
   1.302656e+02   5.071330e+01
   4.096618e+00   1.761660e+02
  -1.115569e+02   1.320785e+02
  -1.309658e+02   4.594038e+01
  -8.622561e+01  -6.547508e+01
  -2.693863e+01  -8.026122e+01
  -5.237139e+01  -1.047319e+02
  -3.468044e+01  -8.562433e+01
   1.940677e+01  -5.968115e+01
   6.287587e+01  -6.817310e+01
   1.029648e+02  -3.818262e+01
   7.483554e+01   1.276012e+01
   5.234836e+01   1.025578e+02
  -7.491917e+00   7.724021e+01
  -4.962877e+01   2.810873e-01
  -4.638329e+01  -1.016622e+02
   1.931031e+01  -4.765045e+01
   9.291179e+01   5.079411e+00
   9.719685e+01   6.402384e+01
   3.630890e+01   1.163553e+02
  -2.298181e+01   1.076128e+02
  -9.817073e+01   9.020021e+01
  -8.521202e+01   7.332974e+01
  -7.867348e+01   1.430034e+01
  -1.515701e+02   1.754735e+00
  -1.684860e+02  -4.351164e+01
  -1.349957e+02  -1.281793e+02
   3.665303e+00  -1.822208e+02
   1.740831e+02  -1.521773e+02
   2.005807e+02  -3.610472e+01
   9.925948e+01   1.409902e+01
   1.585237e+00   6.120060e+01
  -6.141840e+01   6.840142e+01
   7.289577e+00   3.834714e+01
   4.167832e+01   1.623304e+00
   2.868007e+01  -4.417842e+00
  -6.992074e+00   1.733859e+00
  -4.803765e+01   6.451900e+00
   8.310716e+00  -1.841819e+01
   3.849887e+01  -1.885704e+01
   4.854827e+01  -1.402472e+01
   3.179707e+00   6.512740e+01
  -4.607536e+01   1.605200e+02
  -1.162719e+02   7.599519e+01
  -1.455314e+02  -9.285850e+00
  -9.519958e+01  -1.332669e+02
   4.614460e+00  -9.536678e+01
   3.104903e+01  -3.128216e+01
   1.128405e+01   7.433790e+00
   5.966762e+00   3.230397e+01
  -4.563756e+01   2.635222e+01
   9.302169e-01  -4.307710e+01
   2.360852e+01  -2.251897e+01
   5.910268e+01   8.204768e+00
  -7.844741e+00   5.121076e+01
  -6.171773e+01  -3.715606e+01
  -4.910731e+01  -1.119251e+02
   4.330202e+01  -4.831867e+01
   1.469591e+02   3.113881e+01
   1.452889e+02   6.635938e+01
   5.223613e+01   9.168473e+01
  -3.010942e+01   7.543400e+01
  -7.087740e+01   9.422055e+01
  -4.822982e+01   3.962183e+01
  -4.112654e+01   1.311233e+01
   1.377445e+01   1.740733e+01
  -5.782147e+01   4.774645e+01
  -6.318190e+01   2.443171e+01
  -1.056829e+02  -1.452681e+01
  -6.230809e+00  -6.892825e+01
   2.679821e+01  -6.543136e+01
   4.966401e+01  -5.711928e+01
   4.967518e+01   7.855826e+00
  -3.320789e+01   4.577509e+00
  -1.242481e+00  -2.645064e+01
   4.584073e+01  -3.736911e+01
   1.086387e+02   5.987382e+00
   8.997379e+01   8.257959e+01
   2.230022e+01   7.216020e+01
  -7.324297e+01   6.563141e+01
  -7.193926e+01   2.737085e+01
  -6.320112e+01  -4.683217e+01
   7.979894e+00  -3.438756e+00
   4.730827e+01  -2.199873e+01
  -1.485221e+01  -3.703940e+01
  -4.174556e+01  -8.714789e+00
   1.471040e+01  -3.127815e+01
   4.219852e+01   8.675708e+00
   9.286323e+01   4.446422e+01
   2.137049e+00   6.014489e+01
  -4.596322e+01   6.732505e+01
  -8.346306e+01   4.461150e+01
  -6.300146e+01  -1.834937e+01
   1.427242e+01  -1.203868e+02
   1.018140e+01  -7.030101e+01
   7.296047e+01  -7.652383e+00
   7.677520e+01   3.096442e+01
   4.763148e+01   2.592091e+01
   3.200366e+01   7.048312e+01
   3.735359e+01  -2.588593e+01
   8.142611e+00   1.822650e+00
   1.211790e+01   5.281286e+01
  -4.865610e+01   3.970526e+01
  -1.889682e+01  -6.923857e+00
   1.014976e+01  -7.372694e+01
   6.862536e+01  -3.331026e+01
   7.404037e+01   3.311257e+01
   1.723057e+01   1.092525e+02
   1.956847e+01   9.273067e+01
  -7.698456e+01  -1.794601e+01
  -1.027512e+02  -3.819819e+01
  -7.929972e+00  -2.615975e+01
   2.630276e+01  -6.534062e+01
   2.278535e+01  -3.055222e+01
   2.802860e+00   1.348567e+01
   2.341600e+00  -4.886465e+01
   5.247809e+01  -5.546551e+01
   7.315073e+01  -1.783816e+01
   8.587943e+01   2.191181e+01
   4.567902e+01   1.092191e+02
  -6.214183e+01   6.034518e+01
  -4.874344e+01   3.821027e+01
  -6.708906e+01  -8.263294e+01
   1.771951e+01  -5.738815e+01
   3.038372e+01  -6.100433e+01
  -7.012411e+00   2.501455e+01
  -8.307860e+00   7.232705e+00
  -3.204503e+01   2.375482e+01
   1.498003e+01   1.142166e+01
   1.004307e+01   1.831477e+01
   5.436617e+01  -7.335523e+00
  -1.931233e+01  -2.134673e+01
  -7.146471e+01  -2.029802e+01
  -3.955221e+01  -2.813293e+01
   4.642948e+01  -4.285709e+01
   4.923760e+01  -2.897706e+01
   3.217379e+01  -3.426632e+01
   1.510408e+01   2.476603e+01
  -4.187319e+01   1.565807e+01
  -5.335200e+01   2.697408e+01
  -2.643733e+01  -5.128008e+01
   1.586699e+01  -7.120411e+01
   3.094322e+01  -2.796364e+01
   2.830158e+01  -9.969695e+00
   4.262597e+01   6.694353e+01
   5.779034e+01   2.691276e+01
   1.834069e+00  -1.760164e+01
  -9.619212e+00   3.198909e+01
  -2.498273e+01   1.694725e+01
  -2.886138e+01   1.109898e+01
  -6.911224e+01  -1.239619e+01
  -7.351722e+01  -5.234694e+01
  -2.056501e+01  -9.425224e+01
   5.546883e+01  -6.884026e+01
   1.600206e+01   1.237808e+01
  -2.958768e+01   5.239379e+01
  -3.178672e+00   2.300741e+00
  -6.784963e+01  -2.143658e+01
   1.756923e+01  -2.231244e+01
   1.331526e+01  -2.571079e+01
   4.875804e+01   3.339337e+01
  -2.732433e+01   3.958494e-01
   1.135271e+01   3.470066e+01
  -2.405050e+01  -4.344068e+01
  -2.561280e+01  -4.573953e+01
   6.916107e+01  -1.203600e+01
  -2.536000e+01   5.446928e+01
  -5.798364e+01   7.909703e+01
  -5.675224e+01   5.220477e+01
  -7.546915e+01  -3.303891e+01
  -2.961159e+01  -6.896591e+01
  -4.094336e+01  -5.232887e+01
   5.773824e+01   2.389349e+01
   3.633687e+01   1.532859e+01
   2.983940e+01  -1.016103e+01
  -4.248910e+00   1.365970e+01
   3.928669e+00  -4.818877e+00
  -1.898009e+01   5.382322e+00
   5.678335e+01   2.818499e+01
  -8.745139e+00  -8.212318e+00
  -8.718092e+01  -6.799027e-01
  -3.703170e+00  -3.039592e+01
  -2.026210e+00   3.117758e+00
   4.275511e+01   1.790283e+01
   4.423463e+01   6.796309e+01
  -8.226569e+00   3.110297e+01
  -8.046765e+01  -6.021760e+00
  -6.908505e+01   2.466094e+01
  -1.151429e+01  -4.555760e+01
   1.172821e+01  -3.500571e+01
   2.574006e+01  -1.867244e+01
  -2.620295e+01  -5.235619e-01
  -4.147141e+00  -3.744267e+00
  -6.438474e+00  -3.042011e+01
   5.492339e+01  -3.040810e+01
   2.397440e+01   4.770216e+01
  -2.824859e+01   7.943480e+01
  -8.769449e+01   4.408286e+01
  -6.412684e+01  -4.215076e+00
   5.626361e+00  -2.014284e+01
   1.841641e+01  -1.735577e+01
   2.174577e+01  -1.337807e+01
   1.872990e+01   8.344139e+00
  -1.826920e+01   3.456213e+01
  -2.360644e+01   1.402296e+00
   2.360062e+01   4.287841e+01
   1.546056e+01   3.324083e+01
   3.260480e+01   7.120293e+01
  -2.224654e+01  -1.469643e+01
  -2.386100e+01  -2.038467e+01
  -7.697503e+01  -2.646995e+01
   3.453341e-01  -7.705097e+01
   7.340421e+01  -1.154062e+01
   3.617488e+01   4.865499e+01
   1.313341e+01   9.263686e+01
  -5.595230e+01   4.458328e+01
  -6.275249e+01   2.298740e+01
  -3.281052e+01  -1.889432e+01
   9.963743e+00   1.817604e+00
  -1.258083e+01  -1.978023e+01
  -2.656234e+01  -6.146445e+00
  -4.088361e+01  -1.875438e+00
   1.497872e+01  -1.256640e+01
   6.421449e+01  -1.906360e+01
   4.870798e+01   2.034868e+01
   6.168428e+01   3.317762e+01
   4.795562e+01   3.915198e+01
  -2.933275e+01   8.228423e+00
  -2.576683e+01   1.356242e+01
  -3.389848e+01  -1.413815e+01
   2.281305e+00  -4.695845e+01
  -6.624587e+01  -1.221358e+01
   1.946162e+00   5.266636e+01
  -2.703594e+01  -8.003092e+00
  -1.961599e+01   5.394703e+00
  -3.394766e+01  -3.043510e+01
  -1.197137e+01  -2.695656e+01
   4.512345e+01   4.632428e+01
  -3.222979e+01   5.500343e+00
   3.811029e+00   1.843455e+01
   1.544500e+01   2.891473e+01
  -7.983455e+00  -7.006534e+01
   3.633610e+01  -1.232985e+01
   1.215508e+01  -3.188212e+00
  -2.818232e+01   1.523500e+01
  -1.701927e+01  -2.135220e+01
  -2.166672e+01  -2.334808e+01
   5.947431e+01  -2.958116e+01
   2.805234e+01   1.946946e+01
   3.472407e+01   1.312701e+01
  -4.253385e+01   4.913833e+00
  -2.492889e+01   4.876844e+01
  -1.152973e+01   1.962974e+01
   3.640154e+01  -5.543433e+01
   2.303562e+01  -5.430757e+00
  -1.170282e+01  -2.994389e+01
  -3.258750e+01   7.738388e+00
