
 $NMID
 id='ANONYMOUS ', fmtdat='(2E16.6)'
 volume=1.0
 tramp=1.0
 $END
   2.154817e+03   2.697524e+02
   1.401860e+03   1.017390e+03
   6.222886e+01   1.371902e+03
  -6.840557e+02   9.662791e+02
  -8.946584e+02   1.880206e+02
  -1.854006e+02  -1.685186e+01
   7.934128e+01   1.868667e+01
   2.282842e+02   3.443146e+02
  -2.683189e+02   3.286645e+02
  -4.791314e+02   1.002575e+02
  -3.476599e+02  -4.009833e+02
  -1.102188e+02  -3.656408e+02
   2.182819e+02   8.635733e+00
   2.680304e+02   2.148973e+02
  -3.522030e+01   5.261104e+02
  -2.362686e+02   6.632604e+01
  -1.568210e+02  -3.454444e+02
   1.166581e+02  -6.971753e+02
   3.634635e+02  -3.269202e+02
   4.864841e+02   2.197143e+02
   3.681806e+02   8.784759e+01
  -8.504031e+01   2.366835e+02
  -1.106132e+02   2.585429e+02
   2.391963e+02   1.402226e+02
   3.022101e+02   2.752307e+02
   4.675092e+01   2.228976e+02
  -3.195217e+02   1.039770e+02
  -5.259340e+02  -1.550522e+02
  -1.151116e+02  -2.648163e+02
   3.515339e+02  -2.243400e+02
   3.722100e+02   9.434182e+01
   9.673347e+01   3.775138e+02
  -2.138983e+02   2.792205e+02
  -4.230368e+02   1.901787e+02
  -2.925550e+02  -4.329141e+01
  -9.241360e+01  -1.771474e+02
  -9.967852e+01  -1.332974e+02
  -5.988704e+01   8.634051e+01
  -1.748493e+02   7.238520e+01
  -8.441398e+01  -2.013369e+02
   6.341271e+01  -3.978364e+02
   2.262205e+02  -3.516625e+02
   2.120442e+02  -4.769585e+00
   8.581683e+01   2.609929e+02
  -1.153705e+02   3.136284e+01
  -1.521255e+02  -2.298261e+02
   1.391542e+02  -2.789171e+02
   3.590532e+02  -4.159421e+01
   4.232503e+02   3.249754e+02
   5.726526e+01   4.186419e+02
  -2.352682e+02   2.043704e+02
  -4.529288e+02  -5.232105e+01
  -3.063739e+02  -2.327672e+02
   9.460358e+00  -1.961491e+02
   1.918961e+02  -1.222056e+02
   2.257944e+02  -1.887862e+01
   8.021801e+01   1.087245e+01
   6.901413e+01  -3.121966e+01
   1.145252e+02  -4.804341e+01
   1.712303e+02   3.201647e+01
   1.055545e+02   2.186235e+02
  -1.080835e+02   2.420814e+02
  -2.998372e+02   1.848192e+02
  -2.885207e+02  -1.321802e+02
   1.009940e+01  -3.663647e+02
   2.858935e+02  -3.714824e+02
   3.873985e+02  -1.126043e+02
   1.866919e+02   1.777624e+02
   6.906105e+01   3.390153e+02
  -2.947324e+01   3.173659e+02
  -5.411412e+01   1.925377e+02
  -2.439739e+01   1.270700e+02
  -1.710687e+02   2.742009e+01
  -2.167381e+02   2.224612e+01
  -2.021117e+02  -1.041248e+02
  -3.387646e+01  -2.360556e+02
   6.122120e+01  -1.701273e+02
   2.052272e+02   5.933936e+01
   7.312226e+01   2.717468e+02
  -5.853233e+01   1.932430e+02
  -2.139267e+02   2.897579e+01
  -2.330292e+02  -1.611900e+02
  -1.685038e+02  -2.257470e+02
   2.639943e+01  -2.140766e+02
   1.291461e+02  -1.152651e+02
   1.161299e+02  -8.614217e+01
   1.684499e+02  -1.285679e+02
   3.033956e+02  -5.831967e+01
   4.031709e+02   7.806602e+01
   3.082607e+02   3.251928e+02
  -3.848643e+01   3.754676e+02
  -3.829438e+02   3.166344e+02
  -3.921303e+02   1.628945e+02
  -2.349636e+02  -1.028181e+02
  -4.082986e+01  -1.915009e+02
   1.108735e+02  -1.363915e+02
   9.631608e+00  -2.049306e+01
  -1.151881e+02   2.519109e+01
  -1.485225e+02  -2.526541e+01
   8.762994e+00  -1.098793e+02
   6.612002e+01  -3.182161e+01
   9.576521e+01   5.377521e+01
  -6.101077e+01   7.710485e+01
  -1.866410e+02  -9.369366e+00
  -1.741773e+02  -2.211910e+02
  -3.869192e+00  -3.411398e+02
   2.369267e+02  -2.331901e+02
   3.803839e+02   5.679138e+01
   2.631047e+02   2.498703e+02
   7.202029e+01   2.778368e+02
  -6.214352e+01   1.598327e+02
  -1.558305e+02  -1.582583e+01
  -1.580249e+01   2.764626e+01
   7.236816e+01   9.368243e+01
  -4.781332e+01   1.278204e+02
  -1.429201e+02   9.323277e+00
  -1.366733e+02  -5.228981e+01
   2.706544e+01  -4.391337e+01
   9.424474e+01   1.001295e+02
  -1.429571e+00   9.656244e+01
  -2.187579e+02   9.605475e+01
  -2.891326e+02  -5.075161e+01
  -2.399259e+02  -1.552026e+02
  -2.789015e+01  -2.828122e+02
   1.860864e+02  -2.660900e+02
   2.767524e+02  -8.675308e+01
   1.509451e+02   9.396380e+01
  -4.654571e+01   7.964328e+01
  -6.011461e+01   2.049311e+01
   5.557298e+01  -7.852358e+01
   1.423104e+02  -1.392116e+01
   1.714288e+02   1.227022e+02
   7.993078e+01   1.891544e+02
  -6.478505e+01   1.189735e+02
  -9.379672e+01   2.912032e+01
  -6.186599e+01  -7.046457e+01
   3.519343e+01  -8.720186e+00
  -3.460491e+00   1.228122e+02
  -1.064092e+02   1.749410e+02
  -1.955850e+02   2.598079e+01
  -1.658455e+02  -1.423120e+02
  -3.630758e+01  -2.520952e+02
   1.167541e+02  -1.752147e+02
   1.489450e+02  -6.305671e+01
   8.471284e+01   6.220087e+01
  -1.537320e+01   8.799804e+01
  -2.225909e+01   4.763316e+01
   5.357301e+01  -1.212869e+01
   9.088170e+01  -2.057213e+01
   3.001041e+00   3.023990e+01
  -1.361087e+02  -4.905397e+01
  -1.232045e+02  -8.570223e+01
   1.297306e+01  -1.393524e+02
   1.589042e+02  -1.194825e+02
   2.230469e+02   5.764820e+00
   1.377025e+02   1.501350e+02
   5.646510e+01   1.722016e+02
  -1.280922e+02   1.146396e+02
  -1.564313e+02   3.514656e+01
  -9.152453e+01  -7.097016e+01
  -6.176037e+01  -1.846877e+00
  -4.373382e+01   2.370034e+01
  -1.061610e+02   2.399764e+01
  -6.553531e+01  -4.119682e+01
   4.944820e+01  -1.310512e+02
   1.011411e+02  -1.041490e+02
   1.058809e+02   3.639923e+01
   1.670369e+01   7.726400e+01
  -1.317259e+02   7.905484e+01
  -1.767645e+02  -4.798112e+01
  -6.862179e+01  -2.227860e+02
   9.808525e+01  -1.884678e+02
   2.378888e+02  -8.534530e+01
   1.869073e+02   2.568216e+01
   6.997301e+01   1.676684e+02
  -4.351904e+01   1.431935e+02
  -7.611754e+01   8.738808e+01
  -8.350097e+01   8.824434e+01
  -7.754245e+01   1.015170e+02
  -1.244058e+02   8.124483e+01
  -1.123949e+02  -1.039432e+01
  -1.185610e+02  -1.185877e+02
   3.261335e+01  -1.870631e+02
   1.248510e+02  -1.394121e+02
   1.647329e+02   2.782391e+01
   7.487150e+01   1.336600e+02
  -1.928373e+01   1.283515e+02
  -1.079819e+02   4.316028e+01
  -3.467300e+01  -6.030057e+01
  -1.197406e+01  -2.826491e+01
   2.799138e+01  -6.965148e+01
  -4.029295e+01   1.965188e+00
  -6.679534e+01  -2.046115e+01
  -3.663945e+01  -3.795444e+01
   9.124945e+01   5.034499e+00
   1.489905e+02   4.084274e+01
   1.349366e+02   6.321142e+01
  -2.283512e+01   9.699888e+01
  -7.958214e+01   3.597576e+01
  -1.525464e+02  -4.692543e+01
  -1.474951e+01  -8.938806e+01
   5.047272e+01  -7.897913e+01
   1.248214e+02   1.579255e+01
   4.866970e+01   6.426806e+01
  -3.671734e+01   8.326197e+01
  -6.925496e+01   7.071781e+01
  -3.581453e+01  -5.023646e+01
  -9.526543e+01   1.045957e+01
  -5.226227e+01   5.991201e+00
  -9.586191e+01   1.568507e+01
  -3.756265e+01  -7.984722e+01
   3.680316e+01  -1.269846e+02
   1.297107e+02  -1.389145e+02
   2.223380e+02   3.016071e+00
   8.341606e+01   4.918668e+01
   4.124827e+01   1.202267e+02
  -5.077299e+01   7.742214e+01
  -4.910087e+01   3.796933e+01
   5.079250e+01  -7.466481e+01
   1.027900e+02  -5.085129e+00
   3.149991e+01   3.433045e+01
  -6.862539e+01   8.654692e+01
  -1.924771e+02   1.705620e+01
  -9.651697e+01   2.413105e+01
  -2.138877e+01  -7.507674e+01
   6.686426e+01  -4.470587e+01
   3.593286e+01  -2.004075e+01
  -7.701776e+00   3.732067e+01
  -7.492259e+01   5.034728e+00
  -2.971334e+01  -1.175418e+02
   4.494048e+01  -1.507160e+02
   1.558473e+02  -4.020058e+01
   7.627070e+01   4.850769e+01
  -4.865153e-02   1.675013e+02
  -7.559441e+01   8.024155e+01
  -9.852360e+01  -2.869081e+01
  -6.161088e+01  -8.417911e+01
  -2.459540e+01  -1.068773e+02
   1.877216e+01   2.249558e+01
   2.400252e+01   2.187947e+01
   1.122302e+01   4.031876e+01
   8.372908e+00   3.568092e+01
   2.283643e+01   9.260329e+00
   5.282200e+01   7.381065e+01
   3.639189e+01   9.688031e+01
  -6.530748e+01   1.945152e+01
  -1.393163e+02  -3.429751e+01
  -6.684810e+01  -3.564904e+01
   2.437753e+01  -5.389838e+01
   6.666250e+01   1.303110e+01
   6.309848e+01   2.947117e+01
  -9.621582e+00  -4.431912e+00
  -2.142066e+01  -1.265485e+01
  -2.552902e+01   5.434477e+00
   4.603431e+01   4.415842e+00
   5.391674e+00   7.830299e+00
  -7.674410e+01   3.673138e+01
  -6.315763e+01  -1.999573e+01
   1.192936e+01  -9.270307e+01
   1.017317e+02  -1.406230e+02
   1.866592e+02  -8.606536e+01
   1.320649e+02   6.386290e+01
   4.123350e+01   1.517523e+02
  -7.399269e+01   1.741314e+02
  -1.099201e+02   8.488582e+01
  -6.463462e+01  -6.129298e+00
  -4.786800e+01  -2.624610e+01
   1.750444e+01  -3.307576e+01
  -4.727968e+01  -2.585837e+01
  -4.093908e+01  -1.665306e+01
  -6.286154e+00  -1.017050e+02
   1.748874e+01  -2.423669e+01
   9.022166e+01   5.365841e+00
   1.377631e+02   6.067265e+01
   1.907420e+01   8.007230e+01
  -3.607148e+01   2.263092e+01
  -9.648616e+01  -5.725546e+01
  -5.642535e+01  -8.465310e+01
   4.802155e+01  -9.001388e+01
   8.684664e+01  -9.090355e-01
  -1.406388e+01   3.651863e+01
  -1.244176e+01   3.831459e+01
  -1.670010e+01  -5.796416e+00
   2.268581e+01  -4.303981e+01
   4.137737e+00  -3.979676e+01
   2.196640e+01   3.619045e+01
  -1.860870e+01   5.107907e+01
  -8.844073e+01   3.161489e+01
  -7.499864e+01  -2.465501e+01
  -1.472621e+01  -6.267005e+01
   5.185480e+01  -7.844311e+01
   6.663560e+01  -1.937282e+01
   4.583245e+01   4.008123e+01
  -1.915375e+01   6.646132e+01
  -3.902820e+01   4.718783e+01
  -4.378814e+01  -8.286184e+00
  -4.848108e+01  -3.500173e+01
   5.833977e+01  -2.091781e+01
   5.612933e+00   1.305205e+01
   5.731690e+00  -1.295870e+01
  -3.477110e+01  -2.939251e+01
   1.111203e+01  -4.461539e+01
   1.540903e+01   1.499116e+01
   4.251309e+01   4.933095e+01
  -8.236877e+00   1.985854e+01
  -5.096171e+01  -1.162880e+01
   1.856405e+00   2.834734e+00
  -1.653880e+01   1.197156e+01
   5.878256e+01   6.617184e+00
  -2.258162e+01  -1.169176e+01
  -6.054627e+01   4.119604e+01
  -1.073669e+02   3.105336e+01
  -4.130265e+01  -2.382277e+01
  -1.266514e+01  -5.747266e+01
   3.751239e+01  -4.734800e+01
   5.894956e+01  -8.522359e+00
  -2.298523e+01   7.731241e+01
  -3.766377e+01   1.929584e+01
   4.785795e+01   5.866293e+00
   4.877021e+01   1.427776e+01
