
 $NMID
 id='ANONYMOUS ', fmtdat='(2E16.6)'
 volume=1.0
 tramp=1.0
 $END
   4.275360e+03   1.561666e+02
   2.485392e+03   2.345694e+03
  -4.589420e+02   2.473577e+03
  -1.812980e+03   9.759408e+02
  -8.037314e+02  -5.412664e+02
   7.226665e+02  -5.118503e+02
   9.055563e+02   2.506068e+02
  -3.268193e+01   9.318438e+02
  -6.230379e+02   5.880010e+02
  -8.349010e+02  -3.560223e+01
  -4.173212e+02  -1.056347e+03
   2.686093e+02  -1.046256e+03
   4.220528e+02  -4.885144e+01
   3.038344e+02   7.275074e+02
  -2.221599e+02   7.950182e+02
  -6.172263e+02  -1.434028e+02
  -3.467671e+02  -7.540274e+02
   3.123721e+02  -5.954894e+02
   6.884055e+02  -1.773009e+02
   4.166370e+02   3.979536e+02
   2.398888e+02   5.390674e+02
  -2.795160e+02   3.485667e+02
  -2.605279e+02   7.678729e+01
  -1.108880e+01  -2.063219e+02
   3.328592e+02   1.394395e+02
   1.701829e+02   3.198356e+02
  -4.373149e+02   3.146951e+02
  -8.267045e+02  -1.178481e+01
  -5.579061e+02  -5.479781e+02
   4.042787e+02  -4.397230e+02
   7.519887e+02   1.063163e+02
   3.564314e+02   5.708845e+02
  -3.008468e+02   4.559890e+02
  -6.290139e+02   1.585545e+02
  -4.537981e+02  -2.570015e+02
  -7.376936e+01  -5.152926e+02
   2.913188e+02  -3.490008e+02
   1.961874e+02   2.811974e+02
  -2.836446e+02   5.025545e+02
  -4.942468e+02  -8.602739e+01
  -2.509472e+02  -7.286425e+02
   4.229703e+02  -7.518616e+02
   6.325267e+02   5.037142e+01
   2.240050e+02   6.049406e+02
  -3.739096e+02   3.268801e+02
  -3.772445e+02  -4.047096e+02
   9.491555e+01  -5.871979e+02
   5.606601e+02  -1.011107e+02
   5.894365e+02   4.812836e+02
   1.695624e+02   6.308239e+02
  -4.611274e+02   3.583133e+02
  -7.707786e+02  -1.603157e+02
  -3.813362e+02  -4.712981e+02
   2.633364e+02  -4.072176e+02
   5.443225e+02  -6.883088e+01
   1.952406e+02   1.984878e+02
  -2.309328e+02   1.641696e+02
  -1.913027e+02  -1.849483e+02
   1.225556e+02  -2.907136e+02
   4.060713e+02   2.116116e+01
   2.210204e+02   3.121820e+02
  -1.976219e+02   3.089067e+02
  -3.827587e+02   6.822347e+01
  -2.746464e+02  -1.484562e+02
  -1.759846e+01  -2.842722e+02
   2.597506e+02  -3.604235e+02
   3.693348e+02  -2.377603e+02
   3.421312e+02   1.698049e+02
   5.045505e+01   4.276735e+02
  -1.107427e+02   3.387695e+02
  -9.719116e+01   6.030087e+01
   3.238105e+00   1.506340e+01
  -1.362064e+01   9.091663e+01
  -2.372725e+02   1.988839e+02
  -3.036298e+02  -2.253207e+01
  -1.459935e+02  -3.063880e+02
   9.357258e+01  -2.894081e+02
   2.603056e+02  -2.530776e+01
   2.280280e+02   1.918202e+02
  -5.140000e+01   2.703407e+02
  -3.090303e+02   1.552343e+02
  -3.697360e+02  -1.554810e+02
  -1.556088e+02  -3.568502e+02
   1.340814e+02  -3.456266e+02
   2.344726e+02  -9.718037e+01
   1.968158e+02   1.665609e+01
   1.097493e+02  -7.783201e+01
   2.360491e+02  -7.822369e+01
   3.741796e+02   4.955831e+01
   3.679704e+02   3.299250e+02
   4.875355e+01   4.507360e+02
  -3.729371e+02   4.576426e+02
  -5.360584e+02   2.374892e+02
  -4.364497e+02  -1.160838e+02
  -1.076791e+02  -3.747555e+02
   1.625790e+02  -2.571820e+02
   1.129936e+02   4.052342e+01
  -1.311966e+02   1.379728e+02
  -2.339103e+02  -3.100607e+01
  -4.863231e+01  -2.287215e+02
   1.671737e+02  -1.442323e+02
   1.840675e+02   6.507038e+01
  -1.149269e+01   1.586316e+02
  -1.455603e+02   5.784989e+01
  -1.604348e+02  -2.445365e+02
   4.686212e+01  -3.290191e+02
   1.762019e+02  -1.631648e+02
   2.331653e+02   7.430459e+01
   2.651309e+02   1.924059e+02
   5.206532e+01   2.518576e+02
  -1.385828e+02   1.475147e+02
  -1.497706e+02   1.772153e+01
   6.324852e+00  -2.523697e+01
   6.500227e+01  -4.496092e+01
   2.710132e+00   1.050380e+02
  -1.074199e+02   1.307161e+02
  -1.479846e+02   2.155322e+00
  -5.149763e+01  -8.939185e+01
   4.715985e+01  -1.667224e+01
   4.097920e+01   6.734682e+01
  -1.114560e+02   3.736168e+01
  -2.378457e+02  -1.706174e+01
  -2.387624e+02  -9.652551e+01
  -7.668969e+01  -1.773086e+02
   1.506900e+02  -2.717642e+02
   2.948045e+02  -1.350994e+02
   1.628095e+02   5.720258e+01
  -6.270967e+01   1.005547e+02
  -1.100452e+02   1.617100e+01
   1.948537e+01  -9.473824e+01
   2.079598e+02  -3.781452e+01
   2.114558e+02   1.117525e+02
   4.939624e+01   1.833219e+02
  -1.434164e+02   1.317794e+02
  -1.830704e+02   3.392830e+01
  -6.257607e+01  -9.636479e+01
   2.957936e+01  -2.704211e+01
   7.467350e+01   9.565548e+01
  -1.084668e+02   1.659783e+02
  -1.791249e+02   5.667408e+01
  -1.717692e+02  -1.417694e+02
  -3.442267e+01  -2.152933e+02
   1.691313e+02  -1.844513e+02
   2.016287e+02  -1.915033e+00
   7.625910e+01   1.366136e+02
  -1.027329e+02   9.219260e+01
  -4.197125e+01   8.314829e+01
  -1.695489e+01   3.187191e+00
   1.567356e+01  -3.688260e+01
   3.020538e+01  -1.591111e+01
  -7.582111e+01  -2.379306e+01
  -1.202849e+02  -4.299899e+01
  -4.489500e+01  -1.626522e+02
   1.155154e+02  -1.932450e+02
   2.242881e+02  -3.879731e+01
   1.843075e+02   1.504320e+02
   7.356135e+01   2.016015e+02
  -1.393468e+02   1.660326e+02
  -1.741294e+02  -1.237654e+00
  -1.206136e+02  -8.653371e+01
  -1.155305e+01  -6.098245e+01
  -1.830255e+01   3.701957e+01
  -4.333336e+01   1.381187e+01
  -9.682264e+01  -4.885257e+01
   5.011508e+00  -1.365091e+02
   4.922193e+01  -8.978757e+01
   9.138643e+01   6.681547e+01
   2.539990e+01   1.498658e+02
  -1.293686e+02   9.894496e+01
  -2.202038e+02  -3.255442e+01
  -1.122406e+02  -2.193869e+02
   9.433896e+01  -2.021968e+02
   2.370719e+02  -1.055670e+02
   2.281701e+02   7.347075e+01
   1.128359e+02   1.290072e+02
  -4.561266e+01   1.601641e+02
  -7.168267e+01   5.881981e+01
  -1.215481e+02   8.554176e+01
  -6.680189e+01   1.208270e+02
  -9.020081e+01   5.942653e+01
  -1.306294e+02   7.004122e+00
  -8.226277e+01  -1.777791e+02
  -1.220258e+01  -2.396868e+02
   1.394486e+02  -1.995244e+02
   1.562199e+02  -3.861438e+01
   1.081986e+02   1.397344e+02
  -4.015327e+01   1.441363e+02
  -7.190855e+01   8.357841e+01
  -5.741804e+01  -1.831691e+01
  -3.620851e+01  -9.897400e+01
   6.883229e+01  -6.753681e+01
  -1.625256e+01  -2.654705e-01
  -1.024406e+02  -3.765433e+01
  -3.165106e+01  -3.650610e+01
   3.992608e+01  -3.153265e+01
   1.265847e+02   3.130442e+01
   1.609846e+02   6.723476e+01
   6.722766e+00   8.606766e+01
  -1.705109e+02   5.585267e+01
  -1.978469e+02  -3.093056e+01
  -8.845868e+01  -4.642330e+01
   7.929525e+01  -3.860895e+01
   1.053641e+02   1.868794e+01
   2.813864e+01   6.627892e+01
  -5.867565e+01   5.543112e+01
  -4.083219e+01   2.021596e+01
  -5.435783e+01   6.907492e+00
  -4.989474e+01   2.674862e+01
  -9.254395e+01  -2.539996e+01
  -7.793413e+01  -4.157930e+01
  -3.930492e+01  -4.104529e+01
   4.324922e+01  -1.107549e+02
   1.059020e+02  -1.356515e+02
   1.395266e+02  -4.537398e+01
   1.227158e+02   6.056945e+01
  -2.063381e+01   1.121848e+02
  -4.725649e+01   1.774089e+01
  -7.441825e+01  -4.714079e+01
   8.820273e+01  -1.231827e+01
   1.780237e+02   2.317063e+01
   6.283361e+00   8.454733e+01
  -7.271027e+01   1.156760e+02
  -1.506470e+02   3.905903e+01
  -1.337092e+02  -2.664410e+01
  -1.413858e+01  -8.563477e+01
   4.032042e+01  -1.038050e+02
   3.232341e+01   3.317067e+01
  -2.034145e+01   3.744867e+01
  -1.032825e+02  -1.129409e+01
  -4.830314e+01  -1.149512e+02
   8.263532e+01  -1.767081e+02
   1.277365e+02  -4.458025e+01
   9.594885e+01   1.631032e+02
  -5.142565e+01   1.832540e+02
  -1.062396e+02   8.595687e+01
  -8.662931e+01  -2.804737e+01
  -5.075408e+01  -1.103256e+02
  -5.441611e+00  -1.353299e+02
   4.897252e+01   7.723621e-01
   4.978286e+01   2.641289e+01
   8.631589e+01   7.935272e+00
   7.420466e+01   4.603213e+00
   3.733222e+01   4.892005e+01
   5.171044e+01   1.404841e+02
   5.036649e+01   1.445203e+02
  -9.067165e+01   2.052580e+00
  -1.298534e+02  -7.486446e+01
  -1.270766e+02  -9.072855e+01
  -3.610610e+01  -8.968769e+01
   8.184993e+01   1.922981e+01
   9.765962e+01   1.217717e+01
  -1.137649e+01   2.208912e+01
  -3.396230e+01   1.984570e+01
  -5.791155e+01   2.212402e+01
  -2.693130e+01  -2.187766e+01
  -2.482314e+00  -1.462009e+01
  -8.375549e+01  -3.055145e+01
  -1.206881e+02  -3.133118e+01
  -2.951989e+00  -1.358321e+02
   1.061035e+02  -1.151337e+02
   1.784747e+02  -7.359495e+01
   1.214914e+02   8.782890e+01
   2.278594e+01   1.333481e+02
  -1.131759e+02   1.482061e+02
  -1.166800e+02   5.763633e+01
  -7.113027e+01   4.126871e+00
  -4.170875e+00  -3.006951e+01
   3.922779e+01  -2.002579e+01
  -8.923334e+00  -2.962122e+00
  -3.296962e+01  -3.938285e+01
  -1.686747e+01  -6.820855e+01
  -1.386609e+01  -6.588956e+01
   7.621880e+01   5.447036e+01
   6.523411e+01   1.606840e+02
   9.618341e+00   1.017809e+02
  -9.868185e+01  -3.602598e+01
  -1.124058e+02  -1.366186e+02
  -3.104420e+01  -1.216553e+02
   9.327831e+01  -7.938046e+01
   1.152900e+02   2.303875e+01
   4.397265e+01   5.244794e+01
  -5.168872e+01   5.876039e+01
  -2.086863e+01   2.337171e+01
   3.815826e+01  -1.166415e+01
   1.005927e+02  -2.191743e+00
  -2.178006e+01  -2.208828e+01
  -8.769095e+01   2.371430e+01
  -1.281073e+02   3.618237e+01
  -2.450546e+01  -2.744384e+01
   5.909242e+01  -5.083047e+01
   6.114421e+01  -6.224314e+01
   4.610211e+01   1.684074e+01
  -1.750571e+01   3.808857e+01
  -5.074782e+01   8.576996e+01
  -4.369247e+01   2.917090e+00
  -1.250007e+01  -1.338123e+01
  -4.415138e+00  -1.062889e+01
   4.489323e+01   4.703785e+01
  -1.555578e+01   6.189871e+01
   3.219466e+01   6.260424e+01
   2.013696e+01  -6.205571e+01
  -8.613323e+00  -2.777841e+01
  -3.257065e+01   6.139196e+01
  -3.496232e+01   3.200626e+01
  -4.693336e+01   4.946633e+01
   1.179575e+00  -7.869704e+01
  -1.504424e+01  -5.226068e+01
   2.859021e+01  -4.047760e+01
   5.011755e+01   5.069873e+01
   6.513432e+00   4.163782e+01
  -4.941694e+01   3.282596e+01
  -1.370528e+02  -4.776333e+01
  -4.132639e+01  -6.592156e+01
   3.591210e+01  -1.441926e+00
   5.920290e+01   2.529978e+01
  -1.326718e+01   8.436695e+00
  -1.083529e+01  -3.952316e+01
   3.747980e+01  -1.596148e+01
   9.753905e+00  -3.824117e+01
   3.659503e+01   1.553654e+01
