
 $NMID
 id='ANONYMOUS ', fmtdat='(2E16.6)'
 volume=1.0
 tramp=1.0
 $END
   3.684150e+03  -4.107032e+00
   2.299287e+03   2.201960e+03
  -4.533069e+02   2.299830e+03
  -1.560242e+03   8.785240e+02
  -7.809256e+02  -3.860919e+02
   5.112929e+02  -3.287386e+02
   9.593464e+02   4.074080e+02
  -1.838718e+02   1.058017e+03
  -6.844920e+02   8.471039e+02
  -7.907819e+02   1.244583e+02
  -4.323498e+02  -8.618776e+02
   3.540519e+02  -7.029131e+02
   5.366408e+02  -4.247128e+01
   4.692856e+02   6.817364e+02
  -1.750414e+02   6.689716e+02
  -3.950839e+02   9.548520e+00
  -1.746498e+02  -7.982484e+02
   4.260635e+02  -5.948765e+02
   6.925411e+02  -2.689843e+01
   3.238838e+02   9.825767e+01
  -9.787206e+01   3.677074e+02
  -2.691266e+02   1.906545e+02
  -1.475130e+02  -1.955476e+02
   1.350864e+02  -2.879964e+01
   2.977429e+02   1.970490e+02
   2.028643e+02   4.546582e+02
  -4.270672e+02   3.725714e+02
  -7.194956e+02  -2.108878e+02
  -2.976721e+02  -5.863909e+02
   4.924351e+02  -2.639324e+02
   8.104435e+02   1.757684e+02
   1.522162e+02   4.080500e+02
  -3.737919e+02   4.119459e+02
  -4.628313e+02   9.241599e+01
  -3.198174e+02  -2.797667e+02
  -5.589575e+01  -4.839212e+02
   2.273481e+02  -2.696970e+02
   1.423366e+02   2.075903e+02
  -1.218066e+02   4.405118e+02
  -4.728189e+02   3.454815e+01
  -2.651047e+02  -5.986715e+02
   3.197349e+02  -6.052356e+02
   5.417809e+02  -2.771028e+01
   2.794413e+02   4.909933e+02
  -2.488668e+02   3.622324e+02
  -3.083775e+02  -3.144250e+02
   1.199517e+02  -5.404027e+02
   5.594390e+02  -7.703976e+01
   5.585121e+02   4.063479e+02
   1.659836e+02   6.099433e+02
  -3.714039e+02   4.018816e+02
  -6.851555e+02  -6.239885e+01
  -3.432592e+02  -4.256688e+02
   1.291746e+02  -4.014067e+02
   4.227880e+02  -7.974763e+01
   2.289902e+02   2.058797e+02
  -1.155004e+02   2.081293e+02
  -1.040922e+02  -1.377480e+02
   1.103543e+02  -1.489078e+02
   2.708663e+02  -1.833859e+01
   1.679234e+02   2.683677e+02
  -1.281925e+02   2.617930e+02
  -3.369731e+02   8.450343e+01
  -1.868328e+02  -1.062040e+02
  -4.133478e+01  -2.574621e+02
   2.146970e+02  -3.562226e+02
   3.908844e+02  -1.997801e+02
   3.451177e+02   1.950261e+02
   4.439662e+01   4.146782e+02
  -1.341038e+02   3.528346e+02
  -1.317833e+02   6.392548e+01
  -1.921795e+01  -2.343442e+01
  -2.498121e+01   1.499536e+02
  -1.789953e+02   1.614176e+02
  -2.320039e+02  -2.636965e+01
  -1.536386e+02  -2.704646e+02
   4.910424e+01  -2.693135e+02
   2.442486e+02   2.482473e+01
   1.882723e+02   2.422776e+02
  -6.306244e+01   2.473080e+02
  -2.745068e+02   9.269586e+01
  -2.946094e+02  -1.776043e+02
  -1.252460e+02  -3.319070e+02
   1.155496e+02  -3.202274e+02
   2.041528e+02  -1.262585e+02
   1.263134e+02  -2.522262e+01
   1.213205e+02  -1.740242e+01
   2.323447e+02  -5.387958e+01
   3.567792e+02   1.012569e+02
   3.199274e+02   3.012251e+02
   2.877939e+01   4.553833e+02
  -3.455255e+02   3.877531e+02
  -5.454358e+02   1.576252e+02
  -3.247558e+02  -1.526590e+02
  -5.150240e+01  -3.310923e+02
   1.497625e+02  -2.278030e+02
   5.914358e+01  -1.317516e+01
  -5.374512e+01   7.445372e+01
  -1.326927e+02  -4.471767e+01
  -1.621190e+01  -1.721398e+02
   1.673499e+02  -1.493546e+02
   1.708138e+02   9.083646e+01
  -6.161810e+00   1.982016e+02
  -2.289844e+02   7.552478e+01
  -1.547158e+02  -2.076588e+02
   1.197274e+01  -3.092956e+02
   2.359565e+02  -2.480772e+02
   3.542215e+02   1.444320e+01
   2.437659e+02   2.425209e+02
   8.298415e+01   3.013653e+02
  -8.617564e+01   1.839458e+02
  -1.802274e+02   1.468555e+01
  -3.301405e+01  -2.855784e+01
   4.402360e+01   6.150568e+00
   5.765711e+00   8.152362e+01
  -8.993654e+01   1.073922e+02
  -1.293580e+02   1.734078e+01
  -1.195954e+01  -6.431392e+01
   8.256654e+01  -4.147876e+01
   1.622603e+01   7.887132e+01
  -9.795674e+01   1.015906e+02
  -2.742883e+02   2.436262e+01
  -2.782207e+02  -1.532306e+02
  -2.577188e+01  -3.192352e+02
   1.546442e+02  -2.784863e+02
   3.077328e+02  -9.466331e+01
   2.018717e+02   9.139484e+01
   4.147586e+01   1.000660e+02
  -8.496022e+01   3.382644e+01
   3.691332e+01  -8.923636e+01
   2.048161e+02  -8.557332e+01
   2.025344e+02   9.942154e+01
   4.997070e+01   1.847497e+02
  -5.395611e+01   2.381250e+02
  -2.109973e+02   2.698726e+01
  -1.066298e+02  -2.828464e+01
  -8.028178e+00  -4.710379e+01
   2.555545e+01   5.425132e+01
  -9.896297e+01   9.315265e+01
  -2.312633e+02   9.337613e+00
  -1.329387e+02  -1.479005e+02
  -1.545801e+01  -2.391332e+02
   1.606186e+02  -1.636350e+02
   1.858453e+02  -1.257409e+01
   5.905792e+01   6.903274e+01
  -7.198161e+01   7.515109e+01
  -7.543362e+01   1.369699e+01
  -1.267743e+01  -5.542365e+01
   1.765604e+01  -2.219342e+01
   4.951592e+00  -3.963559e+01
  -6.242175e+01   3.150695e+00
  -6.663968e+01  -9.365168e+01
  -3.435374e+01  -1.334896e+02
   1.813249e+02  -1.276678e+02
   1.962215e+02  -2.159635e+01
   1.740129e+02   1.549356e+02
   6.754945e+01   2.354486e+02
  -1.556978e+02   1.870367e+02
  -2.127522e+02   2.513356e+01
  -3.734737e+01  -5.786229e+01
  -4.211162e+01  -9.497340e+01
  -3.622586e+01  -2.596284e+01
  -5.454881e+01   4.698223e+00
  -4.616782e+01  -5.839952e+01
   1.708453e+01  -1.149847e+02
   1.239780e+02  -6.418078e+01
   1.145190e+02  -2.808498e+01
  -5.652230e-01   1.335516e+02
  -1.190014e+02   1.525372e+02
  -1.495780e+02  -2.043353e+01
  -8.934297e+01  -2.343570e+02
   1.058640e+02  -2.292771e+02
   2.984881e+02  -3.986935e+01
   2.771854e+02   1.254736e+02
   9.023042e+01   1.861422e+02
  -8.680816e+01   1.508213e+02
  -1.160613e+02   5.438222e+01
  -1.341004e+02   5.234662e+01
  -7.799313e+01   7.371797e+01
  -1.740019e+01   1.115968e+02
  -1.125743e+02   1.515618e+01
  -1.316298e+02  -1.864892e+02
  -5.951149e+01  -1.914474e+02
   6.231284e+01  -2.090545e+02
   1.420143e+02  -8.315662e+01
   1.374663e+02   1.205138e+02
   1.826086e+00   1.391457e+02
  -9.590982e+01   1.024411e+02
  -1.035318e+02  -2.801516e+01
   2.038010e+01  -8.636540e+01
   1.262882e+01  -7.122333e+01
   2.985186e+01  -5.508768e+01
  -2.659296e+01  -2.094431e+01
  -3.300976e+01   2.196902e+00
   4.418595e+01  -1.993629e+01
   1.736849e+02   2.530535e+01
   1.524878e+02   1.411779e+01
   1.386764e+01   7.471476e+01
  -1.434115e+02   7.767454e+01
  -1.593029e+02   1.338989e+01
  -4.022262e+01  -3.156622e+01
   6.308717e+01  -3.768765e+01
   6.281689e+01   1.532224e+01
   1.202359e+01   6.082518e+01
  -4.628065e+01   6.570410e+01
  -4.049672e+01  -1.175205e+01
  -4.734727e+01  -5.983364e+01
  -7.506448e+01  -2.548928e+01
  -3.331750e+01  -1.105543e+01
  -5.428237e+01  -1.159072e+01
  -4.688927e+01  -7.037859e+01
   4.252601e+01  -1.455463e+02
   8.690149e+01  -1.580125e+02
   1.578329e+02  -4.819895e+01
   1.277692e+02   6.060329e+01
  -3.686936e+01   1.169320e+02
  -1.060100e+02   8.375444e+01
  -7.609791e+01   1.160614e+01
   8.928352e+01  -4.874994e+01
   1.427302e+02   1.557499e+01
   6.926824e+01   1.418879e+02
  -1.539292e+01   1.527265e+02
  -1.887295e+02   8.778641e+01
  -1.647260e+02  -3.369923e+01
  -5.169137e+01  -9.699697e+01
   3.348776e+01  -8.900806e+01
   7.728831e+01  -6.904629e-01
  -9.909892e+00   6.050917e+01
  -7.555525e+01  -4.062798e+01
  -1.953765e+01  -1.286255e+02
   7.359987e+01  -1.411382e+02
   1.399979e+02  -4.285373e+01
   8.843432e+01   9.955973e+01
   3.490849e+01   1.710243e+02
  -6.158248e+01   1.049253e+02
  -8.673146e+01   4.448622e+00
  -5.128072e+01  -1.460990e+02
   6.168619e-01  -7.005485e+01
   9.507084e+01  -1.899678e+01
   7.496515e+01   6.327564e+01
  -2.124257e+01   1.391748e+01
  -2.508332e+01  -3.810159e+01
  -1.035324e+01  -1.199810e+01
   3.464673e+01   1.009447e+02
   2.856025e+01   7.895138e+01
  -1.017605e+01   5.273048e+01
  -1.245220e+02  -1.317347e+01
  -1.492312e+02  -1.051637e+02
  -2.369647e+01  -4.620532e+01
   9.181403e+01  -3.799409e+01
   7.482067e+01  -4.725927e+00
   5.711521e-01   4.570657e+00
  -4.693877e+01   2.856217e+01
  -4.051389e+01   4.871790e+01
   2.316878e+01  -2.838444e+01
  -1.356405e+01  -3.159868e+01
  -7.978778e+01   4.028845e+00
  -8.975865e+01  -7.640363e+01
  -3.974275e+01  -8.539529e+01
   1.294701e+02  -1.305321e+02
   2.202672e+02  -3.726001e+01
   1.631449e+02   4.365030e+01
   1.185699e+01   1.316217e+02
  -1.512438e+02   2.481020e+02
  -1.179562e+02   1.004870e+02
  -7.274620e+01  -2.418728e+01
  -9.574035e+00  -3.779610e+01
   3.682448e+01   1.501521e+00
   4.022670e-01   2.534790e+00
  -2.008946e+01  -3.223842e+01
  -1.190840e+01  -4.419881e+01
   1.949727e+01  -6.532137e+01
   3.435649e+01  -6.749627e+00
   3.812724e+01   1.233761e+02
   7.193266e+00   8.236676e+01
  -9.893177e+01   8.193703e+00
  -9.365220e+01  -6.888990e+01
  -3.973518e+01  -1.402255e+02
   8.838898e+01  -4.859422e+01
   8.175179e+01   3.341138e+01
   4.221274e+01   4.969643e+01
  -1.335873e+00   6.449837e+01
  -5.078924e+01   1.722739e+01
   3.137828e+01   1.194999e+01
   5.992484e+01   1.194529e+01
   1.872713e+01  -7.381222e+00
  -5.975623e+01   3.129412e+01
  -9.832635e+01   4.379414e+01
  -5.670793e+01   3.700796e+01
   3.910946e+01  -9.015639e+01
   5.614065e+01  -7.540193e+01
   9.247862e+00   1.787087e+01
   1.382008e+00   7.948176e+01
  -1.182092e+01   6.479492e+01
  -2.501953e+01  -1.052698e-01
  -3.689638e+01  -4.244978e+01
   2.297859e+01  -2.574400e+01
   1.143831e+01   1.256913e+01
   5.568481e+01   5.126533e+01
  -4.757285e+00  -3.481249e+01
   2.767116e+00  -5.978006e+01
   2.045703e+01  -2.306343e-01
  -1.943274e+01   6.480665e+01
   4.345174e+00   1.011750e+02
  -1.125548e+01   1.067242e+01
  -2.446575e+01  -6.603109e+00
   1.238140e+01  -7.267311e+01
  -3.073955e+00  -1.249347e+00
   9.011185e+01   7.488559e+01
   6.380542e+01   5.499750e+01
  -5.142254e+01   6.451461e+00
  -7.709978e+01  -1.411365e+01
  -5.419494e+01  -4.390747e+01
   3.672126e+01  -3.544830e+01
   7.589669e+01  -5.026912e+01
   2.207741e+01   5.978087e+00
  -1.006554e+02  -1.768348e+01
  -2.463104e+00  -4.712853e+01
   5.744055e+01  -2.817977e+01
   1.229958e+02  -2.764871e+01
