
 $NMID
 id='ANONYMOUS ', fmtdat='(2E16.6)'
 volume=1.0
 tramp=1.0
 $END
   2.568972e+03   3.355869e+02
   1.851073e+03   7.537127e+02
   2.563255e+02   1.474049e+03
  -7.571123e+02   1.363743e+03
  -9.524290e+02   4.525980e+02
  -3.886867e+02  -8.596248e+01
   1.674660e+02  -3.970415e+01
  -4.316991e+01   3.718422e+02
  -1.060796e+02   4.108572e+02
  -5.269405e+02   3.233766e+02
  -3.068389e+02  -2.104278e+02
  -2.112283e+02  -5.570449e+02
   1.717557e+02  -2.976049e+02
   2.493094e+02   2.555406e+02
   1.155231e+02   6.304291e+02
  -1.143822e+02   7.945433e+01
  -1.337866e+02  -5.792441e+02
  -2.935626e+01  -5.481932e+02
   3.246892e+02  -3.917383e+02
   3.268038e+02   1.618209e+02
   1.756247e+02   3.714659e+02
  -1.504689e+02   6.553193e+01
   1.402236e+01   1.307799e+02
   1.837515e+02   1.256175e+02
   2.411144e+02   2.687569e+02
   2.119716e+01   3.303550e+02
  -3.587415e+02  -1.989533e+01
  -4.843441e+02  -1.943152e+02
  -7.564941e+01  -3.063533e+02
   2.736788e+02  -8.799534e+01
   3.103169e+02   9.483933e+01
   1.599417e+01   1.981402e+02
  -3.565666e+02   3.897988e+02
  -4.509420e+02   1.976718e+02
  -2.761304e+02  -1.209079e+02
  -7.852246e+01  -2.355710e+02
   5.821727e+00  -2.184881e+02
  -7.259720e+01   6.906871e+00
  -1.269577e+02   3.684033e+01
  -7.766708e+01  -1.309832e+02
   9.038730e+01  -3.745278e+02
   1.910050e+02  -3.095315e+02
   1.327373e+02   7.947385e+01
   2.717775e+01   1.705167e+02
  -9.762870e+01   8.585471e+00
  -5.088973e+01  -2.924499e+02
   1.243823e+02  -3.779550e+02
   3.988394e+02  -2.684405e+01
   4.393401e+02   3.489713e+02
   1.847134e+02   4.398315e+02
  -2.005142e+02   2.696477e+02
  -4.786000e+02   1.099709e+01
  -3.645976e+02  -1.387031e+02
  -7.385280e+00  -1.563610e+02
   2.021368e+02  -1.106929e+02
   1.811573e+02  -7.057474e+01
   7.577097e+01  -6.084018e+01
   2.017837e-01  -3.689689e+01
   1.254615e+02  -3.209126e+01
   2.787389e+02   1.547168e+01
   1.354142e+02   1.590647e+02
  -1.331598e+02   2.813914e+02
  -3.407942e+02   1.729513e+02
  -3.195214e+02  -9.010894e+01
  -3.053388e+01  -2.721675e+02
   2.585065e+02  -3.277212e+02
   3.421681e+02  -9.632242e+01
   2.000071e+02   1.796211e+02
   1.546590e+01   3.166046e+02
  -1.294402e+01   2.477168e+02
   2.308929e+01   1.669880e+02
  -2.662462e+01   8.442890e+01
  -1.475608e+02   8.081756e+01
  -2.306107e+02   5.951766e+01
  -1.939181e+02  -9.387279e+01
  -2.912716e+01  -2.093631e+02
   6.670586e+01  -1.884654e+02
   1.326078e+02  -5.184519e+00
   8.624596e+01   2.086146e+02
  -6.414481e+01   2.177732e+02
  -2.097544e+02   3.807346e+01
  -2.212376e+02  -1.869557e+02
  -1.117557e+02  -2.658645e+02
   3.813211e+01  -2.134971e+02
   1.469613e+02  -1.593513e+02
   1.020357e+02  -1.110916e+02
   1.606537e+02  -1.193801e+02
   2.326571e+02  -6.451555e+01
   4.325640e+02   9.609419e+01
   3.151683e+02   3.055296e+02
   1.413366e+01   4.068327e+02
  -3.247243e+02   3.474720e+02
  -4.569145e+02   1.222616e+02
  -2.708641e+02  -1.068005e+02
  -3.040835e+01  -2.036984e+02
   6.148465e+01  -1.476167e+02
   2.115083e+01  -5.132892e+00
  -1.265738e+02   1.767243e+01
  -1.010826e+02  -5.814396e+01
   6.900995e+00  -1.428580e+02
   1.106573e+02  -1.094890e+02
   6.805202e+01   2.703628e+01
  -5.335075e+01   1.304114e+02
  -1.674949e+02  -4.601554e+00
  -1.105706e+02  -2.329234e+02
   7.401975e+01  -3.008631e+02
   2.240961e+02  -2.126590e+02
   3.810427e+02   8.501256e+01
   2.713213e+02   2.531884e+02
   3.984867e+01   2.813547e+02
  -1.332612e+02   1.546489e+02
  -1.808176e+02   6.984421e+01
  -2.994858e+01   3.477861e+01
   2.919360e+01   6.362472e+01
  -3.446152e+01   1.040269e+02
  -9.857208e+01   4.644800e+01
  -1.566891e+02  -1.898095e+01
  -8.237511e+01  -6.337793e+01
   5.755024e+01  -2.834170e+00
   3.757082e+01   1.385473e+02
  -1.327280e+02   5.820693e+01
  -2.510312e+02  -2.761266e+01
  -2.341722e+02  -1.818937e+02
   1.415316e+01  -2.494240e+02
   2.200822e+02  -1.804903e+02
   2.265696e+02  -4.494530e+01
   4.163626e+01   8.821229e+01
  -2.704775e+01   6.392800e+01
  -6.197303e+01  -2.868474e+01
   6.618234e+01  -1.049102e+02
   1.587153e+02  -3.225639e+01
   1.465958e+02   8.447886e+01
   3.870494e+01   1.355905e+02
  -9.327418e+01   1.045338e+02
  -6.451180e+01   1.707874e+01
  -1.721407e+01  -3.181760e+01
   8.956184e+01   7.333889e+01
   1.128446e+01   1.340918e+02
  -1.266414e+02   1.641170e+02
  -2.063196e+02   4.569017e+01
  -2.060671e+02  -1.642649e+02
  -4.170264e+01  -2.314125e+02
   1.664712e+02  -1.495451e+02
   1.818619e+02  -4.799710e+00
   7.564238e+01   1.485259e+02
  -5.954589e+01   6.321955e+01
  -1.046169e+02   2.526423e+01
  -3.142445e+01  -2.142299e+01
   2.675755e+01  -1.568469e+00
  -6.104012e+01   2.165667e+01
  -1.031358e+02  -7.988183e+00
  -1.013443e+02  -1.174542e+02
  -1.898420e+01  -2.056693e+02
   1.625176e+02  -1.637115e+02
   2.381768e+02  -1.088962e+01
   2.127095e+02   1.606319e+02
   3.082726e+01   2.180669e+02
  -1.020765e+02   1.558231e+02
  -1.233386e+02   8.928132e+01
  -6.093781e+01  -9.884415e+00
  -3.326703e+01  -1.785042e+01
  -3.996020e+01   2.230327e+01
  -6.806739e+01   4.582709e+01
  -9.890410e+01  -5.383909e+01
   1.869060e+01  -8.102567e+01
   1.067011e+02  -5.720084e+01
   5.334015e+01   1.765375e+01
  -2.163356e+01   1.209355e+02
  -1.209277e+02   6.350404e+01
  -2.138135e+02  -9.860904e+01
  -4.372327e+01  -2.246051e+02
   1.173694e+02  -1.937988e+02
   2.431707e+02  -7.635639e+01
   2.263923e+02   1.114523e+02
   1.119364e+02   1.581866e+02
  -2.113726e+01   1.041048e+02
  -3.740670e+01   8.497082e+01
  -5.648836e+01   5.342246e+01
  -5.838417e+01   5.476624e+01
  -4.825180e+01   5.635815e+01
  -1.217084e+02  -4.198355e+01
  -7.899392e+01  -1.244806e+02
  -3.041217e+01  -2.130504e+02
   1.472720e+02  -1.127300e+02
   1.992181e+02   3.032344e+00
   1.479095e+02   1.429252e+02
  -3.154400e+01   1.349041e+02
  -7.184168e+01   5.869094e+01
  -1.019942e+02   1.244832e+01
  -3.639662e+01  -1.233203e+02
   4.060976e+01  -4.656727e+01
   1.036615e+01  -2.740030e+01
  -5.473587e+01  -3.535884e+01
   7.442622e+00  -3.520507e+01
   1.014449e+02  -4.681970e+01
   1.358041e+02  -2.547104e+00
   1.116957e+02   7.513751e+01
  -1.567429e+01   9.188969e+01
  -1.175693e+02   6.564641e+01
  -1.029513e+02   1.254490e+00
  -5.124775e+01  -7.531268e+01
   7.309545e+01  -4.191494e+01
   7.026498e+01   9.569417e+00
   7.629871e+01   5.206835e+01
  -3.807737e+01   5.098771e+01
  -8.147893e+01   1.618681e+01
  -5.728427e+01   1.299487e+01
  -5.642429e+01  -2.513903e+01
  -4.600513e+01  -2.394265e+01
  -4.349100e+01  -2.776572e+01
  -5.532748e+01  -8.744626e+01
   5.243682e+01  -1.585807e+02
   1.530549e+02  -1.220307e+02
   1.874614e+02   1.022373e+01
   1.490565e+02   1.339742e+02
  -1.798555e+01   1.242734e+02
  -1.127321e+02   6.906937e+01
  -6.370636e+01  -2.871571e+01
   5.173171e+01  -1.901937e+01
   1.327876e+02  -1.257587e+01
   4.224519e+01   1.271238e+02
  -8.899227e+01   1.298603e+02
  -1.598833e+02   4.549462e+01
  -1.218202e+02  -2.953320e+01
   2.656952e+01  -7.207622e+01
   6.421043e+01  -4.858320e+01
   6.207304e+01  -1.129964e+00
  -5.032515e+01   3.101954e+01
  -1.147081e+02   2.491078e+01
  -7.285197e+01  -1.159264e+02
   3.979058e+01  -1.864199e+02
   1.300608e+02  -2.334605e+01
   1.685837e+02   4.856153e+01
   4.938320e+01   1.777872e+02
  -6.611760e+01   1.144289e+02
  -1.258850e+02  -3.081900e+01
  -4.418484e+01  -1.266558e+02
   6.067675e+01  -8.332354e+01
   8.427998e+01  -2.781925e+01
   2.729516e+01   6.301814e+01
   3.298830e+00   2.330548e+01
   5.291041e+00   1.295395e+01
   3.508290e+00   1.579224e+01
   6.584233e+01   7.621137e+01
   4.043324e+00   1.160602e+02
  -4.390159e+01   4.725226e+01
  -8.210569e+01  -2.602600e+00
  -8.774729e+01  -8.362961e+01
  -1.823705e+01  -5.592683e+01
   8.097694e+01  -1.900164e+01
   8.576636e+01  -6.878988e+00
   3.105118e+01   2.285290e+01
   3.127246e+00   6.600633e+01
  -1.822689e+01   2.507172e+01
   3.984383e+01   4.564854e+01
  -3.043514e+01   9.624063e-01
  -6.329497e+01  -2.721712e+00
  -9.703049e+01   3.174740e+00
  -2.545064e+01  -9.372522e+01
   1.246627e+02  -1.223257e+02
   1.454626e+02  -4.559787e+01
   1.601856e+02   6.098156e+01
   4.629158e+01   1.567535e+02
  -4.891847e+01   1.479548e+02
  -1.299644e+02   6.119120e+01
  -6.514742e+01   3.576419e+00
  -6.141669e+01  -3.871685e+00
  -2.444252e+01  -3.741878e+01
  -2.681821e+01   1.930395e+01
  -6.255355e+01  -5.359279e+01
  -7.409091e+00  -9.883899e+01
  -5.218721e+00  -9.108146e+01
   1.665589e+01  -1.479770e+01
   5.348819e+01   2.939861e+01
  -1.318145e+00   8.310829e+01
  -4.501502e+01   1.298695e+01
  -6.958727e+01  -5.978037e+01
  -5.560233e+01  -8.368144e+01
   6.601135e+01  -5.879376e+01
   6.316970e+01  -2.962979e+01
   6.164084e+01   6.209172e+01
   2.282552e+01   4.369238e+01
  -4.433088e+01   2.667867e+01
   1.169767e+01   7.051200e+00
   7.724017e+01   1.697320e+01
   4.365044e+00   4.942987e+01
  -9.591740e+01   4.980966e+01
  -1.274913e+02   1.915300e+01
  -4.585641e+01  -8.417284e+00
  -2.136782e+00  -7.426460e+01
   2.754386e+01  -4.837775e+01
   6.065450e+01   2.143143e+01
  -1.218054e+01   3.416606e+01
  -2.740407e+01   1.446356e+01
  -3.180182e+01  -2.379137e+01
  -1.293266e+01  -2.333029e+01
   1.279292e+01  -3.537761e+01
   3.541969e+01  -2.221838e+01
   4.540225e+01   2.224597e+01
  -8.365695e+00   1.120901e+01
  -2.733538e+01  -1.264610e+01
   2.511906e+01  -3.669807e+01
   2.213262e+01   3.074844e+01
   3.539037e+01   3.222305e+01
  -2.875647e+01   2.585601e+00
  -8.183846e+01  -5.576371e+01
   4.213476e+00  -2.241130e+01
   4.466233e+01  -3.839686e+01
   6.682862e+01   2.715622e+01
   3.144551e+01   5.140631e+01
  -5.068702e+01   1.735191e+01
  -3.893959e+01   1.090203e+01
  -4.462044e+01  -1.352987e+01
   3.053583e+01   1.317373e+01
   2.064033e+01  -3.054556e+01
  -2.648458e+00   5.958673e+00
  -1.726497e+01  -3.366353e+01
  -1.626272e+01  -1.112352e+01
  -7.051138e+00  -1.132439e+01
   7.351364e+01   2.137725e+00
