
 $NMID
 id='ANONYMOUS ', fmtdat='(2E16.6)'
 volume=1.0
 tramp=1.0
 $END
   2.268951e+03   7.238287e+01
   1.867397e+03   9.207434e+02
   3.116712e+02   1.373273e+03
  -1.066631e+03   1.189156e+03
  -8.326442e+02   3.186270e+02
  -2.187700e+01  -1.053089e+02
   3.326432e+02  -4.412032e+01
   9.204543e+01   4.182694e+02
  -2.770268e+02   3.895575e+02
  -4.005951e+02   1.295067e+01
  -3.476748e+02  -3.084094e+02
  -9.278067e+01  -3.894248e+02
   1.029509e+02  -2.404598e+02
   3.186343e+02   1.527994e+02
  -9.815186e+01   2.281902e+02
  -4.921134e+02  -3.300542e+01
  -4.043856e+02  -2.218774e+02
  -7.438005e+01  -3.489515e+02
   2.015785e+02  -2.388197e+02
   2.695117e+02   1.646814e+02
   2.037676e+02   2.531789e+02
  -1.296046e+02   8.872740e+01
   4.845159e+00   4.558233e+01
   1.358123e+02   1.906215e+02
   3.315678e+02   3.173135e+02
  -5.263579e+01   2.314992e+02
  -3.625669e+02   1.175002e+02
  -6.109723e+02  -7.500972e+01
  -4.440793e+01  -2.482033e+02
   2.309720e+02  -1.593891e+02
   4.967606e+02   1.141629e+02
   7.824314e+01   3.363433e+02
  -1.922458e+02   3.299871e+02
  -2.235780e+02   1.101560e+02
  -3.216053e+02  -2.295517e+02
  -3.550244e+01  -2.672064e+02
  -6.538697e+01  -2.139912e+02
  -5.808636e+01   1.042900e+02
  -1.428555e+02   1.978980e+02
  -1.108774e+02  -8.572338e+01
  -3.619048e+01  -3.792939e+02
   1.808291e+02  -2.804962e+02
   1.827563e+02   5.246450e+01
   1.218563e+02   1.910371e+02
  -6.680314e+01   4.037407e+01
  -1.332481e+02  -2.184761e+02
   5.738001e+01  -2.717080e+02
   3.018483e+02   5.171533e+00
   3.427708e+02   3.255305e+02
   1.557319e+02   4.054373e+02
  -1.791666e+02   1.524462e+02
  -3.980704e+02  -6.646081e+01
  -2.524023e+02  -1.866877e+02
   3.481839e+01  -1.570270e+02
   1.927367e+02  -7.849765e+01
   1.779849e+02  -3.462051e+01
   1.475236e+01   3.077725e+01
  -3.564075e+01  -9.906029e+00
   8.821909e+01  -6.032305e+00
   1.554360e+02   3.502259e+01
   9.690268e+01   1.400085e+02
  -8.989573e+01   2.035305e+02
  -3.230399e+02   9.747633e+01
  -2.410080e+02  -3.840778e+01
   3.259908e+00  -2.837621e+02
   1.905081e+02  -3.472149e+02
   3.024084e+02  -1.063444e+02
   2.108678e+02   9.051745e+01
   4.794039e+01   2.357380e+02
   5.469348e+00   2.437711e+02
   1.613294e+01   1.615425e+02
  -1.951271e+01   1.452122e+02
  -1.090892e+02   1.000785e+02
  -1.978049e+02   4.110025e+01
  -1.787486e+02  -5.093902e+01
  -1.345596e+01  -1.210261e+02
   9.353609e+01  -1.091836e+02
   1.248377e+02   6.374279e+01
   6.166829e+01   2.146789e+02
  -8.787685e+01   1.792093e+02
  -2.081073e+02   2.179131e+01
  -2.115420e+02  -1.244283e+02
  -1.185826e+02  -1.632983e+02
   1.218979e+01  -1.611788e+02
   8.525877e+01  -1.372729e+02
   1.434275e+02  -1.137845e+02
   1.068506e+02  -8.488860e+01
   2.119924e+02  -2.621659e+01
   3.701080e+02   1.427094e+02
   2.219776e+02   2.558726e+02
  -1.867887e+01   3.378312e+02
  -3.466059e+02   3.664645e+02
  -4.193309e+02   1.472174e+02
  -2.530876e+02  -1.058996e+02
  -1.156699e+02  -1.921949e+02
   6.332011e+01  -1.703125e+02
   8.149637e+00  -7.523099e+01
  -9.535106e+01   2.341633e+01
  -1.121847e+02   2.391972e+01
  -3.099669e+01  -6.832299e+01
   8.894113e+01  -6.907713e+01
   6.750148e+01  -1.031771e+01
  -3.788446e+01   7.094677e+01
  -1.375725e+02   4.038547e+00
  -1.425731e+02  -1.610901e+02
   5.730949e+00  -2.917949e+02
   1.768968e+02  -2.182618e+02
   2.987453e+02   6.711852e+00
   2.311621e+02   1.994666e+02
   3.252327e+01   2.179746e+02
  -7.591402e+01   1.045418e+02
  -1.391170e+02  -9.966718e+00
  -1.967006e+01  -3.070903e+01
   9.024841e+01   7.125840e+01
  -1.540382e+01   8.035403e+01
  -9.538925e+01   6.409339e+01
  -7.627018e+01   5.547073e+01
  -7.215344e+01  -2.669065e+01
   5.901674e+01   3.183401e+01
  -7.777498e+00   8.497077e+01
  -1.794358e+02   8.162152e+01
  -2.886347e+02  -3.137746e+01
  -2.059970e+02  -1.584276e+02
   1.770444e+01  -2.471371e+02
   1.879982e+02  -2.127688e+02
   2.188882e+02  -1.145096e+02
   1.386556e+02   2.235690e+01
  -3.879579e+01   7.229568e+01
  -6.087903e+00  -9.280060e+00
   4.897613e+01  -7.259745e+01
   1.421820e+02  -4.003928e+00
   1.378720e+02   9.991537e+01
  -7.398846e+00   1.213056e+02
  -5.905371e+01   1.689600e+02
  -1.383769e+02  -4.427487e+00
  -6.213045e+01  -3.098215e+01
   6.752140e+00   3.015399e+00
   2.215380e+01   9.717333e+01
  -6.534491e+01   8.811702e+01
  -1.957709e+02   1.965632e+01
  -1.577361e+02  -1.557990e+02
   1.500319e+01  -1.933782e+02
   1.392872e+02  -1.007359e+02
   1.338793e+02   8.025423e+00
   3.039709e+01   5.724786e+01
  -4.733108e+01   4.594531e+01
  -5.241076e+01  -1.648281e+00
   2.271284e+00  -1.156410e+01
   2.892921e+01   1.638824e+00
   4.499569e+00   4.566099e+01
  -3.555412e+01   7.939790e+00
  -1.249484e+02  -7.669017e+01
  -1.344399e+01  -1.201036e+02
   1.007365e+02  -1.178429e+02
   2.032930e+02  -2.532610e+01
   1.424929e+02   1.420326e+02
   4.427686e+01   1.900322e+02
  -5.806278e+01   9.134453e+01
  -1.132703e+02   3.595674e+01
  -6.643299e+01  -3.024219e+01
  -4.943955e+01  -3.448194e+01
  -4.330274e+01  -3.829378e+00
  -1.316064e+02   2.067069e+01
  -5.125104e+01  -8.639925e+01
   4.279110e+01  -7.986370e+01
   1.351918e+02  -5.040129e+01
   1.055159e+02   7.321362e+00
  -4.297449e+01   1.259808e+02
  -1.286776e+02   7.554673e+01
  -1.021237e+02  -1.986716e+01
  -4.986170e+01  -1.910935e+02
   1.171235e+02  -1.962415e+02
   2.022673e+02  -9.267802e+01
   2.449208e+02   6.904656e+01
   7.289748e+01   1.522801e+02
  -3.275702e+01   1.308648e+02
  -4.839052e+01   9.194025e+01
  -3.096796e+01   9.418443e+01
  -5.338965e+01   6.631265e+01
  -1.357319e+02   5.201775e+01
  -1.413452e+02  -7.483497e+00
  -1.153071e+02  -1.136810e+02
  -1.416409e+01  -1.675049e+02
   9.127463e+01  -1.400827e+02
   8.206548e+01   1.824066e+01
   7.982708e+01   1.000005e+02
  -2.629759e+01   1.185671e+02
  -9.061833e+01   1.196209e+01
  -2.219115e+01  -2.683088e+01
   2.260628e+01  -7.450535e+01
   5.693320e+01   2.232223e+00
  -2.880331e+01   1.721079e+01
  -5.644682e+01  -9.446215e+00
  -6.066650e+01  -2.847291e+01
   9.817270e+01  -1.841596e+01
   1.682292e+02  -3.862780e+01
   6.687945e+01   6.323153e+01
  -1.676668e+00   8.516316e+01
  -9.846781e+01   8.537715e+01
  -6.658840e+01  -2.110688e+01
  -3.990248e+01  -2.034530e+00
   5.057580e+01  -4.273262e+01
   7.747624e+01   5.026376e+01
  -1.163916e+01   1.181030e+02
  -5.363884e+01   5.094598e+01
  -8.294352e+01   3.097706e+00
  -6.157441e+01  -5.952122e+01
  -6.644545e+00  -1.052032e+01
  -4.014347e+01  -3.209055e+01
  -6.168274e+01   4.833259e+01
  -6.108193e+01  -4.724703e+01
   4.599658e+01  -1.464023e+02
   1.136877e+02  -1.278686e+02
   1.790564e+02  -5.216367e+01
   1.396698e+02   6.600928e+01
   7.908076e+00   8.659199e+01
  -4.449172e+01   7.298470e+01
  -4.480698e+01  -1.866608e+01
   7.190922e+01  -3.627821e+01
   8.306304e+01   4.412344e+01
   7.950408e+00   9.794412e+01
  -1.003817e+02   6.818953e+01
  -1.649389e+02   5.803844e+01
  -8.712923e+01  -6.428399e+00
  -2.462849e+01  -4.840763e+01
   3.973857e+01  -5.740487e+01
   5.378843e+01   6.470791e+00
  -3.001033e+01   3.434861e+01
  -6.765418e+01   4.394000e+01
  -1.482126e+01  -7.094272e+01
   5.930765e+01  -7.829927e+01
   1.068226e+02  -4.477810e+01
   4.637465e+01   4.776562e+01
  -2.355213e+01   1.338500e+02
  -7.099296e+01   1.044039e+02
  -5.651327e+01  -2.455504e+01
  -7.629901e+01  -8.085488e+01
  -1.589114e+01  -9.599979e+01
   3.375007e+01   1.998196e+01
   4.195367e+01   1.290123e+01
   1.591668e+01   3.183877e+01
   1.538700e+01  -2.822937e+01
   5.327984e+01   1.496438e+01
   9.692818e+01   9.693378e+01
   5.053343e+01   8.846137e+01
  -6.297818e+01   1.198443e+02
  -1.541466e+02  -3.502522e+01
  -9.474823e+01  -4.768152e+01
   2.943566e+01  -4.278510e+01
   8.809406e+01  -5.022043e+01
   2.304611e+01  -1.543907e+00
   4.734135e+01   4.014520e+01
  -3.625032e+01   2.260298e+01
  -6.829356e+01   1.737269e+01
   2.430111e+01   5.390913e-01
  -4.823201e+01  -3.386396e+00
  -5.117700e+01  -1.135356e+01
  -7.294434e+01  -6.192614e+01
  -5.362189e+01  -6.413642e+01
   7.864059e+01  -8.591995e+01
   1.664019e+02  -1.691898e+01
   1.419341e+02   6.481463e+01
  -8.706962e+00   1.221239e+02
  -6.141395e+01   9.969090e+01
  -8.142048e+01   3.537204e+01
  -9.204477e+01  -4.983310e+01
   9.927485e-01  -6.600706e+01
  -2.057613e+01  -8.610938e+00
  -6.564115e+00   3.668967e+01
  -6.159217e+01  -2.580402e+01
   9.949197e+00  -3.830996e+01
   2.061311e+01  -4.570087e+01
   2.495660e+01   2.639126e+01
   6.297755e+01   7.069769e+01
   2.602408e+01   1.286350e+02
  -2.378626e+01   2.151280e+01
  -6.664064e+01  -6.879775e+01
  -5.215404e+01  -8.576883e+01
   6.483129e+01  -4.460367e+01
   9.340198e+01   1.274263e+01
   5.953797e+01   2.467244e+01
  -2.294878e+01   6.871996e+01
  -3.115520e+01  -1.220157e+00
   1.096253e+01   6.123040e+00
   3.158612e+01  -2.864580e+01
   3.521936e+01   1.449249e+01
  -6.989284e+01   6.164093e+01
  -1.000160e+02   2.828779e+01
  -5.194370e+01  -4.354181e+01
   1.576124e+01  -5.106359e+01
   2.615554e+01  -2.796849e+01
   2.430871e+01   2.383012e+01
   4.405084e+00   5.274029e+01
  -3.154977e+01   4.664144e+01
  -7.856995e-01  -2.750889e+01
  -5.107693e+01  -4.233096e+01
   7.212922e+01  -5.749703e+00
   6.879374e+01   6.873423e+00
   3.168241e+01   2.410701e+01
   3.279836e+01   4.392416e+01
  -1.585740e+01  -2.486562e+01
  -1.471512e+01   1.513284e+01
  -5.659188e+01   1.054691e+01
   7.441596e-01   5.934114e+01
   6.013334e+00   5.169220e+01
   7.419571e+00  -7.856549e+00
  -5.284336e+01  -4.039674e+01
  -1.733678e+01  -8.918127e+00
   6.963820e+01   2.814777e+01
   5.039874e+01   9.204417e+01
  -3.884164e+01   8.029331e+01
  -1.008453e+02  -1.031956e+01
  -5.597981e+01  -2.490864e+01
   2.284542e+01  -4.261213e+01
   2.868928e+00   2.849098e+00
   2.247464e+01  -1.665458e+01
  -5.130731e+01  -4.931564e+01
  -1.337006e+01  -2.816515e+01
  -1.724827e+01  -4.193896e+00
   8.839531e+01  -3.871363e+01
