
 $NMID
 id='ANONYMOUS ', fmtdat='(2E16.6)'
 volume=1.0
 tramp=1.0
 $END
  -4.736698e+03  -1.188581e+02
  -2.700428e+03  -2.634618e+03
   8.923577e+02  -2.961408e+03
   2.297768e+03  -9.000476e+02
   1.090035e+03   6.003952e+02
  -6.941349e+02   6.186376e+02
  -1.011842e+03  -3.311824e+02
   2.645150e+01  -1.145842e+03
   6.782421e+02  -9.464266e+02
   9.676626e+02  -1.131578e+01
   4.899689e+02   1.079059e+03
  -1.421791e+02   9.603981e+02
  -6.933848e+02   1.721802e+02
  -2.796004e+02  -8.467548e+02
   1.225422e+02  -9.840653e+02
   7.075137e+02   6.480838e+00
   3.697124e+02   1.147008e+03
  -5.337410e+02   4.745789e+02
  -4.909982e+02  -3.803078e+01
  -2.505876e+02  -4.252474e+02
   1.500548e+02  -6.510262e+02
   1.052936e+02  -2.343410e+02
   2.949091e+02   6.747480e+01
  -8.320207e+01   1.677862e+02
  -3.847773e+02  -6.981197e+01
  -1.414491e+02  -6.388037e+02
   6.283928e+02  -5.366217e+02
   9.037137e+02   5.123345e+01
   4.762030e+02   4.715049e+02
  -2.974929e+02   6.118874e+02
  -7.999435e+02   7.230346e+01
  -3.865523e+02  -3.941082e+02
   3.184183e+02  -5.923861e+02
   5.765371e+02  -2.302527e+02
   5.212313e+02   1.496518e+02
  -3.431414e+00   5.447009e+02
  -2.336714e+02   3.349498e+02
  -1.862661e+02  -2.463772e+02
   1.935229e+02  -4.563444e+02
   5.520320e+02  -5.176838e+01
   3.027871e+02   6.900690e+02
  -3.369441e+02   6.990071e+02
  -6.938291e+02  -2.391631e+01
  -2.020802e+02  -5.684539e+02
   4.075040e+02  -3.588649e+02
   5.055730e+02   3.381563e+02
  -8.502737e+01   6.187829e+02
  -6.201334e+02   1.257063e+02
  -6.019648e+02  -4.699472e+02
  -1.152484e+02  -6.223111e+02
   4.960385e+02  -3.220809e+02
   6.703840e+02   1.606999e+02
   3.153356e+02   4.835910e+02
  -2.739158e+02   4.168376e+02
  -5.375043e+02  -7.029803e+00
  -2.666308e+02  -2.793434e+02
   1.960094e+02  -1.655009e+02
   2.403943e+02   2.006613e+02
  -1.736215e+02   2.198376e+02
  -3.750945e+02  -7.834141e+01
  -1.134548e+02  -3.750141e+02
   2.392059e+02  -2.822278e+02
   3.579067e+02  -6.895312e+01
   1.877743e+02   1.435593e+02
   2.143695e+01   2.395859e+02
  -2.072066e+02   2.947253e+02
  -3.628251e+02   1.819440e+02
  -3.375438e+02  -1.564198e+02
  -6.271040e+01  -4.467273e+02
   1.869308e+02  -3.852439e+02
   1.414069e+02  -9.309516e+01
  -9.776096e+00   4.098227e+01
  -5.542786e+01  -1.219278e+02
   1.672576e+02  -1.845234e+02
   2.979941e+02  -1.568212e+01
   2.446367e+02   2.797873e+02
  -3.174486e+01   2.684204e+02
  -2.380779e+02  -2.372366e+01
  -1.804739e+02  -2.552781e+02
   1.873202e+01  -2.909154e+02
   3.228981e+02  -1.130325e+02
   3.290959e+02   1.620478e+02
   1.569419e+02   3.228783e+02
  -1.320999e+02   3.176482e+02
  -2.970104e+02   7.467350e+01
  -1.277132e+02  -6.990722e+01
  -5.751499e+01  -5.406303e+01
  -1.988290e+02   7.000577e+01
  -4.096164e+02  -2.984996e+01
  -3.375925e+02  -3.229227e+02
  -9.476674e+00  -4.715046e+02
   3.834118e+02  -4.259675e+02
   5.251972e+02  -2.281089e+02
   3.815238e+02   7.942859e+01
   2.584762e+01   3.194654e+02
  -9.988406e+01   2.651119e+02
  -1.324679e+02  -3.852903e+01
   1.166414e+02  -1.167077e+02
   2.336730e+02   2.869243e+01
   8.530446e+01   1.793446e+02
  -1.392520e+02   1.697797e+02
  -1.409258e+02  -7.461220e+01
   1.702021e+01  -1.670456e+02
   1.762966e+02  -3.874482e+01
   1.403885e+02   2.387622e+02
  -8.437154e+00   3.046566e+02
  -2.197324e+02   2.385985e+02
  -2.815761e+02  -2.905957e+01
  -2.819420e+02  -1.982377e+02
  -1.537022e+02  -3.000569e+02
   6.360762e+01  -1.950056e+02
   1.358170e+02  -4.408332e+01
   5.840019e+01   5.713845e+01
  -4.793392e+01   6.736775e-01
   1.842692e+01  -1.254786e+02
   1.308062e+02  -9.261393e+01
   2.580568e+02   4.927059e+01
   3.540741e+01   6.596406e+01
  -6.746417e+01  -5.713663e+00
  -1.789831e+01  -5.445006e+01
   1.676562e+02  -6.365036e+01
   2.658340e+02   4.658606e+01
   2.747543e+02   1.598225e+02
   3.303725e+01   2.810071e+02
  -2.063821e+02   2.563526e+02
  -2.894547e+02   7.542451e+01
  -1.353723e+02  -6.532724e+01
   9.269592e+00  -9.505736e+01
   8.036358e+01   1.674194e+01
  -6.318191e+01   1.053307e+02
  -1.970793e+02   2.579912e+01
  -1.873653e+02  -9.914909e+01
  -5.093764e+01  -1.821268e+02
   1.047385e+02  -1.645874e+02
   1.465779e+02  -5.042726e+01
   7.317560e+01   6.909439e+01
  -8.458580e-02   6.892791e+00
  -2.287478e+01  -6.909287e+01
   6.010368e+01  -1.632302e+02
   1.979966e+02  -2.405151e+01
   2.228115e+02   1.419884e+02
   2.620718e+01   2.590049e+02
  -1.855881e+02   1.839260e+02
  -2.105403e+02  -1.586194e+00
  -1.002222e+02  -1.392528e+02
   6.435451e+01  -9.168378e+01
   4.203319e+01  -7.763310e+01
  -1.465382e+01   4.684907e+01
  -5.508313e+01   4.133367e+01
   3.141983e+01  -6.857623e+00
   6.020218e+01   2.452442e+01
   1.051311e+02   5.153246e+01
   3.486312e+01   1.135556e+02
  -1.441778e+02   1.051947e+02
  -2.892128e+02   3.870395e+00
  -2.237629e+02  -1.527151e+02
  -3.981737e+01  -1.747225e+02
   1.592758e+02  -2.055989e+02
   1.347081e+02  -1.225044e+01
   1.765515e+01   8.193757e+01
  -6.420632e+00   3.977176e+01
   3.751792e+01  -4.613607e+01
   4.266524e+01  -2.938471e+01
   4.564363e+01   5.218171e+01
   1.189236e+01   2.358607e+01
  -1.349606e+02   5.438019e+01
  -5.034866e+01  -2.521090e+01
   1.171282e+01  -9.742632e+01
   1.210721e+02  -8.100459e+01
   2.131880e+02   4.783896e+01
   1.185675e+02   1.873050e+02
  -1.363780e+02   2.316412e+02
  -2.391174e+02   1.164332e+02
  -2.420859e+02  -1.057697e+02
  -9.990692e+01  -1.652413e+02
   5.863879e+01  -1.590099e+02
   1.358536e+02  -1.103419e+02
   1.160544e+02  -6.547434e+01
   1.571209e+01  -1.037322e+02
   7.192607e+01  -1.218939e+02
   1.282451e+02   8.138518e-01
   1.086882e+02   1.319308e+02
   2.003764e+01   2.145142e+02
  -1.054938e+02   1.782895e+02
  -1.981548e+02   3.165312e+01
  -1.782572e+02  -1.426705e+02
  -2.958288e+01  -1.772651e+02
   9.058254e+01  -9.693695e+01
   5.162164e+01  -2.698262e+01
  -8.614466e+00   9.843420e+01
  -1.352328e+01   3.162086e+01
  -1.849181e+01  -2.466043e+00
   7.321199e+01   1.891175e+01
   3.605856e+01   1.011797e+01
  -4.886022e+01   1.316551e+01
  -1.136238e+02   3.070080e+00
  -1.279452e+02  -5.127913e+01
  -4.915050e+01  -8.552490e+01
   9.900754e+01  -6.075178e+01
   1.224897e+02  -1.025062e+01
   7.129547e+01   5.048174e+01
  -1.834349e+01   5.540292e+01
  -8.648935e+01  -6.623920e+01
   1.382804e+01  -6.134961e+01
   2.206692e+01   5.121955e+00
   8.539743e+01   4.595458e+01
   5.754115e+01   5.342467e+01
   6.274109e+01   7.888968e+01
   7.920713e+01   1.341665e+01
   8.845617e+01  -2.985886e+01
  -8.119555e+00   6.146116e+01
  -4.702919e+01   1.122137e+02
  -1.572049e+02   1.754563e+02
  -1.051414e+02   2.236918e+01
  -1.487307e+02  -8.422565e+01
  -4.996518e+01  -8.627703e+01
   1.087408e+02  -6.427192e+01
   4.203101e+01   1.674396e+01
  -4.321990e+01   2.171405e+01
  -1.534696e+02  -3.898264e+01
  -1.013911e+02  -1.177483e+02
   2.707554e+01  -1.194091e+02
   2.326484e+02  -6.553545e+01
   1.885811e+02   9.892059e+00
   3.841072e+01   8.135731e+01
  -4.049946e+01   8.991819e+01
  -6.580233e+01  -5.548210e+00
  -2.667688e+01  -1.069911e+01
   3.831733e+01   3.978023e+01
   1.542499e+01   7.546680e+01
  -9.383543e+01   1.706225e+02
  -7.375391e+01   6.177404e+01
  -9.485134e+01  -1.072842e+02
  -4.365625e+01  -1.714187e+02
   6.581521e+01  -1.260070e+02
   7.246141e+01   1.476589e+01
   4.213872e+01   1.028147e+02
   4.742061e+01   5.960013e+01
  -3.038639e+01   2.375221e+01
  -5.827172e+01  -4.663683e+00
  -3.160143e+01  -2.364748e+01
  -3.441942e+01   4.357007e+01
  -2.368265e+01  -2.104699e+01
  -6.207390e+01  -5.331900e+01
  -1.975060e+01  -6.113417e+01
   7.470386e+01  -3.036388e+01
   1.529277e+02   2.583676e+01
   9.879235e+01   2.354275e+01
   1.505851e+01   7.672607e+00
  -8.594022e+01  -4.872561e+00
  -1.111991e+02   1.727377e+01
  -1.012361e+01   1.535164e+00
   7.168943e+01   2.359793e+01
   1.219305e+01  -2.298422e+01
  -3.024070e+01  -5.185446e+00
   5.824190e+00  -1.948080e+01
   4.643224e+01  -1.920114e+01
   7.961151e+01   5.233783e+01
   1.554413e+01   4.957183e+01
  -9.270640e+01   1.233016e+02
  -1.735174e+02   9.162105e+01
  -1.283756e+02  -7.033073e+01
  -3.521492e+01  -1.594940e+02
   4.723232e+01  -1.628777e+02
   1.022080e+02  -5.315020e+01
   1.043508e+02   1.547772e+01
   1.200113e+01   1.301341e+01
  -5.665540e+00   2.324398e+00
   3.430240e+01   5.143357e+01
   3.282333e+01   5.333210e+01
   4.031899e+01   1.094380e+02
  -3.112836e+01   6.277033e+01
  -7.017891e+01  -4.774299e+01
  -3.261320e+01  -1.325105e+02
   4.217086e+01  -3.685466e+01
   8.535124e+01   3.458238e+01
   8.502403e+01   1.054969e+02
   3.950828e+01   1.066033e+02
  -1.329620e+01   1.530059e+01
  -6.922980e+01  -5.731857e+01
  -3.428921e+01  -1.579242e+01
   4.351787e+01  -4.864570e+01
   2.478357e+00  -5.221068e+01
  -5.149174e+01  -1.582533e+01
  -2.561352e+01   1.669343e+01
  -3.028500e+00  -4.346733e+01
   8.082835e+01  -1.656886e+01
   9.227993e+01  -7.327371e+01
   6.569760e+01  -9.533959e+00
   6.552307e+00   6.369258e+01
  -4.780941e+01   6.171955e+01
  -4.142347e+01   3.735003e+01
   2.952524e+01  -2.033564e+01
   4.612398e+01  -4.019475e+01
  -5.569973e+00   1.351715e+00
   4.126639e+01   2.303896e+01
  -1.464807e+01  -1.494488e+00
  -9.575123e+01  -2.030935e+00
  -2.644467e+01   1.036244e+01
   2.384588e+01  -2.257855e+00
  -3.055032e+01   5.941628e+01
  -1.115653e+01  -1.126295e+01
   5.263849e+01  -2.024647e+01
  -4.997285e+01  -5.360216e+01
   4.058385e+01  -8.124958e+00
  -6.744138e+00   5.608787e+01
  -1.105103e+01   8.335022e+01
  -3.065222e+01   3.616075e+01
  -4.308592e+01  -4.051725e+00
  -3.377291e+01  -7.732070e+01
   6.333882e+01  -5.430195e+01
   4.659870e+01   1.052160e+01
   1.912768e+01   1.697055e+01
  -9.604099e+00   1.806689e+01
  -5.940794e+01  -9.953463e+00
   1.135175e+01   1.153707e+01
   1.074442e+01   5.663207e+01
   5.877827e+01  -2.218877e+01
  -3.484021e+01   1.221643e+01
  -8.989062e+01   4.440335e+01
