
 $NMID
 id='ANONYMOUS ', fmtdat='(2E16.6)'
 volume=1.0
 tramp=1.0
 $END
   4.541618e+03   3.870196e+02
   2.762571e+03   2.263353e+03
  -7.110447e+02   2.683781e+03
  -2.014551e+03   9.638122e+02
  -8.663315e+02  -4.269065e+02
   6.761252e+02  -5.254251e+02
   9.741596e+02   3.052585e+02
  -3.981972e+01   9.027928e+02
  -8.117700e+02   8.750921e+02
  -1.017568e+03   7.079030e+01
  -5.445818e+02  -8.695688e+02
   1.317326e+02  -9.204017e+02
   7.143044e+02   2.203398e+01
   4.149550e+02   6.481842e+02
  -1.192566e+02   1.005452e+03
  -7.891240e+02   5.385271e+01
  -2.390901e+02  -7.347540e+02
   5.525553e+02  -7.607754e+02
   6.945101e+02   1.179094e+02
   5.218126e+02   2.477276e+02
  -3.104652e+01   3.664389e+02
  -2.110749e+02   4.001479e+02
  -1.257263e+02   4.871546e+01
   1.230288e+02   6.654734e+01
   4.850741e+02   1.983561e+02
   1.472733e+02   3.155585e+02
  -3.157116e+02   1.738198e+02
  -7.784760e+02  -1.072605e+02
  -4.996147e+02  -6.611932e+02
   2.744060e+02  -5.187928e+02
   8.246817e+02   2.229253e+01
   4.177671e+02   5.935125e+02
  -2.925908e+02   4.424306e+02
  -5.862439e+02   2.112874e+02
  -5.137328e+02  -2.269606e+02
  -1.334775e+02  -4.139351e+02
   2.711992e+02  -1.915996e+02
   2.307959e+02   2.643172e+02
  -1.796438e+02   4.054657e+02
  -4.287473e+02  -7.751675e+01
  -1.655349e+02  -7.127249e+02
   3.956490e+02  -6.532697e+02
   6.189024e+02   6.678300e+00
   2.231888e+02   6.000100e+02
  -3.287397e+02   3.215562e+02
  -3.741998e+02  -3.891907e+02
   9.115806e+01  -5.313227e+02
   5.732726e+02  -1.341703e+02
   5.739146e+02   3.707497e+02
   1.571527e+02   5.727754e+02
  -3.623888e+02   3.510232e+02
  -6.606455e+02  -7.110514e+01
  -4.230428e+02  -4.604402e+02
   1.261802e+02  -4.347557e+02
   4.590164e+02  -6.828064e+01
   2.530252e+02   2.075225e+02
  -1.327096e+02   9.509091e+01
  -1.205593e+02  -2.159608e+02
   1.639235e+02  -2.461003e+02
   4.107479e+02   5.008918e+01
   1.791988e+02   3.587255e+02
  -1.565056e+02   3.230671e+02
  -3.601818e+02   1.455456e+02
  -2.745858e+02  -7.567050e+01
  -2.932030e+01  -2.819009e+02
   2.436088e+02  -3.515808e+02
   3.669375e+02  -2.197273e+02
   3.109559e+02   2.181845e+02
  -7.164142e+00   4.091023e+02
  -1.281611e+02   3.704454e+02
  -7.766712e+01   8.977618e+01
   3.016308e+01   1.603199e+01
  -5.158205e+01   9.227149e+01
  -2.443375e+02   1.213062e+02
  -2.855066e+02  -3.974765e+01
  -1.360560e+02  -2.210288e+02
   1.202349e+02  -2.315966e+02
   3.009673e+02  -1.351021e+01
   1.878918e+02   2.845481e+02
  -3.043323e+01   3.538995e+02
  -3.045987e+02   1.544839e+02
  -3.431978e+02  -1.684039e+02
  -1.982070e+02  -3.716117e+02
   5.648714e+01  -3.456477e+02
   2.675276e+02  -1.138412e+02
   2.142682e+02   9.345041e+00
   1.159788e+02  -6.701432e+00
   1.845413e+02  -6.764944e+01
   3.782076e+02   1.873705e+01
   3.584479e+02   2.764073e+02
   1.282009e+01   4.524743e+02
  -3.834629e+02   4.318693e+02
  -5.451422e+02   1.542444e+02
  -3.601374e+02  -9.424697e+01
  -5.765843e+01  -2.875695e+02
   1.600787e+02  -2.796128e+02
   1.236844e+02   1.159339e+01
  -7.497003e+01   9.072250e+01
  -2.182028e+02   7.451592e+01
  -1.037095e+02  -1.954183e+02
   1.516815e+02  -1.638981e+02
   1.875883e+02   7.964452e+00
   1.008887e+01   1.446756e+02
  -1.678857e+02   1.877092e+01
  -1.327666e+02  -1.920235e+02
  -1.840946e+01  -2.852217e+02
   2.254971e+02  -1.971585e+02
   2.973671e+02   4.858569e+01
   2.341282e+02   2.280074e+02
   6.388785e+01   2.971064e+02
  -1.310956e+02   2.032703e+02
  -1.790540e+02   1.939516e+01
  -6.811501e+01  -6.985872e+01
   5.039579e+01   6.235637e+01
   1.353927e+01   1.030955e+02
  -9.717315e+01   9.235206e+01
  -1.311896e+02  -3.971479e+01
  -4.193569e+01  -5.360290e+01
   4.078559e+01   2.764618e+00
   5.726693e+01   6.105591e+01
  -1.152591e+02   1.308962e+02
  -2.950705e+02   2.812441e+00
  -3.281870e+02  -1.049049e+02
  -1.158435e+02  -2.361592e+02
   1.597220e+02  -2.546123e+02
   3.251960e+02  -1.327845e+02
   1.848460e+02   4.288042e+01
  -2.853740e+01   1.034161e+02
  -7.107381e+01   4.157292e+01
   2.307767e+01  -4.917309e+01
   1.696337e+02  -4.019128e+01
   1.766409e+02   7.295557e+01
   4.980383e+01   2.127821e+02
  -6.328136e+01   1.835854e+02
  -2.059891e+02   1.350795e+01
  -7.704875e+01  -7.988590e+01
   6.650176e+01  -2.749887e+01
   3.014673e+01   5.472276e+01
  -7.161939e+01   1.179303e+02
  -1.569678e+02   5.693133e+01
  -1.749226e+02  -8.501968e+01
  -6.386999e+01  -1.907441e+02
   1.406878e+02  -1.961416e+02
   2.063290e+02  -3.896739e+01
   7.150782e+01   8.791339e+01
  -3.312901e+01   1.151910e+02
  -7.122920e+01   6.879870e+01
  -1.627808e+01   3.596426e+01
   1.547464e+01   3.503666e+00
   1.480298e-01   2.111798e+01
  -1.228653e+02  -9.361106e+00
  -1.534920e+02  -5.726527e+01
  -1.316389e+01  -1.876995e+02
   1.255774e+02  -1.254714e+02
   2.309769e+02  -5.748051e+01
   1.744272e+02   1.124750e+02
   3.784757e+01   1.841341e+02
  -1.348118e+02   1.293767e+02
  -1.159857e+02   3.535743e+01
  -7.655594e+01  -3.999727e+01
   2.800715e-01  -3.201092e+01
  -3.637307e+01   2.639022e+01
  -3.546595e+01  -1.877723e+01
  -5.197540e+01  -3.593181e+01
   4.958026e+01  -1.210048e+02
   1.071419e+02  -7.534314e+01
   1.246468e+02   3.446358e+01
  -3.367167e+01   9.481198e+01
  -1.247138e+02   1.015345e+02
  -1.790623e+02  -2.733277e+01
  -8.428988e+01  -1.784609e+02
   1.131269e+02  -2.069318e+02
   2.331165e+02  -7.024259e+01
   2.024817e+02   9.783011e+01
   7.166843e+01   1.322431e+02
  -4.757386e+01   1.682269e+02
  -5.131629e+01   1.180476e+02
  -6.110053e+01   7.073244e+01
  -1.853020e+01   7.004927e+01
  -6.912664e+01   1.011894e+02
  -1.758894e+02  -3.551612e+01
  -1.432495e+02  -1.706385e+02
  -7.731914e+01  -2.818311e+02
   1.600204e+02  -1.752165e+02
   1.140465e+02  -3.450356e+00
   1.300405e+02   1.232393e+02
   1.801330e+01   1.169258e+02
  -4.491373e+01   9.017837e+01
  -8.385182e+01  -1.246306e+01
   4.850676e+01  -5.757954e+01
  -1.132428e+01  -5.680345e+01
  -2.394558e+01   1.961467e+01
  -1.086637e+02  -4.817755e+00
  -2.317012e+01  -3.285251e+01
   7.177976e+01  -2.134958e+01
   1.640066e+02  -2.096293e+01
   1.476798e+02   1.508916e+01
  -1.799915e+01   8.446038e+01
  -1.448611e+02   1.004638e+02
  -1.379087e+02   1.295328e+01
  -2.772014e+01  -1.016848e+02
   2.156787e+01  -4.816711e+01
   9.283175e+01   3.384220e+00
   2.888746e+01   6.540968e+01
  -9.991687e+00   6.992695e+01
  -3.941357e+01   1.854461e+01
  -3.653454e+01  -4.114757e+01
  -7.282598e+01  -5.568228e+01
  -7.493317e+01  -9.674101e+00
  -6.513686e+01   3.589315e+00
  -5.074934e+01  -4.630064e+01
   1.962742e+01  -1.485689e+02
   1.505849e+02  -1.372294e+02
   1.221315e+02  -1.508090e+01
   1.238297e+02   5.292213e+01
   1.164593e+01   9.659892e+01
  -6.435073e+01   3.726261e+01
  -7.288960e+01   4.215908e+00
   5.618135e+01  -4.059953e+01
   1.408303e+02   2.717980e+00
   6.572903e+01   9.296955e+01
  -4.604956e+01   1.050624e+02
  -1.419577e+02  -1.129870e+01
  -1.526669e+02  -3.673795e+01
  -3.046857e+01  -6.796936e+01
   7.265610e+01  -6.008489e+01
   3.026923e+01  -3.122350e+01
  -2.063664e+01   1.472064e+00
  -1.144233e+02  -1.225523e+00
   2.787004e+01  -1.156474e+02
   1.392785e+02  -1.385249e+02
   2.110735e+02  -2.262182e+01
   1.078131e+02   1.152614e+02
  -3.103659e+01   1.903812e+02
  -1.196257e+02   1.257524e+02
  -1.190629e+02  -4.393179e+00
  -6.654277e+01  -1.104242e+02
   3.246280e+01  -1.302079e+02
   3.799106e+00  -3.372214e+00
   3.758556e+01   4.236260e+01
  -2.011449e+00  -3.745739e+01
  -2.104186e+01  -5.617853e+00
  -8.071227e+00  -2.561124e+01
   4.695507e+01   9.685593e+01
   2.693658e+01   1.102165e+02
  -4.396328e+01   3.766474e+01
  -1.749683e+02  -2.300220e+01
  -1.576032e+02  -9.431763e+01
  -1.286524e+01  -6.628910e+01
   8.404420e+01  -4.262220e+01
   6.120810e+01  -2.880714e+01
   6.248201e+00   2.715371e+01
  -3.888784e+01   1.724805e+01
  -2.146678e+01  -7.624995e+00
   4.364723e+01  -4.349163e+00
   3.387553e+01  -2.853585e+01
  -5.750370e+01   1.833366e+01
  -1.213137e+02  -3.481703e+01
   1.053096e+01  -1.124783e+02
   1.238995e+02  -1.460732e+02
   1.705225e+02  -4.328951e+01
   1.363287e+02   2.896131e+01
   3.239807e+01   1.691775e+02
  -5.466189e+01   1.415946e+02
  -1.578894e+02   7.596942e+01
  -8.475460e+01  -3.390460e+01
  -1.113224e+01  -4.529740e+01
  -6.311882e+00  -3.060338e+01
  -7.060377e+00  -3.137603e+01
  -3.133166e+01  -3.171958e+01
  -5.970322e+00  -9.211595e+01
   4.277308e+01  -6.896096e+01
   5.525116e+01   2.859542e+01
   6.145378e+01   1.132474e+02
   3.317914e+01   1.516841e+02
  -9.226342e+01   6.382915e+01
  -1.094209e+02  -4.778274e+01
  -5.307808e+01  -1.137506e+02
   7.259087e+01  -6.501633e+01
   7.568825e+01   4.205690e+01
   2.262799e+01   6.190846e+01
  -4.970104e+01   8.030923e+01
  -9.437762e+01   5.870473e+01
   1.641152e+01  -6.396684e+00
   4.290191e+01  -3.151490e+01
   2.410915e+01   7.173066e+00
  -4.400787e+01   8.014803e+01
  -1.150200e+02   3.192434e+01
  -6.586202e+01   1.557348e+01
   2.209749e+01  -1.041172e+02
   4.518564e+01  -3.188454e+01
   5.297592e+01   7.084749e+00
  -1.100976e+00   1.091682e+02
  -4.194509e+01   8.187689e+01
  -1.983069e+01  -4.190307e+00
  -4.147757e+01  -7.685264e+01
  -2.027555e+01  -6.059631e+01
  -3.070876e-01  -4.500823e+00
   9.083300e+00   4.586576e+01
  -2.365490e+00   1.597955e+01
   2.971569e+01  -1.506647e+01
   1.593345e+01   1.137284e+01
   5.864585e+01   1.997220e+01
   5.014751e+00   7.097012e+01
  -3.324453e+01   4.989008e+00
  -4.004440e+01  -5.870617e+01
  -3.371798e+01  -4.551179e+01
   7.327918e+01   1.511491e+01
   6.826754e+01   7.585436e+01
   1.322630e+01   1.285114e+02
  -2.547607e+01   4.855230e+01
  -1.140821e+02  -3.267721e+01
  -2.462814e+01  -6.472230e+01
   3.544682e+00  -5.302545e+01
   6.563844e+01  -8.246498e-01
   1.004907e+01   3.404605e+01
  -9.500347e+00  -1.338600e+01
  -2.752351e+01   7.189270e+00
   6.241337e+01  -1.231823e+01
   6.754462e+01  -1.420042e+01
