
 $NMID
 id='ANONYMOUS ', fmtdat='(2E16.6)'
 volume=1.0
 tramp=1.0
 $END
  -3.803075e+03  -4.875449e+02
  -2.477916e+03  -1.791845e+03
   4.054729e+02  -2.330085e+03
   1.684214e+03  -8.561104e+02
   9.725001e+02   4.604874e+02
  -4.566426e+02   3.766352e+02
  -7.008007e+02  -1.431781e+02
  -2.341471e+01  -7.242748e+02
   5.975117e+02  -7.842114e+02
   7.837751e+02  -5.288259e+01
   4.977434e+02   7.328383e+02
  -8.907648e+01   8.495635e+02
  -5.732321e+02   3.335263e+01
  -3.508334e+02  -6.764208e+02
   2.300219e+02  -5.916649e+02
   3.927448e+02   4.481707e+01
   4.708328e+02   5.259527e+02
  -3.760763e+02   4.203870e+02
  -6.147531e+02   2.095649e+02
  -3.304381e+02  -3.036906e+02
   1.417933e+02  -3.196380e+02
   2.076871e+02  -2.765568e+02
   8.065208e+01  -4.026198e+01
  -1.373414e+02   4.380537e+01
  -3.379702e+02  -1.134511e+01
  -2.075367e+02  -3.254432e+02
   4.412511e+02  -4.324914e+02
   7.730398e+02   1.047493e+02
   3.448998e+02   5.609162e+02
  -2.691155e+02   3.837298e+02
  -5.713195e+02  -6.027935e+01
  -3.460529e+02  -4.625224e+02
   1.636006e+02  -3.981347e+02
   5.061674e+02  -1.159514e+02
   3.571120e+02   2.344492e+02
  -3.979247e+01   4.062265e+02
  -1.375478e+02   3.057765e+02
  -1.110390e+02  -1.591469e+02
   1.818217e+02  -4.277045e+02
   3.899819e+02  -2.157939e+01
   1.542152e+02   6.190998e+02
  -3.670765e+02   6.383723e+02
  -5.781444e+02  -1.643323e+01
  -2.288760e+02  -5.353862e+02
   2.757206e+02  -2.780841e+02
   3.247092e+02   3.036634e+02
  -9.605632e+01   4.694883e+02
  -5.231881e+02   6.221178e+01
  -6.048671e+02  -4.073711e+02
  -1.476065e+02  -5.699927e+02
   4.429628e+02  -3.317396e+02
   6.504287e+02   3.847813e+01
   3.795799e+02   3.593563e+02
  -1.533443e+02   3.731405e+02
  -3.777217e+02   5.413538e+01
  -2.354076e+02  -2.204940e+02
   8.375339e+01  -1.144568e+02
   1.307532e+02   1.556651e+02
  -1.200607e+02   2.315154e+02
  -2.853018e+02  -1.222092e+01
  -1.050095e+02  -2.747184e+02
   1.611382e+02  -2.734200e+02
   2.579649e+02  -6.888465e+01
   1.844191e+02   8.655531e+01
  -1.450945e+01   2.638923e+02
  -1.896495e+02   3.168603e+02
  -3.111950e+02   2.090298e+02
  -2.753781e+02  -1.545478e+02
  -7.620406e+01  -4.017908e+02
   1.061461e+02  -3.819578e+02
   6.416027e+01  -1.052323e+02
  -2.935318e+00  -9.347064e+00
   3.553646e+01  -1.103249e+02
   1.929589e+02  -8.957575e+01
   2.180956e+02   1.281606e+02
   1.325011e+02   2.946078e+02
  -1.154693e+02   1.579460e+02
  -1.907461e+02  -2.852723e+01
  -1.640591e+02  -2.367825e+02
   2.499437e+00  -2.373029e+02
   2.127182e+02  -1.032716e+02
   3.390036e+02   1.254086e+02
   2.004042e+02   3.450440e+02
  -7.691454e+01   3.012322e+02
  -2.253699e+02   7.870277e+01
  -1.386286e+02  -2.650985e+01
  -4.810777e+01   5.438225e+01
  -1.937952e+02   5.806277e+01
  -4.126697e+02   7.191216e+00
  -3.047726e+02  -2.218657e+02
  -8.200145e+00  -4.330004e+02
   2.944523e+02  -4.211602e+02
   3.796486e+02  -1.381505e+02
   3.188962e+02   8.518498e+01
   2.230531e+01   2.708589e+02
  -1.078593e+02   2.874235e+02
  -7.587012e+01   1.513279e+01
   1.245798e+02  -1.495951e+02
   1.512424e+02  -4.371016e+01
   5.056091e+01   2.101874e+02
  -1.956970e+02   1.721768e+02
  -1.376517e+02  -2.811148e+01
  -8.225993e+00  -1.878036e+02
   1.795008e+02   2.962821e-01
   1.339304e+02   1.975762e+02
  -6.628941e+00   3.172397e+02
  -2.031603e+02   1.727001e+02
  -2.739889e+02  -4.120900e+01
  -2.645388e+02  -2.337324e+02
  -1.326458e+02  -2.071145e+02
   1.243073e+02  -7.771805e+01
   1.663983e+02   3.978384e+01
  -1.688045e+01   3.160737e+01
  -1.119391e+02  -6.843189e+01
  -5.050664e+01  -1.603971e+02
   1.093285e+02  -9.282832e+01
   1.727307e+02   3.523669e+01
   3.835605e+01   5.816488e+01
  -7.449048e+01  -2.430486e+01
  -4.405532e+01  -1.400519e+02
   9.427607e+01  -1.089050e+02
   2.359136e+02   3.476989e+01
   2.574126e+02   7.012800e+01
   6.501509e+01   2.474239e+02
  -1.638315e+02   2.088087e+02
  -2.724739e+02   1.268312e+02
  -8.739830e+01  -2.718030e+01
   7.785672e+01  -9.800452e+01
   8.017935e+01   3.937423e+01
  -7.822970e+01   1.008477e+02
  -2.629836e+02   5.809746e+01
  -2.042386e+02  -5.213356e+01
   9.163683e+00  -1.634159e+02
   1.129881e+02  -1.544090e+02
   9.817107e+01  -2.744811e+01
   3.619806e+01   7.032855e+01
  -3.688388e+01  -8.061058e+00
  -6.918109e+01  -8.094871e+01
   8.973911e+01  -1.207159e+02
   1.895605e+02  -1.831501e+01
   1.261542e+02   7.702111e+01
   2.316436e+01   1.774101e+02
  -1.513442e+02   8.740128e+01
  -1.486467e+02   2.822695e+01
   1.446936e+01  -1.079095e+02
   9.266226e+01  -1.309872e+02
   7.103527e+01   2.411110e+01
   1.560180e+01  -4.838819e+00
  -1.526723e-01   1.217783e+01
  -1.239144e+01   1.097112e+01
   8.473361e+01   3.973239e+01
   5.201441e+01   1.043923e+02
  -3.640437e+00   1.301702e+02
  -1.642829e+02   1.603085e+02
  -1.938679e+02   3.930548e+01
  -1.840451e+02  -1.683637e+02
  -2.632206e+01  -2.282203e+02
   1.176195e+02  -1.541829e+02
   1.279315e+02  -1.118112e+01
   3.779601e+01   2.986817e+01
   3.559785e+01   7.498837e+01
   7.456840e+01  -2.935638e+01
   4.158996e+01  -6.829313e+01
   7.413497e+01   9.313117e+01
  -2.612002e+01   1.169546e+02
  -1.316747e+02   6.289453e+01
  -1.215303e+02  -1.601946e+01
   3.090780e+01  -1.236120e+02
   1.475001e+02  -5.074927e+01
   1.971916e+02   5.046306e+01
   1.030836e+02   1.818232e+02
  -1.267719e+02   1.945278e+02
  -2.528524e+02   5.957873e+01
  -2.643717e+02  -1.639685e+02
  -7.575767e+01  -1.331286e+02
   5.893541e+01  -1.079572e+02
   1.599237e+02  -2.162817e+01
   1.031660e+02  -1.934031e+01
   3.093843e+01  -7.492173e+01
   6.107722e+01  -4.681340e+01
   9.992163e+01  -8.506884e+00
   6.364850e+01   1.469449e+02
   6.423068e+01   1.851246e+02
  -1.004488e+02   1.370684e+02
  -2.318570e+02  -1.862763e+01
  -1.033011e+02  -1.758845e+02
   1.553489e+01  -1.218526e+02
   1.352050e+02  -1.120346e+02
   1.072757e+02   5.883027e+01
   1.336292e+01   9.217413e+01
  -3.511479e+01   5.449852e+01
   1.232529e+00   2.721381e+01
   7.670950e+01   1.728325e+01
   4.219803e+01  -2.251067e+00
  -4.343994e+01   2.180418e+01
  -1.665210e+02  -1.601059e-01
  -1.393636e+02  -1.646786e+01
  -6.174844e+00  -5.232307e+01
   1.075524e+02  -4.735226e+01
   1.059547e+02  -3.427171e+01
   1.572235e+01   3.678454e+01
  -8.157850e+01   2.659835e+01
  -8.806492e+01  -4.963159e+01
  -2.389805e+01  -9.531335e+01
   6.991328e+01  -4.486573e+01
   1.168163e+01  -1.202551e+01
   2.608798e+01   5.165979e+01
   8.023689e+01   5.181027e+01
   4.836293e+01   1.519384e+00
   5.895937e+01   1.083829e+01
   2.612516e+01   4.147929e+00
  -1.013798e+01   1.603147e+02
  -8.354239e+01   1.309030e+02
  -1.589769e+02   7.469609e+01
  -1.234639e+02  -2.751074e+01
   9.369362e+00  -1.018980e+02
   7.718415e+01  -7.499152e+01
   1.343224e+02   7.901075e+00
  -3.106956e+01   4.927438e+01
  -1.004213e+02  -2.774335e+01
  -1.071948e+02  -1.100481e+02
   1.868931e+01  -1.224642e+02
   1.495810e+02  -3.549329e+01
   1.678096e+02   2.876600e+01
  -1.251387e+01   7.334287e+01
  -8.364566e+01   6.446245e+01
  -5.113366e+01  -3.698893e+00
   2.065978e+01  -4.796075e+01
   9.539329e+01   2.428674e+01
   3.701218e+01   7.366503e+01
  -7.966311e+01   9.152945e+01
  -1.608192e+02   4.098472e+01
  -1.203249e+02  -7.912712e+01
  -2.463480e+01  -1.938043e+02
   2.112350e+01  -1.119460e+02
   1.000190e+02   3.609371e+01
   8.843482e+01   1.418945e+02
  -1.815023e+00   1.295234e+02
  -7.215094e+01   1.492455e+01
  -3.137773e+01  -9.382055e+00
  -1.752490e+00  -1.980296e+01
  -6.808532e-01   3.520296e+01
  -2.255845e+01  -5.532794e+01
  -7.220624e+01  -9.657578e+01
  -3.835276e+01  -1.254894e+02
   6.072212e+01  -3.810167e+01
   1.203281e+02   6.572299e+01
   1.604192e+02   6.482373e+01
   2.101680e+01   5.796777e+01
  -9.235370e+01   5.128701e+01
  -6.961876e+01   5.050879e+01
  -2.376630e+01  -4.173770e+01
   3.787772e+01  -2.512765e+01
   1.407345e+00  -3.637221e+01
   3.015240e+01  -8.381417e-01
  -1.578056e+00   2.892646e+01
   2.805890e+01   6.044370e+00
   1.461767e+02   3.358803e+01
   3.535621e+01   7.148124e+01
  -1.782298e+02   1.398131e+02
  -1.788656e+02   3.088717e+01
  -1.497854e+02  -9.382241e+01
  -7.294354e+00  -1.759570e+02
   1.053962e+02  -1.795620e+02
   1.285358e+02  -7.115362e+01
   8.380799e+01   1.714131e+01
   2.846813e+01   5.808691e+01
   2.051028e+01   2.765484e+01
   3.289522e+01   2.044312e+01
   2.866537e+01   4.260288e+01
   5.535789e+00   6.381169e+01
  -7.066097e+01   2.961388e+01
  -1.308648e+01  -3.284628e+01
  -2.615426e+01  -1.006484e+02
  -1.943819e+01  -1.271745e+02
   1.148704e+02   3.797682e+01
   1.451674e+02   1.030318e+02
   3.341718e+01   1.171370e+02
  -5.725456e+01   1.097235e+02
  -2.441574e+01  -5.574720e+00
  -6.796719e+01   1.074933e+01
  -5.275451e+01  -8.570208e+01
   1.956226e+01  -2.943974e+01
  -3.926275e+01   1.995423e+01
  -6.908510e+01  -3.623773e+01
  -2.774289e+01  -2.881873e+01
   9.251004e+01  -1.087767e+02
   1.457745e+02  -5.283223e+01
   6.066293e+01  -1.078877e+01
   1.817167e+01   9.205762e+01
  -3.504970e+01   7.868921e+01
  -3.899815e+01   3.806492e+01
  -2.101348e+00  -7.563407e+01
   1.089242e+01  -9.456239e+01
   7.977993e+00   1.197886e+01
  -2.893985e+00   7.480674e+01
   3.168688e+01   2.641755e+01
   4.227131e+01   1.068898e+01
   5.529973e+00  -3.940692e+01
  -2.300483e+01  -4.963107e+00
  -3.519092e+01   3.215976e+01
   5.585235e+00   7.461192e-01
  -3.464722e+01  -5.217269e+00
  -3.042051e-01  -3.826221e+01
   2.863360e+00   9.329390e+00
   3.518299e+01   3.741441e+01
   3.781008e+00   3.861261e+01
  -5.580164e+01   4.251621e+00
  -5.734694e+01  -3.242172e+01
   2.052801e+01  -4.569525e+01
   7.937737e+01  -1.172338e+01
   5.960993e+01  -9.192963e+00
   2.930648e+01   5.940305e+01
  -4.850106e+01   3.224471e+01
  -3.755466e+01  -1.890099e+01
  -5.627004e+01   3.402532e+00
   7.940288e+00  -1.727210e+01
   2.283101e+01  -3.361539e+01
  -2.101628e+01   4.693616e+01
  -8.644096e+01   5.813428e+01
