
 $NMID
 id='ANONYMOUS ', fmtdat='(2E16.6)'
 volume=1.0
 tramp=1.0
 $END
  -2.607698e+03  -3.621178e+02
  -2.045654e+03  -1.225225e+03
  -3.668989e+02  -1.641674e+03
   1.039081e+03  -1.309588e+03
   8.289664e+02  -6.156144e+02
   2.295733e+02  -7.488164e+01
  -3.569369e+02   4.789722e+01
  -7.504919e+01  -4.126837e+02
   2.821924e+02  -5.636858e+02
   4.537684e+02  -1.356785e+02
   4.421358e+02   4.413768e+02
   1.487524e+02   5.315241e+02
  -1.447767e+02   2.622126e+02
  -1.438847e+02  -3.012775e+02
   7.623907e+01  -5.890340e+02
   3.519653e+02  -5.149312e+01
   3.571931e+02   4.041632e+02
  -1.567008e+02   4.344733e+02
  -3.827594e+02   2.160879e+02
  -4.998422e+02  -1.113525e+02
  -5.700569e+01  -3.481078e+02
  -2.686896e+00  -1.674342e+02
  -1.072954e+01   4.064022e+00
  -3.488768e+02  -1.610667e+02
  -2.765685e+02  -3.539380e+02
   1.642579e+02  -3.225238e+02
   4.816053e+02  -3.423906e+01
   5.604333e+02   2.356481e+02
   1.135492e+02   1.953928e+02
  -3.658213e+02   1.153596e+02
  -4.659590e+02  -1.427027e+02
  -1.377290e+02  -3.539662e+02
   2.393615e+02  -2.452472e+02
   3.696616e+02  -9.837942e+01
   2.396370e+02   1.067692e+02
   5.987959e+00   2.629996e+02
   5.354310e+01   1.102301e+02
   9.705714e+01  -1.065585e+02
   2.025315e+02  -9.447589e+01
   8.914756e+01   2.035448e+02
  -1.340666e+02   4.490075e+02
  -2.492114e+02   3.629648e+02
  -2.983819e+02  -2.257584e+01
  -9.324517e+01  -2.223588e+02
   9.323770e+01  -1.110463e+02
   1.054638e+02   2.722856e+02
  -1.164328e+02   3.170916e+02
  -3.848436e+02  -5.343959e+01
  -4.528393e+02  -3.908071e+02
  -1.662880e+02  -4.461370e+02
   2.813734e+02  -1.952041e+02
   4.699629e+02   5.682537e+01
   3.592710e+02   1.567994e+02
   4.531987e+01   1.349644e+02
  -2.162679e+02   9.875421e+01
  -1.924448e+02   1.021143e+02
  -4.333242e+01   2.466596e+01
   7.850673e+00   8.682851e-01
  -7.661917e+01  -5.928237e+00
  -1.357355e+02  -1.898071e+01
  -8.878033e+01  -1.319556e+02
   1.609403e+02  -1.915815e+02
   3.511367e+02  -1.543596e+02
   2.767207e+02   7.520157e+01
  -7.871271e+00   3.676686e+02
  -2.836992e+02   4.421003e+02
  -3.812712e+02   1.736582e+02
  -2.328779e+02  -1.348169e+02
   4.112770e-01  -3.286943e+02
   6.854594e+01  -3.204802e+02
   3.423380e+01  -2.049114e+02
   1.338339e+01  -1.529984e+02
   1.710396e+02  -9.590197e+01
   2.667188e+02   3.431636e+01
   2.367776e+02   1.677709e+02
   9.166897e+01   2.282359e+02
  -8.855888e+01   1.217154e+02
  -1.747910e+02  -6.539075e+01
  -1.063799e+02  -2.632200e+02
   3.865188e+01  -2.208427e+02
   1.869947e+02  -3.293880e+01
   2.181366e+02   1.759517e+02
   1.424009e+02   2.874978e+02
  -3.198337e+01   2.502541e+02
  -1.086848e+02   1.310417e+02
  -1.145101e+02   9.635848e+01
  -1.768556e+02   9.986671e+01
  -3.225544e+02   6.617383e+01
  -4.188789e+02  -4.958230e+01
  -2.943141e+02  -2.802030e+02
   4.552667e+01  -4.009256e+02
   3.883271e+02  -4.044803e+02
   4.804873e+02  -1.500391e+02
   2.721581e+02   9.854216e+01
   8.822999e+00   2.752884e+02
  -4.630230e+01   2.210971e+02
   2.122393e+01   7.090621e+01
   1.781212e+02   8.227333e+00
   1.532329e+02   7.224030e+01
  -6.301227e+00   1.166382e+02
  -1.482513e+02   5.729112e+01
  -1.465798e+02  -4.434462e+01
   1.557741e+01  -1.309227e+02
   1.398766e+02   8.430517e+00
   1.355729e+02   2.354006e+02
  -2.626109e+01   3.224625e+02
  -2.658054e+02   1.874926e+02
  -3.708709e+02  -9.887339e+01
  -3.045539e+02  -2.270492e+02
  -6.907847e+01  -2.616237e+02
   9.052222e+01  -1.449605e+02
   1.457278e+02  -1.200157e+01
   4.181387e+01   1.782561e+00
  -7.176180e+01   3.705928e+00
   4.870372e+01  -1.063431e+02
   1.460129e+02  -9.009836e+01
   1.338586e+02   1.383633e+01
   4.578681e+01   1.122268e+02
  -1.085762e+02  -3.059856e+00
  -4.230503e+01  -3.818992e+01
   1.332784e+02  -7.485226e+01
   2.931136e+02   3.273180e+01
   1.820211e+02   1.948026e+02
   3.048113e+01   3.017670e+02
  -2.696460e+02   2.119006e+02
  -3.138703e+02   3.588316e+01
  -1.287230e+02  -9.892152e+01
   2.318681e+01  -7.068101e+01
   5.809146e+01   6.607880e+01
  -5.004255e+01   1.062268e+02
  -1.566726e+02   1.763438e+01
  -1.550629e+02  -8.859993e+01
  -3.384911e+01  -1.910484e+02
   9.568909e+01  -1.054725e+02
   1.515872e+02   3.991558e+00
   1.019524e+02   4.160687e+01
  -9.938991e+01   8.735701e-01
  -5.718830e+01  -8.987718e+01
   7.907958e+01  -1.141572e+02
   1.946403e+02  -1.670773e+01
   1.698699e+02   1.677535e+02
   4.185649e+01   1.900858e+02
  -1.659465e+02   1.171917e+02
  -1.627255e+02  -3.803646e+01
  -6.486874e+01  -9.746013e+01
   3.441488e+01  -1.508432e+02
   4.891734e+01  -3.863207e+01
   1.585351e+00   4.705340e+01
  -1.737242e+01   3.615568e+01
  -8.115503e+01  -3.500588e+01
   1.041810e+01   2.851213e+01
   6.922626e+01   4.707006e+01
  -4.772882e+00   1.516525e+02
  -1.345340e+02   1.529874e+02
  -2.165207e+02   3.469102e+01
  -1.700854e+02  -1.460456e+02
  -8.485734e+00  -1.955730e+02
   1.171356e+02  -1.237426e+02
   1.092282e+02  -5.318723e+01
   6.608468e+01   1.051444e+01
   5.003175e+01   4.061617e+01
  -1.628038e+00  -9.913477e+00
   6.972940e+01  -1.573491e+01
   9.089357e+01   9.228999e+01
  -6.306544e+01   7.659552e+01
  -9.458117e+01   3.507115e+01
  -1.216789e+02  -1.986647e+01
   5.680141e+01  -1.375031e+02
   1.603501e+02  -9.107869e+01
   2.295101e+02   6.917567e+01
   5.710399e+01   2.127246e+02
  -1.327776e+02   2.174349e+02
  -2.903905e+02   9.139727e+01
  -1.944424e+02  -1.353658e+02
  -4.734499e+01  -1.157920e+02
   6.295646e+01  -1.516492e+02
   6.989565e+01  -6.485970e+01
   4.934156e+01  -4.023548e+01
   4.509124e+01  -4.617758e+01
   1.012667e+02  -1.099783e+02
   1.234527e+02   4.829346e+01
   1.014145e+02   1.272408e+02
  -5.402903e+00   2.238181e+02
  -1.577938e+02   1.739058e+02
  -1.738580e+02   1.145951e+01
  -1.463978e+02  -1.771496e+02
   4.372587e+00  -1.641546e+02
   1.075671e+02  -4.554427e+01
   6.747690e+01   5.168086e+00
   1.794584e+01   2.212294e+01
  -6.355144e+01   1.069232e+01
  -8.881530e+00   5.138753e+01
   5.542171e+01   2.036455e+01
   1.496226e+01   9.063271e+00
  -7.884229e+01   7.976966e+01
  -1.857861e+02   6.275818e+00
  -1.349242e+02  -9.177760e+01
  -1.702029e+01  -1.125929e+02
   1.231864e+02  -1.034303e+02
   1.644523e+02  -2.208911e+01
   6.763453e+01   6.225033e+01
  -2.744671e+01   4.329071e+01
  -6.909786e+01  -2.630841e+01
  -2.912484e+01  -3.212025e+01
   6.027166e+01  -6.773858e+01
   1.207965e+02   3.689268e+01
   5.920620e+01   4.004736e+01
   4.634318e+01   5.693051e+01
   6.235437e+01   4.115694e+01
   5.049992e+01   9.391149e-01
   5.576069e+01   1.019673e+02
  -8.310069e-01   1.379787e+02
  -1.363949e+02   1.545159e+02
  -1.969443e+02   3.251227e+01
  -1.219469e+02  -8.337803e+01
  -4.869695e+01  -1.359244e+02
   5.803894e+01  -6.909046e+01
   6.573262e+01   4.228090e+00
  -8.525134e+01   5.273962e+01
  -1.187671e+02  -5.792168e+01
  -3.066629e+01  -8.634074e+01
   9.745399e+01  -1.310518e+02
   2.058393e+02  -4.146391e+01
   1.738076e+02   4.943649e+01
   4.638857e+01   7.994739e+01
  -6.533628e+01   6.928043e+01
  -7.428491e+01  -9.472269e-01
   6.166421e+01  -4.816591e+01
   1.210180e+02   2.559425e+01
   3.906493e+01   1.398099e+02
  -9.081040e+01   1.499009e+02
  -1.738736e+02   6.643244e+01
  -1.396156e+02  -8.978399e+01
  -2.327193e+01  -1.697983e+02
   8.414174e+01  -1.274730e+02
   7.526926e+01   5.137900e+01
   4.320237e+01   1.442156e+02
  -5.059579e+01   1.079952e+02
  -4.510815e+01   4.821663e+00
  -4.357209e+01  -2.056643e+01
  -2.236553e+01  -3.145739e+00
  -1.851682e+01  -5.925420e+01
  -3.188379e+01   1.655240e+00
  -9.282450e+01  -5.822077e+01
   1.383302e+01  -1.394505e+02
   8.953830e+01  -1.056056e+02
   1.190767e+02   3.355051e+01
   1.018108e+02   6.921564e+01
   1.675400e+01   4.572274e+01
  -6.732291e+01   5.764278e+01
  -9.059057e+01  -2.154952e+01
  -1.297433e+01   7.676274e+00
   1.964435e+01  -5.187979e+00
  -6.221888e+00   3.440453e+01
   1.153000e+01  -2.501283e+01
  -2.968458e+01  -6.057674e+00
   8.011854e+01  -2.611693e+01
   5.620959e+01   5.151284e+01
   2.618995e+01   7.178037e+01
  -1.285416e+02   1.440854e+02
  -1.741428e+02   5.855919e+01
  -1.589442e+02  -6.958462e+01
   5.935294e+00  -1.712779e+02
   9.765149e+01  -1.008095e+02
   1.407647e+02  -2.806037e+01
   6.674754e+01   4.384516e+01
   3.162441e+01   5.122484e+01
   4.931752e+00   9.780907e+00
   2.653072e+01  -2.117117e+01
   6.990118e+01   7.203040e+01
   1.867769e+01   3.058666e+01
  -2.449362e+01   7.399045e+01
  -9.943547e+01   2.228508e+01
  -6.688670e+01  -8.965330e+01
  -2.685155e+01  -1.002048e+02
   5.539741e+01  -9.396030e+01
   1.317724e+02   1.393548e+02
   6.764557e+01   1.379037e+02
  -8.648452e+01   4.383971e+01
  -7.851365e+01   1.187074e+01
  -4.989529e+01  -6.605350e+01
   1.643440e+01  -5.633205e+01
   4.504138e+01  -2.365848e+01
  -3.333748e+01   4.239514e+01
  -5.065901e+01  -1.059491e+01
  -5.727418e+01  -4.090326e+01
   7.291058e+01  -1.175354e+02
   1.347331e+02  -6.101191e+01
   1.094200e+02   4.496784e+01
  -4.825784e+01   9.031664e+01
  -8.603492e+01   6.844171e+01
  -1.148190e+02  -1.472593e+01
   6.125405e+00  -1.009355e+02
   7.842889e+01  -4.031267e+01
   7.680617e+01   5.503440e+01
  -2.343352e+01   8.300363e+01
  -1.798295e+01   9.168191e+01
  -5.326183e+01   4.966315e+00
  -6.037017e+01  -4.170880e+01
  -4.847061e+01  -4.655282e+01
  -2.940823e+00  -1.241100e+00
  -2.246423e+01  -6.409269e+00
  -1.834602e+01  -7.322198e+01
  -7.657234e+00  -5.672823e+01
   4.578754e+01  -6.755223e+01
   3.182234e+01   5.583781e+01
   2.970420e+01   4.984773e+01
  -1.528340e+01   4.733229e+01
  -4.696344e+01  -3.999488e+01
  -7.712575e+00  -4.648765e+01
   1.152478e+02  -3.744254e+01
   7.098570e+01   3.763574e+01
   5.051157e+01   9.311146e+01
  -5.490596e+01   6.761752e+01
  -7.764465e+01  -5.088750e+00
  -3.627814e+01  -3.465842e+01
  -1.080654e+00  -1.264015e+01
   7.030893e+01  -1.617936e+01
  -9.550751e+00   6.325110e+01
  -7.632659e+01  -4.047631e+01
