
 $NMID
 id='ANONYMOUS ', fmtdat='(2E16.6)'
 volume=1.0
 tramp=1.0
 $END
   2.729942e+03   3.013358e+02
   1.949384e+03   1.331252e+03
   4.227398e+02   1.623518e+03
  -8.249722e+02   1.151294e+03
  -6.922804e+02   4.156508e+02
  -8.538484e+01  -6.283782e+01
   3.064797e+02   4.952808e+01
   7.235900e+00   4.509015e+02
  -3.510894e+02   6.293666e+02
  -6.504706e+02   1.923346e+02
  -6.013183e+02  -3.446811e+02
  -1.777041e+02  -7.275294e+02
   1.936674e+02  -1.690850e+02
   2.844593e+02   3.625126e+02
  -1.962182e+02   5.581114e+02
  -2.958987e+02  -1.309726e+02
  -3.077162e+02  -2.809377e+02
   1.099677e+02  -5.661674e+02
   3.727959e+02  -2.072279e+02
   1.744707e+02   1.740230e+02
   2.299458e+02   3.240945e+02
  -1.220805e+02   3.354199e+02
   9.785840e+01   9.702377e+01
   2.343588e+02   1.101060e+02
   1.262957e+02   1.714492e+02
   1.440707e+02   3.170710e+02
  -4.406897e+02   1.565238e+02
  -5.673406e+02  -2.154932e+02
  -2.160253e+02  -2.967188e+02
   4.031825e+02   6.433049e+01
   5.115825e+02   2.597149e+02
   3.367759e+02   2.383553e+02
  -1.408203e+02   2.464538e+02
  -3.712673e+02  -8.892076e+00
  -2.056691e+02  -2.198280e+02
  -3.930088e+01  -2.792074e+02
   2.956840e+01  -1.556130e+02
  -6.169522e+01   9.819142e+00
  -4.057818e+01   1.279801e+02
  -1.546449e+02  -1.355126e+02
   1.752797e+01  -4.587700e+02
   1.924683e+02  -3.188829e+02
   2.249699e+02   4.123774e+01
   1.159574e+02   3.319577e+02
  -1.542722e+02   1.133863e+02
  -1.555294e+02  -3.075462e+02
   7.678200e+01  -4.202876e+02
   3.358886e+02  -9.136886e+01
   4.637109e+02   3.312170e+02
   1.620850e+02   4.620767e+02
  -2.529601e+02   2.911576e+02
  -4.698873e+02  -3.625637e+01
  -2.980304e+02  -2.072857e+02
   5.563172e+01  -2.038440e+02
   2.186201e+02  -1.157574e+02
   1.399336e+02  -4.087054e+01
  -3.149000e+01   7.483642e+00
  -9.435942e+00  -3.755175e+01
   1.381997e+02  -2.609535e+01
   1.781166e+02   3.258689e+01
   5.356146e+01   2.041120e+02
  -1.353628e+02   2.491827e+02
  -3.149767e+02   1.057734e+02
  -2.672285e+02  -1.007106e+02
  -1.382773e+01  -3.235488e+02
   2.095993e+02  -3.926520e+02
   3.679321e+02  -1.665973e+02
   2.453810e+02   1.317677e+02
   8.138957e+01   3.194882e+02
   8.131465e+00   3.514911e+02
  -7.994090e+00   2.054412e+02
  -3.986543e+01   5.071128e+01
  -1.545391e+02   7.571653e+01
  -2.002095e+02  -4.673799e+01
  -1.954909e+02  -1.559857e+02
  -5.247819e+01  -1.915323e+02
   1.168825e+02  -1.721855e+02
   1.659162e+02   8.540967e+01
   1.353331e+02   2.420929e+02
  -5.400779e+01   1.914023e+02
  -2.160500e+02   8.377369e+01
  -2.977098e+02  -1.467999e+02
  -2.361286e+02  -2.364571e+02
  -5.361525e+01  -2.282312e+02
   1.204248e+02  -2.027317e+02
   1.182149e+02  -1.377240e+02
   1.739444e+02  -7.385227e+01
   2.878855e+02  -9.757936e-01
   3.536920e+02   6.946298e+01
   2.862451e+02   2.643922e+02
   1.099953e+00   3.588912e+02
  -3.188766e+02   3.244338e+02
  -4.222802e+02   1.648999e+02
  -2.208163e+02  -1.073772e+02
   7.161657e+00  -2.488741e+02
   7.660575e+01  -1.731004e+02
   4.408539e+01  -6.742697e+01
  -9.204266e+01   2.735168e+01
  -6.137190e+01  -4.698169e+01
   1.874721e+01  -9.774389e+01
   8.830511e+01  -4.249383e+01
   5.946710e+01   8.394051e+01
  -2.361332e+01   1.374293e+02
  -1.403438e+02  -2.519943e+01
  -1.735253e+02  -1.885366e+02
  -1.514710e+01  -3.084644e+02
   1.901294e+02  -1.854627e+02
   3.300318e+02   5.311596e+01
   2.721054e+02   1.908472e+02
   1.165284e+02   2.642598e+02
  -1.100831e+02   1.180469e+02
  -1.274079e+02   3.766275e+01
  -2.508818e+01  -5.041180e+00
   3.616327e+01   4.718863e+01
  -2.234106e+01   7.117871e+01
  -1.369023e+02   7.360960e+01
  -1.081960e+02  -2.227136e+01
   1.691298e+00  -4.440135e+01
   8.634703e+01  -9.061601e+00
   6.467854e+01   1.004414e+02
  -1.331754e+02   1.303853e+02
  -2.773099e+02   1.266356e+01
  -2.405096e+02  -1.495872e+02
  -4.009813e+01  -2.425929e+02
   1.685328e+02  -1.836445e+02
   1.808854e+02  -1.663810e+01
   1.122683e+02   2.914280e+01
  -3.107448e+01   3.412689e+01
  -3.978367e+01  -5.908720e+01
   6.741797e+01  -1.157205e+02
   1.477936e+02  -3.469939e+01
   2.003005e+02   8.680988e+01
   4.973684e+01   1.343033e+02
  -6.645847e+01   1.207306e+02
  -7.667641e+01   3.632813e+00
  -8.492673e+00  -3.870979e+01
   4.117187e+01   3.399677e+01
   5.087902e+01   1.048943e+02
  -9.678498e+01   1.107954e+02
  -2.243950e+02   4.379887e+00
  -1.590666e+02  -1.231342e+02
  -1.233948e+01  -1.287878e+02
   1.201122e+02  -9.678506e+01
   1.447808e+02   2.008611e+01
  -1.590764e+01   4.820420e+01
  -2.372330e+01   8.811828e+01
  -5.377625e+01   1.087450e+01
   3.922593e+01  -5.523520e+01
   8.580468e+01   4.046964e+01
  -2.096650e+01   2.686216e+01
  -1.215348e+02  -1.496215e+01
  -1.155005e+02  -9.728397e+01
   3.369422e+01  -1.881661e+02
   1.539153e+02  -1.586496e+02
   2.323227e+02  -6.593649e+00
   1.600050e+02   1.386411e+02
  -2.388720e+01   2.239733e+02
  -7.423197e+01   1.006881e+02
  -1.346947e+02  -3.584185e+00
  -5.087365e+01  -2.562607e+01
  -7.790316e+01  -2.995116e+01
  -7.339365e+01   2.150585e+01
  -9.007578e+01   1.370728e+01
  -6.160436e+01  -8.614796e+01
   8.441022e+01  -9.962748e+01
   1.283345e+02  -6.184374e+01
   1.425706e+02   8.625797e+01
  -7.510000e+01   1.779529e+02
  -2.038241e+02   6.499292e+01
  -2.191001e+02  -8.358768e+01
  -1.930575e+01  -2.368071e+02
   1.665991e+02  -1.738585e+02
   2.445304e+02  -7.758820e+01
   2.316600e+02   2.335137e+01
   4.210544e+01   1.394335e+02
  -3.477567e+01   9.184968e+01
  -3.805363e+01   3.276567e+01
  -1.159409e+01   5.311832e+01
  -9.577075e+00   8.861481e+01
  -9.781750e+01   9.214722e+01
  -1.353619e+02   1.133502e+01
  -1.150877e+02  -1.885856e+02
  -1.961003e+01  -2.235344e+02
   8.173570e+01  -1.581251e+02
   9.596532e+01  -3.069407e+01
   9.328080e+01   1.486026e+02
   3.987187e-01   1.369090e+02
  -1.297881e+02   1.347763e+02
  -6.880172e+01   1.260023e+01
  -5.242342e+00  -2.395186e+01
   2.158662e+01  -2.907937e+01
  -1.597182e+01  -5.517161e+00
  -7.671257e+01  -6.004916e+01
  -9.524698e+01  -4.474000e+01
   3.474362e+01  -4.868816e+01
   1.694042e+02  -1.968314e+01
   1.435016e+02   8.156067e+01
   4.347777e+01   7.816838e+01
  -1.204089e+02   3.601083e+01
  -1.361000e+02  -1.849178e+01
  -4.623062e+01  -7.585829e+01
   5.870522e+01  -5.041964e+01
   7.502862e+01  -7.651926e+00
  -9.317830e+00   7.057430e+01
  -2.105274e+01   5.199581e+01
  -7.010043e+01  -2.032680e+01
  -1.351428e+01  -3.555559e+01
  -1.440963e+00  -4.475651e+01
  -6.671660e+01  -9.100199e+00
  -5.631588e+01   2.615038e+01
  -5.034065e+01  -5.276077e+01
   5.232474e+01  -1.298836e+02
   8.911811e+01  -1.146638e+02
   1.297909e+02  -1.956889e+01
   8.897473e+01   5.873218e+01
   4.149999e+01   7.283031e+01
  -1.199762e+02   3.995099e+01
  -7.136133e+01  -1.718400e+01
   4.744584e+01  -4.511522e+01
   1.390488e+02   7.803219e+01
   1.136069e+02   1.283176e+02
  -6.182041e+01   1.175208e+02
  -2.202424e+02   7.378715e+01
  -1.495380e+02  -4.115983e+01
  -4.214251e+01  -8.577902e+01
   5.433849e+01   2.584402e+00
   5.262445e+01   1.654834e+01
  -2.961342e+01   8.521642e+01
  -1.184165e+02   1.993986e+01
  -7.814776e+01  -9.904201e+01
   6.758724e+01  -1.299231e+02
   1.005860e+02  -8.090206e+01
   9.660348e+01   1.096398e+02
  -5.654163e+00   2.075536e+02
  -6.189836e+01   1.683561e+02
  -7.710732e+01  -1.440163e+01
  -8.364696e+01  -1.589656e+02
   8.470661e+00  -1.261939e+02
   6.404961e+01  -1.838347e+01
   2.604549e+01  -5.788774e+00
   1.499585e+01   2.776965e+01
   2.607069e+00  -1.525044e+01
   3.156096e+01   6.410183e+01
   1.017701e+02   1.093311e+02
   1.748882e+01   8.523595e+01
   2.738663e+00   2.553986e+01
  -9.099094e+01  -4.439191e+01
  -1.253082e+02  -7.795241e+01
  -5.259466e+01   3.664739e+01
   7.667525e+01  -3.700710e+01
   8.301150e+01   1.738376e+01
   1.991828e+01   1.349322e+01
  -3.656015e+01  -6.426074e+00
  -1.997351e+01   3.406548e+01
  -2.156733e+00   1.404575e+01
  -4.878698e+01  -2.545997e+01
  -5.533559e+01   2.359638e+01
  -1.427955e+02  -5.858218e+00
  -3.439326e+01  -9.163770e+01
   1.398547e+02  -1.002722e+02
   1.701695e+02  -7.323025e+01
   1.385371e+02   4.676446e+01
   2.278285e+01   1.465098e+02
  -9.799378e+01   1.586010e+02
  -1.128645e+02   5.934252e+01
  -2.497773e+01  -1.895478e+01
  -3.537731e+00  -3.648012e+01
  -2.618442e+00   2.150951e+01
  -1.587994e+01   5.519285e+00
  -3.224297e+01  -4.416362e+01
  -2.653338e+01  -1.537953e+02
   1.406360e+01  -1.129451e+02
   8.205384e+01  -6.327765e+00
   9.070671e+01   5.457570e+01
   2.615160e+01   8.915651e+01
  -8.903971e+01   4.427164e+01
  -6.932678e+01  -5.891134e+01
  -3.037570e+01  -1.036799e+02
   2.888476e+01  -9.816491e+01
   8.156834e+01  -6.051100e+00
   5.469997e+01   4.223632e+01
  -4.329355e+01   6.768303e+01
  -2.446119e+01   5.015711e+01
   4.046678e+01  -3.739660e+01
   1.004285e+01  -4.190876e+01
   3.736836e+01  -8.145850e+00
  -7.359191e+01   9.185219e+01
  -1.125432e+02   7.725106e+01
  -4.372195e+01   1.715907e+01
   3.400074e+01  -8.445311e+01
   2.111508e+01  -4.982350e+01
   4.259925e+01  -3.333477e-01
   1.049286e+00   7.610190e+01
  -6.726127e+00   3.819114e+01
  -2.064302e+01  -1.370623e+01
  -2.788631e+01  -5.132813e+01
   3.491889e+01  -5.901499e+01
   2.290071e+01  -1.452478e+01
   5.165927e+01  -1.691283e+00
   4.268661e+01   5.695524e+00
   1.226307e+01  -9.443861e+00
   4.978916e+01   1.742233e+01
  -2.377906e+00   6.271539e+01
   7.880928e+00   7.845202e+01
  -4.969664e+00   3.352680e+01
  -7.516164e+01  -1.767571e+01
  -1.756865e+01  -2.736332e+01
  -1.767367e+01  -2.362022e+01
   3.085302e+01   5.200139e+01
   3.608427e+01   3.060038e+01
  -5.308745e+01   4.380122e+01
  -1.036594e+00   1.756244e+01
  -5.058841e+01  -5.646266e+01
   7.077610e+01  -3.020519e+01
   4.941142e+01  -4.000418e+01
   2.779726e+00  -4.676227e+01
  -6.144599e+01   8.804720e+00
  -3.146591e+00  -2.892714e+01
   2.998588e-01  -6.014733e+01
   8.582363e+01   1.101241e+01
