
 $NMID
 id='ANONYMOUS ', fmtdat='(2E16.6)'
 volume=1.0
 tramp=1.0
 $END
  -3.809282e+03  -2.733197e+02
  -2.749900e+03  -2.148199e+03
   2.505164e+02  -2.647609e+03
   1.762992e+03  -1.235062e+03
   9.722768e+02   2.190067e+02
  -1.811889e+02   3.219128e+02
  -6.749997e+02  -1.907389e+02
   7.388085e+01  -7.915350e+02
   6.479950e+02  -7.987327e+02
   8.383858e+02   3.823315e+01
   5.045867e+02   6.420391e+02
  -2.232353e+02   8.492029e+02
  -5.538196e+02   6.557925e+01
  -3.100417e+02  -5.600634e+02
   1.711796e+02  -7.412829e+02
   4.864598e+02   3.997853e+01
   3.000621e+02   7.880307e+02
  -5.862069e+01   5.760107e+02
  -4.994671e+02   4.264287e+01
  -3.218219e+02  -2.863793e+02
  -9.072851e+01  -2.483533e+02
   1.215045e+02  -2.993038e+02
   1.972033e+02   4.727175e+01
  -1.852823e+01  -1.092320e+02
  -3.496426e+02  -2.804908e+02
  -1.533938e+02  -4.525399e+02
   4.311718e+02  -4.373252e+02
   7.746205e+02   6.586604e+01
   2.767678e+02   5.013216e+02
  -5.465075e+02   4.105217e+02
  -7.941606e+02  -1.249530e+02
  -3.265618e+02  -6.196134e+02
   2.900506e+02  -4.132098e+02
   4.557579e+02  -1.268736e+02
   3.346331e+02   2.289370e+02
   3.726223e+01   4.314799e+02
  -1.660113e+02   2.545313e+02
  -1.384626e+02  -1.063305e+02
   2.417477e+02  -3.036086e+02
   3.960679e+02   1.256234e+02
   1.951082e+02   7.091334e+02
  -3.349593e+02   6.237953e+02
  -5.838306e+02   1.490082e+00
  -2.700584e+02  -4.813629e+02
   2.062303e+02  -2.865647e+02
   2.925318e+02   2.631258e+02
  -5.411533e+01   4.621363e+02
  -5.046525e+02   9.521610e+01
  -5.590099e+02  -3.994297e+02
  -1.000060e+02  -5.597143e+02
   3.845019e+02  -3.374993e+02
   6.254592e+02   9.001646e+01
   3.724463e+02   4.089049e+02
  -1.454807e+02   3.715847e+02
  -3.997106e+02   9.452515e+01
  -2.241973e+02  -1.335149e+02
   2.855168e+01  -8.329216e+01
   7.131202e+01   1.099947e+02
  -1.525483e+02   1.582622e+02
  -3.061234e+02  -5.858825e+01
  -8.316096e+01  -2.753690e+02
   2.241480e+02  -2.368101e+02
   3.419338e+02  -7.571804e+01
   1.897206e+02   1.493396e+02
  -5.056593e+01   2.766175e+02
  -3.098100e+02   3.449812e+02
  -3.855678e+02   1.535819e+02
  -2.667832e+02  -1.936540e+02
  -5.830635e+01  -4.085616e+02
   1.145644e+02  -3.304045e+02
   8.802441e+01  -9.869867e+01
   1.905245e+01  -6.181600e+01
   7.761428e+01  -1.267618e+02
   2.100337e+02  -1.175349e+02
   2.592164e+02   1.175165e+02
   1.496351e+02   3.019086e+02
  -8.420153e+01   2.811899e+02
  -1.528133e+02  -3.408432e+01
  -1.473772e+02  -2.523506e+02
  -9.701250e+00  -2.820861e+02
   2.294096e+02  -3.366902e+01
   2.490531e+02   2.232365e+02
   1.201166e+02   3.527016e+02
  -1.071105e+02   2.886088e+02
  -2.063153e+02   8.933544e+01
  -1.206998e+02  -1.073899e+01
  -6.753922e+01   6.638463e+01
  -2.480428e+02   7.499855e+01
  -4.608381e+02  -1.033822e+02
  -3.474939e+02  -2.961492e+02
   7.902536e+00  -4.699497e+02
   4.013852e+02  -3.829070e+02
   5.211543e+02  -1.576904e+02
   3.168003e+02   1.766761e+02
  -2.269947e+01   2.679799e+02
  -1.628393e+02   2.568316e+02
  -7.436348e+01   4.996063e+01
   1.056658e+02  -5.683308e+01
   1.629221e+02   3.155285e+01
   4.468965e+01   1.950870e+02
  -1.267717e+02   1.292517e+02
  -1.306817e+02  -8.197094e+01
  -4.141219e+00  -1.637302e+02
   1.722756e+02  -1.008827e+02
   1.471917e+02   2.461301e+02
  -1.183944e+01   3.655807e+02
  -2.344328e+02   2.443680e+02
  -3.128784e+02  -8.032756e+01
  -2.576997e+02  -2.433679e+02
  -8.621800e+01  -2.813005e+02
   5.670291e+01  -1.535553e+02
   1.272117e+02  -3.261992e+01
   8.601167e+01   2.050275e+01
  -2.764433e+01  -4.169408e+01
  -2.498655e+01  -1.381721e+02
   1.115248e+02  -9.394150e+01
   1.756016e+02   1.126596e+01
   3.301535e+01   1.022791e+02
  -7.950453e+01   3.207732e+01
  -9.721605e+01  -6.393653e+01
   1.131238e+02  -9.668124e+01
   3.158360e+02   6.319089e+00
   2.246270e+02   1.519569e+02
   4.064145e+01   2.292399e+02
  -2.083761e+02   2.359314e+02
  -2.713465e+02   8.771926e+01
  -1.624153e+02  -2.830261e+01
   6.819491e+01  -4.084394e+01
   9.026471e+01   2.063169e+00
  -2.922046e+01   1.017421e+02
  -2.425396e+02   8.287614e+01
  -2.249184e+02  -9.400264e+01
  -1.017162e+02  -1.970729e+02
   1.302273e+02  -2.067892e+02
   1.703912e+02  -6.247283e+01
   3.280185e+01   3.861400e+01
  -2.769148e+01   6.462454e+00
  -3.751469e+01  -6.976530e+01
   8.682890e+01  -1.371346e+02
   1.907649e+02  -1.187467e+01
   1.843443e+02   1.232077e+02
   5.025345e-02   2.224310e+02
  -1.985505e+02   1.854343e+02
  -1.622532e+02  -3.202698e+00
  -6.242335e+01  -1.048125e+02
   9.786018e+01  -7.841026e+01
   4.667199e+01  -4.159233e+01
   1.516198e+01  -1.284645e+01
  -3.919689e+01   2.138548e+00
   1.259256e+01  -5.447399e+01
   1.178692e+02  -3.747671e+01
   7.820908e+01   1.267606e+02
  -8.862357e+00   2.300056e+02
  -1.397542e+02   1.625922e+02
  -1.773140e+02  -2.327166e+01
  -1.738680e+02  -1.861994e+02
  -2.457757e+01  -2.193414e+02
   1.319303e+02  -1.364961e+02
   1.527434e+02   1.105352e+01
   6.120180e+01   8.445973e+01
   1.004298e+01   4.610047e+01
   4.098851e+01  -1.982916e+01
   2.284036e+01  -5.128578e+01
   1.159768e+02   4.889477e+01
   3.435524e+00   1.079039e+02
  -8.804501e+01   1.027164e+02
  -1.388593e+02  -3.045417e+01
   9.755702e+00  -7.714732e+01
   1.118711e+02  -2.919897e+01
   1.685720e+02   4.889177e+01
   8.292419e+01   1.746563e+02
  -8.214342e+01   1.764432e+02
  -2.462947e+02   1.060365e+02
  -1.874027e+02  -1.306798e+02
  -3.840221e+01  -2.272722e+02
   7.628599e+01  -1.651016e+02
   8.300295e+01  -1.005429e+02
   7.186878e+01  -6.383644e+01
   8.089413e+01  -4.573385e+01
   1.218847e+02  -3.860711e+01
   1.460243e+02   5.467013e+01
   1.599203e+02   1.558247e+02
   6.030792e+00   2.018793e+02
  -1.524901e+02   1.900776e+02
  -2.489727e+02   2.246253e+01
  -9.524567e+01  -8.670098e+01
  -1.170664e+01  -1.846518e+02
   1.013222e+02  -6.230470e+01
   1.957538e+01   1.735172e+01
  -7.586336e+00   2.624774e+01
  -5.603194e+01   3.066827e+01
   2.084239e+01  -2.358717e+01
   9.027618e+01   1.194456e+01
   9.360406e+01   5.745064e+01
  -4.988991e+01   1.114767e+02
  -2.251016e+02  -9.501760e+00
  -1.427069e+02  -2.112465e+01
  -7.829443e+00  -1.054832e+02
   1.674819e+02  -5.759149e+01
   1.841075e+02  -1.754426e+01
   3.385000e+01   9.340257e+01
  -3.667861e+01   6.178585e+01
  -8.343261e+01  -1.946519e+01
   1.235333e+01  -7.523855e+01
   6.767280e+01  -8.055784e+01
   9.645708e+01   1.136628e+01
   5.169815e+01   9.732540e+01
   1.098035e+01   1.081016e+02
   2.079233e+01   3.144946e+01
   8.225355e+01  -4.450888e+00
   9.729134e+00   6.754160e+01
  -1.118885e+01   9.930797e+01
  -1.406436e+02   1.549425e+02
  -1.632953e+02  -2.742343e+01
  -1.303313e+02  -8.061095e+01
  -5.090148e+01  -1.569852e+02
   6.951121e+01  -7.005485e+01
   5.693976e+01  -7.778199e+00
  -2.402037e+01   6.751927e+01
  -1.306142e+02  -6.789227e+01
  -6.521973e+01  -1.212504e+02
   3.421683e+01  -1.375903e+02
   1.898732e+02  -7.706957e+01
   1.550086e+02   5.371464e+01
   4.483199e+01   8.931713e+01
  -4.930552e+01   4.880900e+01
   5.436996e-01   1.597055e+01
   4.695556e+01  -6.177121e+01
   4.951131e+01  -2.166069e+00
   4.067082e+01   1.079804e+02
  -5.685246e+01   1.134470e+02
  -1.387371e+02   4.960242e+01
  -1.824743e+02  -7.377608e+01
   1.937065e+01  -2.214410e+02
   7.878442e+01  -1.246216e+02
   7.296380e+01  -2.840274e+01
   3.945412e+01   1.472348e+02
  -5.476593e+00   6.800913e+01
  -5.504713e+01   3.314924e+01
  -6.370534e+01  -4.262354e+01
   1.178104e+01  -4.564269e+01
  -2.587376e+01  -9.598450e+00
  -4.923384e+01   2.269766e+00
  -7.549528e+01  -7.089619e+01
  -2.115646e+01  -8.976610e+01
   4.275590e+01  -1.422655e+01
   1.457400e+02   1.267410e+01
   1.245465e+02   7.421389e+01
   4.060725e+01   6.537248e+01
  -1.057082e+02   3.687566e+01
  -7.883104e+01   2.723565e+01
   1.051295e+01  -1.497533e+01
   4.305616e+01  -2.962217e+01
   4.781220e+01  -1.337517e+01
  -6.048227e+00  -1.599037e+01
  -2.515271e+01  -5.465321e+01
   3.872343e+01  -4.545757e+01
   7.913177e+01   9.260224e+00
   2.671271e+01   7.845336e+01
  -1.365039e+02   9.704351e+01
  -1.420591e+02   8.394218e+01
  -1.393228e+02  -3.128708e+01
  -6.861671e+01  -1.152198e+02
   7.090183e+01  -1.345017e+02
   1.033450e+02  -3.219895e+01
   6.085492e+01   8.587132e+00
   6.969259e+01  -2.711930e+00
  -6.599212e+00   1.758379e+01
   6.537462e+01  -5.264912e+00
   2.127802e+01   4.100204e+01
   4.313789e+01   1.157202e+02
  -3.525637e+01   7.649773e+01
  -8.985294e+01  -3.910866e+00
  -1.030354e+02  -7.365548e+01
  -6.701342e+00  -6.854616e+01
   6.080182e+01  -6.911974e+00
   7.274986e+01   5.533834e+01
   4.105788e+01   9.862996e+01
  -5.937179e+01   4.204512e+01
  -1.047871e+02  -3.036313e+01
  -4.721883e+01  -3.908305e+01
   3.968583e+00  -8.136583e+01
   2.324459e+01  -4.040922e+01
  -3.618325e+01   1.854828e+01
  -7.114722e+01  -4.580889e+00
  -5.973032e+01  -4.901002e+01
   1.008892e+02  -7.349059e+01
   1.366888e+02  -3.371690e+01
   5.598575e+01   3.715952e+01
  -3.411769e+00   1.132653e+02
  -2.846400e+01   6.180904e+01
  -1.561747e+01   5.691948e+01
   1.665870e+00  -9.771386e+01
   2.258944e+01  -3.504293e+01
   5.001448e+01   2.714530e+01
   8.781825e+00   6.804437e+01
   3.060386e+01   5.030833e+01
  -2.525087e+01  -5.300462e+01
  -1.063478e+01  -3.038330e+01
  -1.486006e+01  -1.661884e+01
  -1.796066e+01   3.231876e+01
  -3.064307e+01   2.763538e+01
  -4.075410e+01  -3.410296e+01
  -1.884470e+01  -5.652294e+01
  -1.599557e+01   2.150124e+01
   7.327391e+00   6.312670e+01
   1.053487e+01   9.779035e+00
  -7.158084e+01   2.269260e+01
  -2.382427e+01   1.319422e+01
  -6.158914e+00  -5.489320e+01
   2.706492e+01  -6.846935e+01
   1.090411e+02  -1.305518e+01
   8.188235e+01   1.465204e+01
  -3.532208e+01   2.672576e+01
  -9.649651e+01  -3.710845e+00
  -1.853780e+01   2.844418e+00
   2.168289e+01  -1.771034e+01
   3.952298e+01   2.873301e+01
   1.000723e+01   2.799489e+01
  -7.424341e+01   2.979735e+01
