
 $NMID
 id='ANONYMOUS ', fmtdat='(2E16.6)'
 volume=1.0
 tramp=1.0
 $END
   1.916341e+03  -3.432120e+01
   1.077998e+03   8.498386e+02
  -3.820367e+02   1.060626e+03
  -9.382140e+02   4.546853e+02
  -4.115514e+02  -2.142335e+02
   1.679701e+02  -2.029685e+02
   3.974951e+02   2.388992e+02
  -1.459366e+02   4.390406e+02
  -2.964120e+02   4.321067e+02
  -5.240999e+02  -1.061265e+02
  -7.620916e+01  -4.563638e+02
   3.394639e+01  -5.518090e+02
   2.487481e+02  -2.657610e+02
   7.565707e+01   3.125299e+02
  -1.416509e+02   2.714690e+02
  -2.006597e+02   3.083439e+01
  -5.815607e+01  -2.238420e+02
   1.602174e+02  -2.254544e+02
   3.258970e+02   1.723118e+02
   2.721427e+02   1.972849e+02
  -1.023216e+02   1.729436e+02
  -1.573428e+02   1.663654e+02
  -8.674100e+01   4.041568e+01
   2.184078e+01   1.211881e+01
   5.653793e+01   1.520827e+02
   1.379395e+02   1.838829e+02
  -1.342560e+02   9.546920e+01
  -3.606249e+02  -1.726206e+02
  -3.034342e+02  -2.531094e+02
   2.482722e+02  -1.681004e+02
   2.243917e+02   1.720515e+01
   5.001483e+01   1.937890e+02
  -1.791744e+02   2.005514e+02
  -3.055473e+02   4.172517e+01
  -7.006621e+01  -1.528947e+02
  -7.045689e+01  -2.043681e+02
   9.265270e+01  -1.207910e+02
   1.798234e+02   4.678579e+01
   1.933141e+01   2.088922e+02
  -2.207745e+02  -4.307312e+01
  -1.298040e+02  -2.220216e+02
   1.285000e+02  -2.325650e+02
   2.619409e+02   8.074232e+00
   4.974244e+01   2.351755e+02
  -1.589260e+02   1.010206e+02
  -1.786437e+02  -2.500790e+02
   3.100052e+01  -3.045100e+02
   2.467938e+02  -1.368229e+02
   2.928367e+02   1.508915e+02
   9.222937e+01   2.870409e+02
  -1.288530e+02   1.438075e+02
  -1.657032e+02  -5.085972e+01
  -5.426890e+01  -1.315118e+02
   7.531913e+01  -1.198086e+02
   1.721206e+02  -1.373464e+00
   9.715997e+01   8.380519e+01
  -5.654329e+01   5.374465e+01
  -7.678659e+01  -7.046581e+00
   8.557171e+01  -6.415601e+01
   1.447677e+02   3.706273e+01
   5.207962e+01   8.754488e+01
  -8.557694e+01   6.663302e+01
  -1.305656e+02   8.340489e+00
  -1.211068e+02  -3.396720e+01
  -3.963390e+01  -1.228894e+02
   7.868963e+01  -1.313819e+02
   1.369474e+02  -5.669327e+01
   1.323227e+02   9.406015e+01
   3.339588e+01   1.977260e+02
  -9.750132e+01   1.293513e+02
  -6.415436e+01   4.875635e+01
  -8.709510e+00   1.278273e+01
  -8.727762e+00   6.132257e+01
  -5.666534e+01   6.513939e+01
  -1.189997e+02  -1.756798e-02
  -1.202831e+02  -1.242761e+02
   1.131239e+01  -1.369775e+02
   1.033403e+02  -1.654769e+01
   3.972020e+01   1.443116e+02
  -5.785593e+01   1.384221e+02
  -1.217236e+02   8.609176e+01
  -1.433788e+02  -7.951003e+01
  -4.533133e+01  -1.656109e+02
   8.208067e+01  -1.562907e+02
   1.008016e+02  -3.337644e+01
   4.810669e+01   1.149885e+01
   1.467593e+01  -1.506917e+01
   1.041382e+02   1.300064e+01
   1.432377e+02   4.644899e+01
   1.755398e+02   6.516092e+01
   3.555357e+01   1.537190e+02
  -1.114455e+02   1.194389e+02
  -1.781363e+02   6.285671e+01
  -1.198124e+02  -1.083266e+02
  -3.252399e+01  -1.392376e+02
   6.963200e+01  -1.263692e+02
   2.034946e+01  -4.863976e+01
  -2.328678e+01   5.456030e+01
  -6.819888e+01   1.106434e+01
  -6.505848e+01  -4.136110e+01
   2.389562e+01  -3.765902e+01
   3.014171e+01  -7.759196e+00
   1.116034e+01   4.282769e+01
  -8.583799e+01   3.381629e+01
  -8.790277e+01  -1.214130e+02
   4.450092e+00  -1.308097e+02
   5.585812e+01  -7.995897e+01
   1.315506e+02   4.363293e+01
   1.424706e+02   9.600148e+01
   7.135447e+01   1.547266e+02
  -4.923090e+01   8.874395e+01
  -1.050496e+02  -6.765434e-01
  -4.077840e+01   1.611619e+01
   2.382435e+01   3.588826e+00
   4.333592e+01   3.655049e+01
   2.050169e+00   3.674471e+01
  -4.733345e+01   3.843242e+01
  -1.300607e+01   1.012777e+01
   4.803651e+01   2.258424e+00
   1.511200e+01   2.809212e+01
  -1.635363e+01   2.429088e+01
  -1.200070e+02   1.508786e+01
  -1.011248e+02  -3.791563e+01
  -2.441357e+01  -1.149325e+02
   9.792888e+01  -1.397415e+02
   1.200135e+02  -8.146883e+01
   6.713362e+01  -4.605987e+00
  -2.729467e+00   4.617105e+01
  -3.329507e+01   2.481097e+01
   9.930353e-01   2.183956e+01
   7.464497e+01   1.803936e+00
   5.080806e+01   2.266450e+01
  -2.318201e+01   4.932629e+01
  -4.247256e+01   2.204499e+01
  -5.754904e+01   1.330412e+01
  -6.804723e+01  -5.807821e+00
   3.870614e+00   4.856797e+01
   1.641443e+01   3.731762e+01
  -4.040585e+01   4.340400e+01
  -7.595235e+01   6.701374e+00
  -6.747659e+01  -7.211065e+01
  -5.832652e+01  -7.913196e+01
   4.292672e+01  -5.059117e+01
   9.804791e+01  -1.758061e+01
   4.727988e+01   6.439644e+01
  -3.676104e+01   3.195629e+01
   3.132000e+00   3.578911e+01
   2.422526e+01   2.157614e+01
   3.383835e+00  -5.271108e+01
   1.246686e+01  -1.484677e+00
   8.718656e-01  -1.591732e+01
  -4.665353e+01  -1.075909e+01
  -6.965803e+00  -6.418289e+01
   7.583885e+01  -8.350276e+01
   9.341701e+01  -1.677993e+01
   9.654518e+01   4.615622e+01
   5.513248e+00   1.489431e+02
  -1.738329e+01   7.184835e+01
  -3.958904e+01   2.708283e+01
  -5.539506e+01  -3.620486e+01
  -2.981777e+01  -1.348038e+01
  -4.734391e+01  -1.614051e+01
  -5.636621e+01  -1.259094e+01
  -3.685353e+01  -6.312702e+01
  -1.721302e+00  -5.623899e+01
   3.878149e+01  -1.258647e+01
   4.124787e+01   1.312999e+01
   4.091280e+01   3.173692e+00
  -4.328320e+01   1.861860e+01
  -7.026007e+01  -5.686462e+01
  -6.626210e+01  -8.808283e+01
   4.574534e+01  -8.701593e+01
   1.246567e+02  -4.980834e+01
   1.483251e+02   4.497378e+01
   3.790389e+01   5.765835e+01
   1.497159e+01   1.107457e+02
  -3.976340e+01   6.624149e+01
   1.151116e+01   8.053689e+01
  -3.294146e+01   6.262527e+01
  -4.652669e+01   2.813785e+01
  -7.226815e+01   7.208857e-01
  -7.853021e+01  -5.915571e+01
  -2.330164e+01  -9.632805e+01
   4.569987e+01  -8.246003e+01
   1.138487e+02   2.198646e+01
   6.866761e+01   5.674520e+01
   1.244022e+01   5.644432e+01
  -1.869776e+01   3.476957e+01
  -3.854729e+01  -2.141826e+01
  -4.779737e+01  -3.039967e+01
   4.360442e+01  -1.672312e+01
  -4.725585e+01  -2.349724e+01
  -6.981293e+00   2.234978e+00
   3.970248e+01   6.192156e+00
   5.381462e-01  -1.109628e+01
   1.113367e+02  -1.986906e+01
   4.735928e+01   7.178187e+00
   1.086430e+01   2.357079e+00
  -3.902166e+01   5.087304e+01
  -7.471992e+01  -1.646931e+01
  -3.589661e+00   3.123032e+01
  -7.110803e+00  -8.139660e+00
   2.296235e+01  -1.506626e+00
   2.199231e+01   5.479993e+01
  -8.704484e+00   1.554286e+01
   1.113407e+01   5.041593e+01
  -7.908538e+00   2.512716e+01
  -3.554863e+01   1.895974e+01
   1.135243e+01   1.203947e+01
  -5.124668e+01   1.716814e+01
  -2.954723e+01  -4.085862e+01
  -4.207196e+00  -5.463909e+01
   1.487986e+01  -8.089308e+01
   3.853557e+01  -8.194994e+00
   5.311375e+01   6.223286e+00
   1.084830e+01  -6.460988e-01
  -4.530901e+01   9.200743e-01
  -2.255837e+01  -1.791275e+01
  -7.679379e+00   1.756286e+01
   6.829433e+01   5.783919e+01
   3.085297e+01   3.448592e+01
  -3.201429e+01   3.222548e+01
  -4.142062e+01   4.518629e+01
  -6.780780e+01  -2.428121e+01
   8.206820e+00   2.688936e+01
   1.381872e+01  -2.117586e+01
   1.486997e+01   9.190035e+00
   4.587078e+00  -3.562565e+01
  -5.598889e+01  -2.565686e+01
  -1.243169e+01  -7.447175e+01
   4.364940e+01  -5.563195e+01
   6.067095e+01  -1.753021e+01
   6.120810e+01   6.299706e+01
   4.024329e+01   6.218659e+01
  -4.453794e+01   4.248699e+01
  -4.964345e+01   1.619299e+01
  -1.830198e+01  -3.373449e+01
   3.372182e+01  -2.751300e+01
  -5.326835e+00   3.869140e+01
   3.578731e+01  -3.793301e-01
   2.194563e+01  -8.615269e+00
  -3.174872e+00  -2.658180e+01
   4.298789e+01   1.934485e+01
   6.172223e+01   5.139107e+00
   2.845627e+00   5.547166e+01
  -5.732851e+01   2.849590e+01
  -4.432836e+01  -4.712728e+01
  -6.849525e+01  -5.699107e+01
  -1.087639e+01  -1.320932e+01
   1.800941e+01  -3.719112e+01
   2.303643e+01  -9.333915e-01
   6.483037e+00   5.997119e+01
   8.066925e+00   3.848126e+01
  -8.662510e+00   3.665271e+01
   1.011277e+01   3.027013e+01
  -3.505262e+00   9.696480e+00
  -4.172053e+01   8.976644e+00
  -8.683010e+00  -1.032512e+01
  -1.322247e+01  -1.994990e+01
   5.183911e+01  -7.116707e+01
   4.217503e+01  -3.362360e+00
   3.985204e+01   2.549864e+01
   6.460095e+01   6.537427e+01
  -3.419016e+01   7.066416e+01
  -4.760096e+01   6.152492e+00
  -2.017012e+01  -2.599475e+01
  -3.069960e+01  -1.892014e+01
  -3.104115e+01  -2.359325e+01
  -1.702467e+01   1.623449e+01
  -4.284188e+01   7.501812e-02
  -4.054964e+01  -6.565702e+01
   1.491422e+01  -6.183305e+01
   4.377621e+01  -7.467601e+00
   2.024715e+01   2.359346e+00
  -6.551218e+00   6.071543e+01
   9.597633e+00   5.417599e-01
  -5.295314e+01  -3.625826e+01
  -2.216461e+01  -3.034378e+01
   4.846978e+01  -3.274293e+00
   7.782155e+01  -3.577822e+00
   5.918950e+00   4.003116e+01
  -4.736258e+00   1.880798e+01
  -4.729230e+01   2.283409e+01
   1.092735e+01   2.794028e+00
   1.708975e+00   3.661370e+01
  -2.119972e+00   4.341398e+01
  -3.125400e+01   5.483393e+01
  -5.560679e+01   1.871950e+01
  -2.994561e+01  -1.030154e+01
  -1.882046e+01  -2.501766e+01
   4.119462e+01  -2.799806e+01
   5.676812e+01  -1.703454e+01
   2.031035e+01   2.891334e+01
   1.041906e-01   3.811229e+01
  -5.414081e+01  -2.175020e+01
  -1.941027e+01  -1.616176e+01
   5.338206e+00  -5.064576e+01
   2.940792e+01   7.451398e+00
   4.802985e+01  -3.088902e+01
  -7.951208e+00   1.108812e+01
   3.320421e+01  -2.069871e+01
   1.311562e+01   6.322073e+00
  -1.144216e+00   2.489234e+01
   2.072560e+01   3.801149e+01
  -2.152081e+01   7.129571e+01
  -4.828089e+01   1.963697e-01
  -1.003128e+01   1.114032e-01
   2.444830e+01  -9.492632e+00
  -5.509431e+00   7.509730e+01
  -2.020087e+00  -5.564024e+00
   2.223002e+01   2.943805e+01
  -5.049657e+01  -2.287647e+01
  -1.952810e+01  -2.846787e+01
   5.635781e+01  -1.586974e+01
   2.161333e+01   3.124617e+01
  -3.459972e+01   1.033841e+01
   4.090233e+01  -2.826760e+01
  -2.260566e+01  -2.095982e+01
  -9.715011e-01  -5.170086e+01
   6.079554e+01  -4.763050e+01
