
 $NMID
 id='ANONYMOUS ', fmtdat='(2E16.6)'
 volume=1.0
 tramp=1.0
 $END
   2.760474e+03   3.277708e+02
   1.900415e+03   1.455946e+03
   2.969872e+01   1.569381e+03
  -1.186471e+03   1.026995e+03
  -4.665749e+02   1.230562e+02
   2.129840e+02  -1.925795e+02
   3.438957e+02  -5.707644e+01
  -3.930627e+01   5.308096e+02
  -4.738497e+02   7.330128e+02
  -7.078452e+02   2.066669e+02
  -4.379790e+02  -3.450286e+02
   1.176815e+02  -4.961054e+02
   3.098240e+02   3.457180e+01
   3.829123e+02   4.043190e+02
  -2.970837e+01   3.347180e+02
  -4.078824e+02  -6.341961e+01
  -3.553113e+02  -5.400711e+02
  -3.264087e+01  -5.383654e+02
   4.567106e+02  -1.861774e+02
   3.591251e+02   6.186208e+01
   2.288435e+02   4.035008e+02
  -9.316732e+01   2.864642e+02
  -4.686595e+01   1.106724e+02
   1.661181e+02  -5.139643e+01
   1.653460e+02   2.343985e+02
  -1.421587e+02   2.372400e+02
  -3.282197e+02   1.407869e+02
  -4.526225e+02  -2.341744e+02
  -1.723967e+02  -8.369965e+01
   2.199403e+02  -1.604999e+02
   4.314026e+02   1.293877e+02
   9.829035e+01   3.213800e+02
  -3.243398e+02   2.728987e+02
  -3.724895e+02   7.158544e+01
  -2.525663e+02  -7.229223e+01
  -4.007471e+01  -3.229125e+02
  -4.955058e+01  -7.134294e+01
  -5.287207e+01   6.787971e+01
  -2.043914e+02   1.442033e+02
  -1.521074e+02  -1.534797e+02
   2.591706e+01  -3.480046e+02
   1.708185e+02  -3.049497e+02
   1.628193e+02  -8.891727e+00
   3.504234e+01   1.733425e+02
  -1.575535e+02   7.094875e+01
  -9.776480e+01  -2.240217e+02
   1.184183e+02  -2.987482e+02
   3.775855e+02  -3.184409e+01
   3.692253e+02   2.750137e+02
   1.283063e+02   3.796661e+02
  -2.229563e+02   2.037128e+02
  -3.880979e+02  -5.124030e+01
  -2.959443e+02  -2.311913e+02
   2.867683e+01  -2.378691e+02
   2.445327e+02  -5.790821e+01
   2.143000e+02   5.116569e+01
   3.664691e+01   3.974218e+01
  -1.410554e+01  -1.547301e+01
   3.641582e+01  -4.288124e+01
   1.304915e+02   1.816155e+01
   5.433422e+01   1.854353e+02
  -1.914089e+02   1.774466e+02
  -2.882179e+02   5.716495e+01
  -2.246647e+02  -9.419341e+01
   3.593759e+01  -3.166696e+02
   2.716636e+02  -3.509689e+02
   2.989319e+02  -1.433222e+02
   1.829928e+02   1.425742e+02
   3.313328e+01   2.659295e+02
  -7.411441e-01   2.016625e+02
   1.504973e+00   1.659585e+02
  -1.850864e+01   9.715350e+01
  -8.115398e+01   1.166951e+02
  -1.779916e+02   6.172019e+01
  -2.032220e+02  -9.450753e+01
  -1.091149e+02  -1.988723e+02
   3.500710e+01  -1.371451e+02
   1.037759e+02   5.447239e+01
   1.129757e+02   2.142349e+02
  -2.232673e+01   2.449404e+02
  -2.311897e+02   5.478485e+01
  -2.813411e+02  -2.121415e+02
  -1.399209e+02  -2.911354e+02
   6.009837e+00  -2.396945e+02
   1.344179e+02  -1.217827e+02
   1.228400e+02  -4.484169e+01
   1.164173e+02  -1.151879e+02
   2.324143e+02  -7.593530e+01
   3.843877e+02   4.654395e+01
   2.770852e+02   2.963373e+02
  -2.249792e+01   4.110201e+02
  -3.460447e+02   3.665094e+02
  -3.775246e+02   1.376083e+02
  -2.751003e+02  -9.104057e+01
   3.536981e+01  -2.033840e+02
   1.188235e+02  -1.169746e+02
   5.108106e+00   3.603710e+01
  -1.037082e+02   1.919946e+01
  -1.020964e+02  -5.119856e+01
   1.010396e+01  -1.367271e+02
   1.272794e+02  -7.006955e+01
   1.149174e+02   4.987959e+01
  -5.180670e+01   1.406506e+02
  -1.667307e+02   1.940333e+01
  -1.364280e+02  -1.846515e+02
   4.939584e+01  -3.026460e+02
   1.763973e+02  -1.824073e+02
   3.171416e+02   9.393281e+01
   1.747724e+02   2.689984e+02
   7.055082e+01   2.485385e+02
  -1.109199e+02   6.422753e+01
  -1.042014e+02   4.042173e+00
  -1.396731e+01   7.530787e+00
   1.369244e+01   7.179516e+01
  -3.275316e+00   1.177483e+02
  -1.111366e+02   8.625152e+01
  -1.240821e+02  -3.244844e+00
  -5.587547e+01  -9.358784e+01
   6.858417e+01  -3.655613e+01
   2.970657e+01   7.527290e+01
  -1.423960e+02   6.634929e+01
  -2.368647e+02  -6.249532e+01
  -2.419768e+02  -1.297565e+02
  -1.735126e+01  -2.458266e+02
   2.269735e+02  -2.114035e+02
   2.323118e+02  -6.574246e+01
   1.051322e+02   9.511783e+01
   2.087722e+01   7.139003e+01
  -2.069373e+01   3.322118e+00
   7.636868e+01  -7.839739e+01
   2.230405e+02   5.385254e+00
   1.290752e+02   1.174627e+02
   3.854310e+01   1.602940e+02
  -8.783881e+01   1.167110e+02
  -1.178727e+02   1.286981e+01
  -5.403537e+01  -1.948640e+01
  -1.578442e+01   2.403478e+01
  -4.032174e+01   1.310739e+02
  -1.192190e+02   1.135905e+02
  -1.775925e+02   1.454181e+01
  -1.757687e+02  -1.356315e+02
   3.959060e+01  -1.971993e+02
   1.412959e+02  -1.163143e+02
   1.664192e+02   1.417412e+01
   5.436554e+01   8.959644e+01
  -4.159296e+01   7.094875e+01
  -6.937234e+01  -2.694202e+01
   1.069111e+01  -1.258081e+01
   7.146405e+01   3.836191e+00
  -6.862970e-01   2.900029e+01
  -6.840490e+01   1.202022e+01
  -1.278874e+02  -8.103155e+01
  -5.910175e+01  -1.127416e+02
   6.764725e+01  -1.278059e+02
   2.392323e+02  -4.091177e+01
   1.368978e+02   9.865958e+01
   3.276990e+01   2.124584e+02
  -9.646957e+01   1.250809e+02
  -1.512074e+02   8.411762e+01
  -8.141855e+01  -7.814102e+01
  -8.114021e-01  -1.823894e+01
  -5.641378e+01   1.374989e+01
  -4.716419e+01   2.323615e+01
  -5.085906e+01  -6.739062e+01
   2.335231e+01  -1.011574e+02
   7.352828e+01  -6.368693e+01
   5.502451e+01   3.004368e+00
  -4.212190e+01   1.093101e+02
  -1.304205e+02   4.030514e+00
  -1.009912e+02  -6.204973e+01
  -5.816364e+01  -1.550001e+02
   1.287907e+02  -1.306381e+02
   2.161428e+02  -6.291209e+01
   1.892239e+02   7.577317e+01
   1.131644e+02   1.287078e+02
  -2.992280e+01   1.481234e+02
  -4.491263e+01   3.155248e+01
  -6.128038e+01   6.880249e+01
  -1.248261e+01   9.552364e+01
  -9.368679e+01   6.515397e+01
  -1.209797e+02  -4.884591e+01
  -1.001476e+02  -1.435788e+02
   2.140880e-01  -1.450640e+02
   7.612227e+01  -1.084327e+02
   1.303402e+02  -4.972599e+01
   4.762448e+01   1.020293e+02
  -1.421170e+01   1.219718e+02
  -1.032012e+02   7.347521e+01
  -3.746688e+01  -2.572170e+01
   1.880022e+01  -4.873370e+01
   1.321312e+01   1.332086e+01
  -1.894025e+01   4.456653e+01
  -5.262102e+01  -1.451925e+01
  -3.613477e+01  -5.249004e+01
   3.314605e+01  -4.023118e+01
   1.631987e+02   7.217342e+00
   1.346429e+02   4.004426e+01
   2.108790e+01   1.074306e+02
  -1.615829e+02   8.749111e+00
  -1.055985e+02  -2.365542e+01
  -6.852941e+01  -5.007107e+01
   3.537452e+01  -6.384702e+01
   1.487404e+01   5.134768e+01
   7.974685e-01   1.115609e+02
  -5.050445e+01   7.064407e+01
  -3.501410e+01   1.405011e+01
  -4.595654e+01  -5.406940e+01
  -3.217795e+01  -6.727271e+01
  -5.196795e+01  -3.786439e+01
  -4.999073e+01  -2.731867e-01
  -4.803018e+01  -5.987919e+01
   5.052777e+01  -9.495624e+01
   8.776958e+01  -9.203163e+01
   1.473655e+02  -6.013929e+01
   7.673644e+01   9.362524e+01
  -2.418518e+01   1.135937e+02
  -1.135872e+02   3.550340e+01
  -6.148978e+01  -9.061349e+00
  -2.134092e+01  -1.970518e+01
   9.020139e+01   4.839743e+01
   4.755945e+01   1.034431e+02
  -4.420871e+01   1.124099e+02
  -1.437269e+02   1.635182e+01
  -1.701307e+02  -2.203693e+01
  -3.506040e+01  -6.099957e+01
   1.043663e+01  -3.866172e+01
   1.875785e+01  -1.015975e+01
  -5.164054e-01   1.384365e+01
  -4.129777e+01  -6.806897e+01
   2.158542e+01  -9.321469e+01
   6.985349e+01  -1.338196e+02
   1.236885e+02  -1.052221e+02
   7.820678e+01   9.296321e+01
   5.519912e+01   1.361043e+02
  -6.574325e+01   1.085289e+02
  -7.445348e+01  -3.382297e+01
  -7.313398e+00  -6.993171e+01
  -7.270531e-01  -1.134887e+02
   5.995616e+01  -5.962501e+01
   7.658152e+01   2.433824e+01
   2.520955e+01  -1.359241e+00
   1.529530e+01   2.909436e+01
   3.945029e+01   7.074721e+01
   5.267016e+01   8.097141e+01
   2.970550e+01   7.724795e+01
  -4.070733e+01   3.680917e+01
  -1.389593e+02  -4.795199e+01
  -1.428732e+02  -8.888378e+01
  -4.506474e+01  -4.408629e+01
   3.955742e+01  -4.746695e+01
   9.015342e+01   7.222279e+00
   6.843153e+01   7.341359e+00
  -6.983557e-01  -6.652921e+00
  -1.275722e+01  -4.644858e+00
   2.691869e+01   3.077920e+00
  -6.556169e+00  -3.648757e+01
  -2.653090e+01  -3.247429e+01
  -3.066960e+01  -8.433907e+00
  -5.877142e+01  -9.799559e+01
   1.281219e+02  -1.030952e+02
   1.673501e+02  -5.653107e+01
   1.239648e+02   3.381750e+01
   1.329614e+00   1.260456e+02
  -9.612854e+01   1.171690e+02
  -7.910500e+01   6.848885e+01
  -7.689935e+01  -1.928700e+01
  -1.316171e+01  -4.418129e+01
  -1.226849e+01  -6.688773e+01
   2.366232e+01  -3.082225e+01
  -3.639038e+01   7.832080e+00
  -9.092491e+01  -8.950449e+01
  -2.707885e+01  -6.441081e+01
   6.481923e+01  -5.378589e+00
   8.389443e+01   5.959715e+01
   1.364191e+01   1.119940e+02
  -8.176744e+01   3.794765e+01
  -9.236819e+01  -2.608800e+01
  -1.761904e+01  -9.194777e+01
   7.750507e+01  -1.059387e+02
   6.077633e+01  -3.621044e+01
   3.474241e+01   3.626777e+01
   5.774327e-01   7.544810e+01
   4.634494e+00   7.077223e+01
  -6.070634e+00   5.308308e+00
   1.499416e+01  -1.389444e+01
   7.343192e+00   5.259228e+01
  -8.636530e+01   4.715754e+01
  -8.629111e+01   7.755040e+01
  -6.912786e+01  -7.873140e+00
  -3.109810e+00  -7.114446e+01
   3.679945e+01  -5.823000e+01
   3.394769e+01  -4.597060e-01
   7.811622e+00   3.687014e+01
  -4.217108e+01   4.228488e+00
  -1.441159e+00  -1.397438e+01
  -3.475186e+01  -3.872532e+01
   1.323340e+01  -3.054230e+00
  -2.756505e+01  -2.701813e+01
   4.484793e+01  -7.389067e+00
  -5.817830e+00   1.945889e+01
  -1.090994e+01   2.121157e+01
  -3.619736e+00  -4.038413e+01
  -4.192931e+01   6.476309e+01
   6.831597e+00  -4.062735e+00
  -2.717722e+01   1.932613e+01
  -5.351209e+01  -4.751396e+01
   3.822028e+00  -6.136934e+01
   6.671034e+01  -5.219395e+01
   3.820975e+01   4.832743e+01
   1.012907e+01   8.230676e+01
  -4.821570e+01   2.628972e+01
  -5.064495e+01   4.402063e+01
  -4.896208e+01  -6.181215e+01
   3.063339e+01  -5.624774e+01
   1.700992e+01  -2.389012e+01
   1.644318e+01  -2.678453e+01
  -7.781058e+00  -2.139225e+01
  -3.412978e+01  -3.270730e+01
   7.659366e+00  -4.423614e+01
   5.244894e+01   1.444795e+01
