
 $NMID
 id='ANONYMOUS ', fmtdat='(2E16.6)'
 volume=1.0
 tramp=1.0
 $END
   2.553032e+03   1.119368e+01
   1.980338e+03   1.452809e+03
   1.346525e+02   1.992075e+03
  -8.288419e+02   1.389470e+03
  -7.762115e+02   5.346542e+02
  -1.908500e+02  -1.071314e+02
   2.611326e+02   1.279649e+02
   2.254853e+02   4.501679e+02
  -4.157825e+02   6.706420e+02
  -5.155239e+02   2.054794e+02
  -3.835661e+02  -5.702239e+02
   8.982682e+01  -6.576061e+02
   3.739232e+02  -2.552395e+02
   1.827299e+02   3.924940e+02
  -2.789323e+02   4.894386e+02
  -1.713643e+02   9.519430e+01
  -1.852424e+02  -5.238096e+02
   6.581773e+01  -5.087034e+02
   4.645788e+02  -1.909983e+02
   3.847503e+02   2.427588e+02
   1.860154e+02   4.523629e+02
  -6.282290e+01   2.985506e+02
  -2.294816e+01   3.819855e+01
   1.744306e+02   4.617434e+01
   2.795094e+02   3.445762e+02
  -1.567696e+02   2.343716e+02
  -4.745885e+02   9.276402e+01
  -5.069555e+02  -1.956720e+02
  -2.993823e+02  -3.305239e+02
   2.372266e+02  -1.434412e+02
   3.886257e+02   1.599960e+02
   6.832406e+01   2.531326e+02
  -3.313664e+02   2.882180e+02
  -4.142950e+02   9.255267e+01
  -3.098717e+02  -1.059997e+02
  -2.105565e+02  -2.471899e+02
  -7.944727e+01  -1.673863e+02
  -1.206973e+02   6.021482e+01
  -1.593465e+02   8.604802e+01
  -9.129394e+01  -2.235909e+02
   1.487442e+01  -4.170056e+02
   2.538976e+02  -3.894515e+02
   2.619839e+02  -5.214076e+01
   1.494629e+02   2.170089e+02
  -6.594603e+01   4.657881e+01
  -4.829268e+01  -2.793182e+02
   1.330345e+02  -3.034947e+02
   3.819442e+02   3.418872e+01
   4.572918e+02   3.061279e+02
   1.027640e+02   4.033740e+02
  -2.642069e+02   2.528379e+02
  -4.121843e+02  -1.209741e+01
  -2.936224e+02  -1.589471e+02
   2.808382e+01  -1.413128e+02
   2.078736e+02  -1.219888e+02
   1.988439e+02  -6.568602e+01
   2.939684e+01  -3.205622e+01
  -3.839724e+01  -4.338783e+01
   9.498768e+01  -2.623387e+00
   1.981428e+02   5.073696e+01
   1.303120e+02   1.713728e+02
  -1.535337e+02   1.647720e+02
  -3.402685e+02   8.807971e+01
  -3.088059e+02  -8.253460e+01
   4.924680e+01  -2.956698e+02
   3.465876e+02  -3.169296e+02
   4.237638e+02  -2.078823e+02
   2.364224e+02   1.022138e+02
   3.046745e+01   2.873950e+02
   1.032731e+01   3.317204e+02
  -4.737461e+01   2.030446e+02
  -5.858575e+01   1.433545e+02
  -2.055933e+02   1.057337e+02
  -2.455518e+02   1.469280e+01
  -2.280625e+02  -1.070724e+02
  -1.006298e+02  -2.455434e+02
   7.853347e+01  -1.830446e+02
   1.581367e+02   2.151825e+01
   9.621892e+01   2.218478e+02
  -4.375774e+01   1.967200e+02
  -2.508688e+02  -3.344594e+01
  -3.203439e+02  -1.666261e+02
  -1.699817e+02  -2.932974e+02
   6.371853e+01  -2.479708e+02
   2.056388e+02  -1.573987e+02
   1.740758e+02  -1.522344e+02
   2.002315e+02  -1.363785e+02
   2.999126e+02  -6.761537e+01
   4.275050e+02   1.613510e+02
   2.898541e+02   3.262956e+02
   3.348929e+00   4.150338e+02
  -3.849258e+02   3.834074e+02
  -4.780709e+02   1.373630e+02
  -2.839290e+02  -4.355373e+01
  -3.430415e+01  -2.280911e+02
   3.730207e+01  -1.285538e+02
   1.390445e+01  -5.941190e+01
  -1.103121e+02   2.813631e+01
  -1.515054e+02  -7.342014e+01
   4.978380e+01  -1.573358e+02
   9.980355e+01  -9.670747e+01
   1.145886e+02   5.832631e+01
  -5.309059e+00   1.294384e+02
  -1.278167e+02   1.531051e+00
  -1.418055e+02  -2.336293e+02
  -3.537587e+01  -3.473849e+02
   2.395245e+02  -2.110423e+02
   3.880453e+02   2.742899e+01
   3.033683e+02   2.612556e+02
   1.165802e+02   2.760841e+02
  -1.156400e+02   1.779811e+02
  -1.761985e+02   7.725382e+01
  -8.015018e+01   3.143001e+01
   1.750145e+01   4.273959e+01
  -1.352380e+01   6.693252e+01
  -1.042028e+02   1.347801e+01
  -1.212756e+02  -2.930182e+01
  -1.944350e+01  -3.945745e+01
   8.505178e+01   3.481742e+01
   7.386037e+01   1.260035e+02
  -1.551513e+02   9.721464e+01
  -3.176353e+02  -8.059778e+01
  -3.200169e+02  -2.097255e+02
  -1.481342e+01  -2.402186e+02
   1.954983e+02  -2.301957e+02
   2.945761e+02  -4.528278e+01
   1.367739e+02   6.550408e+01
  -1.267539e+01   6.264620e+01
  -3.191247e+01   2.636951e+01
   8.403996e+01  -8.921216e+01
   1.877176e+02  -2.717936e+01
   1.754502e+02   7.479924e+01
   5.866343e+00   2.222667e+02
  -8.719417e+01   1.549591e+02
  -1.172241e+02   2.811455e+00
  -2.374364e+01  -6.017140e+01
   6.208577e+01   1.973470e+00
   9.427856e+00   1.792414e+01
  -1.437079e+02   9.366971e+01
  -2.122496e+02   4.164343e+01
  -1.718137e+02  -1.221354e+02
   6.781539e+00  -1.793658e+02
   1.691847e+02  -1.260559e+02
   1.830434e+02  -2.233176e+01
   6.721243e+01   5.319503e+01
  -6.004859e+01   1.008413e+02
  -7.462626e+01   3.588117e+01
  -2.448190e+00  -2.642672e+01
   4.657218e+01   8.602122e+00
  -4.721393e+01  -3.044410e+00
  -5.838873e+01  -3.025440e+01
  -1.330130e+02  -7.466982e+01
  -1.994763e+01  -1.671908e+02
   1.758475e+02  -1.554568e+02
   2.522635e+02  -1.789726e+01
   2.018189e+02   1.673847e+02
   2.461547e+01   2.710696e+02
  -1.108001e+02   1.779307e+02
  -1.263545e+02  -1.362332e+01
  -1.225414e+02  -7.878541e+01
  -6.109093e+01  -6.858289e+01
  -9.977694e+01  -1.732853e+00
  -1.119683e+02   9.465965e+00
  -3.636224e+01  -8.080760e+01
   1.087000e+02  -1.183309e+02
   1.549671e+02  -7.356728e+01
   1.421652e+02   4.447463e+01
  -3.758893e+00   1.604120e+02
  -1.502332e+02   1.048123e+02
  -2.234296e+02  -4.470020e+01
  -1.125485e+02  -1.634829e+02
   6.860232e+01  -1.671933e+02
   2.105319e+02  -8.610023e+01
   2.744338e+02   1.166231e+02
   8.102759e+01   1.781403e+02
  -6.944844e+00   1.712379e+02
  -8.057189e+01   1.088655e+02
  -6.813387e+01   5.634357e+01
  -6.457543e+01   6.746044e+01
  -1.140914e+02   8.804539e+01
  -1.333678e+02  -5.134831e+01
  -1.175092e+02  -1.783115e+02
  -2.840400e+01  -2.500862e+02
   9.017036e+01  -1.481937e+02
   1.357572e+02  -2.703267e+00
   1.342738e+02   1.331087e+02
   1.454489e+01   1.538557e+02
  -3.123240e+01   7.168347e+01
  -4.960339e+01  -2.278786e+01
  -6.728248e+00   8.836416e+00
   5.862284e+01  -3.053758e+01
  -1.594271e+01  -1.611901e+01
  -8.453682e+01  -2.511568e+01
  -5.365340e+01  -2.754992e+01
   5.920213e+01  -5.559298e+01
   1.991594e+02   2.076250e+01
   2.058349e+02   6.581131e+01
   3.000561e+01   1.298735e+02
  -1.136652e+02   7.030071e+01
  -1.414778e+02   3.124366e+01
  -6.102554e+01  -7.017552e+01
   8.974961e+01  -8.959268e+01
   7.461744e+01   4.519458e+01
   2.462502e+00   9.857191e+01
  -5.059019e+01   9.458337e+01
  -9.839399e+01   2.844795e+01
  -3.654179e+01  -6.689880e+01
  -6.936103e+01  -6.468605e+01
  -5.986911e+01  -3.333073e+01
  -4.461690e+01  -3.614819e+01
  -1.707462e+01  -6.657481e+01
   4.514814e+01  -1.307799e+02
   1.281548e+02  -1.192031e+02
   1.263746e+02   2.397734e+01
   1.491621e+02   1.365631e+02
   6.674979e+00   1.426656e+02
  -5.537929e+01   8.786242e+01
  -4.262795e+01  -2.040834e+00
   6.112873e+01   8.365534e+00
   1.293328e+02   4.483187e+01
   4.824460e+01   1.221662e+02
  -8.175471e+01   1.006532e+02
  -1.772491e+02   5.818282e+01
  -1.689636e+02  -1.959855e+01
   9.106212e+00  -7.052257e+01
   4.236865e+01  -4.066156e+01
   4.532680e+01  -9.384896e+00
  -3.787620e+01   5.015236e+01
  -1.028045e+02  -6.565962e+00
  -2.173176e+01  -1.466047e+02
   9.725193e+01  -1.329096e+02
   1.346312e+02  -4.868330e+01
   1.286370e+02   1.037360e+02
   3.850419e+01   2.046894e+02
  -7.876109e+01   1.804587e+02
  -6.867433e+01  -1.826220e+01
  -5.081678e+01  -1.105443e+02
   2.375242e-01  -8.234616e+01
   3.936230e+01   4.683055e+01
   3.702544e+01   1.725425e+01
   1.377066e+00  -1.746367e+01
   2.110615e+01  -6.605919e+01
   4.680880e+01   4.133233e+00
   1.273642e+02   1.124555e+02
   6.449251e+01   1.489514e+02
  -7.092126e+01   7.696234e+01
  -1.301305e+02  -1.122217e+01
  -1.326284e+02  -7.392105e+01
   1.471012e+01  -1.012450e+02
   9.100517e+01  -5.538564e+01
   8.242405e+01  -1.739512e+01
   1.341592e+01   5.063191e+01
  -1.925419e+01   3.373847e+01
  -5.671541e+00  -9.050576e+00
   1.268576e+01  -1.041264e+01
   4.213311e+01  -9.714066e+00
  -5.001593e+01   4.437011e+01
  -6.232055e+01  -2.685504e+00
  -5.453132e+01  -5.605276e+01
   5.797687e+01  -1.168166e+02
   1.129419e+02  -8.492640e+01
   1.350614e+02   3.046145e+01
   2.278141e+01   1.510641e+02
  -8.480604e+01   1.989192e+02
  -1.044219e+02   8.998152e+01
  -1.067228e+02  -2.615886e+01
  -5.404058e+01  -1.025302e+02
   1.077399e+01  -4.394657e+01
   9.037016e-01   6.843230e+00
  -9.129365e+00  -5.021569e+01
   6.301097e+00  -6.414941e+01
  -3.617531e+00  -7.071152e+01
   5.320151e+01   3.322319e+01
   8.117497e+01   1.218542e+02
  -4.740618e+00   1.333338e+02
  -5.024541e+01   1.353315e+01
  -1.137286e+02  -6.731504e+01
  -5.805801e+01  -1.185596e+02
   8.050905e+01  -5.591515e+01
   8.338345e+01   4.613498e+00
   3.366128e+01   6.459819e+01
  -2.525641e+01   7.866390e+01
  -3.601051e+01   3.309293e+01
  -5.390843e+00  -2.412570e+01
   6.331837e+01  -4.124105e+01
   1.022374e+01  -1.561747e+01
  -5.461405e+01   4.350348e+01
  -1.731187e+02   2.093158e+01
  -8.932006e+01  -1.565379e+01
   3.717369e+00  -9.832534e+01
   3.117548e+01  -6.257100e+01
   7.912857e+01  -2.368028e+00
   1.469452e+01   9.537243e+01
  -5.500016e+01   1.003598e+02
  -2.321669e+01   2.845209e+01
  -3.903708e+01  -6.290140e+01
   1.041403e+01  -4.141196e+01
   6.843052e+01   9.982200e+00
   3.301825e+01   1.566127e+01
   2.631109e+01  -3.069357e+01
  -5.313224e+01  -5.733101e+01
  -1.258185e+01  -1.584079e+01
  -5.477830e+01   2.578820e+00
   1.312007e+01   2.860720e+01
  -9.206925e+00   6.919963e+01
  -6.596046e+01  -2.983675e+00
  -2.621086e+01  -6.027714e+01
   2.328058e+01  -1.990908e+01
   2.292683e+01   1.444435e+01
   4.353469e+01   9.215401e+00
  -7.849718e+01   5.504480e+01
  -1.015405e+02   4.236602e+00
  -4.727115e+01  -2.619722e+01
   1.220800e+01  -1.261287e+01
   6.618809e+01  -1.596591e+01
   2.334931e+01   1.131996e+01
  -6.023021e+01   2.953295e+01
  -6.145103e+01   3.816295e+01
  -1.537603e+01  -4.531029e+01
   9.797893e+01  -3.435603e+01
