
 $NMID
 id='ANONYMOUS ', fmtdat='(2E16.6)'
 volume=1.0
 tramp=1.0
 $END
   2.199544e+03   1.155765e+02
   1.461684e+03   1.258849e+03
  -1.561598e+02   1.678641e+03
  -1.047840e+03   5.961883e+02
  -5.341753e+02   1.498442e+01
   1.719558e+02  -2.895287e+02
   3.125102e+02   2.188612e+02
   4.550391e+01   4.694227e+02
  -4.762026e+02   3.622060e+02
  -6.082005e+02  -2.516397e+01
  -3.498534e+02  -2.605132e+02
   9.909166e+01  -4.225501e+02
   3.515054e+02  -1.717753e+02
   2.623811e+02   3.167479e+02
  -1.772240e+02   2.922245e+02
  -2.751016e+02  -1.103177e+02
  -2.193728e+02  -3.868716e+02
  -3.687039e+01  -3.778628e+02
   5.593440e+02  -2.050229e+02
   3.190032e+02   1.774335e+02
  -1.089891e+02   2.842126e+02
  -1.537822e+02   9.183696e+01
  -3.795533e+01   1.488076e+02
   1.407439e+02   8.486751e+01
   1.772229e+02   3.513038e+01
   1.180345e+02   2.991433e+02
  -3.468692e+02   2.174380e+02
  -5.459111e+02  -9.656396e+01
  -3.422979e+02  -3.171159e+02
   2.113807e+02   1.561017e+01
   3.010483e+02   2.139573e+01
   4.262172e+01   2.749763e+02
  -2.343026e+02   2.242462e+02
  -3.179427e+02   1.017505e+02
  -8.432630e+01  -2.286926e+02
  -1.156697e+02  -1.588658e+02
  -1.267620e+01  -6.143136e+01
  -5.561695e+01   7.938529e+01
  -1.051579e+02   1.714736e+02
  -1.995701e+02  -1.454042e+01
  -6.792460e+01  -3.731038e+02
   1.224996e+02  -3.638686e+02
   1.797194e+02   5.152144e+01
   5.783822e+01   2.595875e+02
  -9.989898e+01   7.483723e+01
  -1.252438e+02  -2.194061e+02
   5.868251e+01  -2.506013e+02
   2.893406e+02  -4.737995e+01
   2.915197e+02   2.240689e+02
   9.747630e+01   2.760998e+02
  -1.405025e+02   1.455084e+02
  -2.703061e+02  -6.399433e+01
  -1.832164e+02  -2.011952e+02
   4.367082e+01  -1.752269e+02
   2.191569e+02  -3.746591e+01
   1.969155e+02   4.501241e+01
   2.619019e+01   1.003432e+02
  -2.030795e+01  -3.653745e+00
   5.497981e+01  -2.732318e+01
   1.316749e+02   7.133699e+01
   3.378359e+01   1.268152e+02
  -2.056861e+02   1.281916e+02
  -2.320423e+02   6.047150e+01
  -1.239506e+02  -6.425181e+01
   3.799605e+01  -2.378763e+02
   1.882345e+02  -2.335339e+02
   1.587381e+02  -1.026846e+02
   1.356424e+02   1.177346e+02
   4.097811e+01   2.483065e+02
  -8.299715e+01   2.129397e+02
  -7.361191e+01   9.700302e+01
  -3.737432e+01   4.457216e+01
  -3.982752e+01   6.100526e+01
  -1.137753e+02   7.092500e+01
  -1.179663e+02  -6.944707e+01
  -3.790970e+01  -1.589014e+02
   2.011056e+01  -9.723355e+01
   1.487659e+02   3.251933e+01
   9.646852e+01   1.916878e+02
  -3.748718e+01   1.645405e+02
  -1.634894e+02   2.980410e+01
  -1.738539e+02  -1.279446e+02
  -1.453009e+02  -1.725314e+02
   5.079130e+00  -1.857692e+02
   1.404667e+02  -6.776553e+01
   9.982198e+01  -6.550515e+01
   9.208310e+01  -5.061602e+01
   1.924742e+02  -2.172690e+01
   2.208823e+02   7.164549e+01
   2.098529e+02   1.839302e+02
  -4.664544e+01   2.490451e+02
  -2.405243e+02   2.332670e+02
  -3.375866e+02   1.136712e+02
  -1.685676e+02  -1.180084e+02
   4.577775e+01  -1.610986e+02
   6.048204e+01  -1.243228e+02
  -9.026359e+00  -7.028044e+01
  -7.765432e+01   6.307211e+01
  -1.224845e+02  -9.830840e+00
   1.694737e+01  -8.027921e+01
   7.399755e+01  -1.001622e+02
   3.359971e+01   1.970676e+01
  -4.697203e+01   4.753383e+01
  -4.941466e+01   3.087973e+01
  -4.449890e+01  -8.131478e+01
   4.996837e+01  -2.134168e+02
   1.379475e+02  -1.109435e+02
   1.922161e+02   6.974432e+01
   1.463170e+02   1.860622e+02
   3.910495e+01   1.254800e+02
  -4.676014e+01   8.920521e+01
  -1.463956e+02   1.121600e+01
  -7.013296e+01   4.113986e+00
   3.181104e+01   9.822954e+01
   8.782367e+00   4.492357e+01
  -9.479736e+01   1.168035e+01
  -9.838714e+01   1.303569e+01
  -5.272357e+01  -9.523901e+01
   4.158897e+01  -2.258298e+01
   6.843575e+01   4.471431e+00
  -7.745634e+01  -6.808162e+00
  -1.862694e+02   8.415628e+00
  -1.638472e+02  -5.996155e+01
   2.902732e+01  -1.212935e+02
   1.634311e+02  -1.457440e+02
   1.975195e+02  -9.114171e+01
   1.035304e+02   1.359918e+01
  -3.548332e+01   9.328658e+01
  -1.919727e+01   3.661520e+01
   5.052815e+01  -1.294033e+01
   1.135905e+02   1.996844e+01
   1.768748e+02   6.617131e+01
   4.810158e+00   1.261719e+02
  -9.538137e+01   8.270144e+01
  -9.380588e+01  -2.353088e+01
  -5.202698e+01  -4.593248e+01
   6.169375e+01   8.102217e-02
   5.012707e+01   9.470313e+01
  -8.323900e+01   6.175436e+01
  -1.093219e+02   2.120072e+01
  -1.445650e+02  -8.349565e+01
  -5.902668e+01  -1.322320e+02
   8.738695e+01  -6.352910e+01
   1.566600e+02   7.625819e+00
   2.814038e+00   6.373687e+01
  -7.453587e+01   5.684564e+01
  -8.252545e+01  -1.953979e+01
  -1.885472e+01  -6.252696e+01
   4.150282e+01  -2.154805e+01
   7.439264e+00  -5.247453e+01
  -6.342259e+01  -4.893539e+01
  -9.251829e+01  -3.668812e+01
  -1.613180e+01  -7.422663e+01
   7.526628e+01  -7.434034e+01
   1.531533e+02   2.720650e+01
   1.178243e+02   1.413050e+02
   9.697887e+00   1.350172e+02
  -1.022894e+02   8.748114e+01
  -9.424783e+01  -8.495297e+00
  -2.452977e+00  -3.779847e+01
   1.615516e+00   1.190939e+01
   3.641245e+01   4.554494e+01
  -1.585209e+01   2.622417e+01
  -2.955279e+01  -1.566467e+01
   1.398549e+01  -7.251106e+01
   5.067308e+01  -2.650281e+01
   3.476547e+01   1.839407e+01
  -2.299784e+01   5.762790e+01
  -8.398183e+01   4.434292e+01
  -1.409111e+02  -5.567275e+01
  -7.414195e+01  -1.351612e+02
   7.996105e+01  -1.620617e+02
   1.094963e+02  -4.754605e+01
   1.316141e+02   5.339448e+01
   2.648577e+01   6.337406e+01
   3.837435e+00   8.396070e+01
  -4.006385e+01   1.271689e+01
  -4.900809e+01   5.811358e+00
  -5.389576e+01   3.059231e+01
  -2.102749e+01   4.274227e+00
  -1.732970e+01  -1.189871e+01
  -4.354651e+01  -2.222878e+01
   8.930295e+00  -1.388088e+02
   8.897534e+01  -1.363517e+02
   9.379625e+01   5.680460e+01
   7.303344e+01   9.635521e+01
  -1.293369e+01   1.053386e+02
  -5.872208e+01   6.878318e+01
  -5.598958e+01  -4.685941e+01
  -4.654772e+01  -7.014324e+01
   2.270679e+01  -1.890988e+01
  -5.472419e+00   1.257900e+01
  -3.599162e+01  -1.388349e+01
  -4.219633e+01   1.365499e+01
   2.302932e+01  -1.115582e+01
   1.534324e+02  -4.039327e+01
   8.025416e+01   4.018626e+01
  -2.390438e+01   6.278687e+01
  -1.122185e+02   2.625224e+01
  -1.194583e+02   6.136579e+00
  -1.857851e+01  -4.270749e+01
   2.659413e+01  -4.767635e+01
   7.581178e+01   3.259683e+01
   3.068846e+01   2.874047e+01
  -2.787649e+01   5.059024e+01
  -4.219779e+01   2.345819e+01
  -3.622592e+01  -4.463214e+01
  -2.472957e+01  -1.529560e+01
  -2.662280e+01  -6.541216e+00
  -2.571127e+01   2.505680e+01
   2.651974e+00  -2.483097e+01
   5.087474e+01  -6.878145e+01
   6.807649e+01  -8.505068e+01
   9.259402e+01  -5.828499e+01
   5.764538e+01   1.488538e+01
   1.922767e+01   2.870964e+01
  -9.496482e+01   6.072360e+01
  -4.465291e+01   3.534816e+00
   1.359812e+01   1.338089e+01
   5.197039e+01   7.344263e-01
   2.471761e+01   2.286975e+01
  -1.122995e+02   4.906860e+01
  -1.317223e+02   1.048554e+01
  -9.315253e+01  -5.067021e+01
   1.669093e+01  -4.242960e+01
   2.529845e+01  -5.423637e+01
   2.040045e+01   6.180021e+01
   1.718841e+01   1.707244e+01
  -7.780024e+01  -5.364571e+01
  -8.786702e+00  -6.239288e+01
   6.918681e+01  -8.716315e+01
   1.445968e+02  -4.332821e+01
   1.055473e+02   4.639146e+01
   1.971990e+00   1.248348e+02
  -7.225254e+01   7.227164e+01
  -8.034376e+01  -3.172048e+01
  -1.049333e+01  -6.460059e+01
   1.724386e+01  -4.247922e+01
   1.131876e+01   3.547208e+00
   2.285814e+01   1.733591e+01
  -3.531689e+00   1.463776e+01
  -1.266901e+01  -1.346465e+01
   8.116816e+00   1.890267e+01
   7.137297e+01   6.623035e+01
   6.816773e+01   6.934540e+01
  -2.228200e+01   4.924026e+01
  -8.333170e+01  -2.361169e+01
  -1.094925e+02  -9.491189e+01
  -2.481683e+01  -4.397353e+01
   8.885362e+01   2.407697e+01
   5.177749e+01   1.770635e+00
   3.330901e+01   2.086562e+01
  -4.591423e+01   9.698780e+00
  -5.944750e+01  -4.995675e+01
   1.428650e+01   2.414197e+01
  -4.073459e+00  -3.965158e+01
  -4.934497e+01   2.509739e+01
  -4.528963e+01  -2.047245e+00
  -2.531761e+01  -6.006669e+01
   4.909987e+01  -7.389115e+01
   1.159603e+02  -4.565244e+01
   8.931943e+01  -3.493884e+00
   1.956629e+01   9.779376e+01
  -5.476368e+01   7.614755e+01
  -9.975429e+01   3.053441e+01
  -7.812053e+01  -1.675504e+01
  -8.203843e+00  -2.441426e+01
   1.780358e+01  -4.613114e+01
  -3.487574e+01   4.724856e+00
  -8.574940e+00  -2.929177e+01
  -1.729818e+01  -7.037922e+01
   3.503883e+01  -5.797755e+01
   3.015040e+01  -6.526803e+00
   7.430423e+01   5.813618e+01
   2.890912e+01   1.038327e+02
  -3.987340e+01   3.044761e+01
  -5.942187e+01  -5.271607e+01
  -4.627590e+00  -5.618517e+01
   6.396345e+01  -6.366601e+00
   3.990167e+01  -2.938231e+01
   6.851960e+00   4.653225e+01
  -4.999966e+01   4.772675e+01
  -5.163444e+01  -1.678502e+01
   1.140257e+01  -1.770830e+00
   5.858671e+01  -2.533509e+01
   5.471112e+01  -1.355239e+01
  -5.714860e+01   9.951742e+00
  -1.052391e+02   3.694016e+01
  -6.872609e+01  -3.438643e+00
   3.261297e+01  -5.174524e+01
   8.261101e+01  -4.235013e+01
   5.117363e+01  -1.559626e+01
  -1.486927e+01   7.908102e+01
  -3.376919e+01   7.955487e+01
  -5.325878e+01   2.732244e+00
  -3.570573e+01  -5.666229e+01
   4.138095e-01   3.592577e+01
   1.062640e+01   1.905366e+01
   8.483838e+01   6.986429e+00
   8.322263e+00   3.951201e+00
  -1.891654e+01  -2.058948e+01
  -2.226555e+01   2.040057e+01
  -3.292877e-01  -1.774462e+01
  -1.602748e+01   5.821906e+01
  -6.763626e+00   5.289275e+01
  -3.755688e+01  -2.398280e+01
  -6.655320e+01  -1.320802e+01
   6.621274e+01   4.684988e+00
   5.258995e+01   1.269766e+01
   4.193831e+01   3.239941e+01
  -2.135226e+01   3.861370e+01
  -6.889507e+01   1.875551e+01
  -4.642110e+01  -1.709836e+01
   2.735273e+01  -5.505698e+01
   6.438299e+01  -1.225983e+01
   4.680208e+01  -8.441282e+00
   3.112966e+01   1.506306e+00
  -4.703919e+01  -6.855535e+00
   4.052473e+01  -5.497718e+01
   3.479217e+01  -5.198841e+01
