
 $NMID
 id='ANONYMOUS ', fmtdat='(2E16.6)'
 volume=1.0
 tramp=1.0
 $END
  -8.066319e+02   2.001286e+02
  -4.400587e+02  -3.757037e+02
   1.780307e+02  -3.635560e+02
   3.979856e+02   7.210968e+01
   5.756613e+01   2.121347e+01
  -2.032954e+02   7.366909e+01
  -1.720582e+02  -4.905731e+01
   5.038293e+01  -2.153557e+02
   2.554478e+02  -1.251711e+01
   3.635080e+01  -2.117012e+01
   3.066509e+01   8.331069e+01
   2.732388e+01   6.888109e+01
  -3.771778e+01   5.113242e+01
   2.335689e+01  -8.479927e+01
  -2.524437e+01  -1.956646e+02
   1.614403e+01   4.069629e+00
  -8.198511e+01  -2.712837e+01
  -2.919831e+01   4.096265e+01
  -4.164388e+01  -1.510489e+02
  -8.767766e+01  -2.834846e+01
  -3.139893e+01  -7.660752e+01
   9.121895e+01  -1.456843e+01
   1.224504e+00   8.207286e+01
  -3.299375e+01   5.267821e+00
  -1.572563e+02  -5.579700e+01
   2.775999e+01  -6.693361e+01
   4.375898e+01  -1.072153e+02
   1.474957e+02   9.816233e+00
   4.798142e+01   1.057276e+02
  -1.047508e+02  -8.348879e+00
  -9.541234e+01  -1.120963e+02
   1.985168e-01  -7.974159e+01
   2.509958e+01  -6.483698e+00
   4.957461e+01   3.945731e+01
   2.145048e+01   1.908814e+01
  -1.225474e+01  -6.904803e+00
  -2.277170e+00   1.501682e+01
   1.106460e+01   1.409671e+01
   6.321684e+01  -7.009737e+01
   3.892205e+01  -3.232322e+01
   5.969040e+01   7.616501e+01
  -6.101130e+01   9.847419e+01
  -8.024291e+01   4.934838e+01
  -3.618175e+01  -4.574834e+01
   1.074291e-01  -6.554163e+01
   5.500968e+01   2.946088e+01
   3.000576e+01   2.208723e+01
  -4.712386e+01   2.255692e+01
  -3.529241e+01  -1.297598e+01
  -3.119952e+00  -8.945584e+00
   2.522737e+01  -1.316043e+01
   4.221982e+01   3.333624e+01
   6.011422e+01  -1.880957e+01
  -1.477621e+01   1.563686e+01
  -4.138437e+01   1.461840e+01
  -3.910520e+01  -1.901411e+01
  -2.257092e+00   2.301694e+01
  -1.611425e+01   5.442078e+00
   9.859910e+00  -4.376444e+01
  -3.795471e+00  -4.889631e+01
   4.006317e+01  -1.029935e+01
   4.171312e+01   2.438320e+01
  -6.270897e+01   3.793532e+01
  -3.130300e+01  -4.655688e+01
   2.189708e+01  -3.784587e+01
   3.224102e+01  -8.381403e+00
   7.012891e+01   3.811289e+01
  -2.358800e+01   4.521183e+00
  -1.039699e+01  -2.694710e+01
   6.358776e+00   1.719654e+01
   1.135079e+01   3.306223e+00
  -5.255068e+01   1.868467e+01
   1.824958e+00  -8.757311e+00
   1.179960e+01  -3.337903e+01
   3.687223e+01   3.617624e+01
   3.213800e+01   1.494414e+00
  -1.846883e+01   7.822636e+00
  -8.858256e+00   2.235561e+01
   5.595663e+00   3.599827e+01
  -1.334015e+01  -2.244652e+01
  -5.811607e+00  -2.562156e+01
   3.955288e+01  -2.929523e+01
   7.561809e+00  -1.567298e+01
   3.304658e+01   4.534475e+01
  -2.573121e+01   1.939442e+01
  -3.351469e+01   2.090191e+00
   8.388943e-01   1.276147e+01
  -7.319146e+01  -1.833028e+01
   9.897302e+00  -2.411917e+01
  -9.355489e+00  -1.039586e+01
  -8.121907e+00   6.664108e+00
   9.054118e+00  -9.980401e+00
  -2.767122e+01   4.064064e+00
   4.755254e+01  -3.670656e+01
  -8.990690e+00  -7.993067e+00
  -3.482436e+00   3.091378e+01
  -2.996186e+01   3.938030e+01
   1.679555e+00  -4.396433e+01
   5.373132e+01  -3.576867e+01
   1.106840e+01   3.987227e+01
  -4.614921e+01   3.331069e+01
  -2.167863e+01   4.285579e+00
   2.504561e+01  -8.836536e+01
   2.722787e+01  -2.509575e+01
  -9.337347e-02   4.757820e+01
   2.357691e+00   8.449517e+00
   1.042360e+00  -3.389759e+00
   5.520409e+00   9.969642e+00
  -1.468437e+01   3.411497e+00
  -7.386068e+00   7.458301e+00
   3.905715e+01  -2.015106e+01
   4.224407e+01  -2.730945e+01
  -1.094906e+01   1.691831e+01
  -7.084217e+00   1.054549e+01
  -1.318669e+01  -8.131705e+00
  -1.798029e+01  -2.142504e+01
   2.378952e+01  -1.291250e+01
   8.161832e+00  -6.699631e-01
   1.591609e+01  -3.123301e+01
   1.656371e+01  -1.123982e+01
   5.432890e+01   4.497209e+00
   6.364092e+00   5.854401e+01
   1.543497e+01   4.712904e+01
  -4.264989e+01   1.123359e+01
  -4.008309e+01   1.407380e+01
   7.267706e+00   8.611078e+00
  -3.281522e+01   2.898800e+01
   2.649008e+01  -1.324835e+01
   3.198336e+01  -2.213059e+01
  -1.773618e+01  -6.325876e+00
   1.339615e+00   1.021113e+01
  -2.450814e+01  -3.030396e+01
  -7.718741e+00  -4.153803e+01
   6.914225e-01  -2.578793e+01
  -9.022025e+00  -1.670825e+01
   1.772982e+01   8.152662e+00
   2.546075e+01  -4.720903e+00
   1.360974e+01   2.526113e+01
   1.071502e+01   2.881589e+01
   5.392061e+00   4.378152e+01
  -1.631745e+00   9.847902e+00
  -1.337033e+01   1.851298e+01
  -4.460091e+01   2.200447e+01
  -6.496956e+00  -1.266833e+01
  -2.876496e+01  -4.152416e-02
   2.379178e+01   4.889115e+00
  -5.491910e+00  -4.856983e+01
  -7.484310e+00  -9.707805e+00
   1.282136e+01  -4.564343e+00
   2.411650e+01   2.276477e+01
   3.784444e+01   2.038852e+01
   7.324494e+00   9.986327e-01
  -7.875278e+01   3.691826e+01
  -4.697479e+01   3.073569e+01
   1.755770e+01  -2.925172e+01
   1.212090e+01  -4.307298e+00
  -1.250607e+01  -2.725989e+01
  -4.445830e+00  -1.737211e+01
   3.711964e+01   6.663860e+00
   3.123081e+01  -1.734274e+01
   8.835430e+00  -1.881445e+01
   1.091798e+01   2.178573e+01
   1.950747e+01  -1.178838e+01
  -3.460502e+01  -1.135047e+01
   1.188803e+00  -2.955211e+01
  -3.332882e+00   1.840562e+01
   1.639299e+01   5.944250e+00
  -3.279361e+01  -2.447514e+01
  -5.447725e+00   1.438323e+00
   1.156299e+01   3.271309e+00
   1.137126e+01   4.017666e+00
  -3.255843e+01   4.929682e+01
  -4.789569e+01   5.514600e+01
   8.620717e+00  -3.126808e+01
  -1.548232e+01  -1.718329e+01
  -1.940697e+01  -2.951715e+01
  -2.115365e+01   1.368210e+01
   2.163834e+01  -2.458382e+01
   3.186356e+01  -4.144593e+01
   2.772848e+00   6.856591e+00
   9.609253e+00   2.358680e+01
  -1.012885e+01   2.156596e+01
   3.008202e+00   5.268170e+00
  -1.780144e+01   1.224140e+01
  -6.847701e+00   3.318055e+00
   5.355777e+00  -7.940721e+00
  -8.859250e-01  -3.272368e+00
   4.341604e+00  -1.217755e+01
  -1.437920e+01   2.893099e+01
   2.920816e+01  -1.193453e+01
  -1.506823e+01   1.485891e+01
   2.119605e+01   1.752135e+01
   1.250347e+01   1.564561e+00
  -2.485970e+01   1.392812e+01
  -3.702089e+00  -1.388307e+01
  -7.144168e+00  -1.354508e+01
  -6.167078e+00  -1.499835e+01
  -5.342079e-01  -1.716789e+00
   1.171991e+01  -2.621709e+01
  -1.332523e+00  -5.048879e+00
   2.539671e+01  -3.643464e+01
   7.365027e-01   4.417748e+01
  -1.459332e+00  -8.629563e+00
  -2.618837e+01  -2.700158e+01
   1.663180e+01   6.861950e+00
  -2.444029e+00   9.776407e+00
   3.407988e-01   3.718101e+01
   3.823950e+01  -6.520158e+00
   1.911915e+01  -1.817431e+01
  -1.070542e+01   1.097799e+01
   6.345728e+00   1.992819e+01
   1.184639e+01   1.477217e+01
  -3.615555e+01  -2.010809e+01
  -5.338844e+01   2.758998e+01
  -3.641786e+01   1.589258e+01
  -3.198452e+00  -5.212116e+01
  -4.318259e+01  -5.481214e+01
  -1.930131e+01   6.513998e+00
  -1.351237e+01   1.535655e+00
  -5.831383e+00  -5.558237e+01
  -1.962682e+01  -1.255511e+01
   2.412958e+01   1.043147e+01
   2.931162e+01   9.517349e+00
  -9.531826e+00   2.627852e+01
  -1.179463e+01   6.430890e+00
  -1.510964e+01   2.499085e+01
  -6.271483e+00   7.704365e+00
  -1.155272e+00  -9.487738e+00
   4.409146e+00   1.292455e+01
  -3.874181e+00   3.572327e+01
   5.444017e+00  -2.780560e+01
   3.692612e+01  -2.029337e+01
  -4.051253e+01  -2.008917e+01
  -4.117187e+00  -3.282974e+00
   2.864530e+01   2.012001e+01
  -2.708897e+00  -3.039105e+01
   5.853484e+00  -1.270726e+01
  -3.099861e-01  -2.564754e+01
  -1.114561e+01  -3.617462e-01
  -1.626055e+01  -7.793542e-01
   4.664557e+01  -3.554235e+01
   5.218623e+01  -6.094894e+01
   9.002803e+00  -2.621627e+01
  -1.644486e+01   2.583773e+01
   5.604683e-01  -6.502397e+00
   5.324002e+00  -2.593228e+01
  -1.299912e+01  -1.400270e+01
   1.341945e+01   1.145666e+01
   6.489316e-01   2.359167e+01
  -2.258702e+01  -3.097932e+01
   3.439458e+00  -2.280546e+01
  -1.129640e+01  -2.719941e+01
  -3.785509e+00   1.430973e+01
   7.435262e+00   2.499824e+01
   2.487581e+01   2.953799e+01
  -1.231344e+01   4.160470e+01
   1.392280e+00   3.743285e+01
   6.035054e+01   2.690075e+01
   2.920662e+01   2.797276e+01
  -7.986186e+00   1.518232e+01
  -2.014686e+01   1.776497e+01
   1.033496e+01  -2.236436e+01
  -3.804117e+00  -2.443142e+01
   1.104701e+01  -2.455649e+01
   1.818798e+01  -1.048427e+01
   2.002609e+01   2.325235e+01
  -6.217490e+00   4.748115e+01
  -1.358587e+01  -5.739647e+00
  -1.686539e+01  -2.571594e+01
   5.228682e+01   3.571388e+00
  -1.493500e+01  -3.091179e+00
  -1.142196e-01   8.322054e+00
  -1.751113e+01  -1.908129e+01
   1.369072e+01  -3.286915e+00
   1.698012e+01  -8.275781e-01
   8.956825e+00  -3.192192e+00
  -2.247188e+01  -2.895204e+01
  -3.607965e+01  -2.081241e+01
  -1.246519e+00   5.294488e+00
  -2.144500e+01  -2.991717e+01
   8.122677e+00   1.195881e+01
   1.598057e+00  -2.230719e+01
   1.136960e+01  -4.575345e+00
   1.743219e+01  -4.088564e+01
  -1.776131e+01  -1.729854e+01
   1.553824e+01   1.197955e+01
   6.286436e+01  -2.091613e+01
   1.697124e+01   1.689056e+01
   4.149529e+01   1.101884e+01
  -1.846520e+01   2.157187e-01
   3.909379e+01  -1.308829e+01
  -3.447453e+01  -2.670183e+01
  -4.945554e+00   5.073590e+00
   4.903092e+00  -1.173045e+01
   2.290558e+01  -2.344630e+01
   1.923875e+01   1.821713e+01
   1.498898e+01   2.131063e+00
   9.127069e+00  -2.010122e+01
   6.164025e+00   1.099756e+01
  -1.786506e+01   3.153560e+01
  -1.288478e+01   4.318228e+01
   1.267472e+01  -2.859252e+00
   2.879952e+01  -3.180677e+00
   2.184159e+01   2.404073e+01
   4.545808e+01   2.903520e+01
   1.607898e+01   3.849713e+01
   2.325594e+01  -4.994720e+00
   5.678952e-01  -9.438954e+00
  -1.300003e+00   1.133986e+01
   9.123711e+00  -1.548560e+00
  -3.321626e+01   9.858030e+00
   2.612299e+00   2.910989e+01
  -3.323357e+01   3.673456e+00
  -2.171164e+01   2.244455e+01
   8.482856e+00   1.767881e+01
   1.739687e+01   7.340481e+00
  -2.836503e+00  -2.785500e+00
   2.458338e+01   4.566802e+00
  -2.654476e+01  -1.603302e+01
  -4.071399e+01   5.188432e+00
