
 $NMID
 id='ANONYMOUS ', fmtdat='(2E16.6)'
 volume=1.0
 tramp=1.0
 $END
   2.973020e+03  -5.395142e+02
   2.276441e+03   2.156582e+03
  -5.873340e+02   2.366889e+03
  -1.546079e+03   7.395125e+02
  -8.132567e+02  -4.143490e+02
   2.646210e+02  -6.045056e+02
   6.034454e+02   3.062275e+02
   8.302271e+01   7.977628e+02
  -5.167704e+02   5.653631e+02
  -7.029331e+02  -7.841379e+01
  -4.337199e+02  -6.317715e+02
   1.904656e+02  -6.194991e+02
   4.631425e+02  -2.069066e+02
   2.578448e+02   4.832969e+02
  -1.222629e+02   6.076942e+02
  -6.315830e+02   8.714584e+01
  -2.827197e+02  -6.301339e+02
   3.147978e+02  -6.092518e+02
   5.822882e+02  -1.645930e+02
   2.951462e+02   1.701661e+02
   7.162357e+01   3.200019e+02
  -1.700595e+02   2.599751e+02
  -7.648756e+01   7.684409e+01
   6.361163e+00   2.005642e+01
   2.675634e+02   1.141141e+02
   2.028147e+02   3.018450e+02
  -4.616269e+02   3.045489e+02
  -6.663072e+02   2.187757e+01
  -4.345168e+02  -3.837623e+02
   2.417107e+02  -3.268615e+02
   6.815439e+02   5.344120e+01
   3.177787e+02   4.272610e+02
  -1.796976e+02   2.772676e+02
  -4.076383e+02   6.463306e+01
  -3.183902e+02  -2.592873e+02
  -5.749514e+01  -3.368698e+02
   1.139646e+02  -1.959291e+02
   2.292429e+00   1.822560e+02
  -1.163388e+02   3.248713e+02
  -2.627571e+02  -4.049952e+01
  -1.686384e+02  -5.204489e+02
   1.723673e+02  -5.332288e+02
   3.115042e+02  -2.041180e+01
   1.290737e+02   4.059155e+02
  -2.010687e+02   2.528521e+02
  -2.224899e+02  -2.441474e+02
   3.564403e+01  -4.079073e+02
   3.839741e+02  -1.038778e+02
   4.031104e+02   3.231335e+02
   1.614526e+02   4.032538e+02
  -2.874740e+02   2.979896e+02
  -4.856586e+02  -4.871859e+01
  -3.561289e+02  -2.368666e+02
   5.205559e+01  -2.766685e+02
   3.383672e+02  -1.045087e+02
   2.400636e+02   1.239866e+02
  -9.543774e+00   8.395132e+01
  -9.246204e+01  -5.243143e+01
   9.179936e+01  -1.210270e+02
   2.175583e+02   4.544248e+01
   1.209737e+02   2.057054e+02
  -1.376591e+02   2.189632e+02
  -2.353558e+02   6.019863e+01
  -1.657122e+02  -7.277023e+01
   5.390237e+01  -1.957722e+02
   1.831193e+02  -2.734639e+02
   2.896090e+02  -1.851772e+02
   1.935546e+02   1.503546e+02
   6.754949e+01   3.335407e+02
  -3.044812e+01   3.194477e+02
  -4.557484e+01   1.263675e+02
  -2.519249e+01   3.840810e+01
  -7.416281e+01   8.735859e+01
  -2.023063e+02   1.152774e+02
  -2.401602e+02  -6.519842e+01
  -8.103083e+01  -2.378728e+02
   1.182577e+02  -1.696119e+02
   1.593713e+02   8.318231e+00
   1.560950e+02   1.952742e+02
  -1.338873e+00   1.886113e+02
  -1.760457e+02   7.722115e+01
  -2.747245e+02  -1.473157e+02
  -1.653640e+02  -2.921632e+02
   8.533636e+01  -2.700332e+02
   2.078462e+02  -5.196481e+01
   1.460950e+02   3.989230e+01
   1.112531e+02  -4.903488e+00
   1.926546e+02  -5.004401e+01
   3.183002e+02   3.883524e+01
   2.000198e+02   2.319901e+02
  -1.839302e+01   3.924706e+02
  -3.230359e+02   3.473827e+02
  -3.968774e+02   1.680353e+02
  -2.767597e+02  -9.087326e+01
  -1.674245e+01  -2.637324e+02
   1.341719e+02  -2.705078e+02
   7.790434e+01  -4.858734e+01
  -1.204381e+02   5.178991e+01
  -1.582397e+02   6.167458e+00
  -9.631746e+01  -1.004352e+02
   1.361384e+02  -1.562829e+02
   1.695268e+02   1.135871e+01
  -9.516488e+00   1.252345e+02
  -1.594426e+02   4.514421e+01
  -1.641969e+02  -1.658861e+02
   2.074679e+01  -3.223057e+02
   1.958585e+02  -2.035205e+02
   2.877418e+02   4.090791e+01
   2.360285e+02   1.910222e+02
   7.607980e+01   2.271897e+02
  -9.358642e+01   1.436711e+02
  -1.156154e+02  -1.046495e+01
  -5.522879e+01  -3.046181e+01
   8.110577e+01   2.467118e+01
   2.714826e+01   1.387770e+02
  -1.084851e+02   8.896090e+01
  -1.500219e+02  -2.240423e+01
  -5.333206e+01  -4.379831e+01
   7.952849e+01  -2.547093e+01
   4.477594e+01   9.954277e+01
  -8.241644e+01   1.467089e+02
  -2.735959e+02   3.276712e+01
  -2.128659e+02  -1.506323e+02
  -5.064794e+01  -2.159143e+02
   1.142077e+02  -2.302811e+02
   2.600972e+02  -8.731531e+01
   1.344306e+02   3.549286e+01
   1.615595e+01   7.084035e+01
  -5.656174e+01  -4.265698e+01
   2.876736e+01  -6.436839e+01
   1.831342e+02  -8.522920e+01
   2.183397e+02   1.210102e+02
   1.209897e+01   1.919814e+02
  -5.138271e+01   1.710009e+02
  -1.365852e+02   7.196995e+01
  -3.483023e+01  -2.167933e+01
   1.556845e+01   4.204961e+01
   2.143853e+01   5.832416e+01
  -7.851803e+01   7.655386e+01
  -1.568641e+02   2.180962e+01
  -1.922916e+02  -1.200826e+02
  -2.655484e+01  -2.030488e+02
   1.562833e+02  -1.435917e+02
   1.240868e+02  -3.454825e+01
   7.838595e+01   1.019069e+02
  -4.643047e+01   7.231909e+01
  -5.521289e+01  -1.305027e+01
  -1.681744e+01  -3.943460e+01
   1.267840e+01  -2.539554e+01
   9.039173e+00   2.444696e+01
  -6.744096e+01   8.705192e+00
  -5.823671e+01  -6.294700e+01
   2.161908e+01  -1.654874e+02
   1.226076e+02  -1.130615e+02
   2.043473e+02   2.826385e+00
   1.526838e+02   1.656422e+02
  -8.029236e+00   1.832312e+02
  -1.173288e+02   1.421562e+02
  -1.185656e+02   7.409539e+00
  -3.098523e+01  -1.058350e+02
  -5.749706e+01  -6.406657e+01
  -5.981496e+01   3.059687e+00
  -4.806120e+01   2.392640e+01
  -3.413115e+01  -3.601698e+01
   5.331714e+01  -6.026525e+01
   1.495589e+02  -1.342772e+01
   1.055976e+02   5.706930e+01
  -3.149795e+01   1.364805e+02
  -1.068944e+02   8.228867e+01
  -1.878089e+02  -6.740536e+01
  -1.202909e+02  -2.064587e+02
   6.513532e+01  -1.789714e+02
   2.242546e+02  -8.833829e+01
   2.173397e+02   5.160194e+01
   7.749436e+01   1.624165e+02
  -4.960182e+01   1.445621e+02
  -4.718031e+01   7.050083e+01
  -9.143245e+01   6.596513e+01
  -5.024314e+01   6.523578e+01
  -8.219925e+01   9.898011e+01
  -1.173712e+02  -2.692244e+00
  -9.633200e+01  -1.324119e+02
  -2.332818e+01  -1.897884e+02
   6.361773e+01  -1.676163e+02
   1.220335e+02   9.048069e+00
   9.478224e+01   8.080352e+01
   3.873046e+01   1.503381e+02
  -4.905940e+01   7.261824e+01
  -3.043758e+01   3.483897e+01
   1.059593e+01  -5.640323e+01
  -2.489954e+01   6.318143e+00
  -8.623820e+01   1.942227e+01
  -9.908355e+01  -2.549385e-01
  -4.768448e+01  -4.100051e+01
   7.823565e+01  -4.641300e+01
   1.504497e+02   2.999703e+01
   1.454932e+02   5.394264e+01
  -1.630538e+01   9.050626e+01
  -1.246880e+02   7.767783e+01
  -1.549811e+02  -1.813891e+01
  -9.586027e+01  -6.246255e+01
   3.617108e+01  -4.358170e+00
   5.425919e+01   1.653976e+01
   4.593727e+01   3.581484e+01
  -2.875397e+01   3.184946e+01
  -1.814519e+01  -8.607825e+01
  -3.535500e+00  -9.343739e+01
  -1.470838e+01  -1.836804e+01
  -3.150617e+01   7.214520e+01
  -7.438805e+01   2.656165e+01
  -6.182082e+01  -4.479238e+01
   1.296820e+01  -1.495620e+02
   1.071548e+02  -1.337574e+02
   1.555782e+02  -4.303631e+01
   9.365221e+01   1.068705e+02
  -3.183179e+01   6.434786e+01
  -1.094244e+02   1.557503e+01
  -7.652354e+01   2.238388e+01
   2.415255e+01  -1.306562e+01
   9.931573e+01   1.066280e+00
   5.535320e+01   4.453137e+01
  -7.690944e+01   1.252550e+02
  -1.549247e+02   4.921860e+01
  -1.970971e+02  -5.544376e+01
   7.460779e+00  -8.689448e+01
   6.721488e+01  -6.781401e+01
   3.915787e+01   1.890907e+00
   2.968199e+01   2.637492e+01
  -9.647260e+01  -1.113606e+01
  -1.890400e+01  -1.018973e+02
   7.194445e+01  -6.660394e+01
   1.470112e+02  -2.468547e+01
   8.577901e+01   5.828337e+01
   4.127998e+01   1.741607e+02
  -4.644331e+01   1.090216e+02
  -1.075624e+02  -5.032219e+01
  -8.024243e+01  -1.047667e+02
  -1.279754e+01  -1.096750e+02
   1.650666e+01  -7.273866e+00
   1.895257e+00   4.742849e+01
   5.288456e+01  -2.402990e+01
   3.900054e+00  -5.837992e+00
  -2.325658e+01   1.762947e+01
   7.553099e+00   8.279566e+01
   4.196289e+00   4.708492e+01
  -3.165035e+01   1.702819e+01
  -1.383735e+02  -1.529396e+01
  -1.184782e+02  -6.810687e+01
  -4.023695e+01  -6.109800e+01
   9.182632e+01  -7.187688e+01
   1.059852e+02  -4.093321e+00
   2.612920e+00   3.594430e+01
  -6.177396e+01   6.606623e+01
  -3.039823e+01   4.810553e+01
  -1.390837e+01   2.635166e+01
  -9.216407e+00   3.863363e+00
  -7.579865e+01  -6.094835e+00
  -6.117734e+01  -6.679631e+01
   1.310183e+01  -1.067268e+02
   1.025929e+02  -8.703558e+01
   1.626579e+02  -4.269271e+01
   1.540402e+02   6.466224e+01
   6.914002e+01   1.238133e+02
  -5.738468e+01   1.134401e+02
  -1.159112e+02   2.155471e+01
  -1.183681e+02  -6.300689e+00
  -5.493357e+01  -3.321334e+01
   3.012347e+00  -2.965309e+01
  -2.511459e+01  -1.768395e+01
  -6.255107e+01  -7.727124e+01
  -2.053841e+01  -9.365378e+01
   3.813660e+01  -7.327841e+01
   8.430065e+01   1.665824e+01
   2.892240e+00   9.896150e+01
  -1.364960e+01   1.148968e+02
  -9.043349e+00   4.034386e+01
  -7.935135e+01  -8.580146e+01
  -5.535713e+01  -1.629446e+02
   4.601973e+01  -1.305381e+02
   1.002372e+02  -2.725081e+01
   2.851710e+01   7.580228e+01
  -3.727238e+01   1.171871e+02
  -6.703356e+00   6.488734e+01
   4.192283e+00  -2.450204e+01
   1.106796e+02  -5.423873e+00
   3.881394e+01  -9.249391e+00
  -5.678854e+01   4.281154e+01
  -1.113095e+02   6.285347e+01
  -6.452041e+01  -2.656596e+01
   4.290174e+01  -7.274774e+01
   5.586059e+01  -9.845243e+01
   7.322131e+01  -1.968550e+01
  -7.246571e-01   6.162232e+01
  -5.568480e+01   5.043653e+01
  -4.420140e+01  -7.495680e+00
  -8.682363e+01  -4.988853e+01
  -3.450313e+00  -2.740721e+01
   3.232651e+01   1.039722e+01
   5.196934e+01   8.430875e+00
   1.900959e+01   2.487106e+00
  -6.171415e+00  -1.071745e+01
  -7.980472e+00  -1.234022e+01
   1.289462e+01   2.603585e+01
  -4.094507e+01   2.906883e+01
  -3.614816e+01  -2.576729e+01
  -3.725612e+01  -5.994362e+01
   3.558685e+01  -4.355697e+01
   4.965556e+01  -9.428031e+00
   2.574120e+01   3.093843e+01
  -1.180873e+00   7.288203e+01
  -1.079562e+01   6.264301e+01
  -3.988768e+01   3.013556e+01
  -6.012441e+01  -6.160070e+01
   3.904856e+00  -7.086354e+01
   3.614085e+01   2.856681e+01
  -1.234428e+00   6.794189e+00
  -3.295284e+01   7.740595e+00
   3.240222e+00  -2.521014e+01
   3.844373e+01  -2.697986e+01
   6.354945e+01   3.298865e+01
