
 $NMID
 id='ANONYMOUS ', fmtdat='(2E16.6)'
 volume=1.0
 tramp=1.0
 $END
   4.698392e+03  -4.090276e+02
   2.771661e+03   3.258091e+03
  -8.630059e+02   3.044962e+03
  -2.551419e+03   6.579073e+02
  -1.137374e+03  -1.006988e+03
   6.220449e+02  -6.269095e+02
   1.064099e+03   4.412054e+02
  -4.698575e+01   1.176372e+03
  -8.354309e+02   8.031935e+02
  -1.194296e+03  -2.831675e+02
  -6.337955e+02  -9.221529e+02
   2.513147e+02  -1.092414e+03
   7.451024e+02  -1.476879e+02
   5.650618e+02   6.969333e+02
  -3.386829e+02   7.156808e+02
  -7.119736e+02   7.212255e+01
  -2.168340e+02  -7.290613e+02
   4.494887e+02  -5.025954e+02
   7.761337e+02  -1.134424e+02
   5.161990e+02   4.451181e+02
  -1.030460e+02   4.636741e+02
  -1.640795e+02   2.512356e+02
  -2.669983e+02   1.662976e+02
   2.194315e+02  -1.066937e+02
   5.035504e+02   1.514859e+02
   2.554448e+02   6.059941e+02
  -5.225646e+02   5.636442e+02
  -8.386006e+02  -4.330898e+01
  -3.903234e+02  -6.326530e+02
   5.280325e+02  -4.617838e+02
   7.738122e+02  -6.173451e+01
   3.840253e+02   5.347867e+02
  -2.302222e+02   5.254715e+02
  -5.990402e+02   3.739963e+02
  -3.994156e+02  -1.856091e+02
  -6.255277e+01  -5.066972e+02
   2.878895e+02  -3.610404e+02
   2.152205e+02   1.761819e+02
  -1.437495e+02   4.371805e+02
  -4.766098e+02  -2.662450e+01
  -2.467862e+02  -7.251745e+02
   3.153393e+02  -8.270698e+02
   6.912458e+02  -3.199829e+01
   2.949659e+02   5.755343e+02
  -2.703780e+02   3.486283e+02
  -4.134290e+02  -3.203091e+02
   4.462416e+01  -5.613136e+02
   5.810669e+02  -1.385311e+02
   5.756346e+02   4.341702e+02
   1.303526e+02   5.616606e+02
  -3.898536e+02   3.106127e+02
  -6.230160e+02  -1.076772e+02
  -3.390029e+02  -4.058402e+02
   1.538229e+02  -3.856595e+02
   4.918545e+02  -4.941505e+01
   2.999723e+02   2.474482e+02
  -6.652938e+01   1.559836e+02
  -1.669952e+02  -1.653143e+02
   1.384305e+02  -1.888936e+02
   3.824675e+02   8.846811e+01
   1.339295e+02   3.337206e+02
  -1.971504e+02   2.616684e+02
  -3.619977e+02   9.896923e+01
  -1.902938e+02  -6.338014e+01
   2.749291e+01  -1.898094e+02
   1.883643e+02  -3.091112e+02
   3.502183e+02  -2.233613e+02
   2.985998e+02   1.579034e+02
   5.341074e+01   4.194275e+02
  -1.287547e+02   3.598937e+02
  -1.270138e+02   1.183022e+02
  -4.809746e+01   4.836004e+01
  -1.542130e+01   1.475698e+02
  -2.009455e+02   1.460355e+02
  -2.753480e+02  -1.357672e+02
  -1.799465e+02  -3.262560e+02
   6.244687e+00  -2.140677e+02
   2.128144e+02   2.650691e+01
   1.857352e+02   2.337599e+02
  -7.617209e+00   2.864579e+02
  -2.827734e+02   9.321940e+01
  -3.894246e+02  -1.569699e+02
  -1.418451e+02  -3.791205e+02
   9.691598e+01  -3.640503e+02
   2.211520e+02  -1.478339e+02
   1.502455e+02  -5.389062e+01
   9.176955e+01   2.457038e+01
   2.288760e+02  -7.163121e+01
   4.470089e+02   9.118741e+01
   3.451182e+02   3.092868e+02
  -3.034686e+01   4.519943e+02
  -3.539128e+02   4.019145e+02
  -4.724244e+02   1.796101e+02
  -3.562208e+02  -1.737462e+02
  -5.544806e+01  -2.589268e+02
   9.224199e+01  -2.533942e+02
   6.774507e+01  -5.927484e+01
  -5.011727e+01   1.573981e+02
  -2.050842e+02   7.537971e+01
  -8.044135e+01  -2.141999e+02
   1.049456e+02  -2.369274e+02
   1.511545e+02  -2.786234e+00
  -4.277998e+01   1.997741e+02
  -1.689701e+02  -3.565073e+00
  -1.394949e+02  -2.630816e+02
   3.013134e+01  -4.120555e+02
   2.256964e+02  -2.093876e+02
   3.603697e+02   4.113814e+01
   2.863955e+02   2.363306e+02
   2.210500e+02   2.639102e+02
  -7.383286e+01   2.046971e+02
  -2.295811e+02   8.665355e+01
  -1.443051e+02   6.656839e+01
   2.228774e+01   1.437061e+01
   3.913981e+01   7.629803e+01
  -1.410853e+02   6.884494e+01
  -1.032261e+02  -1.402480e+01
  -4.127544e+01  -7.269552e+01
   7.602162e+01  -3.065295e+00
   5.135629e+01   1.018209e+02
  -1.500962e+02   1.387006e+02
  -2.787511e+02  -1.163842e+01
  -2.145863e+02  -1.365968e+02
  -4.838922e+01  -2.201329e+02
   1.631497e+02  -2.001093e+02
   2.597982e+02  -1.356623e+02
   1.395166e+02   4.684394e+01
   6.783192e+01   9.711788e+01
  -1.019365e+02   3.404783e+01
  -1.359284e+01  -1.145048e+02
   1.709690e+02  -7.866433e+01
   1.949936e+02   8.897023e+01
   1.155338e+02   2.023432e+02
  -4.963330e+01   1.418256e+02
  -1.435509e+02   1.887724e+01
  -8.984848e+01  -4.875448e+01
  -3.684758e+00   2.497068e+01
   8.429224e+00   5.974478e+01
  -1.259497e+02   1.016329e+02
  -1.925539e+02  -2.040214e+01
  -1.731145e+02  -1.138620e+02
   4.058759e+01  -2.067573e+02
   1.542277e+02  -1.733067e+02
   1.791527e+02   2.075533e+01
   1.202693e+00   1.209345e+02
  -8.207724e+01   1.130883e+02
  -1.058311e+02   1.555318e+01
  -4.983380e+01  -6.203078e+01
   3.194831e+01  -4.878052e+00
   2.424884e+01   1.860491e+01
  -8.361527e+01   2.419134e+01
  -9.203585e+01  -6.981822e+01
  -2.399030e+01  -1.777951e+02
   1.047782e+02  -1.551378e+02
   2.241374e+02  -2.733533e+01
   2.039493e+02   1.275274e+02
   5.174577e+01   2.776303e+02
  -1.150365e+02   1.948482e+02
  -1.866553e+02   1.192507e+01
  -1.035733e+02  -5.278535e+01
  -1.852070e+01  -8.575512e+01
  -6.206171e+01  -1.527321e+01
  -9.126189e+01   4.867410e+00
  -2.925388e+01  -5.229817e+01
   1.027863e+02  -2.239779e+01
   9.242259e+01  -3.562704e+01
   3.589807e+01   5.752276e+01
   2.397467e+01   1.004363e+02
  -1.651925e+02   1.120323e+02
  -2.221197e+02  -4.651561e+01
  -1.005106e+02  -2.006298e+02
   7.691964e+01  -2.373619e+02
   2.749366e+02  -8.271601e+01
   3.036963e+02   3.432678e+01
   1.349625e+02   1.665579e+02
  -3.787331e+01   1.300690e+02
  -9.850547e+01   1.273080e+02
  -7.727953e+01   9.736997e+01
  -9.813589e+01   1.152142e+02
  -1.650735e+02   7.155630e+01
  -8.839439e+01  -4.637487e+01
  -4.823447e+01  -1.477777e+02
  -6.008026e+00  -2.424032e+02
   1.197282e+02  -1.800691e+02
   1.306343e+02  -4.863225e+01
   7.932557e+01   9.200686e+01
   2.882940e+01   1.660870e+02
  -1.679432e+01   9.736836e+01
  -2.149571e+01   2.325374e+01
   2.086176e+01  -1.078519e+01
  -1.047823e+00  -1.916202e+01
  -1.227156e+01  -1.663449e+01
  -1.204015e+02  -7.846072e+01
  -3.076075e+01  -5.841380e+01
   7.279920e+01  -1.449837e+01
   1.799075e+02   1.913156e+01
   9.517247e+01   2.320862e+01
   2.933340e+01   5.439686e+01
  -1.234082e+02   5.799247e+01
  -1.277251e+02   2.991263e+01
  -5.454450e+01  -4.808621e+01
   4.828963e+01  -8.312367e+01
   6.125695e+01   1.159044e+01
  -1.364964e+00   9.630351e+01
  -1.776084e+01   8.785047e+01
  -6.714980e+01  -4.728599e+01
  -9.682335e+01  -5.664629e+01
  -5.428781e+01  -2.436207e+01
  -5.644715e+01  -9.023886e+00
  -6.686827e+01  -3.539927e+01
  -4.868354e+01  -9.840828e+01
   5.053290e+01  -1.029072e+02
   1.192461e+02  -8.034670e+01
   1.504444e+02  -2.851056e+01
   1.090797e+02   9.438111e+01
  -9.762033e+00   9.846821e+01
  -6.560717e+01   1.002437e+02
  -3.877590e+01   2.369845e+01
   5.625301e+01  -5.948692e+01
   9.994099e+01  -6.099285e+00
   3.335238e+01   8.635241e+01
  -1.124140e+02   1.509834e+02
  -1.853365e+02   5.381795e+01
  -1.213540e+02  -4.151008e+01
  -1.629210e+01  -1.049877e+02
   3.124993e+01  -8.573834e+01
  -2.195794e+01   1.038055e+01
   2.267075e+01   4.843372e+01
  -6.591541e+01   1.607193e+01
   6.896314e+00  -1.062434e+02
   6.997806e+01  -1.559275e+02
   1.528138e+02  -3.437941e+01
   1.671240e+02   1.003751e+02
   5.402283e+01   2.114478e+02
  -7.310257e+01   1.847613e+02
  -1.416661e+02   5.269681e+01
  -1.091470e+02  -1.167114e+02
  -4.084542e+00  -7.031241e+01
  -1.031195e+01  -2.887722e+01
   2.870847e+01   3.354173e+01
   7.331638e+00  -3.297213e+01
   3.511773e+01  -3.023709e+01
  -2.044224e+01   5.135794e+01
   5.548265e+01   1.236970e+02
   1.319865e+01   1.083104e+02
  -5.643489e+01   4.471413e+01
  -1.987686e+02  -7.784654e+01
  -1.186607e+02  -5.576744e+01
  -2.921276e+01  -1.081059e+02
   8.728518e+01  -6.798506e+01
   8.521381e+01   1.018430e+01
   4.317697e+01  -1.128149e+01
  -7.124191e+00   2.743331e+01
   2.063017e+01   3.557120e+01
   4.499156e+01   8.163182e+00
  -2.241318e+01  -8.572301e+00
  -8.440512e+01  -1.852830e+01
  -2.798713e+01  -2.372791e+01
  -1.044068e+00  -8.196265e+01
   1.150223e+02  -1.229299e+02
   1.864619e+02  -5.666361e+01
   1.220320e+02   5.856678e+01
  -3.845291e+00   1.817156e+02
  -1.005737e+02   1.628152e+02
  -1.280717e+02   5.060823e+01
  -1.160196e+02  -2.516183e+01
  -5.024183e+01  -1.905576e+01
   1.708957e+00  -1.996009e+01
   1.336426e+00  -1.091081e+01
  -2.476431e+01  -3.968806e+01
  -9.355486e+00  -7.505906e+01
   2.772144e+01  -8.958264e+01
   6.070099e+01   1.006000e+01
   6.422420e+00   1.219960e+02
   4.320052e+01   1.107355e+02
  -8.047353e+01   1.765557e+01
  -1.105685e+02  -3.784819e+01
  -6.375947e+01  -9.339183e+01
   7.984797e+01  -6.678357e+01
   1.411688e+02   2.491092e+01
   5.457709e+01   9.004595e+01
  -4.332074e+01   7.787069e+01
  -3.321881e+01  -4.742131e-02
   5.377968e+01   1.712587e+01
   4.363788e+01   4.452296e+00
   1.480085e+01  -3.119691e+00
  -9.787923e+01   3.417689e+01
  -1.028632e+02   6.235235e+01
  -3.367260e+01   2.218439e+01
   7.340180e+00  -4.489867e+01
   7.758547e+01  -6.851821e+01
   6.074023e+01   4.770606e+00
   1.799019e+01   6.901286e+01
  -4.102316e+01   8.630106e+01
  -6.472414e+01  -1.771522e+01
  -5.207955e+01  -3.425538e+01
  -1.153864e+01  -7.995930e+01
   2.395425e+01  -6.491287e+00
   8.201651e+01  -7.898507e-01
   5.609619e+01   1.246878e+01
   1.126369e+01   2.017005e+01
   2.069233e+01   4.607884e+01
   1.166883e+01   1.159716e+02
  -2.671839e+01   3.862295e+01
  -4.662369e+01   4.128327e+01
  -3.473273e+01  -5.687652e+01
  -4.340463e+01  -6.772569e+01
   3.892200e+01  -4.997597e+01
   7.032795e+01  -7.680782e+00
   1.720076e+01   7.024140e+01
  -1.031635e+01   2.668606e+01
  -4.771081e+01   2.342307e+01
  -8.005896e+01  -2.702955e+01
   4.439089e+01  -2.375155e+01
   5.817912e+01  -1.737346e+01
   2.433813e+01  -2.640487e+01
  -2.303762e+01  -1.177253e+01
  -2.943452e+01  -4.686973e+01
   5.094890e+01  -1.364723e+01
   1.248211e+02  -1.292565e+01
