
 $NMID
 id='ANONYMOUS ', fmtdat='(2E16.6)'
 volume=1.0
 tramp=1.0
 $END
  -4.851507e+03   4.168944e+00
  -2.947837e+03  -3.036188e+03
   1.044391e+03  -3.249421e+03
   2.547468e+03  -7.044820e+02
   1.070067e+03   9.704124e+02
  -1.050246e+03   9.188456e+02
  -1.152018e+03  -5.320911e+02
  -3.653446e+01  -1.071422e+03
   1.022922e+03  -8.100376e+02
   1.078738e+03   1.782520e+02
   5.303569e+02   9.342211e+02
  -3.704897e+02   9.180160e+02
  -9.080566e+02   1.286534e+02
  -3.791439e+02  -9.675266e+02
   2.411648e+02  -6.583709e+02
   9.252912e+02   3.280480e+01
   4.086626e+02   8.619980e+02
  -3.056344e+02   6.935579e+02
  -6.468251e+02   8.942134e+01
  -4.597406e+02  -5.178927e+02
  -1.129077e+02  -4.015896e+02
   4.226095e+02  -2.569368e+02
   2.397867e+02   1.657175e+01
  -1.241346e+02   3.218374e+01
  -4.644111e+02  -1.247489e+02
  -2.867038e+02  -4.237948e+02
   5.996416e+02  -5.728385e+02
   1.016763e+03   3.014199e+01
   4.328793e+02   6.573071e+02
  -4.080805e+02   6.727988e+02
  -8.077842e+02   7.810402e+00
  -4.216372e+02  -6.298590e+02
   2.745393e+02  -5.738255e+02
   5.882372e+02  -1.642773e+02
   4.199603e+02   2.757315e+02
   6.831941e+01   4.717358e+02
  -2.697620e+02   2.658010e+02
  -2.151730e+02  -2.606472e+02
   1.804056e+02  -5.175214e+02
   5.030409e+02   3.808299e+01
   3.007999e+02   7.865146e+02
  -3.637070e+02   8.372583e+02
  -7.129461e+02   2.897016e+01
  -3.014417e+02  -6.210228e+02
   3.821340e+02  -3.221199e+02
   4.634859e+02   3.147607e+02
  -7.389660e+01   5.621118e+02
  -6.530941e+02   1.319417e+02
  -6.453336e+02  -4.676289e+02
  -2.337377e+02  -6.727104e+02
   4.199071e+02  -4.156803e+02
   7.282746e+02   8.315922e+01
   4.311490e+02   4.890194e+02
  -2.027524e+02   4.755272e+02
  -5.972237e+02   7.994352e+01
  -3.276058e+02  -3.311889e+02
   1.713221e+02  -2.010270e+02
   2.337423e+02   2.117042e+02
  -1.656912e+02   2.832826e+02
  -4.044533e+02  -4.213598e+01
  -1.861699e+02  -3.246393e+02
   1.715024e+02  -3.257774e+02
   2.923818e+02  -1.221830e+02
   1.540677e+02   6.233297e+01
  -5.192745e+01   2.095801e+02
  -2.121698e+02   3.331850e+02
  -3.259015e+02   2.464675e+02
  -2.952106e+02  -1.344371e+02
  -6.164716e+01  -4.726506e+02
   1.802777e+02  -4.056015e+02
   1.407127e+02  -9.176707e+01
  -8.290936e+00   3.670880e+01
   1.351752e+00  -8.808649e+01
   1.986688e+02  -8.225748e+01
   2.990027e+02   5.732422e+01
   1.982967e+02   2.889944e+02
  -6.892141e+01   2.300210e+02
  -2.727777e+02  -7.815244e+01
  -2.509299e+02  -2.839980e+02
   4.592133e+00  -3.042342e+02
   3.195339e+02  -1.013898e+02
   4.100314e+02   1.925889e+02
   2.446702e+02   3.631424e+02
  -6.522135e+01   3.400205e+02
  -1.965903e+02   1.401242e+02
  -1.015622e+02   1.414528e+00
  -9.140088e+01   7.625485e+01
  -3.160887e+02   8.295821e+01
  -4.219848e+02  -3.552803e+01
  -3.517026e+02  -2.597929e+02
   2.354483e+01  -4.440327e+02
   3.665135e+02  -4.415204e+02
   4.808216e+02  -2.243595e+02
   3.498756e+02   5.600033e+01
   5.876655e+01   2.957451e+02
  -1.438735e+02   2.684700e+02
  -8.121917e+01   3.764686e+01
   1.482828e+02  -1.124190e+02
   3.050686e+02   4.239833e+01
   1.030369e+02   2.903327e+02
  -2.224326e+02   2.236406e+02
  -2.624071e+02  -9.975709e+01
  -1.085392e+01  -2.600656e+02
   2.437891e+02  -4.379763e+01
   2.077398e+02   3.158841e+02
  -2.270996e+01   4.299751e+02
  -2.304406e+02   2.425071e+02
  -3.556351e+02  -5.785903e+01
  -3.139277e+02  -2.118744e+02
  -1.225632e+02  -2.602184e+02
   5.446607e+01  -1.697645e+02
   1.904526e+02  -3.418824e+01
   5.509365e+01   4.066721e+01
  -1.034736e+02  -5.253941e+01
  -3.218694e+01  -1.667502e+02
   1.793100e+02  -1.349917e+02
   2.348675e+02   1.987336e+01
   8.206980e+01   9.536751e+01
  -8.974610e+01   6.898265e+01
  -1.194179e+02  -5.250331e+01
   7.242375e+01  -5.098496e+01
   2.602195e+02  -2.111148e+01
   2.691524e+02   1.284652e+02
   8.322574e+01   2.446725e+02
  -2.000039e+02   2.776114e+02
  -3.334049e+02   2.160033e+02
  -2.340978e+02  -3.222112e+01
   5.528282e+00  -1.316939e+02
   1.267541e+02  -6.904006e+01
   2.173349e+01   1.225882e+02
  -2.336252e+02   9.018200e+01
  -2.702581e+02  -5.061893e+01
  -1.130739e+02  -2.193685e+02
   7.767144e+01  -2.070126e+02
   1.700836e+02  -8.161132e+01
   8.274994e+01   2.928369e+01
  -9.721919e-01   1.972774e+01
   1.588381e+01  -7.191036e+01
   9.299717e+01  -8.694105e+01
   1.741357e+02  -2.584543e+01
   1.650799e+02   9.294686e+01
   1.038840e+01   2.054784e+02
  -1.710461e+02   1.473440e+02
  -2.043648e+02   2.538758e+01
  -1.343103e+01  -1.060533e+02
   5.825083e+01  -1.235467e+02
   5.210283e+01  -9.493547e+00
   2.897277e+01   4.704931e+01
  -2.754161e+01   6.378089e+01
   8.196557e+00  -7.525719e+00
   6.569134e+01  -1.126253e+01
   2.705497e+01   8.196105e+01
   2.442918e+01   1.693672e+02
  -6.124526e+01   1.407048e+02
  -2.322371e+02   4.534079e+01
  -2.113653e+02  -1.542556e+02
  -1.205106e+02  -2.413088e+02
   1.012611e+02  -1.459073e+02
   1.928784e+02  -6.595921e+01
   8.927716e+01   6.650658e+01
   6.196947e+01  -3.700647e+01
  -9.468067e+00  -2.048292e+01
   4.367150e+01  -2.651492e-02
  -1.191959e+01   6.900144e+01
  -7.311097e+01   9.270068e+01
  -8.577303e+01   1.787888e+01
  -4.029979e+01  -7.075901e+01
   6.579523e+01  -1.107296e+02
   1.439436e+02  -8.231440e+01
   2.263213e+02   2.619161e+01
   1.154025e+02   2.045319e+02
  -1.052766e+02   2.574614e+02
  -3.136990e+02   1.399899e+02
  -2.946121e+02  -1.210904e+02
  -9.324964e+01  -1.881222e+02
   7.845429e+01  -2.066952e+02
   1.454157e+02  -1.067565e+02
   7.856319e+01  -6.313412e+01
   8.628816e+01  -5.441947e+01
   9.115306e+01  -6.690594e+01
   1.312169e+02   5.225427e+01
   7.850256e+01   1.284293e+02
   4.367795e+01   2.428880e+02
  -1.036143e+02   2.193419e+02
  -2.159548e+02   4.531440e+01
  -1.482080e+02  -8.608596e+01
  -2.811501e+01  -2.351036e+02
   5.337423e+01  -8.334153e+01
   9.643030e+01   1.483532e+01
   8.917720e+00   7.815424e+01
   3.417215e+01   6.517255e+01
   4.095041e+01   1.594570e+01
   4.881405e+01   3.668625e+01
   2.195335e+01   4.568186e+01
  -1.980774e+01   2.231930e+01
  -6.753817e+01  -5.048522e+00
  -1.569693e+02  -3.954718e+01
  -5.587153e+01  -9.187834e+01
   8.182557e+01  -1.121353e+02
   1.508217e+02  -2.499330e+01
   4.596080e+01   3.319291e+01
  -9.155252e+01   1.676146e+01
  -1.320939e+02   7.865495e+00
   1.638084e+01  -6.839847e+01
   6.803218e+01  -6.144968e+01
   2.528222e+01  -3.058219e+01
   4.634034e+01   4.196315e+01
   3.235005e+01   5.338269e+01
   1.495199e+02  -5.890431e+00
   6.412475e+01   4.038838e+01
   3.399215e+01   1.232565e+02
  -3.505256e+01   1.623082e+02
  -1.052528e+02   1.555830e+02
  -1.280281e+02   4.640701e+01
  -1.617023e+02  -1.415669e+02
  -1.895114e+01  -1.450525e+02
   9.321661e+01  -7.470398e+01
   8.196138e+01   3.336342e+01
  -7.860314e+01   3.507151e+01
  -1.851180e+02  -3.750754e+01
  -1.207677e+02  -1.422318e+02
   9.491245e+01  -1.452568e+02
   2.220670e+02  -6.624160e+01
   1.721190e+02   1.686978e+01
   6.327288e+00   6.390802e+01
  -4.869656e+01   5.410862e+01
  -6.586814e+01   9.653233e-01
   5.657224e+01   1.214379e+01
   1.034080e+02   3.371028e+01
   2.848870e+01   1.202710e+02
  -9.159635e+01   1.531036e+02
  -2.196365e+02   6.002972e+01
  -1.140891e+02  -9.583886e+01
   1.191835e+01  -2.311154e+02
   9.924042e+01  -1.835979e+02
   1.109842e+02   2.434884e+01
   8.550949e+01   1.243920e+02
   3.267485e+01   1.206227e+02
  -4.434666e+00   4.419317e+01
  -6.111400e+01   2.958975e+01
  -5.532585e+01  -7.832831e-01
  -5.168831e+01   1.006950e+01
   1.574847e+01  -3.004152e+01
  -6.345026e+01  -1.206468e+02
  -9.003137e+01  -1.148426e+02
   1.101835e+01  -3.472740e+01
   1.476533e+02  -7.191462e+00
   1.529143e+02   1.199633e+02
   2.542449e+01   3.813013e+01
  -9.279778e+01  -1.428600e+01
  -7.430389e+01   1.579174e+01
   1.057620e+01   1.312123e+01
   2.327493e+01  -2.151656e+01
   2.125647e+01  -1.744376e+01
  -4.144393e+01   1.345207e+01
   7.697161e+00   1.167594e+01
   7.246977e+01  -1.481898e+00
   1.025862e+02   1.098668e+01
   4.362296e+01   8.574823e+01
  -1.122122e+02   8.333879e+01
  -1.735629e+02   7.715883e+01
  -1.245073e+02  -4.739363e+01
  -2.873190e+01  -1.607150e+02
   8.824299e+01  -1.525574e+02
   1.414086e+02  -5.792581e+01
   6.030206e+01   4.504889e+01
   7.708553e+01   1.844273e+01
  -6.033926e+00   4.834738e+01
  -2.706554e+01   3.129145e+00
   2.970725e+01   2.271743e+01
   3.312558e+01   8.479764e+01
   2.119226e+00   1.001115e+02
  -1.102429e+02  -2.414577e+01
  -1.060468e+02  -7.645739e+01
   9.382008e+00  -1.662776e+02
   9.724051e+01  -3.619094e+01
   1.157571e+02   9.070678e+01
   1.949143e+01   1.138820e+02
  -3.062471e+01   6.684159e+01
  -1.000887e+02   2.221191e+01
  -2.963059e+01  -5.649636e+01
   2.404961e+01  -2.083252e+01
  -2.034927e+01  -2.287726e+01
  -2.989226e+01   4.703394e+01
  -4.982822e+01   4.055193e+01
  -3.841352e+01  -3.287461e+01
   1.104143e+02  -4.088546e+01
   1.341084e+02  -8.201983e+01
   7.344036e+01   4.170561e+01
  -1.651839e+01   5.950361e+01
  -7.577246e+01   8.036258e+01
  -6.197358e+01   1.074797e+01
  -1.448955e-01  -9.057443e+01
   2.097467e+01  -3.217485e+01
   5.004273e+01   1.215129e+01
   8.784134e+01   7.116139e+01
  -2.503018e+01   5.830130e+00
  -4.068595e+01   9.427253e+00
  -3.715082e+01  -1.729095e+01
  -3.493463e+01   1.295797e+01
   1.520157e+01   2.272043e+01
   1.865711e-01  -1.719939e+00
  -6.607578e+00  -5.138831e+01
  -5.507500e+00  -8.190396e+01
   5.431026e+01  -2.575010e+01
   1.298597e+01   1.093009e+02
  -2.407527e+01   5.354516e+01
  -8.543011e+01   4.980852e-01
  -7.443538e+01  -5.492372e+01
  -1.926588e+01  -6.036865e+01
   4.152377e+01  -1.534999e+00
   7.818891e+01  -9.290443e+00
   4.970752e+01   4.938157e+01
  -4.786263e+01   5.571071e+01
  -8.742778e+01   1.946189e+01
  -3.561893e+01  -1.312905e+01
   5.314524e+01  -1.585680e+01
   5.343290e+01   3.400916e+01
  -5.189386e+01   5.973273e+01
  -7.205599e+01   4.324510e+01
