
 $NMID
 id='ANONYMOUS ', fmtdat='(2E16.6)'
 volume=1.0
 tramp=1.0
 $END
  -4.105358e+03  -1.869175e+02
  -2.532794e+03  -2.461612e+03
   7.667463e+02  -2.549374e+03
   2.217430e+03  -8.206438e+02
   9.859571e+02   7.719624e+02
  -7.976824e+02   5.404120e+02
  -1.035426e+03  -3.502154e+02
  -5.747836e+00  -1.314835e+03
   8.204615e+02  -8.435481e+02
   8.836082e+02   1.616671e+02
   4.000354e+02   9.682421e+02
  -3.945433e+02   9.649331e+02
  -6.695547e+02   1.266868e+02
  -3.369593e+02  -8.615489e+02
   2.673209e+02  -7.280586e+02
   7.608969e+02  -2.826874e+01
   5.057907e+02   7.664182e+02
  -2.425505e+02   6.764888e+02
  -6.376882e+02   3.018240e+02
  -3.223801e+02  -6.087181e+02
   1.251879e+02  -5.386448e+02
   2.274726e+02  -2.470790e+02
   1.919249e+02  -6.402214e+01
   2.586894e+00   1.354322e+02
  -4.598525e+02  -1.132579e+02
  -2.357985e+02  -4.765626e+02
   5.198699e+02  -3.317938e+02
   9.400895e+02   5.637763e+01
   4.157304e+02   3.974929e+02
  -3.931981e+02   4.260605e+02
  -6.804354e+02  -3.840585e+00
  -3.264827e+02  -5.862255e+02
   2.486955e+02  -3.604057e+02
   6.108555e+02  -2.838247e+02
   4.403202e+02   2.128470e+02
   9.759145e+01   5.333723e+02
  -9.781157e+01   3.419140e+02
  -9.233417e+01  -2.589163e+02
   2.116249e+02  -4.771542e+02
   4.622494e+02   2.737622e+01
   2.487845e+02   7.601677e+02
  -3.504774e+02   7.753190e+02
  -6.184055e+02   9.750231e-01
  -2.577164e+02  -6.045557e+02
   3.709392e+02  -2.882813e+02
   3.947512e+02   3.343742e+02
  -7.720975e+01   5.513673e+02
  -5.827497e+02   9.385155e+01
  -6.344974e+02  -4.145143e+02
  -1.937711e+02  -5.539088e+02
   4.426825e+02  -3.022283e+02
   6.447386e+02   7.220522e+01
   3.243387e+02   3.934668e+02
  -2.046081e+02   3.218485e+02
  -4.904316e+02   1.312691e+00
  -2.234056e+02  -2.634254e+02
   1.436633e+02  -7.809255e+01
   1.307533e+02   1.924602e+02
  -1.677621e+02   1.985389e+02
  -3.820338e+02  -1.338117e+02
  -1.687176e+02  -3.469056e+02
   2.138260e+02  -2.923847e+02
   3.746058e+02  -7.691474e+01
   2.322871e+02   1.451941e+02
  -2.635235e+01   1.914085e+02
  -2.478728e+02   3.225520e+02
  -2.921477e+02   2.224957e+02
  -2.652105e+02  -1.428073e+02
  -4.536842e+01  -4.618887e+02
   1.284475e+02  -3.356881e+02
   9.774760e+01  -7.631899e+01
   2.890677e+01   1.770161e+00
   9.357702e+01  -6.976962e+01
   2.127310e+02  -1.286822e+02
   2.557572e+02   8.010453e+01
   9.091983e+01   2.825640e+02
  -8.064318e+01   2.327915e+02
  -1.631432e+02  -2.099904e+00
  -1.579344e+02  -1.984624e+02
   4.245114e+01  -2.935146e+02
   2.714871e+02  -1.372234e+02
   3.844396e+02   1.492266e+02
   1.567893e+02   3.319111e+02
  -1.201010e+02   3.105106e+02
  -2.595845e+02   1.257298e+02
  -1.428814e+02   4.031570e+01
  -7.357241e+01   2.752659e+01
  -2.372787e+02   3.223547e+01
  -4.126195e+02  -6.383162e+01
  -3.347635e+02  -3.055918e+02
   2.749111e+01  -4.562779e+02
   3.371644e+02  -3.960211e+02
   4.386364e+02  -1.904204e+02
   3.190355e+02   1.149358e+02
   1.134962e+02   3.404877e+02
  -1.228485e+02   2.311821e+02
  -8.919633e+01   8.646231e+00
   6.795635e+01  -1.940969e+02
   1.894469e+02   5.904624e+00
   6.932141e+01   2.444968e+02
  -1.481222e+02   2.426335e+02
  -1.839683e+02  -8.981705e+01
   3.661083e+01  -2.770468e+02
   2.043227e+02  -7.581719e+01
   1.726607e+02   2.589810e+02
  -5.028898e+01   3.598769e+02
  -2.360768e+02   2.218305e+02
  -3.001647e+02  -9.575872e+01
  -2.355921e+02  -2.752669e+02
  -9.234865e+01  -2.825514e+02
   1.464051e+02  -1.574476e+02
   2.010701e+02   1.466177e+01
   6.995606e+01   7.162722e+01
  -8.942986e+01   3.426759e+01
  -7.339471e+01  -5.529556e+01
   7.251588e+01  -7.497506e+01
   1.609271e+02  -1.165801e+01
   5.592551e+01   8.034150e+01
  -7.897331e+01   2.752034e+00
  -4.158018e+01  -9.047981e+01
   1.114799e+02  -1.146646e+02
   2.741052e+02  -4.162356e+01
   2.251173e+02   9.703852e+01
   8.057522e+01   2.439841e+02
  -1.401428e+02   2.551125e+02
  -2.836485e+02   1.270472e+02
  -1.670884e+02  -8.086795e+01
   2.712824e+01  -1.216189e+02
   8.737372e+01  -5.041554e+01
  -1.030643e+00   9.485931e+01
  -1.614102e+02   9.238123e+01
  -1.895601e+02  -6.412634e+01
   2.224096e+00  -1.838674e+02
   1.015944e+02  -1.596205e+02
   1.335653e+02   7.951854e-01
   5.611236e+01   4.623813e+01
  -2.525816e+01   1.135644e+01
  -3.363348e+01  -6.240883e+01
   5.428931e+01  -1.104350e+02
   1.402801e+02  -3.209518e+01
   1.449449e+02   1.075430e+02
   6.698991e+01   1.839268e+02
  -1.128438e+02   1.189117e+02
  -1.382571e+02   1.702399e+01
  -7.116417e+01  -1.314940e+02
   7.940446e+00  -1.583986e+02
   5.358781e+01  -5.942934e+01
   4.540985e+01   7.084790e+00
  -1.919139e+01   4.940914e+01
   2.360562e+01   9.250160e+00
   6.074898e+01  -3.807552e+01
   5.978868e+01   2.626777e+01
  -2.577639e+00   9.431999e+01
  -1.520534e+02   6.726183e+01
  -1.753300e+02   1.978246e+01
  -1.504810e+02  -8.771025e+01
  -2.498161e+01  -2.248848e+02
   1.130269e+02  -1.664276e+02
   1.541860e+02   5.057132e+00
   5.998982e+01   2.773016e+01
   3.400243e+01   9.844539e+01
   9.395176e+00   1.912160e+01
   2.523615e+01  -4.082503e+01
   6.469577e+01   3.368205e+01
  -2.590798e+00   5.710893e+01
  -8.029867e+01   5.919463e+00
  -7.267993e+01  -3.178624e+01
   1.110430e+01  -1.054184e+02
   1.651612e+02  -9.391443e+01
   1.805329e+02   8.078668e+01
   4.916360e+01   1.840368e+02
  -1.030030e+02   2.415015e+02
  -2.634909e+02   1.269359e+02
  -2.638031e+02  -9.551174e+01
  -1.059318e+02  -1.709706e+02
   5.897524e+01  -1.624211e+02
   8.346775e+01  -1.506871e+02
   9.965183e+01  -6.615994e+01
   5.451413e+01  -7.840455e+01
   5.532054e+01  -4.952227e+01
   1.430097e+02   4.789814e+01
   1.596618e+02   1.724831e+02
   6.901721e+01   1.895878e+02
  -1.077690e+02   1.478867e+02
  -1.830813e+02   6.566793e+01
  -1.263465e+02  -1.120246e+02
  -1.364447e+01  -1.246238e+02
   9.047643e+01  -9.710262e+01
   4.309202e+01   1.170613e+01
   1.413687e+01   8.640450e+01
   3.620372e-01   3.221512e+01
   3.693295e+01   2.236623e+01
   8.155448e+01   7.009296e+01
   1.454978e+01   3.928479e+01
  -4.066961e+01   3.218030e+01
  -1.036408e+02   2.799331e+01
  -1.133344e+02  -5.014091e+01
  -3.597318e+01  -8.425870e+01
   1.152911e+02  -9.786726e+01
   1.472912e+02  -4.922601e+01
   2.168055e+01   2.877549e+01
  -8.200292e+01   1.751036e+01
  -8.057544e+01  -4.365116e+01
  -5.358231e+00  -3.411929e+01
   8.324137e+01  -6.698215e+01
   1.088006e+02   1.466571e+01
   4.638100e+01   9.324109e+01
  -5.330073e+00   5.693712e+01
   8.207884e+00   1.380717e+01
   6.109798e+01  -1.621912e+01
   3.587509e+01   5.088402e+01
   2.089897e+01   1.307169e+02
  -8.273714e+01   1.440340e+02
  -1.579590e+02   9.962046e+00
  -1.309610e+02  -1.286879e+02
  -3.898562e+00  -1.233530e+02
   9.137683e+01  -5.771497e+01
   1.007173e+02   3.567185e+01
  -9.855100e+01   1.699534e+01
  -2.048345e+02  -5.434750e+01
  -1.029487e+02  -1.264794e+02
   6.003868e+01  -1.237419e+02
   2.412411e+02  -8.023810e+01
   1.803533e+02   5.706682e+01
   6.986022e+00   8.311557e+01
  -5.959795e+01   8.799212e+01
  -1.760194e+01   8.322262e+00
   4.474614e+01   7.261195e+00
   1.131364e+02   7.752876e+00
   6.238649e+01   1.337950e+02
  -9.682307e+01   1.649266e+02
  -2.043071e+02   6.002298e+01
  -1.513931e+02  -4.808621e+01
  -4.692515e+01  -1.859653e+02
   8.463236e+01  -1.486887e+02
   1.152011e+02  -1.336796e+01
   9.798974e+01   1.013553e+02
   2.794520e+01   1.071922e+02
  -6.042251e+01   1.116640e+01
  -8.479333e+01  -6.220217e+00
  -3.722305e+01   6.312360e+00
  -2.266774e+00   2.843381e+01
  -4.532932e+01  -3.602916e+01
  -4.255145e+01  -1.300400e+02
  -3.068901e+01  -8.840639e+01
   4.824441e+01  -3.476407e+01
   1.827588e+02   1.864345e+01
   1.385086e+02   1.262735e+02
  -4.362943e+00   1.009824e+02
  -1.029435e+02   5.891724e+00
  -8.312814e+01   1.467765e+01
   7.672789e+00   1.273891e+01
   6.591401e+01  -4.034177e+01
   4.423345e+00  -2.794893e+01
  -2.684716e+01   4.716124e+00
   4.308854e+00  -3.951181e+01
   9.469233e+01  -2.866165e+01
   1.203354e+02  -9.562203e+00
   8.072045e+01   5.706822e+01
  -8.670026e+01   1.428906e+02
  -1.419299e+02   2.107031e+01
  -1.852669e+02  -6.241554e+01
  -9.856521e+00  -1.544607e+02
   7.650490e+01  -1.707809e+02
   1.201440e+02  -5.522604e+01
   1.017266e+02   4.710620e+01
   8.515323e+01   3.147300e+01
  -2.014865e+01   5.613126e+01
  -2.512019e+01   2.060011e+01
   5.328982e+01   4.742019e+01
  -8.391911e+00   2.835961e+01
  -5.480868e+01   8.125163e+01
  -9.104322e+01  -2.669492e+01
  -7.698548e+01  -9.511520e+01
   1.045052e+01  -1.121440e+02
   1.055774e+02  -3.036906e+01
   4.496944e+01   1.070000e+02
   5.430977e+01   8.753056e+01
  -8.716052e+01   5.259915e+01
  -9.541125e+01  -2.323750e+01
  -3.306946e+01  -1.639844e+01
   5.401678e+01  -4.479973e+01
   1.425625e+01   2.676418e+00
  -9.272205e+00   4.817000e-01
  -1.058657e+02  -8.945659e+00
  -7.657841e+00  -3.434543e+01
   7.260861e+01  -1.006992e+02
   1.308790e+02  -5.723971e+01
   1.040265e+02   2.688997e+01
  -3.160248e+01   1.036778e+02
  -6.458223e+01   1.250562e+02
  -4.623697e+01  -2.209834e+01
  -2.836364e+00  -1.029156e+02
  -3.771446e+01  -4.156007e+01
   6.509159e+01   4.086761e+01
   4.094347e+01   4.795905e+01
  -1.696902e+01   4.676174e-01
  -4.622466e+01  -4.955026e+00
  -3.441821e+01   1.289664e+01
  -4.711483e+01   4.123993e+01
   2.562681e+01   3.023618e+01
   4.255086e+00  -1.819820e+01
   4.312380e+00  -7.772346e-01
   1.136388e+01  -3.954250e+01
   2.175284e+01  -1.652603e+01
   2.128833e+01   6.237552e+01
   3.667627e+01   2.978784e+01
  -3.771512e+01  -2.957074e+01
  -4.025114e+01  -2.627227e+01
  -1.662066e+01  -5.336717e+01
   5.823382e+01  -6.920190e-01
   9.997308e+01   1.027687e+01
   4.055376e+01   1.575975e+01
   1.819191e+00   2.940179e+01
  -5.051757e+01   1.554294e+01
   2.244331e+01  -6.299454e+00
   1.922887e+01   1.596488e+01
   3.148657e+01   2.334176e+01
  -4.737049e+01   3.657587e+01
  -8.397150e+01   4.175379e+00
