
 $NMID
 id='ANONYMOUS ', fmtdat='(2E16.6)'
 volume=1.0
 tramp=1.0
 $END
   2.969446e+03  -4.705358e+02
   1.618579e+03   2.015133e+03
  -3.031993e+02   2.053468e+03
  -1.263657e+03   9.018376e+02
  -8.929048e+02  -1.270160e+02
   2.206924e+02  -2.094330e+02
   2.537089e+02   2.869405e+02
   1.083591e+01   4.849488e+02
  -5.377352e+02   4.024054e+02
  -5.273500e+02  -1.713012e+02
  -2.494588e+02  -4.656626e+02
   1.228212e+02  -6.354597e+02
   3.911661e+02  -2.311558e+02
   2.693130e+02   2.987061e+02
  -3.457782e+02   5.648612e+02
  -3.901471e+02   5.099136e+01
  -2.392321e+02  -3.110545e+02
  -2.463964e+01  -6.282777e+02
   5.122065e+02  -3.338863e+02
   3.916534e+02   1.983761e+02
   2.968265e+02   2.478854e+02
  -1.903412e+02   1.158401e+02
  -1.239954e+02   7.257677e+00
   9.610963e+01   1.434794e+02
   2.643435e+02   1.321744e+02
   1.376724e+02   4.892877e+02
  -3.323791e+02   2.003082e+02
  -5.435520e+02  -1.995102e+02
  -1.988258e+02  -4.172661e+02
   3.249198e+02  -2.598014e+02
   4.829586e+02   8.224142e+01
   1.046373e+02   4.598429e+02
  -2.167517e+02   2.054509e+02
  -3.419191e+02   7.101552e+01
  -2.316189e+02  -1.460490e+02
  -9.247441e+01  -2.575787e+02
   1.949508e+01  -2.125787e+02
   5.978741e+01   4.726511e+01
  -1.596318e+02   7.096743e+01
  -2.301141e+02  -1.151845e+02
  -4.677655e+00  -4.995527e+02
   3.017677e+02  -3.599647e+02
   3.563661e+02   4.534731e+01
   1.549966e+02   2.856359e+02
  -1.492979e+02   1.236041e+02
  -1.522838e+02  -2.000109e+02
   8.207183e+01  -2.968104e+02
   4.025919e+02  -8.753644e+01
   4.107259e+02   2.742938e+02
   9.198678e+01   4.456899e+02
  -2.334459e+02   2.470206e+02
  -4.287266e+02  -9.298302e+01
  -2.689952e+02  -2.579739e+02
   9.780056e+01  -2.141004e+02
   3.454321e+02  -4.328003e+01
   1.873329e+02   6.839759e+01
  -4.788438e+01   8.715220e+01
  -6.630890e+01  -6.010834e+01
   1.117279e+02  -5.650386e+01
   2.411856e+02   8.530965e+01
   1.235177e+02   2.059273e+02
  -1.317934e+02   2.340350e+02
  -2.689134e+02   1.429204e+02
  -2.097576e+02  -1.262094e+01
  -2.213400e+01  -2.507630e+02
   2.348032e+02  -2.793166e+02
   3.240328e+02  -1.291410e+02
   1.945416e+02   1.938857e+02
   4.632249e+00   3.455344e+02
  -6.888443e+01   2.717451e+02
  -8.479593e+01   9.445989e+01
  -5.880684e+01   1.036431e+02
  -9.425900e+01   1.156513e+02
  -2.159767e+02   6.740978e+01
  -2.479194e+02  -1.207846e+02
  -9.699763e+01  -2.351561e+02
   7.684475e+01  -2.039529e+02
   9.653859e+01   3.903533e+01
   5.010870e+01   2.452929e+02
  -5.567708e+01   2.083129e+02
  -2.137227e+02   5.978783e+01
  -3.110470e+02  -2.139847e+02
  -1.796351e+02  -3.119510e+02
   8.181945e+01  -2.439834e+02
   1.861969e+02  -1.174428e+02
   1.372433e+02  -4.222051e+01
   1.018247e+02  -8.378106e+01
   2.328707e+02  -2.938872e+01
   3.139200e+02   8.083974e+01
   2.681521e+02   2.944170e+02
  -6.283320e+01   3.867874e+02
  -3.737663e+02   2.931248e+02
  -4.209186e+02   8.925660e+01
  -2.381921e+02  -1.658855e+02
   6.894262e+00  -2.520483e+02
   1.268488e+02  -2.235178e+02
   2.424168e+01  -5.181315e+01
  -7.715364e+01   6.898769e+01
  -7.221226e+01   1.865760e+01
   4.385637e+01  -1.134222e+02
   8.025336e+01  -9.528714e+01
   7.468012e+01   8.429280e+01
  -6.244650e+01   1.103090e+02
  -1.551832e+02  -2.652844e+01
  -1.654823e+02  -2.088861e+02
   4.818351e+01  -2.950865e+02
   2.467837e+02  -1.802762e+02
   3.137211e+02   1.021585e+02
   2.337508e+02   2.338611e+02
   2.297034e+01   2.067117e+02
  -9.835392e+01   9.934402e+01
  -1.184167e+02   1.122191e+01
  -4.609761e+00   1.368115e+00
   4.568063e+01   4.397153e+01
   2.013070e+01   8.453105e+01
  -8.832463e+01   7.881817e+01
  -1.254626e+02   2.472028e+00
  -2.762858e+01  -4.694775e+01
   7.464510e+01  -3.898777e+01
  -6.293452e+00   5.183084e+01
  -1.364659e+02   9.658042e+01
  -2.334010e+02  -1.547819e+01
  -1.786061e+02  -1.506736e+02
   1.075561e+01  -2.353062e+02
   1.596180e+02  -2.311636e+02
   2.512263e+02  -7.704733e+01
   9.709974e+01   3.385084e+01
  -3.954929e+01   1.068110e+02
  -2.005153e+01   4.231319e+00
   5.602623e+01  -8.896941e+01
   1.477357e+02  -6.164986e+00
   1.644578e+02   1.494662e+02
   6.540665e+01   1.963625e+02
  -7.921024e+01   1.247654e+02
  -1.106446e+02   1.274307e+01
  -6.194805e+01  -5.168562e+00
  -4.732236e+00  -1.236210e+00
   5.577723e+01   6.742876e+01
  -7.227562e+01   7.418318e+01
  -1.518366e+02  -5.234233e+00
  -1.740828e+02  -1.169764e+02
  -3.678141e+00  -1.885970e+02
   1.579540e+02  -9.122018e+01
   1.830774e+02   1.676497e+01
   5.681489e+01   8.732769e+01
  -7.962087e+01   8.832864e+01
  -3.569471e+01   4.176732e+01
  -2.585890e+01   3.982006e+01
  -1.639975e+00   6.410045e+00
  -1.570442e+01   5.077649e+01
  -6.953315e+01   3.593356e+00
  -9.962125e+01  -7.764006e+01
   4.236422e+00  -1.451400e+02
   1.236065e+02  -1.477780e+02
   1.675095e+02   1.087966e+00
   1.274201e+02   1.156041e+02
  -8.339286e+00   2.104572e+02
  -6.068898e+01   6.977087e+01
  -9.526379e+01   4.970239e+00
  -4.315020e+01  -3.589482e+01
   7.339418e-01  -1.641431e+01
  -5.387830e+01   5.876019e+01
  -6.933475e+01   4.754087e+01
  -6.300744e+01  -7.421053e+01
   1.175150e+01  -9.661242e+01
   1.068062e+02  -9.794472e+01
   8.212899e+01  -5.997979e+00
  -4.179762e+00   1.300881e+02
  -8.435203e+01   6.031692e+01
  -1.543795e+02  -1.885358e+01
  -8.473604e+01  -1.763522e+02
   9.298991e+01  -1.586534e+02
   2.284488e+02  -7.386549e+01
   1.866948e+02   6.254633e+01
   6.968345e+01   1.153578e+02
  -3.048785e+01   9.991232e+01
  -7.465727e+01   2.743474e+01
  -8.007908e+01   6.376202e+01
   2.015203e+00   9.217417e+01
  -6.736980e+01   7.006306e+01
  -1.110994e+02   1.393091e+01
  -8.418675e+01  -6.699900e+01
  -1.580209e+00  -1.328265e+02
   4.990937e+01  -1.619140e+02
   7.747581e+01  -1.279453e+00
   1.307720e+02   8.938682e+01
   2.212617e+01   9.675359e+01
  -2.969349e+01   3.353926e+01
  -1.775489e+01   1.864903e+00
   1.413758e+01  -5.407752e+01
  -8.025036e+00  -4.584517e+01
  -4.929974e+01  -1.177007e+01
  -6.623412e+01  -1.058889e+01
  -8.454026e+00  -2.041957e+01
   6.098980e+01  -2.710402e+01
   1.546914e+02   1.579934e+01
   9.640809e+01   6.906408e+01
   3.448144e+01   5.875225e+01
  -1.061131e+02   4.977875e+01
  -1.216561e+02  -1.634926e+01
  -5.448628e+01  -4.320992e+01
   3.067122e+01  -1.570890e+01
   6.304381e+01  -7.933146e+00
  -7.925323e+00   7.510106e+01
  -8.486736e+00   3.930790e+01
  -7.118823e+01  -2.884626e+00
  -3.487797e+01  -8.443457e+01
  -3.522209e+01  -1.954487e+01
  -6.325800e+01   1.654093e+01
  -6.916471e+01  -2.516728e+01
  -2.079131e+01  -4.525508e+01
   2.389242e+01  -1.752431e+02
   1.404104e+02  -8.331571e+01
   1.269961e+02  -2.355667e+01
   1.118806e+02   7.669511e+01
   6.118306e+01   1.312281e+02
  -6.919936e+01   5.430294e+01
  -7.796100e+01  -2.245375e+01
   1.005499e+01  -4.408809e+01
   1.115998e+02   2.569895e+01
   3.857895e+01   6.499555e+01
  -1.115440e+02   1.011188e+02
  -1.456075e+02   3.327871e+01
  -1.303546e+02  -4.205150e+01
  -3.664248e+01  -7.511717e+01
   3.980628e+01  -3.937896e+01
   4.289257e+01  -8.299376e-01
  -6.782038e+00   2.987850e+01
  -1.307406e+02   9.077621e+00
  -1.301963e+01  -5.929268e+01
   1.963631e+01  -1.746266e+02
   1.386143e+02  -5.404081e+01
   1.523720e+02   6.572731e+01
   3.920130e+00   1.633898e+02
  -1.414797e+01   1.128407e+02
  -7.353784e+01  -9.763162e+00
  -8.991838e+01  -8.369545e+01
  -2.622840e+01  -1.029851e+02
   5.621907e+01  -4.403702e+01
   5.538159e+01   2.072271e+00
  -2.605564e+01   1.584965e+01
   4.964242e+00   4.293876e+00
  -1.631222e+01   3.378274e+01
   2.705725e+01   5.200436e+01
   4.993355e+01   8.289203e+01
  -1.524057e+01   3.257645e+01
  -1.125186e+02  -3.164723e+01
  -7.670102e+01  -1.348569e+01
  -1.303262e+01  -3.999883e+01
   5.946080e+01  -3.822839e+01
   2.822025e+01  -4.911108e+01
   8.016481e+00  -7.180291e+00
  -2.681878e+01   3.363986e+01
  -4.234808e+01  -1.273091e-01
  -2.157327e+01   2.628895e+01
  -2.022979e+01  -6.556849e+00
  -8.479850e+01  -1.813415e+00
  -6.104421e+01   9.160626e-01
   1.983293e+01  -6.673475e+01
   8.963592e+01  -9.078245e+01
   1.134285e+02  -3.291660e+01
   1.150644e+02   2.109703e+01
   3.510212e+01   1.283943e+02
  -7.954291e+01   1.194402e+02
  -8.355067e+01   4.125468e+01
  -5.569490e+01  -5.063087e+01
  -2.990372e+01  -4.944738e+01
   5.717912e+00  -4.403648e+01
  -2.350956e+01  -3.736928e+01
  -7.459417e+00  -4.026154e+01
   3.066028e+01  -3.972472e+01
   2.933217e+01   1.123743e+01
   6.272127e+00   3.905124e+01
   7.586422e+01   1.027105e+02
  -2.657345e+00   9.717467e+01
  -7.082853e+01   3.509157e+01
  -4.651762e+01  -1.491833e+00
   2.042172e-03  -7.734102e+01
   7.368413e+01  -1.804641e+01
   1.002609e+02   1.073905e+01
  -7.425850e+00   5.114545e+01
  -7.296270e+01   5.528713e+01
  -2.628120e+01  -4.646222e+01
   8.859488e+00  -6.169615e+01
   1.883107e+01  -1.106450e+01
  -6.235308e+00  -1.307751e+01
  -2.929938e+01   7.442551e+01
  -1.303233e+02   6.430023e+01
  -4.824634e+01  -7.498800e-02
   1.612871e+01  -9.251674e+01
   5.008757e+01  -7.605104e+01
   1.159697e+02   3.426309e+01
   2.943187e+01   3.583281e+01
  -1.490823e+00   7.715113e+01
  -1.565522e+01   3.451843e+01
  -4.105173e+01  -1.177539e+01
  -4.274378e+00  -6.054905e+01
  -9.237186e+00   3.674467e+01
   3.384855e+01   2.706199e+01
   5.556555e+01   2.226131e+01
  -1.095557e+01   1.089378e+01
  -2.917425e+01   1.427971e+01
  -1.013055e+01   9.949495e+00
  -8.567684e+00   1.639042e+00
  -3.799953e+01   1.489168e+01
  -7.900221e+00  -3.873909e+00
  -3.480180e-01  -2.625599e+01
   4.188268e+01   7.974746e+00
   8.415255e+01   3.871268e+01
   3.145390e+01   7.767884e+01
  -2.934290e+01   5.886706e+01
  -9.738120e+01   1.607321e+01
  -6.109958e+01  -4.507837e+01
   3.405933e+01  -2.024920e+01
   4.931606e+01  -2.377702e+01
   6.191622e+01  -4.297688e+01
  -2.512459e+01   2.603769e+01
  -4.982018e+00   1.405678e+01
  -2.421595e+00   2.099806e+00
   4.718683e+00  -2.364910e+01
