
 $NMID
 id='ANONYMOUS ', fmtdat='(2E16.6)'
 volume=1.0
 tramp=1.0
 $END
   3.873289e+03  -1.563841e+02
   2.256270e+03   2.513130e+03
  -5.083069e+02   2.356036e+03
  -1.582883e+03   1.022352e+03
  -9.979499e+02  -1.973859e+02
   3.848411e+02  -3.961278e+02
   6.405073e+02   2.643564e+02
   5.718717e+01   8.446051e+02
  -7.568141e+02   6.505469e+02
  -6.850837e+02  -1.588314e+02
  -3.514390e+02  -7.410201e+02
   1.803136e+02  -7.341912e+02
   3.798449e+02  -9.825642e+01
   2.923696e+02   4.195279e+02
  -4.912444e+02   5.785480e+02
  -5.486326e+02  -8.915316e+01
  -5.213876e+02  -5.754344e+02
   1.565541e+02  -5.395476e+02
   3.622720e+02  -1.735381e+02
   4.339587e+02   4.425052e+01
  -1.325797e+02   3.245317e+02
  -1.246604e+02   3.085661e+02
  -8.095306e+01   4.696784e+01
   7.477268e+00  -1.099129e+02
   3.245423e+02   1.192734e+01
   1.710354e+02   3.248092e+02
  -4.531533e+02   2.329440e+02
  -7.593385e+02  -1.138187e+02
  -2.755101e+02  -5.521253e+02
   2.483710e+02  -3.354189e+02
   6.322268e+02   1.784746e+02
   2.945493e+02   3.589306e+02
  -2.851898e+02   5.511000e+02
  -5.058399e+02   1.639219e+02
  -4.718689e+02  -1.531029e+02
  -1.369634e+02  -3.226536e+02
   5.120905e+01  -2.523478e+02
   2.398437e+01   1.998732e+02
  -1.600697e+02   3.134171e+02
  -4.245330e+02  -1.083506e+02
  -2.237459e+02  -6.314032e+02
   3.100113e+02  -6.110382e+02
   5.404517e+02   1.618386e+01
   2.258238e+02   4.329369e+02
  -2.308412e+02   2.118443e+02
  -3.097133e+02  -3.099157e+02
   9.560689e+01  -4.964913e+02
   5.257391e+02  -1.269689e+02
   6.003002e+02   3.792691e+02
   1.429967e+02   5.673912e+02
  -3.329447e+02   3.547282e+02
  -5.329627e+02  -7.552055e+01
  -2.998028e+02  -2.825130e+02
   1.455636e+02  -2.628206e+02
   3.638400e+02   1.291623e+01
   1.781474e+02   1.687527e+02
  -1.241984e+02   6.465077e+01
  -1.391982e+02  -1.209575e+02
   1.676727e+02  -1.732160e+02
   3.116544e+02   1.402548e+01
   1.975132e+02   2.952744e+02
  -1.111736e+02   2.649241e+02
  -3.361663e+02   9.656178e+01
  -2.371068e+02  -9.879327e+01
  -2.162535e+01  -2.178449e+02
   3.108148e+02  -2.611507e+02
   3.380862e+02  -1.968321e+02
   2.595153e+02   1.265127e+02
   1.004156e+02   3.487027e+02
   3.915499e+01   4.060978e+02
  -4.924359e+01   1.618911e+02
  -5.409648e+01   6.700787e+01
  -8.785914e+01   1.015609e+02
  -1.747469e+02   7.118598e+01
  -2.327113e+02  -9.337183e+01
  -1.148259e+02  -1.771988e+02
   6.606131e+01  -2.279002e+02
   1.818124e+02  -2.125733e+01
   1.588137e+02   2.255320e+02
  -3.741806e+01   2.509764e+02
  -2.641400e+02   1.048944e+02
  -4.363536e+02  -1.432213e+02
  -1.964718e+02  -3.379945e+02
   9.326123e+01  -3.072373e+02
   2.336135e+02  -1.403682e+02
   2.164379e+02  -8.904873e+01
   1.539902e+02  -4.166361e+01
   2.970995e+02  -6.388740e+01
   4.408061e+02   6.263695e+01
   3.419400e+02   3.451157e+02
  -6.096579e+01   4.592913e+02
  -3.739971e+02   4.364329e+02
  -4.789901e+02   1.570039e+02
  -3.021215e+02  -1.036511e+02
  -3.921875e+01  -2.875419e+02
   6.066686e+01  -2.644414e+02
   7.974730e+01  -8.189784e+00
  -7.153748e+01   1.104265e+02
  -1.511003e+02   1.340877e+01
  -1.409800e+01  -2.155977e+02
   1.389435e+02  -1.590528e+02
   1.366804e+02   8.900200e+01
  -3.040145e+01   1.867487e+02
  -1.872204e+02   4.354855e+01
  -1.601602e+02  -2.696315e+02
  -3.147186e+01  -3.916979e+02
   2.507525e+02  -2.155851e+02
   3.265925e+02   5.831385e+01
   3.219152e+02   1.995281e+02
   1.139085e+02   2.652966e+02
  -9.571960e+01   1.533885e+02
  -1.779962e+02   5.162310e+01
  -5.069758e+01  -2.054656e+01
   5.232742e+01   2.619719e+01
   2.704850e+01   7.399512e+01
  -1.274422e+02   1.105628e+02
  -1.830268e+02  -1.987326e+01
  -3.581644e+01  -5.997838e+01
   1.177534e+02   1.160852e+01
   6.561276e+01   4.938267e+01
  -1.636893e+02   5.755998e+01
  -3.207500e+02  -3.050750e+01
  -2.629417e+02  -1.127133e+02
  -4.448927e+01  -2.387097e+02
   1.581403e+02  -2.486741e+02
   2.562847e+02  -1.097896e+02
   1.634201e+02   6.708698e+01
  -4.561439e+01   9.418099e+01
  -6.634383e+01  -1.691370e+01
   5.728387e+01  -1.065698e+02
   1.974102e+02  -8.662486e+01
   2.211897e+02   8.118629e+01
   8.837009e+01   2.181893e+02
  -6.637339e+01   1.811833e+02
  -1.259391e+02   5.814687e+01
  -2.160143e+01  -3.177878e+01
   4.018278e+01  -4.525112e+00
   2.196770e+01   6.834476e+01
  -8.503248e+01   1.359368e+02
  -1.930042e+02   7.380853e+01
  -2.284165e+02  -7.000826e+01
  -5.144332e+01  -2.448058e+02
   1.338239e+02  -1.517634e+02
   1.675542e+02   5.244070e+00
   8.589983e+01   1.403464e+02
  -7.805796e+01   8.688991e+01
  -5.783656e+01   1.655530e+01
  -1.259470e+00  -3.994069e+01
   1.856233e+01   4.411613e+01
  -6.158484e+01   1.539086e+01
  -8.971815e+01   5.472209e+00
  -1.037550e+02  -1.608746e+02
  -4.726359e+01  -1.849573e+02
   1.343864e+02  -1.654896e+02
   2.211452e+02  -4.869859e+01
   2.198504e+02   7.912039e+01
   5.607931e+01   2.057317e+02
  -9.687638e+01   2.325108e+02
  -1.020121e+02   2.756323e+01
  -7.703124e+01  -7.278109e+01
  -1.569827e+01  -8.870909e+00
  -5.076278e+01   1.078333e+01
  -1.239472e+02   3.166156e+01
  -4.415347e+01  -2.659211e+01
   6.129622e+01  -1.339132e+02
   1.352386e+02  -3.066335e+01
   6.900995e+01   5.091630e+01
  -4.029903e+01   1.240437e+02
  -1.183402e+02   1.136356e+02
  -1.847692e+02  -1.920807e+00
  -9.313202e+01  -2.050841e+02
   6.034128e+01  -2.691941e+02
   2.321641e+02  -1.152784e+02
   2.663406e+02   5.912962e+01
   1.137920e+02   1.829243e+02
   1.875790e+01   1.820065e+02
  -5.686016e+01   7.862117e+01
  -5.541107e+01   6.123457e+01
  -5.107162e+01   1.081334e+02
  -6.931322e+01   1.058636e+02
  -1.254179e+02   5.164308e+00
  -9.291589e+01  -1.432293e+02
  -1.938051e+01  -1.693205e+02
   7.919206e+01  -1.902363e+02
   1.148171e+02  -3.369507e+01
   1.588413e+02   1.419469e+02
   6.020577e+01   1.969547e+02
  -6.832932e+01   1.087289e+02
  -2.317440e+01  -1.646598e+01
  -2.535880e+01  -6.415212e+01
   2.359881e+01  -1.802238e+01
  -8.283164e+01  -2.338449e+01
  -5.398077e+01  -1.668207e+01
  -1.413936e+01  -7.798811e+01
   9.676554e+01  -3.594861e+01
   1.711872e+02  -4.228788e+00
   1.493699e+02   7.793975e+01
   3.519205e+01   1.345005e+02
  -1.689848e+02   1.074035e+02
  -1.833870e+02   3.554499e+01
  -8.308332e+01  -6.376712e+01
   4.442424e+01  -4.209144e+01
   8.189533e+01  -7.543576e+00
   1.525618e+01   8.564699e+01
  -7.024230e+00   2.507429e+01
  -7.319978e+01  -5.925305e+01
  -3.656709e+01  -9.718121e+01
  -2.121539e+01   7.584853e+00
  -1.982352e+01   2.892809e+01
  -4.154408e+01   1.839787e+01
  -1.462328e+01  -9.420256e+01
   3.376644e+01  -1.515420e+02
   8.685053e+01  -1.617944e+02
   1.586559e+02  -4.924073e+01
   1.315289e+02   7.322975e+01
   6.186151e+01   1.287915e+02
  -7.773815e+01   6.029256e+01
  -3.283462e+01   1.580117e+01
   3.408007e+01  -3.496531e+01
   1.455300e+02   2.629118e+01
   6.865502e+01   9.858520e+01
  -4.742335e+01   1.243378e+02
  -1.643911e+02   7.330341e+01
  -1.723969e+02  -5.550996e+00
  -6.471555e+00  -4.443948e+01
   7.327345e+01  -6.526250e+01
   6.179579e+01   1.885942e+01
  -3.701783e+01   2.714174e-01
  -9.670910e+01  -1.731657e+01
  -4.845633e+01  -1.264423e+02
   4.642109e+01  -1.333399e+02
   1.150739e+02  -1.245062e+02
   1.011140e+02   8.176530e+01
   4.161966e+01   1.509630e+02
  -1.074592e+02   1.081520e+02
  -1.074698e+02  -1.642659e+01
  -6.650403e+01  -1.170178e+02
   7.737587e+00  -1.107510e+02
   7.450184e+01  -9.086779e+00
   4.237948e+01   6.631020e+01
   4.151463e+00  -6.379293e+00
  -2.720442e+00  -2.664615e+01
   3.071180e+01   3.704874e+00
   7.936907e+01   7.711883e+01
   2.965784e+01   6.840693e+01
  -3.275583e+01   8.880062e+01
  -1.789542e+02  -9.224657e+00
  -1.506711e+02  -5.763665e+01
  -2.798415e+01  -7.360396e+01
   6.550147e+01  -4.045295e+00
   1.204826e+02  -1.087490e+01
   3.452991e+01   2.309110e+01
  -8.423060e+01   4.123120e+00
  -6.008823e+01  -4.250049e+00
  -1.431584e+01  -3.517792e+01
  -1.132858e+01   1.003760e+01
  -8.924525e+01  -4.643527e+00
  -7.184814e+01   5.784715e+00
  -1.498581e+01  -7.857834e+01
   7.655076e+01  -1.112290e+02
   1.413823e+02  -5.628508e+01
   1.699742e+02   6.186505e+01
   4.153326e+01   1.392552e+02
  -7.314212e+01   1.559954e+02
  -1.288631e+02   5.149692e+01
  -5.477990e+01  -1.387605e+01
   7.246523e+00  -4.013550e+01
   1.028837e+01  -3.307344e+01
   2.859840e+01   1.406483e+01
  -2.080429e+01  -3.523443e+01
   4.658135e+00  -7.823189e+01
   5.656771e+00  -4.107173e+01
   6.100388e+01   1.688729e+01
   4.086539e+01   8.850791e+01
  -7.644059e+00   1.030061e+02
  -7.977896e+01   1.863778e+01
  -1.060340e+02  -1.059462e+02
  -6.637989e+01  -8.689117e+01
   6.099641e+01  -8.413949e+01
   1.227209e+02  -3.932571e+01
   9.020838e+01  -2.964887e+00
  -2.029264e+01   7.972536e+01
  -2.639991e+01   4.978428e+01
   4.974311e+01   2.655443e+01
   4.700665e+01  -1.257754e+01
  -6.343062e+00   3.359041e+01
  -9.140332e+01   3.591395e+01
  -1.174449e+02   5.350300e+01
  -5.944635e+01   2.462975e+01
   1.863761e+01  -7.849286e+01
   7.591041e+01  -1.077049e+02
   2.887930e+01  -1.218132e+01
  -1.599256e+01   5.706709e+01
  -1.094044e+01   6.037817e+01
  -5.218168e+01  -2.866695e+01
  -1.187080e+01  -8.203223e+01
   5.383644e-01  -8.836635e+01
   6.998068e+01  -2.169412e+01
   4.432774e+01   1.930749e+01
   5.955217e+01   5.240093e+01
  -1.270473e+01  -1.032747e+01
   1.751517e+01  -3.179603e+01
  -4.442143e+01   3.243539e+01
  -8.221379e-01   6.731699e+01
  -1.426254e+01   1.657867e+01
   5.350939e+00  -2.398535e+01
  -1.307250e+01  -6.875811e+01
   3.657218e+01  -2.748675e+01
   4.472382e+01   6.547635e+01
   2.987997e+01   3.190860e+01
  -7.517328e+01   8.075770e+01
  -8.673400e+01  -1.629033e+00
  -5.710759e+01  -2.027438e+01
   1.064942e+01  -3.378770e+01
   5.019417e+01  -1.564173e+01
   4.419292e+01  -7.907476e+00
  -3.996148e+01   1.497456e+01
  -3.921837e+01  -9.964249e+00
   3.836457e+01  -5.088466e+01
   3.791987e+01  -1.343808e+01
