
 $NMID
 id='ANONYMOUS ', fmtdat='(2E16.6)'
 volume=1.0
 tramp=1.0
 $END
   3.887590e+03  -6.826768e+01
   2.434586e+03   2.251051e+03
  -5.514858e+02   2.579888e+03
  -2.083638e+03   8.435698e+02
  -8.464223e+02  -5.362466e+02
   4.628373e+02  -3.267635e+02
   7.442774e+02   3.204395e+02
  -1.758998e+01   8.634758e+02
  -5.630662e+02   6.499276e+02
  -6.605446e+02  -4.464234e+01
  -5.132159e+02  -7.773051e+02
   1.172631e+02  -6.975522e+02
   5.314478e+02  -1.546612e+02
   2.911974e+02   5.426942e+02
  -1.537630e+02   9.976837e+02
  -5.532496e+02  -9.395734e+01
  -2.441839e+02  -8.041584e+02
   3.750761e+02  -6.098854e+02
   5.992906e+02  -5.752448e+01
   3.012314e+02   2.980548e+02
   1.899440e+02   5.031496e+02
  -2.174105e+02   3.244291e+02
  -1.918352e+02  -7.363789e+01
   1.615945e+02  -9.284683e+01
   3.742994e+02   2.141661e+02
   1.286039e+02   4.462195e+02
  -4.943649e+02   4.884694e+02
  -7.101172e+02  -3.980117e+01
  -3.282690e+02  -5.270090e+02
   4.840631e+02  -3.772775e+02
   6.284834e+02   1.718596e+02
   1.833408e+02   4.575041e+02
  -3.979001e+02   5.029644e+02
  -5.175908e+02   1.524124e+02
  -3.114445e+02  -2.105227e+02
  -1.231300e+02  -4.117150e+02
   1.561867e+02  -2.983943e+02
   8.830394e+01   1.812347e+02
  -2.258344e+02   4.004706e+02
  -4.219697e+02  -3.134492e+01
  -2.239748e+02  -6.670711e+02
   3.054632e+02  -6.089407e+02
   5.626714e+02   3.506327e-01
   2.467804e+02   4.822311e+02
  -2.995121e+02   2.617509e+02
  -3.548852e+02  -3.553026e+02
   8.165749e+01  -5.448623e+02
   5.576436e+02  -1.298122e+02
   6.463680e+02   4.246983e+02
   2.324270e+02   5.923395e+02
  -3.413740e+02   4.002405e+02
  -6.088641e+02  -2.741165e+01
  -4.187627e+02  -3.122908e+02
   1.157242e+02  -2.838816e+02
   4.413904e+02  -5.036674e+01
   2.338341e+02   1.054995e+02
  -9.156373e+01   7.299350e+01
  -1.426684e+02  -1.181679e+02
   1.303683e+02  -1.219812e+02
   3.202462e+02   1.097583e+02
   1.046938e+02   2.428782e+02
  -1.975709e+02   2.785260e+02
  -3.111349e+02   6.283199e+01
  -1.679989e+02  -8.297545e+01
   4.303198e+01  -2.819928e+02
   2.284891e+02  -3.494500e+02
   3.538036e+02  -1.690939e+02
   3.194778e+02   2.464649e+02
   7.354424e+01   4.701584e+02
  -9.374375e+01   3.248221e+02
  -7.176275e+01   7.044493e+01
   2.706806e+01   4.705347e+00
  -2.574292e+01   1.482987e+02
  -1.810240e+02   1.580372e+02
  -2.185617e+02   1.288715e+01
  -1.650152e+02  -1.799010e+02
   5.576221e+01  -2.133053e+02
   1.714623e+02   4.647613e+00
   1.822527e+02   2.466859e+02
   5.062562e+00   3.196569e+02
  -2.333277e+02   1.237744e+02
  -3.156615e+02  -1.410648e+02
  -2.157716e+02  -3.053903e+02
   5.017644e+01  -2.691348e+02
   1.575127e+02  -1.329666e+02
   1.678793e+02   3.275129e+01
   1.236605e+02  -1.515095e+01
   2.586874e+02  -4.185501e+01
   3.891540e+02   1.000029e+02
   3.040622e+02   3.008511e+02
   1.767681e+01   5.097892e+02
  -4.001935e+02   4.569105e+02
  -5.022021e+02   2.350400e+02
  -3.340599e+02  -1.263205e+02
  -5.613950e+01  -2.802659e+02
   9.031932e+01  -2.097876e+02
   2.778709e+01  -3.061876e+01
  -1.241310e+02   1.327613e+02
  -1.518193e+02  -1.887569e+01
  -3.419494e+01  -1.791061e+02
   8.432713e+01  -1.317265e+02
   1.128434e+02   5.694588e+01
  -1.448775e+01   1.731752e+02
  -2.213462e+02   1.570909e+01
  -1.977668e+02  -2.228002e+02
   3.425148e+01  -3.673454e+02
   2.437854e+02  -2.628225e+02
   3.360947e+02   5.757604e+01
   3.053312e+02   1.937473e+02
   1.190261e+02   2.558435e+02
  -6.526457e+01   1.640738e+02
  -1.158408e+02   5.128753e+01
  -4.951069e+01   1.544846e+01
   7.002878e+01   1.287504e+02
   2.463047e+01   1.731580e+02
  -1.449937e+02   1.123656e+02
  -1.919143e+02  -1.232504e+01
  -1.110422e+02  -7.034907e+01
   3.127291e+01  -3.969679e+01
   5.478674e+01   5.126175e+01
  -5.971009e+01   8.730704e+01
  -2.427514e+02   4.457653e+01
  -1.828218e+02  -1.187072e+02
  -6.128082e+01  -2.382457e+02
   1.689535e+02  -2.352569e+02
   2.376373e+02  -1.426567e+02
   1.564467e+02   6.652601e+01
   5.999003e+00   1.599053e+02
  -5.938423e+01   4.755411e+01
   3.874328e+01  -5.533843e+01
   1.569399e+02  -5.891055e+01
   2.010909e+02   1.078200e+02
   1.481934e+01   2.008525e+02
  -7.146779e+01   1.739204e+02
  -1.323789e+02   2.370722e+01
  -9.064717e+01  -3.491727e+01
   3.858994e+01   1.191628e+01
   6.080143e+01   1.154509e+02
  -4.771722e+01   1.534857e+02
  -1.864378e+02   1.039117e+01
  -2.045897e+02  -1.190564e+02
  -4.386566e+01  -2.088687e+02
   2.300014e+02  -1.705691e+02
   1.673530e+02   2.438479e+01
   1.002501e+02   1.380282e+02
  -7.732637e+01   1.757275e+02
  -9.504347e+01   4.854415e+01
   3.924551e-01  -4.758448e+01
   3.676201e+01   2.601507e-01
   2.804487e+01   7.784377e+00
  -1.118934e+02   8.468022e+00
  -1.082176e+02  -1.903485e+01
  -1.605215e+01  -1.399459e+02
   1.175421e+02  -1.386295e+02
   1.830150e+02  -2.248446e+01
   1.966401e+02   1.039293e+02
   5.054489e+01   1.861605e+02
  -5.779106e+01   1.547551e+02
  -1.319790e+02   9.548970e+00
  -1.267165e+02  -1.154921e+01
   1.266062e+01  -6.809540e+01
  -1.535751e+01   1.506559e+01
  -2.961959e+01   6.652672e+01
  -1.745754e+01  -3.621189e+01
   1.372800e+01  -6.022406e+01
   4.341996e+01  -3.853860e+01
   5.985319e+01  -6.630314e+00
  -6.787477e+00   7.847160e+01
  -1.143871e+02   8.727369e+01
  -1.839863e+02  -7.018801e+01
  -1.458175e+02  -2.026161e+02
   1.118540e+02  -2.471277e+02
   2.789300e+02  -1.197263e+02
   2.132974e+02   1.063751e+02
   1.234450e+02   1.745121e+02
  -4.155742e+01   1.519024e+02
  -1.087543e+02   9.282936e+01
  -7.570802e+01   4.615658e+01
  -5.499012e+01   5.701542e+01
  -1.146318e+02   7.559176e+01
  -1.363651e+02  -5.150071e+01
  -1.571186e+02  -1.353764e+02
  -3.115750e+01  -2.374055e+02
   7.170085e+01  -1.840973e+02
   1.672525e+02  -3.131853e-01
   1.073742e+02   1.240106e+02
   5.912472e+01   1.242192e+02
  -9.302864e+01   4.830154e+01
  -5.707934e+01   1.741155e+01
  -9.615915e+00  -4.512294e+01
   1.075027e+01  -3.093320e+01
   5.402893e+00  -4.430442e+01
  -4.271705e+01  -4.228913e+01
  -3.665753e+01  -4.507542e+01
   6.358866e+01  -5.149081e+01
   1.199858e+02  -1.468886e+01
   1.482520e+02   4.320132e+01
   5.597053e+01   1.088092e+02
  -1.082408e+02   7.137195e+01
  -1.292017e+02   3.028026e+01
  -3.552918e+01  -3.282712e+01
   6.743886e+01  -3.394318e+01
   6.981002e+01   3.021864e+01
  -3.327702e+00   5.989908e+01
  -3.126477e+01   5.680637e+01
  -7.277378e+01   1.085756e+01
   1.263069e+01  -2.108591e+01
  -2.053560e+01  -7.429964e+01
  -4.787659e+01   3.705418e+01
  -8.480888e+01   3.785052e+00
  -5.687642e+01  -5.673400e+01
   3.432849e+00  -1.331555e+02
   7.718086e+01  -1.405064e+02
   1.625514e+02  -5.455801e+01
   1.155819e+02   7.262597e+01
   6.939735e+01   1.292807e+02
  -9.349021e+01   4.295158e+01
  -8.294181e+01  -5.172804e+01
   6.384309e+01  -5.042245e+01
   1.351858e+02   7.280708e+01
   7.510568e+01   1.327310e+02
  -6.623170e+01   8.919793e+01
  -1.502375e+02   4.004841e+01
  -1.831653e+02  -2.048213e+01
  -8.047864e+01  -8.951806e+01
   4.779971e+01  -8.146635e+01
   6.056055e+01  -5.681287e+01
  -4.884066e+01   5.058551e+01
  -1.023971e+02   7.222933e+00
  -9.040485e+00  -1.132520e+02
   1.386626e+02  -1.406387e+02
   1.455418e+02  -8.139364e+01
   8.358620e+01   1.102494e+02
  -5.369954e+00   1.687668e+02
  -8.520589e+01   1.212119e+02
  -1.065707e+02  -2.343588e+01
  -7.426847e+01  -1.314566e+02
  -3.275790e+00  -1.295238e+02
   9.949388e+01  -6.345471e+01
   1.137221e+02   1.374282e+01
   7.829157e+01  -1.416874e+01
   4.674576e+00  -3.881476e+01
  -7.261725e+00   2.474630e+01
   1.042818e+02   1.093997e+02
   5.251415e+01   1.326523e+02
  -6.672608e+01   6.372711e+01
  -1.167705e+02  -3.134189e+01
  -1.737395e+02  -1.057246e+02
  -3.392684e+01  -6.548567e+01
   9.332048e+01  -3.545607e+01
   1.178808e+02  -1.376283e-01
   4.200211e+01   1.608997e+01
  -3.491948e+01   3.778479e+01
  -2.751500e+01   2.285336e+01
   4.134804e+01   5.518321e+01
   2.345455e+01   1.911758e+01
  -9.314979e+01   1.762297e+01
  -7.175078e+01  -4.028445e+01
  -2.294500e+01  -8.922604e+01
   1.226694e+02  -9.810969e+01
   1.974410e+02  -7.056387e+01
   1.641822e+02   8.277339e+01
  -2.512531e+00   2.012391e+02
  -8.955144e+01   7.351236e+01
  -1.416275e+02  -1.836267e+01
  -9.415523e+01  -3.332510e+01
  -3.904614e+01  -1.727398e+01
  -4.012942e+01  -4.718185e+01
   9.846370e+00  -2.778213e+01
   4.799159e+00  -2.590893e+01
  -1.568830e+01  -9.453903e+01
   1.260696e+01  -1.016097e+02
   8.942488e+01   4.862432e-01
   7.111725e+01   1.109629e+02
   1.211819e+01   1.421634e+02
  -1.112170e+02   3.937722e+01
  -9.943425e+01  -5.077802e+01
   2.471702e+00  -1.479685e+02
   6.272444e+01  -8.254037e+01
   1.423765e+02  -2.724362e+01
   6.847737e+01   6.462346e+01
  -1.656681e+01   4.932941e+01
  -1.725529e+01   3.052051e+01
   1.305068e+01   1.217254e+01
   4.526213e+01  -5.552365e+01
   2.070832e+01   7.330449e-01
  -6.431746e+01   5.630730e+01
  -6.941407e+01   7.262782e+01
  -6.612298e+01  -5.100851e+01
   2.434862e+00  -9.696486e+01
   7.064178e+01  -8.843764e+01
   4.286654e+01   3.723440e+01
  -2.781811e+01   9.089262e+01
  -5.046733e+00   3.903133e+01
  -2.596865e+01  -2.732809e+01
   1.242316e+01  -7.480947e+01
  -4.780307e+00  -3.841573e+01
   7.812095e+00  -3.106735e+01
   3.748873e+01   5.633728e+01
   5.126984e+01   3.125114e+01
  -2.203307e+01   6.421104e+00
   5.129032e+01  -1.867292e+01
   2.990363e-01   5.415590e+01
  -3.192725e+01   7.563709e+01
  -8.463036e+01   4.189749e+01
  -5.709254e+01  -5.928452e+01
  -3.353863e+00  -1.250776e+02
   6.589827e+01  -6.485492e+01
   7.853023e+01   3.223024e+01
   2.419370e+01   7.193989e+01
  -3.553743e+01   4.054885e+01
  -6.452965e+01  -7.825476e+00
  -3.822062e+01  -5.461351e+01
   2.766870e+00  -2.762962e+01
   7.485280e+01   8.918862e+00
  -1.742060e+01  -1.606400e+01
  -3.939955e+01   2.590455e+01
  -3.033673e+01   2.898943e+00
   4.000174e+00  -3.421648e+01
   7.525115e+01   7.310921e+00
