
 $NMID
 id='ANONYMOUS ', fmtdat='(2E16.6)'
 volume=1.0
 tramp=1.0
 $END
  -4.738844e+03  -3.229958e+01
  -2.333880e+03  -2.745358e+03
   9.333699e+02  -3.040781e+03
   2.305666e+03  -7.981483e+02
   1.098152e+03   8.223338e+02
  -9.408044e+02   7.032697e+02
  -1.041953e+03  -4.660413e+02
  -2.681714e+01  -1.401221e+03
   8.417747e+02  -7.512262e+02
   1.022414e+03   4.745897e+01
   5.958857e+02   1.074437e+03
  -5.568432e+02   9.072207e+02
  -5.779499e+02   1.760786e+02
  -3.190523e+02  -8.293507e+02
   2.246220e+02  -8.664665e+02
   7.773196e+02   8.893904e+01
   3.424826e+02   6.494933e+02
  -4.763326e+02   4.553313e+02
  -5.681923e+02   3.915229e+02
  -4.276051e+02  -2.330346e+02
  -7.065297e+01  -4.543231e+02
   3.378516e+02  -3.719138e+02
   2.601398e+02   1.729253e+01
  -2.126823e+01   1.868500e+02
  -5.390908e+02  -1.143804e+01
  -3.420476e+02  -4.529105e+02
   3.941427e+02  -2.714897e+02
   9.502907e+02   5.403494e+01
   4.349791e+02   5.477684e+02
  -4.353094e+02   4.731949e+02
  -7.158501e+02   1.058671e+01
  -3.490556e+02  -5.226112e+02
   2.549872e+02  -5.888377e+02
   6.887603e+02  -2.713217e+02
   4.356859e+02   2.117713e+02
   9.404941e+01   5.622594e+02
  -1.683167e+02   3.392031e+02
  -2.010512e+02  -3.868034e+02
   1.689070e+02  -5.533842e+02
   4.972227e+02  -5.491513e+01
   3.501774e+02   8.102778e+02
  -2.774957e+02   8.119961e+02
  -6.163081e+02  -1.930146e+01
  -2.732443e+02  -6.377188e+02
   3.296569e+02  -3.282486e+02
   4.030973e+02   3.741784e+02
  -6.045406e+01   6.388675e+02
  -5.916747e+02   1.632693e+02
  -6.393090e+02  -4.186076e+02
  -1.926044e+02  -5.738906e+02
   4.376543e+02  -3.910007e+02
   6.983035e+02   3.127163e+01
   3.679092e+02   4.184348e+02
  -1.626966e+02   4.531257e+02
  -4.911992e+02   6.981016e+01
  -2.401641e+02  -2.335179e+02
   1.573673e+02  -1.262989e+02
   1.588472e+02   2.132899e+02
  -1.716099e+02   2.534565e+02
  -3.976430e+02  -8.436104e+01
  -2.012453e+02  -3.926690e+02
   2.712098e+02  -3.086361e+02
   4.002404e+02  -3.268434e+01
   1.794169e+02   1.942158e+02
  -1.344220e+02   2.595695e+02
  -3.331001e+02   3.320596e+02
  -2.999532e+02   1.642633e+02
  -3.132513e+02  -1.940186e+02
  -9.709650e+01  -4.872276e+02
   9.316720e+01  -4.065084e+02
   1.538494e+02  -7.935416e+01
   6.501946e+01   4.889269e+01
   2.937149e+01  -7.401226e+01
   1.971784e+02  -1.863300e+02
   3.026220e+02   3.223011e+01
   1.923590e+02   2.709402e+02
  -3.149304e+01   3.586269e+02
  -2.384761e+02   3.655604e+01
  -2.080888e+02  -2.833851e+02
  -6.597363e+00  -3.743141e+02
   3.201561e+02  -1.706943e+02
   3.986311e+02   1.878789e+02
   2.524407e+02   4.330269e+02
  -1.166076e+02   3.913510e+02
  -2.403767e+02   1.625084e+02
  -1.969714e+02   1.664257e+01
  -1.088491e+02   5.461282e+01
  -2.059918e+02   3.763141e+01
  -4.069618e+02  -6.380652e+01
  -3.707131e+02  -2.881100e+02
  -2.524232e+01  -3.978045e+02
   3.350652e+02  -4.526766e+02
   4.592881e+02  -2.858640e+02
   4.319471e+02   7.565812e+01
   8.805952e+01   2.668758e+02
  -9.483717e+01   2.760080e+02
  -1.262602e+02   6.017695e+01
   6.769350e+01  -1.002700e+02
   2.112757e+02  -4.914340e+00
   9.161744e+01   1.843566e+02
  -1.461964e+02   1.703838e+02
  -1.795041e+02  -3.406880e+01
  -4.279090e+01  -2.072385e+02
   1.566181e+02  -5.392373e+01
   2.210288e+02   1.837975e+02
  -4.208272e+00   3.508060e+02
  -2.152157e+02   1.926254e+02
  -3.500681e+02  -5.900548e+01
  -2.485341e+02  -2.584285e+02
  -1.191115e+02  -2.642172e+02
   1.141974e+02  -1.624108e+02
   1.654320e+02  -4.028239e+01
   1.785555e+01   3.170657e+00
  -6.394811e+01  -7.005721e+01
  -5.893903e+01  -1.014462e+02
   1.825220e+02  -1.498047e+02
   2.076386e+02  -4.086110e+01
   7.845921e+01   7.239358e+01
  -6.138928e+01   3.031106e+01
  -4.498903e+01  -6.891042e+01
   8.216838e+01  -8.033329e+01
   2.766495e+02  -4.148102e+01
   2.960274e+02   1.454597e+02
   1.394234e+02   2.948276e+02
  -1.611992e+02   3.136824e+02
  -2.805502e+02   1.633733e+02
  -2.058897e+02  -4.192862e+01
   1.847627e+01  -4.912938e+01
   1.232644e+02   1.413201e+01
  -3.694110e+01   1.390152e+02
  -1.722981e+02   5.175113e+01
  -1.979385e+02  -9.650829e+01
  -6.983584e+01  -1.707891e+02
   9.784505e+01  -1.301938e+02
   7.165956e+01  -4.753947e+01
   7.654567e+01  -1.856744e+01
   1.632463e+01  -5.563233e+01
  -3.221832e+01  -9.169991e+01
   6.404906e+01  -8.871549e+01
   2.148126e+02  -4.521859e+01
   2.071217e+02   1.329788e+02
   6.129649e+01   1.942048e+02
  -1.544749e+02   9.334585e+01
  -1.839254e+02   4.579484e+01
  -7.860850e+01  -1.247178e+02
   5.798433e+01  -7.067538e+01
   9.002983e+01  -1.980642e+01
  -8.187415e-01   1.063990e+01
  -4.587364e+01  -8.541265e+00
   1.485006e+01  -2.246012e+00
   4.978926e+01  -3.072059e+01
   1.087780e+02   9.048959e+01
   3.278533e+01   1.499840e+02
  -1.142244e+02   1.519333e+02
  -2.539085e+02   8.033959e+00
  -2.284984e+02  -1.496769e+02
  -8.100060e+01  -2.818309e+02
   8.995452e+01  -1.500008e+02
   2.137343e+02  -2.021159e+01
   7.276186e+01   3.337932e+01
   3.842264e+01   3.905602e+01
   7.584381e+01   4.436307e+00
   7.538074e+01   1.133960e+01
   5.150150e+01   2.602989e+00
  -3.018791e+01   8.351606e+01
  -8.813864e+01   1.224382e+01
  -5.396614e+01  -3.432206e+01
   1.097245e+01  -1.035424e+02
   1.314723e+02  -7.817023e+01
   2.399439e+02   2.011576e+01
   1.022715e+02   2.169063e+02
  -9.882652e+01   2.559991e+02
  -2.807096e+02   1.259887e+02
  -2.589481e+02  -1.104113e+02
  -1.124134e+02  -1.466547e+02
   4.761778e+01  -1.659925e+02
   6.897203e+01  -1.245845e+02
   7.314411e+01  -6.974581e+01
   4.899821e+01  -1.034235e+02
   8.144571e+01  -5.768373e+01
   1.177696e+02   1.794203e+01
   1.296505e+02   1.849729e+02
   4.790094e+01   2.365483e+02
  -5.236203e+01   2.243390e+02
  -2.355080e+02   5.307901e+01
  -1.737475e+02  -4.147501e+01
  -5.897857e+01  -1.447399e+02
   5.075643e+01  -1.231896e+02
  -4.325679e+00  -1.112967e+01
   5.308272e+01  -2.934286e+01
   8.258528e+00  -4.558662e+00
   7.081934e+01  -1.816046e+01
   9.447176e+01   8.951838e+00
   5.558270e+01   3.127926e+01
  -4.530377e+01   5.466122e+01
  -1.346614e+02   1.720138e+01
  -1.252748e+02  -2.700728e+01
  -2.856690e+01  -8.379638e+01
   1.178125e+02  -1.112273e+02
   1.221483e+02  -1.670452e+01
   9.310102e+01   3.766825e+01
   7.066779e+00   2.914911e+01
  -3.431927e+01  -2.109766e+01
   8.815937e+01  -7.187316e+01
   6.946726e+01  -4.208622e+01
   2.787916e+01   2.400413e+01
  -9.259658e+00   1.588400e+01
  -8.394153e+00   2.074492e+01
   7.172334e+01   5.833323e+00
   5.089231e+01  -4.012507e+01
   4.315558e+01   1.048691e+02
   3.009369e+00   1.691074e+02
  -9.030492e+01   1.952764e+02
  -1.473474e+02   4.470642e+01
  -9.240100e+01  -7.664063e+01
  -4.586753e+01  -1.306397e+02
   9.069965e+01  -6.465794e+01
   4.738830e+01   1.192850e+01
  -9.107954e+01  -4.473627e+00
  -1.626574e+02  -6.370584e+00
  -9.186986e+01  -1.191570e+02
   6.968271e+01  -1.454051e+02
   1.561425e+02  -1.074412e+02
   1.677552e+02   2.619326e+01
   9.776264e+01   1.263988e+02
   3.276984e+01   8.008873e+01
   2.836555e+01   6.749084e+00
   9.647015e+00  -5.872127e+01
   6.266499e+01   3.144334e+01
   1.432347e+01   9.038015e+01
  -7.560085e+01   1.387650e+02
  -1.586132e+02   3.731757e+00
  -9.299572e+01  -1.091410e+02
  -1.384856e+01  -2.025754e+02
   8.036444e+01  -9.512922e+01
   9.280010e+01  -1.355361e+01
   8.911761e+01   1.453995e+02
   5.316482e+00   1.551931e+02
  -5.535578e+01   2.149037e+01
  -9.109374e+01  -3.561694e+01
  -3.139453e+01  -2.185698e+01
  -3.143036e+00  -1.481248e+01
  -1.923359e+01  -3.092889e+01
  -3.334448e+01  -1.312398e+02
  -7.627050e+01  -9.511113e+01
   1.082820e+02  -7.750533e+01
   1.192826e+02   9.660065e+00
   1.513058e+02   5.854125e+01
   3.078431e+01   4.081148e+01
  -4.871432e+01   3.210552e+01
  -8.988538e+01   5.867436e+01
   1.063940e+01  -2.166559e+00
   3.985771e+01  -4.303177e+01
  -6.532981e+00   1.937272e+00
  -3.875736e+01  -5.179191e+01
   4.940883e+00   3.949363e+01
   1.044107e+02  -3.940942e+01
   9.267683e+01   4.127919e+01
   1.369753e+01   8.298177e+01
  -7.783463e+01   1.485194e+02
  -1.667663e+02   4.582886e+01
  -1.248461e+02  -3.026413e+01
  -3.548753e+01  -1.483735e+02
   4.079490e+01  -1.190622e+02
   9.664958e+01  -2.035901e+01
   9.250509e+01   1.488201e+01
   3.057489e+01   4.745639e+01
  -5.134917e+00   1.148590e+01
   1.906084e+01  -2.572911e+00
   6.246695e+01   4.307402e+01
   3.086750e+01   1.041270e+02
  -2.096785e+01   6.947176e+01
  -1.194715e+02  -4.581638e+00
  -1.012692e+02  -1.308815e+02
  -3.902731e+01  -1.097730e+02
   9.600421e+01  -1.577804e+01
   1.136775e+02   6.806706e+01
   2.480792e+01   9.720429e+01
  -3.272417e+01   1.790724e+01
  -4.493169e+01  -2.929171e+01
  -1.294530e+01  -5.220517e+01
   4.555743e+01  -3.436843e+01
   3.017213e+01  -5.080422e+01
  -2.637859e+01   4.054326e+01
  -6.988929e+01   4.610636e+01
  -8.011347e+00  -3.978706e+01
   9.828719e+01  -7.562581e+01
   1.001668e+02  -7.777733e+01
   2.437120e+01  -2.973214e+01
  -4.419128e+01   8.715549e+01
  -2.724823e+01   1.022261e+02
   9.475601e-01   5.204528e+01
  -1.937612e+01  -1.864882e+01
  -1.168005e+01   6.747707e+00
  -1.191319e+01   1.766939e+01
   4.766804e+01   4.190443e+01
  -2.563384e+01   4.251484e+01
  -5.114293e+01   6.301459e+00
  -4.760762e+01  -1.055595e+01
   1.479491e+01   1.131674e+01
  -3.395919e+00   1.150194e+01
  -1.478340e+01   2.345571e+01
  -2.009685e+01  -1.469640e+01
  -1.950977e+01  -1.780677e+01
   3.610009e+01  -2.572814e+00
   2.796362e+01   1.732163e+01
   3.207764e+00   6.263183e+01
  -2.811782e+01   5.540882e+01
  -7.158744e+01  -5.015517e+01
  -1.553874e+00  -9.077402e+01
   7.968520e+01  -1.078652e+02
   1.284023e+02  -2.555869e+01
   4.537920e+01   3.519593e+01
  -2.650858e+01   4.569265e+01
  -7.043915e+01   3.646031e+01
  -2.991060e+01   4.006557e+01
   7.019785e+01   2.122471e+01
   8.834086e+00   2.874411e+01
  -3.016067e+01   4.655334e+01
  -1.060453e+02  -6.137754e+00
