
 $NMID
 id='ANONYMOUS ', fmtdat='(2E16.6)'
 volume=1.0
 tramp=1.0
 $END
   3.449822e+03   7.677235e+01
   2.247902e+03   1.629037e+03
  -2.683508e+02   2.077002e+03
  -1.406390e+03   1.291629e+03
  -1.004066e+03   1.574173e+02
   7.005012e+01  -3.365672e+02
   3.547213e+02   6.805031e+01
  -2.000984e+01   7.397271e+02
  -4.299366e+02   6.020421e+02
  -6.456267e+02   1.398055e+02
  -4.636001e+02  -7.149166e+02
  -4.362956e+01  -5.479392e+02
   3.902681e+02  -1.979553e+02
   2.429843e+02   3.499676e+02
  -1.091241e+02   3.821479e+02
  -5.380647e+02   1.711985e+02
  -3.547973e+02  -5.565880e+02
   5.221549e+01  -6.079487e+02
   5.215678e+02  -2.690505e+02
   3.936057e+02   1.701478e+02
   1.018300e+02   3.624206e+02
  -3.811480e+01   2.060594e+02
  -9.043252e+01  -6.862179e+01
   1.919762e+02   5.673063e+01
   2.556795e+02   1.946943e+02
   7.516462e+01   2.918680e+02
  -4.335288e+02   3.733018e+02
  -6.186702e+02  -4.084847e+01
  -2.884372e+02  -4.048896e+02
   4.493032e+02  -1.891323e+02
   5.632736e+02   1.179284e+02
   2.280383e+02   4.839515e+02
  -2.158715e+02   2.759337e+02
  -5.047610e+02   1.433212e+02
  -2.816865e+02  -1.730820e+02
  -1.046221e+02  -2.737657e+02
   4.981170e+00  -2.172026e+02
  -2.847160e+01   5.376378e+01
  -1.254936e+02   2.719554e+02
  -2.299777e+02  -1.380997e+02
  -6.364853e+01  -5.357601e+02
   2.993750e+02  -4.506104e+02
   4.260401e+02  -1.312823e+01
   1.811151e+02   3.805246e+02
  -1.688109e+02   2.109693e+02
  -2.151066e+02  -2.337303e+02
   6.368685e+01  -3.651489e+02
   4.519821e+02  -3.673861e+01
   4.496386e+02   3.674687e+02
   1.351097e+02   5.138661e+02
  -3.626006e+02   2.914375e+02
  -5.372888e+02  -7.608966e+01
  -3.571360e+02  -3.052398e+02
   5.320599e+01  -2.988760e+02
   3.083452e+02  -6.261494e+01
   1.766182e+02   8.019834e+01
  -2.429373e+01   1.661884e+01
  -6.099787e+01  -8.716804e+01
   1.244295e+02  -1.174634e+02
   2.674071e+02   2.970066e+01
   1.311809e+02   1.924993e+02
  -1.296416e+02   2.300679e+02
  -3.292881e+02   1.531412e+02
  -2.685771e+02  -7.440980e+01
  -9.508114e+00  -2.595970e+02
   2.822933e+02  -3.480536e+02
   3.791304e+02  -1.917737e+02
   2.436011e+02   1.817755e+02
  -1.720587e-01   3.296312e+02
  -1.213124e+02   2.905657e+02
  -4.476000e+01   9.886620e+01
   2.423249e+01   5.394944e+01
  -4.448062e+01   1.294164e+02
  -1.520702e+02   8.006334e+01
  -2.030403e+02  -1.231989e+02
  -1.317514e+02  -2.128516e+02
   8.168131e+01  -1.734659e+02
   1.587579e+02   3.081035e+01
   9.411759e+01   2.377892e+02
  -4.648976e+01   2.502301e+02
  -2.489227e+02   5.873510e+01
  -3.113939e+02  -1.280856e+02
  -1.667855e+02  -2.757202e+02
   3.383180e+01  -2.617993e+02
   1.443965e+02  -1.328588e+02
   8.563763e+01  -4.148358e+01
   9.853013e+01  -6.992717e+01
   2.675859e+02  -3.462357e+01
   3.933782e+02   7.209868e+01
   3.269104e+02   2.879455e+02
   2.202013e+01   4.534525e+02
  -3.594735e+02   3.797657e+02
  -4.917778e+02   1.876274e+02
  -2.312484e+02  -8.622217e+01
  -1.701531e+01  -2.662289e+02
   7.668778e+01  -1.830614e+02
   3.899715e+01  -1.689484e+01
  -1.246338e+02   6.532715e+01
  -1.634697e+02  -1.840737e+01
  -4.945154e+00  -2.087624e+02
   1.355726e+02  -1.455949e+02
   6.534023e+01   7.987928e+01
  -5.518264e+01   1.639638e+02
  -1.435961e+02  -1.678284e+00
  -1.528312e+02  -2.212410e+02
  -1.734719e+01  -3.865385e+02
   2.066357e+02  -1.809640e+02
   2.952304e+02   9.177502e+01
   1.982593e+02   2.202134e+02
   1.588360e+01   2.489190e+02
  -1.459834e+02   1.322718e+02
  -1.365907e+02  -7.119315e+01
  -2.394094e+01  -5.546788e+01
   3.360068e+01   9.053078e+01
  -3.819931e+01   1.400788e+02
  -8.997589e+01   8.735609e+01
  -1.428874e+02  -7.437248e+00
  -4.986033e+01  -9.024258e+01
   2.688873e+01  -4.014248e+01
   1.346106e+01   8.259232e+01
  -5.277285e+01   8.404761e+01
  -2.530880e+02  -1.831902e+01
  -2.078118e+02  -1.587657e+02
  -1.407101e+01  -2.126927e+02
   1.891656e+02  -2.021836e+02
   2.775518e+02  -1.021799e+02
   1.531386e+02   7.691640e+01
   1.500782e+01   9.765734e+01
  -2.802282e+01   9.660581e+00
   6.896105e+01  -6.749985e+01
   1.241119e+02  -1.835915e+01
   1.278807e+02   9.344468e+01
   1.592980e+01   1.535001e+02
  -6.053209e+01   1.298924e+02
  -1.019903e+02  -2.715816e+01
  -7.108420e+01  -2.444995e+01
   3.743726e+01   3.523133e+01
   2.041328e+01   1.144104e+02
  -8.713880e+01   1.421159e+02
  -2.453457e+02  -7.103595e+00
  -1.975833e+02  -1.595166e+02
  -1.451387e+01  -2.254517e+02
   1.713837e+02  -1.606318e+02
   2.549534e+02  -1.113213e+01
   1.205360e+02   6.963281e+01
  -3.181717e+01   8.029863e+01
  -5.632229e+01   1.010034e+02
  -1.205383e+01   2.512747e+00
  -3.940992e+00  -3.049343e+01
  -3.225967e+01   2.916098e+01
  -9.767744e+01   3.832172e+01
  -1.200698e+02  -6.395376e+01
  -2.365923e+01  -1.585151e+02
   9.946910e+01  -1.414871e+02
   2.070321e+02  -1.413800e+01
   1.293083e+02   1.330554e+02
  -3.426082e+00   2.360216e+02
  -1.313010e+02   1.385049e+02
  -1.078013e+02   2.173084e+01
  -8.392695e+01  -9.660890e+01
  -3.962467e+01  -6.100650e+01
  -8.188534e+01   1.666555e+01
  -8.142463e+01   1.704790e+01
  -5.192829e+01   4.875918e+00
   4.946587e+01  -8.294363e+01
   1.018859e+02  -6.628328e+01
   5.834902e+01   5.301781e+01
   4.438466e+00   1.513252e+02
  -1.559128e+02   9.928063e+01
  -1.854965e+02  -4.035727e+01
  -8.483368e+01  -1.786696e+02
   9.395796e+01  -2.146573e+02
   2.426515e+02  -3.952723e+01
   2.639346e+02   6.196284e+01
   1.020329e+02   1.504367e+02
  -2.762951e+01   5.821229e+01
  -8.198763e+01   7.822351e+01
  -6.066198e+01   6.005454e+01
  -4.200867e+01   1.191740e+02
  -6.197848e+01   1.084855e+02
  -1.380532e+02   2.304062e+01
  -1.376810e+02  -1.531464e+02
   1.388293e+00  -2.431442e+02
   1.253900e+02  -1.700233e+02
   1.586389e+02  -2.610553e+01
   1.302642e+02   1.548258e+02
  -3.722115e+00   1.451818e+02
  -8.231775e+01   8.009121e+01
  -3.039466e+01  -3.654822e+01
   6.194107e+00  -8.879768e+01
   2.596052e+01  -3.305094e+01
  -8.004306e-01   8.193208e+00
  -1.006203e+02   1.622655e+01
  -2.176986e+01  -3.784941e+01
   7.653473e+01  -6.956899e+01
   1.638835e+02  -3.219158e+01
   1.313017e+02   9.623276e+01
   3.754702e+01   1.079907e+02
  -1.546158e+02   6.374450e+01
  -1.471678e+02  -2.655671e+01
  -7.853672e+01  -7.268673e+01
   5.721206e+01  -7.070944e+01
   1.235260e+02   1.297642e+01
   3.711345e+01   1.018191e+02
  -7.013471e+01   8.919731e+01
  -7.763662e+01  -1.428314e+00
  -5.860375e+01  -5.648511e+01
  -5.037226e+01  -7.515349e+01
  -5.505169e+01  -1.059365e+01
  -3.472199e+01   2.109963e+01
  -5.991306e+01  -6.533716e+01
   4.045203e+01  -1.422247e+02
   9.309990e+01  -1.625532e+02
   1.544215e+02  -4.814966e+01
   1.146694e+02   8.849621e+01
   2.421881e+01   1.420018e+02
  -1.099687e+02   6.965586e+01
  -4.268656e+01  -1.097526e+01
   2.615189e+01  -1.627230e+01
   7.284046e+01   3.713990e+01
   4.854990e+01   5.386665e+01
  -8.499836e+01   1.000142e+02
  -1.332792e+02   2.931969e+01
  -1.664843e+02  -3.794344e+01
  -3.029285e+01  -1.054972e+02
   4.372992e+01  -5.635576e+01
   7.320140e+01   2.146555e+01
  -5.346733e+01   3.210141e+01
  -9.666621e+01  -4.949148e+01
  -5.109283e+01  -1.359420e+02
   2.969804e+01  -1.671577e+02
   1.390511e+02  -5.993689e+01
   1.070149e+02   5.945087e+01
   3.646306e+01   2.012812e+02
  -6.651837e+01   1.544596e+02
  -1.050612e+02  -7.447724e+00
  -5.109545e+01  -1.176582e+02
  -2.561773e+01  -6.784506e+01
   1.370177e+00  -3.869973e+01
   5.227319e+00   1.339694e+01
   1.663090e+01  -1.331852e+01
   4.308770e+00  -1.730937e+01
   6.905032e+01   1.683548e+01
   8.827567e+01   8.775494e+01
   5.711482e+01   1.201888e+02
  -4.387786e+01   5.949232e+01
  -1.547241e+02  -1.548858e+01
  -1.111678e+02  -6.307706e+01
  -1.455270e+01  -3.630541e+01
   8.528112e+01  -2.587327e+01
   1.287552e+02  -4.408015e-01
   1.504055e+01   1.669584e+01
  -3.303808e+01   3.126343e+01
   5.222926e+00  -4.223411e+01
   2.578744e+01  -3.244431e+01
   8.077210e+00   1.672349e+01
  -4.693815e+01   1.791152e+00
  -9.927849e+01  -1.430045e+01
  -3.161083e+00  -7.970762e+01
   1.279728e+02  -1.248533e+02
   1.428279e+02  -3.187071e+01
   1.142419e+02   2.602631e+01
   9.067499e+01   1.150171e+02
  -4.353946e+01   1.488869e+02
  -1.032659e+02   1.078365e+02
  -8.349200e+01  -3.742350e+01
  -3.923933e+01  -4.776448e+01
  -4.455574e+01  -3.980522e+01
  -1.383288e+01  -3.109418e+01
  -3.947023e+01  -4.526162e+01
  -4.555524e+01  -1.211280e+02
   1.563556e+01  -6.528779e+01
   1.332238e+02   1.081689e+01
   1.158046e+02   6.599102e+01
   2.689847e+01   1.290708e+02
  -6.293152e+01   4.306517e+01
  -8.122448e+01  -4.092056e+01
  -2.508524e+01  -1.046534e+02
   6.443484e+01  -2.941349e+01
   1.012229e+02  -2.217493e+01
   1.696466e+01   5.012182e+01
  -6.270742e+00   1.154480e+02
  -1.697316e+00   5.424319e+01
   1.273848e+01  -4.874274e+01
   3.748899e+01  -5.334155e+01
   2.974880e+01   4.325650e+01
  -8.531186e+01   7.647842e+01
  -1.104841e+02   6.288085e+01
  -8.166423e+01  -3.567652e+01
   8.413849e+00  -8.377247e+01
   1.196385e+02  -3.995545e+01
   9.922119e+01  -2.167522e+01
   4.341646e+00   5.293357e+01
  -3.690195e+01   6.042741e+01
  -3.716298e+01  -6.219533e+00
  -4.931015e+01  -8.157782e+01
   2.743841e+01  -8.882503e+00
   4.258409e+01  -6.262728e+00
   5.813612e+01   6.493436e+00
   5.463967e+01   6.103985e+00
  -2.646219e+01  -3.769612e+01
  -2.890351e+01  -5.597440e+01
   1.049511e+01   2.545159e+01
   2.338006e+01   2.489515e+01
  -7.453742e+00   6.450464e+00
   7.036864e+00  -9.986625e+00
  -1.583921e+01  -5.743329e+01
   4.879334e+01  -3.892351e+01
   3.504446e+01   9.882856e+00
  -7.188657e+00   9.271269e+01
  -7.010763e+01   5.329781e+01
  -7.607429e+01  -1.574595e+01
  -4.501052e+01  -3.111407e+01
   4.395517e+01  -3.619723e+01
   1.549109e+01  -1.765875e+01
   6.682757e+00   1.282515e+01
  -5.244784e+01  -2.869179e+00
  -2.402561e+00  -3.967820e+01
   2.640205e+01  -5.254306e+01
   1.086472e+02  -4.524898e+01
