
 $NMID
 id='ANONYMOUS ', fmtdat='(2E16.6)'
 volume=1.0
 tramp=1.0
 $END
   4.530860e+03  -9.497447e+01
   2.473962e+03   2.196115e+03
  -5.309263e+02   2.769056e+03
  -1.889573e+03   8.211120e+02
  -1.117265e+03  -4.730729e+02
   5.390919e+02  -6.960107e+02
   8.607156e+02   2.740892e+02
  -1.254738e+02   1.061988e+03
  -9.198917e+02   7.253399e+02
  -8.437006e+02  -1.467884e+02
  -4.281143e+02  -8.525419e+02
   2.645632e+02  -8.637421e+02
   7.227742e+02  -2.948494e+02
   3.283883e+02   7.518259e+02
  -2.822943e+02   9.403433e+02
  -6.700828e+02   2.016885e+01
  -3.270321e+01  -8.090713e+02
   2.957461e+02  -8.434034e+02
   5.292816e+02   5.253006e+01
   4.378094e+02   2.534520e+02
   2.608659e+01   3.818741e+02
  -2.857847e+02   3.452903e+02
  -3.528412e+02   1.115134e+01
  -6.383830e+00  -1.545137e+02
   4.010382e+02   1.325876e+02
   1.882350e+02   4.610484e+02
  -3.506651e+02   4.324547e+02
  -9.548117e+02  -4.411516e+01
  -5.450484e+02  -6.884254e+02
   4.101748e+02  -4.863788e+02
   6.602957e+02   8.805875e+01
   4.020289e+02   4.491741e+02
  -2.274187e+02   5.392446e+02
  -6.231312e+02   2.032773e+02
  -3.247041e+02  -2.344156e+02
  -8.294759e+01  -4.916907e+02
   1.960389e+02  -4.088049e+02
   2.829763e+02   1.672456e+02
  -1.064559e+02   4.570180e+02
  -4.618110e+02   7.036498e+01
  -3.735375e+02  -5.969471e+02
   2.673951e+02  -7.167791e+02
   6.779168e+02  -9.418963e+01
   2.774914e+02   5.425649e+02
  -2.531454e+02   3.463925e+02
  -3.988555e+02  -3.631052e+02
   1.350749e+02  -5.395331e+02
   6.059102e+02  -1.059790e+02
   5.558574e+02   4.357053e+02
   1.236878e+02   6.025004e+02
  -3.315001e+02   3.954458e+02
  -6.657142e+02  -6.312679e+00
  -4.846113e+02  -3.376170e+02
   1.226590e+02  -4.072888e+02
   4.072454e+02  -1.391550e+02
   2.361029e+02   2.475928e+02
  -1.556618e+02   1.056781e+02
  -1.987228e+02  -1.434417e+02
   1.878369e+02  -2.437949e+02
   3.841935e+02   3.271951e+01
   1.822023e+02   3.357778e+02
  -1.516506e+02   2.970765e+02
  -3.263891e+02   3.331796e+01
  -2.484686e+02  -1.096873e+02
   4.714733e+00  -2.364047e+02
   2.036261e+02  -3.114722e+02
   3.142266e+02  -1.546259e+02
   2.511822e+02   1.474628e+02
   5.074362e+01   4.252115e+02
  -1.142028e+02   3.336307e+02
  -1.172151e+02   7.565117e+01
  -7.348710e+01  -2.344885e+01
  -7.845942e+01   1.013274e+02
  -2.314382e+02   1.285067e+02
  -2.936161e+02  -3.516975e+01
  -1.728390e+02  -2.284068e+02
   7.676217e+01  -2.808704e+02
   2.380322e+02  -3.125207e+01
   2.519543e+02   1.909844e+02
   1.510441e+01   2.679391e+02
  -2.212447e+02   1.195522e+02
  -3.580615e+02  -1.365937e+02
  -2.171592e+02  -2.895195e+02
   1.344228e+01  -2.791480e+02
   1.883187e+02  -1.398501e+02
   1.077269e+02  -3.203376e+01
   4.243988e+01  -7.374439e+00
   1.822911e+02  -5.179906e+01
   4.329432e+02   2.734934e+01
   3.818825e+02   2.754525e+02
   9.780687e+00   4.081778e+02
  -3.763787e+02   4.597939e+02
  -5.477972e+02   2.121584e+02
  -3.544385e+02  -8.802178e+01
  -7.430659e+01  -2.603933e+02
   8.883177e+01  -3.197846e+02
   6.860782e+01  -5.265568e+01
  -6.999888e+01   1.198420e+02
  -1.861686e+02   1.206322e+01
  -7.304893e+01  -1.605260e+02
   1.102227e+02  -1.485935e+02
   1.701833e+02   5.217293e+01
  -9.674477e-01   2.086191e+02
  -1.305018e+02   4.463315e+01
  -1.270247e+02  -2.300275e+02
   1.283584e+01  -3.504665e+02
   1.986346e+02  -2.225379e+02
   2.851757e+02   4.948628e+01
   2.315732e+02   1.953629e+02
   2.127361e+01   2.356776e+02
  -1.372622e+02   1.365834e+02
  -1.761771e+02  -4.023901e+01
  -5.044058e+01  -1.252078e+01
   1.059413e+02   4.179645e+01
   4.432248e+01   1.688820e+02
  -1.614168e+02   1.127272e+02
  -2.192857e+02  -2.719350e+01
  -1.128636e+01  -8.287537e+01
   1.416940e+02  -1.618205e+01
   8.223545e+01   9.516578e+01
  -1.599122e+02   5.172129e+01
  -3.505041e+02  -9.804006e+00
  -2.764484e+02  -1.235905e+02
  -5.219644e+01  -2.654019e+02
   1.665834e+02  -2.906878e+02
   2.645947e+02  -1.578305e+02
   1.497352e+02   4.184402e+01
  -1.098325e+00   1.970516e+02
  -2.678350e+01   5.071972e+01
   5.177355e+01  -1.190610e+02
   1.708345e+02  -6.084816e+01
   1.552419e+02   1.019375e+02
   3.691683e+01   1.892750e+02
  -5.655499e+01   1.149597e+02
  -9.707053e+01  -1.836642e+01
  -3.301859e+01  -2.818009e+01
   4.016895e+01   2.707117e+01
   9.293331e+00   1.495723e+02
  -8.019292e+01   1.104212e+02
  -2.134141e+02   4.938399e+01
  -1.743507e+02  -1.273690e+02
  -5.226185e+01  -2.311497e+02
   1.522335e+02  -1.997642e+02
   2.046135e+02  -3.497745e+01
   1.015995e+02   1.032602e+02
  -5.566911e+01   8.268026e+01
  -1.145286e+02   3.364478e+01
   4.705418e+00   6.044266e+00
   4.254374e+01   2.310639e+01
  -4.311968e+01   4.103641e+01
  -6.014831e+01  -1.362058e+01
  -9.777323e+01  -7.854944e+01
  -2.331655e+01  -1.009352e+02
   1.426954e+02  -1.369046e+02
   2.227095e+02   2.616921e+00
   1.793807e+02   1.340044e+02
   3.594446e+01   2.060598e+02
  -1.087137e+02   2.021641e+02
  -1.610169e+02   5.235214e+01
  -8.168137e+01  -4.322523e+01
  -9.062359e+01  -6.048963e+01
  -7.666604e+01   1.798939e+01
  -2.649708e+01  -2.522960e+01
  -6.122910e+01  -5.969965e+01
   2.295408e+01  -4.662258e+01
   1.044225e+02  -8.522596e+01
   1.242398e+02   2.248302e+01
   2.066068e+01   1.006978e+02
  -2.026704e+02   1.291853e+02
  -2.321766e+02  -6.011344e+01
  -1.242552e+02  -1.992215e+02
   1.351679e+02  -2.087606e+02
   2.841785e+02  -5.317841e+01
   2.658737e+02   1.021853e+02
   7.738329e+01   2.057249e+02
  -1.749047e+01   1.534769e+02
  -8.825085e+01   1.014922e+02
  -1.003510e+02   6.357357e+01
  -7.614614e+01   8.795970e+01
  -9.331957e+01   4.266223e+01
  -1.191783e+02  -4.096967e+01
  -1.657558e+02  -1.321635e+02
  -1.354356e+01  -2.331752e+02
   1.205439e+02  -1.938182e+02
   2.447042e+02  -5.020553e+00
   1.393230e+02   1.502263e+02
   1.091808e+01   1.765738e+02
  -1.000020e+02   1.182212e+02
  -7.046347e+01   2.480543e+00
  -1.703577e+01  -6.511654e+01
   1.852293e+01  -2.436654e+01
  -2.777706e+01  -7.794465e+00
  -6.201799e+01  -4.030014e+01
  -4.608799e+01   1.030605e+00
  -6.883377e+00  -2.465760e+01
   1.316559e+02   2.783221e+01
   1.277814e+02   5.376052e+01
   1.945680e+01   1.235342e+02
  -1.540482e+02   8.306616e+01
  -1.365623e+02   4.720685e-01
  -2.891192e+01  -5.225608e+01
   8.196371e+01  -5.654768e+01
   1.059974e+02   1.137056e+01
   3.960339e+01   9.938059e+01
  -3.064267e+01   7.676559e+01
  -7.714933e+01  -2.050412e+00
  -3.951991e+01  -1.958391e+01
  -5.993195e+01  -3.316274e+01
  -7.442169e+01  -1.365527e+00
  -2.511943e+01   1.984226e+01
  -4.269500e+01  -9.750266e+01
  -8.797682e+00  -1.898176e+02
   6.353711e+01  -1.483209e+02
   1.724995e+02  -3.133756e+01
   1.781708e+02   8.910976e+01
  -1.583741e+01   1.140618e+02
  -1.218450e+02   2.759190e+01
  -1.116368e+02  -1.696083e+01
   2.910395e+01  -2.953908e+01
   1.796472e+02   2.224526e+01
   9.998430e+01   7.785082e+01
  -9.229191e+01   8.277218e+01
  -1.646234e+02   5.976887e+01
  -1.764894e+02   4.843300e-01
  -1.088070e+01  -5.871862e+01
   9.040177e+01  -8.687570e+01
   8.943554e+01   5.751757e+01
  -3.885096e+01   5.644369e+01
  -1.064100e+02  -6.549708e+00
  -1.780683e+01  -1.108072e+02
   9.314105e+01  -1.307965e+02
   1.734435e+02  -6.660453e+01
   1.676746e+02   3.971849e+01
   3.345459e+01   1.733888e+02
  -4.078250e+01   1.775281e+02
  -1.101395e+02   1.894229e+01
  -5.947464e+01  -8.873132e+01
  -2.199816e+01  -5.863715e+01
   6.792374e+01  -9.286447e+00
   6.795380e+01   3.170207e+01
  -1.183878e+01   1.790731e+01
  -2.802136e+01  -3.655886e+01
   2.517997e+01   9.930236e+00
   2.723401e+01   1.403500e+02
   3.033956e+01   1.025345e+02
  -5.278288e+01   3.128008e+01
  -1.726152e+02  -5.035294e+01
  -1.535025e+02  -4.656601e+01
  -2.233615e+01  -7.822241e+01
   1.019171e+02  -4.543614e+01
   1.040220e+02  -1.503397e+01
   1.516987e+01  -2.427642e-01
  -6.753766e+01   5.103131e+01
   2.026143e+01   7.589143e+01
   1.421903e+01   2.575915e+01
   2.140630e+01   2.494154e+01
  -6.228520e+01  -1.770418e+01
  -9.379401e+01  -4.839946e+01
   4.092189e-01  -9.558184e+01
   1.488855e+02  -1.248208e+02
   1.723415e+02  -4.503234e+01
   1.213256e+02   4.834625e+01
   5.808876e+00   1.448305e+02
  -3.330531e+01   1.465779e+02
  -1.395410e+02   5.581983e+01
  -2.913513e+01  -3.562698e+01
   8.117030e+00  -4.152217e+00
   1.127089e+01  -1.936378e+01
  -4.869026e+00   8.548329e+00
  -5.906829e+01  -6.277690e+01
  -1.314747e+01  -1.097466e+02
   2.659664e+01  -1.119044e+02
   5.855974e+01  -4.668867e+00
   1.134836e+02   1.325859e+02
  -8.772008e+00   9.510341e+01
  -9.108826e+01   2.197623e+01
  -1.103234e+02  -6.660918e+01
  -4.732935e+01  -6.098685e+01
   1.130892e+02  -1.010418e+02
   1.084107e+02  -3.095264e+01
   7.918804e+01   5.657072e+01
  -1.172611e+00   3.010523e+01
  -4.040743e+01   2.997574e+01
   2.064931e+01   1.214924e+00
   8.667135e+01  -1.214549e+00
   2.587903e+01   5.228706e+01
  -6.302278e+01   6.554543e+01
  -1.483977e+02   2.871747e+01
  -6.894302e+01   8.760820e+00
  -2.257367e+01  -8.520779e+01
   8.630118e+01  -5.809744e+01
   5.324056e+01  -8.713261e+00
  -2.666673e+01   4.704201e+01
  -5.995450e+01   4.084459e+01
  -4.655500e+01  -8.591147e+01
   1.572271e+00  -9.016467e+01
  -3.797482e+01  -1.020020e+02
   6.037625e+01  -1.949914e+01
   6.651791e+01   4.949475e+00
   2.015220e+01   1.451659e+01
  -1.172002e+01  -2.421311e+01
  -5.268623e+01   1.502720e+01
   7.202186e+01  -1.288689e+01
  -1.709930e+01   3.177316e+01
   1.901184e+01  -5.277262e+00
  -5.482618e+01  -4.654426e+01
  -9.331295e+00  -1.822002e+01
  -5.153722e+00   4.091892e+00
   2.947806e+01   7.208541e+01
  -3.068892e+01  -1.154011e+01
  -7.424463e+01  -6.859291e+00
  -1.167207e+02  -1.195537e+01
  -3.349661e+01  -7.672389e+00
   5.245193e+01  -4.581891e+01
   5.421481e+01  -2.104298e+01
   4.936986e+00   3.556547e+00
  -3.240113e+01   1.734906e+01
  -7.521748e+01  -1.392208e+01
  -3.680420e+00  -1.317167e+01
   9.985178e+01  -1.670464e+01
