
 $NMID
 id='ANONYMOUS ', fmtdat='(2E16.6)'
 volume=1.0
 tramp=1.0
 $END
   3.711858e+03   9.845710e+01
   2.019752e+03   1.582900e+03
   1.531821e+02   2.217680e+03
  -1.233759e+03   1.160492e+03
  -1.129526e+03   1.258153e+02
  -6.816223e+01  -1.039447e+02
   2.901893e+02   2.554630e+02
   2.781273e+01   5.781332e+02
  -4.228819e+02   3.875919e+02
  -8.185232e+02  -9.869257e+00
  -5.442115e+02  -5.255438e+02
   1.704636e+01  -5.816752e+02
   4.160428e+02  -2.024810e+02
   2.358609e+02   5.134565e+02
  -2.348042e+02   3.549911e+02
  -4.237124e+02   9.228523e+01
  -1.550768e+02  -3.691417e+02
   1.971175e+02  -6.123638e+02
   5.445450e+02  -2.421367e+02
   5.540272e+02   9.214108e+01
   1.745513e+02   1.461219e+02
  -2.039701e+02   3.081083e+02
  -1.774207e+02   9.697816e+01
   1.747857e+02   1.670001e+02
   2.509276e+02   2.363990e+02
   4.812187e+01   3.248949e+02
  -5.320436e+02   2.696410e+02
  -7.305897e+02  -2.526708e+02
  -2.649829e+02  -3.479145e+02
   1.960116e+02  -1.676964e+02
   4.845224e+02   9.256546e+01
   1.198884e+02   2.924597e+02
  -3.445535e+02   4.100917e+02
  -3.791088e+02   1.865216e+02
  -3.497668e+02  -2.350178e+02
   1.601229e+01  -3.619461e+02
   2.704611e-01  -1.887534e+02
   1.052129e+01   8.190716e+01
  -8.570579e+01   1.802189e+02
  -1.558354e+02  -6.309917e+01
   3.422349e+01  -4.055877e+02
   1.841858e+02  -4.219709e+02
   2.863302e+02   1.603940e+01
   7.511854e+01   3.089507e+02
  -1.046722e+02   1.165106e+02
  -1.095089e+02  -2.445036e+02
   8.700606e+01  -3.827826e+02
   4.205732e+02  -7.077810e+01
   4.678506e+02   3.418876e+02
   1.650987e+02   4.926678e+02
  -2.637100e+02   2.024687e+02
  -5.123693e+02  -7.526396e+01
  -3.592513e+02  -2.847046e+02
   1.062749e+02  -2.440311e+02
   3.335757e+02  -1.210290e+02
   2.629269e+02   5.537384e+01
   6.845755e+01   4.948855e+01
   2.822625e+01  -2.390400e+01
   6.138704e+01  -4.594207e+01
   2.492184e+02   1.462019e+01
   9.243413e+01   2.374294e+02
  -1.429609e+02   2.660051e+02
  -3.584325e+02   1.294741e+02
  -2.288671e+02  -1.244739e+02
   9.742119e+01  -3.538063e+02
   3.112080e+02  -3.589865e+02
   4.117513e+02  -3.123600e+01
   1.834879e+02   2.240097e+02
  -7.586617e+00   4.275524e+02
  -3.667446e+01   2.592100e+02
  -9.071653e+01   9.903839e+01
  -8.080219e+01   8.132729e+01
  -1.319246e+02   8.660431e+01
  -1.920222e+02   9.877286e+01
  -1.784769e+02  -1.083792e+02
  -3.213039e+01  -2.104496e+02
   4.947122e+01  -1.859120e+02
   1.355202e+02   5.655496e+01
   1.208655e+02   2.367170e+02
  -9.061439e+01   2.676669e+02
  -2.271976e+02   6.896295e+01
  -2.684713e+02  -1.785394e+02
  -1.313402e+02  -2.481022e+02
   9.341165e+01  -2.479676e+02
   7.925491e+01  -1.339508e+02
   1.135592e+02  -1.839103e+01
   1.319587e+02  -6.980990e+01
   2.861839e+02   1.560208e+01
   3.926733e+02   8.539394e+01
   2.171754e+02   3.149313e+02
  -1.147036e+01   4.419108e+02
  -3.895011e+02   3.635477e+02
  -4.383190e+02   1.704736e+02
  -2.853839e+02  -4.278068e+01
  -2.496245e+01  -1.830938e+02
   8.210342e+01  -1.259943e+02
   2.809585e+01  -4.923914e+00
  -1.387595e+02  -1.127485e+01
  -1.964925e+02  -4.071676e+00
   1.371756e+00  -1.701688e+02
   1.271170e+02  -1.479937e+02
   7.862651e+01   6.751126e+01
  -6.199010e+01   9.603532e+01
  -1.524789e+02   4.638367e+01
  -1.059764e+02  -2.099674e+02
  -2.125961e+01  -3.341345e+02
   2.498269e+02  -1.807351e+02
   2.804557e+02  -1.177979e+01
   1.891030e+02   2.087640e+02
   3.102408e+01   2.692387e+02
  -1.164139e+02   1.430496e+02
  -1.162976e+02  -3.421332e+01
  -1.287291e+01  -4.970570e+01
   7.059402e+01   3.528729e+01
  -3.947939e+00   1.001236e+02
  -1.064891e+02   7.656353e+01
  -1.377321e+02  -2.732275e+01
  -3.873177e+01  -4.925440e+01
   6.338670e+01   1.788896e+00
   2.378993e+01   7.492633e+01
  -1.124597e+02   8.937908e+01
  -2.397788e+02  -4.841354e+01
  -2.585945e+02  -1.149498e+02
  -3.665501e+01  -2.445393e+02
   1.447063e+02  -2.006726e+02
   2.625125e+02  -1.037130e+02
   1.257917e+02   2.673606e+01
   1.406338e+00   6.321808e+01
  -4.074020e+01  -5.740570e+00
  -1.212082e+01  -5.056252e+01
   1.498992e+02  -6.497016e+00
   1.541884e+02   1.178980e+02
   6.079552e+01   1.807259e+02
  -4.446260e+01   1.137105e+02
  -1.205012e+02   4.352851e+01
  -5.996972e+01  -4.083946e+01
   1.752460e+01   1.227335e+01
   1.508118e+01   1.111345e+02
  -1.113281e+02   5.289843e+01
  -1.902388e+02   1.335479e+01
  -1.191303e+02  -1.162748e+02
   2.318165e+01  -1.920437e+02
   1.812233e+02  -1.261892e+02
   1.827933e+02   9.368796e-01
   1.105524e+02   1.178017e+02
  -5.448587e+01   8.542517e+01
  -9.562725e+01   3.108695e+01
   6.267969e+01  -1.539316e+01
   3.457704e+00   4.633453e+01
   1.754449e+01   6.439560e+01
  -8.946769e+01  -4.017902e+01
  -1.361405e+02  -1.015416e+02
  -1.205442e+01  -1.973974e+02
   1.193286e+02  -1.111379e+02
   2.435130e+02  -1.252534e+00
   2.010205e+02   1.041584e+02
   3.677806e+01   2.342385e+02
  -7.618461e+01   1.827376e+02
  -1.701254e+02   5.123212e+01
  -3.456786e+01  -4.964548e+01
  -5.424600e+01  -9.682405e+00
  -2.929796e+01   1.527804e+00
  -1.642571e+02   1.851132e+01
  -7.506086e+01  -2.410313e+01
  -5.678066e-01  -6.815153e+01
   1.187716e+02  -5.091040e+01
   1.492241e+02   1.172775e+01
  -9.574525e+00   1.165656e+02
  -1.826102e+02   1.174731e+02
  -2.088803e+02  -1.085114e+02
  -9.799256e+01  -1.802315e+02
   2.022513e+02  -2.190289e+02
   2.484792e+02  -1.123651e+02
   2.260275e+02   1.004369e+02
   1.069963e+02   1.314617e+02
  -3.248305e+01   1.479783e+02
  -9.347190e+01   9.545839e+01
  -8.391193e+01   9.346543e+01
  -1.550088e+01   1.452053e+02
  -6.723127e+01   1.155982e+02
  -1.511473e+02  -1.402543e+01
  -1.597819e+02  -2.006733e+02
  -1.070058e+02  -2.084695e+02
   8.916439e+01  -1.789581e+02
   1.989932e+02  -6.954189e+00
   1.344812e+02   1.022268e+02
   3.661504e+01   1.041654e+02
  -7.310814e+01   5.418700e+01
  -3.340157e+01   1.705962e+01
  -9.473540e+00  -1.054101e+01
   1.072516e+02   1.381808e+01
   1.268304e+01   1.667212e+00
  -5.028702e+01  -3.109005e+01
  -7.874553e+01  -6.194458e+01
   1.089088e+02  -5.397349e+01
   1.106803e+02   1.869388e+01
   1.476603e+02   6.173803e+01
   5.030116e+00   5.544485e+01
  -1.088240e+02   3.759859e+01
  -1.416732e+02  -5.322080e+00
  -2.179235e+01  -8.604584e+01
   3.849046e+01   2.579952e+00
   1.047672e+02   2.038576e+01
   2.262853e+01   8.843247e+01
   9.079362e+00   1.108167e+02
  -8.833076e+01  -3.389619e+00
  -4.389471e+01  -5.809722e+01
  -7.253730e+01   7.619587e+00
  -6.943654e+01   2.556857e+01
  -6.312499e+01   3.538248e+01
  -5.673041e+01  -7.889034e+01
   6.951945e+00  -1.532855e+02
   1.095396e+02  -1.488728e+02
   2.299645e+02  -3.590298e+00
   1.126322e+02   3.663898e+01
   3.926431e+01   1.480963e+02
  -9.438091e+01   9.686982e+01
  -5.144599e+01   4.534552e+00
   6.282574e+01  -3.708011e+01
   1.285289e+02   5.248395e+01
   3.490734e+01   1.053735e+02
  -8.211292e+01   1.011464e+02
  -1.981620e+02   1.105882e+01
  -1.360310e+02   4.883677e+00
  -3.504853e+01  -2.367486e+01
   7.943811e+01  -4.470467e+01
   4.853531e+01   1.574305e+01
  -9.465812e+01   1.783839e+01
  -1.204322e+02  -4.077776e+01
  -6.942744e+01  -1.071813e+02
   1.321245e+02  -1.629397e+02
   1.764099e+02  -6.799945e+01
   9.896732e+01   1.286206e+02
  -2.396919e+01   1.644092e+02
  -9.601193e+01   9.936741e+01
  -9.525820e+01   3.648940e+01
  -5.919263e+01  -1.433256e+02
   5.870821e+00  -9.857017e+01
   4.462029e+01  -1.067156e+01
   2.482231e+01  -5.449415e+00
  -4.594675e-01  -3.047276e+01
   2.873706e+01  -7.115111e+01
   6.595271e+01   1.430134e+01
   1.196833e+02   6.010793e+01
   2.203061e+01   9.108848e+01
   8.525324e+00   4.210759e+01
  -1.515164e+02  -4.181207e+01
  -1.065964e+02  -3.752967e+01
  -3.880421e+01  -1.782951e+01
   1.395897e+02   3.034709e+01
   1.312196e+02  -4.750934e+01
   4.465318e+00  -1.137659e+00
  -4.840242e+01   4.530023e+01
  -6.053366e+01   4.428755e+01
   4.135207e+01   4.090221e+01
  -1.253785e+01   2.119564e+01
  -7.722110e+01   8.158685e+00
  -5.230623e+01   1.027138e+01
  -4.662315e+01  -7.700235e+01
   2.196987e+01  -1.143638e+02
   1.580128e+02  -9.100903e+01
   1.293504e+02   2.401027e+01
   8.019848e+01   1.202709e+02
  -9.002112e+01   1.414714e+02
  -9.229843e+01   8.489486e+01
  -9.668674e+01  -3.875019e+01
  -1.439427e+01  -3.110550e+01
  -4.320097e+01   1.135138e+01
  -2.684903e+01  -4.988820e+01
  -5.980483e+01  -7.058980e+01
  -5.158305e+00  -9.178038e+01
   1.867059e+01  -3.879337e+01
   1.214671e+02   3.620595e+00
   7.420413e+01   1.146606e+02
   3.681591e+00   9.160296e+01
  -5.629046e+01   2.090848e+01
  -8.425401e+01  -3.206245e+01
  -9.830834e+00  -9.075546e+01
   2.930886e+01  -4.537442e+01
   1.082791e+02   2.283923e+01
   4.663774e+01   5.850219e+01
  -6.897039e+01   7.017871e+01
   9.415492e+00   4.304368e+01
  -3.338356e+01  -7.346279e+00
   5.954904e+01   1.218911e+00
   5.915901e+01   6.000302e+01
  -5.787801e+01   6.093461e+01
  -1.359488e+02   5.288009e+01
  -5.869748e+01  -2.077039e+01
   1.086032e+01  -8.698881e+01
   3.575431e+01  -1.191390e+02
   3.185089e+01  -2.130147e+01
   1.719277e+01   3.590164e+01
  -5.555602e+01   3.193336e+01
  -1.370721e+01   1.610725e+01
  -4.038635e+01   1.164311e+01
   2.585757e+01  -3.132290e+01
   4.663015e+01  -1.398411e+01
   3.332434e+01   2.305057e+01
   3.981867e+01  -2.648440e+01
   2.643770e+01  -2.480040e+01
  -3.902877e+01   3.058129e+01
   1.943620e+01   4.666795e+01
  -3.289959e+01   7.551793e+00
  -2.615952e+01   3.551392e+01
  -6.442232e+01  -4.569149e+01
  -3.723210e+01  -4.164963e+01
   1.007706e+02  -1.389259e+01
   3.281421e+01   4.523984e+01
   6.322873e+01   6.126516e+01
  -6.143157e+01   4.307663e+01
  -9.813537e+01   5.391791e+00
  -8.361563e+01  -5.397487e+01
   1.264148e+00  -3.487288e+01
   1.228227e+01  -1.640482e+01
   2.973035e+01  -1.709785e+01
  -3.436066e+01   9.478021e+00
  -2.599595e+01  -5.563657e+00
  -1.460625e+01  -1.688247e+01
   7.084555e+01  -1.881534e+00
