
 $NMID
 id='ANONYMOUS ', fmtdat='(2E16.6)'
 volume=1.0
 tramp=1.0
 $END
  -3.379571e+03  -1.752231e+02
  -1.814309e+03  -1.719009e+03
   7.611136e+01  -1.893526e+03
   1.311732e+03  -1.222225e+03
   1.025429e+03  -1.832703e+02
   2.349930e+02   2.065124e+02
  -5.177660e+02  -1.720939e+02
  -1.771877e+02  -6.050263e+02
   4.164801e+02  -6.416382e+02
   7.398159e+02   4.204533e+01
   4.137695e+02   4.576962e+02
  -1.519633e+02   5.264779e+02
  -3.854522e+02   3.073736e+02
  -2.483627e+02  -5.574939e+02
   9.888964e+00  -4.925675e+02
   4.923738e+02  -4.310737e+01
   2.965573e+02   5.382378e+02
  -2.380345e+01   5.244289e+02
  -3.367221e+02   2.620490e+02
  -3.840215e+02  -3.176894e+02
  -6.977260e+01  -3.506454e+02
  -3.538334e+01   1.835807e+01
   1.491864e+02  -2.488544e+02
  -3.490050e+01  -1.501724e+02
  -1.986087e+02  -2.906462e+02
  -6.956919e+01  -2.888198e+02
   5.760726e+02  -1.827857e+02
   6.162029e+02   1.987174e+02
   3.151622e+02   4.674315e+02
  -2.680717e+02   3.559057e+02
  -5.036414e+02  -9.992121e+01
  -3.500314e+02  -3.014987e+02
   1.714058e+02  -4.415097e+02
   3.920673e+02  -1.221316e+02
   4.149864e+02   1.662879e+02
   1.016777e+02   2.814064e+02
  -1.123074e+02   1.813546e+02
  -1.091198e+01  -7.915246e+01
   1.180846e+02  -2.350519e+02
   2.232284e+02   7.711857e+01
   5.742873e+01   3.985739e+02
  -1.693632e+02   3.708297e+02
  -3.284061e+02  -7.976683e+01
  -1.111075e+02  -2.481153e+02
   1.615691e+02  -1.091724e+02
   1.833706e+02   1.988755e+02
  -6.708325e+01   3.155374e+02
  -4.360444e+02   3.042519e+01
  -4.244669e+02  -2.819589e+02
  -1.798345e+02  -3.506946e+02
   2.803253e+02  -1.449015e+02
   4.745634e+02   8.887732e+01
   3.462824e+02   2.394592e+02
  -4.646511e+01   2.278065e+02
  -2.749183e+02   4.461870e+01
  -2.376062e+02  -8.614321e+00
  -3.222691e+01  -8.141893e+01
   4.526811e+00   3.092147e+01
  -8.585503e+01   8.432620e+00
  -2.139982e+02   6.290861e+00
  -1.205031e+02  -1.817976e+02
   1.298994e+02  -1.889757e+02
   2.542226e+02  -8.747561e+01
   1.956231e+02   1.263357e+02
  -5.128757e+01   2.911374e+02
  -3.102291e+02   3.055881e+02
  -4.136362e+02   1.294383e+02
  -2.378139e+02  -1.794715e+02
  -5.434566e+01  -3.263365e+02
   2.116193e+01  -3.130585e+02
   6.823536e+01  -1.979005e+02
   6.926418e+01  -6.804365e+01
   1.460450e+02  -9.066748e+01
   2.339176e+02  -4.203051e+00
   2.339958e+02   1.224362e+02
   6.289048e+01   2.238365e+02
  -1.357233e+02   1.735358e+02
  -2.261076e+02  -1.490320e+00
  -1.563908e+02  -1.632522e+02
   4.096591e+00  -2.722073e+02
   2.334463e+02  -1.373147e+02
   2.663981e+02   9.706150e+01
   1.338118e+02   2.737464e+02
  -9.227322e+01   2.572447e+02
  -1.490465e+02   1.629244e+02
  -1.068510e+02   3.379957e+01
  -7.495762e+01  -1.107010e+01
  -1.509479e+02  -4.813007e+01
  -3.080162e+02  -8.307341e+01
  -2.289937e+02  -2.500997e+02
   5.167690e+01  -3.761879e+02
   3.351238e+02  -3.051272e+02
   4.326300e+02  -1.461969e+02
   2.860308e+02   7.585080e+01
   4.394954e+01   2.300146e+02
  -8.339288e+01   2.043223e+02
  -6.259130e+01   6.357556e+01
   9.853948e+01  -2.045895e+00
   1.007675e+02   1.703219e+01
  -1.432505e+01   9.050588e+01
  -1.112555e+02   1.375128e+02
  -6.488295e+01  -6.304287e+01
   4.451458e+01  -1.086972e+02
   1.334148e+02   1.591848e+01
   1.633751e+02   1.815860e+02
  -4.047538e+01   2.807004e+02
  -2.443543e+02   1.291790e+02
  -3.294644e+02   3.845821e+00
  -2.366572e+02  -2.068523e+02
  -1.319937e+01  -2.184083e+02
   1.055133e+02  -1.840043e+02
   1.041017e+02  -3.973659e+01
   9.747447e+00   5.929339e+00
  -4.733970e+01  -6.425521e+01
   2.297178e+01  -8.858399e+01
   1.617220e+02  -7.578557e+01
   1.580026e+02  -8.125435e+00
  -7.275218e-01   2.510931e+01
  -7.051836e+01  -3.613012e+01
  -3.459430e+01  -5.291791e+01
   1.627271e+02  -3.336724e+01
   2.660084e+02   7.354111e+01
   2.232677e+02   1.678120e+02
   3.229725e+01   2.566792e+02
  -1.965015e+02   2.218963e+02
  -2.565931e+02   7.595308e+01
  -1.387201e+02   1.483681e+01
   1.551538e+01  -1.047122e+02
   4.872121e+01  -1.743684e+01
  -6.504214e+01   7.775276e+00
  -1.437378e+02  -1.047171e+01
  -2.001867e+02  -1.306636e+02
  -3.461419e+01  -1.584045e+02
   9.865469e+01  -1.134967e+02
   9.872248e+01  -6.771051e+01
   2.332414e+01  -2.543194e+01
  -5.151535e+01  -6.212528e+00
  -2.370691e+01  -2.968384e+01
   1.281953e+02  -9.405749e+01
   1.921536e+02  -9.107596e-01
   1.227225e+02   1.133109e+02
  -5.064790e-01   1.945679e+02
  -1.781862e+02   1.392231e+02
  -1.184827e+02   6.307200e+01
  -1.691684e+01  -5.458874e+01
   9.797654e+01  -8.660061e+01
   6.363359e+01  -9.331286e+00
  -2.032497e+01   2.088047e+00
  -1.064664e+02   5.521351e+00
  -1.036153e+01   1.701857e+01
   5.097334e+01   6.628045e+00
   1.161635e+02   7.027832e+01
   1.380565e+00   1.000302e+02
  -9.684623e+01   1.055979e+02
  -2.381569e+02  -3.313276e+01
  -1.624720e+02  -1.184309e+02
  -4.612420e+01  -1.854940e+02
   1.189832e+02  -1.527088e+02
   9.283359e+01  -3.113277e+01
   5.853144e+01   2.497566e+00
   2.260218e+01   1.524362e+01
   7.470977e+01  -3.950663e+01
   1.003427e+02  -8.013182e+00
   5.911137e+01   5.718300e+01
  -5.808952e+01   1.002228e+02
  -1.132814e+02   5.396540e+01
  -1.099155e+02  -2.357306e+01
   7.644686e+01  -8.052380e+01
   1.854324e+02  -8.048858e+01
   2.092192e+02   4.813430e+01
   4.313190e+01   1.467530e+02
  -1.521171e+02   1.470975e+02
  -2.534604e+02   5.528856e+01
  -1.978303e+02  -1.066884e+02
  -5.385576e+01  -1.599276e+02
   1.053954e+02  -1.090602e+02
   8.961605e+01  -8.989019e+01
   8.782796e+01  -5.236361e+01
   8.527346e+00  -1.022329e+02
   9.205877e+01  -5.721823e+01
   1.094753e+02  -1.437973e-01
   1.498219e+02   1.446350e+02
   2.477208e+01   1.690610e+02
  -8.572949e+01   1.597488e+02
  -1.476905e+02   3.112292e+01
  -5.938278e+01  -1.185575e+02
   7.976011e+00  -1.463901e+02
   8.094405e+01  -9.349147e+01
   5.185670e+01  -2.341387e+01
  -3.683680e+01   4.900128e+01
  -2.806416e+01   6.118454e+01
  -4.046528e+00  -2.815210e+00
   8.495020e+01   2.938527e+01
  -2.482619e+00  -1.105674e+01
  -8.032047e+01   2.897646e+01
  -1.483364e+02  -1.143392e+01
  -1.049863e+02  -6.778212e+01
  -3.010148e+01  -4.896650e+01
   9.490341e+01  -3.548619e+01
   1.126787e+02   4.318074e+00
   5.347822e+01   2.577532e+01
  -6.542120e+01   7.122661e+01
  -7.574437e+01  -1.015985e+01
  -5.277158e+01  -5.710114e+01
   4.851008e+01  -5.573677e+01
   7.017364e+01  -4.621191e+00
   4.484568e+01   3.812423e+01
   5.026750e-01   2.695423e+01
   5.617744e+01   1.837446e+01
   4.133387e+01   8.612005e+00
   5.096448e+00   6.775804e+01
  -3.205145e+01   1.287610e+02
  -1.039627e+02   1.360297e+02
  -1.347683e+02   7.667543e+01
  -1.340466e+02  -8.239511e+01
  -4.990620e+01  -6.483211e+01
   9.615856e+01  -8.569978e+01
   3.392026e+01  -4.790063e+01
  -8.117423e+01  -1.025779e+01
  -1.395294e+02   2.592737e+01
  -6.717940e+01  -9.868358e+01
   7.219668e+01  -9.552772e+01
   1.282299e+02  -4.789419e+01
   1.162654e+02   9.520480e+00
   6.713109e+01   6.252568e+01
  -5.395033e+01   6.253839e+01
  -5.031016e+01  -1.600991e+01
   4.257513e+01  -8.395089e+00
   6.529168e+01  -1.937674e+01
   3.757934e+01   1.321311e+02
  -8.688139e+01   1.136256e+02
  -1.108003e+02   6.546145e+01
  -9.593880e+01  -9.272636e+01
  -7.036499e+00  -1.476858e+02
   9.763595e+01  -1.462489e+02
   9.541300e+01   2.384330e+01
   6.315236e+01   7.519902e+01
  -1.362202e+01   1.168724e+02
  -5.817591e+01   4.233410e+01
  -2.075818e+01  -3.416083e+01
   3.149798e+01  -2.761024e+01
  -4.477680e+00   8.165575e+00
  -1.135389e+01  -6.471415e-01
  -5.994140e+01  -8.169692e+01
  -6.009631e+01  -5.553030e+01
   4.170027e+01  -8.289363e+01
   9.514497e+01  -8.681552e+00
   7.327402e+01   2.893062e+01
  -1.401898e+01   3.380069e+01
  -7.275033e+01   2.453865e+01
  -4.828016e+01  -5.065541e+01
  -1.383215e+01  -2.189891e+01
   4.524876e+01  -3.929076e+01
   4.850892e+01   2.790213e+01
   1.043310e+01   2.957949e+01
   3.115422e+01   8.805500e+00
   9.929322e+01  -2.901918e+01
   1.062357e+02   2.296299e+01
   1.489736e+01   1.048565e+02
  -7.587491e+01   1.538175e+02
  -2.070067e+02   5.267994e+01
  -1.518535e+02   7.329033e+00
  -5.045120e+01  -1.565880e+02
   2.902119e+01  -1.483351e+02
   1.302610e+02  -7.707990e+01
   1.054385e+02   4.864562e+00
   4.783007e+01   5.378769e+01
  -4.279709e+01   2.597444e+01
   3.105854e+01  -6.603617e+00
   7.401193e+00   2.077505e+01
   4.668289e+01   5.267143e+01
  -4.852892e+01   5.382083e+01
  -6.477221e+01  -6.346273e+00
  -7.096980e+01  -8.220654e+01
   3.279122e+01  -6.981613e+01
   5.505852e+01  -5.025257e+01
   8.460539e+01   2.106809e+01
   1.282476e+00   9.012191e+01
  -9.894914e+01   7.403632e+01
  -1.168129e+02   7.767805e+00
   1.643976e+01  -6.937591e+01
   4.240077e+01  -6.737522e+01
   2.147989e+01  -6.080105e+01
  -5.517053e+01   1.189383e+01
  -6.487081e+01  -1.199160e+01
  -1.894666e+01   2.039773e+00
   7.043131e+01  -5.216473e+01
   7.891010e+01  -5.328939e+01
   5.490393e+01   2.808005e+00
  -5.626793e+01   8.516018e+01
  -5.705983e+01   8.458066e+01
  -2.776063e+01  -1.756412e+01
   4.988939e+00  -3.984071e+01
  -5.103268e+01  -2.105254e+00
   3.536441e+01   1.283201e+01
   2.494608e+01   4.587698e+01
  -2.694220e+00  -6.623337e+00
   1.099048e+00  -1.367497e+01
  -3.132892e+01  -2.094289e+01
  -1.773994e+01   8.569205e-01
   3.167162e+00   6.392532e+01
  -2.985513e+01   2.076048e+01
  -2.708597e+01  -4.729825e+01
   2.824472e+01  -9.927231e+01
   4.231239e+01  -7.809088e+00
   8.563245e+01   6.378387e+00
   3.022849e+01   6.515105e+01
  -1.731855e+01   9.096552e+01
  -8.246044e+01  -2.564520e+01
  -2.938541e+01  -4.040108e+00
   4.256194e+01  -4.891618e+01
   1.025333e+02   3.871929e-01
   6.060561e+01   3.627347e+01
  -4.410999e+01   4.762064e+01
  -8.577631e+01   3.831369e+00
  -6.713832e+01  -4.011783e+00
   2.861041e+01  -5.696751e+00
   2.847923e+01   3.235067e+01
   3.121461e+00   3.465342e+01
  -5.883524e+01   2.879565e+01
