
 $NMID
 id='ANONYMOUS ', fmtdat='(2E16.6)'
 volume=1.0
 tramp=1.0
 $END
  -3.738608e+03   3.260980e+01
  -2.094881e+03  -1.888626e+03
   4.182894e+02  -2.220262e+03
   1.621216e+03  -1.023046e+03
   1.196771e+03   1.251304e+02
  -1.436017e+02   3.228689e+02
  -5.302220e+02  -9.418707e+01
  -3.085025e+00  -6.984860e+02
   5.459447e+02  -5.660406e+02
   6.720180e+02  -8.225021e+01
   4.951743e+02   5.495243e+02
   7.738939e+01   6.380599e+02
  -3.462558e+02   1.173860e+02
  -3.432709e+02  -5.750118e+02
   2.712088e+02  -5.558987e+02
   3.561048e+02  -9.029203e+01
   4.455900e+02   6.554307e+02
  -1.649476e+02   5.394509e+02
  -5.219471e+02   1.030706e+02
  -6.519599e+02   2.280885e+01
  -1.199427e+02  -3.674029e+02
   1.622960e+02  -1.504395e+01
   2.177404e+02   7.516219e+01
  -1.573885e+02  -7.921891e+01
  -4.446459e+02  -1.613028e+02
  -4.731044e+01  -4.155553e+02
   3.570006e+02  -2.967351e+02
   6.705374e+02   1.345227e+02
   2.824897e+02   4.179818e+02
  -3.603016e+02   2.759843e+02
  -5.023036e+02  -9.000494e+01
  -2.752840e+02  -3.446528e+02
   1.778068e+02  -4.770857e+02
   5.311309e+02  -1.892459e+02
   3.824490e+02   9.069293e+01
   1.324198e+02   3.204452e+02
  -5.877474e+01   2.498130e+02
  -7.356436e+00  -1.329831e+02
   2.566147e+02  -2.673147e+02
   2.651510e+02   8.165827e+01
   1.321808e+02   5.743917e+02
  -3.087299e+02   5.100948e+02
  -4.908697e+02  -3.117128e+01
  -1.754680e+02  -4.292965e+02
   1.657269e+02  -2.518075e+02
   3.165778e+02   3.029253e+02
  -4.504353e+01   4.415456e+02
  -4.420347e+02   4.068041e+01
  -4.776964e+02  -4.141435e+02
  -1.352117e+02  -4.982067e+02
   3.553227e+02  -2.082016e+02
   5.601565e+02   1.703057e+02
   3.073626e+02   3.197231e+02
  -1.444000e+02   2.034676e+02
  -3.709007e+02   4.177694e+01
  -1.598297e+02  -3.136710e+01
   9.924876e+01  -2.196474e+01
   1.052567e+02   7.941415e+01
  -1.349032e+02   1.213464e+02
  -3.455123e+02  -7.500917e+00
  -1.376966e+02  -1.995026e+02
   1.414585e+02  -2.428305e+02
   3.411494e+02  -1.017137e+02
   2.369249e+02   8.198469e+01
  -5.000234e+01   2.898282e+02
  -2.887775e+02   3.776508e+02
  -3.974872e+02   1.848764e+02
  -2.554883e+02  -1.974575e+02
  -2.552753e+01  -4.410372e+02
   6.263953e+01  -3.349705e+02
   9.175599e+01  -1.185961e+02
   5.157466e+01  -1.606619e+01
   1.106013e+02  -1.306010e+02
   1.728038e+02  -1.049720e+02
   2.756331e+02   1.222299e+02
   9.761587e+01   3.139859e+02
  -1.015823e+02   2.253369e+02
  -1.984109e+02  -6.028281e+01
  -1.481432e+02  -2.596878e+02
   7.509728e+00  -2.598470e+02
   2.832767e+02  -7.512588e+01
   3.191437e+02   2.070202e+02
   1.871533e+02   3.066499e+02
  -7.518626e+01   2.886645e+02
  -1.846836e+02   1.613529e+02
  -1.496718e+02   2.593503e+01
  -8.240224e+01   7.388613e+01
  -2.462058e+02   7.148769e+01
  -4.544974e+02  -7.152828e+01
  -3.502736e+02  -3.023472e+02
  -1.638083e+01  -4.787047e+02
   3.551278e+02  -3.678722e+02
   4.714027e+02  -1.542005e+02
   2.751495e+02   1.205257e+02
   5.433203e+01   2.152107e+02
  -1.158465e+02   1.785649e+02
  -6.785092e+01   1.738181e+01
   1.746117e+02  -7.201967e+01
   1.711390e+02   4.626113e+01
  -1.042705e+01   1.918959e+02
  -1.307225e+02   7.150267e+01
  -1.835720e+02  -6.347015e+01
   6.206382e+01  -1.849111e+02
   2.202903e+02   1.278162e+01
   1.444169e+02   2.649685e+02
  -3.988224e+01   3.378322e+02
  -2.712044e+02   2.054436e+02
  -3.281160e+02  -8.484001e+01
  -2.452498e+02  -2.137568e+02
  -6.291413e+01  -2.758937e+02
   9.745146e+01  -1.840264e+02
   1.726271e+02   2.697704e+01
   8.047803e+01   2.144403e+01
  -1.090236e+02  -3.164927e+01
   1.404533e+01  -1.382551e+02
   1.221666e+02  -6.560232e+01
   1.384397e+02   8.461022e+00
  -6.005024e+00   3.470780e+01
  -3.291479e+01  -1.525067e+01
  -3.087728e+01  -7.633441e+01
   1.667659e+02  -5.968339e+01
   3.431241e+02   1.324943e+01
   3.036960e+02   1.847425e+02
   4.929742e+01   2.332172e+02
  -2.074553e+02   2.780646e+02
  -3.083956e+02   1.922659e+02
  -1.854741e+02  -9.150510e+01
   6.803703e+01  -1.151596e+02
   9.923895e+01  -3.758474e+01
  -5.131895e+01   1.130012e+02
  -1.999038e+02   7.843183e+01
  -2.125325e+02  -7.914792e+01
  -1.105187e+02  -1.850633e+02
   8.414809e+01  -1.064628e+02
   1.009909e+02  -4.550976e+01
   2.180043e+01   3.732757e+01
  -7.281325e+01  -1.287320e+01
  -2.341618e+01  -1.237949e+02
   8.202645e+01  -1.861692e+02
   2.059870e+02  -5.508775e+01
   2.652459e+02   1.056149e+02
   5.215523e+01   2.216023e+02
  -1.839613e+02   1.702555e+02
  -1.676378e+02   1.717214e+01
  -2.932004e+01  -8.928144e+01
   7.718804e+01  -1.159338e+02
   9.454049e+01  -3.017006e+01
  -1.264863e+01   7.527089e+01
  -3.853275e+01   3.151644e+01
   1.524889e+01   4.080717e+01
   8.856905e+01   2.583188e+01
   6.562927e+01   9.312541e+01
  -4.956064e+00   1.701204e+02
  -1.627774e+02   1.041317e+02
  -2.224573e+02  -1.535485e+01
  -2.059690e+02  -1.416729e+02
   1.073640e+01  -2.463697e+02
   8.340735e+01  -2.062018e+02
   1.783805e+02  -2.567699e+01
   7.013857e+01   3.354565e+01
   2.357901e+01   1.585240e+01
   4.672439e+01   3.257451e+01
   8.989775e+01   4.000930e+01
   4.827684e+01   7.166404e+01
  -3.679970e-01   8.935247e+01
  -9.644617e+01   4.953717e+01
  -1.079020e+02  -5.415079e+01
   4.886960e+01  -1.510910e+02
   1.866656e+02  -6.107893e+01
   1.678960e+02   3.717427e+01
   7.516840e+01   2.034201e+02
  -9.038682e+01   2.487154e+02
  -2.544506e+02   1.008082e+02
  -2.197177e+02  -1.533304e+02
  -7.432432e+01  -1.849148e+02
   1.759661e+01  -1.738141e+02
   7.337134e+01  -5.557326e+01
   8.649714e+01  -7.613813e+00
   1.187776e+02  -4.490281e+01
   1.340272e+02  -4.345196e+01
   1.365154e+02   3.609044e+01
   1.203808e+02   1.760976e+02
   2.889160e+01   2.638110e+02
  -1.473893e+02   1.740451e+02
  -2.226583e+02   6.778769e+00
  -1.462650e+02  -1.339907e+02
   3.513523e+00  -1.727423e+02
   8.705632e+01  -7.688742e+01
   4.224170e+01   1.860630e+01
   7.833806e+00   7.414259e+01
  -1.746196e+01   5.901360e+01
   9.236590e+00   1.821999e+01
   2.371491e+01  -2.316016e+00
   2.772638e+01   6.459587e+01
  -4.058052e+01  -2.141514e+01
  -1.386062e+02  -4.128211e+01
  -8.435665e+01  -4.067374e+01
  -5.477144e+01  -1.046324e+02
   1.413973e+02  -6.636279e+01
   1.384392e+02   3.086522e-01
   1.333918e+01   5.658307e+01
  -7.879993e+01   6.138184e+01
  -6.463220e+01   1.600398e+01
  -9.524633e+00  -5.890222e+01
   9.010660e+01  -1.909302e+01
   8.158139e+01  -1.473393e+01
   5.057861e+01   4.365562e+01
   1.669276e+01   5.657590e+01
   9.735689e+01   5.447836e+01
   8.238571e+01   1.895663e+01
   6.401061e+01   7.460797e+01
  -6.015608e+01   1.456394e+02
  -1.396347e+02   1.286076e+02
  -1.959511e+02  -2.987071e+01
  -1.555311e+02  -1.057969e+02
   1.790508e+01  -1.498629e+02
   8.462909e+01  -7.322053e+01
   9.131652e+01   8.923869e+00
  -6.010936e+00   5.072551e+01
  -1.338672e+02  -2.865155e+01
  -6.842235e+01  -8.056276e+01
   4.947365e+01  -1.200445e+02
   1.958200e+02  -8.795680e+01
   2.097577e+02   1.858465e+01
   6.927832e+01   7.634577e+01
  -7.389361e+01   9.122139e+01
  -3.015593e+01   4.935574e+01
   5.232953e+01  -7.438852e+01
   1.019734e+02   6.166731e+00
   5.650679e+01   1.166346e+02
  -6.173057e+01   2.295152e+02
  -1.367346e+02   9.218455e+01
  -1.686988e+02  -8.220215e+01
  -4.402631e+01  -1.803767e+02
   3.580109e+01  -1.500237e+02
   1.046644e+02   3.243771e+01
   5.335922e+01   1.356116e+02
   1.045402e+01   8.121471e+01
  -5.675393e+01   1.813288e+01
  -5.791760e+01  -3.335104e+01
   7.519432e+00  -3.414676e+01
  -7.344409e+01   3.257896e+00
  -2.180765e+01   2.195278e+01
  -7.451412e+00  -3.562762e+01
  -4.640144e+01  -1.230456e+02
   1.221507e+01  -2.822248e+01
   1.500151e+02  -1.983546e+01
   1.406322e+02   9.108719e+01
   5.020355e+01   1.845921e+01
  -4.276885e+01   1.140085e+02
  -7.371236e+01   7.603394e+01
  -3.747854e+01  -3.915158e-01
   3.201039e+01  -4.636370e+01
   3.155429e+00  -5.410562e+01
  -2.033034e+00  -4.047584e+01
   3.381710e+01  -3.142294e+00
   8.408850e+01   2.080303e+01
   1.031315e+02   8.154878e+01
  -2.490025e+01   5.138839e+01
  -1.289987e+02   9.792395e+01
  -1.911087e+02   4.585988e+01
  -1.291807e+02  -5.293404e+01
  -8.235664e+01  -1.406320e+02
   4.669756e+01  -2.219821e+02
   1.580591e+02  -5.834914e+01
   7.427100e+01   1.815681e+01
   2.322371e+01   4.300616e+01
   2.221102e+01   2.829290e+01
   3.601416e+01   4.308217e+01
   4.973174e+01   2.400219e+00
   4.776702e+01   5.329521e+01
  -2.052021e+01   1.053781e+02
  -1.110368e+02   1.503249e+01
  -9.161731e+01  -6.424245e+01
   1.688469e+01  -4.956099e+01
   8.908911e+01  -3.177321e+01
   8.471068e+01   3.956965e+01
   1.306249e+01   1.249351e+02
  -7.459348e+01   7.087887e+01
  -8.912837e+01   2.001826e+01
  -1.957988e+01  -2.803519e+01
   6.807674e+01  -7.513382e+01
   2.257771e+01  -4.454928e+01
   9.120801e-01   2.381454e+01
  -8.545485e+01   1.399027e+01
  -1.991450e+00  -2.258651e+01
   6.275611e+01  -7.403590e+01
   1.108303e+02  -5.363973e+01
   6.193315e+01  -2.099369e+01
  -2.936225e+01   1.252010e+02
  -5.342858e+01   6.196100e+01
  -5.137179e+00   2.631828e+01
   3.525167e+01  -5.595478e+01
   5.335543e+01  -6.293968e+01
   3.061129e+01  -1.239707e+00
   8.407845e+01   5.118104e+01
   4.452272e+00   3.919531e+01
  -1.578701e+01  -3.559704e+01
  -7.526466e+01  -1.442564e+01
  -4.460123e+01  -2.053591e+01
  -3.077849e+01   1.290878e+01
   1.111899e+01   3.891895e+01
   6.492957e+00  -2.145980e+01
  -3.928599e+00  -4.829831e+01
   1.329692e+01  -7.692892e+00
   1.470595e+01   3.611502e+01
  -4.890103e+01   5.846439e+01
  -3.392650e+01   2.720912e+01
  -4.500747e+01   1.666833e+01
  -9.466851e+00  -3.953752e+01
   7.329920e+01  -1.353865e+01
   8.606011e+01  -6.706331e+00
   5.702823e+01   3.237567e+01
  -5.465697e+01   6.866417e+01
  -8.032136e+01   5.726411e+01
  -2.353164e+01   2.117621e-01
   8.146409e+01  -2.445564e+00
   5.837500e+01   1.193260e+01
  -1.011911e+01   5.632559e+01
  -1.102107e+02  -2.697068e+01
