
 $NMID
 id='ANONYMOUS ', fmtdat='(2E16.6)'
 volume=1.0
 tramp=1.0
 $END
   4.510511e+03   1.953136e+02
   2.684581e+03   2.190194e+03
  -5.466587e+02   2.562086e+03
  -2.074681e+03   1.070776e+03
  -1.066484e+03  -6.095528e+02
   4.425744e+02  -5.008686e+02
   8.095834e+02   2.748545e+02
   2.470924e+01   9.818851e+02
  -7.218421e+02   7.618606e+02
  -8.402890e+02  -1.599407e+02
  -4.417712e+02  -7.281677e+02
   4.483069e+01  -1.068420e+03
   4.315268e+02  -1.696725e+02
   3.284099e+02   6.708284e+02
  -3.865033e+02   6.355875e+02
  -5.639719e+02   1.906391e+02
  -4.181743e+01  -7.485332e+02
   4.451600e+02  -7.039426e+02
   5.344586e+02   3.476897e+01
   3.613070e+02   1.730294e+02
   1.459836e+02   4.811465e+02
  -2.948118e+02   1.932484e+02
  -3.633768e+02  -4.253475e+01
   1.426153e+02  -3.526404e+01
   6.110557e+02   2.304013e+02
   1.267073e+02   5.504577e+02
  -4.076342e+02   4.232397e+02
  -9.174607e+02  -6.235357e+01
  -4.099891e+02  -5.933064e+02
   4.801403e+02  -4.327705e+02
   6.606065e+02   3.594629e+01
   2.229265e+02   4.175204e+02
  -3.593744e+02   4.751174e+02
  -4.973589e+02   2.097717e+02
  -2.367229e+02  -1.836319e+02
  -6.703607e+01  -4.565300e+02
   1.607101e+02  -3.194432e+02
   2.754438e+02   2.364362e+02
  -1.820932e+02   4.826830e+02
  -3.794416e+02  -1.841952e+01
  -2.421542e+02  -6.776654e+02
   2.620045e+02  -6.599050e+02
   5.188817e+02   6.767826e+01
   2.780036e+02   5.187261e+02
  -3.208265e+02   3.456082e+02
  -4.058973e+02  -3.735810e+02
   5.263143e+01  -5.758883e+02
   5.427996e+02  -1.719182e+02
   5.762778e+02   3.962654e+02
   1.806260e+02   5.900060e+02
  -3.732001e+02   3.811379e+02
  -5.991157e+02  -9.606823e+01
  -3.332627e+02  -3.416864e+02
   1.853121e+02  -2.931154e+02
   4.253352e+02   2.228811e+01
   1.913611e+02   1.669989e+02
  -1.054332e+02   1.278902e+02
  -1.637009e+02  -1.102336e+02
   1.351303e+02  -1.319602e+02
   3.379654e+02   7.442990e+01
   1.576753e+02   2.663173e+02
  -2.160316e+02   2.491352e+02
  -3.155678e+02   7.787468e+01
  -2.136518e+02  -8.732689e+01
   1.947964e+01  -2.029982e+02
   1.911504e+02  -2.981959e+02
   3.151183e+02  -2.065263e+02
   2.518331e+02   1.736557e+02
   7.350781e+01   3.845401e+02
  -1.562634e+02   3.525486e+02
  -1.227759e+02   8.056943e+01
  -4.434217e+01  -5.745681e+01
  -4.290103e+01   1.067577e+02
  -2.189923e+02   1.711260e+02
  -2.651763e+02  -4.450154e+01
  -1.374369e+02  -2.649589e+02
   1.417292e+02  -2.925278e+02
   2.057728e+02   9.576098e+00
   1.430903e+02   2.505502e+02
  -2.505300e+01   2.888156e+02
  -2.314014e+02   1.322204e+02
  -3.539282e+02  -1.353948e+02
  -2.117869e+02  -3.683120e+02
   7.329526e+01  -3.377173e+02
   2.728701e+02  -1.600674e+02
   1.859612e+02   4.711001e+01
   2.583030e+01   5.457140e+01
   1.932259e+02  -1.829102e+01
   3.459135e+02   5.673262e+01
   3.149784e+02   2.959737e+02
  -4.665489e+01   4.240875e+02
  -4.234539e+02   4.455861e+02
  -4.994722e+02   1.875861e+02
  -3.123326e+02  -1.154612e+02
  -6.268020e+01  -2.847169e+02
   1.316953e+02  -2.627516e+02
   6.963753e+01  -3.481263e+01
  -6.161527e+01   1.004574e+02
  -1.436295e+02   1.130446e+01
  -1.122400e+01  -1.604184e+02
   1.688004e+02  -1.481450e+02
   1.537916e+02   5.954624e+01
  -3.742054e+01   2.038112e+02
  -1.724051e+02   3.970680e+01
  -1.242840e+02  -2.097349e+02
   5.741963e+01  -3.410542e+02
   2.144109e+02  -1.990748e+02
   2.568360e+02   7.935380e+01
   2.062012e+02   2.060597e+02
   1.101979e+02   2.342747e+02
  -1.517584e+02   1.138034e+02
  -1.537433e+02  -6.064735e+01
  -4.393593e+01  -6.192256e+01
   1.375671e+02   6.115958e+01
   3.685092e+01   1.744163e+02
  -1.479174e+02   1.127009e+02
  -2.053495e+02  -7.624506e+01
  -8.081238e+01  -1.357949e+02
   6.523120e+01  -2.522227e+01
   9.177640e+01   9.641816e+01
  -1.164188e+02   1.148355e+02
  -2.462820e+02  -4.942015e+01
  -2.521186e+02  -1.453569e+02
  -9.400102e+01  -2.201683e+02
   1.401027e+02  -2.265631e+02
   2.362208e+02  -1.201416e+02
   1.576435e+02   6.019982e+01
  -3.349398e+01   1.542714e+02
  -1.028497e+02  -1.060069e+01
   1.585461e+00  -1.339050e+02
   2.068369e+02  -7.366217e+01
   2.481048e+02   1.189340e+02
   1.016593e+02   2.295457e+02
  -8.145598e+01   1.833728e+02
  -1.406606e+02   3.563800e+01
  -7.761990e+01  -2.305498e+01
   1.551896e+01   1.844687e+00
   5.061431e+01   7.479857e+01
  -5.294029e+01   1.197821e+02
  -1.439197e+02   6.734678e+01
  -1.864403e+02  -1.020487e+02
  -2.168838e+01  -2.100537e+02
   1.564538e+02  -1.621664e+02
   1.928154e+02   1.313135e+01
   5.205666e+01   1.135380e+02
  -4.129777e+01   8.838574e+01
  -9.832911e+01  -1.349410e+01
  -5.371402e+01  -9.036366e+00
   1.789034e+01  -6.192016e+01
  -8.289075e+00   6.903980e+00
  -6.086303e+01   3.480657e+01
  -1.003761e+02  -4.599460e+01
  -2.139582e+01  -1.085230e+02
   8.906571e+01  -1.698845e+02
   2.151431e+02  -7.653890e+01
   2.319051e+02   1.733298e+02
   3.772083e+01   2.726700e+02
  -1.204283e+02   1.793352e+02
  -1.308130e+02   3.071351e+01
  -8.976829e+01  -8.884259e+01
  -3.301408e+01  -4.566827e+01
  -2.385945e+01   6.927022e+00
  -5.068794e+01  -5.249947e+00
  -4.076242e+01  -2.999743e+01
   3.282196e+01  -6.882404e+01
   7.223131e+01  -3.155974e+01
   9.254086e+01   6.452373e+01
   9.118271e+00   1.522263e+02
  -1.493140e+02   1.026248e+02
  -1.706764e+02  -9.029536e+00
  -1.283363e+02  -2.206345e+02
   1.382615e+02  -2.032026e+02
   2.497242e+02  -6.761614e+01
   2.597844e+02   1.226693e+02
   1.008706e+02   1.501262e+02
  -7.413179e+01   1.325994e+02
  -7.163775e+01   7.827709e+01
  -2.420845e+01   5.256402e+01
  -1.199374e+01   6.177094e+01
  -4.261194e+01   7.406740e+01
  -1.859028e+02  -1.206092e+01
  -1.733498e+02  -1.370559e+02
  -2.746425e+01  -2.444481e+02
   7.802672e+01  -2.038920e+02
   1.980776e+02  -2.140534e+01
   1.281964e+02   1.174022e+02
   1.654592e+01   1.416355e+02
  -9.571965e+01   1.005252e+02
  -6.812042e+01  -3.347603e+01
  -5.536905e+01  -4.436124e+01
   4.990317e+01  -6.610494e+01
   2.866128e+00  -9.889355e+01
  -6.460359e+01  -1.342867e+01
  -3.036912e+01  -2.497801e+01
   9.271140e+01  -7.274854e+01
   1.551561e+02  -1.499723e+01
   1.896088e+02   4.657030e+01
   2.912443e+01   6.456967e+01
  -1.129613e+02   1.242331e+02
  -1.449946e+02   4.066887e+01
  -9.934947e+01   5.255472e-02
   3.825613e+01  -5.711784e+01
   7.918222e+01  -1.260843e+01
   3.242828e+01   4.505580e+01
  -2.228072e+01   1.061495e+02
  -5.504122e+01   2.392296e+01
  -3.274680e+01  -3.467672e+01
  -8.038478e+01  -1.821065e+01
  -6.539600e+01   1.958940e+01
  -7.266438e+01   3.505662e+01
  -2.154699e+01  -9.214773e+01
   7.266772e+01  -1.246955e+02
   1.345265e+02  -1.534567e+02
   1.301794e+02  -1.557058e+01
   7.014573e+01   7.136974e+01
  -9.600449e-01   1.023105e+02
  -5.840454e+01   4.417962e+01
  -2.639730e+01  -2.414654e+01
   6.666723e+01  -4.408330e+01
   1.112468e+02   7.312103e+01
   3.785740e+01   8.679301e+01
  -7.465546e+01   1.209827e+02
  -1.999821e+02   3.936863e+01
  -1.801125e+02  -8.442315e+01
  -5.816252e+01  -4.920449e+01
   9.009006e+01  -6.387509e+01
   7.995703e+01  -1.009635e+01
  -1.539910e+01   1.661330e+00
  -7.104942e+01  -2.376813e+01
  -3.686113e+01  -8.579449e+01
   6.585841e+01  -1.480222e+02
   1.717711e+02  -5.706999e+01
   1.278844e+02   9.413614e+01
   3.760485e+01   1.973904e+02
  -5.966076e+01   1.699197e+02
  -1.095636e+02  -2.287110e+01
  -5.243057e+01  -1.101852e+02
   4.661744e+00  -9.145438e+01
   8.355178e+01  -6.419398e+00
   6.959365e+01   2.313830e+01
   1.982047e+01   1.485873e+01
   2.146505e+01  -6.075493e+00
   1.273145e+01   3.395373e+01
   5.727880e+01   9.925540e+01
   6.764906e+01   8.455418e+01
  -5.889759e+01   4.175679e+01
  -1.298375e+02  -5.479001e+01
  -1.508329e+02  -1.014155e+02
  -3.772157e+01  -3.862067e+01
   5.433332e+01   1.670775e+01
   1.009610e+02  -2.031113e+01
  -2.755838e+01  -1.779625e+01
  -2.086787e+01  -9.744241e+00
  -2.434306e+01   1.489625e+01
   2.397614e+01   3.313845e+00
  -1.402097e+01  -2.350997e+01
  -8.609738e+01  -2.413648e+01
  -8.319475e+01  -4.588389e+01
   1.875987e+01  -6.135037e+01
   1.494010e+02  -1.051337e+02
   1.415067e+02  -4.552111e+01
   9.350826e+01   5.639025e+01
   1.092708e+01   1.365495e+02
  -6.868760e+01   1.491686e+02
  -7.066957e+01   9.082481e+01
  -6.918338e+01   1.748491e+01
  -3.138022e+01  -4.872373e+01
  -7.552753e+00   2.009033e+01
  -3.505683e+01  -1.732526e+01
  -4.175439e+01  -2.292474e+01
  -1.105976e+01  -1.073883e+02
  -4.970147e+00  -8.835056e+01
   5.839260e+01   3.121583e+01
   1.315352e+02   1.050634e+02
  -3.300720e+01   1.167203e+02
  -4.815466e+01  -1.536490e+01
  -9.667796e+01  -6.931868e+01
  -7.750760e+01  -5.318532e+01
   6.182835e+01  -1.888540e+01
   6.699292e+01   4.392314e+01
   3.716316e+01   2.134225e+01
  -9.193539e+00   6.444948e+01
  -5.348929e+01  -4.226915e+00
   4.679030e+01  -3.672645e+01
   7.903636e+01  -2.586225e+01
   2.304489e+01  -2.959548e+01
  -5.038768e+01   6.740817e+01
  -1.041572e+02   8.926501e+01
  -5.329328e+01   1.061717e+01
   5.537265e+01  -6.469723e+01
   6.830319e+01  -6.725528e+01
   1.515739e+01   1.975251e+01
  -1.792432e+01   4.748995e+01
  -2.722030e+01   8.949730e+01
  -8.018090e+01  -2.557150e+01
  -2.139755e+01  -3.368868e+01
  -5.430356e+00  -4.300442e+01
   3.482069e+01  -1.164815e+01
   3.051381e+01   3.512720e+01
   3.842884e+01  -4.918459e+01
   4.698725e+00  -1.388644e+01
   1.793084e+01   1.662114e+01
   2.369609e+01   5.078257e+01
   2.638179e+01   4.727527e+01
  -5.254225e+01   1.637428e+01
  -5.496172e+01  -3.627851e+01
  -1.933270e+01  -2.871183e+01
   8.110293e+01  -5.644681e+01
   5.727160e+01   4.338874e+01
   3.185326e+01   5.991060e+01
  -1.114068e+02   3.927002e+01
  -1.262696e+02  -1.720287e+01
  -6.048832e+01  -5.550073e+01
   2.020234e+01  -9.473950e+01
   8.517380e+01   7.522870e+00
   3.484526e+01  -1.057567e+00
  -2.258254e+01   7.983343e+00
  -4.321377e+01  -4.501334e+00
   2.325459e+01  -4.145775e+01
   5.533884e+01  -1.126988e+01
