
 $NMID
 id='ANONYMOUS ', fmtdat='(2E16.6)'
 volume=1.0
 tramp=1.0
 $END
   4.630546e+03   2.409612e+01
   2.773212e+03   2.860809e+03
  -1.056478e+03   3.034511e+03
  -2.341872e+03   7.939797e+02
  -1.016378e+03  -8.698052e+02
   8.982514e+02  -7.220865e+02
   8.886004e+02   5.212951e+02
  -1.074004e+02   1.223640e+03
  -1.016514e+03   8.030225e+02
  -1.054847e+03  -2.380221e+02
  -5.107194e+02  -8.173138e+02
   1.232867e+02  -8.436065e+02
   9.094303e+02  -9.994348e+01
   2.362111e+02   7.924686e+02
  -4.071090e+02   7.022426e+02
  -8.398845e+02  -1.170501e+00
  -3.571515e+02  -6.680560e+02
   2.139002e+02  -3.773020e+02
   6.147353e+02   7.404213e+01
   5.000917e+02   5.504783e+02
  -6.758673e+01   4.637479e+02
  -1.443640e+02   3.878328e+02
  -2.287739e+02   1.427377e+02
   1.689876e+01  -2.091297e+02
   4.804042e+02   4.182339e+01
   2.941047e+02   3.829179e+02
  -4.194863e+02   5.055537e+02
  -8.727833e+02   7.660441e+01
  -4.162942e+02  -5.302793e+02
   3.485062e+02  -6.433116e+02
   7.411144e+02   1.462157e+02
   4.734256e+02   6.064635e+02
  -1.918823e+02   6.312412e+02
  -6.901322e+02   1.500685e+02
  -6.174131e+02  -2.133133e+02
  -3.295032e+01  -5.446320e+02
   2.763043e+02  -3.858485e+02
   2.169999e+02   2.658762e+02
  -1.569458e+02   5.321393e+02
  -5.233257e+02   8.528276e+00
  -3.282529e+02  -6.858606e+02
   3.606930e+02  -7.680086e+02
   7.257401e+02   2.258528e+01
   2.672889e+02   6.943099e+02
  -3.197399e+02   2.954375e+02
  -5.262491e+02  -4.563172e+02
   3.802242e+01  -6.776401e+02
   6.387001e+02  -1.554354e+02
   7.055586e+02   5.324829e+02
   1.850762e+02   7.342362e+02
  -5.076505e+02   4.507826e+02
  -7.405856e+02  -1.325875e+02
  -3.985976e+02  -4.495362e+02
   1.967627e+02  -4.370286e+02
   4.501075e+02  -3.212188e+01
   2.551788e+02   2.114443e+02
  -1.528756e+02   1.062141e+02
  -1.312785e+02  -1.355188e+02
   1.735623e+02  -1.533012e+02
   3.541106e+02   1.258489e+02
   1.295248e+02   3.132490e+02
  -2.104728e+02   2.331320e+02
  -3.913731e+02   2.309871e+01
  -2.713566e+02  -1.041214e+02
   9.281709e+00  -2.131724e+02
   2.410964e+02  -3.016056e+02
   3.954562e+02  -2.240990e+02
   3.536072e+02   1.571104e+02
   6.046245e+01   4.740366e+02
  -1.195240e+02   4.126968e+02
  -1.554965e+02   1.169720e+02
  -6.443025e+01   1.153606e-01
  -7.834289e+01   8.946548e+01
  -2.108810e+02   1.671751e+02
  -2.798333e+02  -4.244920e+01
  -1.872143e+02  -3.348472e+02
   1.246675e+02  -3.349509e+02
   2.859758e+02   2.970798e+01
   1.658258e+02   2.646778e+02
  -2.320886e+01   3.251986e+02
  -3.479333e+02   1.115388e+02
  -4.099773e+02  -1.459603e+02
  -1.610812e+02  -4.286577e+02
   1.496422e+02  -3.525512e+02
   2.089872e+02  -1.164103e+02
   1.304634e+02  -2.521718e+01
   1.446975e+02  -3.104879e+01
   2.386793e+02  -7.864667e+01
   3.823166e+02   1.904279e+01
   3.665814e+02   2.867849e+02
   2.998295e+01   4.904090e+02
  -3.309081e+02   4.506298e+02
  -5.114377e+02   1.497780e+02
  -3.874193e+02  -1.189882e+02
  -5.885534e+01  -2.695302e+02
   1.596915e+02  -2.815364e+02
   1.469712e+02  -6.144771e+00
  -1.096600e+02   1.497269e+02
  -2.016883e+02   3.275973e+01
  -7.805539e+01  -1.865344e+02
   1.466636e+02  -1.775500e+02
   1.806611e+02   5.981818e+01
  -2.319201e+01   1.938220e+02
  -2.143929e+02   7.819157e+01
  -1.762025e+02  -2.152142e+02
   6.236180e+01  -3.544791e+02
   2.854746e+02  -2.360720e+02
   3.550079e+02   1.196158e+01
   3.101583e+02   2.481054e+02
   1.296811e+02   3.167448e+02
  -6.104877e+01   2.182056e+02
  -1.542966e+02   1.830307e+01
  -8.347083e+01   2.298443e+01
   4.274535e+01   6.240430e+01
   2.649919e+01   1.344065e+02
  -9.738697e+01   1.025904e+02
  -1.435264e+02  -2.792482e+01
  -8.070880e+01  -8.841222e+01
   7.420967e+01  -3.125113e+01
   4.881581e+01   8.368150e+01
  -1.295704e+02   7.576747e+01
  -2.846484e+02   3.006230e+00
  -2.630110e+02  -1.528794e+02
  -7.415842e+01  -2.934669e+02
   1.989152e+02  -2.724658e+02
   2.964230e+02  -1.380981e+02
   1.771896e+02   7.074960e+01
  -3.240914e+01   9.481836e+01
  -8.077715e+01   2.845024e+01
   2.208438e+01  -1.176426e+02
   1.835771e+02  -1.067103e+02
   2.749004e+02   8.235508e+01
   7.952121e+01   2.487150e+02
  -1.186184e+02   2.045231e+02
  -1.618301e+02   3.464543e+01
  -7.815900e+01  -8.396179e+01
   3.534746e+00  -6.244684e+01
  -3.950344e+00   8.230238e+01
  -6.622524e+01   1.153559e+02
  -1.972455e+02  -9.713236e+00
  -1.460126e+02  -1.894502e+02
   5.154610e+00  -2.368875e+02
   1.734563e+02  -1.398122e+02
   1.759639e+02   2.153381e+01
   3.768844e+01   1.091487e+02
  -6.632200e+01   6.364232e+01
  -1.071496e+02   2.469489e+01
  -1.809733e+01  -3.238670e+01
   1.132137e+00  -3.727042e+01
  -1.256000e+01  -2.468683e+01
  -8.266308e+01   8.527529e+00
  -7.738453e+01  -7.422639e+01
   3.263994e+00  -2.137094e+02
   1.660954e+02  -1.871979e+02
   2.239868e+02  -9.636609e+01
   2.230161e+02   1.477418e+02
   3.485331e+01   2.342953e+02
  -1.032766e+02   1.893705e+02
  -1.236164e+02   1.358560e+01
  -6.083948e+01  -3.738500e+01
  -7.157005e+00  -8.584661e+00
  -1.206460e+02   5.223111e+01
  -1.558826e+02   8.276844e+01
  -6.332290e+01  -4.823687e+01
   3.141630e+01  -1.185035e+02
   1.242960e+02  -6.499938e+01
   5.667333e+01  -1.221172e+01
  -1.932097e+01   1.036626e+02
  -1.276408e+02   7.556775e+01
  -2.009757e+02  -5.807993e+01
  -6.379323e+01  -2.180471e+02
   9.409393e+01  -2.584753e+02
   2.929636e+02  -8.728704e+01
   2.557882e+02   1.233386e+02
   1.225832e+02   2.209265e+02
  -8.550810e+01   1.785092e+02
  -1.440950e+02   7.905991e+01
  -4.836429e+01   7.397222e+01
  -1.104601e+02   1.285799e+02
  -1.488244e+02   7.528696e+01
  -2.006213e+02  -2.848227e+01
  -9.158543e+01  -1.556068e+02
   6.678045e-01  -2.695395e+02
   1.735918e+02  -2.294978e+02
   1.905430e+02  -6.733284e+01
   1.237776e+02   1.747213e+02
   1.866489e+01   1.720982e+02
  -4.158016e+01   1.312010e+02
  -6.346579e+01  -8.592191e+00
   3.168945e-01  -7.235786e+01
  -1.875178e+01  -4.425770e+01
  -8.531420e+01  -3.920850e+01
  -9.908299e+01  -4.945181e+00
  -6.998241e+01  -4.458569e+01
   6.324079e+01  -5.240815e+01
   1.902130e+02   5.404261e+00
   1.767171e+02   9.696463e+00
   1.230145e+01   4.117485e+01
  -8.644957e+01   6.631577e+01
  -1.304058e+02  -7.926486e+00
  -2.794873e+01  -3.552419e+01
   7.207562e+01  -2.067620e+01
   6.702837e+01   3.189195e+01
  -8.242746e+00   1.313164e+02
  -7.835148e+01   3.693610e+01
  -7.984926e+01   1.770668e+01
  -1.885680e+01  -5.419715e+01
   2.280506e+01  -4.087140e+01
   1.038189e+00   2.610365e+01
  -1.038013e+02   1.378492e+01
  -1.511214e+01  -5.391538e+01
   4.957041e+01  -1.385915e+02
   6.997555e+01  -1.431143e+02
   1.640631e+02  -6.105062e+01
   8.331274e+01   8.509915e+01
  -1.578562e+00   1.380837e+02
  -9.704985e+01   1.002795e+02
  -6.484952e+01  -1.596735e+01
   4.634949e+01   1.458481e+01
   1.444440e+02   1.730848e+01
   4.730367e+01   9.390731e+01
  -8.630772e+01   1.216271e+02
  -2.194141e+02   2.764396e+01
  -1.632409e+02  -5.807191e+01
  -2.263480e+01  -8.663042e+01
   1.200577e+02   7.042444e+00
   1.070011e+02   1.563607e+01
  -7.550832e+01  -2.831392e+01
  -1.076470e+02  -7.941662e+01
  -4.465930e+01  -1.461820e+02
   9.819159e+01  -1.103899e+02
   1.794150e+02  -1.301841e+01
   1.074019e+02   6.300097e+01
  -5.258052e+00   2.143352e+02
  -1.767128e+02   1.361702e+02
  -1.337259e+02  -6.419438e+00
  -6.653506e+01  -1.665557e+02
  -1.728991e+01  -1.217138e+02
   6.751754e+01  -4.182810e+01
   6.325539e+01  -1.083221e+01
   5.599636e+00  -3.217846e+01
   3.475358e+01  -3.779185e+01
   4.829449e+01   2.043017e+01
   4.651610e+01   1.149152e+02
   4.495197e+01   1.214480e+02
  -4.877216e+01   5.398700e+01
  -1.763762e+02  -7.262693e+00
  -1.200350e+02  -7.522199e+01
  -5.574967e+00  -6.115029e+01
   8.938845e+01  -2.897683e+01
   1.092647e+02  -1.211638e+01
   4.884101e+01  -3.532439e+01
  -7.618153e+01  -7.142620e+00
  -4.729754e+00   1.991576e+01
   1.688929e+01  -2.011021e+01
   2.714115e+01  -2.023441e+01
  -5.419466e+01   3.144106e+01
  -5.913910e+01  -6.832439e+00
   1.996274e+01  -7.967679e+01
   1.316615e+02  -1.045206e+02
   2.179952e+02  -4.404492e+01
   8.082242e+01   9.696103e+01
   1.469926e+01   1.175910e+02
  -6.699066e+01   1.383940e+02
  -1.076404e+02   5.413677e+01
  -6.724002e+01  -7.250857e+00
  -5.727256e+01  -1.850780e+00
  -5.071346e+01  -3.688309e+01
  -4.152518e+01   3.246314e+01
  -9.179771e+00  -6.612123e+01
   1.071683e+01  -1.220311e+02
   6.596939e+01  -3.646300e+01
   9.132164e+01   1.670308e+01
   6.385365e+01   1.296593e+02
  -4.682648e-01   1.158746e+02
  -7.608967e+01   4.169284e+00
  -1.299178e+02  -4.434755e+01
  -3.819319e+01  -1.086009e+02
   4.840818e+01  -4.910848e+01
   7.498475e+01   3.211502e+01
   1.337871e+01   7.447468e+01
  -1.667486e+01   4.064833e+01
  -1.452861e+01  -1.601180e+01
   3.806293e+01  -1.079866e+01
   3.309793e+01  -2.715768e+01
   5.482643e+01   4.578229e+01
  -3.677873e+01   1.023166e+02
  -1.245282e+02   9.481670e+01
  -5.935176e+01  -2.535277e+01
   2.926970e+00  -9.726214e+01
   6.458054e+01  -9.035574e+01
   4.098179e+01  -2.235728e+01
  -2.441130e+01   7.623713e+01
  -2.390837e+00   3.338581e+01
  -2.836188e+01  -2.322435e+01
  -2.694050e+01  -4.077119e+01
   1.034002e+01  -6.286243e+01
   2.889453e+01   1.988527e+01
   1.498640e+01   3.671327e+01
   3.427633e+00   1.567771e+01
   2.220794e+01  -1.478921e+00
   1.318301e+01  -1.535342e+01
  -1.771944e+01   3.344559e+01
  -5.943147e+01  -1.531832e+01
  -6.263570e+01  -1.129323e+01
  -8.921822e+01  -6.556543e+01
  -2.535335e-01  -9.917846e+01
   4.674387e+01  -2.669678e+01
   6.762968e+01   2.747806e+01
   5.126921e+01   1.024591e+02
  -8.268700e+01   7.371999e+01
  -5.986426e+01  -2.438980e+01
  -7.646011e+00  -1.605588e+00
   8.129660e+01  -7.851704e+01
   7.681914e+01  -2.292607e+01
   2.819964e+01   1.408362e+01
  -6.676369e+01   1.889895e+01
  -2.520792e+01   3.980609e+01
   4.941401e+01  -3.241543e+01
   8.348589e+01  -4.474492e+01
