
 $NMID
 id='ANONYMOUS ', fmtdat='(2E16.6)'
 volume=1.0
 tramp=1.0
 $END
  -3.964191e+03  -3.336545e+00
  -2.139560e+03  -2.547159e+03
   7.917842e+02  -2.375119e+03
   2.083394e+03  -6.323848e+02
   9.221228e+02   7.239886e+02
  -7.590005e+02   6.159289e+02
  -7.696320e+02  -2.708804e+02
  -6.993737e+01  -9.843061e+02
   7.149463e+02  -7.343258e+02
   8.957685e+02   9.448891e+01
   3.318287e+02   7.425167e+02
  -1.516871e+02   8.236022e+02
  -4.957369e+02   4.913159e+01
  -4.425414e+02  -8.657609e+02
   3.733880e+02  -7.875109e+02
   5.464706e+02   4.333716e+01
   2.951540e+02   6.591518e+02
  -6.654506e+01   5.382770e+02
  -5.990201e+02   1.428910e+02
  -1.978378e+02  -2.211703e+02
  -1.348015e+02  -3.127865e+02
   9.602424e+01  -3.134965e+02
   3.147467e+02  -1.047903e+02
  -7.407391e+01   2.099169e+02
  -3.137579e+02  -1.019985e+02
  -2.016681e+02  -4.315777e+02
   4.134671e+02  -4.482211e+02
   7.627022e+02  -8.514361e+01
   4.594693e+02   4.504059e+02
  -3.151648e+02   5.828036e+02
  -6.651715e+02   1.140439e+02
  -3.228236e+02  -2.499765e+02
   2.310421e+02  -6.852004e+02
   5.432987e+02  -2.537531e+02
   3.084319e+02   1.624285e+02
   1.092104e+02   4.999155e+02
  -2.903027e+02   3.267671e+02
  -1.964592e+02  -2.627044e+02
   1.339745e+02  -5.166947e+02
   4.672117e+02  -1.696302e+01
   2.862142e+02   6.616760e+02
  -2.529285e+02   7.218935e+02
  -6.044048e+02   3.759468e+01
  -2.357015e+02  -5.734187e+02
   3.610397e+02  -3.330359e+02
   4.107116e+02   3.615583e+02
  -4.123103e+01   5.490789e+02
  -5.648343e+02   1.466226e+02
  -5.769057e+02  -3.323756e+02
  -1.800941e+02  -5.028425e+02
   3.386994e+02  -2.915764e+02
   5.589664e+02   1.054418e+02
   3.505155e+02   3.442512e+02
  -1.779166e+02   3.246719e+02
  -4.545870e+02   2.335637e+01
  -2.045605e+02  -2.697062e+02
   1.322820e+02  -1.139331e+02
   2.143323e+02   2.307904e+02
  -1.719816e+02   2.738828e+02
  -3.806221e+02  -2.663142e+01
  -1.156449e+02  -3.220796e+02
   1.759269e+02  -2.747984e+02
   3.068648e+02  -2.970595e+01
   1.539377e+02   1.161903e+02
  -8.381007e+01   2.534288e+02
  -1.961645e+02   2.922502e+02
  -2.507675e+02   1.451987e+02
  -2.553150e+02  -8.082855e+01
  -7.789539e+01  -3.640653e+02
   5.663961e+01  -3.215093e+02
   6.570440e+01  -1.266740e+02
   5.796780e+01  -5.732021e+01
   1.275826e+01  -4.608607e+01
   1.067105e+02  -1.114476e+02
   1.878459e+02   8.086063e+01
   1.315700e+02   2.445531e+02
  -3.411302e+01   2.419636e+02
  -2.242575e+02   2.915327e+01
  -2.367279e+02  -2.430542e+02
  -3.411511e+00  -2.963730e+02
   2.473919e+02  -9.551827e+01
   3.328832e+02   1.305478e+02
   1.460311e+02   3.138343e+02
  -6.667602e+01   2.242145e+02
  -1.400923e+02   7.538337e+01
  -1.314987e+02   1.161812e+01
  -9.755335e+01   1.129570e+01
  -1.880776e+02   1.107394e+02
  -3.327501e+02  -9.833426e+00
  -3.330062e+02  -2.672203e+02
  -3.558111e+01  -4.332979e+02
   2.826136e+02  -4.117601e+02
   4.584437e+02  -1.582185e+02
   3.615321e+02   1.265696e+02
   7.935726e+01   2.898529e+02
  -9.665151e+01   2.184206e+02
  -1.195009e+02  -1.797808e+00
   1.219992e+02  -1.666522e+02
   2.031064e+02  -3.170012e+01
   6.587079e+01   1.700881e+02
  -1.375571e+02   2.153400e+02
  -2.172667e+02   2.928781e+00
  -2.449563e+01  -1.463877e+02
   1.330341e+02  -1.256464e+02
   1.464139e+02   1.161169e+02
   1.453291e+01   2.727656e+02
  -1.712881e+02   2.104259e+02
  -2.646060e+02  -5.347656e+00
  -2.473739e+02  -2.131666e+02
  -6.095524e+01  -2.460859e+02
   1.508124e+02  -1.384721e+02
   1.727025e+02  -5.257048e+00
   3.108050e+01   4.862299e+01
  -8.780512e+01  -2.524985e+01
  -4.250710e+01  -8.455125e+01
   9.236272e+01  -8.372922e+01
   1.160767e+02  -4.379733e+01
   8.464910e+01   2.921375e+01
  -4.833962e+01  -3.636798e-01
  -2.604403e+01  -8.755611e+01
   1.187370e+02  -7.338236e+01
   2.536744e+02  -3.889840e+01
   2.869203e+02   1.283810e+02
   9.968191e+01   2.321901e+02
  -1.434848e+02   2.688125e+02
  -2.072036e+02   1.401614e+02
  -1.435238e+02  -2.400852e+01
  -9.059364e+00  -4.891366e+01
   3.519427e+01   1.993133e+01
  -2.347650e+01   1.078641e+02
  -1.454101e+02   4.344980e+01
  -1.938721e+02  -7.817207e+01
  -1.006209e+02  -2.443375e+02
   1.093539e+02  -1.723703e+02
   1.142758e+02  -1.649204e+01
   6.990588e+01   8.322329e+01
   1.244689e+01   5.780112e+01
  -1.340814e+01  -8.892098e+01
   5.429936e+01  -8.902772e+01
   1.617502e+02   3.602075e+00
   1.466755e+02   7.677257e+01
   4.424073e+01   1.802031e+02
  -7.765994e+01   1.396246e+02
  -1.297417e+02   4.894490e+01
  -9.881934e+01  -9.626813e+01
   2.872999e+01  -9.207787e+01
   5.577697e+01  -4.725929e+00
   2.931218e+01   1.091506e+01
  -4.852778e+01   7.665160e+01
  -1.228387e+01  -7.237293e+00
   5.562321e+01   3.881592e+01
   1.073103e+02   1.034929e+02
   3.057429e+01   1.251957e+02
  -1.327912e+02   1.457234e+02
  -2.283163e+02   2.306162e+01
  -1.930686e+02  -1.376174e+02
  -2.998408e+01  -1.962190e+02
   1.230029e+02  -1.634298e+02
   1.118050e+02  -2.920618e+01
   3.185723e+01   4.768763e+01
  -5.221829e+01   2.228646e+01
   6.073350e+01  -3.256620e+01
   7.306334e+01  -3.883128e+01
   5.306319e+01  -4.820125e+00
  -2.170818e+01   8.489881e+01
  -1.137863e+02   5.004296e+01
  -4.444264e+01  -1.160980e+01
   3.832356e+00  -7.669988e+01
   1.156017e+02  -8.724996e+01
   1.863490e+02   8.319205e+01
   1.037590e+02   1.814078e+02
  -5.588797e+01   2.049537e+02
  -2.182099e+02   1.230430e+02
  -2.039197e+02  -8.586490e+01
  -9.184999e+01  -2.166713e+02
   1.371449e+01  -1.431317e+02
   1.204498e+02  -4.002895e+01
   9.195227e+01  -3.230539e+01
   2.720379e+01  -6.835552e+01
   1.007050e+02  -4.045142e+01
   1.257102e+02   6.060816e+00
   1.379257e+02   1.244211e+02
   5.132893e+01   2.308824e+02
  -8.733721e+01   1.716383e+02
  -1.559610e+02   1.587798e+01
  -1.092484e+02  -1.090675e+02
  -1.382535e+01  -1.026713e+02
   8.607909e+01  -7.901405e+01
   5.329311e+01  -1.175540e+01
   4.151900e+00   4.767454e+01
   2.351110e+01   1.454683e+01
   5.230203e+00   3.114519e+01
   3.744158e+00   4.096128e+01
   3.409934e+00   8.077255e+01
  -6.568782e+01   7.876691e+01
  -1.455107e+02  -1.036021e+00
  -1.646598e+02  -3.037779e+01
  -3.670003e+01  -9.067283e+01
   1.417572e+02  -7.065867e+01
   1.361668e+02  -1.136180e+01
   5.910487e+01   3.472786e+01
  -8.219395e+01   7.177395e+01
  -4.434943e+01   3.399746e+00
   3.403645e-01  -3.381276e+01
   4.321253e+01  -5.450685e+01
   4.531256e+00  -4.737495e+01
   1.866454e+01  -2.467381e+00
   5.098561e+01  -9.498287e+00
   5.723383e+01   1.041680e+01
   8.267436e+01   6.792938e+00
   4.405767e+01   6.129741e+01
  -4.943182e+01   1.503780e+02
  -6.174759e+01   1.325915e+02
  -1.414657e+02   1.219855e+01
  -1.245348e+02  -1.228385e+02
  -4.500824e+01  -8.453804e+01
   6.696093e+01  -2.695430e+01
   5.797446e+01   1.695645e+01
  -2.951502e+01  -4.456216e+01
  -9.825392e+01  -5.618203e+01
  -9.609009e+01  -7.506502e+01
   5.319030e+01  -9.556302e+01
   2.005134e+02  -3.934451e+01
   1.556746e+02   6.768069e+01
  -9.001174e+00   7.607066e+01
  -1.243993e+02   5.985796e+01
  -3.316162e+01   4.852276e+01
   5.773806e+01  -8.816595e+00
   1.077543e+02   3.826117e+00
   2.279316e-01   8.327639e+01
  -8.377998e+01   9.709629e+01
  -1.403787e+02   3.742516e+01
  -1.218198e+02  -9.417817e+01
  -3.962546e+00  -1.465280e+02
   8.110566e+01  -1.386744e+02
   3.982944e+01  -3.027394e+01
   4.474082e+01   8.987287e+01
  -1.759188e+00   9.758966e+01
  -2.403924e+01   3.942852e+00
  -2.714234e+01  -2.980883e+01
   2.037853e+01   3.266712e+01
   2.010960e+01   5.094189e+01
  -3.764316e+01   3.021260e+01
  -6.941606e+01  -5.517612e+01
  -4.109001e+01  -9.086643e+01
   3.780546e+01  -2.766321e+01
   1.127501e+02   3.642682e+00
   1.337364e+02   6.073283e+01
  -1.790667e+01   6.804088e+01
  -1.066285e+02   6.385182e+01
  -5.134188e+01  -3.951346e+00
  -1.317500e+01   3.684775e+01
   3.155111e+01  -2.556650e+01
  -1.674532e+01  -1.093890e+01
   8.181164e+00   7.050604e+00
   3.052224e+01   4.949434e+00
   9.409543e+01   2.265458e+01
   5.304867e+01   3.616780e+01
  -1.552177e+01   1.071387e+02
  -1.164962e+02   9.463528e+01
  -1.518197e+02   2.221785e+01
  -1.513567e+02  -4.657219e+01
  -7.622690e+01  -1.213066e+02
   3.958951e+01  -1.875253e+02
   1.285121e+02  -6.691951e+01
   8.364582e+01   3.562271e+00
  -5.118864e+00   4.351750e+01
   3.797048e+01   2.032392e+01
   2.511705e+01   2.654065e+01
   2.901772e+01   2.873639e+01
   2.675293e+00   9.921914e+01
  -3.614982e+01   8.034612e+01
  -8.047947e+01   1.773716e+01
  -9.134245e+01  -1.289090e+02
  -7.159249e+00  -1.158317e+02
   4.043990e+01  -2.725712e+01
   7.382116e+01   6.371967e+01
   8.098222e+01   9.594659e+01
  -3.938914e+01   3.285901e+01
  -8.446493e+01   2.008948e+01
  -6.687663e+01  -6.964887e+00
   4.099526e+01  -6.369727e+00
   5.204535e+01   1.238726e+01
  -2.324922e+01  -5.478821e+00
  -4.528777e+01   3.390403e+00
  -7.615660e+00  -8.967736e+00
   5.531962e+01  -1.112904e+02
   9.606651e+01  -6.780187e+01
   3.508658e+01   4.099177e+00
  -3.800113e+01   9.425253e+01
  -8.193299e+01   7.657131e+01
  -7.464764e+01   2.267125e+00
   7.310993e+00  -4.996260e+01
   2.189770e+01  -7.091907e+01
   4.796216e+01  -9.292734e+00
   1.828819e+01   5.061945e+01
  -3.110519e+01   4.249451e+01
  -2.901835e+01  -1.930607e+01
  -3.515290e+01  -3.804922e+01
  -3.333154e+01  -2.288618e+01
  -2.454655e+01  -1.328811e+01
  -1.781995e+01   8.454327e+00
  -4.193496e+01  -4.959061e+01
  -3.619145e+01  -3.788785e+01
   1.662114e+01  -3.875525e+01
   2.791001e+01   4.909186e+01
   6.718327e+01   8.236343e+01
   2.540757e+01  -1.824070e+01
  -2.860937e+01  -2.797364e+01
  -1.248617e+01  -8.983503e+01
   7.259555e+01  -5.720516e+01
   5.744290e+01   1.445998e+00
   3.211585e+01   1.255281e+01
  -4.752618e+01   4.247342e+01
  -2.849328e+01  -7.261862e+00
  -3.879731e+01  -3.485540e+01
   2.899470e+01   2.185144e+01
   1.033534e+00  -4.391993e+01
  -4.882598e+01   2.363812e+01
  -1.309991e+02  -6.831278e+00
