
 $NMID
 id='ANONYMOUS ', fmtdat='(2E16.6)'
 volume=1.0
 tramp=1.0
 $END
   4.009958e+03   2.005880e+02
   2.136821e+03   2.270374e+03
  -5.454058e+02   2.305068e+03
  -1.803102e+03   8.778155e+02
  -9.402701e+02  -6.258247e+02
   6.868950e+02  -4.943125e+02
   5.615329e+02   3.182046e+02
  -1.577191e+02   1.046148e+03
  -6.267564e+02   7.244129e+02
  -8.757825e+02  -9.036337e+01
  -5.944726e+02  -8.139707e+02
   1.232967e+02  -9.042857e+02
   5.057924e+02  -4.865024e+01
   1.816684e+02   6.772971e+02
  -2.437313e+02   8.170585e+02
  -5.461907e+02   2.525117e+02
  -2.288179e+02  -6.777822e+02
   3.930035e+02  -5.790144e+02
   4.970676e+02  -5.873495e+01
   1.526578e+02   5.010774e+02
   4.080691e+01   2.930125e+02
  -3.907917e+02   9.614018e+01
  -1.502802e+02   6.060311e+01
   7.669828e+01  -2.969148e+01
   4.422201e+02   9.516596e+01
   8.599805e+01   2.989395e+02
  -3.763084e+02   2.727867e+02
  -8.042355e+02  -8.972265e+01
  -4.048444e+02  -4.861387e+02
   1.969748e+02  -3.537003e+02
   6.071722e+02  -3.757510e+01
   2.766503e+02   4.276683e+02
  -3.321155e+02   5.183158e+02
  -6.183290e+02   1.894971e+02
  -4.933893e+02  -2.865181e+02
  -1.397100e+02  -4.455765e+02
   1.045503e+02  -1.978555e+02
   1.415288e+02   2.593980e+02
  -1.853352e+02   4.315223e+02
  -4.429132e+02  -7.325854e+00
  -2.491462e+02  -6.048816e+02
   3.156201e+02  -6.760538e+02
   5.319586e+02   2.904278e+00
   2.755045e+02   4.580793e+02
  -3.222233e+02   2.637653e+02
  -3.671156e+02  -3.042572e+02
   1.094552e+02  -5.420453e+02
   5.719642e+02  -1.546007e+02
   6.375668e+02   3.857116e+02
   1.822161e+02   5.936079e+02
  -3.663521e+02   4.538004e+02
  -5.773147e+02  -3.800530e+01
  -3.163707e+02  -3.628525e+02
   1.756126e+02  -3.304695e+02
   3.956776e+02   8.232551e+00
   1.437429e+02   2.951840e+02
  -1.472646e+02   1.857510e+02
  -1.876173e+02  -1.667320e+02
   1.322260e+02  -2.229218e+02
   2.841483e+02   1.245045e+01
   1.553823e+02   2.546085e+02
  -1.689628e+02   2.725478e+02
  -2.612634e+02   7.000806e+01
  -2.037357e+02  -4.723364e+01
   1.945054e+01  -2.335424e+02
   1.789362e+02  -2.801463e+02
   3.491734e+02  -2.079861e+02
   3.036376e+02   1.284613e+02
   2.316581e+01   4.010577e+02
  -1.187219e+02   4.273405e+02
  -1.540177e+02   1.044701e+02
   2.168973e+01  -4.162731e+00
  -1.275555e+00   6.315621e+01
  -1.528651e+02   1.577678e+02
  -3.016999e+02  -1.366430e+01
  -1.794768e+02  -2.994256e+02
   5.794435e+01  -2.915188e+02
   2.332777e+02  -4.810442e+01
   2.159418e+02   2.265841e+02
   2.906328e+01   3.198388e+02
  -2.118225e+02   1.208529e+02
  -3.389197e+02  -1.689441e+02
  -1.747611e+02  -3.187016e+02
   8.760817e+01  -2.978551e+02
   2.205774e+02  -1.297227e+02
   1.527657e+02   3.589455e+01
   7.310138e+01  -1.099777e+00
   1.506451e+02  -8.085668e+01
   3.342481e+02   1.017227e+00
   2.713821e+02   2.738597e+02
   2.861442e+01   4.036350e+02
  -3.508334e+02   4.154084e+02
  -5.409492e+02   1.958436e+02
  -4.187872e+02  -9.224887e+01
  -8.439703e+01  -2.956583e+02
   1.705646e+02  -2.221218e+02
   1.539670e+02  -1.270223e+01
  -1.126392e+02   1.197785e+02
  -2.189735e+02   5.277964e+00
  -7.707689e+01  -1.640595e+02
   1.102070e+02  -1.115605e+02
   1.788368e+02   6.907600e+01
  -4.558087e+01   1.734743e+02
  -2.089802e+02   3.110817e+01
  -1.752911e+02  -2.492740e+02
   1.970432e+01  -3.689896e+02
   1.985259e+02  -2.315140e+02
   3.451078e+02   1.538878e+01
   2.769290e+02   2.650162e+02
   1.080193e+02   2.487481e+02
  -1.367465e+02   1.312303e+02
  -1.967118e+02  -3.951042e+00
  -1.060573e+02  -2.271555e+01
   4.577006e+01   2.988234e+01
   4.613011e+01   1.584968e+02
  -8.821146e+01   7.477834e+01
  -1.144936e+02  -4.852461e+01
  -4.986581e+01  -1.169358e+02
   6.448437e+01  -3.672916e+01
   7.578946e+01   4.359082e+01
  -8.462922e+01   1.027295e+02
  -2.568084e+02   5.039219e+01
  -2.381082e+02  -1.632132e+02
  -6.443736e+01  -2.469149e+02
   1.752497e+02  -2.579204e+02
   2.888630e+02  -1.067007e+02
   1.541652e+02   4.617097e+01
  -2.399351e+00   9.697143e+01
  -1.046391e+02  -4.779088e+01
   2.934619e+01  -9.789571e+01
   1.797099e+02  -4.273662e+01
   2.106658e+02   5.172233e+01
   6.483591e+01   2.043775e+02
  -8.720893e+01   1.260772e+02
  -1.439368e+02   3.894280e+01
  -5.082247e+01  -7.775957e+01
   9.041379e+01  -1.999804e-01
   5.526629e+01   1.521140e+02
  -7.662799e+01   1.607037e+02
  -1.967417e+02   1.830073e+01
  -1.559677e+02  -1.395028e+02
  -8.263146e+01  -2.368911e+02
   1.248899e+02  -1.484626e+02
   1.859437e+02   1.310080e+01
   1.021163e+02   9.617073e+01
  -3.568573e+01   9.709566e+01
  -5.554474e+01   2.417441e+01
   1.420321e+01  -4.249662e+01
   4.204051e+01  -2.043177e+01
   3.084907e+01   2.782699e+01
  -5.550132e+01   1.754790e+01
  -8.219390e+01  -9.193053e+01
   2.428122e+01  -1.483583e+02
   1.326830e+02  -1.102885e+02
   2.115892e+02  -3.247980e+01
   2.030313e+02   1.486093e+02
   4.007484e+01   2.468554e+02
  -1.093139e+02   1.840779e+02
  -1.537543e+02   6.302994e+01
  -7.237199e+01  -8.293774e+01
  -2.516460e+01  -5.626883e+01
  -3.127532e+01   9.274563e+00
  -5.368810e+01   1.234927e+01
  -1.764212e+01  -5.816933e+01
   6.666596e+01  -7.849462e+01
   1.213227e+02  -5.264013e+01
   6.375869e+01   3.383920e+01
  -2.029760e+01   1.663508e+02
  -1.308613e+02   1.319822e+02
  -1.840373e+02  -1.963583e+01
  -1.049953e+02  -2.046518e+02
   8.134889e+01  -2.412152e+02
   2.268207e+02  -1.449324e+02
   2.062497e+02   9.441731e+01
   1.327040e+02   1.509666e+02
   1.818638e-01   1.372615e+02
  -8.026959e+01   6.099384e+01
  -7.049182e+01   4.859269e+01
  -6.970212e+01   1.191716e+02
  -6.171621e+01   8.563227e+01
  -7.857418e+01   8.716949e+00
  -1.079001e+02  -1.452032e+02
  -5.828551e+01  -2.342150e+02
   9.950957e+01  -1.493689e+02
   1.525642e+02  -4.716559e+00
   1.174333e+02   1.483123e+02
  -1.050256e+01   1.428611e+02
  -6.586046e+01   5.794504e+01
  -6.007236e+01   4.480624e+00
  -1.003041e+01  -5.984064e+01
   1.636127e+01  -2.531144e+01
  -7.917616e+00  -4.958539e+01
  -5.714092e+01  -7.151744e+01
  -4.665163e+00  -1.684758e+01
   4.444987e+01  -3.664869e+01
   1.382715e+02  -3.825017e+01
   1.111352e+02   5.105787e+00
   2.411876e+01   8.459952e+01
  -9.394601e+01   7.443579e+01
  -1.364345e+02   4.398979e+01
  -5.659215e+01  -6.017724e+01
   8.448121e+01  -1.053396e+02
   7.360638e+01   2.891278e+00
   2.087159e+01   4.341148e+01
  -6.360573e+01   6.599342e+01
  -4.429859e+01  -3.737910e+01
  -2.168633e+01  -5.716002e+01
   3.510852e+01  -5.044744e+01
  -3.762994e+01   1.747273e+01
  -2.316346e+01   3.312129e+01
  -2.268017e+01  -5.481337e+01
  -9.441493e+00  -1.206599e+02
   6.337330e+01  -1.218475e+02
   6.415327e+01  -5.296004e+01
   1.242307e+02   5.779354e+01
   2.378706e+01   9.854900e+01
  -3.297160e+01   1.000646e+02
  -8.761865e+01  -5.066891e+01
   3.069592e+01  -2.979538e+01
   7.245838e+01   1.490533e+01
   5.996505e+01   8.576571e+01
  -7.347935e+01   1.079966e+02
  -1.472537e+02   8.642656e+01
  -1.007532e+02  -3.127406e+01
  -9.893483e+00  -3.918916e+01
   5.297488e+01  -3.083721e+01
   2.387024e+01  -6.143356e+00
  -4.686972e+01   5.908737e+00
  -7.485020e+01  -4.838782e+01
  -3.187344e+01  -1.384704e+02
   1.220467e+02  -1.210500e+02
   1.695109e+02  -3.839810e+01
   7.273584e+01   8.588873e+01
  -2.128841e+01   1.769765e+02
  -5.307701e+01   1.219014e+02
  -6.354003e+01  -3.533599e+01
  -9.156024e+01  -1.212732e+02
   6.737423e+00  -6.914042e+01
   3.878573e+01  -4.320188e+01
   7.618618e+01   3.919259e+01
   4.466515e+01   2.848367e+01
   3.489186e+00  -2.186932e+01
   6.317902e+00  -1.843730e+01
   2.991105e+01   1.439635e+02
   1.008658e+01   8.657362e+01
  -4.641611e+01   5.497527e+01
  -9.867028e+01  -3.147344e+01
  -1.146637e+02  -9.472735e+01
  -1.115315e+01  -6.655270e+01
   7.635052e+01  -4.380939e+00
   4.049222e+01  -1.363320e+01
   2.371992e+01  -2.283399e+01
   1.297177e+00  -1.305229e+01
  -5.111727e+01   3.479916e+01
   8.729441e+00   1.192703e+01
  -1.888875e+01  -2.842070e-01
  -7.673751e+01  -4.471642e+01
  -7.370300e+01  -2.691973e+01
   4.690431e+00  -5.481465e+01
   1.457381e+02  -8.991395e+01
   1.716220e+02  -5.645008e+01
   1.421292e+02   3.933672e+01
   2.305957e+01   1.631079e+02
  -7.819521e+01   1.703515e+02
  -9.997300e+01   5.426864e+01
  -1.709969e+01  -2.953662e+01
  -5.020750e+01  -5.478127e+01
  -3.039975e+01  -8.808805e+00
  -6.844675e+01  -3.495107e+00
  -4.428951e+01  -2.051561e+01
  -3.463432e+01  -1.153887e+02
   6.502500e+01  -5.022092e+01
   1.200685e+02  -7.798323e+00
   3.446076e+01   1.013378e+02
  -1.240651e+01   1.149229e+02
  -7.349906e+01  -1.048790e+01
  -8.265615e+01  -8.746357e+01
   2.067700e+01  -9.751139e+01
   7.819743e+01  -4.565685e+01
   7.638227e+01  -1.083628e+01
   3.850642e+01   3.160651e+01
  -3.115721e+00   1.518720e+01
  -7.248109e+00   2.788392e+01
   4.201356e+01   1.510633e+01
   3.713653e+01   3.203505e+01
  -1.662190e+01   4.907591e+01
  -9.481569e+01   5.365549e+01
  -1.280709e+02  -9.066739e+00
  -8.138534e+01  -7.150562e+00
   5.231897e+01  -6.154819e+01
   9.593992e+01  -1.549521e+01
   3.244575e+01   2.916777e+01
  -3.136217e+01   1.061479e+02
  -5.937087e+01   5.695972e+01
  -6.803032e+01   5.890738e+00
   6.287393e+00  -6.199877e+01
   1.702080e+00  -3.560752e+01
   2.063304e+01   1.968135e+01
   5.916364e+01   2.608558e+01
   3.939017e+01   3.934648e+01
   5.637374e+01  -1.817579e+01
  -1.939242e+01   2.549207e+01
  -2.278401e+01   2.673846e+01
   1.343291e+00   4.790651e+01
  -4.592561e+01   4.271611e+01
  -6.605176e+01  -3.672875e+01
  -6.507951e+00  -4.765835e+01
   3.212953e+01  -2.641199e+01
   5.218645e+01   6.380913e+01
  -2.698977e+00   8.034072e+01
  -5.833806e+01   2.225010e+01
  -9.861243e+01  -2.566721e+01
  -4.311144e+01  -3.162814e+01
   6.081271e+01  -4.398169e+01
   5.098958e+01  -3.749304e+01
   6.686234e+00   6.781490e+00
  -4.899068e+01   1.216551e+01
  -6.351359e+01  -1.214190e+01
  -1.239823e+01  -5.157937e+01
   1.015335e+02  -1.330582e+01
