
 $NMID
 id='ANONYMOUS ', fmtdat='(2E16.6)'
 volume=1.0
 tramp=1.0
 $END
  -2.990571e+03  -4.514233e+02
  -1.980259e+03  -1.176347e+03
  -1.495851e+02  -1.854259e+03
   9.790861e+02  -1.042144e+03
   7.875895e+02  -3.178658e+02
   9.387991e+01   1.956882e+02
  -3.990809e+02   7.328112e+01
  -1.103198e+02  -4.340035e+02
   3.992451e+02  -5.812640e+02
   7.382522e+02  -1.505064e+01
   4.161117e+02   5.824512e+02
   1.830592e+01   6.629373e+02
  -3.023073e+02   1.865119e+02
  -1.784158e+02  -3.747998e+02
   2.880452e+01  -3.844662e+02
   4.433012e+02  -5.160132e+01
   1.610602e+02   3.593821e+02
  -8.430301e+01   4.717579e+02
  -2.337270e+02   7.841502e+01
  -4.556531e+02  -2.935426e+02
  -1.878792e+02  -3.437847e+02
   1.226758e+02  -1.937629e+02
   1.801673e+02   4.382633e+01
  -2.361039e+02  -1.219383e+02
  -2.286132e+02  -1.024287e+02
  -5.211030e+01  -3.080632e+02
   4.027527e+02  -5.942486e+01
   7.133183e+02   2.624195e+02
   2.716438e+02   3.839916e+02
  -1.620170e+02   1.253801e+02
  -4.436840e+02  -1.204640e+01
  -2.471843e+02  -2.521942e+02
   1.527346e+02  -3.048959e+02
   4.205728e+02  -2.243889e+02
   3.072187e+02   1.474042e+02
   9.476268e+01   2.934614e+02
   3.709227e+01   1.606210e+02
  -2.010738e+01  -1.005371e+02
   9.499544e+01  -2.201366e+02
   2.399254e+02   2.898811e+01
   1.067244e+02   4.943000e+02
  -1.344513e+02   4.137093e+02
  -3.316491e+02   1.862039e+01
  -1.934798e+02  -2.941174e+02
   1.131688e+02  -1.630160e+02
   2.737613e+02   2.076035e+02
  -1.097593e+01   3.805978e+02
  -3.744424e+02   4.685415e+01
  -4.363627e+02  -3.006160e+02
  -1.878101e+02  -4.372937e+02
   2.059983e+02  -2.557097e+02
   4.784519e+02  -1.885188e+00
   3.383852e+02   1.873265e+02
   3.990791e+01   2.436459e+02
  -2.388433e+02   9.825677e+01
  -2.037601e+02  -3.445083e-01
  -6.209082e+01  -4.915234e+01
   2.276513e+01   3.833096e+01
  -5.507684e+01   6.234771e+01
  -2.088587e+02  -3.686531e+01
  -1.305009e+02  -1.991426e+02
   1.117421e+02  -2.332880e+02
   3.223959e+02  -9.317337e+01
   1.945158e+02   6.911670e+01
  -5.332433e+01   3.095022e+02
  -3.118776e+02   2.999930e+02
  -3.084754e+02   1.249081e+02
  -1.636428e+02  -1.683222e+02
  -6.027888e+01  -3.230100e+02
  -4.925968e+00  -2.906467e+02
  -1.234423e+01  -1.200171e+02
   4.202220e+01  -7.617897e+01
   1.394912e+02  -8.300919e+01
   2.187232e+02  -5.727247e+01
   1.786147e+02   8.556191e+01
   6.278943e+01   2.457455e+02
  -1.154524e+02   2.003558e+02
  -2.090712e+02  -3.928982e+00
  -7.326152e+01  -2.136669e+02
   7.085158e+01  -1.927928e+02
   2.674555e+02   1.196066e+01
   2.290364e+02   2.001076e+02
   7.863167e+01   3.173640e+02
  -1.619262e+02   2.027922e+02
  -1.273280e+02   9.912174e+01
  -1.254700e+02   5.970628e+01
  -1.158186e+02   7.211688e+01
  -2.556914e+02   8.083160e+01
  -3.994433e+02  -8.894561e+01
  -2.737656e+02  -2.587908e+02
   4.975986e+01  -3.441787e+02
   3.795163e+02  -3.659301e+02
   4.125092e+02  -1.860659e+02
   2.218302e+02   7.661492e+01
   5.824552e+01   2.053705e+02
  -8.136566e+01   2.034038e+02
   3.540087e+01   1.033898e+01
   1.264914e+02  -3.620564e+01
   1.315727e+02   3.102177e+01
  -3.554857e+01   1.577194e+02
  -1.677720e+02   1.140808e+02
  -1.265285e+02  -3.415722e+01
   1.909849e+01  -1.300037e+02
   1.654267e+02  -3.454363e+01
   1.352739e+02   1.429351e+02
  -5.966538e+01   3.049415e+02
  -2.433728e+02   1.576561e+02
  -2.813722e+02  -7.235499e+01
  -2.482284e+02  -2.289650e+02
  -4.976667e+01  -2.919610e+02
   9.548616e+01  -7.682271e+01
   1.044064e+02  -3.927694e+01
   4.032864e+01   1.068830e+01
  -5.378301e+01  -9.355083e+01
   2.096168e+01  -1.063786e+02
   1.204491e+02  -3.945005e+01
   1.281884e+02   8.301879e+01
   1.974513e+01   6.260011e+01
  -8.643912e+01  -3.172764e+01
  -8.116741e+01  -1.349339e+02
   1.467614e+02  -1.288629e+02
   2.780734e+02   5.456424e+01
   2.239333e+02   1.879133e+02
   7.565388e+00   2.598046e+02
  -1.874507e+02   1.685847e+02
  -2.568841e+02   6.396438e+01
  -1.038276e+02  -6.828293e+01
   4.333330e+01  -2.186898e+01
   2.713933e+01  -3.077616e+01
  -6.362141e+01   4.460206e+01
  -1.628095e+02   3.879862e+01
  -2.019752e+02  -1.235476e+02
  -2.794798e+01  -1.462716e+02
   8.880574e+01  -7.313273e+01
   1.157064e+02  -2.580568e+01
   2.984801e+01   2.024096e+01
  -4.965681e+01  -5.202089e+01
   2.357021e+01  -1.118349e+02
   1.245450e+02  -4.304594e+01
   1.854933e+02   2.489406e+01
   1.178112e+02   1.437057e+02
   3.109253e+01   1.885316e+02
  -1.437079e+02   1.051525e+02
  -1.419409e+02   1.074986e+01
  -5.436993e+01  -9.480726e+01
   4.837224e+01  -7.335073e+01
   6.447815e+01   4.644899e+00
   1.153855e+01   2.189306e+01
  -2.894400e+01  -5.331653e+01
   3.241718e+00  -5.248330e+01
   9.006799e+01   1.462624e+00
   1.155109e+02   3.511798e+01
   1.311607e+01   1.079914e+02
  -1.043550e+02   1.185097e+02
  -2.277369e+02  -5.576166e+01
  -1.431542e+02  -1.448731e+02
  -1.216934e+01  -1.737886e+02
   1.215539e+02  -1.680118e+02
   1.077168e+02  -4.451613e+00
   9.076976e+01   8.158669e+01
   4.428237e+01   1.574104e+01
   4.220883e+01  -5.494685e+01
   8.433006e+01  -2.513113e+01
   4.537743e+01   6.213417e+01
  -6.099732e+01   1.606989e+02
  -1.088253e+02   8.475825e+01
  -8.651782e+01   6.286769e+01
   1.688708e+01  -1.043502e+02
   9.401101e+01  -6.301102e+01
   1.437337e+02   4.663430e+01
   3.983903e+01   1.767304e+02
  -1.320226e+02   1.770713e+02
  -2.210217e+02   5.127874e+01
  -2.083530e+02  -6.966118e+01
  -5.189470e+01  -1.842379e+02
   5.359301e+01  -1.162049e+02
   7.171346e+01  -4.313086e+01
   6.861723e+01  -5.918496e+01
   3.028355e+01  -8.795759e+01
   6.518221e+01  -6.718334e+01
   1.076105e+02   3.927365e+00
   1.142000e+02   1.361835e+02
   1.499285e+01   1.815894e+02
  -7.290161e+01   1.510711e+02
  -1.798570e+02   5.491301e+00
  -1.020784e+02  -1.398424e+02
   4.924028e+01  -1.172683e+02
   2.920725e+01  -8.276115e+01
   1.208463e+01   3.536300e+01
  -1.547885e+01   2.765746e+01
  -2.022662e+01   6.099959e+01
   1.897270e+01  -1.342101e+01
   6.323092e+01  -2.126652e+01
   5.980361e+01   3.164359e+01
  -6.812510e+01   3.944562e+01
  -1.762718e+02   2.339595e+01
  -1.087193e+02  -6.388815e+01
   4.402351e+01  -8.444337e+01
   1.414429e+02  -1.295519e+01
   1.531202e+02   3.534318e+01
   1.371379e+01   3.836376e+01
  -8.270128e+01   6.125950e+01
  -1.178901e+02  -5.255574e+00
  -2.888762e+01  -6.988464e+01
   3.467837e+01  -6.857737e+01
   7.336165e+01  -1.493773e+01
   5.109898e+01   5.460943e+01
   6.207278e+00   4.481945e+01
   1.031592e+01   1.086397e+01
   8.992344e+01   6.743008e+00
   9.092065e+01   3.403520e+01
  -4.284000e+01   1.543004e+02
  -8.791836e+01   1.002170e+02
  -1.620601e+02   4.037747e+01
  -1.345337e+02  -7.439668e+01
  -1.061537e+01  -8.927744e+01
   9.791096e+01  -8.180807e+01
   7.775342e+01  -4.976539e+00
  -2.973971e+01  -5.522045e+00
  -9.302749e+01  -4.078937e+01
  -7.740774e+01  -1.098414e+01
   6.134962e+01  -9.495425e+01
   1.572536e+02  -6.156918e+01
   1.270956e+02   3.408648e+01
   4.650753e+01   7.221946e+01
  -8.709091e+01   2.929084e+01
  -3.320919e+01  -1.436650e+00
   6.427656e+01  -2.616159e+01
   3.354156e+01   1.778131e+01
   2.960552e+01   6.713917e+01
  -6.454142e+01   9.100971e+01
  -1.176303e+02   5.524439e+01
  -1.225396e+02  -4.396829e+01
   1.534626e+01  -1.646930e+02
   7.411261e+01  -1.471341e+02
   6.424191e+01   2.035174e+01
   4.080245e+01   6.513321e+01
  -3.078633e+01   8.338103e+01
  -2.612074e+01   1.309693e+01
   1.956124e+00  -3.829056e+01
   1.478679e+01   2.866434e-01
  -6.881596e+00   5.419301e+01
  -1.400502e+01   4.946246e+00
  -8.574655e+01  -8.485506e+01
  -7.905130e+01  -6.979102e+01
   4.118156e+01  -5.221058e+01
   1.523837e+02   1.963299e+01
   1.198274e+02   9.872863e+01
   3.658838e+01   3.241276e+01
  -4.931175e+01   2.879805e+01
  -9.265631e+01   1.198281e+01
  -4.271405e+01   1.073518e+01
   3.366921e+01  -2.801102e+01
   2.519225e+01  -5.121124e+01
  -4.606758e+01   1.044302e+01
  -3.830074e+01  -1.996373e+01
   8.545335e+01   2.023282e+01
   1.048780e+02   8.834237e+00
   7.228145e+01   6.566174e+01
  -6.676426e+01   7.601617e+01
  -1.673607e+02   3.701289e+01
  -1.363735e+02  -4.314898e+01
  -4.080390e+01  -1.400369e+02
   5.835346e+01  -1.242849e+02
   1.175364e+02  -4.395851e+01
   7.095158e+01   2.435826e+01
  -3.451288e+01   2.198610e+01
  -1.238053e+00   1.617832e+00
   3.091002e+01  -3.200516e+01
   4.153212e+01   3.509814e+01
  -1.571520e+01   1.243308e+02
  -2.379925e+01   1.372298e+02
  -8.852432e+01  -6.480108e+00
  -9.327821e+01  -5.020797e+01
  -4.811409e+01  -1.007626e+02
   1.827263e+01  -6.279382e+01
   1.287922e+02   9.306672e+00
   1.828491e+01   2.092125e+01
  -8.826474e+01   3.708051e+01
  -1.166519e+02  -1.893881e+01
  -1.571500e+01  -3.230746e+01
   2.157023e+01  -1.126036e+01
   5.712580e+01  -6.955335e+00
  -8.053771e-01  -2.095313e+01
  -6.448865e+01  -4.282336e+01
  -3.892726e+01  -1.410145e+01
   6.311433e+01  -8.074163e+01
   1.155198e+02  -4.590596e+01
   8.073975e+01  -2.642485e+00
   2.713813e+00   8.351087e+01
  -6.332029e+01   1.014326e+02
  -1.411106e+01   2.306573e+01
  -1.589286e+01  -6.367753e+01
  -2.085656e+01  -5.747731e+01
   2.176722e+01   5.920674e+01
  -2.244855e+01   6.214743e+01
  -4.984324e+01   4.797806e+01
  -2.652807e+01   9.023950e+00
  -2.770602e+01  -3.233203e+01
  -2.118994e+01   2.525101e+00
  -1.075154e+01   3.181078e+01
  -1.672318e+01   3.568472e+01
   2.207514e+01  -2.445843e+01
  -9.662421e+00  -4.029380e+01
   3.709155e+01  -1.789835e+01
  -5.006392e+00   2.875429e+01
   2.985505e+01   3.625126e+01
   1.188969e+01  -4.059863e-01
  -4.076348e+01  -1.956563e+01
   6.535520e+00  -4.264820e+01
   1.899258e+01  -3.514390e+01
   1.243890e+02   3.433655e+01
   2.775561e+01   1.049052e+02
  -2.065818e+01   5.722848e+01
  -5.914393e+01   1.729012e+01
  -3.069073e+01  -4.708465e+01
   4.486156e+01  -4.351550e+01
   4.712403e+01  -1.127491e+01
  -5.323234e+01  -1.776347e+00
  -8.073022e+01   3.847261e+01
