
 $NMID
 id='ANONYMOUS ', fmtdat='(2E16.6)'
 volume=1.0
 tramp=1.0
 $END
   4.466782e+03   1.676092e+02
   2.593803e+03   2.822585e+03
  -9.409937e+02   2.654463e+03
  -2.127385e+03   9.796737e+02
  -6.646270e+02  -5.074955e+02
   6.486036e+02  -5.036121e+02
   8.390846e+02   6.112091e+02
  -2.275795e+02   1.118897e+03
  -9.012680e+02   7.917019e+02
  -9.407312e+02  -1.045258e+02
  -3.989847e+02  -9.407043e+02
   2.847421e+02  -8.117419e+02
   6.840917e+02  -7.690728e+01
   2.790933e+02   7.227587e+02
  -3.688827e+02   8.176969e+02
  -7.618606e+02  -5.909416e+01
  -2.496437e+02  -8.630917e+02
   4.281795e+02  -5.273017e+02
   5.763377e+02  -1.390585e+02
   3.849574e+02   3.721908e+02
  -8.985194e+01   3.118067e+02
  -2.072559e+02   2.340285e+02
  -1.680956e+02  -1.366336e+02
   2.607634e+02   1.523252e+01
   2.792933e+02   2.146608e+02
   8.618760e+01   3.907872e+02
  -3.493807e+02   2.357091e+02
  -7.441436e+02  -1.536652e+02
  -4.028463e+02  -5.367455e+02
   5.197221e+02  -5.369156e+02
   8.968699e+02   9.700810e+01
   2.993508e+02   5.385529e+02
  -4.042717e+02   5.324796e+02
  -5.463972e+02   1.969736e+02
  -4.145101e+02  -2.240314e+02
  -9.695928e+01  -5.220199e+02
   2.539073e+02  -2.657283e+02
   2.351893e+02   2.838659e+02
  -1.955550e+02   4.627843e+02
  -4.712446e+02  -8.320777e+01
  -1.752018e+02  -7.338077e+02
   3.492959e+02  -6.998178e+02
   6.005808e+02   1.163702e+01
   2.280112e+02   6.712194e+02
  -3.198911e+02   3.626931e+02
  -3.467901e+02  -2.772042e+02
   7.260161e+01  -5.813829e+02
   5.429925e+02  -1.491196e+02
   5.594841e+02   4.277014e+02
   9.394924e+01   6.048246e+02
  -4.098756e+02   4.096205e+02
  -6.110125e+02  -7.970570e+01
  -3.515575e+02  -4.162746e+02
   1.851316e+02  -3.929913e+02
   4.188766e+02  -4.943609e+01
   2.310054e+02   2.486808e+02
  -1.295373e+02   1.159305e+02
  -1.540872e+02  -1.214684e+02
   1.512735e+02  -1.982016e+02
   3.760465e+02   8.047508e+01
   9.926325e+01   2.810925e+02
  -2.047487e+02   2.290556e+02
  -2.900551e+02   9.823519e+01
  -1.618686e+02  -2.449659e+01
   3.959816e+01  -1.868129e+02
   1.379535e+02  -3.252497e+02
   3.103231e+02  -2.558643e+02
   3.319223e+02   1.314677e+02
   7.435508e+01   4.830254e+02
  -1.403883e+02   4.371177e+02
  -1.796411e+02   1.176644e+02
  -3.665896e+01  -7.425721e+01
  -2.517415e+01   7.972091e+01
  -2.174808e+02   1.550786e+02
  -3.174663e+02   5.875579e+00
  -1.465503e+02  -2.704910e+02
   7.581161e+01  -3.079927e+02
   2.121672e+02   1.050807e+01
   1.922987e+02   2.580376e+02
  -5.025148e+01   3.255260e+02
  -2.676839e+02   1.078268e+02
  -3.584816e+02  -1.989953e+02
  -2.297585e+02  -4.127577e+02
   1.344005e+02  -3.286304e+02
   2.780078e+02  -9.495592e+01
   1.850939e+02   3.600000e+01
   6.163648e+01  -1.242076e+01
   1.531357e+02  -7.253093e+01
   3.366520e+02   9.423094e+01
   3.130612e+02   3.010694e+02
  -4.011597e+01   3.745087e+02
  -3.260046e+02   3.650617e+02
  -4.786839e+02   1.888161e+02
  -3.425609e+02  -9.275814e+01
  -4.073334e+01  -2.673426e+02
   1.410153e+02  -2.077857e+02
   9.004454e+01  -2.042132e+01
  -1.133072e+02   9.940879e+01
  -1.960132e+02   1.439542e+01
  -6.981449e+01  -1.907005e+02
   1.755722e+02  -2.133236e+02
   1.731855e+02   8.719700e+00
   2.554471e+01   1.543542e+02
  -1.676311e+02   6.843763e+01
  -1.449239e+02  -2.169276e+02
   6.771625e+01  -3.127757e+02
   1.664881e+02  -1.564196e+02
   3.011790e+02   4.400992e+01
   2.844894e+02   2.132138e+02
   1.258386e+02   2.741339e+02
  -1.001753e+02   1.530406e+02
  -1.653403e+02   4.909680e+01
  -9.169272e+01   7.550972e+00
   1.024858e+02   7.027154e+01
   7.200043e+01   1.682312e+02
  -1.423684e+02   1.065522e+02
  -2.210925e+02  -2.041957e+01
  -1.335335e+02  -5.783859e+01
   5.817511e+01  -2.737755e+01
   4.811312e+01   5.209197e+01
  -1.215645e+02   7.142216e+01
  -2.744963e+02  -4.175587e+01
  -2.689807e+02  -1.364751e+02
  -5.387556e+01  -2.356004e+02
   2.129708e+02  -2.779746e+02
   2.926931e+02  -9.642115e+01
   1.595735e+02   5.831594e+01
  -9.634439e+00   1.423996e+02
  -7.127737e+01   6.393221e+01
   3.393894e+01  -6.285189e+01
   1.676073e+02  -3.589411e+01
   1.827292e+02   1.301697e+02
   2.453364e+00   1.932249e+02
  -1.236354e+02   1.497850e+02
  -1.561695e+02   2.106565e+01
  -7.169399e+01  -6.718465e+01
   1.871387e+01   5.455516e+00
   1.693449e+01   1.031229e+02
  -7.886252e+01   9.036488e+01
  -1.580967e+02   1.935128e+01
  -1.955192e+02  -1.256045e+02
  -1.011724e+01  -2.274461e+02
   1.498421e+02  -1.464402e+02
   1.942258e+02  -4.177126e+00
   8.757073e+01   1.051834e+02
  -3.168198e+01   1.137311e+02
  -1.212357e+02  -9.316661e+00
  -5.088539e+00   2.386435e+01
   2.731211e+01  -3.727942e+01
  -4.709380e+01   6.113953e+00
  -6.390252e+01  -2.438905e+01
  -1.042393e+02  -9.631732e+01
   2.000847e+01  -1.406247e+02
   1.744861e+02  -1.171293e+02
   2.311923e+02   1.147394e+01
   1.891819e+02   1.773411e+02
   1.601783e+01   2.905110e+02
  -1.568212e+02   1.894145e+02
  -1.330445e+02   5.701426e+01
  -1.027536e+02  -2.128580e+01
  -7.396916e+01  -5.143165e+01
  -1.188734e+02   1.718547e+01
  -6.306528e+01  -2.736699e+00
  -7.240925e+01  -1.005930e+02
   3.845746e+01  -1.253928e+02
   1.135556e+02  -9.771466e+01
   9.047035e+01   2.510666e+01
   1.934407e+01   8.879216e+01
  -8.083876e+01   8.622384e+01
  -1.797190e+02  -4.984973e+01
  -8.199746e+01  -1.882464e+02
   7.105074e+01  -2.183605e+02
   2.989371e+02  -9.098618e+01
   2.422720e+02   1.017273e+02
   9.686287e+01   1.779724e+02
  -4.650862e+01   1.306190e+02
  -1.286740e+02   8.617311e+01
  -5.411239e+01   6.659241e+01
  -9.360592e+01   7.822065e+01
  -1.058545e+02   9.019075e+01
  -5.667046e+01  -5.699668e+01
  -1.337204e+02  -1.477226e+02
  -4.710629e+01  -2.489324e+02
   4.807427e+01  -1.952064e+02
   2.214445e+02  -4.116296e+01
   1.354266e+02   1.325358e+02
   6.486172e+01   1.663640e+02
  -7.198497e+01   7.924922e+01
  -1.691372e+01  -1.082686e+01
  -4.997214e+00  -3.476802e+01
   2.600053e-02  -2.140861e+01
  -5.384385e+01  -1.650683e+00
  -6.900977e+01  -3.834210e+01
  -3.994065e+01  -8.074910e+00
   8.717478e+01  -4.601062e+00
   1.045997e+02  -1.492661e+01
   1.485331e+02   4.655406e+01
   3.016841e+01   6.082917e+01
  -6.485934e+01   4.520960e+01
  -1.411591e+02  -8.738935e-01
  -2.749380e+01  -3.406934e+01
   5.776342e+01   2.929459e+01
   7.392255e+01   1.143735e+01
  -8.206499e+00   6.616643e+01
  -3.062667e+01   5.260517e+01
  -8.976825e+01  -2.229391e+01
  -6.688853e+00  -1.956813e+01
  -8.967142e+01  -2.484981e+01
  -7.987643e+01  -1.465999e+01
  -5.478008e+01  -2.007558e+00
  -2.721482e+01  -3.775844e+01
   5.217316e+01  -8.444405e+01
   1.226292e+02  -1.445980e+02
   1.298609e+02  -4.283921e+01
   1.037079e+02   5.008988e+01
  -1.196468e+00   1.063860e+02
  -5.001716e+01   3.225898e+01
  -3.477648e+01  -1.095526e+01
   9.071680e+01  -3.186096e+01
   1.189724e+02   6.017261e+01
   3.730524e+01   1.329522e+02
  -9.215103e+01   1.110258e+02
  -1.554754e+02   6.079895e+01
  -1.543446e+02  -6.555278e+01
  -5.250307e+01  -1.360975e+02
   4.655585e+01  -9.110884e+01
   5.883586e+01  -1.072304e+01
  -5.838329e+01   2.384710e+01
  -6.457646e+01  -1.887078e+01
  -1.709963e+01  -1.314738e+02
   1.168817e+02  -1.200250e+02
   1.432109e+02  -5.394377e+01
   7.599065e+01   8.005476e+01
   2.344709e+01   1.731544e+02
  -3.716695e+01   1.160867e+02
  -7.663570e+01   5.350904e+00
  -4.519368e+01  -7.405993e+01
  -2.228516e+01  -8.747864e+01
   6.590025e+01  -6.961328e+00
   5.173460e+01   1.495224e+01
   4.871720e+01   3.902982e+00
   3.268300e+00  -2.866725e+01
   1.816670e+01   4.231936e+01
   3.393949e+01   1.286905e+02
   5.700411e+01   1.285698e+02
  -3.929813e+01   6.306893e+00
  -1.475448e+02  -2.793523e+01
  -9.321484e+01  -1.034575e+02
  -1.102863e+01  -4.071388e+01
   5.848103e+01   1.839053e+01
   8.410261e+01   1.333858e+01
  -3.471440e+01   3.989923e+01
  -8.849880e+01   1.482345e+01
  -8.252346e+01  -2.206993e+01
   2.283804e+01  -5.342669e+01
   2.501117e+01  -3.375113e+01
  -3.912889e+01   1.833517e+00
  -4.747327e+01  -2.795872e+01
  -2.630399e+01  -7.749739e+01
   1.085588e+02  -9.363403e+01
   1.654834e+02  -2.825308e+01
   1.284403e+02   5.708117e+01
   9.410652e+00   1.534907e+02
  -9.956278e+01   1.461356e+02
  -9.800728e+01   5.259632e+01
  -1.120332e+02  -1.981224e+00
  -9.880873e+00  -7.351027e+01
  -6.161938e+00  -7.343852e+00
   1.428603e+01   2.131031e+01
  -4.247646e+01  -3.810595e+01
  -2.125751e+01  -3.197588e+01
   2.269078e+01  -6.998688e+01
   7.052874e+01  -1.156834e+00
   2.500101e+01   1.129302e+02
  -2.222188e+01   7.046604e+01
  -1.221649e+02   5.369824e+00
  -7.277275e+01  -8.621879e+01
   1.596055e+01  -1.005132e+02
   1.015841e+02  -3.655990e+01
   1.005779e+02   7.255679e+00
   4.042228e+01   1.495653e+01
  -3.416646e+01   3.912726e+01
  -3.140588e+01   2.296530e+01
   3.595165e+01  -1.185135e+01
   7.461216e+01  -9.981805e+00
   1.810229e+01   3.261438e+01
  -5.147574e+01   7.063275e+01
  -6.748643e+01   7.599373e+01
  -1.806510e+01  -1.614015e+01
   4.175619e+01  -8.298523e+01
   2.374831e+01  -7.069508e+01
   7.411836e+00   5.450366e+01
  -1.648349e+01   1.120558e+02
  -6.048651e+01   3.573843e+01
  -5.708364e+01  -3.026780e+01
  -6.933466e+01  -7.018337e+01
  -1.599903e+01  -4.761795e+01
   4.173808e+01   1.210958e+01
   4.815201e+01   3.069139e+01
   1.441874e+01  -4.868754e+00
  -1.265555e+01  -6.262197e+00
  -1.459949e+01   5.523408e+00
  -2.446557e+01   8.109992e+00
  -1.384639e+01   1.313298e+01
   4.018136e+00  -1.408642e+01
   2.126799e+00  -2.933118e+00
   2.082499e+01  -1.676209e+01
  -4.339363e-01   7.758168e+00
   3.761505e+01   5.385469e+01
   3.071029e+01   5.803155e+01
  -3.737571e+01   6.313464e+01
  -7.370890e+01  -1.722676e+01
  -6.095559e+01   2.101569e+01
   2.773525e+01  -4.763053e+01
   5.452515e+01  -3.432315e+01
   3.597736e+01  -1.079093e+01
  -2.456732e+01   1.869009e+00
  -2.376267e+01  -8.540195e+00
   4.912848e+01  -4.780456e+01
   6.899310e+01  -3.083569e+01
