
 $NMID
 id='ANONYMOUS ', fmtdat='(2E16.6)'
 volume=1.0
 tramp=1.0
 $END
  -4.463369e+03  -7.373344e+00
  -2.561504e+03  -2.842724e+03
   7.540024e+02  -2.863487e+03
   2.210206e+03  -1.010592e+03
   7.426252e+02   9.381296e+02
  -7.524203e+02   6.077406e+02
  -9.934723e+02  -5.528271e+02
   1.788765e+02  -1.198918e+03
   8.413522e+02  -8.106006e+02
   9.159931e+02  -4.331462e+01
   4.277217e+02   9.456229e+02
  -3.060335e+02   1.033152e+03
  -6.787027e+02   1.358379e+02
  -3.482396e+02  -8.940034e+02
   9.927007e+01  -6.387485e+02
   5.089032e+02   1.824858e+02
   1.953224e+02   8.221786e+02
  -4.153311e+02   6.553937e+02
  -3.831686e+02   4.331289e+01
  -3.726674e+02  -3.098000e+02
   1.233502e+01  -3.893796e+02
   1.755165e+02  -3.436000e+02
   2.231345e+02   9.738267e+00
  -1.606373e+02   4.987836e+01
  -4.526232e+02  -1.794231e+02
  -1.657176e+02  -5.230201e+02
   3.467810e+02  -5.626353e+02
   7.929056e+02   1.487850e+02
   5.189468e+02   5.432563e+02
  -3.667742e+02   4.962870e+02
  -7.508229e+02  -1.029801e+02
  -3.168014e+02  -5.560971e+02
   3.218394e+02  -5.740899e+02
   5.874606e+02  -1.299667e+02
   4.968780e+02   2.850295e+02
   3.918164e+01   5.406645e+02
  -3.433749e+02   2.052091e+02
  -2.774853e+02  -1.921653e+02
   2.076689e+02  -4.089131e+02
   5.287423e+02   8.137092e+01
   3.328684e+02   7.638514e+02
  -3.498816e+02   7.568011e+02
  -6.653170e+02   2.204710e+00
  -2.208530e+02  -6.246243e+02
   3.259900e+02  -4.161475e+02
   4.301400e+02   2.770765e+02
  -6.471731e+01   6.211450e+02
  -5.642086e+02   2.378358e+02
  -6.244601e+02  -3.728205e+02
  -1.815921e+02  -6.602887e+02
   3.669529e+02  -4.639945e+02
   6.902706e+02   7.105288e+01
   4.557746e+02   4.409406e+02
  -6.851656e+01   4.001955e+02
  -4.391330e+02   7.276979e+01
  -2.384223e+02  -2.326888e+02
   1.117752e+02  -1.082729e+02
   1.323068e+02   1.863701e+02
  -1.551740e+02   1.900577e+02
  -3.364818e+02  -1.223626e+02
  -7.888611e+01  -2.931976e+02
   2.251594e+02  -2.336018e+02
   2.968672e+02   1.630857e+01
   1.673359e+02   1.095535e+02
   2.444639e+00   1.935473e+02
  -2.557363e+02   3.492676e+02
  -4.096587e+02   2.618850e+02
  -3.883438e+02  -1.184352e+02
  -1.037036e+02  -5.214616e+02
   1.599241e+02  -4.004275e+02
   1.167689e+02  -1.221787e+02
   4.244408e+01   6.831086e+01
   6.504311e+00  -6.339245e+01
   2.533255e+02  -1.626781e+02
   3.704549e+02   4.450713e+01
   1.664317e+02   2.814250e+02
  -1.045230e+02   3.141303e+02
  -2.984526e+02   7.403973e+01
  -2.321024e+02  -2.347624e+02
   4.204960e+01  -3.233803e+02
   2.794826e+02  -1.231755e+02
   3.559121e+02   2.153412e+02
   1.541189e+02   3.969972e+02
  -1.069852e+02   2.750690e+02
  -2.361582e+02   1.286413e+02
  -1.445006e+02  -3.580435e+01
  -8.991524e+01   5.890553e+01
  -2.585542e+02   1.075898e+02
  -4.398312e+02  -3.557222e+01
  -3.297158e+02  -2.735246e+02
   2.870740e+00  -4.914896e+02
   3.872480e+02  -4.295199e+02
   4.902460e+02  -1.553195e+02
   2.934112e+02   1.266355e+02
   2.791541e+01   3.106970e+02
  -1.268706e+02   2.353345e+02
  -9.940448e+01  -1.391749e+01
   1.691933e+02  -1.382497e+02
   1.950732e+02   5.871646e+00
   3.912296e+01   1.970718e+02
  -2.200338e+02   1.836695e+02
  -1.711400e+02  -8.089988e+01
   6.945527e+01  -1.474006e+02
   2.846897e+02  -3.911873e+00
   2.096386e+02   3.207783e+02
  -2.773501e+01   3.791476e+02
  -2.853475e+02   1.747398e+02
  -3.430876e+02  -7.524215e+01
  -2.989597e+02  -2.455257e+02
  -9.266986e+01  -2.920042e+02
   1.034441e+02  -1.027442e+02
   2.092392e+02  -5.196237e+01
   1.583383e+02  -1.965698e+01
  -9.853983e+01  -4.809574e+01
  -2.683271e+01  -1.723759e+02
   8.348694e+01  -1.215171e+02
   2.082462e+02  -3.379137e+01
   6.743957e+01   4.670431e+01
  -8.164107e+01   8.925459e+00
  -3.315946e+01  -1.011193e+02
   4.880955e+01  -9.776765e+01
   2.821429e+02  -4.241039e+01
   3.104165e+02   1.096719e+02
   6.893496e+01   2.428385e+02
  -1.879650e+02   2.574498e+02
  -2.759879e+02   1.867666e+02
  -1.863239e+02  -5.050579e+01
   1.404515e+01  -1.375652e+02
   9.540926e+01  -1.038230e+01
  -2.669948e+01   9.673168e+01
  -1.929783e+02   5.562836e+01
  -2.556795e+02  -9.955558e+01
  -6.715530e+01  -2.077461e+02
   1.303427e+02  -1.843291e+02
   1.741131e+02  -7.525033e+01
   8.181020e+01   1.856484e-01
  -4.924650e+01  -1.529977e+01
  -4.678899e+01  -7.644683e+01
   4.566802e+01  -1.023936e+02
   2.328696e+02  -9.750692e+00
   2.180803e+02   1.252413e+02
   9.143055e+00   2.298861e+02
  -1.965478e+02   1.531075e+02
  -2.389603e+02   5.778000e+00
  -1.005157e+02  -9.532013e+01
   8.959911e+01  -1.186882e+02
   1.006509e+02  -5.221598e+01
   5.105697e+01   2.394142e+01
   1.614245e+01   3.029749e+01
   3.402427e+01   2.369522e+01
   4.227574e+01   2.969612e+01
   4.223950e+01   7.568465e+01
  -2.098226e+01   1.523762e+02
  -1.140531e+02   1.751724e+02
  -2.659192e+02   1.552596e+01
  -2.072307e+02  -1.461746e+02
  -4.742705e+01  -2.398599e+02
   1.148028e+02  -1.783391e+02
   1.509834e+02  -3.713053e+01
   5.924208e+01   4.731194e+01
   3.066483e+01   1.491298e-02
   8.844847e+01   1.929683e+01
   1.135567e+02  -2.440592e+00
   8.416898e+01   1.132683e+02
  -4.785491e+01   9.456377e+01
  -1.029765e+02   5.462288e+01
  -1.081586e+02  -4.278477e+01
  -3.288932e+00  -9.717738e+01
   1.489060e+02  -8.795326e+01
   2.197348e+02   6.015541e+01
   8.515133e+01   2.393855e+02
  -1.553738e+02   2.197802e+02
  -3.224446e+02   6.999268e+01
  -2.584645e+02  -1.857713e+02
  -8.689134e+01  -2.506230e+02
   1.058514e+02  -1.296645e+02
   8.192952e+01  -7.093411e+01
   7.151414e+01  -1.925108e+01
   5.709754e+01  -4.275807e+01
   8.285196e+01  -8.006424e+01
   1.328412e+02  -2.559323e+00
   9.552098e+01   1.172495e+02
   5.910540e+01   2.194202e+02
  -7.041847e+01   1.859179e+02
  -1.533495e+02   3.540797e+01
  -1.601761e+02  -9.615371e+01
  -5.815723e+01  -1.265448e+02
   5.780932e+01  -9.503250e+01
   1.323182e+02   1.561335e+00
   2.769152e+01   3.456074e+01
  -4.655973e+00   1.390473e+01
   1.361811e+01   6.930556e+01
   8.738340e+01   1.149589e+01
   6.177652e+01   6.713946e+01
  -1.636067e+01   7.364491e+01
  -1.631921e+02   4.347041e+00
  -1.949322e+02  -4.113060e+00
  -5.755850e+01  -6.231626e+01
   8.960304e+01  -6.748636e+01
   9.955757e+01  -3.857978e+01
   5.816831e+01   2.482127e+01
  -7.150100e+01   1.402122e+01
  -4.326366e+01  -1.099393e+01
  -1.841614e+01  -2.739260e+01
   5.613381e+01  -5.344073e+01
   5.654152e+01  -1.149904e+01
   9.251813e+01   7.127941e+01
   6.438997e+01   4.213895e+01
   4.279083e+01   6.082181e+01
   6.988038e+01   1.116680e+01
  -5.743844e+00   4.528505e+01
  -3.032204e+01   1.399856e+02
  -1.467901e+02   1.075823e+02
  -1.444154e+02   1.792611e+01
  -1.184824e+02  -1.101222e+02
   3.502953e+01  -1.740102e+02
   1.103938e+02  -5.204244e+00
   5.254635e+01   2.913020e+01
  -4.068657e+01  -7.434016e+00
  -1.663598e+02  -5.643727e+01
  -8.873963e+01  -1.094080e+02
   1.332057e+02  -9.397524e+01
   1.637185e+02  -6.115883e+01
   1.835340e+02  -2.591776e+01
   2.257060e+01   6.229774e+01
  -4.836436e+01   9.564205e+01
  -4.348958e+01   7.764355e+00
   2.088186e+01  -4.411190e+01
   1.078449e+02  -1.361071e+01
   3.656313e+01   1.019552e+02
  -1.304907e+02   1.902308e+02
  -1.486543e+02   9.972754e+01
  -1.298210e+02  -1.138448e+02
  -2.453606e+01  -1.998630e+02
   6.533350e+01  -1.896726e+02
   1.165852e+02   1.065036e+00
   9.186264e+01   1.181193e+02
   5.002410e+01   1.248469e+02
  -4.951863e+01  -2.532034e+00
  -4.265051e+01  -1.510881e+01
  -5.877910e+01  -2.244313e+01
   2.552960e+01   2.312849e+01
   5.137109e+00   2.375450e+01
  -4.389487e+01  -3.810183e+01
  -5.501497e+01  -7.185015e+01
  -3.634123e+01  -5.668113e+01
   1.135929e+02   3.562630e+00
   1.152137e+02   7.233202e+01
   2.925596e+01   4.595466e+01
  -9.399981e+01   3.318030e-01
  -9.458996e+01  -2.334973e+01
   5.816665e-02   3.304497e+01
   3.489614e+01  -1.007611e+00
  -8.947897e+00  -5.735539e+01
  -2.767639e+01  -3.199442e+01
  -1.276133e+01   4.463201e+01
   1.016336e+02   6.036303e+00
   9.055042e+01   3.422439e+01
   1.605742e+01   9.845472e+01
  -1.386225e+02   7.491660e+01
  -2.082040e+02   2.989496e+01
  -1.057062e+02  -7.149974e+01
   3.696958e+01  -1.677741e+02
   5.549492e+01  -8.625980e+01
   1.221519e+02  -2.482348e+01
   8.546906e+01   3.071032e+01
  -5.288546e+00   3.023070e+01
   5.285533e+01   2.558955e+01
  -2.643174e+00  -8.296911e+00
   3.926682e+01   9.511616e+00
   1.504952e+01   5.629178e+01
  -3.634012e+01   6.289899e+01
  -5.897155e+01   1.352123e+01
  -4.614990e+01  -8.201792e+01
  -9.893435e-01  -1.119871e+02
   7.898374e+01   1.020267e+01
   9.542696e+01   7.686473e+01
   5.978154e+00   1.220941e+02
  -1.118752e+02   9.458001e+01
  -1.260865e+02  -2.649374e+01
  -6.136474e+01  -6.554322e+01
   1.029409e+02  -3.401564e+01
   5.310101e+01  -9.996659e+01
  -3.921656e+01   1.352821e+01
  -2.915239e+01   6.159705e+01
  -5.303512e+00  -1.108102e+00
   8.733814e+01  -3.392435e+01
   9.484776e+01  -9.355715e+01
   6.719645e+01   5.676778e+01
  -1.851473e+01   8.392461e+01
  -3.486307e+01   9.180526e+01
  -7.129266e+01  -2.109926e+01
  -4.001576e+00  -8.747047e+01
   1.123447e+01  -5.770222e+01
   5.853961e+01   2.273935e+01
   3.210259e+01   1.052892e+02
   3.328906e+01   8.607721e+00
  -5.297061e+01  -3.546814e+01
  -3.432416e+01  -1.205885e+01
  -7.571888e+00   2.325823e+01
  -5.861088e+00   6.260075e+01
   1.030320e+01   6.361312e+00
  -1.845011e+01  -4.757003e+01
   1.130469e+01  -4.900204e+01
  -1.754662e+01   2.488699e+01
   3.156295e+01   5.007391e+01
  -1.987334e+01   7.373719e+01
  -9.784466e+01   2.877400e+01
  -8.406558e+01  -7.728895e+01
  -1.994865e+01  -9.635450e+01
   5.892028e+01  -4.921832e+01
   9.745057e+01   9.756291e+00
   3.355198e+01   3.472250e+01
  -9.278548e+00   5.245298e+01
  -2.585036e+01  -1.148083e+01
  -1.121129e+01   3.037150e+01
   4.075027e+00   2.569321e+01
   2.536792e+01   1.433036e+01
  -8.434739e+01   3.542715e+01
  -1.044421e+02   1.141797e+00
