
 $NMID
 id='ANONYMOUS ', fmtdat='(2E16.6)'
 volume=1.0
 tramp=1.0
 $END
   4.932722e+03   1.192675e+02
   2.638068e+03   2.548450e+03
  -8.919720e+02   2.981058e+03
  -2.204791e+03   9.782532e+02
  -8.294097e+02  -7.995707e+02
   9.268453e+02  -6.081668e+02
   9.952935e+02   4.893569e+02
  -2.000335e+02   1.142622e+03
  -9.472319e+02   9.821304e+02
  -8.928260e+02  -1.008711e+01
  -3.287705e+02  -9.904532e+02
   3.623544e+02  -9.175947e+02
   6.112611e+02   7.224912e-02
   3.036144e+02   9.652616e+02
  -2.854011e+02   7.425146e+02
  -5.790179e+02  -1.365523e+02
  -2.240731e+02  -8.279934e+02
   3.226686e+02  -8.678918e+02
   5.954451e+02   6.875400e+01
   3.409894e+02   3.201502e+02
   1.636559e+02   3.118129e+02
  -2.910948e+02   2.619224e+02
  -2.869541e+02  -1.574595e+02
   7.160133e+01  -1.586102e+02
   4.876080e+02   1.998152e+01
   1.406656e+02   3.645187e+02
  -3.652516e+02   4.901996e+02
  -9.656460e+02  -8.909330e+01
  -4.766457e+02  -4.759455e+02
   4.116586e+02  -4.961592e+02
   8.706904e+02   1.210177e+02
   3.090752e+02   5.572956e+02
  -3.981705e+02   6.236017e+02
  -5.395265e+02   1.340444e+02
  -3.894441e+02  -2.268184e+02
  -5.614517e+01  -5.321994e+02
   1.194821e+02  -2.894025e+02
   2.947580e+02   3.125894e+02
  -1.719215e+02   5.386212e+02
  -5.431572e+02   3.236556e+00
  -2.799044e+02  -6.827944e+02
   3.052806e+02  -6.760860e+02
   6.809611e+02   7.781854e+01
   3.028647e+02   6.079808e+02
  -3.866462e+02   3.308062e+02
  -4.448802e+02  -3.983019e+02
   9.385222e+01  -6.144174e+02
   5.637918e+02  -1.403933e+02
   6.221547e+02   4.168845e+02
   1.616600e+02   6.169223e+02
  -4.401006e+02   3.410723e+02
  -6.906541e+02  -8.125834e+01
  -4.016899e+02  -3.826032e+02
   1.984588e+02  -3.841145e+02
   4.653532e+02  -1.034369e+02
   2.274500e+02   2.135463e+02
  -1.477223e+02   9.731760e+01
  -1.605739e+02  -1.773532e+02
   2.080370e+02  -2.332767e+02
   3.561578e+02   7.401988e+01
   9.899013e+01   3.188377e+02
  -2.025675e+02   2.962133e+02
  -3.277495e+02   4.915908e+01
  -1.848486e+02  -9.152383e+01
   2.065126e+01  -2.367413e+02
   2.001605e+02  -3.606890e+02
   3.046242e+02  -2.054870e+02
   3.433789e+02   1.731887e+02
   7.106081e+01   5.155620e+02
  -1.712647e+02   3.582122e+02
  -1.916318e+02  -2.327110e+00
   5.333455e-01  -8.781379e+01
   3.397101e+01   7.620769e+01
  -1.750348e+02   1.877076e+02
  -3.117556e+02  -1.709803e+01
  -1.587866e+02  -2.498323e+02
   1.293130e+02  -2.739633e+02
   3.211849e+02  -2.166644e+01
   2.080450e+02   2.705411e+02
  -4.206657e+01   3.405183e+02
  -3.373957e+02   1.539785e+02
  -4.178661e+02  -2.062524e+02
  -2.328402e+02  -3.991124e+02
   1.112176e+02  -3.925748e+02
   2.664649e+02  -1.372372e+02
   1.495311e+02   3.634923e+01
   5.436206e+01  -6.307053e+01
   1.707376e+02  -1.005776e+02
   3.761818e+02  -1.231542e+01
   3.398049e+02   2.693183e+02
   5.557142e+01   4.190167e+02
  -3.368244e+02   4.102705e+02
  -4.900677e+02   2.352115e+02
  -3.369390e+02  -6.987157e+01
  -2.259385e+01  -2.731006e+02
   1.508671e+02  -2.616595e+02
   1.010730e+02  -2.760642e+01
  -1.236317e+02   8.058879e+01
  -1.968392e+02   1.437538e+01
  -4.716124e+01  -2.019823e+02
   1.832502e+02  -1.423009e+02
   1.952593e+02   9.494400e+01
  -1.614592e+01   1.916992e+02
  -2.121792e+02   3.008513e+01
  -1.582784e+02  -2.553612e+02
   2.495022e+01  -3.055094e+02
   2.349248e+02  -1.959811e+02
   2.910775e+02   3.799562e+01
   2.569702e+02   2.248345e+02
   8.141857e+01   2.441634e+02
  -8.185326e+01   1.524167e+02
  -1.155077e+02  -1.293934e+00
  -2.498691e+01  -7.046222e+01
   9.562374e+01  -8.203904e+00
   5.543928e+01   1.415410e+02
  -1.048023e+02   2.029707e+02
  -1.729221e+02   1.513081e+01
  -9.953604e+01  -5.254045e+01
   6.122966e+01  -7.059718e+01
   8.283441e+01   7.023825e+01
  -5.008025e+01   9.171454e+01
  -2.849340e+02   1.492487e+01
  -3.217591e+02  -1.287592e+02
  -1.027146e+02  -2.993086e+02
   1.563808e+02  -2.607666e+02
   3.258548e+02  -1.219220e+02
   1.619338e+02   1.385390e+02
  -2.583122e+01   9.371377e+01
  -1.111949e+02  -2.974605e-01
   4.537989e+01  -1.379406e+02
   2.350959e+02  -5.787510e+01
   2.415933e+02   1.211541e+02
   8.773677e+01   2.491105e+02
  -9.489718e+01   1.767747e+02
  -1.618947e+02   5.329210e+01
  -9.741325e+01  -4.270636e+01
   3.265945e+01  -1.363526e+01
   6.913402e+01   6.129366e+01
  -8.127017e+01   1.247577e+02
  -2.195911e+02   3.681519e+01
  -1.943500e+02  -7.646118e+01
  -2.701743e+01  -2.071306e+02
   1.985001e+02  -1.556939e+02
   2.041841e+02  -7.704762e+01
   5.842648e+01   9.888099e+01
  -1.118733e+02   1.344590e+02
  -9.221579e+01   2.473147e+01
   3.888948e+00  -1.338792e+01
   5.085552e+01  -7.467824e+01
  -2.212153e+01   3.370757e+00
  -4.840551e+01  -1.518363e+01
  -1.178749e+02  -6.932785e+01
  -6.580662e+01  -1.871101e+02
   9.738604e+01  -1.547626e+02
   2.340176e+02  -3.998641e+01
   2.217819e+02   8.829883e+01
   4.727533e+01   2.379503e+02
  -1.233804e+02   1.668701e+02
  -1.600681e+02  -1.713059e+01
  -3.988882e+01  -8.334967e+01
   1.834456e+01  -1.146415e+01
  -4.815088e+01  -1.816866e-01
  -7.829630e+01   3.047540e+01
  -8.013330e+01  -2.646426e+01
   2.901325e+01  -9.051123e+01
   1.258778e+02  -8.087092e+01
   4.021410e+01   4.871940e+01
   1.811304e+00   9.546660e+01
  -1.407881e+02   8.618074e+01
  -1.391827e+02  -1.423011e+01
  -9.413958e+01  -2.097576e+02
   1.320323e+02  -2.278633e+02
   2.617030e+02  -9.761572e+01
   2.664833e+02   1.338630e+02
   1.340032e+02   2.142176e+02
  -6.468988e+01   1.673136e+02
  -1.381902e+02   7.740303e+01
  -1.029896e+02   4.027489e+01
  -5.479969e+01   6.349574e+01
  -9.280054e+01   5.436742e+01
  -1.380808e+02  -6.874886e+01
  -8.057398e+01  -2.103258e+02
  -4.140314e+01  -1.962440e+02
   8.990213e+01  -1.583445e+02
   2.053489e+02  -3.074112e+01
   1.641258e+02   1.449182e+02
   3.718609e+01   1.858585e+02
  -9.619368e+01   6.004745e+01
  -1.117671e+02   1.004970e+01
  -2.247926e+01  -5.939429e+01
   3.097610e+01  -5.594237e+01
   2.016530e+01  -1.233459e+01
  -9.073297e+01  -1.744427e+01
  -6.501506e+01  -4.736546e+01
   4.021002e+01  -4.267990e+01
   1.409052e+02  -2.495156e+00
   1.630258e+02   1.960347e+01
   1.113222e+01   1.149245e+02
  -1.018991e+02   5.919610e+01
  -1.285446e+02   5.711147e+01
  -6.938014e+01  -3.200355e+01
   5.298756e+01  -7.591042e+01
   7.657343e+01  -2.117698e+01
   4.825222e+00   8.791844e+01
  -7.676609e+01   5.050399e+01
  -5.244054e+01  -3.387563e+01
  -3.574657e+01  -1.754951e+01
  -3.402892e+01   3.492635e+01
  -6.278954e+01  -7.510284e+00
  -8.136606e+01  -2.153014e+01
  -5.783060e+01  -8.179106e+01
   2.963273e+01  -1.216393e+02
   8.437966e+01  -1.490619e+02
   1.820469e+02  -5.240765e+01
   9.814515e+01   8.638127e+01
   3.372793e+01   1.144089e+02
  -1.021587e+02   7.059541e+01
  -7.430524e+01  -1.679185e+01
   5.375565e+01  -3.915124e+01
   1.020715e+02   6.283846e+01
   8.648849e+01   1.322835e+02
  -1.008711e+02   1.166807e+02
  -1.684242e+02   3.621874e+01
  -1.903320e+02  -7.025886e+01
  -1.492307e+00  -1.074950e+02
   1.176648e+02  -6.495926e+01
   6.454283e+01   6.269746e+01
  -6.399699e+01   1.908104e+01
  -1.292912e+02  -2.097885e+01
  -3.672020e+01  -1.946689e+02
   1.331302e+02  -1.584733e+02
   1.855098e+02  -5.573709e+01
   1.159356e+02   1.499370e+02
  -2.264783e+01   1.615327e+02
  -1.024066e+02   7.878956e+01
  -5.153848e+01  -3.860640e+01
  -6.517508e+00  -1.112528e+02
   2.233623e+01  -1.112898e+02
   7.312387e+01  -1.167797e+01
   4.207354e+01   2.226294e+01
   9.175557e+00  -3.501542e+01
   1.237669e+01  -3.358783e+01
   2.601610e+01  -1.331250e+01
   9.713921e+01   7.976561e+01
   7.292631e+00   8.355896e+01
  -4.701271e+01   5.683284e+01
  -1.411289e+02  -3.463684e+01
  -1.340377e+02  -8.582234e+01
  -1.534155e+01  -6.170487e+01
   1.034448e+02  -1.255744e+01
   1.129066e+02   3.855376e+01
   8.425242e+00   3.555036e+01
  -3.206099e+01   5.771640e+00
  -2.403981e+01  -9.682744e+00
  -1.533523e+01  -2.656573e+01
   3.229663e+00   3.383730e+00
  -7.188463e+01  -2.005376e+00
  -9.757114e+01  -2.396653e+00
  -1.991183e+01  -1.009142e+02
   1.002803e+02  -1.215291e+02
   1.552141e+02  -4.444203e+01
   1.200790e+02   7.195304e+01
   5.963072e+01   1.543588e+02
  -1.094068e+02   1.448796e+02
  -1.543489e+02   5.725331e+01
  -8.506023e+01  -7.304857e+01
  -3.473996e+01  -4.150494e+01
  -5.810414e+00  -4.103517e-01
  -1.604101e+01  -1.054394e+01
  -5.772136e+01  -8.367441e+01
  -1.394530e+01  -1.051885e+02
   2.277394e+01  -6.857936e+01
   7.802324e+01   4.934514e+01
   3.852773e+01   1.402497e+02
  -2.185201e+01   1.427327e+02
  -7.573589e+01   4.049328e+01
  -9.199242e+01  -6.742089e+01
  -8.915558e+00  -7.095658e+01
   7.008514e+01  -1.043293e+02
   9.940371e+01   3.597989e+01
   6.461628e+01   4.933925e+01
  -5.571030e+01   6.705651e+01
  -7.166160e+00   2.868618e+01
   2.508541e+01   2.477696e+01
   7.013006e+01   1.727787e+01
  -3.894336e+01   1.116532e+01
  -1.280462e+02   5.768784e+01
  -8.105370e+01   1.798626e+01
  -5.511389e+01  -3.006257e+01
  -1.499173e+00  -6.811511e+01
   8.171337e+01  -7.997105e+01
   6.625575e+01  -8.878593e+00
   1.659746e+01   2.398761e+01
  -2.163328e+01   1.116673e+01
  -3.281626e+01  -2.540445e+01
  -3.302095e+01  -5.066843e+01
  -2.707431e+01   3.421661e+01
   1.439615e+01   1.092326e+01
   2.614107e+01   6.565394e+01
  -7.079952e+00   3.626941e+00
   1.073423e+01  -4.896020e-01
   3.358484e+01  -4.535632e+01
  -2.575510e+01  -4.059963e+00
   8.325010e+00   3.837586e+01
  -4.439439e+01   1.563557e+01
  -4.169362e+01  -4.237141e+01
  -5.019737e+00  -4.589151e+01
   3.337430e+01  -3.841688e+01
   4.824718e+01   5.364213e+01
  -4.017682e+00   1.042152e+02
  -2.767886e+01   3.947894e+01
  -1.039541e+02  -1.417851e+01
  -6.124399e+01  -6.353806e+01
   7.904595e+01  -2.694691e+01
   8.841700e+01  -2.255650e+01
   4.315871e+01   1.425031e+01
   9.472113e+00   4.099588e+01
  -3.937222e+01  -1.632233e+01
   3.408745e+01  -6.226613e+01
   1.074416e+02  -3.921679e+00
