
 $NMID
 id='ANONYMOUS ', fmtdat='(2E16.6)'
 volume=1.0
 tramp=1.0
 $END
  -4.517416e+03  -3.431837e+02
  -2.722467e+03  -2.326903e+03
   3.346905e+02  -2.822407e+03
   2.154220e+03  -1.409922e+03
   1.022314e+03   4.394984e+02
  -6.449689e+02   5.579007e+02
  -7.886008e+02  -2.679285e+02
   7.341302e+01  -1.055393e+03
   8.114750e+02  -7.879256e+02
   9.117078e+02   1.516430e+01
   7.199863e+02   9.344720e+02
  -2.563420e+02   1.010457e+03
  -5.334371e+02   2.060539e+02
  -4.368915e+02  -6.620034e+02
   1.667012e+02  -8.058760e+02
   4.841428e+02  -7.951669e+01
   3.788026e+01   4.901755e+02
  -5.392208e+02   7.612556e+02
  -7.596069e+02   3.397606e+02
  -4.820300e+02  -4.186206e+02
   2.033764e+01  -2.692733e+02
   5.765210e+01  -2.217292e+02
   2.399970e+02   7.948125e+01
  -1.460312e+02   8.724179e+01
  -3.702708e+02  -9.648107e+01
  -2.230509e+02  -4.858586e+02
   5.252817e+02  -4.065245e+02
   7.475446e+02   1.680302e+02
   3.832610e+02   5.362887e+02
  -4.249555e+02   4.216121e+02
  -8.746554e+02  -9.356642e+01
  -2.765689e+02  -4.751565e+02
   3.628331e+02  -5.942832e+02
   5.653141e+02  -2.997333e+02
   3.780428e+02   2.655309e+02
   1.299083e+02   4.764582e+02
  -1.784127e+02   2.376812e+02
  -9.119690e+01  -1.408901e+02
   1.809343e+02  -3.912391e+02
   3.777716e+02  -2.804647e+01
   1.974675e+02   6.042147e+02
  -3.011977e+02   5.893182e+02
  -5.600477e+02   2.764311e+00
  -2.413101e+02  -6.344410e+02
   2.383716e+02  -3.280471e+02
   3.315936e+02   3.660176e+02
  -3.816217e+01   5.919979e+02
  -4.652646e+02   1.889091e+02
  -5.953713e+02  -3.696159e+02
  -2.240491e+02  -5.902205e+02
   3.345820e+02  -3.289349e+02
   6.091379e+02   5.797944e+01
   3.603227e+02   3.881200e+02
  -1.934407e+02   3.835928e+02
  -4.927296e+02   9.296884e+01
  -2.319559e+02  -2.054638e+02
   1.510084e+02  -1.467329e+02
   1.724000e+02   7.718469e+01
  -1.415883e+02   1.649943e+02
  -3.524754e+02  -4.097232e+01
  -1.528050e+02  -2.205092e+02
   1.850478e+02  -2.028968e+02
   3.142873e+02  -9.122375e+01
   1.941446e+02   5.667202e+01
  -1.920537e+01   2.307927e+02
  -2.255653e+02   3.537939e+02
  -3.432371e+02   1.841136e+02
  -3.124500e+02  -1.620724e+02
  -8.833030e+01  -4.536915e+02
   1.150647e+02  -3.326254e+02
   1.591308e+02  -9.809016e+01
   6.003833e+01  -1.131767e+01
   2.126817e+01  -8.703027e+01
   1.791826e+02  -1.082019e+02
   2.429448e+02   8.141240e+01
   1.285037e+02   2.702194e+02
  -4.039508e+01   2.568896e+02
  -2.465022e+02  -1.433826e+01
  -2.105006e+02  -2.745170e+02
   1.467682e+01  -3.250582e+02
   2.981328e+02  -1.071051e+02
   3.476206e+02   1.723995e+02
   1.796428e+02   3.647053e+02
  -9.847945e+01   2.789416e+02
  -1.781809e+02   1.133623e+02
  -1.412717e+02   4.623964e+00
  -9.370666e+01   1.894721e+01
  -2.571983e+02   8.743797e+01
  -3.833289e+02  -4.152404e+01
  -3.623599e+02  -3.005389e+02
  -3.890573e+01  -5.117211e+02
   3.760130e+02  -4.497125e+02
   5.238555e+02  -2.037392e+02
   3.879362e+02   1.147355e+02
   1.521187e+01   3.297850e+02
  -1.509041e+02   2.419262e+02
  -1.524796e+02   1.260436e+01
   9.664879e+01  -8.836305e+01
   1.929378e+02   1.939127e+01
   8.690972e+01   1.413667e+02
  -1.237883e+02   1.705096e+02
  -1.812244e+02  -7.147400e+01
  -3.854086e+01  -2.060770e+02
   1.915738e+02  -5.584205e+01
   2.279187e+02   2.396213e+02
   2.304143e+01   3.542360e+02
  -2.037542e+02   1.902087e+02
  -3.041762e+02  -2.242004e+01
  -2.125167e+02  -2.703687e+02
  -9.369632e+01  -2.896961e+02
   1.229497e+02  -1.724420e+02
   1.461808e+02   6.014230e+01
   6.400406e+01   6.301040e+01
  -6.668545e+01  -2.665624e+01
  -5.271269e+01  -1.542027e+02
   9.878343e+01  -1.201272e+02
   1.462355e+02  -9.897034e-01
   4.017594e+01   2.852911e+01
  -6.849755e+01  -2.687002e+01
  -4.977589e+01  -8.260874e+01
   1.649268e+02  -9.102660e+01
   2.953617e+02  -2.015248e-01
   2.750801e+02   1.631041e+02
   4.655561e+01   2.331635e+02
  -1.950767e+02   2.698118e+02
  -2.825236e+02   1.163910e+02
  -1.425611e+02  -3.916751e+01
   6.236464e+00  -1.028626e+02
   9.416266e+01  -1.743672e+01
  -3.888532e+01   1.091440e+02
  -1.716914e+02   3.282073e+01
  -1.953632e+02  -1.307032e+02
  -3.782278e+01  -2.122212e+02
   1.117486e+02  -2.002525e+02
   1.606397e+02  -7.976825e+01
   1.000413e+02   5.585017e+01
  -5.546168e+01  -2.212835e+01
  -2.245618e+01  -7.942227e+01
   7.127347e+01  -1.027707e+02
   2.168377e+02  -5.880101e+01
   1.600158e+02   1.105731e+02
   1.958649e+01   2.363283e+02
  -1.721752e+02   1.488252e+02
  -2.272557e+02   1.872227e+00
  -8.056926e+01  -1.155066e+02
   8.162869e+01  -1.596859e+02
   7.243285e+01  -2.710848e+01
   2.014824e+01   4.592173e+01
  -1.054163e+01   6.166630e+00
   2.138543e+01  -1.296284e+01
   9.662217e+01   4.578426e+01
   1.096943e+02   9.336231e+01
   4.557318e+01   1.458552e+02
  -1.107114e+02   1.690603e+02
  -2.408481e+02   2.777602e+01
  -2.275531e+02  -1.709022e+02
  -5.597968e+01  -2.412132e+02
   1.107595e+02  -1.827306e+02
   1.754990e+02  -3.655226e+01
   7.332554e+01   8.064203e+01
  -1.442071e+01   4.601497e+01
   3.484259e+01  -5.029756e+00
   6.134804e+01  -1.443488e+00
   2.430372e+01  -1.021495e+00
   4.195521e+00   4.512155e+01
  -6.933159e+01   6.112983e+01
  -6.370262e+01  -4.504609e+00
   2.357353e+01  -9.126121e+01
   1.216791e+02  -8.249293e+01
   1.778808e+02   3.400689e+01
   1.091371e+02   2.192470e+02
  -1.257065e+02   2.515132e+02
  -2.850537e+02   1.104916e+02
  -2.266503e+02  -7.098687e+01
  -1.028516e+02  -1.581158e+02
   4.861297e+01  -1.715761e+02
   5.899980e+01  -1.102790e+02
   7.835455e+01  -7.016018e+01
   1.117401e+02  -9.668942e+01
   1.198267e+02  -9.557346e+01
   1.368130e+02  -1.512648e+01
   1.270441e+02   1.300197e+02
   1.733446e+01   2.931758e+02
  -1.150418e+02   2.151228e+02
  -2.182156e+02   1.198434e+01
  -1.191685e+02  -1.382957e+02
   1.379809e+01  -1.679268e+02
   8.013570e+01  -7.386303e+01
   7.216005e+01  -9.430575e+00
   4.231196e+01   4.737943e+01
   1.173302e+01   3.540352e+01
   4.334259e+01   4.843154e+01
   6.166398e+01   3.508130e+01
   3.958623e+01   1.365761e+01
  -6.254218e+01   7.338622e+01
  -1.313003e+02   1.808514e+01
  -1.499090e+02  -5.023567e+01
  -1.336506e+01  -8.421166e+01
   1.405250e+02  -1.156328e+02
   1.386798e+02  -5.076349e+01
   1.769794e+01   3.902998e+01
  -7.420843e+01  -8.950247e+00
  -9.649507e+01  -9.823308e+00
  -1.993958e+00  -4.880525e+01
   7.840933e+01  -5.321588e+01
   9.521710e+01  -8.804714e+00
   6.063893e+01   4.913102e+01
   4.951532e+01   3.163676e+01
   5.287000e+01   1.539892e+01
   2.316364e+01   3.609179e+01
   2.718058e+01   3.101169e+01
  -1.597908e+01   1.212686e+02
  -1.007390e+02   1.547104e+02
  -1.988597e+02   5.286699e+01
  -1.435535e+02  -1.164581e+02
  -7.832637e+01  -1.374242e+02
   5.163258e+00  -8.082927e+01
   7.026159e+01   2.624837e+01
  -7.132978e+01   1.458236e+01
  -1.195344e+02  -7.946713e+01
  -3.044222e+01  -1.269523e+02
   7.620651e+01  -9.547050e+01
   1.633840e+02  -9.058497e+01
   1.807806e+02  -5.502592e+01
   2.713504e+01   9.933686e+01
  -5.045045e+01   7.110527e+01
  -4.357605e+01  -2.241043e+01
   3.883688e+01  -6.150759e+01
   1.131512e+02   2.240153e+00
   1.635829e+01   1.510680e+02
  -9.479593e+01   1.989285e+02
  -1.911141e+02   6.609736e+01
  -1.497652e+02  -4.907624e+01
  -2.905616e+01  -1.692869e+02
   6.702964e+01  -1.215395e+02
   5.714394e+01  -1.818877e+01
   4.766652e+01   1.046892e+02
   1.382180e+01   7.567472e+01
  -2.493845e+01  -1.903135e+01
  -1.539569e+01  -6.945277e+00
   6.479280e+00  -3.480866e+01
   1.594163e+01  -4.585156e-01
  -1.432613e+01   1.783774e+01
  -8.274815e+01  -9.769715e+01
  -9.904499e+01  -1.256634e+02
   3.727354e+01  -1.040104e+02
   1.631083e+02   1.683512e+01
   1.516870e+02   9.414645e+01
   4.940661e+01   6.338563e+01
  -7.315427e+01   1.401540e+01
  -5.059235e+01  -5.744993e+00
  -4.193376e+01  -9.573917e+00
   6.342575e+01  -9.350338e+00
   4.600354e+01  -1.430319e+01
   2.811461e+01   5.002861e+01
  -5.541015e+00   2.822602e+01
   1.681574e+01   1.080280e+01
   4.456558e+01  -2.775993e+01
   3.206449e+01   4.850065e+01
  -8.805693e+01   1.221999e+02
  -1.587848e+02   8.161061e+01
  -1.171791e+02  -3.540433e+01
   5.424497e+00  -1.465327e+02
   4.993357e+01  -1.594904e+02
   1.117898e+02  -6.275741e+01
   3.966781e+01   3.152249e+01
   4.519625e+01   3.797270e+01
   4.326601e+01   8.711721e+00
  -2.083372e+01   1.371830e+01
   2.846347e+01   1.492641e+01
   5.219244e+00   1.220511e+01
  -8.447451e+00   5.924099e+01
  -8.317537e+01  -3.614039e+01
  -2.751187e+01  -8.135867e+01
   3.389621e+01  -9.509692e+01
   8.740125e+01  -1.679681e+01
   7.249484e+01   7.656226e+01
   5.388346e+01   1.194114e+02
  -6.156067e+01   7.608377e+01
  -7.533102e+01   3.572649e+00
  -5.355963e+01  -8.502047e+00
   5.280526e+01   7.392163e+00
   6.173950e+01   6.968665e+00
  -1.072399e+01   2.426645e+01
  -6.367741e+01  -1.114445e+01
  -2.572237e+01  -5.647728e+01
   5.850612e+01  -6.612945e+01
   6.823978e+01  -9.202567e+01
   1.238980e+01   7.628584e+00
  -3.250700e+01   8.894015e+01
  -5.656663e+01   7.526976e+01
   2.258842e+00  -6.106649e+00
   3.229217e+00  -5.428093e+01
   5.727004e+01  -6.129012e+01
   4.217719e+00   4.297441e+01
   1.013286e+01   4.721945e+01
   1.922327e+01   1.036677e+01
   4.768788e+00   8.509511e+00
  -7.538628e+01  -2.728482e+01
  -2.322603e+01  -1.218840e+01
   6.296454e+00   3.342849e+01
   2.370771e+01   1.203107e+01
   3.733272e+01  -2.438393e+01
   4.854878e+00  -3.687424e+01
   1.780814e+01  -1.040807e+01
   5.142876e+01   7.422459e+01
   3.310915e+01   5.348647e+01
  -5.773477e+01   2.108330e+01
  -3.460695e+01  -3.317836e+01
  -6.863237e+00  -5.630895e+01
   6.845980e+01   1.661461e+01
   6.655677e+01   4.519535e+01
   1.548348e+01   3.206350e+01
  -4.314054e+01   5.425865e+00
  -2.415121e+01   1.092133e+01
  -6.169406e+01   3.870075e+01
   1.749280e+01  -1.771521e+00
   3.119565e+01   6.539158e+00
  -4.186960e+01   1.372058e+01
  -7.951378e+01   1.816975e+01
