
 $NMID
 id='ANONYMOUS ', fmtdat='(2E16.6)'
 volume=1.0
 tramp=1.0
 $END
  -4.218651e+03  -2.760818e+02
  -2.629795e+03  -2.301673e+03
   3.788795e+02  -2.984989e+03
   1.878064e+03  -1.113937e+03
   9.115061e+02   4.069452e+02
  -4.276224e+02   6.707932e+02
  -8.716215e+02  -2.325304e+02
  -7.181608e+01  -9.435231e+02
   7.968065e+02  -7.993753e+02
   9.308278e+02  -1.822299e+02
   6.442080e+02   8.046163e+02
  -1.980947e+02   8.833775e+02
  -5.681807e+02   1.218034e+02
  -2.312406e+02  -6.207631e+02
   2.699356e+01  -7.389500e+02
   4.870518e+02   9.450041e+01
   2.496700e+02   5.455982e+02
  -1.967049e+02   5.503733e+02
  -5.737840e+02   1.230264e+01
  -4.023004e+02  -3.457683e+02
   6.776502e+01  -4.152805e+02
   2.394742e+02  -2.862885e+02
   2.686805e+02   1.549512e+01
  -1.330411e+01   1.602528e+02
  -3.901981e+02  -1.131623e+02
  -1.877723e+02  -3.380963e+02
   6.125022e+02  -4.856427e+02
   8.743143e+02   1.863136e+02
   4.240237e+02   5.247247e+02
  -3.547497e+02   5.214514e+02
  -6.016304e+02  -1.634565e+02
  -3.879243e+02  -4.555600e+02
   2.498037e+02  -5.276520e+02
   6.575629e+02  -6.477525e+01
   3.990730e+02   2.348895e+02
   4.903275e+00   4.037856e+02
  -1.862951e+02   2.377417e+02
  -1.304754e+02  -6.157035e+01
   1.166328e+02  -3.910485e+02
   4.218637e+02   2.664222e+01
   2.674832e+02   6.541595e+02
  -2.917402e+02   7.141256e+02
  -6.604479e+02  -1.302606e+01
  -2.815913e+02  -5.606912e+02
   2.849719e+02  -3.315933e+02
   3.917689e+02   3.166200e+02
  -4.874254e+01   5.018178e+02
  -5.264309e+02   7.570539e+01
  -5.481382e+02  -4.180493e+02
  -1.812661e+02  -4.559282e+02
   3.779088e+02  -2.764287e+02
   6.239768e+02   3.831096e+01
   3.682066e+02   2.863935e+02
  -1.477261e+02   3.541191e+02
  -4.662109e+02   9.629668e+01
  -2.469979e+02  -2.144823e+02
   1.834404e+02  -1.204701e+02
   1.940715e+02   7.888797e+01
  -1.737666e+02   1.726918e+02
  -3.135524e+02   2.282864e+01
  -1.290069e+02  -2.516750e+02
   1.699019e+02  -2.014231e+02
   2.833547e+02  -3.171784e+01
   1.690919e+02   2.860824e+01
  -5.405364e+01   1.878577e+02
  -2.587921e+02   3.084816e+02
  -3.520377e+02   2.293985e+02
  -2.701298e+02  -1.603960e+02
  -5.575617e+01  -4.526498e+02
   1.612113e+02  -3.847177e+02
   7.044243e+01  -1.207739e+02
  -2.350498e+01   2.810910e+01
   6.964272e+01  -1.193296e+02
   2.606158e+02  -1.274270e+02
   2.949397e+02   1.635837e+02
   1.503238e+02   2.733853e+02
  -1.040060e+02   1.872197e+02
  -2.169408e+02  -1.645018e+01
  -1.707898e+02  -2.411662e+02
  -2.076124e+01  -2.928236e+02
   2.438334e+02  -1.167894e+02
   4.012414e+02   1.201894e+02
   2.014193e+02   3.056007e+02
  -7.650857e+01   3.008581e+02
  -1.649000e+02   1.851540e+02
  -1.671648e+02   4.955996e+01
  -1.006298e+02   2.027972e+01
  -1.830369e+02   3.348109e+01
  -3.922923e+02  -8.428348e+01
  -3.228497e+02  -2.761290e+02
   6.397084e+01  -4.511919e+02
   4.080560e+02  -4.014126e+02
   4.528158e+02  -1.924585e+02
   3.356942e+02   7.192049e+01
   5.001741e+01   2.064132e+02
  -7.707275e+01   2.680692e+02
  -4.906760e+01   7.704617e+01
   1.344435e+02  -1.250585e+02
   2.505770e+02   2.521660e+00
   1.014209e+02   2.770588e+02
  -1.576870e+02   1.980789e+02
  -1.607487e+02  -3.097975e+01
   2.076373e+00  -1.653224e+02
   1.570346e+02  -2.080076e+01
   1.427965e+02   2.584033e+02
  -4.109959e+01   3.466354e+02
  -1.867013e+02   2.304129e+02
  -2.878623e+02   2.316157e+00
  -2.655976e+02  -2.406957e+02
  -5.872440e+01  -2.788373e+02
   8.300594e+01  -1.437058e+02
   1.330858e+02  -7.818141e-01
   6.979510e+01   3.367219e+01
  -4.190624e+01  -5.998880e+01
  -2.211689e+01  -1.161963e+02
   1.236827e+02  -9.944120e+01
   1.578069e+02   3.429658e+01
   8.495447e+01   4.104833e+01
  -5.303215e+01  -1.274417e+01
  -2.448333e+01  -7.836068e+01
   1.096944e+02  -5.053252e+01
   2.555325e+02   7.339662e+01
   2.681460e+02   1.319252e+02
   3.587124e+01   2.404582e+02
  -1.854616e+02   2.390932e+02
  -2.549119e+02   1.441176e+02
  -1.182371e+02  -2.458090e+01
   6.525677e+01  -6.432216e+01
   6.701703e+01   3.583501e+01
  -1.093167e+02   1.494523e+02
  -1.896899e+02   8.273371e+01
  -2.029628e+02  -1.280351e+02
  -5.406107e+01  -2.065550e+02
   4.988991e+01  -1.667125e+02
   8.262762e+01  -6.959685e+01
   4.133719e+01   4.056133e+01
   1.928435e+01   3.748001e+00
  -5.311415e+00  -6.903810e+01
   5.633172e+01  -7.776293e+01
   1.951813e+02  -4.467256e+01
   2.046643e+02   1.032617e+02
   2.175265e+01   2.003513e+02
  -2.094624e+02   1.725324e+02
  -2.032197e+02   4.199177e+01
  -7.411502e+01  -8.466540e+01
   4.885721e+01  -9.772412e+01
   5.375340e+01  -4.530290e+01
  -1.788207e+01   5.351887e+01
  -4.915864e+01  -1.036235e+01
   3.540557e+01   1.128487e+00
   8.046878e+01  -1.876634e-01
   1.117946e+02   8.578517e+01
   1.910681e+00   1.596205e+02
  -1.786688e+02   1.270958e+02
  -1.999525e+02   2.212585e+00
  -2.059652e+02  -1.470779e+02
   9.449953e+00  -2.038327e+02
   8.784524e+01  -1.610015e+02
   1.180931e+02  -3.465688e+01
   3.834973e+01   3.746467e+01
   4.089746e+00   2.320718e+01
   6.158438e+01  -2.563221e+01
   8.475471e+01  -9.840172e+00
   4.510320e+01   2.961722e+01
  -6.263775e+01   6.832121e+01
  -8.596136e+01   5.864394e+01
  -8.832998e+01  -6.031729e+01
   5.830964e+01  -1.149949e+02
   1.510423e+02  -6.120904e+01
   2.400898e+02   6.871080e+01
   9.757833e+01   2.671024e+02
  -1.107799e+02   2.544659e+02
  -2.822011e+02   9.389613e+01
  -2.958265e+02  -7.712809e+01
  -1.368988e+02  -1.794122e+02
   5.382951e+01  -1.136550e+02
   7.734963e+01  -6.686718e+01
   6.604341e+01  -7.095603e+01
   5.540120e+01  -1.125283e+02
   8.370734e+01  -7.781820e+01
   1.643302e+02   2.452359e+01
   1.152591e+02   1.639492e+02
  -2.214321e+00   2.060293e+02
  -7.994625e+01   1.661727e+02
  -1.651338e+02   1.435783e+00
  -1.061973e+02  -1.643368e+02
   1.222046e+01  -1.013145e+02
   3.584936e+01  -5.785458e+01
   7.990610e+01   1.001887e+01
  -5.023305e+01   6.031252e+01
  -4.850061e+01   2.620647e+01
   2.701404e+00   3.286948e+01
   4.743602e+01   2.174273e+01
   4.804705e+01   2.534724e+01
  -1.140296e+02   3.789501e+01
  -1.905937e+02  -1.296642e+01
  -1.591522e+02  -5.981547e+01
  -1.098461e+01  -7.879511e+01
   1.176619e+02  -2.913198e+01
   1.295315e+02  -1.675052e+01
   5.379283e+01   5.334533e+01
  -6.183730e+01   2.592760e+01
  -6.433933e+01  -2.654051e+01
  -1.812868e+01  -5.565360e+01
   4.717983e+01  -6.765777e+01
   8.709885e+01   4.425538e+01
   1.902578e+01   6.779884e+01
   4.004928e+01   2.808138e+01
   4.694455e+01  -7.165981e+00
   6.385677e+01  -2.797132e+01
   3.078602e+01   5.455543e+01
  -7.795299e+01   1.409658e+02
  -8.260253e+01   1.221283e+02
  -1.232002e+02   5.399391e+00
  -1.418632e+02  -9.279775e+01
  -1.755027e+01  -1.359569e+02
   6.704188e+01  -6.725683e+01
   5.266049e+01   5.892596e+00
  -4.567910e+01  -6.891954e+00
  -1.497927e+02  -3.912003e+01
  -7.980058e+01  -1.009797e+02
   9.595197e+01  -1.164770e+02
   1.827976e+02  -6.365766e+01
   1.644873e+02   1.629182e+01
   3.277773e+01   6.493727e+01
  -8.330003e+01   2.486149e+01
  -4.199412e+01   1.544794e+01
   8.044032e+01   2.578593e+01
   7.837425e+01   4.156720e+01
   2.358803e+01   1.246006e+02
  -7.542473e+01   1.111948e+02
  -1.227200e+02   5.535357e+01
  -1.239136e+02  -7.216216e+01
   5.323912e-01  -1.781665e+02
   1.611892e+01  -1.509288e+02
   9.653451e+01   6.419270e+00
   2.455867e+01   1.234330e+02
   5.300001e+01   9.396657e+01
  -2.553307e+01  -3.448816e+01
  -5.576444e+01  -3.262374e+01
  -4.978694e+01  -2.919282e+01
  -6.583452e+01   1.743479e+01
  -2.225113e+00  -7.374633e+01
  -1.115402e+01  -1.206608e+02
   1.599491e+01  -7.244443e+01
   9.337178e+01  -3.019293e+01
   1.274184e+02   7.923129e+01
   1.351044e+02   8.945060e+01
  -2.834721e+01   2.508776e+01
  -5.957027e+01  -2.167876e+01
  -1.009061e+02   1.098306e+00
  -1.239241e+01  -8.537455e+00
   7.093368e+01  -1.745202e+01
   9.511600e+00  -6.745100e+01
  -4.434190e+01   1.592760e+00
  -9.153890e+00   1.247311e+01
   6.282139e+01  -1.375733e+01
   9.118828e+01   4.188770e+01
  -1.181162e+01   1.053880e+02
  -1.116845e+02   8.996460e+01
  -2.285743e+02   4.379178e+01
  -1.697837e+02  -6.417747e+01
  -3.283637e+01  -1.393799e+02
   7.887069e+01  -1.598307e+02
   1.594491e+02  -5.245584e+01
   1.204481e+02   5.009392e+01
   2.460944e+01   6.439973e+01
  -2.438381e+01  -1.791226e+01
   3.965497e+01   7.220425e+00
   2.119342e+01   3.314405e+01
   3.531949e-01   8.526693e+01
  -4.994547e+01   1.224253e+02
  -6.949813e+01  -5.242265e+01
  -4.524512e+01  -1.338027e+02
  -1.482753e+01  -1.108862e+02
   4.716615e+01  -6.250687e+01
   9.485303e+01   6.756717e+01
   5.905315e+01   7.317173e+01
  -5.514007e+01   5.843919e+01
  -8.530259e+01  -1.075796e+01
  -4.472016e+01  -6.156674e+01
   8.284605e+00  -5.338700e+01
   1.694589e+01  -5.205196e+01
  -3.983473e+01   2.175057e+01
  -9.194275e+01  -1.948948e+01
   1.144300e+01  -6.216577e-01
   1.447684e+02  -5.175293e+01
   1.333970e+02  -3.293677e+01
   3.614961e+01   3.849063e+01
  -3.589372e+01   9.035327e+01
  -8.144817e+01   7.870908e+01
  -7.758420e+01   3.040085e+01
   3.527234e+01  -7.081157e+01
   6.234337e+01  -1.013583e+02
   4.180824e+00  -4.868766e+01
   4.409311e+01   5.104802e+01
   6.592436e+00   5.960367e+01
  -3.223086e+01  -4.194150e+01
   2.173994e+01  -4.163259e+01
  -2.696691e+01  -4.429749e+01
  -5.271369e+00   2.617751e+01
   7.546075e+00  -2.140301e+01
   3.952147e+00  -3.148030e+01
   1.605157e+00  -3.770578e+01
   3.455242e+01  -1.683332e+01
   4.746503e+01   8.227347e+01
   3.645416e+01   9.902946e+01
  -6.306366e+01   1.391984e+01
  -2.042036e+01   1.070808e+01
  -2.814340e+01  -7.079367e+01
   3.003185e+01  -4.973683e+01
   5.550660e+01  -5.343170e+00
   9.371358e+01   2.521781e+01
  -1.509656e+01   5.197687e+01
  -7.070456e+01   4.910302e+01
  -1.010733e+01   1.883630e+01
   3.144169e+01   1.942369e+01
   5.809588e+01   7.097163e+00
  -2.736306e+01   8.521555e+01
  -1.166397e+02   8.298585e+00
