
 $NMID
 id='ANONYMOUS ', fmtdat='(2E16.6)'
 volume=1.0
 tramp=1.0
 $END
   2.230931e+03  -1.014936e+02
   1.358285e+03   1.438280e+03
  -3.997025e+02   1.561719e+03
  -1.202759e+03   3.459996e+02
  -5.980992e+02  -5.847222e+02
   4.291735e+02  -3.219588e+02
   5.159615e+02   2.534634e+02
  -1.036664e+01   6.062801e+02
  -4.594468e+02   3.918271e+02
  -5.159872e+02  -2.409409e+02
  -1.957734e+02  -5.465689e+02
   1.252598e+02  -5.508105e+02
   4.592771e+02  -1.333131e+02
   2.376091e+02   4.276193e+02
  -1.739572e+02   4.936740e+02
  -2.498291e+02  -8.591078e+00
  -2.257537e+02  -6.040483e+02
   3.331676e+02  -2.721707e+02
   3.875093e+02   2.485720e+01
   9.779280e+01   7.589230e+01
   7.950555e+01   2.826922e+02
  -1.927630e+02   1.269164e+02
  -5.833333e+01  -5.417065e+01
   1.701414e+02  -8.846011e+01
   2.556270e+02   6.566196e+01
  -5.953952e+01   4.015440e+02
  -3.407866e+02   2.775675e+02
  -6.459121e+02   2.840238e+01
  -1.723120e+02  -3.304236e+02
   2.452130e+02  -1.761456e+02
   4.528365e+02   1.804056e+02
   1.829100e+02   2.885275e+02
  -1.647956e+02   3.463028e+02
  -2.771850e+02  -1.374903e+01
  -1.914959e+02  -2.030197e+02
  -5.080804e+01  -2.353732e+02
  -2.458404e+01  -2.029499e+02
   7.236146e+01   1.567414e+02
  -2.134395e+02   1.903343e+02
  -2.810135e+02  -6.382867e+01
  -1.033962e+02  -4.314504e+02
   1.758266e+02  -4.238908e+02
   4.046567e+02  -6.478859e+01
   1.657230e+02   2.752769e+02
  -1.778090e+02   2.271710e+02
  -1.788163e+02  -2.156341e+02
   6.924077e+01  -2.887926e+02
   3.667070e+02  -5.091958e+01
   3.172749e+02   2.486535e+02
  -2.292980e+01   3.410828e+02
  -2.752148e+02   1.407963e+02
  -3.335344e+02  -1.207787e+02
  -1.947654e+02  -2.895826e+02
   1.712614e+02  -2.329453e+02
   2.975450e+02  -1.140657e+01
   1.235524e+02   1.453803e+02
  -9.456578e+01  -3.340363e+01
  -4.220499e+01  -1.348760e+02
   2.115831e+02  -1.080351e+02
   2.281950e+02   8.321059e+01
   8.640356e+01   2.620659e+02
  -1.393421e+02   1.962151e+02
  -2.039071e+02   9.813813e+00
  -9.367811e+01  -8.346082e+01
  -5.783660e-01  -1.263621e+02
   9.117682e+01  -2.122318e+02
   2.088315e+02  -9.456878e+01
   1.771946e+02   1.347318e+02
   2.816872e+01   2.965518e+02
  -8.300521e+01   1.996979e+02
  -5.028973e+01   1.172149e+01
   4.333593e+01  -5.872952e+01
  -1.505925e+00   5.188252e+01
  -1.189272e+02   8.895148e+01
  -1.936668e+02  -2.490422e+01
  -1.513123e+02  -1.324726e+02
   6.079853e+01  -2.035925e+02
   1.673000e+02  -4.411600e+01
   1.269591e+02   1.548427e+02
  -4.701225e+01   1.713685e+02
  -1.659634e+02   8.725214e+01
  -1.666220e+02  -1.310244e+02
  -7.015949e+01  -1.835264e+02
   1.408805e+02  -1.167115e+02
   1.239084e+02  -9.937525e+00
   4.273362e+01   3.452695e+01
   1.495738e+01  -7.289770e+01
   1.072430e+02  -6.773293e+01
   1.645284e+02   5.002633e+01
   1.619644e+02   2.326153e+02
   1.372228e+01   2.592398e+02
  -2.128129e+02   2.270747e+02
  -2.901615e+02   7.444664e+01
  -2.009618e+02  -8.743790e+01
  -3.359398e+01  -1.928405e+02
   5.697060e+01  -1.598909e+02
   2.332595e+01  -2.035495e+01
  -1.121252e+01   2.308079e+01
  -7.652317e+01  -1.372618e+01
  -5.528121e+01  -9.452881e+01
   1.042023e+02  -9.250205e+01
   1.172510e+02   8.175355e+00
  -1.617235e+01   1.524931e+02
  -1.213342e+02   4.757569e+01
  -6.354003e+01  -1.608209e+02
   2.487959e+01  -2.026210e+02
   1.152360e+02  -9.454644e+01
   1.627630e+02   4.825715e+01
   7.869113e+01   1.384795e+02
   4.058228e+01   1.481156e+02
  -8.436429e+01   3.083213e+01
  -1.034604e+02   1.502395e+01
  -3.685623e+01  -2.026654e+01
   9.289462e+01   2.751758e+00
   3.281970e+01   5.148467e+01
  -3.226109e+01   5.660742e+01
  -6.832162e+01  -2.958935e+01
  -5.355661e+01  -2.595710e+01
   6.312298e+01  -1.568662e+01
   3.721129e+01   2.483369e+01
  -9.549708e+01   2.795764e+00
  -1.446139e+02   3.499092e+00
  -1.314401e+02  -3.943357e+01
  -7.251038e+00  -1.305713e+02
   5.719741e+01  -1.690757e+02
   1.893285e+02  -5.917506e+01
   9.905723e+01  -3.305679e+01
  -3.246055e+01   1.007720e+02
  -7.635091e+01   8.778572e+00
   3.897051e+00  -1.089832e+02
   9.785775e+01  -5.871204e+01
   1.486365e+02   8.118734e+01
   4.314100e+01   1.455335e+02
  -6.322686e+01   9.112140e+01
  -6.770217e+01  -5.433479e+00
   2.610563e+01  -4.877159e+01
   7.382412e+01   1.649247e+01
   2.750424e+01   1.381002e+02
  -6.218628e+01   8.626121e+01
  -1.469051e+02   1.798276e+01
  -1.610021e+02  -9.902342e+01
  -1.652873e+01  -1.489329e+02
   6.276777e+01  -1.263545e+02
   1.416883e+02  -1.957502e+00
   5.561852e+01   6.855393e+01
  -6.321921e+00   5.891027e+01
  -4.923598e+01  -1.909597e+01
   4.099776e+01  -3.499277e+01
   1.100973e+01  -4.367263e+01
   1.863744e+01  -1.579965e+01
  -7.176432e+01  -1.372788e+01
  -3.850949e+01  -2.963261e+00
  -8.335299e-01  -8.744311e+01
   1.302834e+02  -6.696086e+01
   1.442628e+02  -7.791401e+00
   9.171761e+01   5.200653e+01
   2.303472e+01   1.407350e+02
  -5.467132e+00   1.224005e+02
  -7.813944e+01   4.874135e+01
  -1.112342e+01  -1.962351e+01
   3.637950e+01  -1.031002e+01
  -2.928126e+01  -5.178590e+00
  -3.367492e+01   3.497411e+01
  -3.626431e+01  -3.868446e+01
  -9.067862e+00  -7.887650e+01
   7.186456e+01  -6.113151e+01
   6.138174e+01  -7.570860e+00
   1.253267e+01   5.044804e+01
  -4.587611e+01   5.762497e+01
  -1.031083e+02  -4.910316e+01
  -5.219938e+01  -1.171624e+02
   8.914535e+01  -1.180377e+02
   1.211299e+02  -2.756663e+01
   1.863370e+02   5.704949e+01
  -1.266275e+01   6.884079e+01
  -1.998960e+01   8.845631e+01
  -1.059674e+02   6.217295e+01
  -7.851719e+01   3.908823e+01
  -5.632141e+01   6.641028e+01
  -6.097042e+00   3.830506e+01
  -4.430454e+01  -3.548064e+01
  -2.266630e+01  -6.896599e+01
  -9.586177e+00  -1.044599e+02
   9.877797e+01  -8.670823e+01
   8.994289e+01   7.043881e+00
   4.047682e+01   9.283155e+01
  -4.410842e+01   1.147185e+02
  -1.117197e+01   3.364242e+01
  -3.589832e+01  -4.040763e+00
   3.579244e+01  -4.089710e+01
   8.004644e+00  -5.648582e+01
  -2.085286e+00   5.655095e+00
  -4.002551e+01  -4.502778e+00
  -3.310064e+01  -1.905342e+01
   8.065220e+01  -2.478716e+01
   8.700300e+01  -1.507274e+01
   8.974264e+01   1.932960e+01
   4.268161e+01   4.055146e+00
  -4.197126e+01   5.648688e+01
  -6.767217e+01  -2.061188e+00
   4.943683e+00  -4.243910e+01
   7.679340e+01  -2.851915e+01
   8.066950e+01   4.569276e+01
  -1.930823e+00   5.086336e+01
  -3.549854e+01   5.380277e+01
  -5.108451e+01   2.196413e+01
  -6.124659e+01  -3.064563e+01
  -1.383829e+01  -8.085754e+01
  -2.327331e+01  -2.018827e+01
  -2.170890e+01  -2.089129e+01
  -8.959752e+00  -1.249584e+01
   1.020550e+01  -7.386411e+01
   4.907345e+01  -4.952369e+01
   6.513436e+01  -2.934692e+01
   1.426776e+01   7.118002e+01
   1.302180e+01   3.872413e+01
  -5.255675e+01   2.998675e+01
  -2.877525e+01  -2.424077e+01
   3.501664e+01  -2.091761e+01
   8.081917e+01   2.349618e+01
   4.897540e+01   7.265378e+01
  -4.928710e+01   7.579396e+01
  -8.779680e+01   1.790066e+01
  -8.113316e+01  -4.764633e+01
  -1.643554e+00  -3.933655e+01
   5.436447e+01  -2.336677e+01
   8.232453e+01   3.288623e+01
   6.908845e+00   4.053039e+01
  -5.461718e+01   3.143649e-01
  -4.634779e+01  -5.717286e+01
   1.779351e+00  -7.028664e+01
   8.165830e+01  -4.310315e+01
   5.319322e+01   1.546051e+01
  -1.694765e+01   1.115560e+02
  -6.183421e+01   1.002630e+02
  -6.248626e+01  -7.094473e+00
  -3.002325e+01  -4.615328e+01
   4.515903e+00  -5.935815e+01
   3.711114e+01  -5.873251e+00
   4.087719e+01  -4.412737e+00
   2.912911e+01   1.631336e+01
   2.622241e+01   1.331538e+01
   4.229199e+01   9.830306e+00
   3.904357e+01   5.256383e+01
   2.350879e+01   6.868490e+01
  -7.526633e+01   3.160575e+01
  -6.700330e+01  -9.010914e+01
  -4.832005e+01  -7.631445e+01
   6.821134e+00  -7.181440e+01
   8.529956e+01  -2.687544e+01
   5.669196e+01  -3.284967e+00
  -3.856668e+01   3.979107e+01
  -6.941128e+01   9.549421e+00
  -5.368178e+01  -2.100361e+01
   3.383199e+01  -1.391892e+00
  -2.810441e+01   6.969855e+00
  -3.375224e+01   3.140386e+01
  -4.977634e+01  -9.276125e-01
  -1.414974e+01  -1.939955e+01
   5.262189e+01  -4.890604e+01
   1.050710e+02  -4.756794e+01
   9.132548e+01   3.688262e+01
   4.768587e+01   1.184310e+02
  -8.858437e+01   8.846878e+01
  -2.842546e+01   5.776037e+01
  -5.145842e+01  -4.685868e+01
  -2.012436e+01  -2.513672e+01
   3.764345e+00  -1.027081e+01
   4.919845e+01   3.392081e+01
   9.367579e+00  -2.599628e+01
   2.904559e+01  -8.159017e+01
  -3.379437e+01  -5.776525e+01
   6.082807e+01   2.750392e+01
   2.245980e+01   8.936202e+01
  -3.736153e+00   6.688772e+01
  -5.274124e+01   7.037072e+00
  -6.303275e+01  -7.255450e+01
  -2.048444e+01  -4.031480e+01
   5.602318e+01  -5.773993e+01
   4.349744e+01   3.780032e+01
  -1.789760e+01   1.724046e+01
  -7.965101e+01   5.859572e+01
  -7.014050e+01   2.683086e+01
   3.245998e+01  -2.862573e+01
   6.787769e+01  -3.291870e+01
   2.418330e+01   1.553533e+01
  -3.088648e+01   9.176162e+00
  -8.498195e+01   5.308791e+01
  -4.632333e+01  -4.687947e+01
   3.102265e+01  -2.827320e+01
   8.181764e+01  -5.217087e+01
  -8.749407e+00   1.525790e+01
   5.544891e+00   5.665489e+01
  -3.965439e+01   2.425995e+01
  -4.570878e+01   1.303880e+01
  -7.892888e+00  -1.275664e+01
   6.220573e+01  -8.201652e+00
  -1.455293e+01   1.044501e+01
   4.978944e+01   9.613652e+00
  -2.430081e+01  -1.871256e+00
  -3.078559e+01  -3.140726e+01
  -4.236347e+01  -3.090593e+01
   1.324655e+01  -4.547924e-01
   1.777446e+01   1.306932e+01
  -4.596537e+00   1.114645e+01
  -3.376695e+01  -1.343328e+01
   1.208582e+01  -3.680707e+01
   6.782902e+00   1.318605e+01
  -8.071716e+00   8.365496e+01
  -1.148811e+01   4.998391e+01
  -2.278887e+01   1.877711e+00
  -5.669463e+01  -2.350613e+01
   1.945841e+01  -9.158988e+01
   1.204368e+01  -6.676825e+01
   4.933497e+01  -3.034847e+01
   2.865641e+01   1.182701e+01
  -2.353467e+01   3.363943e+01
  -1.609073e+01   4.286185e+00
   2.432365e+01  -5.443737e+01
   4.232219e+01  -7.868494e+00
