
 $NMID
 id='ANONYMOUS ', fmtdat='(2E16.6)'
 volume=1.0
 tramp=1.0
 $END
  -3.542913e+03   5.932886e+01
  -2.333520e+03  -2.509899e+03
   7.272384e+02  -2.671715e+03
   2.082600e+03  -8.839450e+02
   8.524270e+02   7.920004e+02
  -6.857188e+02   5.302314e+02
  -8.999144e+02  -2.881853e+02
  -6.660238e+00  -9.978695e+02
   8.815181e+02  -8.340041e+02
   1.026907e+03   1.498855e+02
   4.414356e+02   8.495956e+02
  -1.901033e+02   7.341279e+02
  -5.916205e+02   1.297629e+02
  -3.716221e+02  -7.061197e+02
   3.993884e+02  -7.539506e+02
   8.029146e+02  -5.238394e+01
   2.774779e+02   6.219290e+02
  -4.131267e+02   4.291815e+02
  -5.659974e+02  -7.822377e+01
  -2.685812e+02  -3.972523e+02
   9.670234e+01  -5.035834e+02
   3.205259e+02  -3.001422e+02
   2.527230e+02   8.206263e+01
  -1.380636e+02   1.340585e+02
  -3.708382e+02   2.844798e+00
  -1.654481e+02  -5.102644e+02
   3.300842e+02  -3.857321e+02
   7.162230e+02  -3.254727e+01
   3.755028e+02   5.598360e+02
  -4.382258e+02   4.592787e+02
  -7.081711e+02  -4.762279e+01
  -2.157722e+02  -5.326692e+02
   3.708878e+02  -4.640236e+02
   5.587554e+02  -1.860329e+02
   3.220248e+02   3.548516e+02
  -1.343182e+01   4.882312e+02
  -2.844010e+02   3.871402e+02
  -2.647550e+02  -2.493118e+02
   1.398427e+02  -3.703563e+02
   4.538523e+02  -3.589464e+01
   2.159625e+02   6.725510e+02
  -3.573133e+02   5.991358e+02
  -6.051701e+02  -2.421747e+01
  -2.082074e+02  -5.554285e+02
   3.301510e+02  -3.255118e+02
   3.855341e+02   3.367627e+02
  -4.758477e+00   5.594187e+02
  -5.275591e+02   1.627838e+02
  -5.309052e+02  -3.997292e+02
  -1.726429e+02  -6.242604e+02
   3.430445e+02  -3.828823e+02
   6.096070e+02   6.162754e+01
   3.968290e+02   3.566118e+02
  -1.055625e+02   3.714773e+02
  -4.209621e+02   3.952111e+01
  -2.513085e+02  -1.641265e+02
   1.585481e+02  -4.796270e+01
   1.789361e+02   1.571613e+02
  -1.837976e+02   1.641729e+02
  -3.247620e+02  -7.161388e+01
  -1.414494e+02  -2.789161e+02
   2.005441e+02  -2.079329e+02
   3.218761e+02  -5.934459e+01
   1.914072e+02   3.711362e+01
  -3.410971e+01   1.805064e+02
  -1.329833e+02   2.340862e+02
  -2.896459e+02   1.953149e+02
  -2.344839e+02  -1.071823e+02
  -5.212365e+01  -3.832123e+02
   1.299190e+02  -3.205285e+02
   1.507250e+02  -3.523144e+01
  -1.181843e+01   1.306469e+01
  -1.709591e+00  -6.689797e+01
   1.441067e+02  -1.674210e+02
   2.480507e+02   6.512033e+01
   1.003671e+02   2.625841e+02
  -9.106236e+01   2.447862e+02
  -2.033459e+02  -3.047626e+01
  -1.517766e+02  -2.951808e+02
   3.142170e+01  -2.798057e+02
   2.857560e+02  -1.200056e+02
   3.235470e+02   1.755040e+02
   1.685596e+02   3.566863e+02
  -1.066637e+02   2.954115e+02
  -2.789389e+02   2.953673e+01
  -1.825226e+02  -4.269406e+01
  -4.843203e+01   2.252007e+01
  -2.058236e+02   6.047081e+01
  -3.739118e+02  -4.520141e+01
  -2.691272e+02  -3.179729e+02
   8.457765e+00  -4.357489e+02
   3.591542e+02  -3.002544e+02
   4.544541e+02  -1.070735e+02
   3.033140e+02   1.461618e+02
   8.933572e+01   2.692221e+02
  -1.116999e+02   2.165858e+02
  -9.586279e+01   9.378855e+01
   4.955530e+01  -1.081024e+02
   1.724466e+02  -9.739645e+00
   8.498057e+01   1.544734e+02
  -1.180590e+02   1.355541e+02
  -1.877432e+02  -8.929809e+01
   2.998330e+01  -2.310046e+02
   2.213895e+02  -5.729119e+01
   1.918467e+02   2.538260e+02
  -2.952519e+01   3.638520e+02
  -2.449377e+02   2.029304e+02
  -2.623341e+02  -4.991581e+01
  -1.949367e+02  -2.154322e+02
  -4.846830e+01  -1.908013e+02
   1.214057e+02  -8.835630e+01
   1.476918e+02  -3.315175e+01
   5.394949e+01   1.300315e+00
  -3.342092e+01  -5.863924e+01
  -4.100915e+00  -7.663268e+01
   1.117362e+02  -5.904254e+01
   1.090047e+02  -4.722155e+00
   4.223025e+01   9.940218e+01
  -1.058621e+02   6.452115e+00
  -3.274054e+01  -1.108286e+02
   1.448536e+02  -8.530478e+01
   2.710508e+02  -1.936301e+01
   2.198433e+02   1.453663e+02
   4.995203e+01   2.169453e+02
  -1.625373e+02   2.732034e+02
  -2.731585e+02   9.390230e+01
  -1.517593e+02  -6.506701e+01
   2.220366e+01  -9.945594e+01
   6.886624e+01   9.858545e+00
  -4.274230e+01   8.108978e+01
  -1.805644e+02  -9.748656e+00
  -1.696393e+02  -8.380767e+01
  -2.242400e+01  -2.262975e+02
   1.030572e+02  -1.311386e+02
   1.170883e+02   4.994965e+00
   3.609868e+01   4.647677e+01
  -3.627730e+01   2.720315e+01
  -4.833757e+01  -5.231500e+01
   5.466667e+01  -1.313032e+02
   1.774249e+02  -8.229504e+01
   1.660085e+02   8.727406e+01
   4.765127e+01   2.154381e+02
  -1.797924e+02   1.488429e+02
  -1.686609e+02  -1.685007e+01
  -3.596081e+01  -1.002391e+02
   6.194274e+01  -1.011466e+02
   5.960023e+01  -2.788702e+01
   1.079948e+01   8.120480e+01
  -8.413204e+01   3.035669e+01
  -1.300883e+01  -3.186064e+01
   5.774378e+01  -1.894543e+01
   5.673513e+01   4.277103e+01
   4.200948e+00   1.070788e+02
  -1.377671e+02   1.585348e+02
  -2.273762e+02   3.481402e+01
  -1.850270e+02  -1.294357e+02
   2.112465e+01  -2.231378e+02
   1.259380e+02  -1.426241e+02
   1.381031e+02  -4.904876e+01
   4.568725e+01   5.531931e+01
   3.314903e+01   4.039758e+01
   1.963097e+01  -3.232760e+01
   1.027816e+02   1.287005e+01
   1.395317e+01   3.679343e+01
  -4.264896e+01   8.052314e+01
  -8.144616e+01   8.879478e+00
  -4.944778e+01  -3.988368e+01
   3.341314e+01  -1.282999e+02
   1.241700e+02  -6.801931e+01
   1.422033e+02   7.109379e+01
   6.603565e+01   2.020007e+02
  -8.408650e+01   2.064924e+02
  -2.154265e+02   6.549086e+01
  -1.983766e+02  -7.948372e+01
  -1.121957e+02  -1.394676e+02
   1.875202e+01  -1.494027e+02
   6.979049e+01  -6.482096e+01
   7.998885e+01  -9.176461e+01
   8.597854e+01  -8.013735e+01
   1.091236e+02  -6.699959e+01
   1.246421e+02   3.189483e+01
   2.071213e+01   1.373205e+02
   1.249204e+00   2.028621e+02
  -8.654129e+01   1.729957e+02
  -1.641700e+02  -4.731973e+01
  -1.558112e+02  -1.670261e+02
  -3.567912e+01  -1.475019e+02
   1.113892e+02  -9.327611e+01
   4.657278e+01   5.197649e+01
   2.367769e+01   9.514814e+00
   8.933082e+00   2.558781e+01
   5.195377e+01   1.013643e+01
   6.817733e+01   3.478419e+01
   3.300203e+01   8.146885e+01
  -6.313595e+01   5.072370e+01
  -1.210732e+02  -1.770903e+01
  -1.200011e+02  -3.491639e+01
   8.158717e+00  -7.946396e+01
   7.615363e+01  -4.618938e+01
   1.251498e+02   1.641859e+01
  -1.445621e+01   4.505788e+01
  -9.781459e+01   3.302608e+01
  -8.501595e+01  -6.178040e+01
  -3.319969e+01  -5.645016e+01
   6.574374e+01  -9.248073e+01
   8.930383e+01   1.809259e+01
   7.991234e+01   4.461565e+01
   9.894621e-02   3.063475e+01
   6.966099e+01  -3.431456e+01
   8.639244e+01   1.124767e+00
   1.787232e+01   2.391048e+01
  -3.137386e+00   1.467087e+02
  -4.707541e+01   1.730820e+02
  -9.034493e+01   1.958290e+01
  -1.274481e+02  -9.824771e+01
  -6.050172e+01  -1.401524e+02
   8.201602e+01  -3.426773e+01
   2.606297e+01   2.329219e+01
  -5.368147e+01  -4.899954e+01
  -9.914127e+01  -3.908102e+01
  -3.175501e+01  -1.166601e+02
   8.815836e+01  -7.401759e+01
   1.691237e+02  -1.946282e+01
   1.072640e+02   1.618397e+01
   4.034545e+00   7.616204e+01
  -4.088797e+01   6.253347e+01
  -2.649714e+01   5.557358e+01
   3.760196e+01  -1.244253e+01
   6.584276e+01   2.527829e+01
  -2.444174e+01   6.739247e+01
  -5.818033e+01   6.444206e+01
  -1.236491e+02   7.538445e+01
  -1.208894e+02  -8.726345e+01
  -1.752376e+01  -1.635188e+02
   8.482796e+01  -1.037779e+02
   8.364281e+01  -1.538785e+01
   4.197694e+01   8.499541e+01
  -1.386861e+01   9.407119e+01
  -2.140382e+01   2.402551e+01
  -6.820727e+01  -2.915225e+01
  -3.651444e+01  -7.766928e+00
  -1.760006e+01   2.230132e+01
   3.140197e+00  -4.220447e+00
  -3.263281e+01  -8.237249e+01
  -4.599793e+01  -1.526949e+02
   3.547727e+01  -1.292173e+01
   1.123871e+02   7.882627e+01
   1.234481e+02   4.938085e+01
   3.043924e+01   1.983302e+00
  -7.614980e+01  -4.095228e+00
  -9.382477e+01   2.081800e+01
  -5.163837e-01   1.917280e+01
   1.920970e+01  -1.446914e+00
  -4.808794e-01  -3.855503e+01
  -3.136029e+01  -2.251078e+01
  -5.422388e+00  -6.868484e+00
   8.577781e+01   5.211201e+01
   5.998121e+01   4.037757e+01
   1.224353e+01   7.427649e+01
  -8.718111e+01   5.527009e+01
  -1.715808e+02   3.449250e+01
  -1.210790e+02  -5.265970e+01
  -3.101609e+01  -1.012450e+02
   9.930378e+01  -1.112187e+02
   8.277362e+01  -2.350277e+01
   2.257800e+01   2.455728e+01
   3.425320e+01   6.513048e+01
  -2.239499e+01  -1.992386e+01
   2.409481e+01  -2.197704e+01
   7.912587e+01   7.186926e+01
   5.952761e+00   6.486764e+01
   1.097940e+00   8.856612e+01
  -8.132550e+01  -1.615857e+01
  -5.921962e+01  -1.049510e+02
  -3.194540e+00  -9.080924e+01
   8.923677e+01   1.636804e+01
   6.990666e+01   5.190225e+01
   2.110437e+01   5.759508e+01
  -7.503214e+01   2.328276e+01
  -1.017234e+02  -1.387152e+01
   3.748154e+01  -5.199386e+01
   6.052917e+01  -5.270388e+01
   6.423794e+01  -3.402747e+01
  -1.076973e+01   6.837622e+00
  -8.020083e+01   8.787961e+00
  -1.360813e+01  -1.005204e+01
   5.099215e+01  -6.703592e+01
   1.011761e+02  -3.888584e+01
   4.063259e+01   1.201940e+01
  -4.150315e+00   6.134513e+01
  -3.132931e+01   8.833994e+01
  -3.869144e+01   1.125546e+01
  -1.222289e+01  -5.173297e+01
   1.645757e+01  -4.876748e+01
  -2.568230e+00   7.647496e+00
  -9.841600e+00   3.255541e+01
  -8.118936e+00   5.005206e+01
  -3.524177e+01  -5.503964e+01
   6.087894e+00  -9.538045e+01
   2.988218e+01  -4.959065e+01
   2.943246e+01  -3.112392e+01
   3.241621e+01  -1.486631e+01
   3.199018e+01  -3.889271e+01
   2.480855e+01  -6.397989e+01
   8.637749e+01  -3.022237e+00
   4.815743e+01   4.229338e+01
  -8.209729e-01   8.740677e+01
  -4.759382e+01   4.659120e+01
  -6.374367e+01  -4.010700e+01
   8.941253e+00  -6.588983e+01
  -5.053307e-01  -5.491895e+01
   8.211257e+01   2.630786e+01
   4.741118e+01   9.900047e+01
  -3.405190e+01   4.086959e+01
  -6.010175e+01   4.310622e+01
  -5.049674e+01  -7.866810e+00
   4.106861e+01  -4.114837e+00
   4.138504e+01   2.980380e+01
  -3.623011e+01   1.903722e+00
  -6.992021e+01   3.098552e+01
