
 $NMID
 id='ANONYMOUS ', fmtdat='(2E16.6)'
 volume=1.0
 tramp=1.0
 $END
  -1.825094e+03  -2.037794e+02
  -9.289199e+02  -1.150742e+03
   8.788157e+01  -1.228498e+03
   7.646104e+02  -4.279614e+02
   2.712905e+02   2.420104e+02
  -2.903034e+02   1.283831e+02
  -3.347222e+02  -1.962841e+02
   2.059290e+02  -4.146287e+02
   2.897389e+02  -3.032526e+02
   3.751554e+02   7.458204e+01
   2.069270e+02   2.800837e+02
  -2.839411e+01   3.105635e+02
  -2.572007e+02  -1.136094e+02
   6.443402e+01  -2.642304e+02
   2.035392e+01  -2.149703e+02
   1.237957e+02   2.183564e+02
   2.151069e+02   2.196980e+02
  -1.433160e+00   3.699611e+02
  -2.654846e+02   1.122817e+02
  -5.694870e+01  -9.948516e+01
   5.712471e+01  -1.444750e+02
   1.335325e+02  -2.458534e+02
  -2.201900e+01   4.950243e+01
  -1.534686e+02   6.897056e+01
  -2.653071e+01  -1.143092e+02
  -2.211008e+01  -2.151320e+02
   2.441971e+02  -2.274540e+02
   1.905729e+02   6.239276e+01
   9.608873e+01   3.446094e+02
  -2.088274e+02   2.189690e+02
  -3.227920e+02  -7.381073e+01
  -1.227955e+02  -1.969742e+02
   1.735036e+02  -2.332474e+02
   2.454984e+02  -4.039475e+01
   1.189853e+02   1.217316e+02
  -8.786873e+01   1.794567e+02
  -1.795934e+02   1.318289e+02
  -9.339880e+01  -9.119565e+01
   4.657791e+01  -2.102153e+02
   1.709382e+02  -4.351489e+00
   8.983783e+01   2.618263e+02
  -1.120053e+02   2.120561e+02
  -1.415344e+02  -3.036019e-01
  -8.688324e+01  -1.985227e+02
   9.623663e+01  -1.273647e+02
   1.470426e+02   9.991989e+01
   2.560504e+01   1.892149e+02
  -1.606207e+02   8.606286e+01
  -2.540513e+02  -1.584330e+02
  -8.845106e+01  -2.074422e+02
   1.135612e+02  -1.540046e+02
   2.207639e+02  -1.561017e+01
   1.628517e+02   8.705194e+01
  -4.287783e+01   1.153674e+02
  -1.988684e+02   1.442761e+01
  -6.432064e+01  -5.394487e+01
   1.005584e+02  -5.113466e+01
   7.979862e+01   6.646865e+01
  -2.278686e+01   6.242649e+01
  -1.203216e+02  -9.289938e+00
  -2.514255e+01  -7.335600e+01
   4.312359e+01  -1.254384e+02
   7.995993e+01   2.899286e+00
   8.615904e+01   1.120663e+01
   1.758017e+01   7.828744e+01
  -7.310881e+01   1.361031e+02
  -1.722977e+02   5.445684e+01
  -1.440971e+02  -6.681124e+01
  -6.958956e+00  -2.231546e+02
   5.299029e+01  -1.582894e+02
   5.733499e+01  -2.443189e+01
   9.096134e+00   3.329612e+01
  -4.329703e+01   6.710939e+00
   4.577495e+01  -7.320468e+01
   1.196638e+02   6.507586e+00
   6.986719e+01   9.226345e+01
  -8.043957e+01   3.515902e+01
  -5.570232e+01  -4.697400e+01
  -1.425897e+01  -8.088110e+01
  -2.650664e+01  -9.350446e+01
   8.977286e+01  -5.940013e+01
   1.515220e+02   7.536065e+01
   6.937490e+01   1.809274e+02
  -4.790766e+01   6.925356e+01
  -4.271950e+01   2.338978e+01
  -4.502343e+01  -2.424764e+01
  -7.606886e+01   2.046771e+01
  -6.844038e+01   3.180472e+01
  -1.376738e+02  -6.269700e+01
  -1.247368e+02  -6.609859e+01
   3.487523e+01  -1.749511e+02
   1.385950e+02  -8.923809e+01
   1.699547e+02  -3.508600e+01
   1.815517e+01   3.153087e+01
   2.942158e+00   5.916489e+01
  -5.099446e+01   5.917338e+01
  -6.604183e+01   3.028376e+01
   2.173635e+01  -7.995956e+01
   3.546317e+01  -2.986000e+01
   3.569270e+01   3.513226e+01
  -3.353306e+01  -2.061990e+00
  -6.226735e+01  -3.406447e+01
   7.287526e+00  -5.881803e+01
  -5.022140e+00  -2.041151e+01
   4.881566e+01   7.265331e+01
   1.646371e+00   1.076238e+02
  -6.011447e+01   1.368527e+02
  -1.266177e+02  -5.351820e+01
  -1.105553e+02  -1.322307e+02
  -9.612107e+00  -1.030222e+02
  -1.704317e+00  -5.312404e+01
   4.388670e+01   5.596583e+01
  -2.620045e+01   5.200410e+00
  -6.517908e+01  -2.613369e+01
  -1.001822e+01  -6.182599e+01
   4.240633e+01  -7.359078e+01
   6.617360e+01  -9.025835e-01
   6.352164e+01  -1.162056e+01
  -3.525901e+01   1.714496e+01
  -4.526375e+01   6.763776e+00
  -6.885077e+00  -1.903812e+01
   1.328746e+02  -2.057742e+01
   7.258974e+01   3.197719e+01
   4.850430e+01   9.235944e+01
  -8.869375e+01   7.284875e+01
  -1.632410e+02   2.041243e+01
  -3.836469e+01  -7.276292e+01
  -1.433995e+01  -2.172251e+01
   2.370894e+01   2.417380e+01
  -2.617525e+01  -5.119546e-02
  -1.781428e+01  -9.938152e-01
  -3.358752e+01  -6.845738e+00
  -6.058885e+01  -6.118527e+01
  -4.749887e+00  -5.002506e+01
   4.275949e+01  -9.432061e-01
  -2.221042e+01   2.075405e+01
   3.284754e+01  -1.023428e+01
  -2.679342e+01  -1.881436e+01
  -6.532691e+00   1.224267e+01
   8.310981e+01  -3.716291e+01
   1.004269e+02   2.810446e+01
  -6.747436e+00   1.135841e+02
  -7.747184e+01   9.633442e+01
  -6.295715e+01  -2.060711e+01
  -3.256825e+01   2.138674e+01
   1.216190e+01  -8.025375e+00
  -2.323726e+01  -4.580254e+01
  -7.484496e+00   4.221624e+01
   2.555637e+01   8.485591e+00
  -1.375099e+01  -1.711623e+01
   6.830776e+00  -2.712659e+01
   3.323352e+01   1.602539e+01
   1.664869e+01   8.211666e+01
  -3.924837e+01   8.046500e+01
  -9.746801e+01   1.518433e+01
  -3.885821e+01  -6.485508e+01
   7.368271e+00  -9.002391e+01
   6.063667e+01  -7.319271e+01
   7.929051e+01  -3.198832e+01
  -2.542986e+00   2.100924e+01
  -2.366472e+00   2.339813e+00
   5.900543e+01  -3.959659e+00
   4.071982e+01   1.183660e+01
   3.492037e+01   3.364582e+01
  -3.529968e+00   4.118404e+01
  -1.172734e+01   2.379422e+01
  -4.301288e+01   3.250068e+01
  -4.905824e+01  -4.377608e+01
   1.660525e+01   1.308908e+00
   3.644964e+01   2.854832e+01
   1.561051e+01   4.041531e+01
  -2.275608e+01   5.524929e+01
  -8.311986e+01   3.935470e+01
  -1.003464e+02  -1.629246e+01
  -4.253912e+01  -5.812604e+01
   1.168083e+01  -3.856576e+01
   1.962920e+01  -9.896367e-01
   6.490415e+01  -7.989130e+00
   2.107965e+01  -1.694590e+01
   2.617091e+01  -3.863269e+01
   6.181305e+01  -1.195063e+01
   6.740434e+01   7.277655e+01
   1.801503e+01   6.957197e+01
  -3.126746e+01   2.540827e+01
  -6.911153e+01  -4.684166e+01
   3.133207e+00  -2.138195e+01
   1.990040e+01  -4.767498e+01
   5.086868e+01  -6.546838e+01
   1.555659e+01  -5.934290e+00
  -1.089790e+01   1.954825e+01
  -1.005325e+01   4.741286e+01
   5.300001e+01   9.016501e-01
   3.845057e+01  -2.952295e+01
   1.780569e+01   2.243407e+01
  -3.193264e+01   2.976417e+01
  -6.920988e+01   1.989361e+01
  -2.882869e+01  -4.933039e+01
   3.978801e+00  -1.931047e+01
   5.430540e+01  -1.653244e+00
   3.898983e+01  -2.175750e+01
   4.024028e+01   5.235840e+01
  -5.614475e+00   2.278833e+01
  -3.737066e+01  -4.010023e+01
  -2.272310e+01  -4.105196e+01
   7.056377e+01  -2.422460e+01
   2.015321e+01  -1.599930e+01
   3.192297e+01   3.690264e+01
   1.735433e+01   2.334363e+01
   3.917143e+01  -1.148736e+01
   6.297525e+00  -1.657988e+01
   4.814740e+01   1.408710e+01
  -6.687044e+00   5.220421e+01
  -4.012108e+01   8.460970e+01
  -9.094271e+01   5.280365e+01
  -4.059721e+01  -4.232823e+01
  -1.850470e+00  -4.447210e+01
   2.724817e+01  -6.018934e+00
   3.296897e+01  -2.127370e+01
  -2.973083e+01  -5.281296e+00
  -1.178140e+01   1.375343e+01
  -3.911435e+01  -2.066649e+01
   8.452560e+00  -8.325653e+01
   4.768136e+01   9.306337e+00
   8.508718e+01   5.590988e-01
  -2.481202e+01  -1.329661e+01
  -1.381560e+01   8.947282e+00
  -3.998474e+01   5.625254e+00
  -6.976153e+00  -2.651104e+01
   5.230393e-01   2.391954e+01
   3.032759e+01   3.837211e+01
  -9.568580e+01   6.586007e+01
  -8.608735e+01   5.155067e+01
  -5.406348e+01  -4.009898e+01
  -2.243729e+01  -9.224136e+01
   9.005159e+00  -6.995960e+01
   6.157572e+01   3.313331e+01
   3.549214e+01   4.676639e+01
  -3.163008e+00   7.973059e+01
  -7.924687e+00   3.108747e+01
  -5.184823e+01  -3.220978e+01
  -2.102517e+01   4.172770e+01
   1.857143e+01   2.046054e+01
  -3.820789e-01  -4.770197e-02
  -4.787401e+01  -6.059482e+01
  -2.867139e+01  -4.616062e+01
   5.167392e+00  -4.562882e+01
   4.593775e+01  -4.080128e+00
   8.159787e+01  -1.085327e+00
   4.873758e+01   2.417377e+01
  -4.667867e+01   4.257602e+01
  -2.207602e+01   1.388405e+01
   2.397290e+01  -1.244326e+01
   3.196344e+00  -2.589268e+00
   2.955527e+00   3.034111e+01
   5.850806e+00  -1.005413e+01
   1.113571e+01   3.720911e+01
   2.600326e+01   9.910347e-01
   1.457470e+01   2.673507e+01
  -2.506189e+01   4.407851e+01
  -3.597558e+01   8.855577e+01
  -7.342393e+01   2.990801e+01
  -8.902084e+01  -5.066681e+01
  -1.863352e+01  -9.167331e+01
   5.750563e+01  -3.508494e+01
   7.400277e+01  -2.657269e+00
  -2.698860e-01   2.740496e+01
   5.876573e+01  -2.380566e-01
  -4.914218e+00  -3.461369e+01
   1.164931e+01  -3.255486e+00
   4.804546e+01   3.001777e+01
   1.238657e+01   2.912697e+01
  -1.402130e+01   3.592329e+01
  -1.602078e+00   6.553726e+00
  -6.216578e+01   3.378560e+01
  -2.978223e+01  -2.832842e+01
   9.637217e+00  -2.472157e+01
   6.056068e+01  -5.988302e+00
  -7.404380e+00   5.493231e+01
  -3.467867e+01   1.533484e+01
  -6.030908e+01   8.162427e+00
  -1.607984e+01  -2.388530e+01
   6.639453e+01  -5.305758e+01
  -2.178322e+01  -3.827408e+01
   2.509569e+01  -2.005196e+01
   2.368190e+00   7.631770e+00
   1.963967e+01  -3.662596e+00
   8.079496e+01  -4.482175e+01
   2.525329e+01  -2.399127e+01
   1.931269e+01   2.344625e+01
  -2.384126e+00   5.785177e+01
  -2.698626e+01   2.945320e+01
  -1.504659e+01   8.338223e+00
  -4.976205e+01   1.580431e+01
   1.002405e+01  -1.627769e+01
   3.148409e+01   1.018630e+01
   3.114283e+01  -4.769609e+00
   1.828065e+01   3.513678e+01
  -2.015089e+01  -7.997692e+00
  -8.220699e+00   3.043064e+00
   7.127014e+00   7.322669e-01
  -4.957895e+00  -3.305710e+01
   8.174262e-01  -4.323011e+01
   1.891176e+01   8.646905e+00
   3.071408e+01  -3.627872e+01
   1.674317e+01   1.404529e+01
   1.955497e+01   1.769679e+01
   1.512745e+01   3.826896e+01
  -2.467071e+01   3.193022e+01
  -1.618061e+01  -1.340375e+01
  -5.639084e+00  -5.758416e+01
   1.476415e+01  -5.786622e+01
   3.637777e+01   2.672813e+01
   1.581854e+01   1.488137e+01
  -2.481922e+01   2.795426e+01
  -3.247388e+00   1.871775e+01
  -1.975940e+00   4.375961e+01
   5.188010e+01   4.651482e-02
   5.410022e+00   6.821309e+01
  -5.013724e+01  -5.810993e+01
  -7.861113e+01  -2.756502e+01
