
 $NMID
 id='ANONYMOUS ', fmtdat='(2E16.6)'
 volume=1.0
 tramp=1.0
 $END
  -2.695589e+03   2.605693e+02
  -1.685598e+03  -1.434350e+03
   8.613499e+01  -1.765294e+03
   1.047792e+03  -8.891789e+02
   7.135871e+02  -2.745250e+02
   3.351908e+01   8.895829e+01
  -2.044509e+02  -2.498904e+02
   4.400075e+00  -3.602416e+02
   4.806044e+02  -5.042789e+02
   5.083806e+02  -7.385035e+01
   3.444860e+02   4.362329e+02
  -1.202487e+02   5.730894e+02
  -1.887365e+02   1.269701e+02
  -2.262841e+02  -4.255372e+02
   7.478746e+01  -4.604139e+02
   1.430920e+02  -1.608425e+02
   4.680322e+01   4.096013e+02
  -2.156704e+01   8.229724e+02
  -5.180327e+02   2.512407e+02
  -5.153885e+02  -1.052430e+02
  -2.687857e+02  -3.423681e+02
   7.737197e+00  -2.049801e+02
  -1.618609e+01  -8.798888e+01
  -2.340539e+02   3.249447e+01
  -2.539442e+02  -2.396918e+02
   4.748304e+01  -3.027501e+02
   3.081159e+02  -9.163827e+01
   5.064461e+02  -7.144223e-01
   1.372351e+02   2.771109e+02
  -2.475736e+02   1.939377e+02
  -5.337004e+02   2.229917e+00
  -1.447795e+02  -2.409515e+02
   2.359762e+02  -3.117727e+02
   3.165222e+02  -1.957103e+02
   2.829452e+02   1.186398e+02
   3.062736e+01   3.433981e+02
  -2.451472e+01   2.861794e+02
  -4.176648e+01  -1.028230e+02
   1.262640e+02  -1.372613e+02
   1.143750e+02   8.637014e+01
  -3.461395e+01   3.627849e+02
  -1.924662e+02   4.007015e+02
  -2.761642e+02   6.438262e+01
  -1.778130e+02  -2.776386e+02
   8.847166e+01  -1.712152e+02
   1.347355e+02   1.660108e+02
  -4.997176e+01   3.102737e+02
  -3.725266e+02   1.005784e+02
  -3.800211e+02  -2.941029e+02
  -1.693984e+02  -4.353200e+02
   2.856055e+02  -1.811343e+02
   5.138825e+02   9.808098e+01
   3.466793e+02   1.910772e+02
  -4.613250e+01   2.139050e+02
  -2.888435e+02   9.157549e+01
  -2.463742e+02   4.938615e+01
   4.896384e+00  -3.640960e+01
   5.994330e+01   5.245301e+01
  -5.613911e+01  -2.540504e+00
  -2.382646e+02   3.203794e+00
  -1.130247e+02  -1.615077e+02
   4.430482e+01  -2.124625e+02
   3.370467e+02  -1.186303e+02
   3.145210e+02   9.991119e+01
   4.423037e+01   3.093965e+02
  -3.202321e+02   4.282083e+02
  -2.829935e+02   1.557178e+02
  -2.046332e+02  -1.594690e+02
  -2.076116e+01  -3.376372e+02
   2.924785e+01  -2.220854e+02
   2.836834e+01  -8.541568e+01
  -3.212362e+00  -5.296818e+01
   9.290243e+01  -9.207639e+01
   1.836904e+02  -9.487814e+01
   1.537710e+02   6.897488e+01
   6.463596e+01   1.952715e+02
  -1.106567e+02   1.575374e+02
  -1.448097e+02   1.041048e+01
  -9.943944e+01  -2.016809e+02
   4.937972e+01  -2.068245e+02
   1.397885e+02  -4.274265e+01
   2.717425e+02   2.039774e+02
   1.854599e+02   2.480947e+02
   8.554855e+00   2.507458e+02
  -1.248330e+02   1.463171e+02
  -1.519216e+02   1.371887e+02
  -1.830238e+02   9.850689e+01
  -2.469762e+02   8.206397e+01
  -3.590673e+02  -1.154792e+02
  -2.865069e+02  -2.975045e+02
  -3.643757e+00  -4.039104e+02
   2.733793e+02  -3.074387e+02
   4.014273e+02  -1.540176e+02
   2.327681e+02   5.869571e+01
   2.723378e+01   1.955297e+02
  -7.362632e+01   1.688293e+02
   2.743921e+01   2.886376e+01
   1.095528e+02  -2.067170e+01
   1.193641e+02   8.692782e+01
   1.103470e+01   1.755658e+02
  -1.245044e+02   1.032373e+02
  -7.631822e+01  -5.212997e+01
   5.338797e+01  -1.264534e+02
   9.227299e+01  -1.510705e+01
   1.412028e+02   2.254127e+02
  -1.470758e+01   3.139328e+02
  -2.063832e+02   1.994148e+02
  -2.983341e+02  -7.286627e+01
  -2.901644e+02  -2.231183e+02
  -9.402289e+01  -2.415732e+02
   8.930020e+01  -1.380071e+02
   1.198880e+02   2.228525e+01
   2.020280e+01   2.655170e+01
  -4.558076e+01  -8.112825e+01
   9.433994e+00  -1.810601e+02
   9.107047e+01  -4.500988e+01
   1.642370e+02   2.070781e+01
   7.658526e+01   2.047409e+01
  -4.081953e+01  -1.559194e+00
  -8.422967e+00  -8.161219e+01
   1.517937e+02  -6.815091e+01
   2.531444e+02   3.364688e+01
   2.355260e+02   1.339750e+02
   9.358698e+00   2.413434e+02
  -1.638555e+02   2.096964e+02
  -2.409268e+02   1.131025e+02
  -1.308168e+02  -5.594056e+01
   1.650563e+01  -6.970761e+01
   6.173978e+01   2.053706e+01
  -6.882005e+01   3.979220e+01
  -1.863504e+02   3.608596e+01
  -1.251388e+02  -1.158511e+02
  -6.466802e+01  -1.819397e+02
   1.022166e+02  -1.156741e+02
   1.183132e+02  -5.753127e+00
   5.806356e+01  -1.224342e+01
  -6.103623e+01  -6.278594e+01
  -1.128294e+01  -1.135410e+02
   7.460632e+01  -1.011483e+02
   1.602846e+02   5.880611e+00
   1.270173e+02   1.003243e+02
   2.871087e+00   1.867305e+02
  -1.147126e+02   1.339655e+02
  -1.861776e+02  -2.073150e+01
  -5.532004e+01  -8.124428e+01
   7.110187e+01  -8.823706e+01
   7.378422e+01  -5.351360e+01
  -1.245381e+01   4.675743e+01
  -1.858455e+01  -1.808695e+00
   8.607308e+00   1.856017e+00
   7.863269e+01   1.675910e+00
   6.087103e+01   6.956215e+01
   7.655517e+00   1.322704e+02
  -1.528487e+02   1.232509e+02
  -2.170730e+02  -3.691727e+01
  -1.654612e+02  -1.389110e+02
  -3.301113e+01  -1.908675e+02
   1.318390e+02  -1.636132e+02
   1.357348e+02  -8.851623e+00
   4.767621e+01   6.419166e+01
   1.100889e+01   9.410873e+00
   4.014973e+01  -1.150380e+01
   6.331761e+01  -3.643715e+01
   8.006238e+01   3.244702e+01
  -3.281609e+01   1.012437e+02
  -1.079966e+02   7.234669e+01
  -8.966744e+01  -7.227458e-01
   2.054301e+01  -9.855053e+01
   1.419982e+02  -1.038277e+02
   2.099211e+02   1.497241e+01
   8.307532e+01   2.188742e+02
  -1.102599e+02   2.298282e+02
  -2.262458e+02   9.488225e+01
  -2.316218e+02  -5.584898e+01
  -1.043499e+02  -1.362729e+02
   1.234109e+01  -1.524252e+02
   9.738567e+01  -8.950665e+01
   1.061910e+02  -7.551899e+01
   1.174666e+02  -1.231596e+02
   8.036314e+01  -9.364453e+01
   1.347468e+02   2.136929e+01
   7.309585e+01   1.856688e+02
   3.329522e+01   2.252334e+02
  -4.508735e+01   1.302964e+02
  -1.725054e+02  -2.019055e+01
  -1.363944e+02  -1.527162e+02
  -2.532350e+00  -2.010737e+02
   8.826103e+01  -5.990489e+01
   7.619446e+01   1.967522e+00
  -9.715710e-01   6.515504e+01
  -7.242041e-01   2.373284e+01
   3.928984e+01   4.288148e+01
   8.986146e+01  -6.665533e+00
   7.332391e+01   1.089426e+01
  -8.818882e+01   4.348663e+01
  -1.331081e+02   4.352839e+00
  -1.116113e+02  -1.627146e+01
   1.550878e+00  -1.055915e+02
   1.113128e+02  -4.578233e+01
   1.818561e+02   3.773693e+00
   6.067224e+01   7.075567e+01
  -4.712600e+01   4.050936e+01
  -1.007060e+02  -4.373935e+01
  -6.846585e+01  -8.425268e+01
   5.125792e+01  -2.482850e+01
   5.447325e+01   7.814982e+00
   1.204479e+02   3.399653e+01
   8.021737e+01   2.782862e+01
   6.075825e+01  -2.050796e+01
   4.907191e+01   1.013584e+01
   6.019155e+01   4.808518e+01
  -2.431481e+01   1.743290e+02
  -1.434025e+02   1.114724e+02
  -1.798718e+02   5.894773e+01
  -9.194210e+01  -6.745908e+01
  -1.379712e+01  -7.460040e+01
   6.186955e+01  -9.057842e+01
   5.532721e+01  -1.291172e+01
  -3.154239e+01   1.423229e+01
  -1.311398e+02  -2.676769e+01
  -5.997645e+01  -8.742038e+01
   1.210010e+02  -5.661295e+01
   1.260623e+02  -5.804962e+01
   1.795226e+02   1.201746e+01
   4.458585e+01   7.237123e+01
  -7.450638e+00   5.971460e+01
  -7.959750e+00   4.238294e+00
   3.338896e+01  -2.660273e+01
   8.892002e+01   7.356032e+00
   4.259523e+00   1.246925e+02
  -3.742068e+01   1.738579e+02
  -1.057964e+02   4.243790e+01
  -7.363457e+01  -1.137245e+02
  -3.034458e+01  -1.474359e+02
   9.001554e+01  -1.169946e+02
   8.771841e+01   4.839753e+01
   2.096888e+01   1.385975e+02
   8.378450e+00   1.201516e+02
  -6.681723e+01  -9.859899e+00
  -1.689064e+01  -2.075992e+01
  -9.045221e+00  -6.271034e+01
  -1.377213e+01  -4.806005e+00
  -4.397024e+01  -4.318559e+01
  -4.632477e+01  -6.237660e+01
   1.657783e+01  -1.246372e+02
   1.079462e+02  -6.114872e+01
   1.552109e+02   7.797150e+01
   1.098395e+02   1.046694e+02
  -9.304018e+00   7.305120e+01
  -8.491435e+01   2.254267e+01
  -9.121410e+01   1.477423e+01
  -4.621047e+01  -4.763098e+01
   2.096978e+01  -3.210778e+01
   3.360824e+01   3.682539e+00
  -6.479731e+01  -4.282472e+01
   3.644490e+01   8.948853e+00
   4.801800e+01  -4.087687e+01
   9.632192e+01   1.370337e+01
   3.702075e+01   7.743139e+01
  -5.310781e+01   1.162211e+02
  -1.457715e+02   5.315855e+01
  -1.257405e+02  -4.613373e+01
  -4.754555e+01  -1.367477e+02
   5.955850e+01  -1.334919e+02
   1.201738e+02  -3.706864e+01
   7.188785e+01   2.101796e+01
   1.995954e+01   5.027583e+01
   9.424636e+00   3.462534e+01
  -3.266426e+01   3.229448e+01
   3.349871e+01   2.229846e+01
   5.867392e+01   6.322956e+01
   5.116124e+00   1.353636e+01
  -1.038067e+02  -2.814129e+01
  -1.139648e+02  -6.462195e+01
   5.912388e+00  -9.716440e+01
   8.377612e+01  -3.250256e+01
   8.887500e+01   7.665429e+01
   8.260213e+01   5.261185e+01
  -6.000790e+01   7.916183e+01
  -5.092063e+01   1.276711e+01
  -2.672775e+01   3.414762e+00
   1.460554e+01  -6.520002e+01
   3.857202e+01  -7.029047e+00
  -4.599726e+01   9.042925e+00
  -7.339325e+01   2.617820e+01
  -6.400002e+00  -3.187283e+01
   1.008721e+02  -5.628333e+01
   1.168540e+02  -3.522514e+01
   6.446521e+01  -1.975510e+00
  -2.776842e+01   5.844639e+01
  -6.544490e+01   7.752017e+01
  -2.891618e+01  -1.561244e+01
  -1.373353e+01  -5.995607e+01
   2.095816e+01  -8.370527e+01
   3.587555e+01   1.523143e+01
   3.641688e+01   4.615427e+01
   1.639891e+01   5.799929e+01
  -1.984703e+01  -5.204456e+01
  -2.736072e+01  -1.801031e+01
  -2.325393e+01  -4.764160e+01
   9.189865e-01   1.251890e+01
   6.319190e+01  -2.145495e+01
   5.374466e+01  -2.165956e+01
   1.760094e+01  -5.558713e+01
   5.523297e+01  -1.890841e+00
   2.162774e+01   3.478016e+01
   1.314224e+00   5.679090e+01
  -5.486683e+01  -2.518797e+00
  -6.882931e+01  -2.939530e+01
  -4.341721e+01  -6.111523e+01
   4.754551e+01  -1.741555e+01
   4.437103e+01  -4.385390e+01
   3.504706e+01   1.557665e+01
  -1.313066e+01   1.706333e+01
  -5.583909e+01  -1.975448e+01
  -3.069385e+01   1.550582e+01
   4.464932e+01  -5.407472e+00
   3.031031e+01  -2.370507e+01
  -2.465393e+01   2.153818e+01
  -1.069960e+02   2.839723e+01
