
 $NMID
 id='ANONYMOUS ', fmtdat='(2E16.6)'
 volume=1.0
 tramp=1.0
 $END
   2.990356e+03  -3.962975e+02
   1.882581e+03   1.702293e+03
  -5.029232e+01   1.983478e+03
  -9.457226e+02   1.245700e+03
  -1.050088e+03   2.202808e+02
  -4.835300e+01  -1.288551e+02
   2.908046e+02   2.344471e+02
   5.949157e+01   6.054409e+02
  -5.691877e+02   5.893901e+02
  -5.560564e+02   3.927874e+01
  -3.433040e+02  -3.824155e+02
   3.096021e+01  -5.368716e+02
   4.399311e+02  -1.975918e+02
   1.163546e+02   3.140642e+02
  -2.357263e+02   5.473304e+02
  -3.567876e+02   1.409217e+02
  -2.269067e+02  -3.652121e+02
  -1.126467e+02  -5.926493e+02
   3.913641e+02  -1.477934e+02
   2.920598e+02   3.689269e+02
   1.348055e+02   4.287685e+02
  -1.827404e+02   2.859760e+02
  -1.661844e+02   9.928103e+01
   7.798934e+01   9.436099e+01
   9.058692e+01   2.770868e+02
  -4.466906e+01   2.719363e+02
  -4.502850e+02   1.578367e+02
  -5.667986e+02  -1.027817e+02
  -3.364157e+02  -3.011605e+02
   2.093489e+02  -3.283851e+02
   4.320969e+02   2.333997e+01
   9.040276e+01   3.082682e+02
  -2.635369e+02   3.829700e+02
  -3.789217e+02   1.925291e+02
  -2.984389e+02  -5.954050e+01
  -1.640237e+02  -3.083129e+02
  -1.509728e+01  -2.141939e+02
  -1.502818e+02   9.143411e+01
  -2.836208e+02   1.466577e+02
  -2.245682e+02  -1.098145e+02
  -2.495337e+00  -4.026862e+02
   2.089071e+02  -3.808470e+02
   2.568257e+02   2.075941e+01
   8.188999e+01   2.943277e+02
  -1.391684e+02   1.218713e+02
  -1.325451e+02  -2.121620e+02
   6.635760e+01  -2.999598e+02
   3.403642e+02  -5.130977e+01
   3.926800e+02   3.254588e+02
   1.224075e+02   4.498299e+02
  -2.626728e+02   2.540465e+02
  -4.548262e+02  -6.324997e+01
  -3.421920e+02  -2.454431e+02
   2.859854e+01  -2.176710e+02
   2.654702e+02  -1.107183e+02
   1.961581e+02   1.349243e+01
   8.724168e+00   2.864102e+01
  -3.048355e+01  -4.876104e+00
   9.349804e+01  -1.557430e+01
   2.375135e+02   2.531954e+01
   1.138098e+02   1.919333e+02
  -1.200020e+02   2.869366e+02
  -3.654061e+02   1.439958e+02
  -3.206611e+02  -1.442914e+02
  -3.509703e+01  -4.083991e+02
   2.529378e+02  -3.686077e+02
   3.396017e+02  -1.540025e+02
   2.496952e+02   1.533741e+02
   7.785224e+01   3.254979e+02
   1.904160e+01   2.742031e+02
  -4.535379e+01   1.907264e+02
  -6.236129e+01   1.265698e+02
  -1.688950e+02   9.417724e+01
  -2.011559e+02   1.163398e+01
  -1.981089e+02  -1.307825e+02
  -6.731052e+01  -2.205688e+02
   9.625809e+01  -1.844676e+02
   2.151298e+02   1.218505e+01
   1.265649e+02   2.407426e+02
  -7.302407e+01   2.155168e+02
  -2.340412e+02   7.611100e+01
  -2.708587e+02  -1.472605e+02
  -1.908873e+02  -2.489586e+02
   2.856477e+01  -2.244670e+02
   1.416249e+02  -1.550813e+02
   1.477567e+02  -8.783623e+01
   1.494197e+02  -9.488163e+01
   3.135346e+02  -2.545247e+01
   4.194228e+02   1.493731e+02
   2.800134e+02   2.792639e+02
  -2.470068e+01   4.177409e+02
  -3.452628e+02   3.712944e+02
  -4.264112e+02   1.989589e+02
  -2.852831e+02  -1.406934e+02
  -3.969573e+01  -2.250055e+02
   9.333289e+01  -1.421198e+02
   3.874244e+00  -8.317539e+00
  -1.290758e+02   1.950586e+01
  -8.590865e+01  -6.860517e+01
  -1.386970e+01  -1.456461e+02
   1.195542e+02  -7.355339e+01
   1.230620e+02   5.469855e+01
   4.778938e+01   1.645105e+02
  -1.435872e+02   1.212629e+01
  -1.375058e+02  -1.771776e+02
   1.296934e+01  -2.618807e+02
   2.060258e+02  -1.646453e+02
   3.348096e+02   2.499607e+01
   2.354399e+02   2.042504e+02
   6.907596e+00   2.605219e+02
  -1.367570e+02   1.432700e+02
  -1.422563e+02   6.366563e+01
  -2.715590e+01  -6.702817e+01
   1.271547e+01   3.221574e+01
  -2.039149e+01   6.264720e+01
  -5.428055e+01   3.376323e+01
  -9.248209e+01   1.133383e+01
  -4.482073e+01  -4.085770e+01
   1.110740e+02  -3.765144e+01
   5.049200e+01   9.083048e+01
  -1.041232e+02   9.881073e+01
  -2.489452e+02   2.140606e+01
  -2.005932e+02  -1.921811e+02
  -6.890885e+01  -2.359490e+02
   1.610523e+02  -2.112485e+02
   2.202742e+02  -8.049699e+01
   1.366778e+02   1.634358e+01
  -6.963039e+01   9.331929e+01
  -6.090823e+01  -3.580109e+01
   6.838871e+01  -7.171897e+01
   1.621558e+02  -1.312658e+01
   1.882782e+02   1.026882e+02
   1.577069e+01   1.582363e+02
  -1.238265e+02   1.042837e+02
  -1.522799e+02   4.979561e+01
  -8.422188e+00  -5.964131e+01
   6.090613e+01   8.070790e+00
   8.741424e+01   9.783518e+01
  -1.179998e+02   8.166603e+01
  -2.256180e+02   1.957310e+01
  -2.067248e+02  -1.367400e+02
  -1.638077e+00  -2.311695e+02
   1.525795e+02  -1.117213e+02
   2.196590e+02   3.859539e+01
   7.649607e+01   1.425244e+02
  -5.288755e+01   7.405671e+01
  -1.009069e+02   2.138085e+01
   2.852376e+01  -8.308589e+01
   3.664590e+01  -3.496241e+01
   1.983503e+01   3.997796e+01
  -9.235541e+01   4.179108e+01
  -1.186220e+02  -4.493137e+01
  -5.058584e+01  -1.626738e+02
   1.402188e+02  -1.862111e+02
   2.481493e+02   3.566436e+01
   1.736107e+02   1.514785e+02
   2.401850e+01   2.407768e+02
  -1.297250e+02   1.624454e+02
  -1.074283e+02   3.060865e+01
  -8.321987e+01  -3.522596e+01
  -3.322541e+01  -3.721879e+01
  -2.297061e+01  -2.191710e+01
  -8.866438e+01   7.048438e+00
  -8.424453e+01  -2.762728e+01
   4.202036e+01  -1.002783e+02
   1.253424e+02  -8.703608e+01
   1.162120e+02   5.075156e+01
  -8.592549e+00   1.571940e+02
  -1.310137e+02   1.039559e+02
  -1.968893e+02  -4.915246e+01
  -8.434823e+01  -1.993346e+02
   1.069345e+02  -2.464393e+02
   2.283076e+02  -4.693783e+01
   2.433797e+02   4.509490e+01
   1.279408e+02   1.784964e+02
   1.323362e+01   1.171799e+02
  -7.794984e+01   7.888959e+01
  -7.723691e+01   3.549156e+01
  -1.023344e+02   1.023618e+02
  -1.498882e+02   8.620378e+01
  -1.270266e+02  -3.161164e+01
  -1.256985e+02  -1.326749e+02
   4.447254e+00  -2.027098e+02
   1.153442e+02  -1.330985e+02
   1.467476e+02   9.954131e+00
   1.521648e+02   1.410480e+02
  -2.986191e+01   1.402121e+02
  -6.667773e+01   6.150969e+01
  -9.118104e+01  -5.844174e+00
   2.034112e+01  -3.728420e+01
   2.036729e+01  -3.863658e+01
  -7.548443e+00   2.018045e+00
  -1.018536e+02  -4.171072e+01
  -2.309021e+01  -5.483356e+01
   9.371737e+01  -5.918340e+01
   1.383700e+02  -4.674996e+01
   8.743359e+01   6.349178e+01
   1.368279e+01   1.176782e+02
  -1.205460e+02   9.036565e+01
  -1.303945e+02   2.366725e+00
  -7.476972e+00  -6.574515e+01
   7.177487e+01  -1.072748e+02
   6.821947e+01   1.080403e+01
   5.685241e+01   7.813378e+01
  -5.443391e+01   1.084264e+02
  -7.719669e+01   3.054765e+01
  -3.324197e+01  -3.230003e+01
  -2.484806e+01  -4.051164e+01
  -7.185067e+01  -1.764813e+01
  -5.544431e+01   4.294609e+01
  -4.750928e+01  -6.658194e+01
   1.026936e+00  -1.397729e+02
   1.616393e+02  -1.127480e+02
   1.878139e+02  -2.988891e+01
   1.580759e+02   1.187812e+02
   4.568715e+01   1.131501e+02
  -1.074626e+02   5.106570e+01
  -5.775133e+01  -2.174609e+01
   2.680392e+01  -5.392304e+01
   1.037715e+02   2.584399e+01
   4.658272e+01   7.936422e+01
  -6.165564e+01   1.120352e+02
  -1.517584e+02   1.928202e+01
  -1.273979e+02  -2.530349e+01
   2.570580e+01  -1.432527e+02
   5.442958e+01  -1.048388e+02
   6.805193e+01   2.347568e+01
  -5.288469e+01   4.781719e+01
  -1.131734e+02  -4.915020e+00
  -7.655938e+01  -7.738517e+01
   6.794778e+01  -1.430902e+02
   1.630471e+02  -5.150694e+01
   1.473025e+02   6.432392e+01
   3.356957e+01   2.034278e+02
  -6.654847e+01   1.094947e+02
  -1.040119e+02  -4.021891e+00
  -5.160859e+01  -9.239436e+01
  -6.195382e+00  -9.974992e+01
   6.950069e+01  -2.538640e+01
   4.138600e+01   5.387317e+01
   1.279161e+01  -2.321052e+01
  -3.502662e+01  -2.651177e+01
  -3.121873e+00   1.890901e+01
   4.444519e+01   5.610930e+01
   1.446003e+01   5.887345e+01
  -7.962619e+01   3.075968e+01
  -1.414297e+02  -3.474691e+01
  -1.106373e+02  -6.325033e+01
  -1.217719e+01  -6.169454e+01
   8.832789e+01  -3.456746e+01
   9.667288e+01  -2.749699e+01
   5.398531e+00   3.261031e+01
  -3.469179e+01  -3.064823e+01
  -3.591390e+00   2.137032e-02
   5.230785e+00   2.183281e+01
   5.594975e+00   1.876305e+01
  -1.808056e+01   4.363927e+01
  -7.302313e+01  -1.491298e+01
  -5.457605e+01  -8.979256e+01
   8.872212e+01  -1.188813e+02
   1.873622e+02  -7.118451e+01
   1.708443e+02   2.660739e+01
   4.575120e+01   1.688231e+02
  -9.734361e+01   1.636799e+02
  -1.214447e+02   7.407558e+01
  -1.102465e+02  -2.806337e+01
  -2.580856e+01  -7.772134e+01
  -3.129366e+01  -3.611376e+01
   1.346313e+01  -5.895750e+01
  -5.296501e-01  -5.272707e+01
  -2.981995e+00  -9.883778e+01
   4.260629e+01  -9.142482e+01
   1.400072e+02   9.972083e+00
   6.593522e+01   8.062428e+01
   2.063448e+01   1.539646e+02
  -3.881045e+01   1.912153e+01
  -1.251859e+02  -3.114833e+01
  -4.917138e+01  -1.110274e+02
   7.354003e+01  -1.070912e+02
   8.830422e+01   1.974488e+00
   3.482513e+01   3.311260e+01
  -4.087784e+01   6.545862e+01
  -1.976586e+01  -2.347571e+01
  -2.730293e+01  -4.665985e+01
   7.092258e+01  -3.933460e+01
   5.247616e+01   2.514959e+01
  -7.394606e+01   1.304174e+02
  -9.671538e+01   5.595172e+01
  -7.711662e+01   9.450316e+00
  -1.434380e+01  -9.936698e+01
   4.100367e+01  -7.810458e+01
   5.425877e+01  -2.809899e+01
  -2.950146e+00   3.911145e+01
  -2.131197e+01   3.662517e+01
  -3.116284e+01  -2.185094e+01
  -2.469014e+01  -5.082100e+01
   3.581403e+01  -6.082284e+01
  -6.953299e+00  -1.690593e+01
   5.039270e+01   1.338957e+01
  -5.659923e+00   1.196039e+01
  -1.908777e+01  -2.810554e+01
   1.494587e+01  -3.473115e+01
   6.334931e+01   2.255836e+01
   9.221906e-01   4.825766e+01
   4.373406e+00   4.793421e+01
  -3.271591e+01  -2.498430e+00
  -6.327090e+00  -4.745184e+01
   1.783129e+01  -2.594143e+01
   4.591879e+01   1.571947e+01
   4.302330e+01   8.176146e+01
  -5.112751e+01   2.429990e+01
  -7.410630e+01   4.754757e+00
  -9.191047e+01  -4.999245e+01
   1.359588e+01  -8.873941e+01
   7.332742e+01  -5.561351e+01
   4.846818e+01  -5.367002e+01
  -2.880659e+01  -3.000562e+01
  -4.882520e+01  -4.145249e+01
   1.073885e+01  -1.820412e+01
   6.463567e+01  -1.822572e+01
