
 $NMID
 id='ANONYMOUS ', fmtdat='(2E16.6)'
 volume=1.0
 tramp=1.0
 $END
   1.349286e+03  -3.388130e+01
   7.504803e+02   7.230930e+02
  -4.751482e+02   8.527216e+02
  -7.404236e+02   1.709128e+02
  -1.496204e+02  -3.039066e+02
   4.222727e+02  -1.908071e+02
   3.890780e+02   2.812568e+02
   6.829808e+01   4.357349e+02
  -4.046077e+02   1.819524e+02
  -3.498880e+02  -2.505391e+01
  -4.574488e+01  -1.422894e+02
   9.503001e+01  -2.264250e+02
   1.362343e+02  -4.396279e+01
   1.125957e+02   7.137558e+01
  -1.519175e+01  -3.285721e+01
  -1.216860e+02   1.113219e+01
   7.512741e+01   7.466919e+01
   1.474059e+02  -2.139915e+02
   1.381534e+02   4.782010e+01
   6.323231e+01   8.642066e+01
   4.656122e+01   2.450884e+02
  -1.434196e+02   4.287334e+01
  -1.054940e+02  -9.758290e+01
   1.264046e+02  -3.580916e+00
   1.461529e+02  -4.524598e+01
   1.165648e+02   3.524752e+01
  -4.497393e+01   2.117391e+02
  -2.894968e+02   1.114543e+02
  -1.269040e+02  -1.486212e+02
   1.378370e+02  -1.435276e+02
   1.611140e+02   9.106136e+01
   1.224132e+02   9.322635e+01
  -2.469194e+01   9.722084e+01
  -1.365745e+02  -2.943431e+01
  -2.865999e+01   1.065199e+01
   1.791928e+01  -4.627080e+01
  -2.945748e+01  -1.017799e+02
  -4.726820e+00  -1.385930e+01
  -5.966187e+01   1.177429e+02
  -5.761135e+01  -1.469920e+01
   3.057012e+01  -2.471618e+02
   8.178095e+01  -1.758370e+02
   1.299732e+02   5.409315e+01
   5.749397e+01   1.551705e+02
  -6.396532e+01   1.289867e+02
  -1.183982e+02  -1.435828e+02
   4.274148e+01  -1.386275e+02
   1.825574e+02  -3.891607e+01
   1.024781e+02   9.303957e+01
   2.010285e+01   1.556501e+02
  -1.305538e+02   8.093786e+01
  -1.403240e+02  -1.396132e+01
  -1.090810e+02  -7.525760e+01
   5.854994e+01  -1.205966e+02
   1.111816e+02  -3.404885e+01
   5.324457e+01   4.432621e+01
  -9.705648e+00   2.437923e+01
  -3.616367e+01  -6.775797e+01
   7.657503e+01  -7.097894e+01
   1.038367e+02   3.341537e+01
   9.894768e+00   6.002899e+01
  -4.219503e+01   4.236522e+01
  -6.056886e+01  -2.494131e+01
   6.791023e+01  -7.626620e-01
   2.725767e+00  -3.142090e+01
   1.122684e+01  -4.955475e+01
   3.248112e+01  -3.448983e+01
   7.686255e+01   3.545541e+01
   4.896812e+01   1.293617e+02
  -5.393798e+01   9.692205e+01
  -4.518780e+01   2.764325e+01
  -1.001354e+01  -1.944482e+01
   3.972709e+00   4.256271e+00
  -1.571806e+01   5.004400e+01
  -4.425491e+01  -2.506325e+01
  -4.083914e+00  -2.963039e+01
  -1.254662e+01  -7.192773e+00
   4.086147e+01   3.164431e+01
  -3.344534e+01  -1.472646e+01
  -3.032736e+00  -3.320643e+00
  -3.338578e+01   5.382328e+01
  -9.574659e+01  -4.577111e+01
  -7.254413e+01  -5.115502e+01
   2.539366e+01  -9.126424e+01
   1.137169e+02  -3.747509e+01
   6.037694e+01  -1.923518e+01
   8.211955e+00  -1.626859e+01
   7.628591e+01   3.711001e+01
   5.035698e+01  -1.768339e+01
   7.607692e+01   5.138354e+01
   4.308605e+01   8.108343e+01
  -3.235731e+01   8.257277e+01
  -1.279549e+02   9.497784e+01
  -8.041370e+01  -2.268362e+01
  -3.625598e+01  -4.901645e+01
  -5.774839e+00  -9.852306e+01
   5.216076e+00   2.915592e+00
  -1.530738e+01   6.934938e+01
   1.277489e+01  -2.491361e+01
  -3.809434e+01  -6.756867e+01
   5.794013e+00  -1.288883e+01
   6.921016e+01   1.659559e+00
  -2.389723e+01   2.618469e+01
  -3.941715e+01   2.166876e+01
  -4.233358e+01  -4.147917e+01
   3.234736e+01  -1.000331e+02
   1.788575e+01   2.639286e+00
   6.213191e+01  -2.087990e+01
   8.728828e+01   2.707684e+00
   7.430361e+01  -7.122116e+00
   2.864228e+01   5.662040e+01
  -4.873512e+01   5.387802e+01
  -4.394204e+01   6.125652e+00
  -2.071476e+01   1.381546e+01
  -6.055165e+00   1.431607e+01
  -1.220314e+01   9.358931e+00
  -4.242473e+01  -4.338241e+01
  -3.208292e+01  -3.329833e+01
  -9.125070e+00  -3.661483e+00
   1.298096e+01  -1.813051e+01
  -2.336936e+01   1.340549e+01
  -5.093631e+01   8.290546e+00
   1.348512e+01   1.614188e+01
  -1.155869e+00  -6.148813e+01
   6.496184e+01  -3.536135e+01
   4.754906e+01   4.064925e+01
   3.140195e+01   5.096079e+01
  -2.066576e+01   4.487542e+01
  -3.307226e+01  -3.620174e+01
   3.831630e+01  -2.870352e+01
   1.870517e+01   3.540375e+00
   4.605541e+00   3.883810e+01
  -1.534167e+01   5.778781e+01
  -6.468991e+01   4.044067e+01
  -2.710381e+01   5.554607e+00
  -1.296911e+01  -1.126516e+01
   1.430145e+01  -3.603109e+01
  -9.634366e+00   1.749953e+01
  -1.865422e+01  -3.770253e+00
  -3.410996e+01  -1.587082e+01
  -2.439115e+01  -5.477257e+01
   3.322104e+00  -3.380670e+01
   4.842535e+01  -3.843807e+01
   5.577165e+01  -3.204291e+00
  -4.760213e+00   2.163251e+01
  -3.372296e+01  -4.170569e+00
  -3.962419e+01   2.562469e+01
   8.896292e+00   2.958745e+01
  -4.625741e+00   2.593513e+01
  -5.439967e+01   1.975574e+01
  -4.669382e+01  -4.505462e+01
  -1.900059e+01  -2.007546e+01
   1.148404e+01  -2.144982e+01
   5.476183e+01  -2.218573e+01
   5.079998e+01   1.400817e+01
   3.696439e+01  -3.520146e+00
   1.389174e+01   4.237692e+01
  -3.594651e+01   2.238849e+01
  -1.898720e+01   3.184333e+01
   9.011828e-01  -1.209327e+00
  -1.042235e+01   5.344252e+00
  -5.010035e+01   6.967846e+00
  -9.805673e+00   1.410040e+01
   3.258866e+01  -4.559750e+01
   5.441632e+01  -2.106581e+01
  -8.941181e+00   2.540599e+01
   1.851280e+01   5.713737e+00
  -2.750764e+01   5.653755e+00
  -5.162623e+01   2.898405e+01
  -3.007571e+01  -2.630083e+01
  -4.288970e+01  -3.380685e+01
  -6.828949e+00  -4.938709e+01
   6.827298e+01  -1.049953e+01
   3.011480e+01   3.185916e+01
   2.388685e+01   3.811616e+01
  -1.933400e+01   1.226852e+01
   4.934401e+00   2.107386e+01
  -3.287534e+01   3.759551e+01
  -1.572324e+00   8.406452e+00
  -3.159648e+01  -1.437634e+01
  -5.789104e+01  -2.713277e+01
  -1.263351e+01  -4.614994e+01
   1.396362e+01  -2.981746e+01
   3.491845e+01  -3.892662e+01
   8.331780e+01   2.107735e+01
   4.152572e+01   2.948766e+01
  -1.942601e+01   3.644581e+01
  -4.217767e+01   2.038231e+01
   1.419990e+01   4.640769e+01
   1.740624e+01   6.350139e+00
  -9.903752e+00   9.082377e+00
  -4.181767e+01  -2.011514e+01
  -8.400992e+01  -2.245362e+01
  -1.706275e+01   3.511895e+01
   2.504603e+01  -3.495115e+00
   6.227856e+01  -3.404186e+01
   3.218232e+01  -1.788146e+01
   1.409300e+01   3.060580e+01
   1.124937e+01   1.737730e+01
  -4.488562e+01   1.972641e+01
   3.062864e+01  -3.207302e+01
   3.045492e+01  -4.796703e+01
   4.601841e+01  -3.159995e+01
   2.317215e+01   8.524390e+00
  -2.111770e+01   1.316906e+01
   9.195941e+00   9.449509e+00
   1.445522e+01   1.303592e+01
  -1.297354e+00   2.739603e+01
  -3.529486e+01   1.787361e+01
   1.608003e+01  -3.416661e+01
  -1.558668e+01  -4.962246e+00
   2.117760e+01  -4.884589e+01
   3.341852e+01  -5.126202e+01
   2.652285e+01   1.420792e+01
   1.467078e+01   2.678017e+01
  -2.714603e+01   1.476243e+01
  -3.383427e+01  -2.694693e+01
  -2.972440e+00  -2.975113e+00
   3.152919e+01  -6.483299e+00
   4.375806e+01   4.506586e+01
   1.491535e+01   6.661790e+01
  -1.893769e+01   5.095737e+01
  -7.207809e+01   3.483156e+01
  -7.724025e+00   8.836286e+00
   3.040183e+00  -3.994372e+01
   4.282254e+01  -2.684251e+01
   2.893016e+01  -1.409803e+01
  -2.319340e+01  -5.285479e+00
  -7.206225e+00   1.847554e+01
  -2.218763e+01  -3.135200e+01
   5.360024e+01  -7.077073e+01
   3.075035e+01  -1.260818e+00
   3.216430e+01   4.715611e+01
   5.820101e+01   5.442916e+01
  -8.326190e+00   1.920505e+01
  -1.831500e+01  -2.876387e+01
  -3.148715e+01  -3.640527e+01
   1.931029e+01  -2.072505e+01
   2.759261e+01  -2.672116e+01
  -1.376625e+01   3.335776e+01
   1.990008e+01  -1.963447e+01
   3.995362e-01  -7.967707e+00
   1.858600e+01   2.962969e+01
   2.509901e+01   3.720124e+01
  -1.232958e+01   6.513938e+00
  -2.331018e+01   3.133882e+01
  -2.432091e+00  -1.702731e+01
  -2.042106e+01  -2.878140e+01
  -1.245068e+01   4.240315e-02
   2.951960e+01  -2.007150e+01
   1.933110e+01   2.218629e+01
  -2.050241e+01  -3.244556e+01
   4.244460e+00   2.835300e+01
   2.233865e+01  -2.476998e-01
   3.577616e+01   1.059477e+01
  -2.460198e+01  -9.250075e-01
  -5.577083e+01  -3.583450e+01
   5.229419e+00   1.934027e+01
   1.562501e+01  -3.567452e+01
   5.070123e+01  -1.543203e+01
   5.631640e+00  -3.947679e+01
   3.388170e+01  -2.844466e+00
   6.045960e+01   5.488302e+01
   8.491193e+00   4.265886e+01
  -1.012232e+00  -1.109274e+01
  -2.587719e+01  -1.811706e+01
  -1.019183e+00  -1.822742e+01
  -7.640533e+00   2.528908e+01
   3.679115e+01  -9.857227e-01
  -2.271374e+01  -1.639938e+00
   2.509404e+01  -9.130659e+00
   1.589940e+01  -4.200260e+00
   1.335850e+01   1.396831e+01
   1.412172e+01   3.543781e+01
   2.641346e+01   2.449168e+01
   1.628654e+01   1.705821e+01
  -2.851955e+01   1.026251e+01
  -1.831007e+00   9.900992e+00
  -9.930511e+00   2.818419e+00
   2.722778e+01  -3.755608e+00
   6.071910e+01   5.329716e+00
  -3.984723e+00  -6.618615e-01
   2.353422e+01   4.767732e-01
   2.543242e+00   3.837721e+01
   1.462969e+01  -3.184548e+01
   2.548215e-01   7.011996e+00
  -3.405414e+01  -9.641865e+00
  -1.581881e+01   3.479811e+01
   3.634672e+01   4.018233e+01
   3.242875e+01   5.332456e+00
   3.476955e+01  -2.774064e+01
   8.734888e-01   1.300770e+01
   2.009087e+01   2.839952e+01
  -4.402743e+01   4.125113e+01
  -1.555094e+01  -4.909562e+00
  -2.474455e+01  -1.539522e+01
  -1.238869e+01  -1.555330e+00
   2.768892e+01   3.916427e+00
   1.832861e+01   7.788427e+00
   4.255746e+01   3.407871e+00
   2.379663e+01   1.311197e+01
   7.575145e+00  -8.213664e+00
  -6.202935e+00  -1.890242e+01
   2.570575e+01  -1.251058e+01
   3.056127e+00  -2.672884e+01
  -1.914103e+00   2.064912e+00
   1.258929e+01   9.286404e+00
   1.351259e+01   2.751819e+01
   1.571133e+01   7.353511e+00
  -1.821626e+01   2.549203e+01
  -4.946256e+01   5.887969e+00
  -1.735878e+01   6.556842e-01
   3.096473e+01   1.630566e+01
   8.009369e+00  -1.254852e+01
   2.814783e+01   4.214531e+01
   1.204523e+01  -1.917376e+01
  -2.941938e+00  -7.566993e+00
  -4.040512e+00   1.571466e+01
   1.910743e+01  -9.810211e+00
   7.741277e+01  -2.332599e+01
