
 $NMID
 id='ANONYMOUS ', fmtdat='(2E16.6)'
 volume=1.0
 tramp=1.0
 $END
  -1.591475e+03   8.772200e+01
  -8.649891e+02  -9.032355e+02
   3.439791e+02  -1.026537e+03
   1.028885e+03  -1.180258e+02
   3.200632e+02   2.018475e+02
  -4.086062e+02   2.366063e+02
  -4.998888e+02  -2.312605e+02
  -3.773098e+01  -3.316425e+02
   3.644863e+02  -3.595460e+02
   4.201074e+02  -6.599402e+01
   2.590489e+02   4.391840e+02
  -9.582142e+01   3.650793e+02
  -1.365555e+02   3.994709e+01
  -8.198807e+01  -1.152967e+02
   4.950535e+01  -3.826082e+02
   2.833296e+02   8.848927e+01
   7.323886e+01   2.132767e+02
  -1.298757e+02   2.214713e+02
  -3.717772e+01  -1.463647e+02
  -1.705125e+02  -1.187032e+02
   1.524841e+02  -1.130089e+02
   5.677693e+01  -1.367882e+02
   5.396063e+01   8.860080e+00
  -1.669256e+02  -4.469805e+01
  -1.971700e+02  -1.329587e+01
  -1.126846e+02  -1.791065e+02
   1.804925e+02  -6.716716e+01
   7.818686e+01   2.459442e+01
   1.391936e+01   1.262391e+02
  -6.969795e+01   8.874739e+01
  -2.127986e+02  -3.678025e+01
  -1.495236e+02  -1.301046e+02
   4.761303e+01  -1.807304e+02
   1.945730e+02  -4.201726e+01
   7.451472e+01   7.802405e+01
  -5.356424e+01   8.350727e+01
  -1.254355e+02   7.272113e+01
   1.756794e+01  -4.968441e+01
  -1.216130e+01  -7.556195e+01
   9.449451e+01  -2.258226e+01
  -4.096289e+00   1.709941e+02
  -8.345029e+01   1.645794e+02
  -1.444963e+02   4.192705e+01
  -2.001570e+01  -1.151166e+02
   4.957328e+01  -1.263526e+02
   9.708654e+01   4.230287e+01
  -4.650522e-01   8.583562e+01
  -1.158230e+02   6.240839e+01
  -1.353095e+02  -1.145672e+02
  -4.072160e+01  -1.086024e+02
   1.077412e+02  -1.004061e+02
   1.383538e+02   5.326014e+01
   1.023148e+02   1.350027e+02
  -3.408544e+01   1.141824e+02
  -9.838051e+01  -4.635953e+01
  -3.882809e+01  -7.162333e+01
   4.906220e+01   4.959073e+00
   1.253972e+01   7.292316e+01
  -8.182702e+01   1.953733e+01
  -9.588357e+01  -4.971970e+01
  -4.722572e+01  -6.752239e+01
   8.101997e+01  -4.165645e+01
   1.346596e+01  -7.591777e+00
   8.278865e+00   1.018047e+01
  -4.113304e+01  -3.189006e+00
  -1.388584e+00   2.314493e+01
  -5.095557e+01   9.567386e+01
   7.370231e+00   3.252684e+01
  -1.808757e+01  -1.220477e+02
   4.440714e+01  -1.213913e+02
   4.783606e+01  -3.062903e+01
  -1.791887e+01   6.523781e+01
  -4.863302e+01   3.655960e+01
   2.771312e+01  -2.615781e+01
   6.898982e+01   1.198061e+01
   5.921514e+01   6.312018e+01
  -1.097247e+01   5.738638e+01
  -6.110241e+01   9.203435e+00
  -4.987640e+01  -2.888152e+01
  -1.983306e+01  -4.387384e+01
   3.504540e+01  -6.617117e+00
   6.467375e+01   1.388475e+01
   5.322463e+01   5.407831e+01
  -1.777628e+01   6.169005e+01
  -1.987488e+01   1.557174e+01
  -4.298825e+01  -4.911840e+01
  -1.125139e+01   3.838648e+00
  -3.839249e+01  -2.519106e+01
  -8.903980e+01  -2.976391e+01
  -5.440974e+01  -3.064864e+01
   2.953978e+01  -6.345604e+01
   5.938479e+01  -5.803344e+01
   6.441608e+01  -7.324756e+01
   5.108088e+01  -3.066487e+01
   5.806162e+01   5.671383e+01
   2.811602e-01   1.022317e+02
  -1.772806e+01   4.575764e+01
   2.947327e+01  -4.001456e+01
   5.549128e+01  -3.047299e+01
  -1.672204e+00   1.366799e+01
  -4.645362e+01   9.135268e+01
  -9.448446e+01  -4.253978e+01
  -2.587131e+01  -3.752170e+01
   4.608313e+01  -2.342399e+01
   5.312719e+01   3.691292e+01
   3.294088e+01   6.347291e+01
   3.412242e+00   4.300655e+01
  -4.114968e+01  -1.915752e+01
  -7.492586e+01  -2.480222e+01
  -3.236856e+01  -3.453203e+01
  -4.259404e+00  -4.837030e+01
   4.162806e+01   1.563595e+01
   3.932143e+01   2.550390e+01
  -2.250862e+01  -2.290894e+01
   1.828334e+00  -2.269964e+01
   1.864468e+01  -3.430810e+01
   2.950855e+01   1.290052e+01
   1.070710e+01   4.324690e+01
  -5.157637e+01   7.349795e+00
  -2.279096e+01   3.112274e+01
   3.319714e+01  -8.119835e-02
   8.039306e+00  -1.507921e+01
   2.225360e+01   2.429142e+01
   5.117534e+01   5.186518e+01
  -3.719447e+01   6.809750e+01
  -4.867564e+01   3.298199e+01
   2.302049e+01  -2.913636e+01
   5.358337e+00  -2.953428e+00
   7.521054e+00   2.188721e+01
  -2.525878e+01   1.387634e+01
  -8.220501e+01   4.845214e+01
  -5.605429e+01   2.819870e+01
  -2.703846e+01  -4.539183e+01
  -2.181000e+01  -3.324403e+01
   4.780175e+01  -1.846279e+01
   3.554244e+01  -2.253049e+01
   1.850374e+01   3.321473e+01
  -2.820533e+01  -1.867753e-01
   1.798452e+00   9.033508e+00
   2.750355e+01  -3.124455e+01
   2.848613e+01  -1.744089e+01
  -2.946813e+01   3.141632e+01
  -2.481109e+01   5.184980e+01
  -8.344830e+00  -3.048297e+00
  -3.383378e+01   4.430634e+00
   3.577454e+01  -2.515996e+01
   3.496777e+01  -3.656115e+01
   4.482494e+01   3.420596e+00
   6.480198e+00   1.628937e+01
  -3.142266e+01   8.368945e+00
  -3.427114e+01   1.349796e+01
  -1.311431e+01   1.980815e+01
   2.152362e+01   2.843927e+01
   7.146551e+00   2.067384e+01
  -2.812432e+01  -1.545633e+01
  -6.350757e+01  -2.053829e+00
  -6.802590e+01   3.646641e+01
  -3.295079e+01  -2.886552e+01
  -1.067492e+01  -5.805505e+01
  -1.171688e+01  -1.604582e+01
  -1.470302e+01   2.188128e+00
   2.273982e+01  -8.219676e+00
   2.117785e+01  -2.553049e+01
   1.194127e+01  -3.189961e+01
   9.440974e+00  -1.004055e+01
   3.008378e-01  -4.539410e+00
  -4.357003e+00   2.458978e+01
   1.215796e+01   3.298703e+01
   1.203987e+01   4.371883e+00
   4.748294e+01   1.228066e+01
   1.284087e+01   1.543627e+01
  -3.701524e+01   4.071366e+01
  -6.772599e+01   1.010249e+01
  -5.619033e+01   1.708605e+01
  -7.260814e+00   1.143485e+01
   3.799984e+00  -1.000989e+01
   5.907896e-01  -5.728502e+01
  -1.857026e+01  -2.360072e+01
  -2.226443e+01   1.929929e+00
  -1.583292e+01  -4.218031e+01
   4.475184e+01   2.102595e+01
   6.445099e+00   3.491386e+01
   6.769766e+00   3.819839e+01
  -3.512927e+01   7.523270e+00
  -7.415972e+01  -2.263332e+01
   5.906449e+00  -3.927647e+01
  -1.715962e+01  -2.684151e+01
   3.135109e+01  -3.874048e+01
   8.604549e+00  -2.452400e+01
  -4.909068e+00  -2.884983e+00
   2.434570e+01   3.511562e+01
   4.660063e+01   2.017146e+01
   7.343429e+00  -3.066545e+00
   2.480130e+01   5.017819e+00
  -3.145173e+01   4.560188e+00
  -6.224700e+01   4.315127e+01
  -9.761193e+00   2.243372e+01
  -2.115121e+01   2.605140e+01
   3.880687e+01  -5.304253e+00
   4.132052e+01  -2.503232e+01
   4.810913e+00  -2.289135e+01
  -2.566135e+01   1.683317e+01
  -1.080086e+01  -4.545776e+01
  -3.443761e+00  -2.571500e+01
   1.252917e+01  -3.837740e+01
  -1.226992e+01  -2.822010e+01
   2.059093e+01   1.151223e+01
   2.183927e+01  -2.010973e+01
  -1.934860e+01  -3.747747e+01
   3.561101e+01  -2.277940e+01
  -2.849205e-03  -1.083750e+00
  -1.051003e+01  -6.537933e+00
  -2.840975e+01   6.014270e+00
  -2.507790e+01   4.254470e+01
  -5.254405e+01  -8.282655e+00
   3.596227e+01  -9.143405e+00
   4.145092e+01  -8.829111e+01
  -6.120328e+00   2.959033e+00
  -1.927898e+01   1.527515e+01
  -4.376683e+01   4.408962e+00
  -4.908928e+00  -3.481203e+01
  -7.199535e+00  -9.313727e+00
   5.397429e+01   4.129563e+00
   6.182596e+01   3.368399e+00
   2.497371e+01   4.053673e+01
  -3.906490e+01   2.089649e+01
  -7.178279e+01  -9.198072e+00
  -3.239655e+01  -3.634543e+01
  -1.307420e+01  -5.465860e+01
   2.419656e+01   3.280039e+01
  -1.408361e+01   2.303023e+01
   2.275170e+01   1.981671e+01
  -1.444205e+01  -3.032690e+01
  -1.186525e+01  -3.828546e+01
   7.131842e+00  -1.844012e+01
   8.111545e+00   2.341928e+01
   3.545213e-01   1.993095e+01
  -7.839179e+00   4.353593e+01
  -6.071372e+00   3.298706e+01
  -2.329284e+01  -4.314829e+01
  -2.554172e+00  -6.365614e+00
   4.540569e+00   7.320014e+00
  -4.500656e+01  -6.060183e+01
   1.634122e+01  -3.787516e+01
  -2.321303e+01  -9.014274e+00
   3.427860e+01   4.119868e+01
   4.258176e+01   4.986326e+01
   4.974164e+01   2.537210e+01
  -3.831696e+00  -2.941391e+01
  -4.068078e+01   1.787358e+01
  -2.363928e+01   6.884863e+01
   1.217044e+01  -1.219157e+01
   2.468603e+01  -3.219125e+01
  -5.170153e+00  -4.131640e+01
  -3.684594e+01  -6.837888e+00
   2.262429e+01  -3.293755e+01
   5.942320e+00  -4.425111e+00
   1.801169e+01  -2.392300e+01
  -2.563572e+01  -3.330089e+01
  -6.283419e+01   3.270532e+00
  -4.675154e+01   3.250775e+01
  -3.590417e+01   1.249784e+01
   7.547785e-01  -8.520661e+01
   1.325819e+01  -3.402874e+01
   3.544479e+01  -5.739337e+01
  -2.633219e+00  -5.594067e+00
   4.025332e+01   1.594377e+00
  -5.472973e+01  -3.829103e+00
  -3.028198e+01   3.688595e+01
  -8.539456e+00   1.709331e+01
   1.804570e+01   8.919990e+00
  -3.785584e+00  -1.650792e+01
  -2.113366e+01  -8.091277e+00
   6.405758e+00  -1.712311e+01
   6.684487e+00  -2.038565e+01
  -2.382862e+01   2.309054e+01
   6.257738e+00   4.828406e+01
   3.166212e+01   4.399882e+01
  -2.682255e+01   1.443339e+01
  -4.689360e+01   1.523521e+01
  -4.857309e+01   3.676675e-01
   1.475649e+00  -4.947948e+01
  -1.889012e+01  -2.552539e+01
  -5.410755e+01  -8.242100e+00
  -6.862514e+00  -7.975893e+00
  -9.504634e+00  -1.935870e+01
   1.642367e+01  -3.673927e+01
   4.194206e+01   2.312233e+01
  -4.363938e+00  -2.073696e+01
   1.463342e+01   2.377239e+01
   2.247905e+01   4.444295e+01
  -1.269301e+00   1.314463e+01
  -1.558984e+01  -7.749249e+00
  -6.761661e+00  -1.904169e+01
  -2.713551e+01   3.121292e+00
  -5.325452e+00  -7.627278e+00
   8.498204e+00   5.638525e+00
   4.483644e+00   8.565810e+00
  -1.008123e+01  -8.353256e+00
  -3.680418e+01   1.941671e+01
  -3.456275e+01   9.368155e+00
   2.465118e+01   8.261355e+00
   4.033483e+00  -2.539666e+01
  -1.380427e+01   9.129597e+00
  -1.014622e+01  -2.429548e+00
  -1.859863e+01  -1.779063e+01
   1.117637e+01  -8.835577e+00
  -2.574595e+01   4.464216e+00
  -1.971077e+00   1.221517e+01
  -1.325789e+00   5.522411e+00
  -6.780410e+00  -2.352820e+01
  -8.492740e+00  -1.888995e+01
  -6.642409e+00   3.296170e+01
  -2.596642e+01  -2.093349e+01
  -6.597391e+01  -1.219275e+01
  -2.445579e+01   2.848528e+01
  -5.065811e+00   4.567393e+00
   3.173020e+01  -1.082278e+01
   1.053469e+01  -3.788808e+01
  -5.135171e+01   3.027225e+01
