
 $NMID
 id='ANONYMOUS ', fmtdat='(2E16.6)'
 volume=1.0
 tramp=1.0
 $END
  -3.038152e+03  -4.648678e+01
  -1.711042e+03  -1.731196e+03
   4.332216e+02  -1.916922e+03
   1.539661e+03  -1.963689e+02
   7.742231e+02   3.580468e+02
  -3.252419e+02   5.371237e+02
  -7.294918e+02  -2.009099e+02
  -1.139922e+02  -7.648341e+02
   5.957711e+02  -5.058617e+02
   6.340882e+02   1.562640e+02
   3.124603e+02   5.794569e+02
  -2.168348e+02   5.367780e+02
  -5.626146e+02   1.268308e+02
  -2.810299e+02  -4.686225e+02
   1.780500e+02  -5.238045e+02
   5.797229e+02   1.024079e+02
   1.889809e+02   2.861124e+02
  -1.336774e+02   5.392595e+02
  -4.905286e+02   2.130512e+02
  -3.341037e+02  -1.269078e+02
  -7.403820e+01  -5.343795e+02
   2.505185e+02  -1.212984e+02
   2.179801e+02  -1.356586e+02
  -2.283385e+02  -7.801054e+01
  -2.085745e+02   2.944819e+01
  -4.562699e+01  -3.320590e+02
   4.572052e+02  -3.037656e+02
   7.172299e+02   1.432114e+02
   2.377879e+02   4.125788e+02
  -2.511604e+02   2.751939e+02
  -4.922775e+02  -3.598402e+00
  -2.824739e+02  -3.391283e+02
   1.538954e+02  -4.087490e+02
   5.555529e+02  -1.632824e+02
   4.080722e+02   1.957949e+02
   5.227845e+01   3.708055e+02
  -9.502034e+01   1.742066e+02
  -1.107958e+02  -1.176287e+02
   1.309651e+02  -2.863910e+02
   3.846209e+02  -7.666137e+01
   1.617231e+02   5.181615e+02
  -1.935025e+02   5.644704e+02
  -4.736648e+02   4.500432e+00
  -2.276879e+02  -3.079895e+02
   1.488296e+02  -2.730839e+02
   2.695420e+02   2.210163e+02
  -2.300468e+01   3.249575e+02
  -4.341338e+02   1.318834e+02
  -4.810739e+02  -3.319543e+02
  -1.534311e+02  -4.352462e+02
   2.833422e+02  -2.803700e+02
   4.421781e+02   1.650749e+01
   2.473271e+02   2.447536e+02
  -8.796590e+01   2.107937e+02
  -3.179929e+02  -1.034943e+01
  -1.643917e+02  -1.561641e+02
   9.128457e+01  -1.265963e+02
   1.098249e+02   8.012226e+01
  -1.244435e+02   1.090291e+02
  -2.732838e+02  -7.497954e+01
  -1.269929e+02  -2.643021e+02
   1.482851e+02  -2.382543e+02
   3.104705e+02  -5.126634e+01
   2.127953e+02   8.684606e+01
   1.970694e+00   1.730924e+02
  -1.798679e+02   1.933231e+02
  -2.279891e+02   1.036985e+02
  -1.999528e+02  -1.037563e+02
  -4.243669e+01  -2.907242e+02
   7.198393e+01  -2.108627e+02
   8.606187e+01  -8.148009e+01
  -8.096840e+00   1.500445e+01
   5.061462e+01  -6.854593e+01
   1.331585e+02  -1.180901e+02
   1.898662e+02   6.790806e+01
   1.098764e+02   2.055303e+02
  -7.272321e+01   1.839526e+02
  -1.610334e+02   6.385429e+00
  -1.472428e+02  -1.438817e+02
   3.221719e+01  -1.998956e+02
   2.176093e+02  -1.240576e+02
   2.630627e+02   1.273778e+02
   1.667055e+02   2.563406e+02
  -7.512284e+01   2.528341e+02
  -1.795821e+02   7.561235e+01
  -1.035498e+02   2.478132e+01
  -3.881859e+01   3.786971e+01
  -1.964042e+02   6.966189e+01
  -2.440697e+02  -3.693507e+01
  -1.968870e+02  -2.771616e+02
  -1.394924e+01  -3.363422e+02
   2.662433e+02  -2.744596e+02
   3.326188e+02  -9.575992e+01
   2.624517e+02   6.314118e+01
   5.310233e+01   2.038480e+02
  -1.282318e+02   2.053071e+02
  -1.079223e+02   5.274920e+01
   6.133605e+01  -9.690855e+01
   1.652727e+02   6.140458e+00
   3.646129e+01   1.242599e+02
  -1.620439e+02   1.118339e+02
  -1.212998e+02  -8.211463e+00
   4.583783e+01  -1.580186e+02
   1.180120e+02  -2.227315e+01
   3.832452e+01   1.990191e+02
  -7.543083e+01   2.696306e+02
  -1.770790e+02   1.037163e+02
  -1.850785e+02  -7.079246e+01
  -1.821304e+02  -1.798188e+02
  -5.238323e+01  -1.419279e+02
   7.929925e+01  -7.050731e+01
   1.292225e+02  -4.055532e+00
   2.033896e+01   8.134398e+01
  -6.704968e+01   1.775868e+01
  -6.103775e+01  -9.148097e+01
   7.441184e+01  -1.163307e+02
   1.143316e+02  -3.419703e+01
   2.365479e+01   7.209489e+01
  -6.119251e+01  -1.897046e+01
  -8.755407e+01  -7.124187e+01
   8.193755e+01  -9.681570e+01
   1.904026e+02  -3.492716e+01
   1.831657e+02   9.075497e+01
   5.910122e+01   1.600873e+02
  -1.537190e+02   2.091974e+02
  -2.462618e+02   1.194376e+02
  -1.028142e+02  -4.383579e+01
   2.242539e+00  -1.257784e+02
   1.278767e+02  -1.382393e+01
  -2.251738e+01   8.833630e+01
  -1.097091e+02   9.433226e+01
  -1.313280e+02  -3.297843e+00
  -4.719191e+01  -1.438216e+02
  -4.197484e-01  -9.344165e+01
   4.551162e+01   2.107829e+01
   1.678142e+01   3.238520e+01
  -4.845913e+01  -8.048918e+00
  -2.053497e+01  -1.062507e+02
   4.104918e+01  -1.558403e+02
   6.713896e+01  -7.799779e+01
   1.069124e+02   9.009865e+01
   3.502419e+01   1.536812e+02
  -1.003578e+02   1.386093e+02
  -1.482734e+02  -1.185038e+01
  -4.412039e+01  -9.899889e+01
   5.707159e+01  -1.124386e+02
   7.869691e+01  -6.570393e+00
  -2.093503e+01   6.057380e+00
  -5.108176e+01  -2.401771e+00
   1.534515e+01  -2.186611e+01
   9.486435e+01  -1.458990e-01
   7.362106e+01   5.791622e+01
   1.151721e+01   8.821306e+01
  -1.097800e+02   8.749710e+01
  -1.825009e+02   6.353461e+00
  -1.166427e+02  -1.094990e+02
  -3.534087e+01  -1.543985e+02
   7.741767e+01  -9.646329e+01
   1.047732e+02  -5.330985e+00
   3.956526e+01   7.654756e+01
   1.524947e+01   7.787303e+01
   4.542146e+01   1.470302e+01
   6.037029e+01  -2.341864e-01
   4.706479e+01  -1.951997e+01
  -5.339384e+01   8.164988e+01
  -6.494423e+01   3.316559e+01
  -9.146657e+01  -4.209285e+01
  -1.601245e+01  -1.625211e+02
   1.014557e+02  -8.399040e+01
   1.604571e+02  -2.995681e+00
   7.696606e+01   1.412668e+02
  -1.538871e+01   1.353768e+02
  -2.031794e+02   2.788136e+01
  -1.494757e+02  -8.995108e+01
  -3.316515e+01  -1.428847e+02
   5.163657e+01  -1.147042e+02
   8.309409e+01   1.848726e+01
   5.265535e+01   1.509762e+01
   4.850384e+01  -4.812854e+01
   6.094961e+01  -1.751780e+01
   8.001727e+01   3.684167e+01
   7.444537e+01   1.053610e+02
   1.443927e+01   1.700566e+02
  -7.852718e+01   1.692589e+02
  -1.506258e+02   1.882159e+01
  -9.361713e+01  -9.269000e+01
   1.115192e+01  -1.242997e+02
   8.179973e+01  -7.151013e+01
   2.214998e+01   8.041744e+00
  -3.396564e+01   3.163583e+01
  -1.588780e+01  -2.395687e+01
   1.305495e+00   8.395048e+00
   8.810299e+01  -3.523008e+00
  -2.578431e+01   3.010297e+01
  -4.142721e+01   5.253600e+01
  -8.276051e+01   1.480200e+01
  -6.050282e+01  -7.529227e+01
  -5.377855e-01  -6.380028e+01
   9.540610e+01  -6.885789e+01
   7.176417e+01  -1.405681e+01
   4.029529e+01   2.082607e+01
  -2.911658e+01   3.257879e+01
  -4.901622e+01  -2.227521e+01
   2.518158e+01  -2.085590e+01
   6.762612e+01  -3.047364e+01
   5.616186e+01   2.084239e+00
   2.276073e+01   3.004341e+01
  -1.081369e+01   1.201724e+01
   5.346200e+01   3.410511e+01
   9.329024e+01   9.017446e-01
   5.397400e+01  -8.713864e+00
   1.870339e+01   1.023283e+02
  -9.403359e+01   1.127161e+02
  -1.406505e+02   6.190811e+01
  -1.292608e+02  -6.132156e+01
  -2.677441e+01  -1.354298e+02
   7.075071e+01  -6.334268e+01
   3.965179e+01   1.262093e+01
  -5.666283e+01   3.310203e+01
  -1.072327e+02  -3.465899e+01
  -8.490513e+01  -9.697768e+01
   1.067122e+01  -9.248102e+01
   1.598705e+02  -7.191094e+00
   1.522436e+02   6.536660e+00
   3.625373e-01   6.312704e+01
  -4.801356e+01   2.509952e+01
  -1.796287e+01  -4.247439e+00
   3.792925e+01  -4.133550e+01
   7.345186e+01   6.723338e+01
   4.529895e+01   8.442677e+01
  -7.160780e+01   9.450060e+01
  -1.001251e+02   3.686809e+01
  -8.397123e+01  -5.707120e+01
  -1.355443e+01  -1.519946e+02
   8.051342e+01  -7.139123e+01
   6.236193e+01   9.279294e+00
   2.110241e+01   8.644752e+01
  -2.425906e+01   6.459902e+01
  -4.456813e+01   1.098549e+01
  -2.781591e+01   5.169928e+00
  -4.606069e+00   5.343406e+00
   7.687460e+00   8.943082e+00
  -6.220923e+01  -6.534658e+00
  -5.063171e+01  -4.849003e+01
  -7.107615e+01  -1.224462e+02
   5.248227e+01  -2.901706e+01
   1.032941e+02   2.420432e+01
   6.249832e+01   3.508092e+01
  -2.261254e+01  -2.820429e+01
  -8.376631e+01   1.769759e+00
  -4.378369e+01   1.135391e+01
   1.969752e+01   6.982975e+00
   4.422869e+01  -3.249649e+01
  -2.457521e+00  -1.209864e+01
  -7.724764e+00   3.424083e+01
   1.633847e+01   1.108516e+01
   3.512160e+01  -1.409391e+01
   1.215415e+02   4.791656e+01
   1.314478e+01   7.095553e+01
  -7.901855e+01   6.479800e+01
  -1.323135e+02  -7.071576e+00
  -8.571539e+01  -2.741406e+01
  -3.418307e+01  -9.527445e+01
   2.222492e+01  -1.018961e+02
   4.682600e+01  -4.626478e+01
   5.712331e+01   1.095669e+00
  -1.915508e+00   3.128787e+01
   1.103392e+01   7.073322e-01
   5.139979e+01  -1.462242e+01
   1.499015e+01   2.751266e+01
  -1.754643e+01   6.907822e+01
  -2.199736e+01   7.207967e+01
  -9.920728e+01   1.233957e+01
  -5.416624e+01  -4.920262e+01
   3.500208e+01  -6.472104e+01
   6.276950e+01  -3.940715e+01
   6.057381e+01   3.437845e+01
   4.158225e+01   6.553473e+01
  -6.859976e+01   6.772591e+00
  -1.389040e+02  -3.111350e+01
  -2.910118e+01  -3.779100e+01
   5.625495e+00  -5.535932e+01
  -8.002933e+00  -7.026870e+00
  -2.583458e+01   1.063680e+01
  -5.259392e+01  -1.324432e+01
  -4.602581e+01  -2.243123e+01
   5.920605e+01  -4.008264e+01
   8.608103e+01  -1.354997e+01
   6.330959e+01   6.715166e+01
   9.317627e+00   2.706196e+01
  -5.903495e+01   6.474006e+01
  -2.739903e+01  -1.534324e+01
  -1.463797e+01  -9.909088e+00
   2.233698e+01  -7.301832e+01
   5.521194e+01  -5.145035e+01
   3.562982e+01   3.155375e+01
   9.762218e+00   4.568953e+00
  -3.112335e+01   2.990479e+01
  -2.352309e+01  -3.797193e+01
  -5.114457e+00   1.878051e+01
   2.675927e+01  -1.520323e+01
   1.988790e+01   8.444519e+00
  -2.430154e+01  -3.337729e+00
  -3.464213e+01  -5.153765e+01
  -5.395754e+01  -2.825606e+01
   1.433987e+00   4.195349e+01
   2.198897e+01   8.337994e+00
  -2.545665e+00   2.449587e+01
  -4.930162e+01  -3.769048e+01
  -1.638048e+01  -4.043636e+01
   8.601630e+01  -4.023872e+01
   1.072110e+02   2.465502e+00
   2.267372e+01   1.264014e+01
  -5.191916e+01   2.861084e+01
  -6.356168e+01   2.059047e+01
  -6.365927e+01  -5.324721e+00
   1.686949e+01   7.311594e+00
   2.357696e+01  -1.127634e+01
  -1.496114e+01   6.576250e+01
  -5.904190e+01   6.816234e+01
