
 $NMID
 id='ANONYMOUS ', fmtdat='(2E16.6)'
 volume=1.0
 tramp=1.0
 $END
   4.343300e+03   1.515908e+02
   2.697949e+03   2.860170e+03
  -8.322485e+02   3.034435e+03
  -2.141519e+03   6.790997e+02
  -1.009085e+03  -5.538671e+02
   5.934208e+02  -6.973199e+02
   9.580309e+02   3.248612e+02
   2.175773e+01   1.129424e+03
  -9.096663e+02   7.546871e+02
  -9.480631e+02  -2.652253e+02
  -4.765250e+02  -9.577099e+02
   3.195112e+02  -9.853560e+02
   6.923762e+02   4.713599e+01
   3.482043e+02   7.830651e+02
  -2.517755e+02   6.545829e+02
  -6.101946e+02   8.771057e-01
  -1.042097e+02  -1.031933e+03
   3.281986e+02  -6.149123e+02
   5.687066e+02  -2.936954e+02
   2.976335e+02   3.668506e+02
   9.171404e+01   4.949248e+02
  -2.305034e+02   3.382265e+02
  -1.716024e+02  -1.478909e+00
   1.579546e+02  -6.444114e+01
   4.486933e+02   1.860141e+02
   2.637900e+02   4.960465e+02
  -4.332218e+02   5.138032e+02
  -9.323664e+02  -4.871828e+01
  -5.822515e+02  -5.089113e+02
   4.266535e+02  -4.721650e+02
   7.925726e+02  -5.797199e+01
   4.083904e+02   4.745127e+02
  -2.601149e+02   4.981695e+02
  -6.636727e+02   2.747635e+02
  -4.107692e+02  -1.731337e+02
  -3.882912e+01  -4.901769e+02
   2.852259e+02  -3.194508e+02
   2.029748e+02   2.416779e+02
  -1.966696e+02   4.835087e+02
  -5.346060e+02  -5.993171e+01
  -2.602943e+02  -6.988474e+02
   3.181246e+02  -7.550624e+02
   5.633552e+02   1.144014e+01
   2.461326e+02   5.719256e+02
  -3.177805e+02   2.809933e+02
  -4.235856e+02  -3.293212e+02
   3.980438e+01  -5.863070e+02
   6.053826e+02  -1.715383e+02
   6.681008e+02   3.737492e+02
   2.425373e+02   5.898279e+02
  -4.098803e+02   3.607612e+02
  -6.866984e+02  -4.984602e+01
  -3.475599e+02  -4.033160e+02
   2.037403e+02  -4.029987e+02
   5.237744e+02  -7.244382e+01
   2.502616e+02   2.796017e+02
  -1.611949e+02   1.627921e+02
  -1.590843e+02  -1.231253e+02
   1.935823e+02  -2.172889e+02
   3.474424e+02   5.722944e+01
   1.579132e+02   3.182630e+02
  -2.191921e+02   2.987675e+02
  -3.429651e+02   9.696341e+01
  -2.340629e+02  -1.191097e+02
   2.282165e-01  -2.613136e+02
   2.540303e+02  -2.997914e+02
   4.374819e+02  -2.052177e+02
   3.376458e+02   1.534068e+02
   5.268850e+01   4.784981e+02
  -1.942257e+02   4.069643e+02
  -2.092098e+02   1.452413e+02
  -4.447395e+01   4.566283e+01
  -8.066956e+01   1.425426e+02
  -2.073721e+02   1.168240e+02
  -3.114874e+02  -1.054989e+02
  -1.870991e+02  -3.278541e+02
   5.853241e+01  -2.610267e+02
   2.616217e+02   1.025416e+01
   2.062419e+02   1.969889e+02
   7.545099e+00   2.468785e+02
  -2.760294e+02   9.248078e+01
  -3.577216e+02  -1.331926e+02
  -1.803956e+02  -3.166797e+02
   1.022953e+02  -3.330662e+02
   2.301370e+02  -1.543507e+02
   1.874598e+02   2.335424e+01
   1.409907e+02  -4.087298e+01
   2.910114e+02  -3.816069e+01
   4.157029e+02   6.862553e+01
   3.332618e+02   2.807515e+02
  -7.331719e+00   4.598793e+02
  -3.651357e+02   3.710246e+02
  -4.116590e+02   2.234705e+02
  -2.920754e+02  -3.329606e+01
  -3.030094e+01  -2.083131e+02
   9.649282e+01  -2.391004e+02
   8.071058e+01  -1.733467e+01
  -5.449189e+01   1.235145e+02
  -1.326411e+02   3.783291e+01
  -5.714062e+01  -1.730106e+02
   1.214042e+02  -2.145377e+02
   1.753123e+02   5.750981e+01
   4.109075e+00   2.063271e+02
  -1.853784e+02   6.964371e+01
  -1.488909e+02  -2.621808e+02
   6.936113e+01  -4.210805e+02
   3.233851e+02  -1.911643e+02
   3.925015e+02   1.046388e+02
   2.691217e+02   2.965952e+02
   9.359037e+01   2.752122e+02
  -1.108203e+02   1.468198e+02
  -1.318103e+02  -5.378283e+00
  -3.042173e+01   9.394123e+00
   6.036444e+01   5.586313e+01
   1.522593e+01   1.832047e+02
  -1.107127e+02   1.949867e+02
  -1.846625e+02   3.222214e+01
  -6.796551e+01  -8.628346e+01
   6.770990e+01  -8.457269e+01
   8.443197e+01   3.170831e+01
  -8.535101e+01   1.206401e+02
  -2.593711e+02   1.064613e+01
  -2.352306e+02  -1.451742e+02
  -9.618586e+01  -2.587316e+02
   1.446120e+02  -2.267399e+02
   2.539833e+02  -1.166385e+02
   1.837749e+02   1.082882e+02
   2.051399e+01   1.171648e+02
  -8.497090e+01   3.203295e+01
   1.237864e+01  -1.360473e+02
   1.187318e+02  -4.644104e+01
   1.725331e+02   8.956217e+01
   5.499475e+01   2.213256e+02
  -7.136939e+01   1.460079e+02
  -9.208624e+01   1.439619e+01
  -9.517647e+01   1.961301e+00
   3.400382e-01   2.921850e+01
  -3.773199e+01   6.305552e+01
  -1.244556e+02   5.692340e+01
  -2.238767e+02  -1.822903e+01
  -1.892846e+02  -1.119548e+02
  -3.851277e+00  -2.432566e+02
   1.620295e+02  -1.777376e+02
   1.835303e+02  -2.099387e+01
   7.684979e+01   1.023665e+02
  -7.747745e+01   9.919410e+01
  -9.223370e+01  -6.824856e+00
  -4.134723e+01   4.204969e+00
   3.379917e+01  -2.721883e+01
  -2.209322e+01  -8.685445e+00
  -1.776607e+01  -2.320988e+01
  -9.354976e+01  -9.325173e+01
   7.989186e+00  -1.337341e+02
   1.116210e+02  -1.829315e+02
   2.523362e+02  -8.924932e+01
   2.039556e+02   1.564356e+02
   9.862442e+01   2.714050e+02
  -8.194758e+01   2.022042e+02
  -1.631115e+02   5.809304e+01
  -1.232917e+02  -6.940609e+01
  -6.018397e+01  -4.305508e+01
  -4.434931e+01   1.711491e+01
  -3.130135e+01   1.586662e-01
  -3.707698e+01  -7.317497e+01
   3.060942e+01  -5.647306e+01
   8.896963e+01  -1.955408e+01
   5.470998e+01   3.889526e+01
  -5.526212e+00   1.114468e+02
  -1.182078e+02   8.299670e+01
  -2.149754e+02  -7.692045e+01
  -1.074991e+02  -2.152140e+02
   9.048572e+01  -2.521747e+02
   2.866918e+02  -1.098420e+02
   2.814916e+02   4.880162e+01
   1.322649e+02   1.830055e+02
  -1.308604e+01   1.479087e+02
  -6.860108e+01   1.321494e+02
  -4.294153e+01   4.547146e+01
  -9.019488e+01   6.501664e+01
  -1.013186e+02   4.503501e+01
  -1.213777e+02   5.489670e+00
  -1.482119e+02  -1.208252e+02
  -4.808494e+01  -2.129191e+02
   7.749358e+01  -2.357145e+02
   1.807719e+02  -5.565999e+01
   1.154842e+02   1.116962e+02
   8.527214e+00   1.873336e+02
  -6.843103e+01   1.381261e+02
  -6.817298e+01   3.155986e+01
  -5.784721e+01  -5.199836e+01
   3.038856e+00  -3.370317e+01
   2.491478e+00  -3.529824e+01
  -2.631746e+01  -6.958344e+01
  -1.215239e+01  -7.494642e+01
   5.899450e+01  -5.781611e+01
   1.422683e+02  -3.470671e+01
   1.925682e+02   7.833867e+01
   9.138469e-01   1.037581e+02
  -8.964933e+01   7.702893e+01
  -1.586029e+02   2.593595e+01
  -5.043492e+01  -7.504468e+01
   3.061175e+01  -2.685879e+01
   9.919251e+01   2.585594e+01
   1.780072e+01   7.565834e+01
  -5.082734e+00   4.934920e+01
  -5.594073e+01  -7.639585e-01
   8.523045e+00  -6.367129e+01
  -1.115508e+01  -3.267711e+01
  -6.876285e+01   5.505062e+00
  -5.368324e+01   1.661652e+01
  -7.279006e+01  -5.219198e+01
   3.434891e+01  -7.816805e+01
   1.155587e+02  -1.094417e+02
   1.325557e+02  -1.209353e+01
   1.299531e+02   9.161812e+01
  -2.437027e+01   1.566345e+02
  -3.766895e+01   6.243155e+01
  -7.606323e+01  -1.222529e+01
   5.161238e+01  -8.129949e+01
   8.244448e+01  -7.536996e+00
   9.637146e+01   9.546873e+01
  -4.722045e+01   1.153900e+02
  -1.303685e+02   1.017941e+02
  -1.763074e+02  -2.413463e+01
  -6.849481e+01  -9.669694e+01
   2.951006e+01  -1.022564e+02
   4.771495e+01  -1.430922e+01
   1.643672e+01   6.241947e+01
  -9.356035e+01  -4.489033e+01
  -5.853648e+01  -1.345830e+02
   9.655206e+01  -7.559662e+01
   1.470204e+02  -6.574352e+01
   9.591964e+01   9.537348e+01
  -2.788948e-01   1.859888e+02
  -8.052928e+01   1.531414e+02
  -1.326534e+02   1.465450e+01
  -6.397473e+01  -1.423551e+02
  -1.927148e+01  -9.134947e+01
   5.265625e+01  -6.303794e+01
   1.954429e+01   2.708387e+01
   2.776600e+01  -1.927532e+01
   3.697851e+01   7.983881e+00
   7.257843e+01  -1.302342e-01
   7.663462e+01   9.094081e+01
   4.142734e+01   7.905040e+01
  -7.316007e+01   8.815820e+01
  -1.206124e+02  -6.890693e+01
  -1.177087e+02  -1.161796e+02
  -7.139310e+00  -2.939668e+01
   8.811929e+01  -3.498368e+01
   1.123232e+02  -2.578467e+01
   4.841726e+01   4.991081e+00
  -3.458734e+01  -6.631542e+00
  -9.749211e+00  -9.692949e+00
  -2.711144e+01   1.169368e+01
  -1.476148e+01  -2.392445e+01
  -9.216873e+01   1.449524e+01
  -6.689778e+01  -1.987580e+01
  -4.679515e+01  -7.150314e+01
   9.363739e+01  -1.094803e+02
   1.505297e+02  -6.195541e+01
   1.458309e+02   8.445311e+01
   1.899394e+01   1.509010e+02
  -5.593210e+01   1.632003e+02
  -1.076460e+02   1.715063e+01
  -7.393826e+01  -3.560649e+01
  -3.678146e+00  -6.244524e+01
   2.392439e+01   1.410469e+01
  -3.116461e+01  -1.078079e+01
  -4.128839e+01  -2.142907e+01
  -5.115495e+01  -8.229303e+01
  -8.820580e-01  -9.089316e+01
   8.696394e+01   1.138176e+00
   7.734873e+01   1.431697e+02
  -1.768443e+01   9.899558e+01
  -6.809185e+01   3.238882e+01
  -1.027831e+02  -6.504249e+01
  -3.650334e+01  -7.997374e+01
   5.593019e+01  -7.057494e+01
   7.251625e+01  -4.327599e+01
   3.331069e+01   6.729393e+01
  -5.427249e+01   4.016438e+01
  -1.249415e+01   9.091460e+00
   8.714927e+00  -4.119249e+01
   6.657207e+01   9.646221e+00
  -5.701038e+00   3.995298e+01
   2.098376e+00   3.772652e+01
  -5.735600e+01   8.583278e+01
  -1.932983e+01  -2.022558e+01
   1.396740e+01  -9.248440e+01
   8.045073e+00  -2.842334e+01
   3.154931e+01  -7.123230e+00
  -6.772055e+01   3.797958e+01
  -6.232482e+01   4.109731e+01
  -4.782404e+01  -4.262760e+01
   3.039676e+01  -3.580445e+01
  -1.940104e+01   5.436920e+00
   2.236798e+00  -5.680240e+00
   3.127499e+01   1.920396e+01
   2.815236e+01   4.399358e+00
  -1.339286e+01  -1.296332e+01
  -7.557378e+01  -4.178317e+01
  -1.426320e+01   4.011558e+01
   2.060334e+01   4.719396e+01
  -2.370532e+01  -3.002388e+00
  -2.066816e+01  -7.481869e+01
   5.049833e+00  -4.642364e+01
   3.282137e+01  -5.526030e+00
   7.302853e+01   3.445487e+01
   2.414910e+01   5.986813e+01
   1.025403e+01   5.275057e+01
  -8.687756e+01   1.109045e+00
  -4.123171e+01  -2.542351e+01
   6.100131e+01  -4.125162e+01
   5.809371e+01  -1.732355e+00
   4.493075e+01  -2.400627e+01
  -2.075297e+01   4.909095e+01
  -1.337489e+01   1.565403e+01
   3.214049e+01  -1.642761e+00
   2.806993e+01  -3.990696e+01
