
 $NMID
 id='ANONYMOUS ', fmtdat='(2E16.6)'
 volume=1.0
 tramp=1.0
 $END
   4.878974e+03  -3.080482e+02
   2.783656e+03   3.444719e+03
  -1.049315e+03   3.045574e+03
  -2.534784e+03   7.077456e+02
  -1.032698e+03  -1.046693e+03
   7.737369e+02  -9.191179e+02
   1.025744e+03   6.065728e+02
  -9.117505e+01   1.370100e+03
  -8.875391e+02   7.952098e+02
  -1.127418e+03  -1.858734e+02
  -5.169463e+02  -1.027058e+03
   3.318697e+02  -9.624576e+02
   6.412570e+02  -2.809563e+02
   2.876888e+02   7.867099e+02
  -3.949114e+02   9.815443e+02
  -6.841922e+02   1.146315e+02
  -4.730496e+02  -6.972956e+02
   2.074036e+02  -5.836121e+02
   5.552918e+02  -1.528715e+02
   4.982014e+02   2.236271e+02
   7.700670e+01   5.937530e+02
  -3.696742e+02   5.138940e+02
  -4.068065e+02  -3.700462e+01
  -7.518931e+01  -1.862816e+02
   5.996363e+02   7.419918e+01
   3.422607e+02   4.192259e+02
  -4.235123e+02   5.874001e+02
  -1.037626e+03   1.292336e+02
  -6.068545e+02  -4.867426e+02
   4.086916e+02  -6.539910e+02
   6.374813e+02  -1.671659e+00
   4.625820e+02   5.310218e+02
  -2.007813e+02   6.522663e+02
  -6.923935e+02   2.463534e+02
  -4.570445e+02  -2.163946e+02
  -1.396679e+02  -6.005435e+02
   2.106585e+02  -3.876067e+02
   1.827106e+02   1.735526e+02
  -1.804514e+02   5.795754e+02
  -5.399998e+02  -1.493418e+01
  -3.855543e+02  -7.457160e+02
   3.337710e+02  -8.388156e+02
   7.410743e+02  -1.094018e+02
   3.349245e+02   5.797012e+02
  -3.258059e+02   3.416319e+02
  -4.239868e+02  -3.768279e+02
   4.094480e+01  -6.359154e+02
   6.170539e+02  -1.505329e+02
   6.896371e+02   4.371103e+02
   1.663825e+02   6.412505e+02
  -4.513548e+02   3.973537e+02
  -7.122720e+02  -4.059671e+01
  -3.981432e+02  -4.128751e+02
   2.147142e+02  -4.244589e+02
   5.236967e+02  -7.724972e+01
   2.458201e+02   2.570542e+02
  -1.573809e+02   1.561188e+02
  -1.879413e+02  -1.752608e+02
   1.554674e+02  -2.228578e+02
   3.956217e+02   5.300497e+01
   1.617625e+02   3.452441e+02
  -1.702242e+02   2.909383e+02
  -3.194174e+02   3.053351e+01
  -2.065080e+02  -1.144086e+02
   2.784139e+01  -2.254687e+02
   1.880457e+02  -2.985825e+02
   3.361335e+02  -1.908748e+02
   3.436201e+02   1.406543e+02
   1.086496e+02   4.586991e+02
  -1.320639e+02   4.062999e+02
  -1.692443e+02   7.974127e+01
  -8.629132e+01  -5.252265e+01
   2.141627e+01   5.098974e+01
  -1.354454e+02   1.199330e+02
  -2.589775e+02   9.406707e+00
  -1.693181e+02  -2.373897e+02
   4.296904e+01  -2.878063e+02
   2.848592e+02  -1.082845e+01
   2.221482e+02   2.474078e+02
  -1.955722e+01   2.956257e+02
  -3.186031e+02   1.500368e+02
  -4.156753e+02  -1.658659e+02
  -1.958286e+02  -3.590550e+02
   1.084973e+02  -3.209774e+02
   2.244059e+02  -1.484569e+02
   1.853418e+02  -1.664761e+01
   1.697125e+02  -6.078616e+01
   2.430248e+02  -4.883791e+01
   3.823526e+02   8.736745e+01
   3.162361e+02   3.217225e+02
   5.360949e+01   4.875485e+02
  -2.611733e+02   4.389814e+02
  -4.815095e+02   2.487383e+02
  -4.380138e+02  -4.202343e+01
  -1.262856e+02  -2.698530e+02
   1.343171e+02  -2.968414e+02
   1.071269e+02  -3.967911e+01
  -9.056307e+01   1.117332e+02
  -2.402093e+02  -2.279226e+00
  -6.233098e+01  -2.347981e+02
   1.758430e+02  -2.562781e+02
   1.988992e+02   7.726329e+01
  -1.060145e+00   2.410898e+02
  -2.676952e+02   8.025199e+01
  -2.087508e+02  -2.034959e+02
  -4.630825e+00  -3.294480e+02
   1.839719e+02  -1.885519e+02
   3.283966e+02   3.910452e+01
   2.524034e+02   1.801871e+02
   1.155255e+02   2.032339e+02
  -9.511737e+01   1.921281e+02
  -1.930440e+02   5.424145e+01
  -7.439221e+01   3.115688e+01
   5.113406e+01   3.730874e+01
   3.801952e+01   1.034432e+02
  -1.594784e+02   1.028207e+02
  -1.845981e+02  -1.057389e+02
  -4.787095e+01  -1.176341e+02
   5.824106e+01  -5.237296e+01
   3.755538e+01   6.775051e+01
  -9.840699e+01   9.045209e+01
  -2.783589e+02  -1.412113e+01
  -2.563665e+02  -1.282918e+02
  -5.744961e+01  -2.591591e+02
   1.703430e+02  -2.519780e+02
   2.567369e+02  -1.251869e+02
   1.400229e+02   4.938287e+01
  -4.326252e+01   9.510942e+01
  -9.555739e+01  -2.681333e+01
   3.033230e+01  -1.588936e+02
   2.503768e+02  -3.594077e+01
   2.741101e+02   1.790062e+02
   7.939543e+01   2.226805e+02
  -9.024362e+01   1.825114e+02
  -1.654538e+02   5.211943e+00
  -1.124287e+02  -6.859657e+01
   2.163834e+01  -2.170351e+01
   5.338759e+01   3.701470e+01
  -6.990074e+01   8.523776e+01
  -1.651071e+02   7.147351e+01
  -2.103533e+02  -9.107610e+01
  -1.759836e+01  -1.950820e+02
   1.671461e+02  -1.481092e+02
   1.872756e+02  -1.282369e+01
   7.690572e+01   1.225010e+02
  -2.863398e+01   1.125287e+02
  -8.353309e+01  -1.300925e+01
  -3.579783e+01   3.589383e+01
   2.207971e+00  -8.772490e+00
   9.665969e+00   2.048335e+01
  -1.266783e+01  -1.918106e+01
  -8.269042e+01  -6.569618e+01
  -5.950598e+00  -1.215107e+02
   6.584530e+01  -1.565492e+02
   2.181108e+02  -3.456071e+01
   1.844778e+02   1.231162e+02
   6.084580e+01   2.396870e+02
  -9.710038e+01   1.699889e+02
  -1.114015e+02   2.159198e+01
  -3.390439e+01  -7.754093e+01
  -4.938168e+00   2.478657e+00
  -6.828790e+01   2.719336e+01
  -1.281491e+02  -9.057735e+00
  -3.968976e+01  -3.784733e+01
   3.468706e+01  -1.111584e+02
   1.250473e+02  -5.139173e+01
   1.163108e+02   6.379224e+01
  -2.913152e+01   8.544775e+01
  -1.166814e+02   9.233979e+01
  -1.912461e+02  -4.517469e+01
  -1.183439e+02  -2.350351e+02
   1.461485e+02  -2.213841e+02
   2.140167e+02  -8.519225e+01
   2.047686e+02   8.806476e+01
   1.633529e+02   2.241652e+02
  -1.566398e+01   1.817181e+02
  -1.235956e+02   1.115470e+02
  -8.403925e+01   4.637994e+01
  -1.218748e+02   3.425975e+01
  -8.939125e+01   8.036513e+01
  -9.452346e+01   4.923792e+00
  -1.094794e+02  -1.183824e+02
  -5.310838e+01  -1.803725e+02
   6.810070e+01  -2.385002e+02
   2.007197e+02  -6.328010e+01
   1.796743e+02   9.213128e+01
   5.741340e+01   1.719515e+02
  -8.960713e+01   1.146601e+02
  -1.064008e+02   5.896293e+01
  -2.099769e+01  -6.592662e+01
  -1.157884e+01  -5.589273e+01
  -3.636778e+00  -2.845634e+01
  -8.138418e+01  -1.900745e+01
  -1.878118e+01  -3.771095e+00
   6.397936e+01   2.160057e+01
   1.547885e+02   2.642464e+01
   1.384748e+02   7.952359e+01
  -2.236351e+01   1.356062e+02
  -1.333084e+02   3.843099e+01
  -1.386176e+02  -3.605727e-01
  -3.665041e+01  -8.394663e+01
   5.015989e+01  -5.782144e+01
   9.757311e+01   1.057223e+01
   7.177943e+00   8.821084e+01
  -2.086761e+01   9.791793e+01
  -9.122378e+01  -1.131484e+01
  -2.131935e+01  -4.542899e+01
  -1.938427e+01  -5.687127e+01
  -7.053282e+01  -4.841624e+01
  -9.546632e+01  -5.743803e+00
  -5.136721e+01  -8.063157e+01
   9.073854e+01  -1.590771e+02
   1.473424e+02  -1.331201e+02
   1.536747e+02  -5.103005e+01
   1.065448e+02   2.836791e+01
   8.128617e+01   1.306768e+02
  -8.904076e+01   9.750205e+01
  -3.636011e+01   1.931499e+00
   7.224727e+01  -3.565625e+01
   1.323984e+02   9.077394e+00
   1.269787e+02   9.433217e+01
  -7.420799e+01   1.185426e+02
  -2.304011e+02   4.344805e+01
  -1.561033e+02  -2.454840e+01
  -4.134689e+01  -1.392545e+02
   8.636624e+01  -7.618400e+01
   2.840662e+01   1.934916e+00
  -3.039935e+01   6.363104e+01
  -9.895229e+01  -1.899848e+01
  -6.832452e+01  -1.665280e+02
   7.467126e+01  -1.912023e+02
   1.661843e+02  -2.610734e+01
   1.835333e+02   5.107416e+01
   4.211915e+01   1.904043e+02
  -1.038122e+02   1.662901e+02
  -1.151435e+02  -5.797020e+01
  -8.877368e+01  -8.577576e+01
  -2.954866e+01  -1.468323e+02
   7.144312e+01  -1.147104e+01
   6.725129e+01   1.029445e+01
   7.570489e+01   4.648751e+01
  -4.646630e+01  -4.652418e+01
  -1.427268e+01  -8.562894e+00
   5.835479e+01   5.454246e+01
   4.400988e+01   1.123816e+02
   1.273818e+01   5.297914e+01
  -1.684587e+02  -2.907853e+01
  -9.974452e+01  -9.226626e+01
   7.537162e+00  -3.043286e+00
   1.047889e+02   9.744300e+00
   7.443702e+01   4.705980e+01
  -2.712016e+01   5.917621e+01
  -5.527746e+01  -3.310183e+01
  -1.343209e+01   1.012240e+01
  -1.214584e+00  -2.199957e+01
  -2.483125e+01  -7.355127e+00
  -4.119570e+01   1.347414e+01
  -1.083881e+02  -1.797740e+01
   5.345260e+00  -6.122103e+01
   1.027627e+02  -8.659452e+01
   2.024424e+02  -3.971886e+01
   1.331992e+02   9.454186e+01
  -2.033248e+01   1.664155e+02
  -1.335268e+02   1.728547e+02
  -1.591865e+02   4.203626e+01
  -7.559713e+01  -8.965873e+01
  -4.997480e+01  -3.700809e+01
   5.390876e+01  -1.012809e+01
  -9.290491e+00  -3.426049e+01
  -4.786954e+01  -5.917056e+01
  -9.630501e+00  -1.680960e+02
   8.080810e+01  -7.701642e+01
   1.245001e+02  -1.780400e+01
   1.045355e+02   1.004709e+02
  -7.883204e+00   1.517777e+02
  -8.079770e+01   5.435668e+01
  -1.173736e+02  -5.106414e+01
  -4.595334e+01  -5.149538e+01
   4.868256e+01  -7.492725e+01
   9.224852e+01   1.022059e+01
   3.891174e+01   9.262884e+01
  -6.656977e+01   7.127238e+01
  -4.495458e+01   3.548000e+01
   5.670600e+00  -1.849969e+01
   2.444928e+01  -1.722894e+01
  -9.214176e+00   6.351613e+01
  -7.554932e+01   7.915468e+01
  -1.579710e+02   5.475649e+01
  -1.172524e+02  -4.057327e+01
  -1.453777e+01  -1.184459e+02
   2.413593e+01  -6.633366e+01
   3.780156e+01  -2.540218e+01
  -8.352056e+00   5.641897e+01
  -8.910580e+01   3.330659e+01
  -3.474594e+01  -1.429008e+01
  -4.520301e+00  -7.427268e+01
   6.511772e+00  -2.134533e+01
   7.630043e+01  -2.840313e+01
   3.906147e+01  -2.003223e+01
   2.401959e+01  -6.134142e+00
   1.851919e+01  -1.297138e+01
   2.058823e+01   4.877738e+01
  -1.454462e+01   4.884876e+01
  -2.672857e+01   2.670238e+01
   4.520529e+00   2.697354e+01
  -5.538967e+01  -2.698394e+00
   3.083233e+01  -4.717048e+01
   6.466132e+01  -1.254682e+00
   1.149428e+01   5.826989e+01
  -2.914675e+01   5.110744e+01
  -5.747028e+01   2.150722e+01
  -6.222724e+01  -5.332409e+01
  -5.001000e+01  -8.805019e+01
   4.963169e+01  -9.333059e+01
   6.210609e+01  -6.344225e+01
   3.296315e+01  -6.859519e+00
  -9.648007e+00   1.209200e+01
  -5.462840e+01   1.192491e+01
   4.750493e+01  -4.120470e+01
   4.736818e+01  -4.383053e+01
