
 $NMID
 id='ANONYMOUS ', fmtdat='(2E16.6)'
 volume=1.0
 tramp=1.0
 $END
  -4.854229e+03   5.366116e+02
  -2.722928e+03  -3.222336e+03
   7.952141e+02  -3.224509e+03
   2.139991e+03  -1.028803e+03
   1.331906e+03   7.194466e+02
  -9.339628e+02   7.441744e+02
  -1.038826e+03  -6.229082e+02
  -1.007441e+02  -1.184693e+03
   1.042009e+03  -8.867867e+02
   1.102673e+03   7.610720e+01
   5.600752e+02   8.319420e+02
  -4.659567e+02   9.314582e+02
  -6.772543e+02   2.294673e+02
  -6.130098e+02  -8.270225e+02
   1.816574e+02  -7.552155e+02
   8.253695e+02  -2.970980e+02
   6.867599e+01   9.495658e+02
  -3.106340e+02   7.883232e+02
  -6.950298e+02   1.861122e+02
  -5.613805e+02  -2.602373e+02
  -1.570300e+02  -5.529834e+02
   3.080162e+02  -1.981853e+02
   2.371738e+02  -6.990525e+01
  -2.546494e+02   1.052211e+02
  -4.356161e+02  -1.233483e+02
  -3.114962e+02  -5.720414e+02
   4.946894e+02  -3.276955e+02
   8.981182e+02   1.440771e+02
   4.663622e+02   7.399567e+02
  -4.566550e+02   4.989057e+02
  -8.025650e+02  -5.243808e+01
  -4.406322e+02  -5.744463e+02
   2.582801e+02  -6.064570e+02
   6.999871e+02  -1.841803e+02
   4.472408e+02   3.676422e+02
   1.037582e+02   5.361914e+02
  -4.065737e+02   2.960165e+02
  -3.424197e+02  -4.080730e+02
   6.492608e+01  -5.190763e+02
   5.446484e+02  -2.394357e+01
   3.082598e+02   7.318312e+02
  -3.673299e+02   8.041324e+02
  -6.423388e+02  -4.058916e+01
  -2.726365e+02  -6.406046e+02
   3.410407e+02  -4.434053e+02
   4.634791e+02   3.172112e+02
  -6.712439e+01   6.963236e+02
  -6.494913e+02   2.060010e+02
  -6.118599e+02  -3.831092e+02
  -1.606459e+02  -6.481839e+02
   4.492019e+02  -4.044551e+02
   6.661234e+02   1.583700e+02
   3.863705e+02   4.993187e+02
  -2.136247e+02   4.253813e+02
  -5.256823e+02   2.096119e+01
  -2.727210e+02  -2.639094e+02
   1.256102e+02  -1.587084e+02
   1.481001e+02   1.210416e+02
  -1.999413e+02   2.371978e+02
  -3.840302e+02  -3.636938e+01
  -1.580737e+02  -3.447623e+02
   2.285380e+02  -3.073639e+02
   3.404574e+02  -1.343238e+02
   2.338603e+02   8.288553e+01
   1.849769e+01   3.122461e+02
  -1.585728e+02   3.694540e+02
  -2.804870e+02   2.675061e+02
  -3.677990e+02  -1.393722e+02
  -1.312114e+02  -4.499797e+02
   1.425938e+02  -4.181495e+02
   1.562739e+02  -1.771207e+02
   5.708057e-01  -7.061909e+00
   4.335148e+01  -1.096373e+02
   1.980755e+02  -1.155018e+02
   3.179385e+02   5.141838e+01
   2.076997e+02   2.985422e+02
  -9.161104e+01   2.733686e+02
  -3.104266e+02   1.097884e+01
  -2.786808e+02  -2.443321e+02
  -5.147519e+01  -3.209088e+02
   2.215008e+02  -1.871919e+02
   4.563862e+02   1.190732e+02
   3.003988e+02   4.048966e+02
  -7.314904e+01   3.801472e+02
  -3.195747e+02   1.713301e+02
  -2.001451e+02  -1.912561e+00
  -1.651683e+02  -2.492387e+00
  -2.563736e+02   6.515115e+01
  -4.078997e+02  -2.201523e+01
  -3.914417e+02  -3.225877e+02
   2.896037e+01  -5.382053e+02
   4.170692e+02  -4.748747e+02
   5.498730e+02  -2.507928e+02
   3.779159e+02   9.358350e+01
   7.374473e+01   2.889376e+02
  -1.407385e+02   2.208498e+02
  -1.529330e+02   7.913137e+01
   7.078994e+01  -1.253628e+02
   2.520602e+02   1.218999e+01
   9.878444e+01   1.710722e+02
  -1.135047e+02   1.706335e+02
  -1.758601e+02  -3.868125e+01
   4.863310e+00  -2.034497e+02
   2.061296e+02  -2.862920e+01
   2.289825e+02   2.571786e+02
  -1.047145e+01   4.232822e+02
  -2.422039e+02   2.409776e+02
  -3.443609e+02  -2.947574e+01
  -3.194021e+02  -2.517472e+02
  -1.212572e+02  -2.949576e+02
   9.089384e+01  -1.749318e+02
   1.403875e+02   1.258924e+01
   3.662162e+01   4.120585e+01
  -5.089437e+01  -1.585685e+01
  -2.711602e+01  -1.359882e+02
   1.744754e+02  -1.390432e+02
   1.888227e+02   2.375911e+01
   3.900277e+01   9.410790e+01
  -7.915022e+01   4.923986e+01
  -9.618872e+01  -8.152830e+01
   1.435725e+02  -1.442042e+02
   3.052384e+02  -8.728260e+00
   2.550514e+02   1.391998e+02
   7.312048e+01   2.896251e+02
  -1.983954e+02   2.836873e+02
  -2.861718e+02   1.442837e+02
  -2.151145e+02  -9.563290e+01
   3.213041e+01  -1.351689e+02
   1.553479e+02   1.483260e+01
  -7.954553e+00   6.387220e+01
  -1.688982e+02   7.410107e+01
  -2.561586e+02  -1.051931e+02
  -1.265411e+02  -2.699610e+02
   7.212514e+01  -1.812810e+02
   1.866417e+02  -3.283808e+01
   9.250866e+01   7.915934e+01
  -2.190955e+01   3.759165e+01
  -4.064943e+01  -2.923526e+01
   2.400171e+01  -9.793291e+01
   1.645272e+02  -5.815126e+00
   2.081979e+02   1.077959e+02
   2.569276e+01   2.319030e+02
  -1.765988e+02   1.709413e+02
  -2.171257e+02   1.796329e+01
  -5.980727e+01  -1.115049e+02
   9.483181e+01  -1.637552e+02
   1.025190e+02  -4.884862e+01
   4.364032e+00   1.015445e+01
  -3.166007e+01   1.236010e+01
   3.617310e+00  -1.186516e+01
   5.275912e+01   2.667719e+00
   1.029590e+02   6.868407e+01
   4.571696e+01   1.650133e+02
  -1.112542e+02   1.850171e+02
  -2.293881e+02   1.284394e+01
  -2.015206e+02  -1.426948e+02
  -3.854804e+01  -2.946987e+02
   8.981351e+01  -1.715805e+02
   1.118856e+02   7.683695e+00
   8.988274e+01   6.175817e+01
   2.647848e+00   9.661652e+01
   2.190504e+01  -8.984459e+01
   5.499916e+01  -1.644087e+01
   3.481562e+01   2.072568e+01
  -3.971254e+01   7.336376e+01
  -1.393640e+02   3.996673e+01
  -1.133626e+02  -5.401799e+01
   3.092555e+01  -1.278008e+02
   1.852176e+02  -8.829152e+01
   1.962967e+02   4.817927e+01
   8.976462e+01   2.165818e+02
  -1.339898e+02   2.376730e+02
  -2.822494e+02   1.208438e+02
  -2.639762e+02  -8.440106e+01
  -1.090808e+02  -1.884222e+02
   2.934467e+01  -1.390860e+02
   7.502721e+01  -1.013294e+02
   6.459268e+01  -8.009529e+01
   7.191175e+01  -1.086385e+02
   1.164430e+02  -7.007583e+01
   1.730152e+02   3.863987e+01
   1.088445e+02   1.388562e+02
  -7.030511e+00   2.742162e+02
  -1.142486e+02   1.649206e+02
  -2.167100e+02   3.681233e+01
  -1.384284e+02  -9.338906e+01
  -2.546124e+01  -1.718281e+02
   9.456948e+01  -6.366641e+01
   7.523224e+01   4.670130e+01
   4.000142e+01   6.778770e+01
   2.100552e+01   3.387047e+01
   5.545987e+01   2.291912e+01
   1.053444e+02   2.356509e+01
  -2.146083e+00   3.703189e+01
  -1.099606e+02   5.027469e+01
  -1.693145e+02   2.662903e+01
  -1.732764e+02  -2.475236e+01
  -2.336072e+01  -1.203183e+02
   1.233995e+02  -8.353083e+01
   1.517940e+02  -4.270636e+01
   4.139569e+01   1.130596e+02
  -9.277052e+01   5.502691e+01
  -8.925023e+01  -5.602362e+01
   3.354596e+00  -5.376196e+01
   4.710267e+01  -8.631811e+01
   8.207577e+01  -1.592628e+01
   2.592607e+01   6.376445e+01
   1.396014e+01  -1.132643e+01
   6.957018e+01  -2.512095e+01
   3.101504e+01   2.964895e+00
   4.093326e+01   2.371393e+01
  -2.940084e+01   1.965835e+02
  -1.178342e+02   2.179375e+02
  -1.528865e+02   9.264926e+01
  -1.643094e+02  -8.743521e+01
   1.717588e+01  -1.497737e+02
   9.751615e+01  -7.559240e+01
   8.428875e+01   4.837688e-01
  -5.559008e+01   4.121489e+01
  -1.976778e+02  -2.985664e+00
  -1.022799e+02  -9.522938e+01
   4.925033e+01  -1.376548e+02
   1.515604e+02  -8.254674e+01
   2.265314e+02   3.502727e+01
   7.027324e+01   7.860362e+01
  -2.259573e+01   9.884076e+01
  -7.995357e+01   6.870565e+01
  -1.236263e+00  -7.993448e+00
   1.025768e+02   4.082636e+01
   3.064995e+01   1.434527e+02
  -8.448061e+01   1.388957e+02
  -1.749203e+02   8.372682e+01
  -1.702711e+02  -1.101390e+02
  -8.759523e+00  -1.970114e+02
   5.170733e+01  -1.031290e+02
   7.536733e+01   1.652153e+01
   9.639526e+01   1.242067e+02
  -3.551455e+01   7.271371e+01
  -3.656431e+01   1.575171e+01
  -4.381521e+01  -2.023460e+01
   8.951145e+00  -3.184226e+01
   1.804413e+01   2.437869e+01
  -8.355867e+00  -3.527845e+00
  -6.499452e+01  -4.760578e+01
  -6.233035e+01  -9.881588e+01
   6.226081e+01  -5.892701e+01
   1.830293e+02   5.910061e+01
   1.593600e+02   1.188286e+02
   3.941624e+01   6.843924e+01
  -7.905480e+01   8.228993e+01
  -6.221669e+01   3.671424e+01
  -4.104447e+01   2.237781e+01
   1.487316e+01  -1.691516e+01
   2.061533e+01  -5.304874e+01
  -1.247083e+01  -4.379642e+01
   1.227176e+01  -2.170824e+01
   3.629245e+01  -1.324758e+01
   4.007016e+01  -1.574593e+01
   3.734370e+01   4.299456e+01
  -6.575514e+01   1.458913e+02
  -1.867277e+02   4.443872e+01
  -1.224768e+02  -9.315190e+01
  -3.979414e+01  -1.448535e+02
   8.267469e+01  -1.476149e+02
   1.417253e+02  -6.774193e+01
   3.899073e+01   2.123504e+01
   2.443775e+01   1.571551e+01
   3.299925e+01   1.551336e+01
   3.889384e+00   9.019472e-01
   3.446029e+01   4.722784e+01
   8.176749e+01   1.090096e+02
  -3.836828e+00   8.592787e+01
  -8.778423e+01   2.678642e+01
  -8.840393e+01  -3.523236e+01
  -3.207371e+01  -1.149331e+02
   7.547360e+01  -7.713063e+00
   1.318788e+02   1.615510e+01
   6.690992e+01   4.673283e+01
  -7.550164e+01   5.532190e+01
  -7.627461e+01   9.651941e+00
  -4.840149e+01  -1.963511e+01
  -5.564132e-01   1.110733e+01
   5.623047e+01  -2.860771e+01
  -4.665172e+01   4.407092e+00
  -6.384848e+01   1.360493e+01
  -6.704732e-01  -3.936666e+01
   7.862082e+01  -5.356355e+01
   1.313266e+02  -7.331643e+01
   8.256612e+01  -4.935128e+00
   2.172125e+01   9.874138e+01
  -5.191465e+01   6.658322e+01
  -2.804145e+01  -2.085509e+01
   4.746169e+01  -4.213170e+01
   4.828840e+01  -5.876058e+01
  -3.184455e+01   1.111055e+01
   7.151091e+01   4.969218e+01
   1.972776e+01   2.130256e+01
  -5.810233e+01  -2.388440e+01
  -2.500180e+01  -3.120782e+01
  -3.547829e+01  -4.852001e+00
  -7.522937e+00   3.327898e+01
  -1.035096e+00  -2.827325e+01
  -6.787823e+00  -3.084021e+01
   7.170679e+00  -4.781208e+01
   4.712714e+01  -5.688899e+00
   6.657750e+01   4.813748e+01
   8.011979e+00   4.866792e+01
  -4.720149e+01  -7.288153e+00
  -8.815049e+01  -3.153679e+01
  -2.586415e+00  -9.747078e+01
   4.535435e+01  -5.604482e+01
   8.495284e+01  -9.005955e-02
   3.933576e+01   1.108103e+01
  -6.747376e+01  -2.653266e+01
  -6.985677e+01   2.456666e+01
  -1.886226e+01  -4.320504e+01
   3.038451e+01  -2.686141e+01
   4.638961e+01   4.227136e-01
   1.149068e+01   4.496582e+01
  -6.644043e+01   4.358024e+01
