
 $NMID
 id='ANONYMOUS ', fmtdat='(2E16.6)'
 volume=1.0
 tramp=1.0
 $END
   1.888977e+03  -2.224190e+02
   1.194454e+03   9.908807e+02
   1.178913e+02   1.413727e+03
  -8.567982e+02   9.150130e+02
  -6.605053e+02   2.851968e+02
  -1.631027e+02  -6.774654e+01
  -1.161669e+01  -1.996415e+01
  -3.531169e+01   2.622089e+02
  -1.990552e+02   2.569360e+02
  -2.778639e+02   1.305467e+02
  -4.507574e+02  -1.206576e+02
  -7.810581e+01  -5.062037e+02
   3.147791e+02  -3.892603e+02
   1.399568e+02   1.885605e+02
  -4.783116e+01   3.441488e+02
  -2.346486e+02   8.398620e+01
  -2.111817e+02  -3.950803e+02
   7.810923e+01  -6.665700e+02
   2.208750e+02  -2.399961e+02
   4.199438e+02  -9.063049e+00
   2.377286e+02   1.274905e+02
  -7.317753e+01   1.617354e+02
   8.398009e+01   3.374153e+01
   1.185057e+02   8.070071e+01
   1.051323e+02   3.156362e+02
  -6.663132e+01   2.571023e+02
  -1.280894e+02  -3.731788e+01
  -2.692881e+02  -1.592093e+02
  -1.858018e+02  -2.110867e+02
   1.240164e+02   6.117390e+01
   2.772399e+02   6.833149e+01
   1.525181e+02   1.342459e+02
  -1.758198e+02   2.705752e+02
  -2.783979e+02   1.548302e+02
  -2.212480e+02  -1.013243e+02
  -1.823542e+02  -1.715943e+02
  -9.982365e+01  -1.188181e+02
  -7.474619e+01  -6.264849e+00
  -1.272548e+02  -6.141133e+01
  -4.867956e+01  -2.180944e+02
   9.021676e+01  -2.530625e+02
   1.908304e+02  -1.965931e+02
   1.040883e+02  -7.506392e+01
   3.736530e+01   8.503991e+01
  -7.178814e+00  -4.316675e+00
   2.590576e+01  -1.989690e+02
   1.966009e+02  -1.800636e+02
   2.934125e+02   3.015083e+01
   2.598043e+02   2.372643e+02
   8.239459e+01   2.804261e+02
  -1.454863e+02   1.491073e+02
  -2.436017e+02  -1.686557e+01
  -1.579336e+02  -1.134990e+02
   1.103608e+01  -7.569834e+01
   1.344307e+02  -3.678970e+01
   1.280320e+02  -6.638052e-01
   6.018770e+01   7.702600e+00
   2.215788e+01   1.794144e+01
   4.908393e+01   6.164363e+00
   7.117080e+01  -1.468868e+01
   5.269179e+01   1.229884e+02
  -1.263012e+02   1.627270e+02
  -2.313764e+02   9.649728e+01
  -1.613409e+02  -1.143888e+02
   5.301001e+01  -2.210690e+02
   1.820122e+02  -2.121424e+02
   2.262561e+02  -6.666436e+01
   1.854914e+02   1.360377e+02
   9.065865e+01   1.976775e+02
  -1.632462e+01   2.027016e+02
  -4.303202e+01   1.475922e+02
  -5.888535e+01   1.410904e+02
  -1.318101e+02   5.164120e+01
  -1.773060e+02  -4.707434e+01
  -1.132235e+02  -1.092698e+02
  -4.728226e+01  -1.266226e+02
   6.041283e+01  -5.548711e+01
   1.108125e+02   6.474849e+01
   7.134742e+01   1.655114e+02
  -5.136116e+01   1.296533e+02
  -1.628386e+02   3.870523e+01
  -2.044487e+02  -8.646595e+01
  -1.241937e+02  -1.799790e+02
  -5.665645e+00  -2.029193e+02
   7.827100e+01  -1.674591e+02
   5.394950e+01  -7.060226e+01
   1.342975e+02  -6.026316e+01
   2.079754e+02  -1.626805e+01
   2.788251e+02   4.696768e+01
   1.189223e+02   1.716662e+02
  -2.355986e+01   1.765132e+02
  -1.918791e+02   2.523535e+02
  -2.411310e+02   1.169282e+02
  -1.224346e+02  -5.809522e+01
   1.133818e+01  -1.242096e+02
   1.998163e+01  -8.941971e+01
  -1.967147e+01  -3.453376e+01
  -6.625023e+01  -6.801194e+01
  -1.550966e+01  -8.297784e+01
   2.690183e+01  -8.380233e+01
   7.209090e+01  -3.404706e+01
   5.080816e+01   3.820586e+01
   4.232450e+01   9.946073e+01
  -1.202522e+02   3.580366e+00
  -1.026002e+02  -1.427574e+02
   1.053100e+01  -1.690940e+02
   1.919159e+02  -1.017536e+02
   2.421283e+02   2.593075e+01
   1.848693e+02   1.385034e+02
   4.704451e+01   1.398098e+02
  -6.611121e+01   9.217241e+01
  -7.056457e+01   1.014414e+01
   9.673346e-01  -4.766549e+00
   4.604321e+01   4.186095e+01
   7.309372e+00   7.832881e+01
  -1.127127e+02   3.956776e+01
  -1.088994e+02   2.560057e+01
  -9.414941e+00   2.023704e+01
   8.846241e+01   6.172510e+01
   3.671869e+01   6.440715e+01
  -1.251878e+02   8.572221e+01
  -1.916315e+02  -1.455781e+01
  -1.723584e+02  -8.688514e+01
  -5.594278e+01  -1.466190e+02
   9.889214e+01  -1.635342e+02
   1.474783e+02  -7.885205e+01
   6.354917e+01   1.867047e+01
  -1.735275e+01   8.623504e+01
  -2.213116e+01  -1.078276e+01
   6.961574e+01  -4.669129e+01
   4.857969e+01  -2.427393e+01
   1.086475e+02   8.387494e+01
   2.565483e+01   1.271031e+02
  -3.768156e+01   8.835868e+01
  -7.461558e+01   3.321368e+01
  -1.122787e+00  -6.016780e+01
   2.773104e+01  -7.477957e+00
  -3.622817e+01   7.621827e+01
  -8.254764e+01   9.262874e+01
  -1.035819e+02   3.262046e+01
  -1.308959e+02  -3.432823e+01
   3.546293e+00  -1.098011e+02
   9.249780e+01  -7.735946e+01
   8.771625e+01  -2.973627e+01
   1.879670e+01   2.830890e+01
  -6.207261e+01   7.753174e+01
  -5.277919e+01   2.080416e+01
   2.412190e+01   1.871790e+01
   3.702453e+01  -3.265443e+01
  -1.934296e+01   1.101832e+01
  -6.631233e+01   1.921013e+01
  -8.641555e+01  -1.023906e+02
   2.450885e+01  -1.537895e+02
   1.827199e+02  -1.232107e+02
   1.578230e+02  -2.467478e+01
   1.276144e+02   9.023712e+01
  -3.099085e+00   1.631323e+02
  -7.365093e+01   1.412288e+02
  -9.409607e+01   4.038918e+01
  -8.014906e+01   1.027909e+01
  -5.592774e+01  -1.790737e+01
  -3.700752e+01  -3.614075e+01
  -3.882912e+01  -3.785559e+01
   3.337082e+00  -5.253161e+01
   7.416225e+00  -2.976079e+01
   9.433804e+01  -9.494997e+01
   9.095478e+01  -3.170424e+01
   1.408191e+01   1.020136e+02
  -1.186391e+02   5.740609e+01
  -1.362917e+02  -7.604071e+01
  -6.121574e+01  -1.066886e+02
   5.339736e+01  -1.488656e+02
   1.863320e+02  -7.016307e+01
   1.626169e+02   3.771909e+01
   1.020105e+02   1.135013e+02
   9.338855e+00   6.224160e+01
  -4.866237e+01   3.706085e+01
  -6.086259e+00   2.306097e+01
  -2.855155e+01   8.535176e+01
  -7.955557e+01   1.238325e+02
  -1.014751e+02   1.112188e+01
  -8.999133e+01  -7.707735e+01
   1.689182e+01  -1.636887e+02
   8.493386e+01  -1.012573e+02
   1.429811e+02  -1.511468e+01
   8.828494e+01   7.428657e+01
  -2.389187e+00   1.534654e+02
  -8.643515e+01   3.114969e+01
  -8.845309e+01  -1.460934e+01
   3.445351e+00  -1.238421e+01
  -3.258258e+01  -3.404340e+01
  -3.065974e+01  -4.759746e+01
  -7.701081e+01  -9.855203e+00
  -6.415397e+01  -7.186519e+01
   9.816671e+01  -2.508469e+01
   1.044861e+02  -1.148853e+01
   9.144545e+01   3.491830e+01
  -2.786225e+01   3.120399e+01
  -4.365733e+01   4.205530e+01
  -5.620853e+01   2.803193e+01
   4.239491e+00  -2.761728e+01
   7.087179e+01  -7.125737e+01
   7.533414e+01  -1.918668e+01
   2.580694e+01   3.370823e+01
  -1.284929e+01   3.112352e+01
  -3.804559e+01   4.732181e+01
  -1.333425e+01   2.992768e+00
  -5.752417e+01  -2.335460e+01
  -5.390512e+01   2.297295e+01
  -6.049039e+01   1.557464e+01
  -6.106834e+01  -2.674216e+01
   1.411136e+01  -1.213397e+02
   8.067949e+01  -9.611693e+01
   1.232897e+02  -2.709078e+01
   6.896822e+01   6.238752e+01
  -7.045410e+00   9.653108e+01
  -5.659422e+01   3.900621e+01
  -5.134388e+01  -3.157471e+00
   2.797759e+01  -2.605428e+01
   3.281460e+01   2.365460e+01
   5.587334e+01   6.236666e+01
  -8.601506e+01   2.951305e+01
  -1.326269e+02   6.042431e+01
  -6.392324e+01  -4.441730e+01
   2.626387e+01  -8.640047e+01
   4.306406e+01  -3.247309e+01
   3.785810e+01  -2.225642e+01
  -4.521359e+01   1.224825e+00
  -7.335657e+01  -4.620602e+01
  -5.167977e+01  -6.938516e+01
   6.251537e+01  -9.278634e+01
   1.122866e+02  -4.866165e+01
   4.288012e+01   7.212616e+01
   1.496779e+01   1.318291e+02
  -3.624110e+01   8.023162e+01
  -6.619991e+01  -2.199286e+01
   6.775487e+00  -9.240581e+01
   5.291033e+01  -5.712087e+01
   6.671215e+01   5.423764e+01
   2.477528e+01   3.390954e+01
   2.740562e+01  -3.789683e+01
  -5.011126e+00  -2.102615e+01
  -3.027540e+00   2.992639e+01
   2.571335e+01   6.710433e+01
   1.857124e+01   1.353891e+02
  -4.103795e+01   3.463026e+01
  -1.065756e+02  -3.351018e+01
  -9.154250e+01  -2.926295e+01
  -3.536862e+01  -9.584242e+00
   4.970798e+01  -8.481661e-01
   6.886573e+01  -3.745922e+01
  -2.399636e+01   1.037981e+01
  -1.201868e+01   2.475262e+01
  -2.925585e+01   9.449660e+00
   1.725955e+01   3.934099e+00
   1.652947e+00   5.365036e+00
  -3.774294e+01  -2.202632e+01
  -8.858664e+01  -4.293076e+01
  -6.451785e+01  -4.401598e+01
   8.163189e+01  -8.392417e+01
   1.363780e+02  -5.559316e+01
   1.307901e+02   2.256912e+01
   2.959006e+01   7.317478e+01
  -6.096421e+01   1.229789e+02
  -7.349385e+01   1.347670e+01
  -6.265952e+01  -6.450149e+01
   7.635902e-02  -1.234805e+01
  -1.121053e+01  -1.148505e+01
   2.828546e+00   7.913809e+00
  -1.510452e+01  -8.592103e+00
   2.291013e+01  -4.348474e+01
   4.276733e+01  -4.267749e+01
   1.049716e+02   1.588582e+01
   5.353756e+01   6.604364e+01
   1.848149e+00   7.040235e+01
  -7.924199e+01  -9.354786e+00
  -6.488285e+01  -7.277416e+01
  -4.620324e+01  -2.760589e+01
   9.988654e+01  -1.964668e+01
   7.233887e+01   1.290123e+01
  -2.386474e+01   6.529797e+01
  -1.498031e+01  -1.613163e+01
  -1.147460e+01  -7.612746e+00
   4.592945e+01  -3.772184e+01
   8.133133e+01   1.114568e+01
   2.479873e+01   5.783151e+01
  -8.575678e+01   7.780802e+01
  -1.106221e+02   6.835222e+01
  -6.057916e+01   2.507329e-01
   7.477852e+01  -9.141313e+01
   2.208718e+01  -5.858731e+01
   2.848478e+01  -5.636130e+01
   6.548336e+01   1.420134e+01
  -1.088392e+01   8.347376e+00
  -5.798716e+01  -2.698376e+01
  -4.203514e+01  -6.626347e+01
   8.512333e+00  -5.490986e+01
   3.382592e+01  -1.289940e+01
   7.244115e+01   6.604130e+01
   1.609484e+01   6.746241e-01
  -4.667389e+00  -5.156088e+01
  -2.886566e+01  -4.762093e-01
   4.104672e+01   1.844213e+01
  -6.484818e+00   6.722908e+01
  -1.253270e+01  -5.786546e+00
   5.816652e+00   6.365235e+00
  -5.818018e+00  -5.543701e+01
  -4.596308e+00  -5.001146e+01
   6.286896e+01   3.225261e+01
  -8.280843e+00   6.459363e+01
  -8.303429e+01   6.328443e+01
  -1.356888e+02  -3.602125e+01
  -2.749910e+01  -2.914693e+01
   1.407725e+01  -5.535014e+01
   1.492217e+01  -4.708169e+01
   5.111838e+01  -4.736375e+00
   1.928210e+01   1.998317e+01
   1.010485e+01   2.852334e+01
   1.050891e+01   2.771281e+00
   3.744072e+01  -2.450241e+01
