
 $NMID
 id='ANONYMOUS ', fmtdat='(2E16.6)'
 volume=1.0
 tramp=1.0
 $END
  -3.709801e+03   1.918070e+01
  -2.257381e+03  -2.479911e+03
   7.737715e+02  -2.508740e+03
   1.689973e+03  -8.555928e+02
   7.785179e+02   4.579828e+02
  -6.342100e+02   5.827677e+02
  -8.216717e+02  -4.922158e+02
  -7.298560e+01  -1.069763e+03
   8.087125e+02  -7.685800e+02
   8.286037e+02   3.697873e+01
   4.835620e+02   6.024536e+02
  -1.711491e+02   7.312773e+02
  -5.499473e+02   1.269021e+02
  -4.435235e+02  -4.232884e+02
   1.159707e+02  -6.047274e+02
   4.965729e+02   8.103817e+01
   3.620731e+02   4.406759e+02
  -2.633590e+02   6.444925e+02
  -4.036749e+02   4.432043e+01
  -2.894451e+02  -2.968279e+02
   2.406008e+01  -4.285725e+02
   1.140407e+02  -2.367615e+02
   2.333643e+02   3.369346e+01
  -1.093911e+01   5.875782e+01
  -4.648449e+02   6.163129e+01
  -2.372180e+02  -4.573545e+02
   4.529177e+02  -4.357808e+02
   8.464304e+02   8.874041e+01
   4.941267e+02   4.553288e+02
  -2.032204e+02   4.692693e+02
  -7.777750e+02   4.435912e+01
  -3.277539e+02  -2.819340e+02
   2.949220e+02  -5.769673e+02
   4.251072e+02  -3.618286e+02
   4.973666e+02   1.583490e+02
   9.300168e+01   5.090786e+02
  -1.468595e+02   2.312015e+02
  -1.497744e+02  -2.517344e+02
   1.078394e+02  -4.488489e+02
   4.028445e+02  -7.082652e+01
   3.053575e+02   6.851421e+02
  -2.504363e+02   6.170963e+02
  -5.376376e+02  -4.197388e+01
  -2.267674e+02  -4.985797e+02
   2.504834e+02  -2.386973e+02
   3.642539e+02   3.202150e+02
  -1.161615e+02   4.558692e+02
  -5.153932e+02   1.300100e+02
  -5.616038e+02  -4.114989e+02
  -1.619397e+02  -5.459719e+02
   3.319773e+02  -3.752822e+02
   5.700595e+02  -2.611056e+01
   3.700337e+02   3.514718e+02
  -1.366056e+02   3.415275e+02
  -3.832200e+02   5.091503e+01
  -2.057310e+02  -1.475134e+02
   1.443046e+02  -7.460040e+01
   1.365243e+02   1.772185e+02
  -1.971413e+02   1.758710e+02
  -3.760368e+02  -9.895799e+01
  -1.395722e+02  -3.248904e+02
   2.508527e+02  -3.181900e+02
   3.592867e+02  -3.264225e+01
   2.299799e+02   1.037740e+02
  -3.194908e+01   2.084692e+02
  -1.642859e+02   2.989883e+02
  -2.641324e+02   1.412238e+02
  -2.288262e+02  -1.005190e+02
  -1.022715e+02  -3.324154e+02
   1.040504e+02  -2.972903e+02
   9.499840e+01  -1.058009e+02
   2.745834e+01  -6.770918e+00
   5.206522e+01  -9.063241e+01
   1.985288e+02  -1.142050e+02
   2.310158e+02   6.013613e+01
   9.939622e+01   2.462912e+02
  -6.942678e+01   1.594218e+02
  -1.483053e+02  -2.809649e+00
  -1.385732e+02  -1.982894e+02
  -3.487324e+01  -2.919467e+02
   2.329682e+02  -1.678991e+02
   3.906958e+02   1.243043e+02
   2.228162e+02   3.160579e+02
  -3.327094e+01   2.861118e+02
  -1.955132e+02   1.397970e+02
  -1.692854e+02   5.803578e+01
  -7.555704e+01   8.388134e+01
  -2.233471e+02   4.363226e+01
  -3.497681e+02  -7.282643e+01
  -3.056480e+02  -2.404123e+02
  -6.206965e+01  -4.234600e+02
   2.748630e+02  -4.379799e+02
   4.697600e+02  -2.630129e+02
   3.298260e+02   1.799078e+01
   9.266941e+01   2.516218e+02
  -7.428989e+01   2.535856e+02
  -7.242712e+01   4.151091e+01
   6.561848e+01  -8.374005e+01
   2.134793e+02   2.491653e+00
   6.235770e+01   2.024164e+02
  -1.687564e+02   1.952878e+02
  -2.205207e+02   1.386891e+01
  -1.526752e+01  -1.933711e+02
   1.568457e+02  -3.680681e+01
   2.093521e+02   2.229925e+02
  -1.957048e+01   3.392534e+02
  -1.799615e+02   2.040321e+02
  -2.782484e+02   5.769150e+00
  -2.640085e+02  -1.739203e+02
  -2.068536e+02  -2.097458e+02
   6.206322e+01  -1.659451e+02
   1.338406e+02  -3.132395e+01
  -7.749343e+00   1.527749e+01
  -7.878601e+01  -5.222225e+01
  -1.563583e+01  -1.255997e+02
   9.869161e+01  -9.403452e+01
   1.786697e+02  -6.023441e+00
   3.110256e+01   3.328814e+01
  -7.523801e+01  -1.656202e+01
  -6.835580e+01  -6.415487e+01
   1.165627e+02  -6.839941e+01
   2.667837e+02  -4.361925e+01
   2.249185e+02   9.622050e+01
   6.934353e+01   2.551072e+02
  -1.278739e+02   2.773808e+02
  -2.326892e+02   1.350290e+02
  -1.376973e+02  -4.404359e+00
   2.072460e+01  -4.883025e+01
   4.599288e+01   5.302472e+00
  -2.786170e+01   9.177503e+01
  -1.659135e+02   8.788547e+01
  -2.252195e+02  -8.181307e+01
  -5.874263e+01  -1.764775e+02
   9.498890e+01  -1.488657e+02
   1.493805e+02   3.698808e-01
   2.635403e+01   2.611029e+01
  -7.685759e+00  -3.752246e+01
  -4.964657e+01  -8.811818e+01
   2.382716e+01  -1.029143e+02
   1.556913e+02  -7.104810e+01
   1.997116e+02   8.955085e+01
   3.917209e+01   2.069711e+02
  -7.974824e+01   1.699168e+02
  -1.880203e+02   2.237194e+01
  -6.854857e+01  -6.891859e+01
   7.540287e+01  -1.309381e+02
   1.431022e+02  -5.934538e+01
   7.104433e+01   3.809416e+01
   2.662054e-01   5.114974e+01
  -1.990955e+01   3.685574e+01
   6.809895e+01   1.737776e+01
   6.561955e+01   5.350635e+01
   2.813099e+01   1.042766e+02
  -1.077397e+02   1.344277e+02
  -1.854637e+02   5.264136e+01
  -1.808955e+02  -5.839037e+01
  -7.120038e+01  -1.784128e+02
   5.158597e+01  -1.599162e+02
   8.270270e+01  -3.911057e+01
   7.987150e+01   4.781419e+01
   5.592492e+01   3.619200e+01
   1.818374e+01   6.391424e+00
   8.079413e+00  -9.406547e-01
   2.971827e+01   3.522792e+01
  -2.362812e+01   4.847643e+01
  -9.087986e+01   5.960901e+01
  -7.949315e+01  -5.588992e+01
  -7.600560e+00  -9.525541e+01
   1.351476e+02  -4.716125e+01
   1.923139e+02   5.513981e+01
   8.303123e+01   1.704405e+02
  -8.084343e+01   2.088112e+02
  -2.209011e+02   9.641193e+01
  -2.376177e+02  -1.277948e+01
  -9.539912e+01  -1.472863e+02
   5.607188e+00  -1.213095e+02
   9.419573e+01  -8.172868e+01
   6.231980e+01  -7.202076e+01
   6.052960e+01  -1.099944e+02
   1.008150e+02  -6.916129e+01
   1.261841e+02   1.990589e+01
   1.405328e+02   1.226632e+02
   3.896517e+01   1.968813e+02
  -8.821868e+01   1.921961e+02
  -1.570775e+02   6.056460e+01
  -1.701239e+02  -1.086366e+02
  -4.035727e+01  -1.102277e+02
   2.739812e+01  -7.251789e+01
   7.311122e+01  -3.117057e+01
   4.240178e+01   1.946435e+01
   1.375290e+01  -2.346458e+01
   3.500088e+01   2.622445e+01
   5.655966e+01   3.752997e+01
   3.517588e+01   6.406230e+01
  -7.304278e+01   4.151987e+01
  -1.281230e+02   3.464503e+01
  -1.170410e+02  -1.993182e-01
  -3.707870e+01  -4.236653e+01
   9.330755e+01  -8.816882e+01
   1.511978e+02  -2.001874e+01
   3.478109e+01   3.143248e+01
  -3.403750e+01   4.362421e+01
  -3.242297e+01   5.222370e+00
  -6.644853e+01  -4.050189e+01
   3.820179e+01  -1.602051e+01
   8.445069e+01   2.802558e+01
   1.040162e+01   2.520209e+01
   2.763690e+01   3.592953e+01
   5.452281e+01  -1.833673e+01
   6.693038e+01  -2.052141e+01
   3.085350e+01   7.158539e+01
  -1.686642e+01   1.554757e+02
  -1.176661e+02   1.723434e+02
  -1.277222e+02   1.752035e+01
  -1.003786e+02  -5.425223e+01
  -1.589806e+01  -1.288466e+02
   9.311448e+01  -3.112765e+01
   5.152481e+01   7.072124e+01
  -7.743817e+01   5.270760e+01
  -1.063055e+02  -1.611154e+01
  -1.089670e+02  -1.507646e+02
   1.997307e+01  -1.304349e+02
   1.844414e+02  -7.017228e+01
   1.659089e+02  -3.087694e+01
   7.937326e+00   3.805828e+01
  -1.560504e+01   7.601221e+01
  -2.654965e+01   1.893739e+01
   2.256429e+01  -4.335191e+01
   7.742608e+01   2.283252e+01
   3.928855e+01   1.151649e+02
  -4.740901e+01   1.205306e+02
  -1.689402e+02   1.056077e+02
  -1.175419e+02  -2.625511e+01
  -3.672634e+01  -1.711115e+02
   8.196536e+01  -1.029909e+02
   9.958178e+01   1.356645e+01
   3.752423e+01   1.151522e+02
   4.084250e+01   6.594480e+01
  -3.867008e+01  -2.786386e+01
  -5.781322e+01  -2.446465e+01
  -1.226382e+01   2.718705e+01
   1.883808e+01  -1.352807e+01
  -4.625269e+01  -2.132522e+01
  -6.422750e+01  -9.456688e+01
  -2.936668e+01  -6.379780e+01
   8.420806e+00  -4.741316e+01
   1.130189e+02   1.233115e+01
   1.272463e+02  -1.524577e+01
   3.144356e+01  -3.024846e-02
  -7.394551e+01   2.398017e+01
  -4.019611e+01   2.303020e+01
  -1.907746e+01  -3.394330e+01
   2.006569e+01  -6.598858e+01
   1.708009e+01  -5.200739e+01
   1.390810e+01  -4.628264e+01
   2.318635e+01  -4.655554e+00
   9.397036e+01  -7.944190e+00
   7.404145e+01   9.376847e+00
   3.370112e+01   6.471329e+01
  -1.118295e+02   1.515258e+02
  -1.740933e+02   6.664333e+01
  -1.202655e+02  -6.262365e+01
  -7.060035e+01  -1.629663e+02
   6.478570e+01  -1.733719e+02
   1.201774e+02  -2.771449e+01
   5.763255e+01   3.154038e+01
   5.167062e+01   4.758249e+00
   3.469651e+01   3.492848e+01
   1.922167e+01   9.634864e+00
   6.631101e+01   4.655720e+01
   6.271915e+01   1.133265e+02
   1.552000e+01   6.349315e+01
  -7.325049e+01  -4.054398e+01
  -9.883941e+01  -7.377854e+01
  -2.077304e+01  -8.948157e+01
   1.681756e+01  -5.626246e+01
   1.101616e+02   3.845318e+01
   2.950213e+01   5.863321e+01
  -2.614169e+01   4.871565e+01
  -7.202415e+01  -1.734762e+01
  -3.806491e+01  -8.973805e+01
   2.379195e+01  -4.867429e+01
   3.584400e+01  -6.900626e+01
  -3.297511e+01  -3.808120e+01
  -5.575632e+01   8.533355e+00
  -1.869577e+01  -3.486892e+01
   5.899036e+01  -7.721278e+01
   5.809078e+01  -3.326034e+01
   6.370317e+01   2.607472e+01
  -1.788447e+01   5.451315e+01
  -5.329205e+01   2.678258e+01
  -3.731408e+01   8.809600e-01
   3.039971e+01  -2.911876e+01
   2.032789e+01  -5.376212e+01
   2.403343e+01  -8.135145e+00
   2.199493e+01   4.226457e+01
  -9.259820e+00   4.546302e+01
  -2.528152e+01  -1.495028e+01
  -1.089841e+01  -5.302479e+01
  -7.720838e+01  -6.168773e+00
  -2.063747e+01   2.893574e+01
   1.743549e+01   1.058870e+01
   1.135922e+01  -3.553691e+01
   3.962286e+01  -6.117889e+01
  -9.373854e+00  -1.098883e+01
  -6.348135e+00   2.742371e+01
   1.078515e+01   3.315823e+01
  -4.623534e+01   2.012359e+01
  -6.432166e+01  -4.778537e+01
   4.946999e+01  -5.491444e+01
   9.425657e+01  -7.033452e+01
   1.104944e+02  -4.643145e+01
   6.029015e+01  -6.729911e-02
  -5.417806e+01   7.792427e+01
  -8.140238e+01  -1.257465e+01
  -3.731337e+00   2.430263e+01
   4.999605e+01   2.649329e+01
   6.344732e+00   7.096673e+01
  -1.719415e+01  -7.880830e+00
  -1.314299e+02   7.033115e+00
