
 $NMID
 id='ANONYMOUS ', fmtdat='(2E16.6)'
 volume=1.0
 tramp=1.0
 $END
   3.531342e+03  -3.388202e+02
   2.066654e+03   2.423327e+03
  -7.917221e+02   2.594261e+03
  -2.109387e+03   4.941178e+02
  -8.147370e+02  -8.813404e+02
   5.817160e+02  -6.905551e+02
   8.619862e+02   2.700115e+02
   8.841400e+01   9.713325e+02
  -6.919842e+02   6.542347e+02
  -8.017004e+02  -1.177201e+02
  -5.512651e+02  -7.280267e+02
   3.411845e+02  -7.750400e+02
   6.120597e+02  -1.969060e+02
   3.959583e+02   6.225144e+02
  -1.412630e+02   5.319879e+02
  -6.310187e+02   2.757393e+01
  -1.832221e+02  -4.538607e+02
   2.547354e+02  -5.011017e+02
   5.656598e+02  -1.344213e+02
   4.576152e+02   4.502717e+02
  -2.404378e+01   3.539670e+02
  -2.195973e+02   3.551549e+02
  -2.521562e+02  -3.399231e+00
   1.405092e+02  -1.103991e+02
   4.019521e+02   1.290437e+02
   1.499130e+02   3.404607e+02
  -3.917157e+02   4.979043e+02
  -8.443187e+02   3.788323e+01
  -3.972659e+02  -4.246899e+02
   2.961906e+02  -4.156896e+02
   6.657582e+02  -2.843850e+01
   3.880693e+02   5.021581e+02
  -9.315143e+01   4.938354e+02
  -4.920929e+02   2.103129e+02
  -4.401724e+02  -2.721996e+02
  -1.950847e+02  -5.071429e+02
   1.420060e+02  -2.496237e+02
   2.336003e+02   1.651216e+02
  -6.182289e+01   4.787189e+02
  -4.247121e+02   2.127320e+00
  -2.938266e+02  -5.559660e+02
   2.019035e+02  -6.669992e+02
   5.996274e+02  -4.672898e+01
   3.029818e+02   4.984507e+02
  -2.666606e+02   2.929401e+02
  -3.674345e+02  -2.532910e+02
   2.454341e+01  -4.433689e+02
   5.375032e+02  -1.879577e+02
   5.974017e+02   3.156970e+02
   1.895098e+02   4.912805e+02
  -3.256600e+02   3.633610e+02
  -5.301641e+02  -3.008737e+01
  -3.370094e+02  -3.373861e+02
   1.277683e+02  -3.475700e+02
   3.523876e+02  -4.497275e+01
   2.167027e+02   2.072372e+02
  -1.258907e+02   1.528569e+02
  -1.239543e+02  -1.089858e+02
   9.829537e+01  -1.940638e+02
   3.100632e+02   2.673610e+01
   1.281903e+02   3.107548e+02
  -1.650204e+02   2.520302e+02
  -2.961372e+02   7.326140e+01
  -1.901019e+02  -1.166898e+02
  -1.623304e+01  -1.970588e+02
   1.557212e+02  -2.701762e+02
   2.764921e+02  -2.025163e+02
   2.898037e+02   7.711146e+01
   1.409669e+02   3.333016e+02
  -1.021040e+02   3.260789e+02
  -1.489842e+02   1.474329e+02
  -6.207219e+01  -2.361896e+01
  -5.661697e+01   3.938520e+01
  -1.183641e+02   1.021887e+02
  -2.253794e+02  -4.996238e+01
  -1.377786e+02  -2.288114e+02
   4.395593e+01  -2.381744e+02
   2.237850e+02  -6.044568e+01
   2.127526e+02   1.674862e+02
   2.148676e+01   2.887219e+02
  -2.042053e+02   1.649277e+02
  -3.126708e+02  -8.007166e+01
  -1.735620e+02  -2.480249e+02
   5.557955e+01  -3.036294e+02
   1.575834e+02  -1.348150e+02
   8.717376e+01  -1.683059e+01
   9.565864e+01  -4.971022e+01
   2.190616e+02  -7.592162e+01
   3.551408e+02   1.846168e+01
   2.661311e+02   2.060413e+02
   5.033652e+01   3.841784e+02
  -2.421878e+02   3.491285e+02
  -3.582823e+02   1.583231e+02
  -2.470446e+02  -7.215119e+01
  -7.696600e+01  -2.083278e+02
   7.055999e+01  -2.032736e+02
   5.187600e+01  -9.685175e+00
  -6.535278e+01   1.086211e+02
  -1.716100e+02  -2.116269e+01
  -7.195578e+01  -2.084537e+02
   1.402871e+02  -2.078613e+02
   1.640422e+02   3.324025e+00
  -1.200013e+01   1.387447e+02
  -1.489655e+02   5.376858e+01
  -1.622657e+02  -1.679627e+02
   6.726774e+00  -2.756745e+02
   2.039477e+02  -1.767199e+02
   3.124520e+02   3.127535e+01
   1.794873e+02   1.718569e+02
   1.195351e+02   2.069589e+02
  -5.732714e+01   1.343573e+02
  -1.175389e+02  -1.132687e+01
  -4.236875e+01  -6.451364e+00
   6.085804e+01   4.780124e+01
   3.085625e+01   1.240002e+02
  -9.042421e+01   1.266111e+02
  -1.303114e+02  -2.044949e+01
  -8.707085e+01  -7.687095e+01
   1.188711e+02  -2.620146e+01
   6.139199e+01   5.665642e+01
  -8.050170e+01   8.573492e+01
  -2.276053e+02   4.041043e+01
  -2.200309e+02  -9.453343e+01
  -5.535305e+01  -2.371746e+02
   1.434834e+02  -2.135692e+02
   1.823284e+02  -1.265268e+02
   1.191573e+02   6.598173e+00
  -3.094161e+01   6.162402e+01
  -9.639602e+01   6.185653e+01
   5.662831e+01  -8.562099e+01
   1.426445e+02  -7.806467e+01
   1.873601e+02   3.421473e+01
   3.494269e+01   1.777059e+02
  -7.870595e+01   1.483984e+02
  -9.439351e+01   6.087542e+01
  -3.245958e+01  -9.915178e+00
  -8.511162e+00  -4.585886e+01
   2.694583e+01   6.920415e+01
  -4.189407e+01   6.899654e+01
  -1.614442e+02   1.145507e+00
  -1.354665e+02  -1.029771e+02
  -7.190257e+00  -1.452400e+02
   8.944339e+01  -1.702141e+02
   1.472620e+02  -1.708384e+01
   1.740840e+01   7.709646e+01
  -5.248517e+01   8.929387e+01
  -4.150088e+01   2.341322e+01
   6.259345e+00  -2.163192e+01
   1.067433e+01  -2.018410e+01
  -6.822001e+00   3.052453e+01
  -3.275632e+01  -2.042683e+01
  -5.670919e+01  -7.581567e+01
  -3.408640e+01  -1.132140e+02
   9.448896e+01  -1.165305e+02
   1.790266e+02   5.104503e+00
   1.524013e+02   1.094873e+02
   3.619504e+01   2.139747e+02
  -1.039366e+02   1.670495e+02
  -1.349328e+02   2.630376e+01
  -5.570019e+01  -1.156906e+01
   1.288323e+01  -2.370201e+01
  -7.208907e+01  -7.059569e+00
  -8.873812e+01   2.416541e+01
  -4.209751e+01  -4.852390e+01
   1.515378e+01  -5.014028e+01
   1.567961e+02  -4.263100e+01
   9.723936e+01   1.417633e+01
   1.129434e+01   7.383447e+01
  -1.232340e+02   5.923409e+01
  -1.694904e+02  -1.670045e+01
  -9.948791e+01  -1.218537e+02
   7.655441e+01  -1.917049e+02
   1.889155e+02  -1.262676e+02
   2.210960e+02   1.829170e+01
   1.101723e+02   1.088363e+02
  -2.696168e+01   9.099836e+01
  -5.709102e+01   6.296293e+01
  -6.544755e+01   8.904283e+01
  -1.541954e+01   4.888620e+01
  -1.177119e+02   3.942421e+01
  -8.621567e+01  -5.226470e+01
  -1.071837e+02  -1.311420e+02
  -3.757981e+01  -1.943771e+02
   5.781933e+01  -1.337426e+02
   1.076927e+02  -3.892417e+01
   9.345619e+01   1.322291e+02
   1.004315e+01   1.145217e+02
  -2.501204e+01   7.340591e+01
  -5.738543e+01  -2.580721e+01
  -1.720985e+01  -4.091798e+01
   8.712482e+00  -8.354327e+00
  -5.999257e+01  -1.694171e+01
  -4.804352e+01  -2.559662e+01
   1.164321e+01  -1.921378e+01
   1.061957e+02  -1.779350e+01
   1.252093e+02   1.067719e+01
   1.136084e+02   4.647087e+01
   7.413137e+00   7.087033e+01
  -1.023807e+02   5.886102e+01
  -1.420320e+02  -9.312568e+00
  -2.209672e+01  -4.050715e+01
   7.313258e+01  -2.594183e+01
   6.199638e+01   4.276831e+00
   5.376463e+00   7.417628e+01
  -3.877707e+01   5.002763e+01
  -4.116857e+01   3.459077e+01
  -2.228692e+01  -2.183123e+01
   1.525165e+01   1.731183e+01
  -6.773178e+01   1.792690e+01
  -7.873844e+01   2.490178e+01
  -5.573052e+01  -1.031986e+02
   6.947788e-01  -1.338265e+02
   1.054074e+02  -1.498989e+02
   1.022802e+02  -2.331206e+01
   6.834567e+01   1.085874e+02
   3.347510e+00   1.052892e+02
  -1.152031e+02   7.306614e+01
  -2.975658e+01  -4.652367e+01
   6.145507e+01  -5.880752e+01
   6.776264e+01  -9.452791e+00
   7.567352e+01   1.256926e+02
  -4.574217e+01   8.994695e+01
  -1.509454e+02   4.291820e+01
  -1.415654e+02  -2.169607e+01
  -1.595853e+01  -6.966392e+01
   8.799100e+00  -1.023306e+01
   5.275150e+01  -2.911522e+01
  -1.042591e+01   2.891919e+01
  -7.113686e+01  -3.419412e+01
  -6.229861e+01  -9.742553e+01
   4.822823e+01  -1.407289e+02
   1.440213e+02  -1.052521e+02
   1.562903e+02   7.483689e+01
   2.393538e+01   1.437294e+02
  -2.059294e+01   1.144305e+02
  -1.182929e+02   2.212968e+00
  -3.529962e+01  -1.116619e+02
   3.287315e+01  -6.378485e+01
   4.509043e+01  -9.114789e+00
   1.625218e-02   4.694740e+00
   2.881605e+01   1.792958e+01
   1.187262e+01  -2.714679e+01
   3.856890e+00  -1.513720e+01
   5.940349e+01   8.275850e+01
   1.774999e+01   8.744700e+01
  -3.508063e+01   4.973889e+01
  -1.242427e+02  -1.880048e+01
  -1.110839e+02   5.857564e-01
  -4.946628e+01  -5.125036e+01
   2.358018e+01  -3.852582e+01
   4.939427e+01  -1.354790e+01
  -1.867532e+01   3.889595e+01
   1.515883e+01   2.261446e+01
  -1.456573e+01  -7.882398e+00
  -5.585808e+00   1.715385e+01
  -3.055343e+01   2.722759e+01
  -8.505549e+01   5.667177e+01
  -8.403933e+01  -9.492377e+00
  -2.526767e+01  -7.339822e+01
   8.442897e+01  -1.292172e+02
   1.370941e+02  -6.085279e+01
   9.911099e+01   6.529321e+01
   4.070212e+01   1.201348e+02
  -3.012443e+01   1.291108e+02
  -7.702620e+01   8.045665e+01
  -5.388618e+01  -3.968579e+01
  -5.540712e+01  -1.320871e+01
  -4.939747e+00   2.321812e+01
  -3.343988e+01  -5.740055e+01
  -3.428416e+01  -4.633106e+01
  -6.295907e+00  -8.465241e+01
   2.419246e+01  -3.268728e+01
   5.338280e+01  -4.557297e+00
   4.892486e+01   6.615981e+01
   8.034526e+00   7.949961e+01
  -4.862780e+01   4.275295e+01
  -5.530783e+01  -3.108810e+01
  -2.016709e+01  -1.011196e+02
   5.692487e+01  -7.363658e+01
   8.933146e+01  -3.146190e+01
   3.154702e+01   5.062704e+01
  -3.263016e+01   1.181507e+02
   2.266367e+01   1.623545e+01
   1.210448e+01  -2.553919e+01
   7.460538e+01   2.666638e+01
   4.691118e+00   4.203208e+01
  -5.707024e+01   7.210511e+01
  -5.355420e+01   1.984612e+01
  -7.644923e+01  -1.308076e+01
   3.210484e+01  -7.493671e+01
   4.423837e+01  -7.269257e+01
   1.462907e+01  -1.342051e+01
  -1.067353e+01   4.613879e+01
  -7.620350e+00  -7.212659e+00
  -4.054834e+01  -2.156046e+01
  -2.241145e+01  -6.023759e+01
  -7.736204e+00   5.137335e+00
  -2.821199e+01   3.812808e+01
   5.950911e+01   3.176419e+01
   4.483688e+01   2.304916e+01
   1.991199e+01  -7.775201e+01
   1.145090e+01  -2.158797e+01
  -4.457957e+00   3.836157e+01
  -1.356429e+01   2.241932e+01
  -4.056789e+00   7.907499e+00
  -2.888886e+01  -3.219973e+01
   4.129381e+00  -2.548846e+01
   7.120331e+01   1.332659e+01
   8.381371e+01   6.835508e+01
  -3.613501e+01   6.598492e+01
  -5.224619e+01   6.621448e+01
  -7.816631e+01   2.911540e+00
  -5.313353e+01  -1.675409e+01
   3.640145e+01  -3.517193e+00
   5.947923e+01  -1.117584e+01
   5.356606e+01  -2.980721e+01
  -4.861182e+01  -1.587949e+01
  -5.986271e+01  -4.176303e+01
   5.183815e+01  -2.000349e+01
   7.967453e+01  -3.478989e+01
