
 $NMID
 id='ANONYMOUS ', fmtdat='(2E16.6)'
 volume=1.0
 tramp=1.0
 $END
  -3.749513e+03   1.491413e+02
  -2.477339e+03  -1.836034e+03
   1.812479e+02  -2.340534e+03
   1.384991e+03  -1.321123e+03
   1.012717e+03  -1.166972e+02
   1.727149e+02   3.456636e+02
  -3.546537e+02  -1.634830e+02
  -1.063424e+02  -6.886213e+02
   4.146868e+02  -5.227216e+02
   5.974654e+02  -5.330861e+01
   4.101149e+02   5.536763e+02
  -3.736162e+01   7.744686e+02
  -3.116962e+02   5.875451e+01
  -2.803442e+02  -3.470276e+02
   2.786174e+02  -5.711787e+02
   3.736175e+02  -2.266975e+02
   3.286215e+02   3.767121e+02
  -4.302125e+01   5.025416e+02
  -4.247617e+02   4.044399e+02
  -4.882185e+02  -2.354182e+02
  -1.447729e+02  -2.165093e+02
   1.376602e+02  -4.030976e+02
   1.042752e+02   1.013473e+02
  -1.358605e+02  -9.269651e+01
  -3.001381e+02  -4.725456e+01
  -7.311092e+01  -2.659501e+02
   4.205444e+02  -2.685772e+02
   7.136998e+02   5.571640e+01
   2.535605e+02   2.951206e+02
  -4.588892e+02   2.965123e+02
  -5.407052e+02  -7.867865e+01
  -1.845468e+02  -5.013645e+02
   2.615089e+02  -3.806492e+02
   5.275431e+02  -1.773862e+02
   2.715151e+02   1.684691e+02
   1.013706e+02   3.184211e+02
   4.217249e+01   1.688341e+02
   4.610218e+01  -1.576306e+02
   1.534048e+02  -2.615601e+02
   3.210614e+02   1.574992e+02
   1.700230e+01   6.544629e+02
  -3.656335e+02   4.814099e+02
  -4.631451e+02   1.150464e+01
  -1.895800e+02  -4.575191e+02
   1.641426e+02  -1.672884e+02
   1.873581e+02   1.949413e+02
  -1.537191e+02   4.096446e+02
  -4.331283e+02   9.240960e+01
  -4.721956e+02  -3.704218e+02
  -1.078614e+02  -5.991711e+02
   3.322629e+02  -3.765010e+02
   6.102944e+02   7.330749e+01
   4.148314e+02   3.119880e+02
  -6.403024e+01   3.152930e+02
  -3.659071e+02   9.502362e+01
  -2.669002e+02  -1.019301e+02
   3.076753e+01  -7.235887e+01
   1.079711e+02   4.473073e+01
  -1.058491e+02   9.279918e+01
  -2.589405e+02  -1.859427e+01
  -1.170813e+02  -1.988559e+02
   1.466359e+02  -2.733224e+02
   3.510232e+02  -9.168276e+01
   2.820823e+02   1.197287e+02
  -4.768151e+01   3.296026e+02
  -3.354838e+02   3.649914e+02
  -4.031934e+02   1.365405e+02
  -2.507282e+02  -2.190925e+02
  -8.723639e+00  -4.175595e+02
   6.554182e+01  -4.059540e+02
   3.710255e+01  -1.305628e+02
   4.855603e+01  -5.558069e+01
   1.176237e+02  -1.518498e+02
   2.511620e+02  -7.724733e+01
   2.493510e+02   9.531457e+01
   1.139323e+02   1.951437e+02
  -8.224631e+01   2.191342e+02
  -1.506118e+02   4.623747e+00
  -1.261189e+02  -2.098019e+02
   6.384558e+01  -3.160279e+02
   2.373474e+02  -9.069115e+01
   3.535804e+02   1.911807e+02
   1.928476e+02   3.873079e+02
  -4.085658e+01   2.812668e+02
  -2.132171e+02   1.240047e+02
  -1.947669e+02   4.320951e+01
  -1.296403e+02   4.767167e+01
  -2.562225e+02   1.928414e+01
  -3.548927e+02  -8.962223e+01
  -2.869910e+02  -3.272242e+02
  -1.466742e+01  -4.206455e+02
   3.511089e+02  -4.107675e+02
   4.727311e+02  -2.091105e+02
   3.218254e+02   1.425840e+02
   8.040669e+01   2.362177e+02
  -1.678769e+02   2.273285e+02
  -1.615337e+01   2.326312e+01
   1.290972e+02  -4.008176e+01
   1.754537e+02   9.128123e-01
   6.977618e+01   1.857711e+02
  -1.338854e+02   1.158749e+02
  -1.739078e+02   7.601029e+00
  -8.213122e+00  -1.547462e+02
   1.676518e+02  -3.739644e+01
   2.021735e+02   1.961026e+02
   1.117235e+01   3.056428e+02
  -2.214365e+02   2.306272e+02
  -3.724788e+02   6.698891e-02
  -2.805305e+02  -2.877677e+02
  -9.761190e+01  -2.790128e+02
   1.846263e+02  -1.754440e+02
   1.515171e+02   6.505913e+01
   7.213258e+01   4.926682e+01
  -9.887138e+01  -5.756951e+01
  -3.800480e+01  -1.535993e+02
   1.304561e+02  -1.052206e+02
   1.904717e+02   8.794103e+00
   1.038725e+02   8.844069e+01
  -7.602944e+01   3.125971e+01
  -7.701558e+01  -2.071943e+01
   1.093409e+02  -1.033017e+02
   2.013219e+02  -1.814118e+01
   2.556456e+02   1.275833e+02
   5.561680e+01   2.107042e+02
  -1.892760e+02   2.458470e+02
  -2.479231e+02   8.850363e+01
  -1.641568e+02  -6.942895e+01
   7.124916e+01  -7.680960e+01
   9.585205e+01   8.477984e+00
  -2.910430e+01   9.999095e+01
  -2.210381e+02   9.044946e+01
  -2.135747e+02  -1.464754e+02
  -7.041911e+01  -1.442666e+02
   9.414387e+01  -1.455085e+02
   1.393198e+02   1.253631e+00
   5.431205e+01   3.810178e+01
  -4.844405e+01  -2.369972e+01
  -9.746693e+01  -1.280686e+02
   6.315291e+01  -1.189724e+02
   1.879895e+02  -1.623746e+01
   2.180039e+02   1.553117e+02
   3.998114e+01   2.466451e+02
  -1.820847e+02   1.139852e+02
  -2.408628e+02   1.983170e+00
  -8.855392e+01  -1.727034e+02
   6.157680e+01  -8.989134e+01
   1.077184e+02  -1.253486e+01
   3.172400e+01   1.100706e+01
  -4.068013e+01  -1.037189e+01
   2.092707e+01  -8.393494e+01
   8.671958e+01  -1.446533e+00
   1.514703e+02   1.294112e+02
   4.276270e+01   1.361893e+02
  -1.416105e+02   9.741247e+01
  -2.243276e+02   3.231089e+00
  -1.823314e+02  -1.123440e+02
  -2.082867e+01  -1.802182e+02
   9.558768e+01  -1.510322e+02
   1.217111e+02  -2.357131e+01
   3.732073e+01   4.243979e+01
   2.326486e+00   3.078093e+01
   5.664588e+01  -1.603343e+01
   6.546904e+01   1.073629e+01
   7.839959e+01   4.062713e+01
  -4.302771e+01   1.192566e+02
  -1.110125e+02   8.479313e+01
  -1.595817e+02  -5.613896e+01
  -2.359050e+00  -1.333700e+02
   9.824602e+01  -1.075365e+02
   2.063437e+02   8.237248e+01
   1.203216e+02   2.252634e+02
  -1.449040e+02   1.957717e+02
  -2.807216e+02   7.837156e+01
  -2.391137e+02  -9.963825e+01
  -6.121294e+01  -1.545403e+02
   7.029785e+01  -1.578503e+02
   1.050587e+02  -4.723567e+01
   8.839796e+01  -3.055003e+01
   3.832891e+01  -7.099803e+01
   7.148608e+01  -1.340971e+02
   8.469728e+01   1.215509e+00
   1.358922e+02   1.690449e+02
   4.926328e+01   2.006159e+02
  -6.304491e+01   1.639742e+02
  -1.739859e+02   6.977741e+01
  -1.469652e+02  -9.350066e+01
   1.776036e+00  -1.686292e+02
   6.790309e+01  -7.436435e+01
   5.561567e+01   5.058458e+00
  -4.941219e+01   5.403547e+01
  -3.125403e+01   9.075684e+00
   1.773969e+01   1.624485e+01
   9.055410e+01   2.654702e-01
   4.933712e+01  -2.840360e+00
  -9.454028e+01   3.103872e+01
  -1.343833e+02  -9.280529e+00
  -1.224523e+02  -1.507577e+01
  -2.401562e+01  -5.689326e+01
   1.307563e+02  -6.625665e+01
   1.342637e+02  -1.064621e+01
   3.089909e+01   8.237101e+01
  -6.354776e+01   2.260311e+01
  -8.760756e+01  -3.656079e+01
  -3.651753e+01  -7.403027e+01
   1.626798e+01  -2.636549e+01
   8.413923e+01  -2.600729e+01
   6.927171e+01  -7.166408e+00
   5.857251e+01   7.057218e+01
   5.522708e+01   2.954971e+01
   4.092896e+01   4.065185e+01
   3.344433e+01   6.939200e+01
  -2.511412e+01   1.491475e+02
  -1.036050e+02   1.303957e+02
  -1.777482e+02   3.816451e+01
  -1.333937e+02  -1.274524e+02
  -4.965462e+01  -1.346072e+02
   7.738369e+01  -4.478876e+01
   2.659548e+01  -1.236186e+00
  -4.159849e+01   2.185083e+01
  -1.340374e+02  -1.130063e+01
  -9.073330e+01  -5.389781e+01
   5.400595e+01  -1.226739e+02
   2.059910e+02  -7.620702e+01
   1.566584e+02   4.548757e+01
   6.562153e+00   8.945595e+01
  -6.495535e+01   3.725390e+01
  -1.281011e+01  -3.210466e+01
   5.865473e+01  -4.643199e+01
   8.894304e+01  -2.081393e+00
  -1.232793e+00   1.050045e+02
  -7.581180e+01   1.397652e+02
  -1.452925e+02   9.307302e+01
  -5.168926e+01  -6.037927e+01
   1.466134e+01  -1.364993e+02
   8.272834e+01  -1.148778e+02
   1.196942e+02  -1.012146e+01
   5.593738e+00   1.111934e+02
  -2.647931e+01   9.825570e+01
  -3.411710e+01   3.655450e+01
  -3.312745e+01  -3.611726e+01
  -4.697210e+01  -2.875790e+00
  -5.264735e+00  -4.178340e+01
  -2.976011e+01  -7.537487e+00
  -5.722806e+01  -5.552475e+01
  -4.789186e+01  -1.067436e+02
   4.202501e+01  -3.935386e+01
   1.677439e+02   2.243083e+01
   1.294344e+02   7.610440e+01
   1.723450e+01   5.947782e+01
  -7.302688e+01   5.147006e+00
  -1.078188e+02  -1.331050e+01
  -4.568068e+01  -1.692654e+01
   1.138452e+01  -1.658168e+01
   1.978747e+01  -5.616322e+00
  -6.396856e+00   3.096925e+00
  -1.062258e+01   4.279480e+01
   5.657731e+01   1.476240e+01
   1.161135e+02  -1.329694e+01
   2.244415e+01   7.338436e+01
  -7.561168e+01   1.174292e+02
  -1.784050e+02   1.529919e+01
  -1.046647e+02  -3.513286e+01
   8.627188e+00  -1.677763e+02
   6.133307e+01  -1.400205e+02
   1.164773e+02  -9.311660e+01
   7.317076e+01   5.210328e+01
  -1.459858e+01   3.608082e+01
  -2.919780e+01   3.836680e+01
  -3.490402e+01   3.625608e+01
   2.972715e+01   5.175406e+01
   4.074393e+01   6.400248e+01
   1.884097e+00   4.263610e+01
  -8.281221e+01  -3.796329e+01
  -5.542611e+01  -1.125691e+02
  -1.715293e+00  -1.196919e+02
   8.711164e+01  -1.683094e+01
   8.545311e+01   6.575738e+01
   5.743433e+01   7.661931e+01
  -6.508283e+01   6.944978e+01
  -9.727222e+01   9.180929e+00
  -5.020098e+01  -4.260329e+01
   4.236725e+01  -6.750642e+01
   6.939134e+01   4.775664e+00
  -4.005065e+01  -4.752855e+01
  -6.389155e+01   1.343382e+01
  -2.829411e+01  -2.484274e+00
   4.011200e+01  -8.336539e+01
   9.499339e+01  -4.699802e+01
   4.630169e+01   4.328352e+01
  -5.234911e+01   9.947910e+01
  -2.184088e+01   5.665072e+01
  -2.562035e+01  -4.365542e+01
  -2.902018e+01  -5.636989e+01
   3.005097e+01  -9.726029e+01
   4.509273e+01   1.132394e+01
   9.048688e+01   7.937291e+01
   1.680707e+01   3.363077e+01
  -2.594554e+01   3.622028e+00
  -6.992871e+01  -4.017822e+01
   1.247142e+01  -4.349405e+01
  -4.239127e+01   6.121570e+01
  -9.233639e+00   1.492881e+01
  -3.502853e+00  -1.917140e+01
  -2.951838e+01  -7.342463e+01
   6.158145e+01  -3.536941e+01
   6.513412e+01   1.391467e+01
  -1.371358e+01   8.578093e-02
  -6.945506e+01   5.850739e+01
  -5.108924e+01  -5.262595e+01
  -6.018258e+00  -5.672442e+01
   7.236720e+01  -3.209612e+01
   8.631019e+01  -2.301351e+01
   6.540327e+01   8.094234e+01
  -2.117715e+01   7.010289e+00
  -7.198103e+01   3.837493e+01
  -7.030864e+01   5.386018e+01
   6.211657e+00  -1.810120e+01
   1.938747e+01   3.695763e+01
  -1.233376e+01   5.740199e+01
  -6.872947e+01   1.318643e+01
