
 $NMID
 id='ANONYMOUS ', fmtdat='(2E16.6)'
 volume=1.0
 tramp=1.0
 $END
   4.321081e+03   1.480241e+02
   2.717880e+03   2.396357e+03
  -8.288145e+02   2.558308e+03
  -1.922442e+03   8.039585e+02
  -1.041848e+03  -4.883002e+02
   6.245653e+02  -6.634572e+02
   8.906892e+02   3.518213e+02
   1.200753e+02   1.201578e+03
  -7.301926e+02   7.432185e+02
  -1.033679e+03  -1.604920e+02
  -3.643873e+02  -9.076826e+02
   2.368236e+02  -7.967597e+02
   5.448121e+02  -1.474129e+02
   4.904755e+02   7.206246e+02
  -1.909968e+02   9.421324e+02
  -3.931070e+02   1.923280e+01
  -3.080785e+02  -9.523640e+02
   3.754793e+02  -4.953925e+02
   5.449199e+02  -1.084118e+02
   5.382221e+02   2.242294e+02
   5.000778e+01   3.871369e+02
  -3.841359e+02   2.137563e+02
  -2.211989e+02   7.689525e+01
   9.785123e+01  -2.052774e+02
   4.206252e+02   9.975502e+01
   2.327466e+02   5.268525e+02
  -4.552793e+02   3.109232e+02
  -8.882958e+02   2.644183e+00
  -4.967319e+02  -4.979855e+02
   4.077772e+02  -6.469376e+02
   8.098101e+02   8.181782e+00
   3.944605e+02   5.515258e+02
  -2.659399e+02   5.147236e+02
  -5.909064e+02   1.843401e+02
  -3.930704e+02  -1.692437e+02
  -5.817684e+01  -5.213253e+02
   3.020043e+02  -3.429415e+02
   2.774991e+02   3.748558e+02
  -1.681664e+02   4.777526e+02
  -5.063342e+02  -6.288100e+01
  -3.110290e+02  -6.057203e+02
   3.203544e+02  -7.098386e+02
   6.548826e+02   1.054324e+02
   2.817858e+02   6.530700e+02
  -3.176768e+02   3.649623e+02
  -4.956057e+02  -3.778727e+02
   4.416197e+01  -6.526784e+02
   6.108056e+02  -1.063146e+02
   6.030194e+02   4.446020e+02
   7.872744e+01   5.865988e+02
  -4.234788e+02   3.836958e+02
  -6.615623e+02  -8.255743e+01
  -3.477730e+02  -4.057887e+02
   2.017753e+02  -4.237202e+02
   4.567614e+02  -4.409578e+01
   2.295419e+02   2.260141e+02
  -1.670465e+02   1.475842e+02
  -1.894941e+02  -1.611586e+02
   9.815718e+01  -2.317995e+02
   3.551635e+02   1.969956e+01
   1.991580e+02   3.163826e+02
  -1.490947e+02   2.229531e+02
  -3.509215e+02   5.191147e+01
  -2.158559e+02  -1.228268e+02
   1.334809e+01  -2.162745e+02
   2.653561e+02  -2.804205e+02
   3.305036e+02  -1.476842e+02
   2.528535e+02   1.222627e+02
   1.121854e+02   3.694843e+02
  -1.080745e+02   3.571347e+02
  -1.022581e+02   1.005998e+02
  -8.734900e+00  -1.288649e+01
  -5.857002e+01   1.120340e+02
  -1.834615e+02   1.066522e+02
  -2.519414e+02  -7.268928e+01
  -1.883267e+02  -2.529108e+02
   9.424946e+01  -2.981981e+02
   2.587995e+02  -4.124778e+00
   2.292343e+02   2.433306e+02
  -3.166247e+00   2.912687e+02
  -2.781693e+02   1.569662e+02
  -3.294557e+02  -1.066907e+02
  -9.061916e+01  -3.612329e+02
   1.259471e+02  -2.617187e+02
   1.914949e+02  -1.090199e+02
   1.301407e+02   4.431285e+01
   8.314314e+01  -1.614742e+01
   1.995905e+02  -7.477882e+01
   3.790712e+02   4.405647e+01
   3.648011e+02   2.970018e+02
   1.499244e+01   4.664832e+02
  -3.843735e+02   4.319036e+02
  -5.165880e+02   1.879222e+02
  -3.795880e+02  -1.146987e+02
  -7.933488e+01  -2.975136e+02
   1.542140e+02  -2.558322e+02
   1.582303e+02   5.770500e+01
  -9.614537e+01   1.521176e+02
  -2.470933e+02  -4.205412e+01
  -4.689259e+01  -2.313867e+02
   1.790470e+02  -1.505104e+02
   2.471890e+02   5.123473e+01
  -9.762460e+00   1.952363e+02
  -2.576998e+02   2.912382e+00
  -1.730513e+02  -2.156965e+02
   1.467843e+01  -3.719466e+02
   2.532832e+02  -1.953610e+02
   3.522031e+02   2.657763e+01
   2.899620e+02   2.367284e+02
   2.434635e+01   2.747009e+02
  -1.014373e+02   2.012927e+02
  -2.026493e+02   5.749034e+01
  -6.974197e+01  -3.457560e+00
   5.716303e+01   3.424650e+01
   4.208863e+01   1.003603e+02
  -1.533203e+02   5.504977e+01
  -1.611806e+02  -8.695806e+01
  -4.092814e+01  -9.089802e+01
   1.208602e+02  -3.051661e+01
   5.791808e+01   1.341930e+02
  -7.733418e+01   3.348728e+01
  -2.418959e+02   3.518753e+01
  -2.831781e+02  -1.194651e+02
  -1.117024e+02  -1.977142e+02
   1.478045e+02  -2.505205e+02
   2.708332e+02  -1.121047e+02
   1.467918e+02  -3.630017e+00
  -1.083415e+01   1.218224e+02
  -9.342706e+01  -5.266032e+01
   4.132082e+01  -1.445732e+02
   1.925225e+02  -7.838509e+01
   2.372239e+02   4.114043e+01
   8.507300e+01   1.992488e+02
  -8.303737e+01   1.320273e+02
  -1.503796e+02   2.539550e+01
  -5.052415e+01  -7.510972e+01
   3.558787e+01  -1.584514e+01
   3.432133e+01   7.975624e+01
  -7.955382e+01   1.102346e+02
  -1.719176e+02   2.252815e+01
  -2.087836e+02  -1.222823e+02
   1.418376e+01  -1.930815e+02
   1.936835e+02  -1.321351e+02
   1.788222e+02  -2.827503e+01
   2.442929e+01   1.143778e+02
  -1.051281e+02   9.084779e+01
  -8.622717e+01   3.774013e+01
  -2.557403e+01  -2.391555e+00
   1.397591e+01   6.783233e+00
  -4.327270e+01  -5.680205e+01
  -6.801676e+01   1.181884e+01
  -9.643506e+01  -1.007373e+02
   2.280449e+01  -1.724536e+02
   1.313430e+02  -1.155841e+02
   2.252275e+02  -1.866075e+01
   1.886273e+02   1.448942e+02
   3.319237e+01   2.476296e+02
  -1.172835e+02   1.179228e+02
  -1.168476e+02   2.373825e+01
  -6.637627e+01  -4.910902e+01
  -7.419823e+01  -6.267291e+01
  -8.812339e+01  -8.956529e+00
  -1.028466e+02  -1.551947e+01
   3.412217e+01  -4.676843e+01
   5.678164e+01  -9.632567e+01
   9.003606e+01  -1.724875e+01
   2.486384e+01   4.731205e+01
   1.245313e+01   1.390106e+02
  -1.176920e+02   1.104599e+02
  -1.851883e+02  -3.930666e+01
  -1.282024e+02  -1.741788e+02
   6.139251e+01  -2.020223e+02
   2.177300e+02  -8.548995e+01
   2.574418e+02   1.250550e+02
   1.216905e+02   1.557948e+02
   7.760631e-01   1.874774e+02
  -1.028445e+02   1.226789e+02
  -8.532257e+01   9.612219e+01
  -8.426851e+01   7.482452e+01
  -6.867515e+01   8.857661e+01
  -1.079698e+02  -1.503447e+01
  -1.638403e+02  -1.610288e+02
  -5.838063e+01  -2.824357e+02
   1.218951e+02  -1.814968e+02
   2.224884e+02  -2.918812e+01
   1.698988e+02   1.180797e+02
   3.158864e+01   1.693234e+02
  -5.810844e+01   9.251957e+01
  -5.722444e+01   5.470818e+01
  -1.057448e+00  -4.756694e+00
   3.572957e+01  -6.363082e+01
  -2.381414e+01  -9.789612e+00
  -3.240969e+01  -4.564859e+01
  -3.392655e+01  -9.905452e+00
   5.193764e+01  -4.864212e+01
   1.181284e+02  -2.082468e+01
   1.266823e+02   4.815256e+01
   4.785563e-01   9.837978e+01
  -1.328602e+02   5.924429e+01
  -1.712271e+02   2.059895e+00
  -3.908980e+01  -4.489383e+01
   1.138710e+02  -2.007267e+00
   9.932760e+01   4.675439e+01
   2.881118e+01   7.768845e+01
  -3.994514e+01   6.591032e+01
  -5.707265e+01   4.370587e+01
  -1.156700e+01  -3.220672e+01
  -1.929606e+01  -4.083116e+01
  -3.809732e+01  -2.064247e+01
  -7.642388e+01  -1.957421e+01
  -5.106336e+01  -7.814266e+01
   1.013419e+01  -1.352028e+02
   1.154767e+02  -1.078314e+02
   1.378981e+02  -4.122139e+01
   1.231609e+02   6.574605e+01
  -5.978222e+00   8.555651e+01
  -6.880742e+01   5.476123e+01
  -4.129234e+01  -3.215525e+01
   7.763953e+01  -1.791782e+01
   1.063425e+02   4.876598e+01
   7.005424e+01   1.273034e+02
  -1.116885e+02   7.260247e+01
  -1.751892e+02   9.337080e+01
  -1.581923e+02  -4.796043e+00
  -4.464132e+01  -5.047554e+01
   1.291947e+01  -5.676969e+01
   5.560430e+01  -3.031342e+00
  -1.129167e+02   1.755193e+01
  -1.171981e+02  -2.278625e+01
  -4.073863e+01  -1.236423e+02
   1.219516e+02  -1.732785e+02
   1.904766e+02  -7.955130e+01
   1.359847e+02   1.093464e+02
   1.138474e+01   1.509969e+02
  -7.193413e+01   1.358509e+02
  -1.083018e+02   7.177466e-01
  -1.064047e+02  -1.297149e+02
   2.145489e+01  -1.054464e+02
   5.377948e+01  -2.857151e+01
   7.618376e+01   3.008900e+01
   6.776888e+00  -1.663670e+01
   2.313238e+01  -6.220612e+01
   4.471355e+01  -1.320690e+01
   6.472950e+01   6.165007e+01
   3.088828e+01   8.842622e+01
  -4.741681e+01   2.516067e+01
  -1.189116e+02  -3.966862e+01
  -1.272946e+02  -6.590348e+01
   1.789119e+01  -1.741194e+01
   1.005702e+02  -4.539376e+01
   8.623868e+01   5.931598e+00
   4.539503e+00   2.693894e+01
  -5.659013e+01   3.835331e+01
  -2.946169e+00   2.180012e+01
   2.274634e+01   4.524582e+01
  -1.728420e+01  -1.919209e+01
  -9.093056e+01   5.476050e+00
  -1.292448e+02  -2.324353e+01
  -2.360797e+01  -1.222388e+02
   1.039243e+02  -1.354125e+02
   1.549230e+02  -5.293003e+01
   1.419611e+02   6.007463e+01
   4.203470e+01   1.628366e+02
  -3.898416e+01   1.383123e+02
  -1.191036e+02   2.058147e+01
  -1.059233e+02  -3.026251e+01
  -7.761472e+00  -5.079891e+01
   2.505110e+01   5.588208e+01
  -2.709337e+01   1.181999e+00
  -3.923042e+01  -9.404803e+01
  -8.351272e+00  -8.983586e+01
   3.612169e+01  -1.095423e+02
   4.220705e+01   3.532704e+01
   6.491334e+01   7.355789e+01
  -1.092283e+01   9.797881e+01
  -1.030985e+02   9.026787e+00
  -1.192828e+02  -1.023357e+02
  -1.149524e+01  -1.018875e+02
   8.626648e+01  -2.526471e+01
   1.000843e+02   4.067821e+01
  -4.380198e+00   7.352275e+01
  -9.503972e+01   6.138955e+01
  -2.729499e+01   1.160190e+01
   5.101639e+01  -2.765616e+01
   5.540187e+01  -2.765181e+01
   4.196511e+01   1.395201e+01
  -4.545134e+01   8.036543e+01
  -1.189708e+02   6.043741e+01
  -4.541855e+01   3.958923e+01
   4.927810e+01  -8.047314e+01
   6.938894e+01  -8.128635e+01
   6.717586e+01  -1.559148e+01
  -1.362568e+01   7.364351e+01
  -2.048677e+01   7.423710e+01
  -3.623635e+01   8.280738e+00
  -2.565739e+00  -9.325050e+01
   5.098748e+01  -6.586563e+01
   2.783390e+01   3.582922e+01
   6.582583e+01   7.643459e+01
   3.909436e+01  -9.310232e+00
  -1.120429e+01  -2.483901e+01
  -2.072946e+01  -2.430774e+00
  -1.550434e+01   1.919656e+01
   5.579590e+00   1.004853e+02
  -3.923193e+01  -1.448171e+01
  -5.525699e+01  -3.441384e+01
  -1.223950e+01  -6.595068e+01
   6.801474e+01   7.824242e+00
   5.413258e+01   3.119772e+01
   1.298659e+01   7.101407e+01
  -6.492282e+01   1.355771e+01
  -9.697219e+01  -2.047934e+01
  -3.604670e+01  -1.070190e+01
   7.006375e+01  -2.360378e+01
   7.910066e+01  -9.762051e+00
   3.644194e+01  -9.247005e-01
  -2.829673e+01  -1.377989e+01
  -2.087711e+01  -6.459205e+00
  -1.049630e-01  -2.135744e+01
   8.004495e+01  -1.537362e+01
