
 $NMID
 id='ANONYMOUS ', fmtdat='(2E16.6)'
 volume=1.0
 tramp=1.0
 $END
  -3.724478e+03   8.656759e+00
  -2.346698e+03  -2.279067e+03
   4.049344e+02  -2.386480e+03
   1.591699e+03  -8.693841e+02
   1.085618e+03   3.557477e+02
  -4.955874e+02   4.748932e+02
  -6.861825e+02  -1.943711e+02
   6.942953e+01  -8.182789e+02
   7.143866e+02  -6.934938e+02
   7.891092e+02   1.192011e+02
   3.614050e+02   7.433546e+02
  -2.208237e+02   8.632716e+02
  -4.480999e+02   1.353722e+02
  -3.643324e+02  -6.803063e+02
   2.320039e+02  -6.738688e+02
   4.051983e+02  -5.087382e+01
   2.542577e+02   7.043484e+02
  -2.128604e+02   7.390475e+02
  -7.586339e+02   1.923933e+02
  -2.877681e+02  -2.553891e+02
  -1.600217e+02  -4.194808e+02
   2.436393e+02  -7.280561e+01
   2.555054e+02  -3.542175e+01
   2.611099e+00  -6.903970e+01
  -4.055486e+02  -2.891330e+02
  -1.015388e+02  -4.443536e+02
   3.813254e+02  -3.472095e+02
   7.600183e+02   1.214377e+02
   5.030237e+02   5.352387e+02
  -3.535502e+02   5.062666e+02
  -5.977629e+02  -5.622331e+01
  -2.655132e+02  -4.240206e+02
   3.229457e+02  -5.059519e+02
   6.059615e+02  -1.844724e+02
   3.736441e+02   1.254730e+02
   7.211722e+01   3.597005e+02
  -1.262621e+02   2.488490e+02
  -1.060859e+02  -1.767339e+02
   2.310080e+02  -3.225152e+02
   4.052486e+02   4.055162e+01
   2.098034e+02   6.480517e+02
  -3.016160e+02   6.116666e+02
  -5.271157e+02  -5.268657e+01
  -2.430619e+02  -4.878954e+02
   2.954459e+02  -3.038565e+02
   2.743683e+02   2.946832e+02
  -9.375336e+01   4.741877e+02
  -5.121049e+02   1.157201e+02
  -5.189779e+02  -3.798446e+02
  -1.638698e+02  -5.611132e+02
   3.257407e+02  -3.707278e+02
   5.828431e+02   6.681056e+01
   3.688821e+02   3.591957e+02
  -1.336623e+02   3.142946e+02
  -3.701657e+02   6.556515e+01
  -2.405941e+02  -1.811154e+02
   9.962500e+01  -1.355511e+02
   1.961933e+02   6.171661e+01
  -9.718064e+01   1.131237e+02
  -3.378275e+02  -4.333109e+01
  -1.559836e+02  -2.269478e+02
   1.935754e+02  -2.192098e+02
   3.821346e+02  -7.905697e+01
   2.671648e+02   1.172518e+02
  -5.260429e+01   2.732574e+02
  -2.894275e+02   3.069821e+02
  -3.968597e+02   1.806882e+02
  -2.811421e+02  -1.572874e+02
  -5.073259e+01  -4.141971e+02
   1.400300e+02  -3.698696e+02
   9.389943e+01  -1.229308e+02
   2.535064e+01   5.425190e+00
   5.994046e+01  -5.268319e+01
   1.907711e+02  -9.715647e+01
   2.503432e+02   8.541443e+00
   1.500073e+02   1.912820e+02
  -1.262594e+02   2.015157e+02
  -2.317806e+02  -1.842751e+01
  -1.566571e+02  -2.207019e+02
   9.426959e+01  -2.723570e+02
   3.005842e+02  -6.819356e+01
   3.810625e+02   2.134064e+02
   1.214637e+02   3.795539e+02
  -8.935603e+01   3.039856e+02
  -2.177110e+02   7.181628e+01
  -8.548762e+01   4.011169e+01
  -1.133884e+02   8.222789e+01
  -2.606440e+02   7.485535e+01
  -4.395754e+02  -5.271197e+01
  -2.797005e+02  -3.026096e+02
   1.341391e+01  -4.342271e+02
   3.818222e+02  -4.152471e+02
   4.610189e+02  -2.111190e+02
   3.145934e+02   7.914478e+01
   1.617908e+01   3.114218e+02
  -1.408716e+02   2.189549e+02
  -8.720735e+01   1.720420e+01
   1.083534e+02  -1.182809e+02
   1.686491e+02   1.984549e+01
   1.188085e+01   1.708527e+02
  -1.754697e+02   1.196164e+02
  -1.800074e+02  -7.260237e+01
   4.834234e+01  -1.532776e+02
   2.005646e+02  -1.096856e+01
   1.764946e+02   2.069220e+02
  -6.055552e+00   3.020202e+02
  -2.379081e+02   2.145803e+02
  -3.201284e+02   8.541920e+00
  -3.259681e+02  -1.765738e+02
  -1.117859e+02  -2.296299e+02
   9.897321e+01  -1.973057e+02
   1.567370e+02  -2.048940e+01
   7.786186e+01   5.211889e+01
  -7.984734e+01  -2.226505e+01
  -5.764703e+01  -1.200701e+02
   6.482762e+01  -1.131340e+02
   1.284903e+02   3.350288e+01
   6.729358e+01   9.087724e+01
  -2.444316e+01   1.356888e+01
  -5.235961e+01  -8.121467e+01
   1.497900e+02  -1.371205e+02
   2.739833e+02  -1.931798e+01
   2.271868e+02   1.410489e+02
   4.235284e+01   2.806454e+02
  -1.951946e+02   2.444248e+02
  -3.181635e+02   1.631765e+02
  -1.724654e+02  -1.946444e+01
  -1.731137e+01  -6.127178e+01
   1.019145e+02  -2.428675e+01
  -5.433713e+01   6.464354e+01
  -1.898256e+02   4.423382e+01
  -2.336104e+02  -6.999901e+01
  -8.132654e+01  -1.472758e+02
   6.439299e+01  -1.119927e+02
   1.463458e+02  -3.084410e+01
   6.825594e+01   3.652877e+00
  -3.959926e+01  -1.120771e+01
  -3.823233e+01  -1.079448e+02
   1.073633e+02  -1.594176e+02
   2.048018e+02  -1.551542e+01
   1.934112e+02   1.371805e+02
  -1.736247e+01   1.719255e+02
  -1.366868e+02   1.411337e+02
  -1.455208e+02  -2.192758e+01
  -6.131131e+01  -8.517744e+01
   6.930777e+01  -7.433864e+01
   5.368295e+01  -5.183379e+00
   2.486029e+01   2.902738e+01
  -2.023502e+00   3.376415e+01
  -3.914451e+01   5.771301e-02
   5.360270e+01  -2.583733e+01
   1.023342e+02   5.815603e+01
   9.746201e+00   1.886267e+02
  -1.136563e+02   1.618142e+02
  -2.571948e+02   3.028230e+01
  -1.941801e+02  -1.436622e+02
  -4.031330e+01  -2.424319e+02
   1.473835e+02  -1.971523e+02
   1.405863e+02  -7.247708e+01
   5.543463e+01   7.081712e+01
   1.390203e+01   7.819350e+01
   4.893729e+01  -1.168654e+01
   1.051907e+02  -2.765372e+00
   4.509146e+01   7.205865e+01
  -4.284643e+01   8.516484e+01
  -1.041137e+02   6.083599e+01
  -7.981506e+01  -3.822328e+01
   4.259598e+01  -7.076579e+01
   1.419236e+02  -8.489206e+01
   1.395977e+02   6.373056e+01
   6.988532e+01   1.954398e+02
  -1.318924e+02   1.788134e+02
  -2.319327e+02   1.218829e+02
  -2.537892e+02  -8.918161e+01
  -8.691709e+01  -1.417805e+02
   4.145522e+01  -1.510939e+02
   9.871340e+01  -7.491063e+01
   3.997982e+01  -3.073501e+01
   7.443383e+01  -6.742999e+01
   6.148415e+01  -1.210334e+02
   1.191838e+02  -3.643625e+01
   1.245797e+02   9.626704e+01
   3.270798e+01   2.146862e+02
  -7.524126e+01   1.779556e+02
  -1.461507e+02   2.476347e+00
  -9.737006e+01  -1.777766e+02
   9.812163e+00  -1.618901e+02
   6.406343e+01  -1.157947e+02
   6.555496e+01   3.330638e+01
   1.571781e+01   3.357962e+01
  -2.018506e+01   1.844013e+01
   3.299944e+01   1.209417e+00
   1.349768e+02   1.730348e+01
   5.093729e+01   4.094266e+01
  -6.131596e+01   4.341072e+01
  -1.795654e+02   1.379970e+01
  -1.489942e+02  -2.815270e+01
   1.115906e+01  -5.652750e+01
   1.235520e+02  -4.075388e+01
   1.209730e+02  -2.204728e+00
   3.903276e+01   3.918179e+01
  -5.131857e+01   1.842177e+00
  -7.606208e+01  -1.350907e+01
  -2.519860e+01  -6.276527e+01
  -2.945829e+01  -6.616863e+01
   3.595056e+01   1.657507e+01
   5.958831e+01   1.352397e+01
   6.537746e+01   2.851107e+01
   2.890671e+01  -1.017536e+01
   1.061880e+02   4.460529e+01
   7.258410e+01   8.560608e+01
  -1.282375e+01   1.575727e+02
  -8.729896e+01   1.162811e+02
  -1.409088e+02   6.521078e+01
  -1.109626e+02  -5.232686e+01
  -2.765535e+01  -8.399043e+01
   6.978304e+01  -5.286214e+01
   2.847700e+01   3.639816e+00
  -8.179007e+01  -6.935495e+00
  -9.588406e+01  -6.638562e+01
  -5.942838e+01  -9.169347e+01
   8.969018e+01  -7.889594e+01
   2.018628e+02  -3.173654e+01
   1.420383e+02   6.587990e+01
   1.745724e+01   9.090716e+01
  -3.836191e+01   4.143008e+01
  -3.700984e+01  -2.268858e+01
   6.774097e+01   3.171386e+00
   8.543245e+01   5.156403e+01
   5.646034e+01   9.575313e+01
  -6.478737e+01   1.120711e+02
  -1.719971e+02   5.373124e+01
  -1.035846e+02  -6.459453e+01
   2.202419e+01  -1.546440e+02
   1.246276e+02  -1.200976e+02
   1.202061e+02   1.699961e+01
   2.701803e+01   8.652777e+01
  -3.557991e+01   8.038345e+01
  -4.436377e+01  -8.818931e+00
  -3.807326e+01  -5.643424e+01
   3.278171e+01  -3.281855e+01
   4.309087e+00   1.455847e+01
  -2.273483e+01   4.232622e+01
  -5.274006e+01  -7.544100e+01
  -1.250449e+02  -7.228188e+01
   1.693854e+01  -5.570440e+01
   1.634696e+02   5.274785e+01
   1.680623e+02   5.059899e+01
   3.133742e+01   5.709515e+01
  -9.985176e+01   2.162217e+01
  -1.261916e+02   5.025073e+01
  -1.690486e+01   1.306516e+01
   4.287314e+01  -4.196018e+00
   1.638261e+01  -5.968813e+01
  -2.434385e+01   6.750440e+00
   4.799786e+00   1.424463e+01
   3.808651e+01   1.269995e+01
   8.816283e+01   1.248823e+01
  -1.800987e+01   6.157628e+01
  -1.420228e+02   1.309829e+02
  -1.760217e+02   3.802958e+01
  -1.335767e+02  -9.212753e+01
  -3.277105e+01  -1.710034e+02
   1.048440e+02  -1.492763e+02
   9.587214e+01  -5.409994e+01
   1.090040e+02  -1.272798e+01
   5.069862e+01  -1.316574e+01
   1.349238e+01   1.335126e+01
   4.175298e+01   4.386568e+01
   1.620336e+01   4.596713e+01
   5.968527e+01   1.185576e+02
  -2.551347e+00   1.067720e+02
  -9.970016e+01   2.506618e+01
  -6.362670e+01  -1.215603e+02
  -5.594005e+01  -1.201953e+02
   4.123619e+01  -6.287602e+01
   8.458760e+01   5.410532e+01
   1.241433e+01   9.531247e+01
  -2.668306e+01   5.705614e+01
  -8.419214e+01   8.604858e+00
  -4.362437e+01  -5.867656e+01
   2.103800e+01  -4.909752e+01
  -5.418481e+00   3.382952e+01
  -6.360086e+01   4.871101e-01
  -5.501997e+01  -2.932104e+01
  -5.041558e+01  -4.249778e+01
   5.153411e+01  -8.834353e+01
   1.399107e+02  -8.379583e+01
   8.669531e+01  -1.009959e+00
   8.981884e+00   8.647098e+01
  -1.269578e+01   9.361240e+01
  -5.395872e+01   1.067840e+01
   5.821024e+00  -4.868602e+01
   1.814515e+01  -7.590115e+01
   4.776565e+01   3.569924e+01
   3.119081e+01   4.855513e+01
   1.905947e+00   4.246469e+01
   3.375550e+01   6.558669e+00
  -3.049271e+01  -2.486059e+01
  -3.643360e+01   4.990785e+01
  -6.905967e+01   2.421721e+01
   5.695473e+00   2.129186e+01
  -3.202792e+01  -1.473635e+01
   1.743652e+01  -8.165438e+01
   9.922044e+00  -2.579415e+01
   2.698024e+01   9.041698e+00
  -2.452832e+01   6.228996e+01
  -1.534315e+01   4.874817e+01
  -1.728561e+01  -4.736654e+01
  -1.706400e+01  -8.910826e+01
   2.804786e+01  -1.087795e+01
   6.382807e+01  -2.076704e+01
   7.453976e+01   4.468497e+01
  -2.498503e+01   7.790552e+01
  -1.007255e+02   2.220395e+01
  -2.364572e+01   2.243823e+01
   3.437989e+00  -4.079617e+01
   3.458180e+01  -1.115260e+01
  -1.050228e+01   1.207746e+01
  -1.065310e+02   5.109681e+01
