
 $NMID
 id='ANONYMOUS ', fmtdat='(2E16.6)'
 volume=1.0
 tramp=1.0
 $END
   3.993245e+03  -6.941132e+01
   2.098781e+03   1.785555e+03
  -8.438946e+00   2.226548e+03
  -1.529289e+03   1.112774e+03
  -1.115420e+03  -3.745968e+02
   1.287766e+02  -4.517269e+02
   3.096493e+02   1.533074e+02
   6.479805e+01   7.889339e+02
  -6.718712e+02   5.717738e+02
  -7.385384e+02   1.574696e+01
  -3.806823e+02  -7.285007e+02
   1.845715e+02  -6.793748e+02
   4.080059e+02   6.385741e+00
   2.828635e+02   7.861076e+02
  -4.072368e+02   7.264662e+02
  -3.158780e+02   8.486609e+01
  -1.930709e+02  -7.974059e+02
   2.705161e+02  -6.323659e+02
   4.372483e+02  -1.922802e+02
   4.566617e+02   3.002834e+02
   4.753213e+01   3.244980e+02
  -2.102648e+02   7.017425e+01
  -9.265898e+01   3.509327e+01
   7.130467e+01   7.056672e+01
   3.424425e+02   3.715463e+02
   1.399105e+02   5.003346e+02
  -3.981990e+02   2.290060e+02
  -7.383807e+02  -2.729562e+02
  -3.568459e+02  -5.728395e+02
   4.767867e+02  -4.399668e+02
   7.169188e+02   1.615112e+02
   3.601971e+02   5.002085e+02
  -1.509777e+02   3.960464e+02
  -4.387141e+02   3.479292e+01
  -2.447070e+02  -1.811157e+02
  -5.499097e+01  -3.581363e+02
   1.275972e+02  -1.586189e+02
   1.006165e+02   1.974521e+02
  -1.824857e+02   3.077980e+02
  -3.902006e+02  -1.469354e+02
  -1.461883e+02  -5.996186e+02
   3.441195e+02  -4.622089e+02
   4.479577e+02   1.187460e+02
   1.429944e+02   4.472942e+02
  -2.649009e+02   1.636053e+02
  -3.735629e+02  -3.339489e+02
   3.332129e+01  -4.158203e+02
   4.901658e+02  -2.769266e+01
   5.295146e+02   3.096422e+02
   1.569006e+02   4.514683e+02
  -4.032498e+02   2.899249e+02
  -5.767908e+02  -1.016074e+02
  -2.902825e+02  -3.648727e+02
   1.561890e+02  -2.763956e+02
   3.351116e+02  -5.291042e+01
   1.872899e+02   1.388841e+02
  -6.008811e+01   1.089272e+02
  -6.083620e+01  -1.266874e+02
   1.533684e+02  -1.148406e+02
   2.442217e+02   7.401445e+01
   8.158340e+01   2.829420e+02
  -2.017946e+02   3.104965e+02
  -3.479126e+02   9.847469e+01
  -2.805748e+02  -1.501588e+02
  -6.828553e+00  -2.955349e+02
   2.000127e+02  -3.508329e+02
   3.223756e+02  -1.638047e+02
   2.256000e+02   1.259746e+02
   6.681056e+01   3.868072e+02
  -6.506445e+01   2.370278e+02
  -4.559633e+01   1.308419e+02
   1.225479e+01   9.877271e+01
  -1.447047e+02   1.742117e+02
  -2.939606e+02   8.850054e+01
  -2.698247e+02  -1.350899e+02
  -9.579428e+01  -3.466711e+02
   1.016658e+02  -2.181039e+02
   2.050154e+02   1.597654e+01
   1.578121e+02   2.524801e+02
  -9.268390e+00   2.724961e+02
  -2.458654e+02   8.446515e+01
  -3.468306e+02  -1.721078e+02
  -1.806218e+02  -3.195129e+02
   6.306517e+01  -3.229518e+02
   1.922009e+02  -1.550687e+02
   1.342294e+02  -4.911123e+00
   1.139256e+02  -2.113393e+01
   2.437268e+02  -5.227955e+01
   4.181960e+02   4.719116e+01
   3.126710e+02   2.757551e+02
  -3.178859e+01   4.363701e+02
  -3.960910e+02   3.444193e+02
  -4.701638e+02   1.379944e+02
  -3.331998e+02  -1.548741e+02
  -1.204074e+01  -2.216975e+02
   1.326993e+02  -2.289348e+02
   6.984427e+01  -5.067168e+01
  -7.159760e+01   7.955101e+01
  -1.360993e+02  -2.202479e+00
  -2.839512e+01  -1.322239e+02
   1.423835e+02  -1.085036e+02
   1.384428e+02   4.838060e+01
  -1.431429e+01   1.578192e+02
  -1.883651e+02  -2.888833e+01
  -1.597180e+02  -2.560766e+02
   9.537809e+00  -3.571055e+02
   2.368082e+02  -1.389156e+02
   3.686901e+02   7.281526e+01
   2.378849e+02   2.837053e+02
   7.780472e+01   2.821553e+02
  -1.242770e+02   1.207338e+02
  -1.483785e+02  -2.893715e+01
  -3.403526e+01  -5.660418e+01
   3.246331e+01   4.818832e+01
   7.296985e+00   1.507615e+02
  -1.356261e+02   7.790526e+01
  -1.531803e+02   2.252834e+01
  -3.799556e+01  -4.583219e+01
   1.205247e+02  -2.906503e+01
   2.733081e+01   8.108455e+01
  -1.536532e+02   1.266713e+02
  -2.987781e+02   6.972321e+00
  -2.538056e+02  -1.657335e+02
  -3.018358e+01  -2.941364e+02
   2.420859e+02  -2.530416e+02
   2.680952e+02  -7.748678e+01
   1.383026e+02   1.091236e+02
  -3.614559e+01   1.015277e+02
  -6.182027e+01   1.159159e+01
   4.831886e+01  -3.835791e+01
   1.623667e+02  -9.752214e+00
   1.715836e+02   1.197066e+02
   5.190429e+01   2.107807e+02
  -8.110711e+01   1.174546e+02
  -2.026171e+02  -2.439967e+01
  -4.632285e+01  -6.741108e+01
   3.756602e+01  -1.947656e+01
   1.059072e+02   1.035332e+02
  -1.187008e+01   1.432582e+02
  -2.113728e+02   4.714312e+01
  -2.162491e+02  -1.297746e+02
   2.532526e+00  -1.774730e+02
   1.746550e+02  -1.592668e+02
   1.784053e+02  -2.603158e+00
   1.009797e+02   1.249967e+02
  -6.511992e+01   8.518890e+01
  -9.237878e+01   2.552082e+01
  -8.409038e+00  -8.564479e+00
  -2.582836e+00  -8.619447e+00
   1.225020e+01   5.309298e+01
  -5.010439e+01  -4.589534e+01
  -1.321146e+02  -1.195131e+02
  -1.979179e+01  -1.629025e+02
   1.604940e+02  -1.894028e+02
   2.336132e+02  -1.412187e+01
   1.997626e+02   1.449048e+02
   5.941597e+01   2.364559e+02
  -9.253032e+01   1.553967e+02
  -9.638024e+01   5.188663e+01
  -4.491655e+01  -7.103396e+01
   3.456019e+00  -3.396538e+01
  -1.008848e+02   2.792999e+01
  -1.025961e+02   3.906227e+01
  -8.565437e+01  -1.975195e+01
   8.034934e+01  -9.923816e+01
   1.015391e+02  -5.664100e+01
   9.359787e+01   5.197159e+01
  -3.482910e+01   1.439943e+02
  -1.362409e+02   6.186950e+01
  -1.772308e+02   2.540038e+00
  -1.323126e+02  -2.269214e+02
   1.110861e+02  -2.272181e+02
   2.281094e+02  -1.276055e+02
   2.848505e+02   7.161174e+01
   1.040573e+02   1.651501e+02
   6.712012e+00   1.603735e+02
  -7.503789e+01   4.445426e+01
  -7.696348e+01   1.100502e+02
  -6.848217e+01   1.289550e+02
  -1.109894e+02   8.538213e+01
  -1.072229e+02  -1.686375e+01
  -1.136404e+02  -1.330094e+02
  -2.915559e+01  -2.444568e+02
   6.465204e+01  -1.215452e+02
   1.804737e+02   4.312131e+00
   1.137451e+02   1.521550e+02
  -2.009200e+01   1.743544e+02
  -4.916792e+01   9.572709e+01
  -9.196404e+01  -5.207348e+01
   1.465244e+01  -1.532334e+01
   2.170569e+00  -8.136410e+00
  -4.834323e+01  -4.998998e+01
  -8.088619e+01  -3.850751e+01
  -1.692354e+01  -6.317723e+01
   4.649813e+01  -9.624806e+00
   1.668217e+02  -2.802250e+00
   1.241069e+02   5.702594e+01
   1.718663e+01   1.239905e+02
  -8.476895e+01   1.150551e+02
  -1.081249e+02   1.160369e+01
  -2.061864e-01  -3.467559e+01
   2.133311e+01  -3.034208e+01
   3.172217e+01   4.454577e+01
   1.716055e+01   5.525197e+01
  -5.812358e+01   6.024965e+01
  -4.763201e+01  -3.244398e+01
  -6.946064e+01  -4.942687e+01
  -2.997717e+01  -8.205799e+01
  -2.295757e+01  -1.681654e+00
  -3.374733e+01  -4.194722e+00
  -2.338555e+01  -6.968892e+01
   2.626753e+01  -1.468735e+02
   1.031744e+02  -1.451630e+02
   2.056506e+02  -7.170400e+00
   1.287882e+02   1.121209e+02
   6.241416e+00   1.324223e+02
  -5.442812e+01   7.594492e+01
  -5.221921e+01  -7.647328e+00
   6.468531e+01  -5.147789e+01
   8.748609e+01  -3.203635e+00
   5.353204e+01   1.116494e+02
  -2.124348e+01   1.154287e+02
  -1.658345e+02   7.390290e+00
  -1.588612e+02  -5.353866e+01
  -1.066507e+01  -1.012882e+02
   5.893999e+01  -7.823438e+01
   3.784550e+01   1.976507e+01
  -2.717218e+01   6.677368e+01
  -6.336700e+01  -6.421673e+00
  -6.218705e+01  -3.837535e+01
   5.182142e+01  -1.359203e+02
   5.891563e+01  -9.528634e+01
   1.302320e+02   7.694093e+01
  -8.762250e+00   1.708703e+02
  -9.913213e+01   1.060908e+02
  -1.228375e+02   8.978731e+00
  -5.837483e+01  -1.094652e+02
   2.401223e+01  -6.864324e+01
   7.578410e+01  -1.982748e+01
   4.840587e+01  -1.564941e+01
   1.763601e+01  -1.072203e+01
   1.331577e+01   3.197019e+01
   3.096044e+01   5.369812e+01
   5.186826e+01   7.180022e+01
   2.521205e+01   1.022982e+02
  -9.212609e+01   5.028801e+01
  -1.177797e+02  -2.098364e+01
  -1.341547e+02  -6.548078e+01
  -2.444699e+01  -5.166790e+01
   9.103184e+01  -3.680010e+01
   4.961351e+01  -3.234178e+01
   4.235011e+01  -9.043950e+00
  -1.568261e+01  -1.199176e+00
  -1.863116e+01   5.457412e+01
  -2.170903e+01   3.642397e+01
   5.871171e+00  -1.897746e+01
  -5.140379e+01  -1.228386e+01
  -9.597175e+01  -1.401179e+01
  -2.562318e+01  -7.183464e+01
   1.030774e+02  -7.571877e+01
   1.754494e+02  -3.742852e+01
   1.414621e+02   4.958317e+01
   6.472504e+01   1.382442e+02
  -5.721875e+01   1.563646e+02
  -1.156662e+02   6.470123e+01
  -5.953882e+01  -1.391767e+01
  -8.930341e+01  -5.312860e+01
  -3.628462e+01  -1.166904e+01
  -2.686174e+01  -3.956362e+01
  -2.768466e+01  -4.326735e+01
  -1.322497e+01  -1.033594e+02
   5.960077e+01  -9.185557e+01
   7.224417e+01   1.846081e+01
   5.747499e+01   1.102871e+02
  -2.237236e+01   1.032734e+02
  -3.893822e+01   2.956890e+01
  -9.143120e+01  -9.067847e+01
  -1.935534e+01  -1.184810e+02
   1.071060e+02  -5.391612e+01
   7.912352e+01   1.604616e+01
   4.214345e+01   5.585383e+01
  -8.817090e+00   7.099700e+01
  -7.631831e+01   5.824531e+01
   2.052331e+01  -2.043105e+01
   5.385237e+01   2.453755e+01
   1.346892e+01  -1.131481e+01
  -3.681759e+01   7.110829e+01
  -7.885434e+01   6.276501e+01
  -8.002027e+01   1.217264e+01
   2.579622e+01  -8.081241e+01
   2.757804e+01  -1.195004e+02
   3.734362e+01  -7.647868e+00
   2.158738e+01   3.023980e+01
  -2.603730e+01   2.649215e+00
  -5.381211e+01   2.638793e+01
  -1.582528e+01  -7.776431e+01
  -1.804847e+01  -1.957824e+01
   2.264644e+01   2.301019e+00
   4.960858e+01   6.187411e+01
   3.279077e+00   1.386963e+01
   2.392981e+01   6.882643e+00
  -1.812277e+01   3.820540e+01
   4.958134e+01   4.350339e+01
  -5.664702e+00   7.149278e+01
  -5.981791e+01  -1.698713e+01
   3.961624e+00  -1.997160e+01
  -2.574665e+01  -6.023577e+01
   5.125592e+01  -1.852373e+01
   8.090722e+01   3.283163e+01
   6.993641e+00   6.126401e+01
  -2.284298e+01   7.829817e+01
  -1.077860e+02   3.570516e+01
  -1.137393e+02  -3.092940e+00
   3.209305e-01  -2.150184e+01
   4.983752e+01  -1.929165e+01
   4.451628e+00  -1.624428e+01
  -3.934445e+01   1.257985e+01
  -5.182892e+01  -2.670044e+01
   3.725837e+01  -5.418774e+01
   9.465424e+01   2.296385e+01
