
 $NMID
 id='ANONYMOUS ', fmtdat='(2E16.6)'
 volume=1.0
 tramp=1.0
 $END
  -1.896990e+03   1.255890e+02
  -1.504502e+03  -8.812936e+02
  -1.168741e+02  -1.368427e+03
   8.076090e+02  -1.006407e+03
   6.115754e+02  -1.445367e+02
   1.638565e+02   1.750872e+02
  -1.025134e+02   1.367932e+02
  -2.288926e+02  -3.306925e+02
   1.146521e+02  -3.559095e+02
   4.525173e+02  -1.751963e+02
   4.891925e+02   2.681562e+02
   6.313810e+01   3.220364e+02
  -1.569806e+02   2.063313e+02
  -1.841475e+02   1.830730e+01
   1.721120e+01  -2.098270e+02
   3.110616e+02  -1.354141e+02
   2.918101e+02   3.517715e+02
   1.800017e+00   3.280171e+02
  -3.995317e+02   1.215762e+02
  -4.142491e+02  -9.648438e+01
  -8.616281e+01  -2.599626e+02
   9.555251e+01   3.112533e+00
   4.437887e+01  -2.878947e+02
  -1.106895e+02  -1.491166e+02
  -1.115618e+02  -1.703251e+02
  -7.826758e+01  -2.322567e+02
   3.309509e+02  -1.811475e+02
   2.780005e+02   5.106647e+01
   1.208226e+02   1.719486e+02
  -2.864217e+01   3.957608e+01
  -2.447650e+02  -1.248757e+02
  -7.944779e+01  -2.020428e+02
   1.705204e+02  -1.877263e+02
   2.254234e+02  -6.195326e+01
   2.286894e+02   1.807073e+02
   5.255491e+01   1.657975e+02
  -2.660102e+01   2.125528e+01
   9.400249e+01  -4.393827e+01
   1.206155e+02  -3.060275e+01
   1.353770e+02   1.128777e+02
  -3.272606e+00   2.697453e+02
  -1.141194e+02   2.993288e+02
  -1.270913e+02  -2.772080e+01
  -1.060859e+01  -1.215086e+02
   1.003825e+02  -1.553388e+01
   1.344311e+02   1.576690e+02
  -2.254896e+01   2.605382e+02
  -2.514094e+02  -5.357759e+00
  -3.441705e+02  -1.977677e+02
  -1.381377e+02  -3.240500e+02
   1.146258e+02  -1.786931e+02
   3.435355e+02   4.297435e+01
   2.443781e+02   1.298885e+02
  -3.108148e+01   1.205705e+02
  -1.715859e+02   5.762651e+01
  -1.374339e+02  -1.916300e+01
  -7.240910e+00   1.657007e+01
   3.041073e+01   4.664574e+01
  -5.260936e+01   6.610818e+01
  -1.465278e+02  -5.102694e+01
  -1.090445e+02  -1.262256e+02
   9.252454e+01  -1.243014e+02
   2.526418e+02  -6.490921e+01
   2.365104e+02   1.044778e+02
   5.555204e+00   1.915447e+02
  -2.333646e+02   1.861404e+02
  -2.787150e+02   5.831431e+01
  -1.361109e+02  -1.245136e+02
  -4.158590e+01  -2.533765e+02
  -1.348955e+01  -1.862677e+02
  -2.088730e+01  -1.203285e+02
   1.638933e+01  -8.290542e+01
   1.541185e+02  -1.088118e+02
   1.979042e+02  -3.914930e+01
   1.424734e+02   6.959880e+01
   2.577045e+01   1.630824e+02
  -9.959815e+01   1.498040e+02
  -1.121971e+02   2.789858e+00
  -4.031723e+01  -1.898180e+02
   6.565977e+01  -1.742663e+02
   1.758301e+02   1.072735e+00
   2.007905e+02   1.351133e+02
   7.162223e+01   1.427862e+02
  -1.147322e+01   1.684904e+02
  -5.437127e+01   6.767521e+01
  -6.597882e+01   4.301111e+01
  -1.240642e+02   5.727650e+01
  -1.747900e+02   1.457099e+01
  -2.868919e+02  -6.616753e+01
  -2.762668e+02  -1.961809e+02
   5.135938e+01  -2.898111e+02
   2.234842e+02  -3.052782e+02
   3.197501e+02  -7.668771e+01
   1.906529e+02   8.525510e+01
  -2.059598e+01   1.516241e+02
  -6.130571e+01   1.239879e+02
  -1.869822e+00   4.576662e+01
   5.450601e+01   1.078461e+01
   7.184192e+01   4.275767e+01
  -7.353150e+00   7.370595e+01
  -3.931210e+01   5.358548e+01
  -8.162815e+01  -9.824118e+00
   3.735978e+01  -7.162196e+01
   9.899119e+01   1.533634e+01
   9.218867e+01   1.425603e+02
  -2.838228e+01   1.618952e+02
  -1.910966e+02   1.211955e+02
  -2.292757e+02  -6.873459e+01
  -1.577477e+02  -1.596155e+02
  -2.204011e+01  -1.671004e+02
   4.647252e+01  -6.758620e+01
   5.262251e+01  -3.857103e+00
  -1.340075e+01  -4.855049e+00
  -2.393122e+01  -3.319020e+01
  -3.579330e+01  -6.453550e+01
   5.860730e+01   2.303066e+01
   1.050756e+02   3.168349e+01
   2.041995e+01   2.937258e+01
  -8.619768e+01   1.977221e+01
  -2.118425e+01  -9.747047e+01
   1.224135e+02  -4.636338e+01
   1.905174e+02   1.685409e+01
   1.765906e+02   1.496988e+02
  -1.734598e+01   1.249732e+02
  -1.315657e+02   1.648854e+02
  -1.304425e+02   1.497992e+01
  -5.746591e+01  -5.781542e+01
   3.303806e+01  -5.661088e+01
   2.910650e+01   2.139947e+01
  -2.916617e+00   8.113134e+01
  -8.282853e+01  -2.192294e+00
  -1.314383e+02  -6.457615e+01
  -4.269621e+01  -1.428069e+02
   6.447399e+00  -4.740308e+01
   5.090441e+01   2.727224e+01
  -9.853207e+00  -6.054328e+00
  -7.778396e+01  -6.256830e+01
  -3.476402e+01  -1.140841e+02
   5.332957e+01  -6.567785e+01
   2.044124e+02  -3.535114e+01
   1.122452e+02   7.836518e+01
  -5.915069e+00   1.413584e+02
  -6.575513e+01   5.878454e+01
  -1.131938e+02  -4.325935e-01
  -4.595272e+01  -5.010310e+01
   6.036716e+01  -4.675231e+01
   3.828480e+01  -3.451868e+01
   3.027923e+01   3.328588e+01
  -7.038716e+01  -2.396070e-01
   7.890780e+00  -4.665914e+01
   3.922845e+01  -1.222396e+01
   3.705329e+01   6.267227e+01
   5.150277e+00   1.291157e+02
  -1.371188e+02   1.031712e+02
  -1.097424e+02   2.720897e+01
  -1.230078e+02  -1.133293e+02
  -3.316236e+01  -1.062488e+02
   3.499060e+01  -6.866464e+01
   2.527809e+01  -1.659077e+01
   2.318353e+01   7.888478e+01
   5.044150e+01   2.096609e+01
   1.361722e+01  -2.733186e+01
   6.650094e+01   2.038797e+01
   1.356007e+01   4.358527e+01
  -1.424376e+01   4.473993e+01
  -1.110549e+02  -4.728448e+00
  -1.046518e+02  -6.456299e+01
  -1.676706e+01  -4.679972e+01
   1.321995e+02  -6.607471e+01
   1.295615e+02   5.669504e+01
   3.576778e+01   1.284145e+02
  -1.135287e+02   1.420496e+02
  -1.780149e+02   5.282821e+01
  -1.646180e+02  -8.409189e+01
  -3.953441e+01  -8.704642e+01
  -1.053390e+01  -9.813208e+01
   1.085701e+02  -6.887862e+01
   5.893131e+01  -5.252140e+01
   6.752714e+01  -5.801474e+01
   3.117268e+01  -5.201624e+01
   9.234395e+01   1.844679e+01
   4.606300e+01   1.219214e+02
  -1.599872e+01   1.654314e+02
  -9.142634e+01   1.010841e+02
  -1.009049e+02   2.338223e+01
  -9.119994e+01  -7.252693e+01
   1.954516e+00  -8.456126e+01
   2.844449e+01  -9.822275e+01
   2.833223e+01  -1.469148e-01
  -2.257204e+01   3.467512e+01
  -1.322048e+01  -8.237157e+00
   1.285437e+01  -1.887359e+01
   3.352143e+01   3.610190e+01
   3.414270e+01   7.012819e+01
  -5.170213e+01   5.294074e+01
  -1.277850e+02  -3.145979e+01
  -8.627274e+01  -3.615168e+01
  -4.478413e+00  -6.331110e+01
   1.050758e+02  -7.281541e+01
   7.702271e+01   1.541442e+01
   4.219046e+01   4.630644e+01
  -3.531439e+01   3.875640e+01
  -2.051550e+01  -6.047928e+00
   6.177463e-01  -5.336528e+01
  -1.963051e+01   1.228873e+01
   9.019988e+00   4.697615e+00
   3.323386e+01   3.007319e+01
   2.997030e+01   4.933988e+01
   2.261232e+01  -6.330412e+00
   5.374316e+01   4.496902e+01
   7.644322e+00   5.898165e+01
  -1.576354e+01   1.047173e+02
  -1.020222e+02   6.439582e+01
  -1.427111e+02   2.593667e+00
  -9.477521e+01  -2.596957e+01
   6.384678e+00  -6.117570e+01
   8.761471e+01  -1.333634e+01
   4.692400e+01   2.143641e+00
  -6.338833e+01  -1.696943e+01
  -6.349744e+01  -3.017217e+00
  -6.824907e+01  -1.169956e+02
   3.084659e+01  -5.957852e+01
   1.190916e+02  -1.741978e+01
   1.089525e+02   9.835528e+01
   9.115184e+00   6.191600e+01
  -4.677080e+01   2.849606e+01
  -5.808281e+01  -2.484478e+01
   3.116591e+00   2.115545e+00
   4.391344e+01  -8.198071e+00
   2.266764e+00   8.733213e+01
  -7.006856e+01   1.007878e+02
  -9.207392e+01   4.307456e+01
  -9.602477e+01  -7.452957e+01
   1.601386e+01  -1.137038e+02
   8.495703e+01  -7.464632e+01
   8.649286e+01   2.239514e+01
   1.678042e+01   8.793190e+01
  -3.159007e+01   1.165755e+02
  -2.513825e+01   2.210436e+01
  -2.566435e+01  -1.197798e+01
  -5.405910e+01  -1.317673e+01
  -1.713773e+01   3.417173e+01
  -6.212322e+01   5.229198e+00
  -5.281440e+01  -6.935645e+01
   3.551818e+01  -1.016431e+02
   3.199194e+01  -5.556929e+01
   1.118473e+02   2.024211e+01
   4.485698e+01   8.727357e+01
   1.864683e+01   4.660170e+01
  -2.807404e+01   3.225820e+01
  -6.856596e+01  -2.267311e+01
   7.670664e+00  -2.038674e+01
   6.731612e+01  -2.319304e+01
   5.227168e+01   1.702603e+01
   5.038543e+01  -2.446053e+01
  -3.018169e+01  -3.760143e+00
   4.388637e+01   3.634684e+00
   4.265793e+01   2.776388e+01
   1.231594e+01   5.000832e+01
  -6.657606e+01   6.847925e+01
  -1.467986e+02   3.027874e+01
  -8.975481e+01   2.753332e+01
  -3.211099e+01  -8.616181e+01
   6.802356e+01  -8.754641e+01
   1.086059e+02  -1.327118e+01
   3.507027e+01   2.429126e+01
   1.900578e+01   5.710161e+01
  -5.870255e+00  -1.235778e+01
   5.428489e+01   3.482794e+01
   8.660905e-01   2.258479e+01
   1.105429e+01   8.641557e+01
  -1.084504e+01   7.786049e+01
  -1.124745e+02  -3.454975e+00
  -1.078592e+02  -8.489492e+01
  -2.242172e+01  -7.234908e+01
   5.294010e+01  -4.522751e+01
   9.161316e+01   4.315312e+01
  -1.210033e+00   9.923336e+01
  -3.749315e+01   5.464575e+01
  -6.571840e+01   1.463102e+00
  -5.194725e+01  -6.781996e+01
   1.653613e+01  -4.841685e+01
   5.618407e+01  -2.052573e+01
  -1.469589e+01   3.914670e+01
  -8.515240e+01  -2.296865e+01
  -2.593226e+01  -4.824531e+01
   5.559972e+01  -2.395600e+01
   1.217621e+02  -6.882382e+01
   5.176517e+01   2.125005e+01
  -3.711997e+01   5.483372e+01
  -2.772953e+01   6.940533e+01
  -7.411821e+00   2.204841e+01
  -3.373309e+01  -5.079367e+01
   4.601677e+01  -8.058143e+01
   3.279504e+01   2.020135e+01
   3.877171e+01   3.362569e+01
   8.034893e+00   4.422363e+01
  -1.506197e+01  -2.621603e+01
  -3.711996e+01   5.037860e+00
   1.930875e+01  -3.443138e+01
   3.299830e+00  -1.442212e+01
   1.453752e+01   3.819865e+01
  -5.831036e+01  -2.003772e+01
  -3.185403e+01  -6.759361e+01
   6.983899e+00  -6.874904e+00
   6.135456e+01   5.183963e-01
   4.661395e+01   4.955716e+01
  -2.416357e+01   3.990897e+01
   3.889335e+00  -4.042922e+01
  -7.405417e-01  -3.490706e+01
   2.277896e+01  -1.867214e+01
   5.514271e+01   6.944099e-01
   8.769911e+00   7.639713e+01
  -4.023486e+01   3.983412e+01
  -5.840305e+01   3.104268e+01
  -4.689855e+01   6.659525e+00
  -2.667265e+00  -2.311769e+01
   2.261022e+01  -2.492605e+01
  -3.092139e+01   4.055690e+01
  -2.603329e+01   4.049266e+01
