
 $NMID
 id='ANONYMOUS ', fmtdat='(2E16.6)'
 volume=1.0
 tramp=1.0
 $END
   4.557930e+03   1.980807e+01
   2.619490e+03   2.381030e+03
  -3.493901e+02   2.606732e+03
  -1.707679e+03   1.313640e+03
  -1.082784e+03  -6.288801e+02
   5.113091e+02  -2.612310e+02
   7.441458e+02   4.186159e+02
  -6.238775e+01   9.678478e+02
  -7.998424e+02   8.274252e+02
  -8.515932e+02   1.277626e+02
  -4.783524e+02  -8.958415e+02
  -7.409467e+01  -8.201030e+02
   7.015208e+02  -1.595688e+02
   3.303766e+02   6.026671e+02
  -2.467988e+02   7.058121e+02
  -5.826787e+02   3.041853e+01
  -1.621936e+02  -7.747056e+02
   2.117581e+02  -6.924588e+02
   7.304536e+02  -2.860489e+02
   4.614071e+02   2.783182e+02
  -1.023011e+02   3.631418e+02
  -1.448370e+02   1.826897e+02
  -1.666651e+02  -4.046002e+01
   8.847455e+01  -1.207507e+02
   4.478441e+02   1.196423e+02
   5.561961e+00   4.841627e+02
  -5.350038e+02   3.942121e+02
  -9.109668e+02  -1.710570e+02
  -4.272141e+02  -6.255390e+02
   3.879192e+02  -5.270435e+02
   6.919894e+02   2.431185e+01
   3.019331e+02   5.675708e+02
  -2.925636e+02   4.827158e+02
  -5.210074e+02   1.754859e+02
  -3.302387e+02  -1.221464e+02
  -1.385641e+02  -4.484439e+02
   1.317104e+02  -2.238182e+02
   1.201210e+02   2.069483e+02
  -2.589079e+02   3.829064e+02
  -4.624966e+02   1.744452e+01
  -2.108331e+02  -6.540131e+02
   3.234622e+02  -5.955517e+02
   5.938327e+02   3.073035e+01
   2.624733e+02   5.900956e+02
  -2.372584e+02   3.158325e+02
  -3.187495e+02  -2.877834e+02
   2.882206e+01  -4.747442e+02
   5.089595e+02  -9.467319e+01
   5.353130e+02   4.585680e+02
   1.673328e+02   6.005918e+02
  -3.733243e+02   3.406754e+02
  -6.374989e+02  -8.004455e+01
  -4.048554e+02  -3.956083e+02
   1.749800e+02  -3.407863e+02
   4.575930e+02  -3.203460e+01
   2.685916e+02   1.623124e+02
  -1.422476e+02   9.510789e+01
  -1.386676e+02  -1.156144e+02
   1.593840e+02  -1.209720e+02
   3.557993e+02   9.726242e+01
   1.406604e+02   2.864720e+02
  -2.460238e+02   2.953428e+02
  -3.451257e+02   6.500903e+01
  -1.721061e+02  -1.145440e+02
   4.600256e+01  -2.506613e+02
   2.427183e+02  -3.069917e+02
   3.889825e+02  -1.835220e+02
   3.148023e+02   1.722801e+02
   1.055032e+02   4.892187e+02
  -1.333175e+02   3.923355e+02
  -1.373315e+02   1.119439e+02
  -3.626201e+01   2.595222e+01
  -7.512834e+01   1.132275e+02
  -2.947351e+02   1.236077e+02
  -3.379469e+02  -1.476748e+02
  -1.155994e+02  -2.992514e+02
   1.280712e+02  -2.555348e+02
   2.251823e+02   1.955202e+01
   1.864114e+02   2.752770e+02
  -4.868484e+01   3.028888e+02
  -2.974675e+02   7.352977e+01
  -4.273271e+02  -1.652440e+02
  -1.416408e+02  -3.758945e+02
   7.738292e+01  -3.511630e+02
   2.549728e+02  -1.691054e+02
   1.803613e+02  -1.306656e+00
   1.382754e+02   6.103469e+00
   2.406450e+02  -7.062886e+01
   4.395142e+02   2.084750e+01
   3.534631e+02   2.650103e+02
  -3.713777e+01   5.343860e+02
  -4.428070e+02   4.492978e+02
  -5.184433e+02   2.029351e+02
  -3.061489e+02  -1.850753e+02
   4.433885e+00  -3.366283e+02
   1.655715e+02  -1.830543e+02
   6.991243e+01  -1.726531e+01
  -9.960700e+01   7.863692e+01
  -1.606321e+02  -4.381232e+01
   2.158685e+01  -2.134978e+02
   1.447583e+02  -1.313421e+02
   1.761194e+02   4.307451e+01
   1.612905e+01   1.474480e+02
  -1.659025e+02  -5.999837e+00
  -1.022362e+02  -2.445049e+02
   6.493786e+01  -3.376544e+02
   2.213731e+02  -1.856180e+02
   3.603283e+02   7.976566e+01
   2.639209e+02   2.208071e+02
   9.847961e+01   2.728803e+02
  -1.839745e+02   1.672370e+02
  -1.841317e+02   2.850632e+01
  -4.617252e+01  -2.908948e+01
   5.140836e+01   5.017245e+01
  -1.192032e+01   1.082503e+02
  -1.368318e+02   6.321577e+01
  -1.652848e+02  -6.234505e+01
  -4.967616e+01  -5.393886e+01
   8.483056e+01  -9.919822e+00
   8.058540e+01   8.217346e+01
  -1.552794e+02   8.673194e+01
  -3.184439e+02  -1.619611e+01
  -2.794617e+02  -2.154383e+02
  -3.617408e+01  -3.137305e+02
   2.375475e+02  -2.308005e+02
   3.407052e+02  -9.143418e+01
   2.017375e+02   4.671959e+01
  -2.147151e+01   1.363992e+02
  -7.926828e+01   2.310720e+01
   6.228033e+01  -1.128077e+02
   2.099140e+02  -8.812874e+01
   2.316491e+02   1.042774e+02
   6.717929e+01   2.352586e+02
  -1.143721e+02   2.093945e+02
  -1.468777e+02   6.724187e+00
  -5.732529e+01  -5.866960e+01
   7.452719e+01  -5.643915e+01
   8.266303e-01   6.047835e+01
  -1.285567e+02   1.031388e+02
  -2.542116e+02  -1.984239e+01
  -2.152407e+02  -1.740371e+02
  -2.703096e+01  -2.742772e+02
   2.217934e+02  -2.217152e+02
   2.083522e+02  -1.115528e+01
   5.851804e+01   1.110426e+02
  -3.928360e+01   1.248402e+02
  -5.065138e+01   3.969864e+01
   4.644351e+00  -2.122999e+01
   3.038416e+01   3.675940e+01
  -3.566248e+01  -3.599916e+00
  -1.215630e+02   3.382705e+01
  -1.307510e+02  -9.280333e+01
  -4.766548e+01  -2.071921e+02
   1.511926e+02  -1.562436e+02
   3.016440e+02  -2.303030e+01
   1.511879e+02   2.025257e+02
  -7.010530e+00   2.249274e+02
  -1.264707e+02   1.432089e+02
  -1.154187e+02   3.283666e+01
  -9.570768e+01  -3.020754e+01
  -3.012346e+01  -1.862664e+01
  -5.316529e+01   7.702066e+00
  -1.023802e+02   5.341594e+00
  -6.394328e+01  -3.683636e+01
   3.132708e+01  -1.003756e+02
   1.343823e+02  -1.010446e+02
   7.921262e+01   1.155664e+01
   2.360268e+01   8.850758e+01
  -1.418428e+02   8.192305e+01
  -1.793980e+02  -9.385538e+01
  -4.788724e+01  -2.065525e+02
   1.510741e+02  -2.109781e+02
   2.969733e+02  -4.296012e+01
   2.783946e+02   1.288603e+02
   6.804867e+01   2.297878e+02
  -8.027229e+01   1.381280e+02
  -9.319095e+01   9.057500e+01
  -7.396670e+01   6.727822e+01
  -8.356280e+01   7.392427e+01
  -1.131270e+02   7.796805e+01
  -1.300814e+02  -6.376948e+00
  -1.558773e+02  -1.082424e+02
  -8.094417e+01  -2.648217e+02
   1.159231e+02  -2.071188e+02
   1.432880e+02  -4.412580e+01
   1.724618e+02   1.312257e+02
   2.750790e+01   1.749320e+02
  -5.032599e+01   8.677770e+01
  -7.040751e+01   1.203398e+01
  -2.328487e+01  -5.201258e+01
   7.356088e+01  -1.321560e+01
  -3.546957e+01   3.770464e+00
  -8.571175e+01   3.834556e+00
  -1.239209e+02   2.365632e+00
   5.708913e+01  -4.149752e+01
   1.685005e+02  -2.437480e+01
   1.561386e+02   5.962371e+01
   1.982089e+01   9.198929e+01
  -1.014790e+02   9.936577e+01
  -1.332541e+02   1.858109e+01
  -4.377915e+01  -7.270358e+01
   2.723700e+01  -5.643900e+01
   9.163564e+01   2.454566e+01
  -2.570324e+01   1.051414e+02
  -9.956492e+01   5.847589e+01
  -4.687317e+01  -3.165009e+01
  -3.022634e+01   2.154096e-01
  -3.276021e+01  -5.956441e+01
  -4.765367e+01  -3.882859e+00
  -6.927546e+01   6.134407e+00
  -3.272477e+01  -1.042721e+02
   4.251200e+01  -1.426267e+02
   9.884311e+01  -1.755853e+02
   1.711260e+02  -5.136395e+01
   1.561477e+02   1.185160e+02
   3.387911e+01   1.267845e+02
  -7.244665e+01   6.160945e+01
  -5.501133e+01   4.531611e+00
   9.652547e+01   3.311714e+00
   1.509669e+02   1.275700e+02
   1.608577e+01   1.951433e+02
  -1.191808e+02   1.026075e+02
  -2.545197e+02   3.360848e+01
  -1.669483e+02  -2.648024e+01
  -3.126084e+00  -1.249489e+02
   1.119461e+02  -6.251343e+01
   5.559141e+01   5.188930e+00
  -8.160221e+01   3.481531e+01
  -7.233699e+01  -3.763154e+01
  -6.296959e+01  -1.099871e+02
   9.305733e+01  -1.532874e+02
   1.477921e+02  -9.812555e+01
   1.379517e+02   8.656932e+01
   3.800586e+01   2.039666e+02
  -1.146114e+02   1.328207e+02
  -1.327067e+02  -1.844418e+01
  -6.873454e+01  -1.425212e+02
   1.099805e+01  -1.204461e+02
   8.628251e+01  -1.324401e+01
   4.160010e+01   1.773443e+01
   2.023393e+01   2.869266e+01
   3.461249e+01  -1.043989e+01
  -1.883422e+01  -1.956965e+01
   6.507853e+01   5.271360e+01
   6.007044e+01   3.095076e+01
  -2.262097e+01   4.834814e+01
  -1.115175e+02  -4.857954e+01
  -1.574194e+02  -2.627623e+01
  -2.868099e+01  -1.377828e+00
   1.004116e+02   3.455883e+01
   1.396158e+02  -2.218937e+01
   8.480000e-01  -2.110473e+00
  -7.609775e+01  -2.702136e+01
  -8.867457e+01  -1.973528e+01
   8.264179e+00   1.014112e+01
   2.073925e+01  -5.399598e+01
  -5.971750e+01  -7.773939e+00
  -1.260909e+02  -5.570372e+01
   5.086844e+00  -7.449269e+01
   1.629571e+02  -1.017707e+02
   1.730476e+02  -1.127253e+01
   1.371379e+02   7.992585e+01
   2.160593e+01   1.719746e+02
  -1.404507e+02   1.160521e+02
  -1.438622e+02   9.310086e+01
  -8.478472e+01   3.518332e+00
  -3.079666e+01  -5.935525e+01
  -1.080173e+01  -2.520722e+01
  -4.761165e+01  -1.584504e+01
  -6.857717e+01  -4.933439e+01
  -4.186369e+01  -1.276001e+02
   3.539120e+01  -4.917900e+01
   1.062827e+02  -6.012623e+00
   8.835795e+01   1.315078e+02
  -2.165494e+01   1.203276e+02
  -6.357108e+01  -4.260511e+01
  -9.843592e+01  -9.416991e+01
  -3.602753e+01  -1.440410e+02
   1.045425e+02  -8.301053e+01
   1.042358e+02  -1.172837e+00
   3.451517e+01   6.670334e+01
  -5.192313e+01   5.976991e+01
  -3.062936e+01   5.212185e+00
   3.781830e+01  -1.714974e+00
   8.985486e+01   3.407548e+01
   1.534658e+01   3.645136e+01
  -7.944932e+01   5.734121e+01
  -1.138421e+02   3.750560e+01
  -3.378086e+01   3.286457e+00
   2.343243e+01  -4.532102e+01
   9.726857e+01  -4.369230e+01
   3.454643e+01  -1.590033e+01
   2.724012e+01   1.426903e+01
  -3.421566e+01   3.953553e+01
  -2.907905e+01   1.383394e+01
   3.588098e+00  -1.583484e+01
  -2.118686e+01  -2.857466e+00
   1.303496e+01  -4.160361e-01
   1.350233e+01   2.714064e+01
   1.900057e+01   3.676987e+00
  -4.229071e+00   8.206337e+00
   3.389522e+01   1.215976e+00
  -1.318641e+01   8.376043e+01
  -7.079566e+00   6.898956e+01
  -5.399616e+01   1.731657e+01
  -3.766137e+01  -4.716588e+01
  -2.855710e+01  -7.978193e+01
   5.664490e+01  -4.836375e+01
   7.363158e+01   2.150131e+01
   1.600522e+01   8.083260e+01
  -1.271301e+02   1.692491e+01
  -1.112392e+02  -6.048603e+01
  -3.625398e+01  -4.035226e+01
   2.033517e+01  -7.225390e+00
   6.120970e+01  -6.005693e+01
   2.279581e+01  -3.926518e+01
  -3.163441e+01  -3.573255e+01
  -3.941151e+01   2.043238e+00
   1.140055e+01   9.737289e+00
   6.565933e+01  -6.162526e+00
