
 $NMID
 id='ANONYMOUS ', fmtdat='(2E16.6)'
 volume=1.0
 tramp=1.0
 $END
  -3.975822e+03  -9.731724e+01
  -2.383795e+03  -2.131315e+03
   2.132344e+02  -2.448833e+03
   1.835646e+03  -1.310833e+03
   9.828964e+02   3.065447e+02
  -3.953842e+02   4.255024e+02
  -8.162570e+02  -2.672860e+02
   5.537805e+01  -9.416397e+02
   8.259412e+02  -7.935309e+02
   8.259297e+02  -1.984860e+01
   4.604816e+02   8.126669e+02
  -8.073608e+01   8.037057e+02
  -6.369822e+02   2.336246e+02
  -1.573179e+02  -6.283390e+02
   2.673541e+02  -7.246736e+02
   5.086562e+02   1.290836e+02
   1.688455e+02   6.577664e+02
  -2.637410e+02   6.070357e+02
  -6.631476e+02   1.046161e+02
  -4.309693e+02  -4.676323e+02
   2.540606e+01  -3.463128e+02
   1.680650e+02  -2.637259e+02
   1.389968e+02   3.759442e+01
  -1.066468e+02  -6.496915e+01
  -2.907283e+02  -2.736649e+02
  -1.059808e+02  -4.273116e+02
   4.509834e+02  -1.873417e+02
   7.662476e+02   2.231970e+01
   3.031651e+02   5.083827e+02
  -3.086662e+02   4.340024e+02
  -5.323828e+02  -6.190434e+01
  -2.522206e+02  -4.465236e+02
   2.598474e+02  -4.498585e+02
   5.235824e+02  -1.720348e+02
   3.793201e+02   1.290936e+02
   9.984584e+00   3.772705e+02
  -2.336795e+02   3.198157e+02
  -1.601688e+02  -2.262974e+02
   2.165640e+02  -3.702138e+02
   4.776123e+02   5.230373e+01
   2.147973e+02   6.448022e+02
  -3.326470e+02   5.545429e+02
  -6.012716e+02  -2.133472e+01
  -1.778984e+02  -5.071938e+02
   3.567506e+02  -2.404671e+02
   3.728857e+02   3.140600e+02
  -3.424407e+01   5.291302e+02
  -4.876325e+02   1.553307e+02
  -5.216422e+02  -3.719864e+02
  -1.270347e+02  -5.610398e+02
   3.373403e+02  -3.841368e+02
   5.410488e+02   1.018782e+02
   4.085533e+02   3.808724e+02
  -9.013218e+01   3.337787e+02
  -3.913127e+02   9.145560e+01
  -2.300567e+02  -9.028006e+01
   7.485374e+01  -5.662760e+01
   8.246440e+01   1.494986e+02
  -1.603771e+02   7.094240e+01
  -3.379628e+02  -1.153791e+02
  -1.203297e+02  -3.084566e+02
   2.573505e+02  -2.709841e+02
   3.854310e+02  -5.273784e+01
   2.978448e+02   1.699705e+02
   5.480446e+01   2.867390e+02
  -2.626030e+02   3.427912e+02
  -3.962804e+02   2.510598e+02
  -3.451933e+02  -1.566335e+02
  -9.023214e+01  -3.297458e+02
   5.778088e+01  -3.350217e+02
   8.261537e+01  -1.115665e+02
   2.167404e+01  -7.559069e+01
   1.186727e+02  -1.385516e+02
   2.227395e+02  -1.336632e+02
   2.674699e+02   1.609625e+02
   1.299311e+02   2.644660e+02
  -8.279091e+01   2.480433e+02
  -1.946792e+02   8.810929e+00
  -1.787462e+02  -2.405038e+02
   1.708476e+01  -2.977922e+02
   2.411320e+02  -1.404384e+02
   3.760361e+02   1.364479e+02
   1.889336e+02   3.537424e+02
  -9.918170e+01   3.277802e+02
  -2.678001e+02   1.055332e+02
  -2.018506e+02   1.689791e+01
  -4.617117e+01   1.067227e+01
  -2.506202e+02   8.743665e+01
  -3.976972e+02  -1.149684e+02
  -3.536769e+02  -2.727356e+02
   2.148514e+01  -4.842028e+02
   3.735077e+02  -4.262854e+02
   4.832921e+02  -2.100052e+02
   3.331478e+02   1.167608e+02
   9.241361e+01   3.378595e+02
  -6.820939e+01   2.336832e+02
  -5.176307e+01   3.656523e+01
   7.801315e+01  -1.286673e+02
   8.649796e+01   3.413016e+00
   3.079775e+01   1.383906e+02
  -1.449763e+02   1.801106e+02
  -1.574969e+02  -6.099583e+01
   1.529122e+01  -1.895847e+02
   1.918013e+02  -7.932818e+01
   1.375176e+02   2.552690e+02
  -1.701668e+01   3.273724e+02
  -2.437967e+02   2.210765e+02
  -3.204097e+02  -5.453934e+01
  -2.300680e+02  -2.005806e+02
  -6.642437e+01  -2.227972e+02
   1.337840e+02  -1.890415e+02
   1.466293e+02  -5.459942e+01
   3.969121e+01   1.685543e+01
  -7.769696e+01   2.969999e-01
   2.648488e+00  -1.285321e+02
   1.240373e+02  -9.458639e+01
   1.887087e+02   5.042705e+00
   5.365052e+01   2.651507e+01
  -5.639746e+01   1.850971e+01
  -9.105843e+01  -4.383657e+01
   1.492614e+02  -5.257144e+01
   2.378145e+02   4.781015e+01
   2.374410e+02   1.917130e+02
  -3.978708e+00   2.770504e+02
  -1.804347e+02   1.978851e+02
  -3.152830e+02   8.787046e+01
  -1.969042e+02  -6.710211e+01
   3.116848e+01  -1.246852e+02
   8.641731e+01   2.545156e+01
  -1.179458e+01   1.005895e+02
  -2.202369e+02   9.588413e+01
  -2.213388e+02  -8.681685e+01
  -9.944270e+01  -2.019681e+02
   9.148841e+01  -2.125938e+02
   1.474782e+02  -8.499114e+01
   1.051911e+02   1.154804e+01
  -2.810705e+01   3.341645e+01
   2.012104e+01  -7.158262e+01
   9.242259e+01  -6.933201e+01
   2.084167e+02   2.593406e+01
   2.319682e+02   1.465513e+02
   9.338297e-01   2.687414e+02
  -2.318845e+02   1.665858e+02
  -2.266912e+02   2.895105e+01
  -4.329771e+01  -1.090335e+02
   1.340476e+01  -1.568773e+02
   5.110731e+01  -1.718188e+01
  -2.107695e+01  -1.283322e+00
   1.857212e+01   2.579847e+01
   4.251168e+01  -1.100619e+01
   1.199936e+02   3.496623e+01
   1.004500e+02   6.906961e+01
   1.821618e+01   1.576900e+02
  -9.672284e+01   1.817472e+02
  -2.351459e+02   5.501959e+00
  -2.289138e+02  -2.098160e+02
  -3.526542e+01  -2.472542e+02
   1.417262e+02  -1.573360e+02
   1.684439e+02  -2.039260e+01
   7.952445e+01   2.426872e+01
  -6.289511e+00   4.964418e+01
  -4.491915e+00  -3.795282e+01
   4.717282e+01  -4.062840e+01
   4.521687e+01   7.710068e+01
   1.614399e+01   4.883261e+01
  -6.791425e+01   4.580566e+01
  -6.868461e+01  -1.933701e+01
   3.198673e+00  -1.066871e+02
   1.312177e+02  -9.121447e+01
   2.548032e+02   4.400142e+01
   1.297016e+02   1.953895e+02
  -6.617690e+01   2.476232e+02
  -2.590343e+02   1.138866e+02
  -3.094985e+02  -5.770622e+01
  -1.217133e+02  -1.350130e+02
   5.015292e+01  -1.019199e+02
   1.133560e+02  -9.564728e+01
   9.667931e+01  -9.520307e+01
   6.028406e+01  -8.349159e+01
   8.237930e+01  -7.504630e+01
   1.441953e+02   6.030718e+01
   1.326327e+02   1.355575e+02
   4.522962e+00   1.971890e+02
  -1.109362e+02   1.463441e+02
  -1.511485e+02   4.058128e+01
  -1.729275e+02  -9.924324e+01
   1.242133e+00  -1.648294e+02
   8.623969e+01  -9.489452e+01
   4.632724e+01   1.761314e+01
  -4.474523e+01   3.317488e+01
  -8.389353e+01   3.787714e+01
   4.001755e+01  -3.714210e+00
   5.473181e+01   1.872458e+01
   5.957717e+01  -1.920118e+01
  -7.181320e+01   4.403286e+01
  -1.476595e+02   3.779158e+01
  -1.012621e+02  -6.124577e+00
  -2.275336e+01  -9.754495e+01
   1.326398e+02  -1.023516e+02
   1.686327e+02   5.483631e+00
   6.242002e+01   7.543521e+01
  -2.346841e+01   9.276451e+01
  -1.999943e+01  -6.677121e+00
   1.786276e+01  -4.098214e+01
   4.344430e+01  -4.381841e+01
   2.881008e+01   8.249539e+00
   3.877758e+01   2.499635e+01
   2.496181e+01   5.457151e+01
  -1.969565e+01  -1.780125e+00
   5.395401e+01  -1.533649e+01
   2.278161e+01   4.535588e+01
  -1.998713e+01   1.411416e+02
  -8.706868e+01   1.367155e+02
  -1.370522e+02   8.154795e+01
  -1.392325e+02  -1.245380e+02
  -3.273381e+01  -9.047905e+01
   6.706612e+01  -1.925162e+01
   5.534237e+01   2.132669e+01
  -5.859231e+01   2.896214e+01
  -1.192234e+02  -5.391492e+01
  -3.435020e+01  -9.169418e+01
   4.487283e+01  -9.285993e+01
   1.844169e+02  -1.100144e+02
   1.613132e+02  -2.775385e+01
   6.752317e+01   6.274299e+01
  -5.299911e+00   7.482359e+01
  -3.231192e+01   2.503911e+01
   5.764075e+01   2.918681e+00
   1.175977e+02   1.548541e+01
   1.924736e+01   1.213342e+02
  -9.282214e+01   2.149371e+02
  -1.772809e+02   9.127265e+01
  -1.804087e+02  -6.714917e+01
  -2.418549e+01  -1.963276e+02
   7.351652e+01  -1.440050e+02
   8.701293e+01  -5.582849e+00
   6.178723e+01   9.952111e+01
   1.793148e+01   1.077908e+02
  -6.075631e+01   2.594646e+01
  -4.667257e+01   3.752691e+00
  -4.827880e+01  -7.140630e+01
  -3.053563e+01   2.496112e+01
  -6.013470e+01  -4.054774e+01
  -6.110856e+01  -1.079752e+02
  -1.496095e+01  -1.546026e+02
   3.997420e+01  -3.635934e+01
   1.470484e+02   3.985383e+01
   9.223422e+01   1.015366e+02
   1.909508e+01   1.567651e+01
  -1.337108e+02  -4.837534e+01
  -9.864630e+01   4.165561e+01
   4.839872e-01  -7.175526e+00
   6.219214e+01  -2.229019e+01
   4.648701e+01  -2.476985e+01
  -3.553790e+01   1.264579e+01
  -3.521580e+00   6.726223e+00
   6.508929e+01   2.102462e+01
   6.934021e+01   1.690759e+01
   3.176043e+01   9.379882e+01
  -1.101380e+02   1.448156e+02
  -2.127447e+02   9.900240e+01
  -1.765610e+02  -3.947152e+01
  -2.413202e+01  -1.558219e+02
   8.388982e+01  -1.309549e+02
   7.185844e+01  -6.908956e+01
   9.180702e+01  -1.514655e+01
   2.202255e+01  -1.526889e+01
   2.871332e+01  -1.368633e+01
   7.639243e+01  -1.986253e-01
   8.781148e+01   1.313662e+01
   2.492933e+01   5.069749e+01
  -6.671897e+01   1.209898e+02
  -6.040270e+01  -8.696930e+00
  -8.026310e+01  -7.433251e+01
  -6.484115e+00  -1.039236e+02
   9.494654e+01  -2.422262e+01
   8.745556e+01   9.761876e+01
   3.614789e+01   1.192972e+02
  -6.232276e+01   6.216748e+01
  -8.404996e+01   2.842782e+01
  -7.461661e+01  -8.358720e+01
   2.769153e+01  -2.646557e+01
   3.581496e+01  -5.434477e+01
  -7.141650e+01  -1.229458e+01
  -7.565749e+01  -5.241901e+01
  -2.236125e+01  -2.412905e+01
   1.285851e+02  -1.081456e+02
   1.290451e+02  -4.976144e+01
   1.206259e+02   4.813465e+01
  -3.531623e+01   6.019306e+01
  -6.804204e+01   4.959987e+01
  -2.271886e+00  -3.865140e+01
   3.634713e+01  -1.053858e+02
  -4.559458e+00  -4.912667e+01
   5.703242e+01  -3.393259e-01
  -1.749008e+01   5.106007e+01
   2.051896e+01   4.011321e+01
  -6.393098e+01   7.750775e+00
  -5.094470e+01  -1.695232e+01
   2.135520e+01   5.213807e+01
   4.328348e+01   4.980937e+01
   1.924135e+01  -1.764758e+01
   3.685174e+01   6.168786e+00
  -8.771985e+00  -9.213093e+01
   4.944262e+01  -4.198732e+01
   7.027504e+01   5.257467e+01
   3.306013e+01   7.280913e+01
  -1.985706e+01   7.559684e+01
  -4.982026e+01   8.022390e+00
  -1.065488e+00  -1.279634e+02
   3.587958e+01  -1.197003e+01
   9.000541e+01  -8.311903e+00
   8.633673e+01   4.816680e+01
  -2.412380e+01   5.432509e+01
  -1.049394e+02   4.355536e+01
  -3.579829e+01   1.484665e+01
   1.227181e+00  -1.716856e+00
   7.043619e+01  -7.040691e+00
  -2.353164e+01   4.031602e+01
  -6.528812e+01   4.479912e+01
