
 $NMID
 id='ANONYMOUS ', fmtdat='(2E16.6)'
 volume=1.0
 tramp=1.0
 $END
  -1.336924e+03   6.582882e+01
  -9.134568e+02  -5.355397e+02
  -3.001359e+02  -7.365779e+02
   5.068804e+02  -6.682466e+02
   5.089590e+02  -4.259250e+02
   1.170661e+02   5.764856e+01
  -1.437281e+02  -1.198160e+01
   1.633849e+01  -1.081809e+02
   1.681107e+02  -1.608116e+02
   2.723628e+02   4.801120e+01
   7.955615e+01   2.666984e+02
   3.074964e+01   3.423131e+02
  -3.731176e+01   2.837947e+01
   4.916700e+01  -1.032059e+01
  -1.467162e+01  -2.813642e+02
   1.641487e+02   9.101481e+01
   1.412849e+02   1.894432e+02
  -5.525571e+01   3.244439e+02
   1.255790e+01   8.326463e+01
  -2.973170e+02   1.594073e+02
  -1.190454e+02  -1.087173e+02
   2.245597e+01  -1.348599e+02
   3.736854e+01  -2.271193e+01
  -9.862507e+01  -1.116777e+02
  -1.312742e+02  -1.334732e+02
   8.837834e+01  -1.439463e+02
   1.545801e+02   8.280504e+01
   2.455822e+02   9.670860e+01
   1.115128e+02   1.788679e+02
  -1.540795e+02   4.725440e+01
  -2.284751e+02  -1.490456e+02
  -1.228721e+02  -1.587270e+02
   1.043152e+02  -5.813409e+01
   1.991158e+02   5.778111e+01
   1.132888e+02   4.798396e+01
   6.894672e+01   5.245774e+01
  -1.400778e+01   5.509760e+01
   2.819595e+01  -7.623238e+01
   9.079184e+01  -2.175933e+01
   7.012876e+01   8.476548e+01
  -1.588442e+00   2.097740e+02
  -5.778132e+01   1.972078e+02
  -1.463813e+02   2.489499e+01
  -7.333495e+01  -1.238821e+02
   4.646781e+00  -9.565913e+01
   1.050667e+02   1.173677e+02
  -8.572533e+01   1.715325e+02
  -2.114230e+02   1.065875e+00
  -1.856569e+02  -2.033255e+02
  -3.750305e+01  -2.011194e+02
   1.223188e+02  -1.088741e+02
   1.567849e+02   4.869043e+01
   9.062987e+01   1.261782e+02
  -3.810928e+01   8.118894e+01
  -1.184000e+02   3.079368e+01
  -1.178299e+02   2.638921e+01
  -5.176811e+01  -2.619384e+00
  -1.131050e+01  -4.111436e+01
  -3.799044e+01  -1.339409e+01
  -3.212238e+01   8.970664e+00
  -5.405222e+01  -6.076865e+01
   6.271963e+01  -1.189527e+02
   1.958358e+02  -8.275365e+01
   1.434365e+02   4.876966e+01
  -5.350338e+01   1.868831e+02
  -1.892810e+02   1.736601e+02
  -2.036618e+02   3.578847e+01
  -1.064497e+02  -1.274769e+02
   2.940940e+00  -1.418886e+02
   2.356740e+01  -1.198936e+02
  -1.947041e+00  -1.174901e+02
   1.657862e+01  -8.510089e+01
   6.511918e+01  -7.423211e+01
   1.916557e+02   1.764576e-01
   1.282704e+02   7.626217e+01
   1.426279e+01   1.336075e+02
  -9.861778e+01   1.173124e+02
  -1.323078e+02  -1.709561e+01
  -6.524804e+01  -1.210152e+02
   4.099254e+01  -1.204088e+02
   1.155559e+02  -3.945341e+01
   1.569687e+02   6.002419e+01
   7.593117e+01   1.431780e+02
  -5.067988e+01   1.716893e+02
  -8.062430e+01   7.670659e+01
  -3.622918e+01  -4.640004e-01
  -5.930837e+01   6.597853e+00
  -1.410897e+02   8.993410e+00
  -2.029682e+02  -7.214268e+01
  -1.526083e+02  -1.971080e+02
   2.025766e+01  -2.192748e+02
   2.261549e+02  -1.911110e+02
   2.642032e+02  -7.920295e+01
   1.007604e+02   6.613416e+01
  -3.815076e+00   1.177346e+02
   2.337512e+01   8.983291e+01
   4.346088e+01   3.156834e+01
   7.162677e+01   2.529611e+01
   3.106528e+01   5.506985e+01
  -3.191356e+01   9.354180e+01
  -6.140098e+01   5.288315e+01
  -2.037102e+01  -4.251104e+01
   3.321907e+01  -6.160820e+01
   5.297260e+01  -1.702678e+01
   3.838549e+01   1.285488e+02
  -2.587891e+01   1.822738e+02
  -8.279858e+01   5.689888e+01
  -1.940110e+02  -5.025142e+01
  -1.586561e+02  -1.286793e+02
   3.501826e-01  -1.468148e+02
   8.842639e+01  -4.166466e+01
   8.414239e+01   1.945684e+01
   8.344543e+00  -1.285000e+01
   1.345692e+01  -6.563367e+01
   4.373835e+01  -9.558263e+01
   1.087629e+02   1.188746e+01
   7.157115e+01   7.524666e+01
   2.299723e+00   5.760632e+01
  -9.241047e+01  -6.164809e+00
  -4.304826e+01  -4.231804e+01
   9.399799e+01  -8.661724e+01
   1.433820e+02   4.781946e+00
   9.574431e+01   1.186855e+02
   1.423521e+01   1.288840e+02
  -7.509356e+01   1.195688e+02
  -1.082293e+02   3.515706e+01
  -6.112402e+01   3.167671e+00
   7.274191e-01  -1.263152e+01
   2.853541e+01   1.025708e+01
  -3.495118e+01   4.800191e+01
  -9.733198e+01   1.560192e+01
  -9.651979e+01  -8.065336e+01
  -4.493521e+01  -8.240681e+01
   3.946103e+01  -2.994808e+01
   7.563340e+01  -9.344017e+00
   4.439172e+00   3.486423e+01
  -7.837906e+01  -6.587859e+01
   5.280046e+00  -9.361701e+01
   8.640019e+01  -4.859118e+01
   1.361139e+02   8.205710e+00
   5.681577e+01   1.021952e+02
   2.646504e+01   1.079844e+02
  -7.284702e+01   4.184466e+01
  -6.201099e+01  -1.308265e+01
   4.239447e+00  -7.135831e+01
   6.085496e+01  -1.345618e+01
   4.470421e+01   1.278788e+01
   7.686150e+00   5.809929e+01
  -4.627373e+01   4.489361e+01
  -2.943028e+01   1.624332e+01
  -2.536511e+00   8.824659e+00
   9.582632e+00   3.547931e+01
   1.511743e+00   1.100894e+02
  -9.261757e+01   5.562554e+01
  -1.427844e+02  -3.650909e+01
  -6.262868e+01  -1.103247e+02
  -4.109083e+01  -1.294343e+02
   6.045745e+01  -9.678422e+01
   7.742989e+01  -1.186094e+01
   4.246006e+01   2.975149e+01
  -4.257671e+00   1.503127e+01
   2.152014e+01  -3.447629e+01
   8.831674e+01   1.637328e+01
   2.045114e+01   1.015069e+01
  -5.719668e+01   7.945215e+01
  -7.546312e+01   3.513403e+01
  -3.986742e+01   1.038839e+01
   2.787993e+01  -5.571378e+01
   9.954126e+01  -3.027895e+01
   1.277005e+02   2.613256e+01
   3.291814e+01   1.186340e+02
  -5.816347e+01   1.137182e+02
  -1.397488e+02   2.336737e+01
  -9.239248e+01  -1.772492e+01
  -7.535987e+01  -1.123880e+02
   4.689633e+01  -5.894930e+01
   3.000317e+01  -1.930428e+01
   4.759902e+01  -5.790456e+01
   1.154091e+00  -4.554844e+01
   7.735207e+01  -1.631990e+01
   6.118511e+01   3.244155e+01
   5.057724e+01   1.100201e+02
   9.836802e+00   1.200181e+02
  -6.129046e+01   4.479761e+01
  -1.164100e+02  -4.206762e+00
  -3.384159e+01  -9.089226e+01
   6.270039e+00  -1.126406e+02
   6.774186e+01  -4.520345e+01
   3.027794e+01   2.945739e+01
  -1.584841e+01   2.465779e+01
   1.291163e+01   6.272224e+00
  -4.069255e+01   1.715290e+00
   4.224008e+01  -3.714163e+01
   3.911862e+01   5.178511e+01
  -3.875607e+01   2.522481e+01
  -7.631771e+01   2.443925e+01
  -6.675690e+01  -1.634012e+01
   9.467425e+00  -6.582885e+01
   5.723392e+01  -6.185142e+01
   9.244188e+01   8.836483e+00
  -8.319066e+00   4.939255e+01
  -1.791376e+01   4.039125e+01
  -2.186274e+01  -8.073204e+00
   3.987871e+00  -1.349452e+01
   2.878460e+01  -4.163574e+01
   3.232353e+01   2.882538e+01
   4.293721e+01   5.266972e+01
   7.924773e+00  -2.098844e+01
   6.433011e+01  -3.230892e+01
   8.350275e+00  -1.621057e+01
   2.974207e+01   4.041313e+01
   4.771537e+01   8.657470e+01
  -8.192999e+01   9.170442e+01
  -9.416984e+01   3.757043e+01
  -8.533642e+01   3.124188e+01
   2.893596e+01  -1.100749e+02
   5.476308e+01  -5.655520e+01
   1.373995e+01   1.589338e+01
  -4.178415e+00   4.139556e+01
  -7.396829e+01  -2.031053e+01
  -4.487282e+01  -2.741002e+01
   3.762314e+01  -7.021195e+01
   6.406775e+01   5.593631e+00
   5.288223e+01   1.653937e+01
  -6.185696e+00   7.523857e+01
  -7.070735e+01   3.317026e+01
   1.510267e+01  -1.593380e+01
   8.441021e+00  -2.453513e+01
   2.800701e+01   1.068902e+01
   4.585075e+00   3.650469e+01
  -8.157858e+00   7.720797e+01
  -8.646047e+01   5.574556e+01
  -9.060129e+01  -3.333162e+01
  -3.388906e+01  -1.284553e+02
   1.904763e+01  -8.168598e+01
   5.218550e+01   2.111967e+01
   2.482747e+01   3.685176e+01
   1.794949e+01   6.825860e+01
  -3.261655e+01   7.507341e-01
  -2.606246e+00  -6.614989e+01
  -3.080539e+01   3.061172e+01
  -1.274455e+00  -3.413564e+01
   4.109667e+01   6.246240e+00
   4.221595e-01  -5.198087e+01
   3.766131e+01  -3.860574e+01
   6.561076e+01  -3.603825e+01
   9.234366e+01   4.188724e+01
   4.598378e+01   4.560284e+01
  -7.334980e+00   4.678203e+01
  -1.062170e+02  -1.642494e+01
  -4.107541e+01  -2.661294e+01
   2.239599e+00  -2.503810e+01
   3.194971e+01  -3.232123e+01
   4.150467e+00   2.379297e+01
  -1.861930e+01   3.892247e+01
   2.381967e+01   1.517961e+01
   1.571986e+01   1.040941e+01
   8.349838e+01  -6.272366e+00
   2.450553e+01   7.537381e+01
   9.566735e+00   8.606245e+01
  -1.338324e+02   1.079380e+02
  -1.359238e+02  -1.541816e+01
  -4.095871e+01  -7.069900e+01
  -1.682605e+01  -7.812613e+01
   4.029526e+01  -5.056011e+01
   1.046698e+01   2.020981e+01
  -6.382773e+00  -4.715614e+01
  -1.052598e+01  -2.022593e+01
  -1.233625e+01  -1.061264e+01
   7.678449e+01   3.662492e+01
   3.164080e+01   7.861205e+01
  -9.352708e+00   3.181377e+01
  -1.043225e+01   4.600347e+00
  -7.292602e+01  -6.242094e+01
  -1.006032e+01  -6.993020e+01
   3.281230e+01  -2.799424e+01
   7.529676e+01   4.135369e+01
   1.621409e+00   9.033353e+01
  -6.054350e+01   2.806089e+01
  -6.093857e+01  -6.461175e+00
  -5.217929e+01  -1.484383e+01
   9.105996e+00  -2.084788e+01
   8.425610e+00  -9.794842e+00
  -2.689587e+01   3.927987e+01
  -4.055930e+01   1.371296e+01
   1.227887e+01  -9.568784e+00
   1.434532e+01  -6.948023e+01
   5.295743e+01  -5.119078e+01
   3.970926e+01   6.274231e+01
  -5.918127e+01   3.807129e+01
  -3.690076e+01   6.051121e+01
  -3.834081e+01   1.654170e+01
  -1.195305e+01   7.510782e+00
   1.635246e+01   1.408643e+00
   1.853596e+01  -4.468725e+00
   2.813188e+01  -1.363631e+01
  -2.843046e+01   2.651745e+01
   3.463879e+01  -2.984844e+01
  -1.157866e+01  -8.368768e+00
   8.698253e+00   1.470530e+01
   2.930408e+00   9.550186e+00
  -2.512398e+00  -8.783913e+00
   1.735761e+00   1.696938e+01
  -3.444483e+01  -3.094104e+01
  -5.669540e+00  -1.611514e+01
   1.028347e+01  -5.766535e+00
  -2.343474e+01   3.931155e+01
  -4.754200e+01   3.311843e+01
  -6.577165e+01  -2.087777e+01
  -3.036228e+01  -1.270792e+01
   6.078318e+00  -3.680607e+01
   5.456532e+01   2.165759e+01
   2.153148e+01   6.251537e+00
   2.507352e+01   3.754516e+01
  -4.162681e+01  -2.040513e+01
  -3.285060e+01  -1.346810e+01
   6.821686e+01  -1.940311e+01
   1.575516e+01   1.285832e+01
   2.778586e+01   1.145303e+01
  -6.323253e+00   3.862744e+01
