
 $NMID
 id='ANONYMOUS ', fmtdat='(2E16.6)'
 volume=1.0
 tramp=1.0
 $END
   1.731725e+03  -2.045304e+02
   1.223913e+03   1.223752e+03
   4.379586e+01   1.372324e+03
  -5.873952e+02   8.514210e+02
  -5.016346e+02   3.421313e+02
  -2.696108e+02  -1.469736e+02
   2.305905e+02   4.430262e+01
   4.062688e+01   2.683127e+02
  -1.108404e+02   4.336553e+02
  -3.417860e+02   2.359269e+02
  -3.056376e+02  -1.967062e+02
   1.105118e+01  -2.757176e+02
   2.019221e+02  -4.401312e+01
   2.463877e+02   2.389147e+02
   2.215854e+01   3.432985e+02
  -3.811558e+02   5.831571e+01
  -9.421450e+01  -2.130725e+02
   5.906487e+01  -3.050313e+02
   2.134775e+02  -3.764312e+02
   1.452129e+02  -1.577487e+01
   2.097977e+02   1.865610e+02
  -1.460794e+02   1.879133e+02
  -3.264502e+00   6.783412e+01
   1.346745e+02   8.893902e+01
   1.577702e+02   2.622865e+02
  -1.071783e+02   3.011676e+02
  -3.732071e+02   1.060733e+02
  -3.030298e+02  -2.577383e+02
  -8.443633e+01  -1.395026e+02
   1.305437e+02  -7.103870e+01
   2.215001e+02   1.074040e+02
   4.853344e+01   2.114764e+02
  -1.751783e+02   2.182065e+02
  -1.966991e+02   4.183753e+01
  -1.959765e+02  -4.646282e+01
  -7.605578e+01  -1.695862e+02
   1.081328e+01  -2.790963e+01
  -9.334934e+01   1.678689e+01
  -1.518769e+02   7.298257e+01
  -7.350751e+01  -9.094367e+01
  -2.098504e+01  -3.034167e+02
   1.028110e+02  -2.889281e+02
   9.198470e+01  -2.255178e+01
   4.851934e+01   1.779421e+02
  -1.120446e+02   8.718634e+01
  -6.262929e+01  -1.331406e+02
   1.011839e+02  -2.866287e+02
   2.986351e+02  -8.612290e+01
   2.819140e+02   2.143737e+02
   1.051437e+02   3.062386e+02
  -1.789952e+02   1.563516e+02
  -3.253467e+02  -4.247712e+01
  -2.438044e+02  -1.628682e+02
   1.013989e+01  -1.198095e+02
   1.878836e+02  -6.803206e+01
   1.642488e+02  -1.481350e+01
   2.452852e+01  -1.695189e+00
  -4.053350e+01  -9.470006e+00
   2.860761e+01  -5.371171e+01
   9.244933e+01   1.182512e+01
   1.125199e+02   1.352110e+02
  -7.651303e+01   1.765894e+02
  -1.964489e+02   6.184871e+01
  -2.315776e+02  -9.798753e+01
   2.852167e+01  -2.604572e+02
   2.403929e+02  -2.666690e+02
   2.431246e+02  -9.113324e+01
   1.277801e+02   1.311636e+02
   3.409026e+01   2.469765e+02
   4.611418e+01   2.094145e+02
   2.551068e+01   1.300055e+02
   2.804140e+00   7.782362e+01
  -1.323293e+02   5.184790e+01
  -2.226491e+02   6.473972e+00
  -1.694435e+02  -1.047717e+02
  -1.581804e+01  -1.605699e+02
   9.349517e+01  -1.169642e+02
   1.270508e+02   5.435720e+01
   8.811729e+01   1.906774e+02
  -4.473298e+01   1.564585e+02
  -1.582820e+02   3.672399e+00
  -2.024150e+02  -1.093971e+02
  -7.025258e+01  -1.881096e+02
   2.388545e+01  -1.521867e+02
   6.939842e+01  -1.162493e+02
   5.260065e+01  -3.596930e+01
   1.416662e+02  -5.643152e+01
   2.014853e+02  -4.819336e+01
   2.623097e+02   6.520533e+01
   2.275956e+02   2.306195e+02
  -1.377615e+01   3.205828e+02
  -3.016246e+02   2.548532e+02
  -3.322110e+02   9.983100e+01
  -1.655281e+02  -8.709761e+01
  -2.657694e+01  -2.181318e+02
   8.976840e+01  -1.081724e+02
   2.124956e+01   2.889053e+01
  -5.604593e+01   2.884375e+01
  -8.421965e+01  -1.662552e+01
  -1.640024e+01  -1.324164e+02
   4.946024e+01  -6.381407e+01
   2.217698e+01   2.441565e+01
   7.262488e-01   9.855536e+01
  -7.359341e+01  -5.454369e+00
  -3.616836e+01  -1.595981e+02
   2.079528e+01  -2.321286e+02
   1.916554e+02  -1.519561e+02
   2.613851e+02   7.692445e+01
   2.089494e+02   2.027199e+02
   3.421925e+01   2.382033e+02
  -1.417757e+02   1.441661e+02
  -1.208274e+02   4.031272e+01
  -4.968116e+01  -2.570050e+01
   9.098856e+00   6.271242e+01
  -1.456186e+01   6.251660e+01
  -6.258511e+01   8.400130e+00
  -1.240804e+02  -4.257961e+01
  -2.057540e+01  -9.104417e+01
   7.060271e+01  -1.467836e+01
   2.085160e+01   6.442116e+01
  -7.467801e+01   5.885940e+01
  -1.862715e+02  -1.331004e+00
  -1.589526e+02  -1.248205e+02
  -2.484087e+01  -1.890194e+02
   1.450289e+02  -1.575642e+02
   1.818538e+02  -3.195233e+01
   9.185085e+01  -1.259788e+00
  -3.286540e+01   2.923715e+01
  -1.759191e+01   2.761653e+00
   6.092979e+01  -3.963947e+01
   1.390023e+02   8.720129e+00
   7.644601e+01   7.930337e+01
  -1.398431e+00   1.251075e+02
  -7.425459e+01   1.007800e+02
  -9.345759e+01   8.649444e+00
  -3.539131e+00  -2.616130e+01
   2.895997e+01   1.913260e+01
   1.785860e+01   6.492388e+01
  -5.971087e+01   8.969615e+01
  -1.260941e+02   1.426469e+01
  -1.213153e+02  -1.381205e+02
  -4.108634e+00  -1.587946e+02
   8.661108e+01  -1.047664e+02
   7.611652e+01   8.002410e+00
   2.103743e+00   8.187019e+01
  -4.845079e+01   6.790146e+01
  -2.501629e+01   4.664182e+01
   6.349040e+01  -5.728886e+01
   2.097831e+01  -6.686444e+01
   8.468191e-01   8.703842e+00
  -6.718454e+01   1.190880e+01
  -5.454085e+01  -5.137490e+01
  -1.142251e+00  -9.940054e+01
   8.944716e+01  -8.156334e+01
   1.064328e+02   2.220256e+01
   1.451610e+02   7.687917e+01
  -2.494166e+00   2.252779e+02
  -5.784802e+01   1.310506e+02
  -7.822481e+01   1.772948e+01
  -7.911333e+01  -9.017782e+01
  -6.617565e+01  -3.419400e+01
   2.380091e+00  -1.597146e+01
  -1.422860e+01  -1.776040e+01
  -1.829383e+00  -1.083834e+01
   6.865076e+01  -6.588391e+01
   4.353298e+01  -3.063595e+01
   1.023923e+02   5.086985e+01
  -2.260737e+00   1.054620e+02
  -6.169857e+01   7.980230e+01
  -1.757865e+02  -4.388246e+01
  -5.426430e+01  -1.624192e+02
   7.942550e+01  -1.431613e+02
   2.092474e+02  -7.240373e+01
   1.957465e+02   7.413057e+01
   8.386923e+01   8.455857e+01
  -4.665878e+01   7.540006e+01
  -4.945672e+01   5.728932e+01
  -5.208383e+01   7.361269e+01
  -1.633647e+01   1.006167e+02
  -7.554567e+01   4.748570e+01
  -1.008240e+02  -5.956404e+01
  -9.483534e+01  -1.287384e+02
  -4.756646e+01  -1.498931e+02
   8.279214e+01  -1.300919e+02
   9.907464e+01   4.063997e+00
   8.009254e+01   6.400753e+01
   2.770906e+01   1.040714e+02
  -4.044989e+01   6.410221e+01
  -2.395183e+01  -2.521802e+01
   6.419717e-01  -5.577039e+01
   2.747612e+01  -3.446234e+01
  -1.142869e+01   2.376515e+01
  -3.734768e+01   1.549072e+01
   6.646288e+00  -2.633720e+00
   3.992181e+01  -8.632812e+00
   1.197955e+02   1.517981e+01
   1.003634e+02   3.493681e+01
  -1.706861e+00   6.847080e+01
  -1.023915e+02   4.051641e+01
  -1.064452e+02   2.018238e+01
  -6.591153e+01  -6.641114e+01
   4.568127e+01  -3.569961e+01
   8.819820e+01   7.265784e+00
   6.224961e+01   4.004739e+01
  -4.567574e+01   5.403074e+01
  -3.863690e+01   3.346973e+01
  -3.053109e+01  -5.152997e+01
  -5.116219e+00  -5.932786e+01
  -3.867661e+01  -1.547938e+01
  -2.560999e+01   1.854131e+01
  -5.661677e+01  -5.466953e+01
   3.063025e+01  -1.003800e+02
   6.758238e+01  -1.003474e+02
   1.590920e+02  -6.869019e+01
   1.072432e+02   5.307317e+01
  -1.009223e+01   1.282239e+02
  -4.916911e+01   4.163746e+01
  -7.279138e+01  -1.249581e+01
   2.296999e+01   6.584637e+00
   6.790356e+01   4.358868e+01
   8.700089e+01   5.067105e+01
  -7.838730e+01   1.045900e+02
  -1.116868e+02   5.475929e+01
  -1.413799e+02  -2.620999e+01
  -6.203988e+01  -4.768771e+00
  -5.589473e+00  -1.284367e+01
  -2.046675e+01   2.602499e+01
  -3.705770e+00  -3.241197e+01
  -3.433331e+01  -3.377823e+01
  -4.676183e+01  -6.356727e+01
  -2.480705e-01  -1.213262e+02
   7.675984e+01  -7.200711e+01
   8.255595e+01   7.944880e+01
   8.009509e+01   1.394802e+02
  -3.449004e+01   3.846262e+01
  -7.720343e+01  -1.276683e+01
  -3.331861e+01  -9.797322e+01
   2.160691e+01  -6.620781e+01
   1.227292e+01  -1.557275e+00
   7.106370e+01   6.718902e+01
  -4.171841e+01   6.225073e+00
  -1.512622e+01   3.230818e+01
   2.756404e+01   5.910879e+01
   3.879627e+01   7.241804e+01
   3.155748e+01   7.591466e+01
  -2.755255e+01   1.573758e+01
  -9.001146e+01  -4.313575e+01
  -1.304139e+02  -6.315148e+01
  -2.059175e+01  -2.356331e+00
   8.512200e+01  -7.960596e+00
   4.244934e+01  -1.829135e+01
   1.829922e+01   2.337639e+01
   1.330695e-01   4.085472e+01
   3.634969e+01   6.295254e+00
   4.186640e+00   2.902945e+01
   1.756415e+00   7.531566e+00
  -3.977823e+01  -1.140992e+01
  -8.919882e+01  -1.693413e+01
   1.006938e+01  -7.997373e+01
   6.627147e+01  -1.147166e+02
   1.398486e+02  -1.582364e+01
   1.010557e+02   5.977729e+01
   4.698317e+01   1.569360e+02
  -3.570710e+01   1.205164e+02
  -8.784272e+01   6.484024e+01
  -3.846278e+01   1.998591e+00
  -1.812374e+01  -1.398709e+01
  -3.807155e+01   5.472384e-01
  -5.182433e+00  -2.066206e+00
  -1.175692e+01  -4.190765e+01
   8.025238e+00  -8.379281e+01
   2.181513e+01  -6.458403e+01
   8.863935e+01   2.261055e+01
   8.499418e+01   9.253579e+01
   2.693479e+01   9.653333e+01
  -3.960058e+01   1.829458e+01
  -5.664092e+01  -6.564380e+01
  -3.478994e+01  -8.924063e+01
   6.855607e+01  -4.616421e+01
   8.693155e+01  -6.193183e+00
  -7.581814e-01   3.734433e+01
  -4.395904e+01   9.421923e+01
   1.488315e+00   2.079365e+01
   1.148993e+01  -4.445885e+01
   4.657403e+01  -4.069438e+01
   2.274369e+01   2.560012e+01
  -3.764046e+01   6.074180e+01
  -3.354070e+01   8.091037e+01
  -1.473924e+01  -8.371677e+00
   5.050268e+00  -5.237850e+01
   1.950037e+01  -9.830590e+01
   1.369036e+01   4.113420e+01
  -1.595273e+01   3.339726e+01
  -5.357520e+00   6.191835e+01
  -2.228923e+01  -1.555687e+01
   7.139090e+00  -5.822220e+01
   1.914049e+01  -3.632195e+01
   1.267166e+01   5.835521e-01
  -3.662449e+00  -1.190997e+01
  -2.099209e+01  -3.086175e+01
  -5.007809e+00   4.216711e+01
  -1.399535e+00  -2.907189e+01
   2.569622e+01   3.092790e+01
   2.974694e+01  -4.822183e+01
  -3.203014e+01  -4.298655e+01
  -5.812376e+01  -1.092279e+01
  -4.687644e+01   1.723438e+01
   5.202998e+01   2.665311e+01
   3.690876e+01   3.226267e+01
   3.606880e+01   4.440864e+01
  -5.267345e+01  -1.785648e+01
  -1.028394e+02   2.214429e+01
  -6.344837e+01  -4.461123e+01
   2.487041e+01  -2.074410e+01
   8.059460e+01  -1.055860e+01
   2.303315e+01  -4.668278e+01
  -2.459762e+01   7.094734e+00
  -9.501324e+00  -5.331845e+01
   1.491756e+01  -2.915000e+01
   6.577207e+00  -3.209596e+00
