
 $NMID
 id='ANONYMOUS ', fmtdat='(2E16.6)'
 volume=1.0
 tramp=1.0
 $END
   1.568388e+03  -3.638639e+02
   1.250306e+03   9.036682e+02
  -3.410653e+01   1.140524e+03
  -7.205037e+02   6.933855e+02
  -5.599019e+02   1.355574e+02
  -7.436751e+01  -1.974009e+02
   1.692765e+02   2.805076e+01
   9.646365e+01   3.227247e+02
  -2.950154e+02   3.355715e+02
  -4.375800e+02   3.928778e+01
  -2.919545e+02  -1.503624e+02
  -4.474314e+01  -3.604435e+02
   1.545753e+02  -1.372589e+02
   7.891905e+01   1.912854e+02
  -4.986394e+01   2.660742e+02
  -2.254800e+02   1.892103e+02
  -2.577431e+02  -3.902233e+02
   2.360091e+02  -3.365683e+02
   3.790773e+02  -1.300833e+02
   3.688874e+02   8.521999e+01
  -5.393183e+01   3.660196e+02
  -9.817499e+01   4.703233e+01
   1.101257e+02   1.173741e+02
   2.827702e+02   1.074651e+02
   1.334912e+02   2.089717e+02
  -8.746354e+01   2.639371e+02
  -4.138554e+02  -6.815986e+00
  -2.147487e+02  -1.844404e+02
   3.594747e+00  -2.552368e+02
   2.756953e+02  -6.392823e+01
   3.220813e+02   3.927344e+01
   1.442733e+02   1.546408e+02
  -1.309249e+02   2.177871e+02
  -2.634420e+02   7.970071e+01
  -9.757931e+01  -1.367961e+02
   1.037063e+01  -1.573014e+02
   1.127303e+02  -1.030495e+02
  -7.048548e+00   7.537630e+01
  -5.143809e+01   6.150186e+01
  -5.396182e+01  -1.006222e+02
   8.455107e+01  -2.683832e+02
   1.874035e+02  -2.301420e+02
   1.618638e+02   7.978541e+01
  -2.448007e+01   1.707072e+02
  -8.754255e+01   5.117031e+01
  -1.200164e+02  -1.872571e+02
   9.447040e+01  -2.408319e+02
   2.925693e+02   1.288185e+01
   2.985497e+02   2.485202e+02
   1.226164e+02   2.845267e+02
  -1.947256e+02   1.470219e+02
  -3.431294e+02  -4.878831e+01
  -2.576994e+02  -1.647985e+02
   2.284069e+01  -1.113180e+02
   2.054763e+02  -4.632410e+01
   1.541193e+02  -4.015533e+00
   6.217963e+01   7.051786e+00
  -1.117376e+01   5.981000e+00
   8.316863e+01   1.336409e+01
   1.462853e+02   7.276250e+01
   6.689335e+01   1.382678e+02
  -9.453911e+01   1.426346e+02
  -2.280793e+02   7.601357e+01
  -1.776380e+02  -2.975352e+01
  -2.039054e+01  -1.577985e+02
   1.841203e+02  -2.104981e+02
   2.304794e+02  -6.700750e+01
   1.568405e+02   9.075246e+01
  -4.477451e-01   1.994971e+02
  -1.196447e+02   1.796752e+02
  -4.062844e+00   9.414547e+01
   2.383393e+01   4.005197e+01
  -6.321635e+01   4.609420e+01
  -1.595062e+02   5.067733e+01
  -1.778232e+02  -8.671763e+01
  -5.045475e+01  -1.628093e+02
   5.521084e+01  -1.163177e+02
   1.098181e+02   5.957348e+01
   3.487408e+01   1.593800e+02
  -8.641100e+01   1.176341e+02
  -1.333482e+02  -2.378167e+00
  -1.304464e+02  -1.039550e+02
  -9.784163e+01  -1.699890e+02
  -8.531926e+00  -1.240869e+02
   7.313294e+01  -9.744992e+01
   7.024756e+01  -7.119702e+01
   9.811592e+01   7.881098e+00
   1.545418e+02  -5.030289e+01
   1.926850e+02   7.637743e+01
   1.548933e+02   1.755390e+02
  -5.951910e+01   2.534729e+02
  -2.136109e+02   2.282766e+02
  -3.149241e+02   2.833998e+01
  -1.731716e+02  -1.005020e+02
   1.388813e+01  -1.816451e+02
   2.963525e+01  -1.057980e+02
  -1.462681e+01  -3.951492e+00
  -4.060987e+01   2.401880e+01
  -6.147560e+01  -1.276341e+01
   2.082988e+01  -1.127663e+02
   8.427338e+01  -2.984024e+01
   2.531692e+01   8.477686e+01
  -7.018724e+01   1.052162e+02
  -1.271779e+02  -9.719470e+00
  -8.702224e+01  -1.469979e+02
  -1.274745e+01  -2.272611e+02
   1.574870e+02  -1.053358e+02
   2.327405e+02   5.753893e+01
   1.503103e+02   1.497419e+02
   3.083158e+01   1.591096e+02
  -9.591903e+01   1.423808e+02
  -9.252908e+01   9.846943e+00
  -5.700550e+01   3.209905e+01
   2.378883e+01   8.382022e+01
  -3.496794e+01   9.770008e+01
  -4.791469e+01   6.816289e+01
  -8.151515e+01  -3.654383e+01
  -1.691378e+01  -7.269248e+01
   4.787943e+01   4.206065e+00
   2.143547e+01   8.500087e+01
  -4.485345e+01   9.190979e+01
  -1.918600e+02  -2.328433e+01
  -1.452837e+02  -9.710944e+01
  -2.839551e+01  -1.033898e+02
   1.725208e+02  -1.206720e+02
   1.327854e+02  -4.733984e+01
   2.728470e+01  -3.805271e+00
  -3.639851e+01   2.178367e+01
  -3.609835e+01  -3.630057e+00
   2.262100e+01  -5.580247e+01
   1.460363e+02   1.055953e+01
   9.694648e+01   4.696870e+01
  -1.037416e+01   1.135052e+02
  -5.383926e+01   6.691075e+01
  -8.953447e+01  -2.772201e+01
  -5.659979e+01  -8.158273e+01
   3.780219e+01  -9.573010e+00
   1.524278e+01   9.454121e+01
  -3.125144e+01   6.428527e+01
  -1.464606e+02   9.258372e-02
  -1.441350e+02  -1.163562e+02
  -2.286930e+01  -1.836747e+02
   1.078210e+02  -8.837051e+01
   1.248242e+02   3.055690e+01
   5.350917e+01   1.145948e+01
  -7.439395e+01   5.355628e+01
  -3.401394e+01   4.114727e+01
   7.579672e+00  -3.826278e+00
  -7.553207e+00  -1.921653e+01
  -1.239969e+01   1.555542e+01
  -2.545100e+01  -1.161533e+01
  -7.008527e+01  -8.531913e+01
  -3.457071e+01  -1.121239e+02
   9.091985e+01  -9.670422e+01
   1.255144e+02  -3.408467e+01
   8.056269e+01   9.747079e+01
  -7.033660e+00   1.623862e+02
  -7.964472e+01   9.014953e+01
  -1.176265e+02  -3.273706e+01
  -5.511459e+01  -6.330708e+01
   2.304313e+01  -2.307412e+01
   1.524085e+01   2.539194e+01
  -2.390042e+01  -8.995649e-01
  -1.015294e+01   7.209372e+00
   3.664197e+01  -5.173450e+01
   1.155402e+02  -1.542620e+01
   4.430408e+01   1.701234e+01
   1.561155e+01   9.531261e+01
  -1.172850e+02   6.332147e+01
  -1.646860e+02  -1.925911e+01
  -3.607396e+01  -1.338730e+02
   9.173982e+01  -1.118897e+02
   1.591083e+02  -4.622673e+01
   1.756029e+02   6.954309e+01
   2.543879e+01   1.184872e+02
  -4.638832e+01   9.782344e+01
  -8.735052e+01   9.347928e+01
  -1.051422e+02   5.821874e+01
  -6.842133e+01   6.431302e+01
  -5.535274e+01   2.727801e+01
  -8.295533e+01  -4.839301e+01
  -5.796175e+01  -9.732923e+01
  -5.583948e+01  -1.721642e+02
   9.712930e+01  -1.384797e+02
   8.742387e+01   1.005390e+00
   6.465731e+01   9.772533e+01
  -8.309013e+00   1.053702e+02
  -5.508934e+01   5.382719e+01
  -7.721464e+01  -1.827656e+01
   2.648925e+01  -1.304748e+01
   5.460543e+00  -1.192757e+01
   1.530031e+01  -4.311154e+01
  -6.291970e+01  -7.827360e+00
  -4.888857e+01   1.383061e+01
   4.983565e+01   3.520989e+01
   1.044588e+02   3.558453e+00
   9.496754e+01   6.788318e+01
  -1.354493e+01   5.226819e+01
  -8.667006e+01   1.456372e+01
  -1.215727e+02   4.368978e-01
  -2.661443e+01   6.946850e-01
   2.331150e+01  -3.568990e+01
   3.383680e+01   1.757045e+01
   4.452495e+01   1.458361e+01
  -3.288546e+01   7.711774e+01
  -3.283575e+01   2.765857e+00
  -4.915409e+01  -1.493686e+01
  -6.080732e+01  -1.557194e+01
  -3.431231e+01   2.185508e+01
  -2.415599e+01   1.291557e+01
  -3.945622e+01  -5.211914e+01
   1.899947e+01  -1.143761e+02
   1.040271e+02  -9.688880e+01
   1.187456e+02  -3.969729e+01
   9.890516e+01   4.971081e+01
  -1.317035e+01   4.966197e+01
  -3.916887e+01   4.585336e+01
  -3.420965e+01  -2.414148e+01
   9.683060e+00  -2.008311e+01
   7.890988e+01   1.108319e+00
   7.419818e+01   4.275505e+01
  -1.994891e+01   6.190072e+01
  -1.247506e+02   5.895267e+01
  -9.921601e+01   1.882426e+01
   1.438978e+01  -3.570255e+01
   3.541858e+01  -8.199768e+00
  -1.445633e+00  -2.488325e+01
  -3.908053e+01   3.293484e+01
  -6.385572e+01  -5.729399e+01
   1.531633e+01  -6.812807e+01
   6.173982e+01  -1.269668e+02
   4.860117e+01  -8.730711e+01
   1.032259e+02   7.584367e+01
  -1.063323e+01   1.439542e+02
  -4.549539e+01   9.117780e+01
  -9.594844e+01   4.015996e+01
  -7.923513e+01  -7.249413e+01
   1.202343e+01  -4.573961e+01
  -1.737390e+01  -4.970311e+01
  -5.224344e+00  -2.770175e+00
   6.202931e+01   3.560832e+00
   3.807673e+01  -2.475308e+01
   6.812591e+01   1.419210e+01
   1.118249e+01   5.495297e+01
   6.712269e+00   5.926676e+01
   8.764765e+00   6.035053e+01
  -7.709357e+01   3.763191e+00
  -9.489077e+01  -3.455127e+01
  -2.120809e+01  -3.804489e+01
   5.095590e+01  -1.985120e+01
   2.654894e+01  -5.149477e+01
   3.186482e+01  -2.151547e+00
  -5.271420e-01  -1.089001e+01
   2.055280e+01   1.005084e+01
   3.146502e+01   4.676757e+01
  -3.125404e+01  -1.497059e+01
  -3.186160e+01   1.881845e+01
  -4.581562e+01  -1.502591e+01
  -3.068265e+01  -7.082497e+01
   5.454837e+01  -8.347047e+01
   1.176166e+02  -2.819589e+01
   1.085897e+02   3.762774e+01
   1.405712e+01   1.119050e+02
  -7.700299e+01   1.167356e+02
  -1.013839e+02   6.409858e+01
  -4.193357e+01   8.515529e+00
  -2.978589e+01  -1.932511e+01
  -1.542096e-01  -4.391288e+01
  -2.738533e+01  -3.660121e+01
  -2.345528e+01  -4.571835e+01
  -4.901159e+01  -8.313380e+01
   7.123844e+00  -6.092636e+01
   3.891349e+01   4.106848e+01
   4.171682e+01   4.863741e+01
   3.926727e+01  -8.973009e+00
  -4.641338e+01   9.934044e+00
  -2.984150e+01  -2.757427e+01
  -1.347669e+01  -6.621154e+01
   6.835868e+01  -2.457488e+01
   4.059404e+01  -4.266803e+01
   2.290342e+01   3.199617e+01
  -2.141805e+01   3.534027e+01
  -2.414071e+01  -9.096438e-01
   4.985669e+00   3.551066e+01
   1.477436e+01   1.957448e+01
   2.315756e+01   1.154885e+01
  -8.202101e+01   4.798346e+01
  -8.825590e+01   3.699271e+01
  -4.088751e+01   1.084389e+01
   1.174619e+01  -8.429078e+01
   7.488087e+01  -9.948393e+01
   2.205932e+01  -5.786088e+01
   5.530449e+00   5.802923e+01
  -5.248521e+01   8.186302e+01
  -4.755289e+01  -2.107120e-01
  -1.197680e+01  -6.193189e+01
  -9.913373e+00  -3.906614e+01
   4.404199e+01   7.564077e+00
   6.961328e+01   1.878465e+01
   7.717465e+01   8.182918e+00
  -6.874913e+00  -2.795577e+01
  -3.755340e+01  -2.273439e+01
  -2.636773e+01  -1.107406e+01
   3.304280e+01   2.346533e+01
   4.053073e+00   7.936245e+00
  -4.961625e+01   6.551344e+00
  -1.700006e+01  -2.483906e+01
   2.352594e+01  -3.657682e+01
   2.316650e+01   2.519918e+01
  -2.016495e+01   6.530049e+01
  -3.240164e+01   3.281508e+01
  -1.113956e+01  -2.551112e+01
  -1.436395e+01   1.533151e+01
   1.560252e+01  -3.038078e+01
   5.568071e+01   6.401390e+00
   4.366137e+01   2.496693e+00
  -2.567857e+01  -1.665070e+01
   8.990673e+00  -1.538770e+01
   1.545003e+01  -2.113882e+01
   4.421474e+01  -2.110485e+01
