
 $NMID
 id='ANONYMOUS ', fmtdat='(2E16.6)'
 volume=1.0
 tramp=1.0
 $END
   2.405305e+03  -1.737363e+01
   1.576953e+03   1.261823e+03
   2.561668e+02   1.678097e+03
  -6.402233e+02   9.994210e+02
  -6.430132e+02   4.707159e+02
  -2.640819e+02  -1.366561e+02
   1.697823e+02   1.864934e+01
   7.672636e+01   3.001966e+02
  -4.768939e+02   5.288077e+02
  -5.651652e+02   6.093574e+01
  -2.533031e+02  -2.418983e+02
   6.953585e+01  -4.361083e+02
   1.174262e+02  -1.779773e+02
   1.185650e+02   3.139339e+02
  -2.933782e+01   2.638082e+02
  -3.951159e+02   4.088757e+01
  -1.773246e+02  -2.866537e+02
   2.380025e+02  -6.301903e+02
   3.884931e+02  -3.538288e+02
   3.091808e+02  -1.815137e+01
   3.236299e+01   4.072655e+02
  -2.325979e+01   2.867619e+02
  -1.456513e+01   1.080956e+02
   2.614957e+02   4.748735e+01
   2.275835e+02   3.533840e+02
  -4.907469e+01   3.372138e+02
  -2.636778e+02   1.370067e+02
  -3.102604e+02  -2.340761e+02
  -4.203597e+01  -4.106256e+02
   2.425092e+02  -1.562271e+02
   3.920815e+02   2.221338e+02
   1.368250e+02   1.924588e+02
  -1.869967e+02   2.286413e+02
  -2.844125e+02  -4.472649e+01
  -1.604664e+02  -2.036089e+02
   7.305135e+01  -1.822313e+02
   9.256788e+01  -7.543161e+01
  -2.758318e+01   7.993234e+01
  -1.835665e+02   6.055893e+01
  -1.235804e+02  -2.047501e+02
   8.657169e+01  -3.510148e+02
   1.671057e+02  -3.397859e+02
   1.841565e+02   2.629324e+01
   4.072173e+01   1.975164e+02
  -4.787314e+01   1.049966e+02
  -5.685097e+01  -2.060426e+02
   1.074561e+02  -3.339559e+02
   2.781893e+02  -2.982163e+01
   3.203667e+02   3.028809e+02
   1.127055e+02   3.686408e+02
  -2.123563e+02   1.853660e+02
  -3.727126e+02  -8.361620e+01
  -2.414577e+02  -1.775449e+02
   5.431819e+01  -1.510812e+02
   1.911337e+02  -1.027423e+02
   1.347462e+02  -3.622785e+01
   2.292777e+01   1.948441e+00
  -6.721014e+01   2.970206e+00
   7.841995e+01  -2.176738e+01
   1.672891e+02   2.242323e+01
   8.157865e+01   1.092190e+02
  -1.181799e+02   1.752005e+02
  -3.080120e+02   1.070825e+02
  -2.105547e+02  -9.314227e+01
   5.396502e+01  -3.038467e+02
   2.500325e+02  -2.685729e+02
   2.733770e+02  -8.630306e+01
   1.516353e+02   1.219674e+02
   2.687648e+01   2.295827e+02
   2.049555e+01   1.869010e+02
   5.629618e+00   1.414097e+02
  -1.517045e+01   1.473475e+02
  -1.356883e+02   1.179485e+02
  -1.727318e+02   1.579524e+01
  -1.980571e+02  -1.489451e+02
  -4.646870e+01  -2.570808e+02
   8.767578e+01  -1.699632e+02
   1.588763e+02   6.284654e+01
   8.846717e+01   2.066791e+02
   3.806318e+00   2.370932e+02
  -1.800276e+02   4.763506e+01
  -2.074347e+02  -1.644533e+02
  -1.122303e+02  -2.748750e+02
  -2.107398e+01  -1.592709e+02
   9.010843e+01  -7.808579e+01
   1.235066e+02  -3.344813e+01
   1.350322e+02  -6.403839e+01
   2.479225e+02  -7.620765e+01
   3.162389e+02   7.511657e+01
   2.374132e+02   2.488310e+02
  -5.689759e+00   3.161311e+02
  -3.287462e+02   2.557433e+02
  -3.677036e+02   1.116256e+02
  -2.598318e+02  -1.175924e+02
  -4.696113e+00  -1.469927e+02
   6.872789e+01  -1.362492e+02
   8.944325e+00  -4.301490e+01
  -6.455902e+01  -7.908783e+00
  -1.506978e+02  -6.266015e+01
   2.160896e+00  -1.158645e+02
   6.196969e+01  -9.994113e+00
   6.988346e+01   4.618116e+01
  -1.214045e+01   1.174939e+02
  -1.164598e+02  -2.799177e+01
  -1.181370e+02  -1.655359e+02
   3.589384e+01  -2.839977e+02
   1.915679e+02  -1.607064e+02
   2.689550e+02   6.978503e+01
   2.005251e+02   2.735076e+02
   2.364712e+01   2.420246e+02
  -9.819008e+01   9.758748e+01
  -1.051292e+02   2.479889e+00
  -4.456779e+01   1.642039e+01
   2.057226e+01   5.160115e+01
  -5.983527e+00   7.878804e+01
  -7.737240e+01   4.683489e+01
  -9.830797e+01  -5.185747e+01
  -1.057778e+00  -6.681581e+01
   6.668650e+01  -1.185700e+01
   1.609470e+01   6.399028e+01
  -1.066474e+02   7.425980e+01
  -2.517031e+02  -1.628991e+01
  -2.259761e+02  -1.444977e+02
  -1.205489e+01  -1.984587e+02
   1.739563e+02  -1.939082e+02
   1.764910e+02  -7.384844e+01
   1.347920e+02   3.770358e+01
  -7.958429e+01   7.522660e+01
  -5.429129e+01   1.485976e+01
   9.781924e+00  -7.589142e+01
   1.674990e+02  -6.192224e+01
   1.513766e+02   4.696422e+01
   5.102263e+01   1.217630e+02
  -6.709331e+01   8.920860e+01
  -9.529931e+01   2.088662e+01
  -3.487974e+01  -1.940572e+01
   4.561603e+01   2.873594e+01
   2.311759e+01   1.327855e+02
  -4.872816e+01   1.281818e+02
  -1.741903e+02   2.310659e+01
  -1.325519e+02  -1.051150e+02
  -3.890394e+00  -1.656446e+02
   1.508966e+02  -1.310346e+02
   1.649784e+02   1.509375e+01
   5.159288e+01   7.305276e+01
   1.121033e+00   1.083758e+02
  -7.745587e+01   4.900836e+01
  -2.661770e+01  -2.585289e+01
   1.311243e+01  -5.278521e+01
   1.869432e+01  -2.429193e+01
  -7.170766e+01   2.573332e+01
  -6.459863e+01  -6.085617e+01
  -9.764552e+00  -1.349025e+02
   1.243866e+02  -1.362709e+02
   1.688387e+02  -3.898558e+01
   2.029097e+02   1.473299e+02
   5.162780e+01   1.873276e+02
  -6.787065e+01   1.481505e+02
  -1.406680e+02   4.364640e+01
  -6.796310e+01  -5.320369e+01
  -2.597685e+01  -4.969588e+01
  -3.880242e+01   5.173943e+00
  -6.230230e+01   2.055940e+01
  -2.327353e+01  -9.933646e+01
   3.505296e+01  -9.805485e+01
   6.966361e+01  -1.073059e+02
   8.914968e+01   1.758654e+01
  -1.513901e+01   1.091512e+02
  -1.362868e+02   7.487804e+01
  -1.713086e+02  -3.823364e+01
  -4.930093e+01  -1.571946e+02
   9.099242e+01  -1.850510e+02
   2.063824e+02  -4.467227e+01
   1.636865e+02   7.113993e+01
   8.608763e+01   9.010182e+01
  -2.797059e+01   9.039492e+01
  -3.403692e+01   8.218033e+01
  -3.051387e+01   4.253738e+01
  -1.272628e+01   6.100166e+01
  -7.279191e+01   7.876147e+01
  -7.298725e+01   3.433993e+01
  -9.298292e+01  -1.043773e+02
  -5.476396e+01  -1.809566e+02
   4.692539e+01  -1.194204e+02
   1.512341e+02  -1.265068e+01
   1.256199e+02   7.687985e+01
   3.991980e+01   1.114823e+02
  -3.992734e+01   6.112448e+01
  -4.474251e+01  -2.590558e+01
   1.342936e+01  -5.088124e+01
   2.212623e+01   7.977740e-01
   1.322320e+01   2.421349e+01
  -6.765875e+01  -1.324701e+01
  -8.029862e+01  -3.671569e+01
   8.113136e+01  -5.837271e+01
   1.796427e+02   3.562993e+01
   1.558058e+02   5.093306e+01
   8.204489e+00   8.598757e+01
  -7.494444e+01   5.130095e+01
  -8.299432e+01   6.523434e+00
  -1.838440e+01  -8.083121e+01
   7.032134e+01  -4.787560e+00
   3.969024e+01   3.896338e+01
  -3.592753e+01   7.213688e+01
  -7.488488e+01   9.194241e+01
  -9.705103e+01   2.111063e-01
  -7.444508e+01  -1.009302e+02
  -2.614005e+01  -1.444758e+02
  -3.022365e+01  -5.833908e+01
   6.431673e+00  -2.741394e+01
   8.034933e+00  -3.581248e+01
   4.728834e+01  -9.425292e+01
   7.790273e+01  -1.120835e+02
   1.437085e+02  -1.309459e+01
   6.346871e+01   7.169528e+01
   3.192722e+00   9.641053e+01
  -9.090897e+01   5.769076e+01
  -7.359313e+01  -4.667855e+01
   5.498009e-01  -2.292123e+01
   1.216610e+02   2.984604e+00
   1.063056e+02   8.933420e+01
  -3.900772e+01   9.155569e+01
  -1.159515e+02   7.743111e+01
  -1.223494e+02  -2.360452e+01
  -1.631166e+01  -3.581906e+01
   2.518702e+01  -3.504254e+01
   9.235847e+01  -4.053144e+00
  -4.895466e+00   1.868201e+00
  -3.583237e+01  -3.347121e+01
   3.364509e+01  -1.170498e+02
   9.635264e+01  -1.299646e+02
   1.440210e+02  -8.337907e+01
   1.140687e+02   1.179017e+02
   7.274796e+00   1.936951e+02
  -8.180079e+01   1.236073e+02
  -1.102240e+02  -5.159992e+01
  -4.272382e+01  -9.929070e+01
  -5.590823e+00  -1.041862e+02
   6.452840e+01  -1.695451e+01
   5.170664e+01   6.217572e+01
   5.477815e+01  -2.633556e+01
   2.043969e+01  -2.787283e+01
   3.176342e+01  -5.191310e+01
   6.576207e+01   7.964866e+01
   8.983970e+00   1.021200e+02
  -3.612193e+01   8.720438e+01
  -1.124443e+02  -6.619988e+01
  -1.171735e+02  -6.310613e+01
  -1.813890e+01  -4.308277e+01
   6.461987e+01   4.960349e+00
   1.395560e+02   3.120634e+01
   5.669507e+01   2.766866e+01
  -1.759435e+01   9.835896e+00
  -8.491185e+00  -2.729120e+01
   2.268246e+01  -3.728241e+01
   6.024788e+01   3.280934e+00
  -2.739617e+00   1.532990e+01
  -8.627456e+01   1.357159e+01
  -5.051526e+01  -4.377404e+01
   5.106773e+01  -9.908679e+01
   1.764922e+02  -6.836818e+01
   1.747738e+02   6.292711e+01
   4.382263e+01   1.328291e+02
  -7.777049e+01   1.163397e+02
  -1.045166e+02   4.735136e+01
  -4.626629e+01  -5.755586e+01
   1.068893e+01  -1.301386e+02
   9.703020e+00  -2.012752e+01
  -3.682140e+01  -1.909906e+01
  -2.513458e+01  -3.604413e+01
  -1.321665e+01  -8.448616e+01
   5.770125e+01  -9.983641e+01
   5.202078e+01   3.111133e+01
   2.691604e+01   8.227194e+01
   3.209036e+01   9.494145e+01
  -6.366459e+01   2.664197e+01
  -9.369897e+01  -7.430089e+01
  -5.548456e+01  -1.104226e+02
   4.160320e+01  -6.061334e+01
   9.973039e+01   1.405581e+01
   3.251613e+01   4.032360e+01
  -5.854791e+01   5.323927e+01
   2.514103e+00   5.844595e+01
  -6.495839e+00  -1.609561e+01
   6.878670e+01  -5.692000e+01
   4.734182e+00   3.858103e+01
  -7.149991e+01   7.550971e+01
  -8.876907e+01   4.931733e+01
  -6.699266e+01   6.013898e-01
  -2.316501e+01  -8.815975e+01
   2.558650e+01  -9.995065e+00
   6.631774e+01   8.555897e+00
   2.119865e+00   2.867762e+01
  -3.079588e+00   3.302994e+01
   6.705887e+00  -4.525214e+01
  -4.823579e+01  -7.557314e+01
   1.548094e+01  -2.518332e+01
   2.147462e+01  -1.547064e+01
   3.393972e+01  -3.462814e+00
   3.753751e+01  -2.294622e+01
   1.248559e+01  -6.536356e+01
  -1.462840e+00  -1.169254e+01
  -8.742078e+00   3.217256e+01
   6.161597e+01   5.596947e+01
   2.248638e+01   3.247035e+01
  -1.898901e+01  -1.659322e+01
  -4.691109e+01  -2.709751e+01
  -4.726311e+00  -2.992285e+01
   3.551229e+01   2.732207e+01
   2.891788e+01  -1.707124e+01
  -3.380640e+01   2.091836e+01
  -8.567378e+01  -1.078944e+01
  -5.301339e+01  -3.436824e+01
  -3.611673e+01  -6.828316e+00
   5.013491e+01  -3.357608e+01
   6.655753e+01  -2.546094e+01
  -5.271417e+01   1.465636e+01
  -4.285056e+01  -4.129713e+01
  -3.988202e+01  -1.973282e+01
   4.624287e+01  -1.636654e+01
