
 $NMID
 id='ANONYMOUS ', fmtdat='(2E16.6)'
 volume=1.0
 tramp=1.0
 $END
   6.403852e+02  -5.497488e+01
   2.989895e+02   4.525259e+02
  -5.778945e+01   2.846741e+02
  -2.092797e+01   1.775626e+02
  -1.455046e+02   3.653866e+01
   1.428707e+02   2.137968e+01
   1.565635e+02   5.118560e+01
   7.290486e+01   1.097794e+02
   1.107972e+01   2.156781e+02
  -2.015048e+02   8.004231e+00
  -7.603364e+01   5.107362e+01
   2.058767e+01  -7.281077e+01
  -1.981599e+01   7.128640e+01
  -1.249401e+01   3.504402e+01
   3.264792e+01   1.540439e+01
  -1.291090e+02   1.555673e+02
  -1.872407e+02   2.588321e+00
   2.682156e+00  -4.721526e+01
   1.037803e+02   1.206524e+02
   1.997843e+01   4.712303e+01
  -1.858699e+02   8.944961e+01
  -6.292112e+01   4.218993e+01
  -1.551179e+01  -3.020711e+01
   5.324979e+01   5.088361e+01
   8.551023e+01  -2.803874e+00
  -2.438135e+01   7.046143e+01
  -1.317838e+02   7.548678e+01
  -5.764136e+01   1.512011e+00
  -4.400162e+01   3.104782e+01
   7.796315e+01  -4.921151e+01
   5.029695e+01  -3.817346e+01
   7.373218e+01   4.864788e+01
   1.847293e+01   1.421976e+01
  -9.345621e+01   1.611523e+01
  -3.259703e+00  -4.811836e+01
   6.592391e+00  -7.901219e+01
   1.581327e+01  -4.462397e+01
  -2.558548e+01   7.608118e+00
  -1.587243e+01   3.696205e+01
   1.438383e+00   5.604065e+01
  -1.200464e+01  -7.950529e+01
  -1.274861e+01  -3.779550e+01
   1.194030e+01  -5.895709e+01
  -1.849770e+01   3.081237e+01
   6.006007e+00  -4.716173e+00
   3.132471e+01  -3.057705e+00
   3.117066e+00  -3.589095e-02
   4.881314e-01   4.240777e+01
   3.665800e+00  -4.894655e+00
   5.358040e+01   3.470746e+00
  -2.382039e+00  -1.306716e+01
  -2.518022e+01  -3.633425e+01
  -3.670746e+01  -3.800091e+01
   1.648116e+01  -1.514122e+01
   2.947433e+01   1.063761e+01
   6.739012e+00  -1.579120e+01
  -1.447873e+01  -1.725892e+01
   2.114965e+01  -2.360117e+01
   3.081352e+01   1.008336e+01
   1.640334e+01  -1.121533e+01
   2.938077e+01  -5.950202e+00
   3.794963e+00   3.908282e-01
  -2.769721e+01   3.985402e+01
  -1.647506e+01   8.581246e+00
   3.591906e+01  -1.509771e+00
   3.552812e+01  -3.602145e+01
   2.027818e+00  -4.499623e+01
  -2.844149e+01  -1.775867e+01
   2.378457e+01  -5.906172e+00
   2.131066e+01   2.865706e+01
  -3.982424e+00   6.887640e+00
  -2.061197e+01  -1.996985e+00
  -2.415298e+00   7.209593e+00
   3.384063e+01  -2.836245e+01
  -1.776751e+01   8.994381e+00
   1.063454e+00  -4.361635e+00
  -6.517491e+00   1.409604e+00
  -2.614224e+00  -2.234536e+01
  -2.269108e+00   4.800079e+01
   2.064312e+01   1.715191e+01
   2.381356e+01   5.872836e+00
  -1.710463e+01  -1.806628e+01
   8.601718e+00   8.141145e+00
  -3.737249e-02  -5.141073e+01
   9.203636e+00   1.921457e+01
   1.618938e+01   3.965011e+01
  -7.322580e+00   1.095305e+01
  -1.320731e+01   1.902724e+01
   4.411635e+01  -4.282226e+01
   3.999217e+01  -3.830190e+00
   2.410529e+01   3.312100e+01
   1.706718e+01   2.298408e+01
  -2.009714e+01   2.115925e+01
  -1.227932e+01  -5.819778e+00
   6.928187e+00  -8.332660e+00
   1.568007e+01  -5.382964e+01
  -2.214027e+01  -6.033202e-01
  -2.032731e+01   2.967198e+01
   1.151471e+01   1.362002e+01
  -7.262676e+00  -1.093687e+01
   7.510285e+01   1.792538e+01
   1.516764e+01   1.979758e+01
  -1.741427e+01   2.859926e+01
  -2.187442e+01   1.396907e+01
   1.298486e+01  -2.830898e+01
  -2.896247e+01   1.173501e+01
   1.471752e+01  -1.357995e+01
   6.614861e+00   5.256607e+00
  -4.876259e+00   4.324998e+01
   6.718080e+01   1.332199e+01
  -1.119506e+01  -8.887522e+00
  -3.290195e+01  -7.532650e-01
  -7.882838e+00   5.062164e+01
  -8.661250e+00  -1.096452e+01
  -1.394190e+01   7.914493e+00
   2.180970e+01  -7.966792e+00
   3.136927e+01  -3.745592e+01
  -7.365629e+00   7.627437e+00
  -7.739916e+00   1.200662e+01
  -3.522981e-01   2.103848e+01
  -2.326456e+01  -3.321821e+00
   2.670473e+01  -2.374645e+01
  -3.140264e+01   7.322513e+00
  -3.481625e+00   1.790583e+01
   1.738885e+01  -4.322281e+01
  -2.783926e+01   2.488532e-01
  -4.523726e+00   1.623095e+01
   4.869921e+00   1.086115e+01
  -1.323995e+01   1.549075e+01
   1.329783e+01  -9.345591e+00
   1.224459e+01  -2.105900e+01
  -3.111675e+00  -1.813520e+01
   2.576450e+01  -2.003336e+01
   4.975586e+01   3.228157e+01
  -2.860053e+01   2.666788e+01
  -5.271817e+01   1.253249e+01
  -2.384619e+01   1.677389e+01
  -2.460682e+00  -4.710304e+00
  -1.048698e+01   1.975327e+01
  -3.443172e+01   6.724166e+00
   2.354090e+01   2.239382e+01
   3.795264e+00  -2.239577e+00
   1.884601e+01   4.094769e+00
  -7.218497e+00  -3.199743e+01
  -2.446819e+01   8.062542e+00
  -5.976867e+01   1.196890e+01
   5.492878e+00   2.526322e+01
  -4.804424e+00  -5.670393e+01
   2.148307e+01   3.116666e+00
  -2.653243e+01   6.428378e+00
   1.782127e+01   3.276647e+01
   5.390458e+00   1.080692e+00
   6.685372e+00   1.122664e+01
  -6.185811e+00  -1.029644e+00
  -1.867175e+01  -4.606004e+01
  -2.519950e+01   8.096465e+00
  -1.792674e+01   1.405628e+01
   4.137499e+01   1.198316e+00
  -6.173475e-02  -1.462939e+01
   3.905899e+00  -2.085113e+01
  -3.437535e+01   2.673451e+00
   3.874031e+00   5.948748e+00
   3.289215e+01   2.217522e+01
  -8.289590e+00  -3.016224e+00
   5.885297e+01   1.838713e+01
  -4.217105e+01   1.880746e+01
  -7.080334e+00  -1.761339e+00
   3.394248e+00   3.660004e+01
  -1.872078e+01  -7.122439e+00
  -1.842247e+01  -8.487622e-01
  -5.154883e-01   1.962618e+01
  -1.802654e+01  -2.547821e+01
   2.552490e+01   3.014624e+01
   3.855113e+01   1.326502e+01
   9.297610e+00   2.644503e+00
   2.394333e+01  -4.436061e+00
  -6.111781e+00   5.521997e+01
  -4.452980e+01   1.523837e+01
   7.446361e+00   5.704262e+01
   1.443591e+01  -1.584420e+01
   6.330097e+00   1.560829e+01
   2.333377e+00   2.323184e+01
   1.454025e+01   1.094188e+01
   1.083612e+01  -1.631616e+01
  -5.543532e+00  -2.166294e+01
  -5.416616e+00   4.084946e+01
   6.600254e-01   1.484360e+01
   1.347508e+01   1.748182e+01
   5.422458e+00   1.627095e+01
  -1.218082e+01   1.624673e+01
   2.439335e+01  -2.810392e+01
  -2.861408e+01   1.035137e+01
  -2.655103e+01  -1.292280e+01
  -3.752375e+01  -3.507310e+01
  -1.638386e+01  -1.820973e+00
  -1.363217e+01  -5.636612e+01
   4.105901e+01  -5.751521e+00
  -1.148946e+01  -2.778175e+01
  -2.281422e+01  -8.690713e-01
  -4.083693e+01   1.169704e+01
  -4.086510e+01   4.400976e+01
   3.611421e+00  -2.434570e+01
  -5.666589e+01  -1.431258e+01
  -1.654148e+01  -1.808564e+01
  -2.788899e+01   1.789430e+01
   8.246324e+00  -3.857873e+01
  -3.148082e+00  -1.566168e+01
  -1.015713e+01  -2.193190e+01
  -4.298822e+01  -1.442347e+01
  -6.697305e+01   1.397209e+00
   6.823902e+00   7.219530e+00
   3.106439e+01   3.147913e+01
  -1.460792e+01  -3.506467e+01
   2.143801e+01  -8.875582e+00
   3.693435e+01   1.331990e+01
   1.050091e+01   7.039944e+01
  -1.641723e+01  -2.010230e+01
   6.765941e+00  -1.580826e+01
  -2.825986e+01   3.412186e+01
   2.457496e+01   3.128651e+01
   4.082396e+01   5.291248e+01
  -5.684242e-01  -6.357283e+00
   7.896219e+00   3.447474e+01
  -4.656094e+01   3.569537e+01
   1.424950e+00   1.728439e+01
  -2.012042e+01  -7.755381e+00
  -8.179203e+00  -1.033353e+01
   5.013263e+00  -1.335759e+01
   2.833033e+01   2.300212e+01
  -1.448712e+01  -1.587975e+01
  -9.302726e+00   9.722696e-01
   6.808187e+01  -1.983696e+01
  -9.878518e+00   1.490506e+01
  -3.738700e+01   4.118394e+01
   3.333491e+01   1.428768e+01
  -1.622685e+01   9.578700e+00
   3.128426e-01  -9.911932e+00
  -7.491174e+00  -1.347575e+01
  -3.798664e+01  -4.346723e+01
  -9.212801e+00  -1.794747e+01
   9.518162e+00   1.050450e+01
  -1.071151e+01  -2.186999e+01
   9.207402e+00  -6.389067e+01
   1.274718e+01  -1.957680e+01
  -2.323186e+01   1.994809e+01
   1.792860e+01  -1.756366e+01
   2.797987e+01  -1.460421e+01
  -4.204475e+01   6.387457e+00
  -8.936215e+00  -6.257968e+00
  -1.806989e+01   1.461695e+01
   6.357458e+00   3.644082e+01
  -5.098613e+00  -5.670633e+00
   2.503945e+00   2.363912e+01
   2.312726e+01  -1.599543e+01
   3.823744e+01  -3.343027e+01
   2.344366e+01   2.427737e+01
  -1.627444e+00  -3.804145e+00
   9.975119e+00  -1.657129e+01
   4.622847e+01  -3.596240e-01
  -1.545723e+01   1.944756e+01
   1.678420e+01  -4.587610e+01
   2.659921e+01   2.427674e+01
   9.969461e+00   3.362662e+01
  -8.423506e+00   2.505099e+01
  -1.191179e+01  -2.372214e+01
  -2.905611e+01  -2.450876e+01
  -4.450790e+01   5.901574e+00
  -3.221434e+00  -9.546385e+00
  -2.337494e-01   1.432149e+01
  -3.496554e-01  -1.259909e+01
   3.502035e+01  -2.330253e+01
  -5.585189e+01   1.306307e+01
  -1.778032e+01   4.423571e+01
   1.273516e+01  -1.554336e+01
   1.329794e+01   6.156280e+00
  -9.236620e+00  -6.866680e+01
  -5.443120e+01   1.100363e+01
   7.154763e+00   1.536882e+01
   7.239277e+01  -9.829714e+00
   6.546218e+01  -2.658950e+01
  -2.209963e+00   2.274831e+01
  -4.099363e+01  -9.718455e+00
   1.025699e+01   2.816713e+01
   2.063645e+01   4.397076e+01
   6.139975e+01   1.565311e+01
   6.039667e+00   8.104877e+00
   1.891701e+00   1.882242e+00
  -3.547454e+01   2.273821e+01
  -2.678958e+01   2.903061e+01
  -4.248543e+01  -2.530528e+01
  -5.254080e+01  -9.475071e+00
   1.332960e+01   1.338000e+01
   3.204340e+01  -1.041079e+01
   7.273008e+01  -8.208325e+00
   2.722322e+01  -2.507822e+01
   2.038129e+01  -2.261145e+01
   1.288300e+01   3.584569e+01
   1.796374e+01   8.238900e+00
  -7.977152e+00   1.767135e+01
  -3.365461e+01   1.490933e+01
  -1.453997e+01   2.141548e+01
  -1.974585e+01  -1.089247e+01
   2.082314e+01  -1.048298e+01
  -2.739381e+01  -2.672141e+01
  -3.538517e+01   1.074497e+01
   9.196575e+00  -4.701603e+00
  -2.056588e+01  -3.886849e+01
   2.608985e+01   2.447765e+01
  -1.488391e+01  -3.183863e+00
  -3.422793e+01   1.864970e+01
   8.424341e+00   2.662860e+01
   2.888041e+01   1.588562e+01
  -1.003451e+00  -1.799319e+00
  -4.610763e+00  -1.837650e+01
   1.997660e+01   3.781938e+01
  -1.435211e+01   4.278922e+00
   4.063283e+00  -4.481873e+01
  -1.575986e+01  -1.480303e+01
  -5.719995e+00  -1.797548e+01
  -1.351713e+00  -2.860578e+01
