
 $NMID
 id='ANONYMOUS ', fmtdat='(2E16.6)'
 volume=1.0
 tramp=1.0
 $END
  -1.990527e+07  -1.976399e+06
  -1.239144e+07  -9.294544e+06
   3.958745e+05  -1.183484e+07
   8.437456e+06  -8.594177e+06
   7.315570e+06  -1.679245e+06
   7.996215e+05   3.477556e+06
  -4.071850e+06   2.413256e+06
  -3.545744e+06  -3.039640e+06
   5.810485e+05  -6.098887e+06
   3.820119e+06  -2.877311e+06
   3.389778e+06   2.937942e+06
   2.619102e+05   4.703817e+06
  -2.266680e+06   7.458955e+05
  -1.756318e+06  -4.169067e+06
   1.184471e+06  -4.702795e+06
   3.489569e+06  -5.173124e+05
   2.564961e+06   4.155607e+06
  -1.063043e+06   5.175881e+06
  -4.119656e+06   2.173136e+06
  -3.898043e+06  -1.710746e+06
  -1.123801e+06  -3.171855e+06
   8.897072e+05  -1.929517e+06
   3.945315e+03  -6.201990e+05
  -2.283693e+06  -1.484800e+06
  -2.512235e+06  -3.651653e+06
   7.652296e+05  -4.287061e+06
   5.082389e+06  -2.075282e+06
   6.364260e+06   1.324030e+06
   3.126971e+06   3.231031e+06
  -1.768757e+06   2.493253e+06
  -3.805021e+06   3.221509e+04
  -1.361792e+06  -2.159923e+06
   2.665844e+06  -2.254630e+06
   4.073091e+06   1.213718e+05
   1.847474e+06   3.072380e+06
  -1.150363e+06   3.710873e+06
  -1.854427e+06   1.252745e+06
  -3.315442e+05  -1.632375e+06
   1.006550e+06  -1.659032e+06
   6.074882e+05   1.076926e+06
  -8.340411e+05   3.133380e+06
  -1.787456e+06   1.963374e+06
  -1.521744e+06  -1.026953e+06
  -2.771100e+05  -2.358243e+06
   1.113171e+06  -6.472565e+05
   1.403654e+06   2.046686e+06
  -2.546792e+05   2.785378e+06
  -2.933427e+06   8.092137e+05
  -4.068583e+06  -2.056127e+06
  -2.016176e+06  -3.402246e+06
   1.730278e+06  -2.347039e+06
   3.790000e+06  -3.248785e+04
   2.480064e+06   1.574016e+06
  -5.062363e+05   1.408485e+06
  -2.159659e+06   8.318860e+04
  -1.298754e+06  -9.068778e+05
   6.279605e+05  -6.664163e+05
   1.414366e+06   3.952246e+05
   3.585526e+05   1.147306e+06
  -1.185221e+06   8.429197e+05
  -1.295909e+06  -2.465621e+05
   3.782109e+05  -1.044420e+06
   2.000535e+06  -5.506424e+05
   1.409631e+06   1.161594e+06
  -1.346588e+06   2.713231e+06
  -3.840742e+06   2.488644e+06
  -3.895506e+06   2.395632e+05
  -1.889056e+06  -2.479282e+06
   2.437675e+04  -3.745513e+06
   5.507087e+05  -3.129289e+06
   3.696510e+05  -1.888032e+06
   7.470364e+05  -1.304497e+06
   1.856860e+06  -1.198431e+06
   2.764247e+06  -4.132346e+05
   2.538671e+06   1.371880e+06
   1.046293e+06   2.831131e+06
  -9.654216e+05   2.332979e+06
  -2.214800e+06  -6.369490e+04
  -1.686530e+06  -2.364334e+06
   3.721695e+05  -2.564891e+06
   2.344685e+06  -6.336949e+05
   2.617241e+06   1.613460e+06
   1.173213e+06   2.459743e+06
  -4.682730e+05   1.822088e+06
  -9.925051e+05   8.913049e+05
  -6.835835e+05   6.339890e+05
  -8.694946e+05   8.933290e+05
  -2.126421e+06   7.868203e+05
  -3.350111e+06  -2.935916e+05
  -2.816967e+06  -2.043132e+06
  -1.752728e+05  -3.371630e+06
   2.808894e+06  -3.185443e+06
   3.768549e+06  -1.349974e+06
   2.094366e+06   9.589771e+05
  -4.160164e+05   2.077678e+06
  -1.428055e+06   1.336298e+06
  -4.137446e+05  -2.518269e+05
   1.102147e+06  -9.820565e+05
   1.437803e+06  -2.294278e+05
   4.560888e+05   9.190821e+05
  -6.383284e+05   9.535617e+05
  -7.215939e+05  -2.384636e+05
   2.745294e+05  -1.126853e+06
   1.450330e+06  -2.658445e+05
   1.641564e+06   1.908402e+06
   2.824669e+05   3.321723e+06
  -1.956464e+06   2.398085e+06
  -3.424001e+06  -2.499698e+05
  -2.853652e+06  -2.445763e+06
  -6.858369e+05  -2.647799e+06
   1.229903e+06  -1.302130e+06
   1.467901e+06  -5.578633e+04
   4.193800e+05   4.326230e+04
  -3.153661e+05  -6.204695e+05
   2.145458e+05  -9.668677e+05
   1.318700e+06  -4.493220e+05
   1.559930e+06   4.918812e+05
   4.521282e+05   9.781622e+05
  -9.082237e+05   5.639958e+05
  -9.714007e+05  -3.389319e+05
   5.334255e+05  -8.004705e+05
   2.132947e+06  -2.069168e+05
   2.048796e+06   1.103863e+06
   1.039946e+05   2.038720e+06
  -2.000061e+06   1.714147e+06
  -2.413350e+06   3.311242e+05
  -9.948939e+05  -9.395281e+05
   6.893848e+05  -1.047148e+06
   1.066427e+06  -9.091594e+04
   2.391591e+04   7.821038e+05
  -1.231529e+06   5.683809e+05
  -1.470886e+06  -5.341786e+05
  -5.195431e+05  -1.357233e+06
   7.149266e+05  -1.056370e+06
   1.121187e+06  -3.223612e+04
   4.200818e+05   5.531478e+05
  -5.301815e+05   8.600957e+04
  -5.584697e+05  -8.536796e+05
   5.540727e+05  -1.162761e+06
   1.727322e+06  -3.699233e+05
   1.677541e+06   9.393775e+05
   3.168705e+05   1.717566e+06
  -1.129912e+06   1.382139e+06
  -1.419616e+06   2.705010e+05
  -5.223890e+05  -6.787559e+05
   4.999588e+05  -7.437145e+05
   6.744368e+05  -6.090934e+04
   2.899906e+04   5.422646e+05
  -5.979327e+05   4.410815e+05
  -5.030546e+05  -9.932718e+04
   1.586453e+05  -2.659196e+05
   5.455095e+05   2.859068e+05
   2.316814e+04   9.502480e+05
  -1.096285e+06   8.153995e+05
  -1.766966e+06  -3.109489e+05
  -1.232904e+06  -1.638583e+06
   1.868816e+05  -2.122193e+06
   1.404031e+06  -1.394100e+06
   1.624521e+06  -4.562431e+04
   1.023646e+06   9.225524e+05
   3.837310e+05   9.727665e+05
   2.046784e+05   4.592428e+05
   2.684933e+05   1.850092e+05
   3.108100e+04   4.831061e+05
  -6.601139e+05   8.164830e+05
  -1.284466e+06   4.276907e+05
  -1.100530e+06  -6.544186e+05
   7.055404e+04  -1.467601e+06
   1.491268e+06  -1.086214e+06
   2.019444e+06   3.605962e+05
   1.105317e+06   1.749411e+06
  -6.601951e+05   2.004649e+06
  -2.018127e+06   1.027205e+06
  -2.110071e+06  -3.349867e+05
  -1.131247e+06  -1.120613e+06
  -6.480748e+03  -1.066556e+06
   5.063484e+05  -6.921790e+05
   4.087397e+05  -6.354620e+05
   2.689260e+05  -9.215646e+05
   5.274894e+05  -9.442062e+05
   1.006368e+06  -2.139133e+05
   1.097569e+06   9.559174e+05
   4.471079e+05   1.645684e+06
  -5.693728e+05   1.236866e+06
  -1.125794e+06   4.122504e+04
  -7.517793e+05  -1.000307e+06
   1.740739e+05  -1.173923e+06
   7.990648e+05  -5.320679e+05
   6.569826e+05   3.018196e+05
   9.117263e+04   7.453493e+05
  -1.980794e+05   6.936935e+05
   3.874323e+04   4.579844e+05
   3.258071e+05   3.505130e+05
   1.965393e+04   3.555783e+05
  -8.944860e+05   2.080633e+05
  -1.641781e+06  -2.416193e+05
  -1.381443e+06  -8.035755e+05
  -1.192998e+05  -1.102081e+06
   1.181108e+06  -9.125505e+05
   1.500209e+06  -3.501278e+05
   7.644656e+05   2.072917e+05
  -1.451446e+05   3.831143e+05
  -3.773268e+05   1.132172e+05
   4.816856e+04  -2.365423e+05
   4.542466e+05  -1.851336e+05
   3.870721e+05   3.029270e+05
   5.697148e+04   6.783635e+05
  -6.916324e+04   4.320986e+05
   1.310986e+05  -1.920439e+05
   3.575141e+05  -3.939338e+05
   2.661665e+05   1.815588e+05
  -2.022819e+05   9.083186e+05
  -7.738999e+05   8.839023e+05
  -9.936993e+05   2.830132e+04
  -5.431031e+05  -8.092619e+05
   3.728227e+05  -8.311040e+05
   9.874361e+05  -1.240138e+05
   6.073190e+05   5.521400e+05
  -5.668227e+05   5.869536e+05
  -1.439444e+06   3.533866e+03
  -1.077258e+06  -6.978586e+05
   2.599046e+05  -9.792592e+05
   1.332504e+06  -6.365099e+05
   1.207458e+06   4.474732e+04
   1.991118e+05   4.805321e+05
  -5.420636e+05   3.066039e+05
  -2.783655e+05  -2.098476e+05
   5.894223e+05  -3.762694e+05
   1.017549e+06   1.984465e+05
   4.327683e+05   1.100647e+06
  -7.015240e+05   1.423720e+06
  -1.388712e+06   6.528945e+05
  -1.083753e+06  -7.365450e+05
  -1.372658e+05  -1.609996e+06
   6.624986e+05  -1.212236e+06
   8.362120e+05   6.487491e+04
   4.704796e+05   1.033937e+06
  -6.831116e+04   9.190665e+05
  -4.538086e+05   1.229258e+05
  -5.030838e+05  -3.545036e+05
  -2.494827e+05  -1.516529e+05
  -1.838938e+03   1.144600e+05
  -8.935649e+04  -1.971369e+05
  -3.812407e+05  -8.272769e+05
  -2.859557e+05  -9.700145e+05
   4.868537e+05  -3.579027e+05
   1.316752e+06   4.277298e+05
   1.239672e+06   7.448747e+05
   1.694067e+05   5.912969e+05
  -8.610887e+05   3.524747e+05
  -9.065567e+05   1.912890e+05
  -2.267504e+05   7.294289e+03
   1.721769e+05  -1.876690e+05
  -9.072182e+04  -2.356463e+05
  -3.647282e+05  -1.512146e+05
   7.897426e+03  -1.282974e+05
   7.269122e+05  -1.524175e+05
   9.044501e+05   7.100207e+04
   1.754279e+05   6.040600e+05
  -8.897909e+05   9.439742e+05
  -1.425666e+06   5.277434e+05
  -1.073421e+06  -4.904884e+05
  -1.598654e+05  -1.264663e+06
   6.723585e+05  -1.144968e+06
   9.346253e+05  -3.611781e+05
   5.912633e+05   2.889154e+05
   5.426509e+04   3.180048e+05
  -1.759135e+05  -1.240747e+04
   2.674228e+04  -9.602940e+04
   3.116547e+05   2.886077e+05
   2.481960e+05   7.114327e+05
  -2.004406e+05   5.657805e+05
  -6.228421e+05  -2.052804e+05
  -5.547237e+05  -9.383410e+05
   6.018700e+04  -9.008019e+05
   7.452311e+05  -8.558378e+04
   8.547490e+05   7.688372e+05
   1.979064e+05   9.619858e+05
  -6.670971e+05   4.880736e+05
  -9.216907e+05  -1.328975e+05
  -3.778958e+05  -4.742037e+05
   2.672983e+05  -4.791553e+05
   2.473388e+05  -2.818444e+05
  -3.243563e+05  -5.020824e+04
  -5.991671e+05   1.009907e+03
  -8.231979e+04  -2.552998e+05
   7.409770e+05  -5.874821e+05
   1.023368e+06  -5.146047e+05
   5.532488e+05   9.836735e+04
  -1.199394e+05   7.174791e+05
  -4.171458e+05   6.868405e+05
  -2.762207e+05   4.802967e+04
   1.998925e+04  -4.679170e+05
   2.449716e+05  -3.186000e+05
   3.153708e+05   2.324639e+05
   1.913194e+05   5.176846e+05
  -8.867276e+04   2.880809e+05
  -3.394585e+05  -9.216415e+04
  -3.719717e+05  -1.956440e+05
  -2.054857e+05  -3.256184e+04
  -2.596865e+04   6.112046e+04
   6.135605e+04  -1.127616e+05
   1.277641e+05  -3.780267e+05
   2.518184e+05  -3.869920e+05
   3.551008e+05  -1.284464e+04
   2.707666e+05   4.655175e+05
  -4.911046e+04   5.965076e+05
  -4.180523e+05   2.189177e+05
  -5.138673e+05  -3.317961e+05
  -1.582251e+05  -5.512427e+05
   4.284131e+05  -2.889665e+05
   7.172749e+05   1.393938e+05
   3.799133e+05   3.498579e+05
  -2.739781e+05   2.706038e+05
  -5.465401e+05   9.130671e+04
  -1.468206e+05  -1.114178e+04
   4.134616e+05   2.137013e+04
   4.018152e+05   1.720767e+05
  -2.378491e+05   3.176789e+05
  -7.994895e+05   2.181484e+05
