
 $NMID
 id='ANONYMOUS ', fmtdat='(2E16.6)'
 volume=1.0
 tramp=1.0
 $END
  -5.987681e+07   1.701992e+06
  -3.678780e+07  -3.642061e+07
   7.146774e+06  -4.077972e+07
   2.893864e+07  -1.593069e+07
   1.742945e+07   7.361060e+06
  -3.447467e+06   9.925882e+06
  -1.033463e+07  -1.288897e+06
  -2.956890e+06  -1.026796e+07
   6.407651e+06  -9.771402e+06
   1.009378e+07  -2.184567e+06
   7.528214e+06   6.298554e+06
   1.150223e+06   8.953751e+06
  -4.088621e+06   3.069550e+06
  -2.927264e+06  -5.466233e+06
   3.768530e+06  -6.821142e+06
   8.300998e+06   1.282836e+06
   4.913827e+06   1.063690e+07
  -3.694424e+06   1.252593e+07
  -1.051477e+07   6.555076e+06
  -1.155618e+07  -1.784795e+06
  -7.373337e+06  -7.753157e+06
  -1.053848e+06  -9.309771e+06
   3.069163e+06  -6.631177e+06
   2.167499e+06  -2.780236e+06
  -1.110443e+06  -1.920276e+06
  -5.497383e+05  -4.179556e+06
   5.294076e+06  -4.859450e+06
   1.000661e+07  -1.025989e+06
   7.588175e+06   4.000186e+06
   6.090258e+05   5.356393e+06
  -3.663918e+06   2.993064e+06
  -2.644458e+06   3.072444e+05
   3.277643e+05  -9.015360e+05
   2.104981e+06  -7.079203e+05
   2.344793e+06   1.184135e+06
   1.047751e+06   3.975538e+06
  -1.692986e+06   4.189953e+06
  -3.559597e+06   1.097073e+05
  -2.083900e+06  -3.824012e+06
   7.882380e+05  -2.242584e+06
   5.885544e+05   2.413873e+06
  -2.429850e+06   2.434097e+06
  -2.623898e+06  -3.316456e+06
   2.510032e+06  -6.531997e+06
   7.469892e+06  -1.205407e+06
   5.654284e+06   7.263568e+06
  -1.841027e+06   9.118675e+06
  -7.793140e+06   2.785237e+06
  -7.368699e+06  -4.446254e+06
  -2.033942e+06  -6.202584e+06
   3.535592e+06  -2.861393e+06
   5.436525e+06   1.479743e+06
   2.531075e+06   3.565786e+06
  -2.523084e+06   2.333293e+06
  -4.772952e+06  -8.800299e+05
  -2.088644e+06  -2.826412e+06
   1.780794e+06  -1.487047e+06
   1.804870e+06   1.019881e+06
  -1.433259e+06   9.161685e+05
  -2.613930e+06  -1.919324e+06
   7.212526e+05  -3.720285e+06
   4.965951e+06  -2.082413e+06
   5.629619e+06   1.382841e+06
   2.511590e+06   4.165793e+06
  -1.682150e+06   5.584274e+06
  -4.977174e+06   5.269652e+06
  -6.387411e+06   2.108790e+06
  -4.969485e+06  -3.096271e+06
  -1.250002e+06  -6.401008e+06
   1.818440e+06  -4.988662e+06
   1.826454e+06  -1.208610e+06
   8.300808e+04   3.720312e+05
  -2.503544e+05  -1.014107e+06
   1.462821e+06  -2.029859e+06
   2.889387e+06  -5.097183e+05
   2.245258e+06   1.796510e+06
   2.197441e+05   2.171597e+06
  -1.504749e+06   3.215221e+05
  -1.794642e+06  -1.990379e+06
  -1.615904e+05  -3.002276e+06
   2.776984e+06  -1.874826e+06
   4.735895e+06   1.005669e+06
   3.565365e+06   3.809676e+06
   1.306353e+05   4.487066e+06
  -2.333218e+06   2.971421e+06
  -2.351530e+06   1.251610e+06
  -1.900032e+06   7.258445e+05
  -3.013760e+06   5.646026e+05
  -4.501883e+06  -6.452115e+05
  -3.683677e+06  -2.723550e+06
  -2.887238e+05  -4.232054e+06
   3.123393e+06  -4.137773e+06
   4.181167e+06  -2.389349e+06
   2.770524e+06   2.708893e+05
   4.401411e+05   2.279669e+06
  -1.010672e+06   2.069900e+06
  -5.918216e+05   5.706179e+03
   1.049992e+06  -1.404621e+06
   1.961755e+06  -4.912945e+05
   1.023538e+06   1.218734e+06
  -4.672389e+05   1.168862e+06
  -4.173491e+05  -3.832958e+05
   1.116301e+06  -6.882706e+05
   1.933440e+06   1.386672e+06
   6.622926e+05   3.627403e+06
  -1.652604e+06   3.475039e+06
  -3.211415e+06   1.097570e+06
  -3.360644e+06  -1.436941e+06
  -2.347374e+06  -2.709087e+06
  -5.459828e+05  -2.608019e+06
   1.196881e+06  -1.549888e+06
   1.601908e+06  -3.136702e+05
   5.083957e+05   2.762617e+04
  -3.957462e+05  -7.616567e+05
   3.935601e+05  -1.411311e+06
   1.975155e+06  -6.656161e+05
   2.138848e+06   8.697076e+05
   4.302213e+05   1.466136e+06
  -1.193069e+06   6.211571e+05
  -9.059418e+05  -4.356749e+05
   8.674293e+05  -5.204281e+05
   2.210593e+06   2.970827e+05
   1.776944e+06   1.321791e+06
  -2.102900e+05   1.985705e+06
  -2.300498e+06   1.753092e+06
  -2.835029e+06   3.758037e+05
  -1.302243e+06  -1.274200e+06
   9.062397e+05  -1.606940e+06
   1.632505e+06  -2.566220e+05
   2.627586e+05   1.125760e+06
  -1.543019e+06   8.223393e+05
  -1.794992e+06  -7.569186e+05
  -3.784847e+05  -1.689892e+06
   1.110271e+06  -1.012507e+06
   1.292732e+06   3.120145e+05
   2.518201e+05   8.055645e+05
  -8.372766e+05   7.757855e+04
  -8.073037e+05  -1.065188e+06
   5.319426e+05  -1.498269e+06
   2.048573e+06  -6.489565e+05
   2.146795e+06   9.999204e+05
   4.744810e+05   2.130649e+06
  -1.435539e+06   1.747359e+06
  -1.775807e+06   2.676534e+05
  -5.356396e+05  -8.826521e+05
   6.557752e+05  -8.431192e+05
   6.321440e+05  -1.066718e+05
  -1.199812e+05   3.411796e+05
  -4.675711e+05   2.027850e+05
  -7.644083e+04  -4.645351e+04
   4.856568e+05   1.128247e+05
   5.366348e+05   7.087097e+05
  -1.970969e+05   1.233492e+06
  -1.400262e+06   9.650283e+05
  -2.160380e+06  -3.539701e+05
  -1.585029e+06  -1.949867e+06
   1.293150e+05  -2.494552e+06
   1.601487e+06  -1.490826e+06
   1.715710e+06   8.227311e+04
   8.811712e+05   8.614569e+05
   3.470508e+05   5.994647e+05
   5.345422e+05   1.761250e+05
   6.916768e+05   3.171839e+05
   1.243631e+05   8.078925e+05
  -8.792090e+05   9.517153e+05
  -1.468192e+06   3.692417e+05
  -1.080402e+06  -6.933726e+05
   2.165377e+05  -1.477634e+06
   1.725034e+06  -1.146113e+06
   2.317820e+06   4.173973e+05
   1.226518e+06   2.122366e+06
  -9.792427e+05   2.471370e+06
  -2.597048e+06   1.133545e+06
  -2.425354e+06  -6.196162e+05
  -9.899611e+05  -1.337242e+06
   1.951670e+05  -9.402178e+05
   3.499960e+05  -5.088226e+05
   3.890942e+03  -7.891489e+05
   3.623088e+04  -1.382304e+06
   6.516812e+05  -1.373542e+06
   1.335647e+06  -3.835245e+05
   1.426792e+06   1.057429e+06
   6.515850e+05   1.926575e+06
  -5.791361e+05   1.504037e+06
  -1.318979e+06   4.162121e+04
  -8.746721e+05  -1.302934e+06
   3.723314e+05  -1.450961e+06
   1.204729e+06  -4.298192e+05
   8.589509e+05   7.306194e+05
  -1.189779e+05   1.132008e+06
  -5.596855e+05   8.150062e+05
  -8.509754e+04   4.135753e+05
   4.677424e+05   3.206966e+05
   8.216094e+04   3.891182e+05
  -1.186922e+06   2.540056e+05
  -2.154411e+06  -2.720421e+05
  -1.703461e+06  -1.017432e+06
   9.707054e+03  -1.493690e+06
   1.620997e+06  -1.240805e+06
   1.882353e+06  -3.378901e+05
   8.638001e+05   5.079473e+05
  -2.615280e+05   6.097149e+05
  -5.324538e+05   3.996066e+04
  -5.622384e+04  -4.537328e+05
   4.350291e+05  -2.916611e+05
   5.140213e+05   3.320118e+05
   3.177237e+05   7.294088e+05
   1.434862e+05   4.904794e+05
   1.322950e+05  -8.522473e+04
   2.524825e+05  -2.919860e+05
   2.872699e+05   2.303853e+05
  -9.080419e+04   1.013310e+06
  -8.836348e+05   1.139101e+06
  -1.428610e+06   2.511731e+05
  -9.475412e+05  -9.084337e+05
   3.826279e+05  -1.216057e+06
   1.302446e+06  -4.250857e+05
   7.848968e+05   5.501853e+05
  -7.028139e+05   6.893282e+05
  -1.623414e+06  -4.932031e+04
  -1.029745e+06  -8.511187e+05
   4.844583e+05  -1.009293e+06
   1.509811e+06  -5.114830e+05
   1.246293e+06   1.661633e+05
   1.437771e+05   5.145519e+05
  -6.594485e+05   2.881135e+05
  -4.167516e+05  -2.975908e+05
   5.662938e+05  -5.800528e+05
   1.227217e+06   7.142449e+03
   7.752280e+05   1.176284e+06
  -4.954591e+05   1.796314e+06
  -1.472013e+06   1.004490e+06
  -1.330352e+06  -7.091443e+05
  -2.955357e+05  -1.826332e+06
   7.010027e+05  -1.345633e+06
   9.504504e+05   1.622024e+05
   4.718933e+05   1.207247e+06
  -2.121548e+05   9.854734e+05
  -5.821808e+05   9.706301e+04
  -4.734125e+05  -3.599629e+05
  -1.493540e+05  -1.234246e+05
  -5.490633e+04   9.122469e+04
  -3.364051e+05  -3.122764e+05
  -5.807663e+05  -9.794567e+05
  -2.133380e+05  -1.091209e+06
   7.528493e+05  -4.288101e+05
   1.531847e+06   4.095966e+05
   1.323000e+06   7.993800e+05
   2.175413e+05   7.159844e+05
  -8.305838e+05   4.763253e+05
  -9.920770e+05   2.230365e+05
  -3.956535e+05  -5.672555e+04
   1.281768e+05  -2.429550e+05
   5.936880e+04  -1.928427e+05
  -2.423472e+05  -6.154833e+04
  -7.327354e+04  -1.334798e+05
   6.307571e+05  -2.937404e+05
   1.084237e+06  -5.268500e+04
   5.361519e+05   7.016017e+05
  -7.716730e+05   1.282775e+06
  -1.739761e+06   8.940789e+05
  -1.526089e+06  -3.520594e+05
  -3.736775e+05  -1.428777e+06
   7.291288e+05  -1.470232e+06
   1.055888e+06  -6.371554e+05
   6.838962e+05   1.819177e+05
   1.741084e+05   3.641942e+05
  -3.658000e+04   9.824800e+04
   9.352655e+04   6.233056e+03
   3.097730e+05   3.737151e+05
   2.818106e+05   8.189342e+05
  -1.402743e+05   7.191711e+05
  -7.029153e+05  -5.897948e+04
  -8.410996e+05  -9.141677e+05
  -2.221414e+05  -1.064469e+06
   7.402575e+05  -3.393101e+05
   1.123818e+06   6.477982e+05
   4.481920e+05   1.107372e+06
  -6.917877e+05   7.700838e+05
  -1.178513e+06  -2.411748e+03
  -6.044588e+05  -6.303945e+05
   2.624026e+05  -7.525411e+05
   4.041884e+05  -4.075546e+05
  -2.195577e+05   2.159948e+04
  -6.580397e+05   8.451727e+04
  -1.813117e+05  -3.172734e+05
   8.121531e+05  -7.417417e+05
   1.297942e+06  -5.982564e+05
   8.316693e+05   1.713949e+05
  -4.695526e+04   9.171697e+05
  -5.541799e+05   9.279460e+05
  -4.691003e+05   2.166703e+05
  -1.045959e+05  -4.764799e+05
   2.151739e+05  -4.842408e+05
   3.716843e+05   9.661363e+04
   3.017081e+05   5.793613e+05
  -2.160508e+04   4.759596e+05
  -4.083169e+05  -7.591541e+03
  -5.178501e+05  -2.862429e+05
  -2.548431e+05  -1.069015e+05
   6.032289e+04   1.811784e+05
   8.510925e+04   9.649143e+04
  -8.353674e+04  -3.441201e+05
  -4.869370e+04  -6.131001e+05
   2.972150e+05  -3.104036e+05
   5.451391e+05   3.238608e+05
   2.645483e+05   6.565296e+05
  -3.846786e+05   3.681942e+05
  -7.278267e+05  -2.249375e+05
  -3.164341e+05  -5.624694e+05
   5.122164e+05  -4.129501e+05
   9.375747e+05   8.411224e+03
   5.283748e+05   3.597504e+05
  -2.798242e+05   4.583979e+05
  -6.568677e+05   3.078958e+05
  -2.862864e+05   3.874884e+04
   3.141819e+05  -1.238801e+05
   4.108173e+05  -1.735082e+03
  -1.207727e+05   2.880688e+05
  -6.953889e+05   3.309865e+05
