
 $NMID
 id='ANONYMOUS ', fmtdat='(2E16.6)'
 volume=1.0
 tramp=1.0
 $END
   4.374355e+07   1.877080e+06
   2.534209e+07   2.765885e+07
  -6.590309e+06   2.915909e+07
  -2.165441e+07   1.102346e+07
  -1.277082e+07  -5.363396e+06
   2.577268e+06  -7.164209e+06
   7.662564e+06   8.535490e+05
   2.212906e+06   7.598930e+06
  -4.856356e+06   7.434081e+06
  -7.593413e+06   1.561865e+06
  -5.377062e+06  -5.108165e+06
  -3.929072e+05  -6.920491e+06
   3.290812e+06  -1.991990e+06
   2.007450e+06   4.590057e+06
  -3.080586e+06   5.289018e+06
  -6.162705e+06  -1.130143e+06
  -3.291057e+06  -8.118056e+06
   3.232150e+06  -9.182403e+06
   8.084930e+06  -4.312507e+06
   8.349559e+06   2.027665e+06
   4.774618e+06   6.075366e+06
   1.410361e+05   6.594344e+06
  -2.305614e+06   4.416820e+06
  -1.130332e+06   2.097166e+06
   1.089400e+06   2.074449e+06
  -1.779504e+04   3.621747e+06
  -4.732045e+06   3.345714e+06
  -7.911095e+06  -6.755141e+04
  -5.447855e+06  -3.633373e+06
   1.861737e+05  -4.040391e+06
   3.291724e+06  -1.791038e+06
   1.997495e+06   3.399405e+05
  -8.105924e+05   9.781292e+05
  -2.217006e+06   2.951249e+05
  -1.819798e+06  -1.506760e+06
  -2.569400e+05  -3.385815e+06
   1.668053e+06  -2.934458e+06
   2.408172e+06   3.850200e+05
   1.016516e+06   2.928162e+06
  -7.084715e+05   1.242342e+06
  -8.220015e+04  -2.222737e+06
   2.091618e+06  -1.877401e+06
   1.897696e+06   2.533126e+06
  -1.906312e+06   4.714807e+06
  -5.244554e+06   6.247585e+05
  -3.723517e+06  -5.470930e+06
   1.670177e+06  -6.535171e+06
   5.876247e+06  -1.662904e+06
   5.489043e+06   3.710420e+06
   1.449476e+06   4.901847e+06
  -2.839385e+06   2.195278e+06
  -4.298741e+06  -1.252140e+06
  -2.002953e+06  -2.818837e+06
   1.890983e+06  -1.721523e+06
   3.563913e+06   7.890400e+05
   1.518822e+06   2.159361e+06
  -1.375383e+06   1.040226e+06
  -1.430129e+06  -8.491405e+05
   9.393408e+05  -7.845542e+05
   1.911951e+06   1.233748e+06
  -3.737466e+05   2.519330e+06
  -3.475801e+06   1.393624e+06
  -4.092432e+06  -1.062346e+06
  -1.766648e+06  -3.118271e+06
   1.641136e+06  -4.155687e+06
   4.302635e+06  -3.733327e+06
   5.091867e+06  -1.138322e+06
   3.512566e+06   2.764344e+06
   5.176518e+05   5.034440e+06
  -1.561994e+06   3.849067e+06
  -1.366621e+06   1.095350e+06
  -2.094502e+05  -1.041920e+04
  -2.540834e+05   8.842716e+05
  -1.595086e+06   1.326400e+06
  -2.411072e+06  -8.226573e+04
  -1.578852e+06  -1.849517e+06
   1.653590e+05  -1.889579e+06
   1.442806e+06  -1.049805e+05
   1.404342e+06   1.882125e+06
  -1.243869e+05   2.495807e+06
  -2.386012e+06   1.223650e+06
  -3.593287e+06  -1.209006e+06
  -2.412340e+06  -3.169284e+06
   2.066465e+05  -3.336673e+06
   1.874070e+06  -2.044461e+06
   1.756439e+06  -8.548133e+05
   1.476825e+06  -5.691229e+05
   2.454259e+06  -3.764727e+05
   3.617248e+06   7.168157e+05
   2.859145e+06   2.399357e+06
   5.630561e+03   3.485606e+06
  -2.838068e+06   3.204131e+06
  -3.629442e+06   1.626679e+06
  -2.223298e+06  -5.090295e+05
  -8.855098e+04  -1.930074e+06
   1.052372e+06  -1.573306e+06
   4.699083e+05   7.499550e+04
  -9.837225e+05   1.066076e+06
  -1.607586e+06   2.714393e+05
  -7.071080e+05  -1.036573e+06
   4.963198e+05  -9.339619e+05
   3.991303e+05   3.301713e+05
  -8.424657e+05   6.297592e+05
  -1.520683e+06  -9.703575e+05
  -5.881811e+05  -2.839179e+06
   1.235846e+06  -2.900392e+06
   2.601658e+06  -1.039780e+06
   2.842849e+06   1.193228e+06
   1.970347e+06   2.417929e+06
   3.505424e+05   2.283029e+06
  -1.117451e+06   1.217159e+06
  -1.364138e+06   1.326858e+05
  -4.179865e+05  -5.353027e+04
   2.846808e+05   6.480821e+05
  -3.743879e+05   1.108325e+06
  -1.603934e+06   4.318187e+05
  -1.684689e+06  -7.833091e+05
  -3.010489e+05  -1.190124e+06
   1.004109e+06  -4.614659e+05
   7.690724e+05   4.075425e+05
  -7.149795e+05   4.595261e+05
  -1.878068e+06  -2.793413e+05
  -1.510872e+06  -1.198057e+06
   2.313817e+05  -1.711513e+06
   2.016627e+06  -1.376859e+06
   2.375750e+06  -1.639118e+05
   9.948458e+05   1.097620e+06
  -8.166541e+05   1.226176e+06
  -1.304947e+06   1.075006e+05
  -1.228339e+05  -9.115331e+05
   1.307489e+06  -5.772027e+05
   1.442107e+06   7.018217e+05
   2.645223e+05   1.411924e+06
  -9.350253e+05   8.241853e+05
  -1.066870e+06  -2.704278e+05
  -2.087389e+05  -6.606243e+05
   6.647561e+05  -2.710338e+04
   5.901805e+05   9.153839e+05
  -5.392345e+05   1.193026e+06
  -1.730187e+06   3.952985e+05
  -1.699992e+06  -9.592837e+05
  -2.659206e+05  -1.775305e+06
   1.265777e+06  -1.356820e+06
   1.472556e+06  -1.380277e+05
   4.123457e+05   7.488912e+05
  -5.788145e+05   6.717766e+05
  -5.568484e+05   4.678049e+04
   9.686841e+04  -3.284214e+05
   4.429571e+05  -1.922667e+05
   1.451103e+05   6.212294e+04
  -3.545140e+05  -4.460688e+04
  -4.312050e+05  -5.572542e+05
   1.903407e+05  -9.984919e+05
   1.196012e+06  -7.280612e+05
   1.762115e+06   4.093822e+05
   1.191270e+06   1.698090e+06
  -2.547706e+05   2.064223e+06
  -1.419954e+06   1.177255e+06
  -1.455124e+06  -1.398901e+05
  -7.361913e+05  -8.041740e+05
  -2.654489e+05  -6.079115e+05
  -3.806569e+05  -2.303299e+05
  -4.971917e+05  -2.780310e+05
  -4.960810e+04  -6.367992e+05
   7.639845e+05  -7.469496e+05
   1.248296e+06  -2.503239e+05
   8.949338e+05   6.491492e+05
  -2.399681e+05   1.259079e+06
  -1.500589e+06   8.818468e+05
  -1.912659e+06  -4.717041e+05
  -9.193648e+05  -1.818571e+06
   9.094138e+05  -1.985325e+06
   2.181762e+06  -8.195183e+05
   1.994590e+06   6.070257e+05
   8.079219e+05   1.165375e+06
  -1.833012e+05   8.256554e+05
  -3.629332e+05   4.508030e+05
  -1.232362e+05   6.412043e+05
  -1.451811e+05   1.092811e+06
  -6.050843e+05   1.063443e+06
  -1.102765e+06   2.282256e+05
  -1.105657e+06  -9.631101e+05
  -4.181210e+05  -1.634564e+06
   5.751194e+05  -1.209147e+06
   1.098838e+06   3.438074e+04
   6.609351e+05   1.108041e+06
  -3.575568e+05   1.176497e+06
  -9.828108e+05   3.295011e+05
  -6.662255e+05  -5.891670e+05
   1.176728e+05  -8.953125e+05
   4.542488e+05  -6.524357e+05
   7.296505e+04  -3.616760e+05
  -3.561926e+05  -3.050482e+05
  -3.742466e+04  -3.315077e+05
   9.770421e+05  -1.485457e+05
   1.738168e+06   3.389123e+05
   1.349186e+06   9.224507e+05
  -5.956747e+04   1.209976e+06
  -1.371592e+06   9.205757e+05
  -1.563257e+06   1.947771e+05
  -7.004449e+05  -4.247195e+05
   2.321902e+05  -4.677194e+05
   4.312064e+05  -2.168222e+04
   6.672610e+03   3.491930e+05
  -3.920976e+05   2.054868e+05
  -3.993023e+05  -3.061807e+05
  -1.827952e+05  -6.302601e+05
  -5.577226e+04  -4.145602e+05
  -1.201686e+05   8.667669e+04
  -2.555899e+05   2.549056e+05
  -2.309527e+05  -2.042357e+05
   1.543116e+05  -8.438054e+05
   7.973712e+05  -8.825510e+05
   1.153876e+06  -1.008218e+05
   6.872836e+05   8.073919e+05
  -3.879785e+05   9.496437e+05
  -1.076960e+06   2.400498e+05
  -6.096525e+05  -5.139924e+05
   6.144474e+05  -5.360458e+05
   1.358248e+06   1.193395e+05
   8.498860e+05   7.602604e+05
  -4.286368e+05   8.389528e+05
  -1.294425e+06   3.830577e+05
  -1.056914e+06  -1.880648e+05
  -1.062872e+05  -4.448024e+05
   5.605843e+05  -2.166384e+05
   3.164208e+05   2.595914e+05
  -5.200815e+05   4.271666e+05
  -1.010610e+06  -1.079593e+05
  -5.358030e+05  -1.033755e+06
   5.594757e+05  -1.440777e+06
   1.299136e+06  -7.147959e+05
   1.055900e+06   6.847754e+05
   1.254243e+05   1.541876e+06
  -6.678568e+05   1.092658e+06
  -7.876984e+05  -1.714979e+05
  -3.412540e+05  -1.030601e+06
   2.082293e+05  -8.251514e+05
   4.815039e+05  -5.831831e+04
   3.928277e+05   3.353578e+05
   1.404682e+05   1.217239e+05
   4.240391e+04  -8.082994e+04
   2.259145e+05   2.604677e+05
   4.087045e+05   8.413761e+05
   1.388550e+05   9.278588e+05
  -6.182721e+05   3.177015e+05
  -1.252124e+06  -4.372325e+05
  -1.077721e+06  -7.489693e+05
  -1.400127e+05  -6.026444e+05
   7.443777e+05  -3.386395e+05
   8.482289e+05  -1.318241e+05
   3.053625e+05   5.537205e+04
  -1.313018e+05   1.902147e+05
  -3.341238e+04   1.734865e+05
   2.270999e+05   8.603310e+04
   3.989153e+04   1.163971e+05
  -5.748345e+05   1.882300e+05
  -8.980238e+05  -3.594879e+04
  -3.535615e+05  -6.077190e+05
   7.518556e+05  -9.919828e+05
   1.478110e+06  -6.062103e+05
   1.202101e+06   4.065459e+05
   2.030520e+05   1.213573e+06
  -6.920080e+05   1.161293e+06
  -9.148724e+05   4.375373e+05
  -5.579640e+05  -2.136569e+05
  -1.069487e+05  -3.117264e+05
   6.200555e+04  -5.845393e+04
  -6.892756e+04   1.048067e+04
  -2.473938e+05  -3.220930e+05
  -1.920353e+05  -6.983447e+05
   1.696426e+05  -5.796484e+05
   5.829015e+05   1.168772e+05
   6.161541e+05   8.324470e+05
   7.975449e+04   8.907589e+05
  -6.517985e+05   2.011047e+05
  -8.757084e+05  -6.383017e+05
  -2.776165e+05  -9.443720e+05
   6.278736e+05  -5.692215e+05
   9.609275e+05   8.851274e+04
   4.433648e+05   5.413188e+05
  -2.636211e+05   5.792251e+05
  -3.375341e+05   3.062734e+05
   2.090358e+05   9.484404e+03
   5.575566e+05  -2.082372e+04
   1.200905e+05   2.690869e+05
  -7.230425e+05   5.637789e+05
  -1.094485e+06   4.306815e+05
  -6.527421e+05  -1.745621e+05
   1.020998e+05  -7.458639e+05
   4.972796e+05  -7.225716e+05
   3.749313e+05  -1.308464e+05
   3.933012e+04   4.116053e+05
  -2.148174e+05   3.716503e+05
  -3.008146e+05  -1.291559e+05
  -2.067745e+05  -5.009911e+05
   5.476878e+04  -3.703350e+05
   3.357546e+05   4.447999e+04
   4.025747e+05   2.547727e+05
   2.048958e+05   9.079966e+04
  -2.715724e+04  -1.342811e+05
  -6.692944e+04  -4.664999e+04
   1.100264e+04   3.033258e+05
  -4.661712e+04   4.805615e+05
  -2.787560e+05   1.914951e+05
  -3.948329e+05  -3.314332e+05
  -1.310243e+05  -5.619493e+05
   3.550729e+05  -2.655391e+05
   5.697746e+05   2.508900e+05
   2.101897e+05   4.962298e+05
  -4.449236e+05   3.039186e+05
  -7.605197e+05  -8.098989e+04
  -4.055804e+05  -3.341846e+05
   2.616463e+05  -3.421606e+05
   5.566256e+05  -1.880207e+05
   2.203274e+05  -1.016548e+04
  -2.937112e+05   5.901023e+04
  -3.484475e+05  -5.500086e+04
   1.431625e+05  -2.445950e+05
   6.345269e+05  -2.220329e+05
