
 $NMID
 id='ANONYMOUS ', fmtdat='(2E16.6)'
 volume=1.0
 tramp=1.0
 $END
  -1.794171e+07  -6.240256e+05
  -1.134141e+07  -9.615261e+06
   1.091322e+06  -1.158053e+07
   8.298203e+06  -6.456320e+06
   6.174234e+06   3.116130e+05
  -1.132227e+05   3.170331e+06
  -3.549038e+06   9.425169e+05
  -2.136379e+06  -3.032239e+06
   1.315598e+06  -4.376953e+06
   3.359718e+06  -1.669927e+06
   2.660456e+06   2.331623e+06
   2.218564e+05   3.513168e+06
  -1.647643e+06   7.592550e+05
  -1.154109e+06  -2.796369e+06
   1.206731e+06  -3.219891e+06
   2.894189e+06  -3.721526e+04
   1.907970e+06   3.538673e+06
  -1.067552e+06   4.269648e+06
  -3.459756e+06   1.957939e+06
  -3.463597e+06  -1.057766e+06
  -1.576108e+06  -2.551803e+06
   2.068909e+05  -2.197638e+06
   3.640978e+05  -1.298129e+06
  -7.491471e+05  -1.243256e+06
  -1.217021e+06  -2.104560e+06
   4.105497e+05  -2.591485e+06
   3.188051e+06  -1.539120e+06
   4.382322e+06   6.066840e+05
   2.493760e+06   2.126986e+06
  -7.774444e+05   1.863440e+06
  -2.285059e+06   3.329588e+05
  -9.235983e+05  -9.991833e+05
   1.399382e+06  -1.083688e+06
   2.218128e+06   1.062828e+05
   1.093753e+06   1.673700e+06
  -4.987160e+05   2.263409e+06
  -1.112227e+06   1.140669e+06
  -5.937933e+05  -7.158492e+05
   1.907547e+05  -1.257844e+06
   3.163767e+05   2.029234e+05
  -4.139069e+05   1.786396e+06
  -1.247179e+06   1.240003e+06
  -1.106746e+06  -9.908447e+05
   2.306811e+05  -2.111927e+06
   1.612759e+06  -5.512032e+05
   1.504508e+06   1.988021e+06
  -3.641443e+05   2.651762e+06
  -2.504490e+06   7.780278e+05
  -2.969256e+06  -1.680180e+06
  -1.195436e+06  -2.564958e+06
   1.389581e+06  -1.504065e+06
   2.605711e+06   2.811771e+05
   1.527271e+06   1.331232e+06
  -6.291490e+05   1.021972e+06
  -1.729386e+06  -1.076022e+05
  -9.214868e+05  -8.619185e+05
   5.601772e+05  -5.305688e+05
   9.293280e+05   3.690752e+05
  -7.325355e+04   7.156274e+05
  -1.007757e+06   1.123864e+05
  -5.602011e+05  -7.227405e+05
   9.075697e+05  -8.585102e+05
   1.806550e+06  -6.281859e+04
   1.045025e+06   1.173705e+06
  -9.133841e+05   2.056927e+06
  -2.565663e+06   1.845425e+06
  -2.743812e+06   3.440199e+05
  -1.549045e+06  -1.626775e+06
  -1.022960e+05  -2.676575e+06
   5.839145e+05  -2.206937e+06
   5.042562e+05  -1.082492e+06
   4.316073e+05  -5.327685e+05
   8.827794e+05  -6.261190e+05
   1.507595e+06  -3.864397e+05
   1.549554e+06   6.457114e+05
   7.201861e+05   1.612552e+06
  -4.968886e+05   1.371861e+06
  -1.259061e+06  -5.994617e+04
  -9.833858e+05  -1.455347e+06
   2.208821e+05  -1.629266e+06
   1.510199e+06  -5.091372e+05
   1.866228e+06   9.519815e+05
   1.019874e+06   1.710474e+06
  -2.131994e+05   1.486736e+06
  -7.988396e+05   8.432570e+05
  -6.711593e+05   4.879954e+05
  -7.146490e+05   5.195989e+05
  -1.468941e+06   4.069218e+05
  -2.234197e+06  -3.110662e+05
  -1.817912e+06  -1.429172e+06
  -4.042065e+04  -2.211693e+06
   1.859306e+06  -2.029797e+06
   2.411877e+06  -8.811425e+05
   1.353118e+06   5.439194e+05
  -1.912449e+05   1.287640e+06
  -8.498868e+05   8.834372e+05
  -2.699269e+05  -1.277599e+05
   6.956523e+05  -6.350395e+05
   9.667763e+05  -1.461885e+05
   3.417600e+05   6.154258e+05
  -3.942792e+05   5.992045e+05
  -3.977499e+05  -1.941852e+05
   3.307717e+05  -6.392283e+05
   1.000731e+06   1.078429e+05
   8.463035e+05   1.490992e+06
  -1.980817e+05   2.115439e+06
  -1.481187e+06   1.258904e+06
  -2.119872e+06  -4.261468e+05
  -1.624549e+06  -1.641421e+06
  -3.261345e+05  -1.653616e+06
   7.896051e+05  -8.043776e+05
   9.243192e+05  -3.102455e+04
   2.706029e+05   3.526884e+04
  -1.907652e+05  -4.118077e+05
   1.793499e+05  -6.583858e+05
   9.193458e+05  -2.811728e+05
   1.039573e+06   3.945028e+05
   2.558415e+05   6.884861e+05
  -6.179762e+05   3.350939e+05
  -5.828397e+05  -2.527980e+05
   4.057257e+05  -4.444462e+05
   1.344106e+06   5.496828e+03
   1.198966e+06   7.779478e+05
  -4.118182e+04   1.260984e+06
  -1.329131e+06   1.012032e+06
  -1.561734e+06   1.477041e+05
  -6.374299e+05  -6.530382e+05
   4.788431e+05  -7.114284e+05
   7.407677e+05  -5.819646e+04
   3.196425e+04   5.298157e+05
  -8.186706e+05   3.571433e+05
  -9.441067e+05  -3.998964e+05
  -2.668038e+05  -9.044284e+05
   5.303689e+05  -6.324152e+05
   7.244005e+05   5.945304e+04
   2.235127e+05   3.932506e+05
  -3.745916e+05   4.148096e+04
  -3.596179e+05  -5.704692e+05
   3.678363e+05  -7.506577e+05
   1.120440e+06  -2.237313e+05
   1.078321e+06   6.307770e+05
   1.752593e+05   1.128052e+06
  -7.769168e+05   8.791534e+05
  -9.369096e+05   1.312808e+05
  -3.084501e+05  -4.639828e+05
   3.515573e+05  -4.620916e+05
   4.119190e+05  -2.393964e+04
  -2.256100e+04   3.095568e+05
  -3.676204e+05   2.188649e+05
  -2.458614e+05  -7.536805e+04
   1.590424e+05  -1.105616e+05
   3.345124e+05   2.536742e+05
  -4.048927e+04   6.325273e+05
  -7.428989e+05   4.986514e+05
  -1.140729e+06  -2.435598e+05
  -7.702535e+05  -1.088118e+06
   1.630497e+05  -1.359326e+06
   9.355422e+05  -8.381763e+05
   1.020946e+06   3.603442e+04
   5.845586e+05   5.937394e+05
   1.976110e+05   5.595137e+05
   1.560579e+05   2.438380e+05
   2.236434e+05   1.343950e+05
   2.380587e+04   3.448450e+05
  -4.612881e+05   5.085943e+05
  -8.340268e+05   2.215529e+05
  -6.591041e+05  -4.426387e+05
   1.072430e+05  -9.091516e+05
   9.863531e+05  -6.405311e+05
   1.281935e+06   2.851360e+05
   6.559062e+05   1.165528e+06
  -5.049366e+05   1.292519e+06
  -1.359270e+06   6.009859e+05
  -1.344836e+06  -3.044259e+05
  -6.499700e+05  -7.592574e+05
   5.811617e+04  -6.447038e+05
   3.136975e+05  -3.843007e+05
   2.104846e+05  -3.965569e+05
   1.521752e+05  -6.244924e+05
   3.645624e+05  -6.322142e+05
   6.730878e+05  -1.326806e+05
   6.997803e+05   6.322756e+05
   2.624737e+05   1.067628e+06
  -3.851371e+05   7.867498e+05
  -7.250441e+05  -4.116843e+03
  -4.582504e+05  -6.819229e+05
   1.658653e+05  -7.638135e+05
   5.695662e+05  -2.975393e+05
   4.334002e+05   2.641828e+05
   1.067046e+04   5.225246e+05
  -1.927432e+05   4.464249e+05
  -7.916605e+03   2.799039e+05
   2.111768e+05   2.196316e+05
   1.132639e+04   2.242452e+05
  -6.004510e+05   1.139206e+05
  -1.082306e+06  -1.933132e+05
  -8.805060e+05  -5.626429e+05
  -2.942480e+04  -7.432964e+05
   8.148271e+05  -5.841501e+05
   9.929324e+05  -1.772043e+05
   4.857674e+05   1.920803e+05
  -1.139871e+05   2.671325e+05
  -2.600996e+05   5.097367e+04
   1.814502e+04  -1.744246e+05
   2.817695e+05  -1.162633e+05
   2.492435e+05   2.007066e+05
   5.381505e+04   4.242249e+05
  -2.380331e+04   2.701156e+05
   8.855263e+04  -9.956806e+04
   2.190535e+05  -2.167761e+05
   1.630935e+05   1.267065e+05
  -1.338022e+05   5.690189e+05
  -5.159112e+05   5.624439e+05
  -6.741921e+05   2.763405e+04
  -3.720139e+05  -5.239166e+05
   2.499158e+05  -5.585483e+05
   6.545998e+05  -9.632286e+04
   3.849401e+05   3.559218e+05
  -3.854694e+05   3.633275e+05
  -9.174216e+05  -4.436990e+04
  -6.413695e+05  -4.856724e+05
   2.210437e+05  -6.058438e+05
   8.699390e+05  -3.396112e+05
   7.527976e+05   7.967585e+04
   1.017009e+05   3.086921e+05
  -3.612630e+05   1.730167e+05
  -1.873222e+05  -1.482397e+05
   3.687701e+05  -2.444208e+05
   6.504334e+05   1.214192e+05
   2.860180e+05   6.984719e+05
  -4.395378e+05   9.101254e+05
  -8.839482e+05   4.151738e+05
  -6.836659e+05  -4.790331e+05
  -6.425159e+04  -1.028014e+06
   4.483036e+05  -7.500336e+05
   5.331365e+05   7.662497e+04
   2.637787e+05   6.778827e+05
  -8.862672e+04   5.781265e+05
  -3.030485e+05   6.113286e+04
  -2.965408e+05  -2.350980e+05
  -1.349701e+05  -9.858010e+04
  -1.247868e+04   6.822959e+04
  -8.691022e+04  -1.370702e+05
  -2.427904e+05  -5.412706e+05
  -1.400652e+05  -6.266800e+05
   3.485645e+05  -2.216028e+05
   8.323317e+05   2.967218e+05
   7.576513e+05   5.031428e+05
   9.645888e+04   3.876903e+05
  -5.362781e+05   2.101854e+05
  -5.778751e+05   9.781963e+04
  -1.657453e+05  -8.581783e+03
   1.046943e+05  -1.182670e+05
  -2.694407e+04  -1.446036e+05
  -2.020437e+05  -9.318825e+04
  -3.139598e+03  -7.852937e+04
   4.377631e+05  -9.185115e+04
   5.810124e+05   4.954085e+04
   1.443509e+05   3.868066e+05
  -5.551712e+05   6.045802e+05
  -9.361222e+05   3.425596e+05
  -7.123004e+05  -3.073013e+05
  -9.542753e+04  -8.067453e+05
   4.519760e+05  -7.360539e+05
   6.013804e+05  -2.377567e+05
   3.687559e+05   1.789618e+05
   4.227665e+04   2.029093e+05
  -8.657048e+04   8.791615e+02
   3.058981e+04  -4.495687e+04
   1.853872e+05   1.997933e+05
   1.393083e+05   4.620182e+05
  -1.292712e+05   3.650742e+05
  -3.882745e+05  -1.227154e+05
  -3.564694e+05  -5.882152e+05
   2.017774e+04  -5.741954e+05
   4.584492e+05  -6.764457e+04
   5.428564e+05   4.784940e+05
   1.327087e+05   6.174287e+05
  -4.256748e+05   3.233197e+05
  -6.008471e+05  -8.609220e+04
  -2.549545e+05  -3.230179e+05
   1.741080e+05  -3.277262e+05
   1.816726e+05  -1.876720e+05
  -1.828488e+05  -3.184505e+04
  -3.776113e+05  -3.859324e+03
  -5.870587e+04  -1.675675e+05
   4.829955e+05  -3.649996e+05
   6.858764e+05  -3.048380e+05
   3.804409e+05   8.294678e+04
  -8.132608e+04   4.676710e+05
  -2.937449e+05   4.494191e+05
  -1.972167e+05   4.902778e+04
   7.919736e+03  -2.879486e+05
   1.537825e+05  -2.132060e+05
   1.941334e+05   1.324576e+05
   1.200937e+05   3.327428e+05
  -5.053417e+04   2.014865e+05
  -2.157426e+05  -5.358838e+04
  -2.467390e+05  -1.424783e+05
  -1.344020e+05  -3.601677e+04
  -3.484062e+03   5.291659e+04
   4.801076e+04  -3.820641e+04
   6.014492e+04  -2.217221e+05
   1.200779e+05  -2.596281e+05
   2.068010e+05  -3.948435e+04
   1.910515e+05   2.709003e+05
  -1.634073e+03   3.709616e+05
  -2.576419e+05   1.441215e+05
  -3.371185e+05  -2.012832e+05
  -1.047213e+05  -3.444975e+05
   2.833557e+05  -1.853793e+05
   4.690078e+05   8.467269e+04
   2.462287e+05   2.264038e+05
  -1.750885e+05   1.864483e+05
  -3.529586e+05   7.348410e+04
  -1.097170e+05  -1.735557e+03
   2.383860e+05   5.952175e+03
   2.419186e+05   9.293628e+04
  -1.399390e+05   1.833417e+05
  -4.838656e+05   1.261566e+05
