
 $NMID
 id='ANONYMOUS ', fmtdat='(2E16.6)'
 volume=1.0
 tramp=1.0
 $END
  -5.730690e+07  -7.416474e+04
  -3.420958e+07  -3.579737e+07
   7.908196e+06  -3.879079e+07
   2.811973e+07  -1.451663e+07
   1.652898e+07   7.448015e+06
  -3.533002e+06   9.416163e+06
  -9.882569e+06  -1.464925e+06
  -2.599711e+06  -9.913601e+06
   6.387128e+06  -9.238674e+06
   9.739799e+06  -1.851805e+06
   7.039635e+06   6.255523e+06
   8.391787e+05   8.630421e+06
  -4.011763e+06   2.811462e+06
  -2.648667e+06  -5.362709e+06
   3.808551e+06  -6.470946e+06
   7.926635e+06   1.441775e+06
   4.422184e+06   1.032955e+07
  -3.882514e+06   1.190228e+07
  -1.025137e+07   5.976771e+06
  -1.099882e+07  -2.048463e+06
  -6.808692e+06  -7.622469e+06
  -7.345658e+05  -8.902295e+06
   3.086796e+06  -6.233481e+06
   2.092456e+06  -2.632056e+06
  -1.032267e+06  -1.943846e+06
  -3.712556e+05  -4.065788e+06
   5.269105e+06  -4.488823e+06
   9.650601e+06  -6.505524e+05
   7.147237e+06   4.078430e+06
   3.896857e+05   5.141010e+06
  -3.633176e+06   2.724151e+06
  -2.532021e+06   1.715063e+05
   4.040277e+05  -8.753505e+05
   2.099273e+06  -5.886069e+05
   2.213722e+06   1.258970e+06
   8.460341e+05   3.869837e+06
  -1.759928e+06   3.949678e+06
  -3.379022e+06  -2.094781e+04
  -1.850718e+06  -3.711369e+06
   8.102521e+05  -2.083996e+06
   4.593759e+05   2.365619e+06
  -2.419363e+06   2.278268e+06
  -2.432217e+06  -3.247619e+06
   2.559927e+06  -6.190643e+06
   7.152713e+06  -9.615824e+05
   5.201354e+06   7.093479e+06
  -2.003682e+06   8.669679e+06
  -7.537918e+06   2.444738e+06
  -6.955246e+06  -4.479460e+06
  -1.792680e+06  -6.025965e+06
   3.481864e+06  -2.664156e+06
   5.203580e+06   1.568428e+06
   2.353496e+06   3.499701e+06
  -2.475364e+06   2.177219e+06
  -4.555477e+06  -9.698076e+05
  -1.932372e+06  -2.764516e+06
   1.746378e+06  -1.376383e+06
   1.714421e+06   1.032069e+06
  -1.385177e+06   8.595622e+05
  -2.464046e+06  -1.880191e+06
   7.546272e+05  -3.529245e+06
   4.784403e+06  -1.871013e+06
   5.356719e+06   1.458246e+06
   2.301036e+06   4.053578e+06
  -1.784839e+06   5.307661e+06
  -4.955839e+06   4.903868e+06
  -6.201158e+06   1.819736e+06
  -4.663318e+06  -3.129891e+06
  -9.993034e+05  -6.187369e+06
   1.885876e+06  -4.752204e+06
   1.785670e+06  -1.137774e+06
   9.353180e+04   3.338287e+05
  -1.659986e+05  -9.812988e+05
   1.500015e+06  -1.880334e+06
   2.799525e+06  -3.655438e+05
   2.088818e+06   1.827964e+06
   1.179923e+05   2.108845e+06
  -1.481915e+06   2.506134e+05
  -1.672125e+06  -1.995627e+06
  -5.227168e+04  -2.905226e+06
   2.737049e+06  -1.707211e+06
   4.514937e+06   1.125731e+06
   3.297173e+06   3.766667e+06
  -1.127646e+04   4.299063e+06
  -2.317489e+06   2.774782e+06
  -2.283434e+06   1.137731e+06
  -1.846942e+06   6.536802e+05
  -2.925620e+06   4.614726e+05
  -4.325985e+06  -7.556940e+05
  -3.473337e+06  -2.741016e+06
  -1.475647e+05  -4.096886e+06
   3.150462e+06  -3.896734e+06
   4.117765e+06  -2.165278e+06
   2.660573e+06   3.612990e+05
   3.375771e+05   2.215772e+06
  -1.050478e+06   1.957724e+06
  -5.688013e+05  -1.756283e+04
   1.062071e+06  -1.319879e+06
   1.906491e+06  -4.116805e+05
   9.442002e+05   1.205259e+06
  -4.929073e+05   1.113202e+06
  -3.996281e+05  -3.845837e+05
   1.091209e+06  -6.464903e+05
   1.832824e+06   1.370739e+06
   5.576250e+05   3.512407e+06
  -1.674738e+06   3.328463e+06
  -3.134452e+06   9.966405e+05
  -3.223709e+06  -1.478441e+06
  -2.202337e+06  -2.701905e+06
  -4.483651e+05  -2.549588e+06
   1.209981e+06  -1.459925e+06
   1.559661e+06  -2.484857e+05
   4.904017e+05   4.282891e+04
  -3.587221e+05  -7.482777e+05
   4.206097e+05  -1.348727e+06
   1.922832e+06  -5.822486e+05
   2.037796e+06   9.009884e+05
   3.738649e+05   1.426435e+06
  -1.171368e+06   5.648786e+05
  -8.668298e+05  -4.504854e+05
   8.536192e+05  -4.850493e+05
   2.137148e+06   3.486364e+05
   1.688476e+06   1.337091e+06
  -2.619453e+05   1.923009e+06
  -2.281959e+06   1.628053e+06
  -2.753652e+06   2.753659e+05
  -1.218405e+06  -1.269129e+06
   9.226467e+05  -1.519890e+06
   1.579345e+06  -1.969344e+05
   2.161284e+05   1.091970e+06
  -1.515395e+06   7.450720e+05
  -1.711995e+06  -7.853817e+05
  -3.179076e+05  -1.645842e+06
   1.102025e+06  -9.501000e+05
   1.242950e+06   3.362178e+05
   2.234072e+05   7.856750e+05
  -8.087363e+05   5.050592e+04
  -7.453625e+05  -1.053533e+06
   5.625167e+05  -1.429594e+06
   2.000008e+06  -5.602337e+05
   2.041512e+06   1.034746e+06
   3.914040e+05   2.072896e+06
  -1.440207e+06   1.643711e+06
  -1.724158e+06   2.050340e+05
  -4.922956e+05  -8.692768e+05
   6.595395e+05  -7.958244e+05
   6.172035e+05  -8.182576e+04
  -1.258806e+05   3.322993e+05
  -4.645638e+05   1.855856e+05
  -8.098330e+04  -5.165502e+04
   4.636052e+05   1.150522e+05
   5.010389e+05   6.963273e+05
  -2.244346e+05   1.186222e+06
  -1.382385e+06   8.903291e+05
  -2.076936e+06  -4.093288e+05
  -1.470063e+06  -1.933987e+06
   2.042959e+05  -2.408033e+06
   1.596990e+06  -1.394212e+06
   1.660895e+06   1.317816e+05
   8.296220e+05   8.662686e+05
   3.155825e+05   6.004947e+05
   5.043281e+05   1.914804e+05
   6.532581e+05   3.243646e+05
   9.510722e+04   7.806146e+05
  -8.782004e+05   8.939153e+05
  -1.433033e+06   3.135462e+05
  -1.026656e+06  -7.067835e+05
   2.545487e+05  -1.427475e+06
   1.705353e+06  -1.056912e+06
   2.229667e+06   4.762993e+05
   1.121774e+06   2.090182e+06
  -1.019909e+06   2.358937e+06
  -2.543630e+06   1.018011e+06
  -2.328644e+06  -6.712535e+05
  -9.217234e+05  -1.325804e+06
   2.164184e+05  -9.098316e+05
   3.603580e+05  -4.849958e+05
   3.626818e+04  -7.595578e+05
   8.111631e+04  -1.328962e+06
   6.709376e+05  -1.303773e+06
   1.300309e+06  -3.279608e+05
   1.344247e+06   1.067460e+06
   5.679557e+05   1.882970e+06
  -6.082166e+05   1.435184e+06
  -1.277063e+06  -7.619343e+02
  -8.062587e+05  -1.285267e+06
   4.020032e+05  -1.391477e+06
   1.175163e+06  -3.830956e+05
   8.087358e+05   7.264274e+05
  -1.449359e+05   1.088087e+06
  -5.611078e+05   7.727531e+05
  -9.369285e+04   4.002343e+05
   4.404267e+05   3.257673e+05
   6.619631e+04   3.790447e+05
  -1.153479e+06   2.093764e+05
  -2.071299e+06  -3.290482e+05
  -1.614906e+06  -1.035356e+06
   5.219164e+04  -1.441846e+06
   1.601439e+06  -1.148071e+06
   1.829438e+06  -2.701153e+05
   8.217564e+05   5.138668e+05
  -2.694196e+05   5.793663e+05
  -5.152459e+05   2.419750e+04
  -3.940339e+04  -4.369029e+05
   4.310291e+05  -2.667003e+05
   4.856479e+05   3.371408e+05
   2.799155e+05   7.149937e+05
   1.195654e+05   4.777866e+05
   1.318048e+05  -8.059692e+04
   2.571907e+05  -2.764771e+05
   2.712595e+05   2.316397e+05
  -1.221748e+05   9.773042e+05
  -8.899609e+05   1.072353e+06
  -1.383816e+06   1.962802e+05
  -8.826245e+05  -9.070063e+05
   4.074548e+05  -1.159807e+06
   1.268825e+06  -3.666632e+05
   7.401897e+05   5.578024e+05
  -7.005567e+05   6.450318e+05
  -1.570030e+06  -9.772491e+04
  -9.736480e+05  -8.560916e+05
   4.977424e+05  -9.645439e+05
   1.478510e+06  -4.513834e+05
   1.203814e+06   1.986037e+05
   1.242704e+05   5.035220e+05
  -6.468154e+05   2.594656e+05
  -3.925645e+05  -2.994113e+05
   5.671103e+05  -5.402658e+05
   1.184815e+06   4.880398e+04
   7.078907e+05   1.162206e+06
  -5.399910e+05   1.717822e+06
  -1.456243e+06   9.206662e+05
  -1.262670e+06  -7.295903e+05
  -2.262907e+05  -1.775857e+06
   7.216637e+05  -1.280491e+06
   9.152488e+05   1.851975e+05
   4.201359e+05   1.182916e+06
  -2.342079e+05   9.489073e+05
  -5.655517e+05   7.684138e+04
  -4.483263e+05  -3.645620e+05
  -1.427207e+05  -1.258237e+05
  -5.530175e+04   8.756157e+04
  -3.121729e+05  -3.097515e+05
  -5.289648e+05  -9.644586e+05
  -1.741355e+05  -1.063566e+06
   7.383522e+05  -3.922122e+05
   1.468481e+06   4.455203e+05
   1.256477e+06   8.164093e+05
   1.879213e+05   6.987756e+05
  -8.208446e+05   4.326846e+05
  -9.676963e+05   1.844138e+05
  -3.790868e+05  -6.529816e+04
   1.326563e+05  -2.301505e+05
   6.109160e+04  -1.870738e+05
  -2.349585e+05  -7.016975e+04
  -6.520385e+04  -1.311966e+05
   6.223154e+05  -2.611736e+05
   1.049099e+06  -1.499502e+04
   4.910304e+05   6.934310e+05
  -7.899016e+05   1.212023e+06
  -1.707732e+06   8.062594e+05
  -1.459164e+06  -3.902517e+05
  -3.134146e+05  -1.393355e+06
   7.512600e+05  -1.396765e+06
   1.040516e+06  -5.794837e+05
   6.550272e+05   1.999949e+05
   1.551136e+05   3.571722e+05
  -4.066563e+04   9.095090e+04
   8.991597e+04   6.542547e+03
   2.891304e+05   3.708430e+05
   2.471091e+05   8.011731e+05
  -1.593746e+05   6.896878e+05
  -6.774015e+05  -8.221915e+04
  -7.806531e+05  -9.124206e+05
  -1.767437e+05  -1.034572e+06
   7.273871e+05  -3.002397e+05
   1.063175e+06   6.651522e+05
   3.951847e+05   1.084063e+06
  -6.934409e+05   7.193605e+05
  -1.137198e+06  -4.107711e+04
  -5.626889e+05  -6.263220e+05
   2.769754e+05  -7.161330e+05
   4.012325e+05  -3.809594e+05
  -2.152805e+05   1.172802e+04
  -6.393492e+05   5.956377e+04
  -1.641461e+05  -3.117003e+05
   8.092661e+05  -6.908639e+05
   1.272359e+06  -5.388641e+05
   7.962606e+05   1.896314e+05
  -7.513115e+04   8.837599e+05
  -5.630649e+05   8.785381e+05
  -4.570281e+05   1.930881e+05
  -8.371069e+04  -4.645694e+05
   2.237646e+05  -4.593383e+05
   3.553972e+05   1.080064e+05
   2.722787e+05   5.697621e+05
  -3.630057e+04   4.568258e+05
  -3.939070e+05  -2.171474e+04
  -4.908888e+05  -2.915286e+05
  -2.433255e+05  -1.100775e+05
   5.180632e+04   1.747075e+05
   8.045393e+04   9.200249e+04
  -6.550599e+04  -3.357258e+05
  -2.308926e+04  -5.897296e+05
   2.973954e+05  -2.852163e+05
   5.119581e+05   3.326371e+05
   2.296733e+05   6.420362e+05
  -3.846592e+05   3.416025e+05
  -6.938287e+05  -2.422779e+05
  -2.858007e+05  -5.545238e+05
   5.076671e+05  -3.822444e+05
   9.039843e+05   3.940900e+04
   4.981176e+05   3.647742e+05
  -2.847878e+05   4.319870e+05
  -6.434323e+05   2.740017e+05
  -2.758421e+05   2.836155e+04
   3.097491e+05  -1.064630e+05
   3.971986e+05   1.495073e+04
  -1.289870e+05   2.753440e+05
  -6.865590e+05   2.957308e+05
