
 $NMID
 id='ANONYMOUS ', fmtdat='(2E16.6)'
 volume=1.0
 tramp=1.0
 $END
   3.246318e+07   1.011105e+05
   2.059469e+07   1.743310e+07
  -2.008358e+06   2.110978e+07
  -1.479830e+07   1.128178e+07
  -1.068739e+07  -1.004385e+06
   4.297547e+05  -5.599704e+06
   6.128859e+06  -1.353169e+06
   3.490623e+06   5.344699e+06
  -2.367538e+06   7.370368e+06
  -5.823746e+06   2.768674e+06
  -4.754804e+06  -3.930855e+06
  -6.111819e+05  -6.032039e+06
   2.801796e+06  -1.509306e+06
   2.142285e+06   4.562176e+06
  -1.971770e+06   5.419378e+06
  -5.045499e+06   3.158949e+04
  -3.420113e+06  -6.165102e+06
   1.767707e+06  -7.545022e+06
   6.062355e+06  -3.668162e+06
   6.314701e+06   1.598874e+06
   3.177388e+06   4.503891e+06
  -1.406673e+05   4.222743e+06
  -8.606848e+05   2.577539e+06
   8.976084e+05   1.983161e+06
   2.027947e+06   3.136170e+06
  -3.611774e+05   4.226344e+06
  -5.101259e+06   2.948015e+06
  -7.468537e+06  -5.267946e+05
  -4.544755e+06  -3.397688e+06
   9.691220e+05  -3.350458e+06
   3.705627e+06  -9.573557e+05
   1.716288e+06   1.359228e+06
  -1.957809e+06   1.777000e+06
  -3.435168e+06   9.394357e+04
  -1.960989e+06  -2.470888e+06
   4.604581e+05  -3.750191e+06
   1.751313e+06  -2.172916e+06
   1.314862e+06   1.022378e+06
   7.101089e+03   2.282889e+06
  -5.992616e+05  -2.580239e+04
   4.052643e+05  -2.877179e+06
   1.985930e+06  -2.119992e+06
   1.911121e+06   1.733575e+06
  -5.297767e+05   3.731219e+06
  -3.112997e+06   9.419482e+05
  -2.841751e+06  -3.617810e+06
   6.415858e+05  -4.816424e+06
   4.433354e+06  -1.519470e+06
   5.152339e+06   2.757816e+06
   2.067193e+06   4.291463e+06
  -2.296801e+06   2.540090e+06
  -4.339482e+06  -4.230115e+05
  -2.530060e+06  -2.208987e+06
   1.130247e+06  -1.738596e+06
   3.004800e+06   1.768231e+05
   1.582745e+06   1.502504e+06
  -9.787584e+05   9.467765e+05
  -1.549012e+06  -5.888914e+05
   2.150233e+05  -1.109727e+06
   1.691621e+06   5.733090e+03
   7.240956e+05   1.386254e+06
  -1.810694e+06   1.458958e+06
  -3.185275e+06   3.697162e+03
  -1.812014e+06  -2.093305e+06
   1.404468e+06  -3.623191e+06
   4.152638e+06  -3.379464e+06
   4.647746e+06  -8.682349e+05
   2.868183e+06   2.620218e+06
   4.196651e+05   4.560511e+06
  -9.238437e+05   3.739539e+06
  -8.476735e+05   1.699506e+06
  -5.718678e+05   7.595948e+05
  -1.196639e+06   1.095680e+06
  -2.322854e+06   8.934644e+05
  -2.610771e+06  -7.760490e+05
  -1.399369e+06  -2.483992e+06
   5.993553e+05  -2.257766e+06
   1.983417e+06  -3.968228e+04
   1.708545e+06   2.248255e+06
  -2.011550e+05   2.692498e+06
  -2.459483e+06   1.028798e+06
  -3.271542e+06  -1.387398e+06
  -1.948798e+06  -2.843779e+06
   2.329495e+05  -2.651645e+06
   1.378793e+06  -1.571395e+06
   1.200227e+06  -8.588559e+05
   1.200168e+06  -8.578146e+05
   2.412602e+06  -7.286490e+05
   3.719767e+06   3.903606e+05
   3.098880e+06   2.248031e+06
   2.198205e+05   3.641702e+06
  -2.897272e+06   3.485860e+06
  -3.882301e+06   1.677551e+06
  -2.293018e+06  -7.336348e+05
   1.463351e+05  -2.124510e+06
   1.285666e+06  -1.557051e+06
   4.649680e+05   1.681601e+05
  -1.079954e+06   1.112408e+06
  -1.599367e+06   3.189608e+05
  -6.391896e+05  -1.004356e+06
   5.827039e+05  -1.017341e+06
   6.281700e+05   2.915828e+05
  -5.512412e+05   1.004021e+06
  -1.635094e+06  -2.500230e+05
  -1.360493e+06  -2.473797e+06
   3.337005e+05  -3.407645e+06
   2.383133e+06  -2.006500e+06
   3.425743e+06   6.342219e+05
   2.692907e+06   2.545240e+06
   6.347913e+05   2.639424e+06
  -1.217765e+06   1.376824e+06
  -1.505551e+06   1.362809e+05
  -4.471093e+05  -3.771179e+04
   3.421946e+05   6.643069e+05
  -2.647421e+05   1.110426e+06
  -1.523201e+06   5.273528e+05
  -1.749310e+06  -6.038674e+05
  -4.525282e+05  -1.134195e+06
   9.985434e+05  -5.859004e+05
   9.522244e+05   3.727226e+05
  -6.456590e+05   7.172741e+05
  -2.167340e+06   4.462395e+04
  -1.964611e+06  -1.182337e+06
   8.033270e+02  -2.028182e+06
   2.098132e+06  -1.727675e+06
   2.546608e+06  -3.476855e+05
   1.096286e+06   1.041927e+06
  -7.497968e+05   1.226763e+06
  -1.242606e+06   1.515682e+05
  -1.042653e+05  -8.864306e+05
   1.326519e+06  -6.519397e+05
   1.576517e+06   6.017673e+05
   4.782915e+05   1.466446e+06
  -8.432403e+05   1.048665e+06
  -1.182349e+06  -7.576871e+04
  -3.707752e+05  -6.373102e+05
   6.274938e+05  -8.841336e+04
   6.393994e+05   9.167048e+05
  -5.429912e+05   1.267025e+06
  -1.824133e+06   4.604110e+05
  -1.824798e+06  -9.532817e+05
  -3.706405e+05  -1.845832e+06
   1.222782e+06  -1.500819e+06
   1.533042e+06  -2.730194e+05
   5.290521e+05   7.444214e+05
  -5.490795e+05   7.772528e+05
  -6.606554e+05   7.313842e+04
   2.276872e+04  -4.817715e+05
   5.621101e+05  -3.622401e+05
   3.671752e+05   9.163565e+04
  -2.694488e+05   1.520859e+05
  -5.498740e+05  -4.206931e+05
   4.315603e+04  -1.043710e+06
   1.191128e+06  -8.658419e+05
   1.891201e+06   3.210061e+05
   1.346256e+06   1.732919e+06
  -1.665354e+05   2.238271e+06
  -1.467866e+06   1.425202e+06
  -1.655914e+06   3.136842e+03
  -9.752776e+05  -9.085186e+05
  -3.626329e+05  -8.566099e+05
  -3.022300e+05  -3.640412e+05
  -4.040542e+05  -2.191799e+05
  -6.549931e+04  -5.837231e+05
   7.285148e+05  -8.615829e+05
   1.344273e+06  -4.096709e+05
   1.093133e+06   6.695046e+05
  -1.198280e+05   1.473159e+06
  -1.566219e+06   1.106054e+06
  -2.113783e+06  -3.774099e+05
  -1.146771e+06  -1.867322e+06
   7.564928e+05  -2.156633e+06
   2.201245e+06  -1.067290e+06
   2.214399e+06   4.236764e+05
   1.088301e+06   1.194398e+06
  -6.202960e+04   1.030622e+06
  -4.621213e+05   6.301627e+05
  -2.795204e+05   6.752970e+05
  -1.888505e+05   1.061956e+06
  -5.607087e+05   1.080918e+06
  -1.107593e+06   2.714373e+05
  -1.201274e+06  -9.842237e+05
  -5.132734e+05  -1.731540e+06
   5.702125e+05  -1.320166e+06
   1.186946e+06  -4.251952e+04
   7.941405e+05   1.095204e+06
  -2.340196e+05   1.264816e+06
  -9.302851e+05   5.058083e+05
  -7.282584e+05  -4.347278e+05
  -3.059457e+04  -8.716010e+05
   3.113978e+05  -7.385106e+05
   2.246469e+03  -4.465169e+05
  -3.691164e+05  -3.391590e+05
  -3.912725e+04  -3.649547e+05
   9.863096e+05  -2.260463e+05
   1.803480e+06   2.451752e+05
   1.485339e+06   8.680455e+05
   8.368455e+04   1.228423e+06
  -1.315694e+06   1.021902e+06
  -1.621948e+06   3.501831e+05
  -8.012050e+05  -3.019897e+05
   1.783928e+05  -4.564833e+05
   4.279210e+05  -9.220822e+04
  -1.172143e+04   3.028792e+05
  -4.466639e+05   2.172014e+05
  -4.269321e+05  -3.106501e+05
  -1.385089e+05  -6.896259e+05
   2.030607e+03  -4.463018e+05
  -1.339652e+05   1.580326e+05
  -3.272013e+05   3.589620e+05
  -2.732421e+05  -1.970488e+05
   1.672294e+05  -9.387074e+05
   8.055606e+05  -9.646894e+05
   1.126545e+06  -1.046918e+05
   6.706572e+05   8.340031e+05
  -3.704363e+05   9.518245e+05
  -1.081290e+06   2.226745e+05
  -6.619915e+05  -5.495897e+05
   6.091764e+05  -6.205378e+05
   1.498577e+06   1.301762e+04
   1.063629e+06   7.496813e+05
  -3.324718e+05   9.924723e+05
  -1.392398e+06   5.974031e+05
  -1.222016e+06  -8.509808e+04
  -1.812189e+05  -4.928302e+05
   5.801997e+05  -3.018376e+05
   3.232672e+05   2.354821e+05
  -5.790909e+05   4.387515e+05
  -1.079591e+06  -1.364495e+05
  -5.396669e+05  -1.118996e+06
   6.327996e+05  -1.535700e+06
   1.409884e+06  -7.621138e+05
   1.159323e+06   7.258077e+05
   1.875217e+05   1.675623e+06
  -6.749840e+05   1.253572e+06
  -8.740109e+05  -9.531332e+04
  -4.719013e+05  -1.089715e+06
   1.144775e+05  -9.427025e+05
   4.950642e+05  -1.162369e+05
   4.930691e+05   3.579738e+05
   2.170819e+05   1.452706e+05
   1.930055e+04  -1.081824e+05
   1.690050e+05   2.288758e+05
   4.451881e+05   8.723836e+05
   2.631774e+05   1.010422e+06
  -5.702212e+05   3.842975e+05
  -1.383343e+06  -4.210129e+05
  -1.265363e+06  -7.634416e+05
  -1.855978e+05  -6.301043e+05
   8.500058e+05  -3.889109e+05
   9.334334e+05  -2.008332e+05
   2.812460e+05   1.015681e+04
  -1.577269e+05   2.038746e+05
   4.201600e+04   2.252886e+05
   3.241012e+05   1.261488e+05
   1.750933e+04   1.283184e+05
  -6.942836e+05   1.934156e+05
  -9.586505e+05  -3.064987e+04
  -2.896078e+05  -6.283055e+05
   8.483388e+05  -1.046497e+06
   1.518982e+06  -6.459735e+05
   1.212362e+06   4.407029e+05
   2.274556e+05   1.312756e+06
  -6.867056e+05   1.247094e+06
  -9.684183e+05   4.483477e+05
  -6.177658e+05  -2.547830e+05
  -9.221310e+04  -3.303805e+05
   1.298362e+05  -1.936672e+04
  -4.998505e+04   6.503473e+04
  -3.120664e+05  -3.162083e+05
  -2.592614e+05  -7.453139e+05
   1.798365e+05  -6.125829e+05
   6.448558e+05   1.590727e+05
   6.424047e+05   9.265970e+05
   2.983702e+04   9.469118e+05
  -7.390644e+05   1.637162e+05
  -9.355043e+05  -7.275994e+05
  -2.773461e+05  -1.003542e+06
   6.706472e+05  -5.759018e+05
   9.998805e+05   8.898471e+04
   4.512453e+05   5.199605e+05
  -2.615963e+05   5.646317e+05
  -2.950017e+05   3.239673e+05
   2.898578e+05   3.040070e+04
   6.161569e+05  -2.705095e+04
   1.141114e+05   2.731334e+05
  -7.618939e+05   6.357988e+05
  -1.109609e+06   5.439302e+05
  -6.422335e+05  -1.173201e+05
   9.478654e+04  -7.788081e+05
   4.573364e+05  -7.645631e+05
   3.338819e+05  -1.042476e+05
   1.832589e+04   4.682122e+05
  -2.331560e+05   3.696715e+05
  -3.299739e+05  -1.893385e+05
  -2.260999e+05  -5.354932e+05
   6.459587e+04  -3.458134e+05
   3.593522e+05   6.499028e+04
   4.192817e+05   2.222759e+05
   2.224200e+05   5.552775e+04
  -3.404268e+03  -9.723083e+04
  -7.315680e+04   4.714749e+04
  -6.273282e+04   3.630067e+05
  -1.536930e+05   4.518964e+05
  -3.311893e+05   1.046589e+05
  -3.534291e+05  -4.162735e+05
  -4.947935e+04  -6.093145e+05
   4.052105e+05  -2.643510e+05
   5.784971e+05   2.952308e+05
   2.070200e+05   5.521476e+05
  -4.531455e+05   3.286784e+05
  -7.839173e+05  -9.555675e+04
  -4.261142e+05  -3.510385e+05
   2.728623e+05  -3.292915e+05
   5.774141e+05  -1.604192e+05
   1.898032e+05  -6.912879e+03
  -3.793808e+05   2.152586e+04
  -4.009537e+05  -1.180972e+05
   2.022995e+05  -3.055792e+05
   7.651192e+05  -2.498501e+05
