
 $NMID
 id='ANONYMOUS ', fmtdat='(2E16.6)'
 volume=1.0
 tramp=1.0
 $END
   2.165663e+07  -2.498132e+06
   1.643451e+07   8.755888e+06
   1.857977e+06   1.435548e+07
  -9.073068e+06   1.059286e+07
  -8.650952e+06   1.586596e+06
  -9.345943e+05  -4.270001e+06
   4.761420e+06  -2.427530e+06
   3.887287e+06   3.605178e+06
  -8.172369e+05   6.524973e+06
  -4.220242e+06   3.154183e+06
  -3.804410e+06  -2.622027e+06
  -7.012651e+05  -4.611303e+06
   2.008132e+06  -1.065677e+06
   1.783507e+06   3.826625e+06
  -1.186380e+06   4.745078e+06
  -3.853158e+06   7.469791e+05
  -3.189065e+06  -4.216516e+06
   5.304425e+05  -5.701793e+06
   3.951828e+06  -3.025816e+06
   4.286529e+06   8.119421e+05
   2.078936e+06   2.693281e+06
   1.381005e+05   2.266659e+06
   3.221968e+05   1.487638e+06
   1.749323e+06   1.991198e+06
   1.902045e+06   3.341018e+06
  -6.476086e+05   3.737217e+06
  -4.382840e+06   2.103626e+06
  -5.880154e+06  -6.881933e+05
  -3.316682e+06  -2.592651e+06
   1.109615e+06  -2.270461e+06
   3.133410e+06  -2.454369e+05
   1.068032e+06   1.606159e+06
  -2.374657e+06   1.623955e+06
  -3.419944e+06  -3.048613e+05
  -1.478256e+06  -2.585034e+06
   8.613851e+05  -3.149017e+06
   1.378734e+06  -1.383474e+06
   4.094879e+05   9.737871e+05
  -4.056787e+05   1.378641e+06
  -1.992723e+05  -6.408464e+05
   7.458117e+05  -2.614085e+06
   1.672192e+06  -1.872104e+06
   1.720879e+06   1.069482e+06
   3.809962e+05   2.861837e+06
  -1.595526e+06   1.303310e+06
  -2.221565e+06  -1.950733e+06
  -2.396907e+05  -3.328381e+06
   2.954521e+06  -1.402122e+06
   4.250479e+06   1.823562e+06
   2.078497e+06   3.404974e+06
  -1.737567e+06   2.350267e+06
  -3.773482e+06  -7.788620e+03
  -2.447506e+06  -1.665372e+06
   5.859613e+05  -1.579707e+06
   2.328554e+06  -2.225872e+05
   1.449383e+06   9.531637e+05
  -6.096503e+05   8.002528e+05
  -1.385578e+06  -4.034762e+05
  -1.044633e+05  -1.217707e+06
   1.528508e+06  -6.250404e+05
   1.344570e+06   8.058534e+05
  -7.065391e+05   1.535998e+06
  -2.395654e+06   6.626450e+05
  -1.692923e+06  -1.261023e+06
   9.971019e+05  -2.767239e+06
   3.351721e+06  -2.598270e+06
   3.596402e+06  -6.050405e+05
   2.049548e+06   2.019809e+06
   3.255799e+05   3.535240e+06
  -4.804519e+05   3.157620e+06
  -5.843902e+05   1.799214e+06
  -8.135745e+05   9.372082e+05
  -1.519328e+06   8.170889e+05
  -2.220339e+06   3.525415e+05
  -2.121654e+06  -1.065697e+06
  -9.141700e+05  -2.362677e+06
   8.164208e+05  -1.964456e+06
   1.902590e+06   1.319368e+05
   1.466372e+06   2.130408e+06
  -2.813572e+05   2.314088e+06
  -2.054461e+06   7.072069e+05
  -2.500305e+06  -1.224996e+06
  -1.408282e+06  -2.136397e+06
   1.126040e+05  -1.850864e+06
   8.291086e+05  -1.144004e+06
   7.321185e+05  -8.046391e+05
   9.259450e+05  -8.916710e+05
   2.059458e+06  -7.534127e+05
   3.195085e+06   2.343805e+05
   2.687919e+06   1.880460e+06
   2.069237e+05   3.143901e+06
  -2.537802e+06   2.980127e+06
  -3.381195e+06   1.313383e+06
  -1.883565e+06  -7.666961e+05
   3.062104e+05  -1.812368e+06
   1.201759e+06  -1.220587e+06
   3.625500e+05   1.915267e+05
  -9.688478e+05   9.117993e+05
  -1.336182e+06   2.667834e+05
  -4.880557e+05  -8.131290e+05
   5.567282e+05  -8.601796e+05
   6.379060e+05   2.758019e+05
  -3.987871e+05   1.066971e+06
  -1.548176e+06   1.053384e+05
  -1.548073e+06  -2.038481e+06
  -2.637493e+04  -3.248300e+06
   2.082789e+06  -2.154193e+06
   3.231266e+06   4.084405e+05
   2.533768e+06   2.352304e+06
   5.622597e+05   2.431283e+06
  -1.110726e+06   1.185528e+06
  -1.322248e+06   6.642890e+04
  -3.879912e+05  -3.524566e+04
   2.997550e+05   5.752330e+05
  -1.815934e+05   9.394524e+05
  -1.249451e+06   4.785132e+05
  -1.508990e+06  -4.491904e+05
  -4.449928e+05  -9.483628e+05
   8.579981e+05  -5.342519e+05
   8.821734e+05   3.410604e+05
  -5.615218e+05   7.274472e+05
  -2.005540e+06   1.114475e+05
  -1.842186e+06  -1.088690e+06
  -2.419354e+04  -1.884888e+06
   1.873668e+06  -1.562556e+06
   2.238325e+06  -3.108544e+05
   9.558515e+05   8.717420e+05
  -6.064360e+05   1.020078e+06
  -1.010369e+06   1.418583e+05
  -6.917651e+04  -7.207372e+05
   1.133804e+06  -5.552709e+05
   1.385423e+06   4.978920e+05
   4.717232e+05   1.291553e+06
  -7.119148e+05   9.871110e+05
  -1.074420e+06  -5.148907e+03
  -3.832467e+05  -5.533323e+05
   5.153250e+05  -1.014966e+05
   5.414554e+05   7.804218e+05
  -4.852414e+05   1.079871e+06
  -1.579862e+06   3.701703e+05
  -1.563920e+06  -8.382868e+05
  -3.196913e+05  -1.592171e+06
   1.042263e+06  -1.307739e+06
   1.331751e+06  -2.603265e+05
   4.870814e+05   6.450892e+05
  -4.721200e+05   6.949206e+05
  -6.056286e+05   4.426733e+04
   1.877015e+04  -4.898829e+05
   5.637972e+05  -3.539919e+05
   4.081419e+05   1.388803e+05
  -2.215176e+05   2.366547e+05
  -5.358291e+05  -3.119612e+05
  -1.382652e+04  -9.165402e+05
   1.025052e+06  -7.711351e+05
   1.646194e+06   2.742917e+05
   1.162937e+06   1.504495e+06
  -1.595749e+05   1.958589e+06
  -1.309713e+06   1.275895e+06
  -1.501459e+06   1.174070e+04
  -8.954082e+05  -8.653473e+05
  -2.895891e+05  -8.581719e+05
  -1.812052e+05  -3.578593e+05
  -2.973787e+05  -1.406840e+05
  -6.427765e+04  -4.623001e+05
   6.212883e+05  -7.687725e+05
   1.200094e+06  -3.818345e+05
   9.926705e+05   6.194473e+05
  -1.017235e+05   1.350638e+06
  -1.391460e+06   9.946379e+05
  -1.867109e+06  -3.351158e+05
  -1.028684e+06  -1.634008e+06
   6.155955e+05  -1.893450e+06
   1.899264e+06  -9.736589e+05
   1.975980e+06   3.342189e+05
   1.019839e+06   1.074830e+06
  -4.520130e+04   9.794660e+05
  -4.761303e+05   5.865241e+05
  -3.257485e+05   5.434896e+05
  -1.876065e+05   8.549604e+05
  -4.620276e+05   9.062592e+05
  -9.337656e+05   2.300128e+05
  -1.026381e+06  -8.627782e+05
  -4.299439e+05  -1.510763e+06
   5.109027e+05  -1.143543e+06
   1.044138e+06  -3.959542e+04
   7.120196e+05   9.394656e+05
  -1.678634e+05   1.113890e+06
  -7.870080e+05   5.040654e+05
  -6.586087e+05  -3.064653e+05
  -9.106846e+04  -7.404888e+05
   2.146279e+05  -6.785466e+05
  -1.063858e+04  -4.261398e+05
  -3.015498e+05  -3.061363e+05
  -2.181948e+04  -3.204687e+05
   8.413744e+05  -2.103487e+05
   1.543912e+06   1.951615e+05
   1.298460e+06   7.407546e+05
   1.193777e+05   1.057377e+06
  -1.098313e+06   8.903776e+05
  -1.409994e+06   3.333835e+05
  -7.340951e+05  -2.204850e+05
   1.257328e+05  -3.811067e+05
   3.683922e+05  -1.060784e+05
  -1.416202e+04   2.248055e+05
  -4.030301e+05   1.694395e+05
  -3.628578e+05  -2.713218e+05
  -7.197994e+04  -5.953284e+05
   4.270886e+04  -3.750742e+05
  -1.339511e+05   1.620813e+05
  -3.322185e+05   3.312016e+05
  -2.465071e+05  -1.721205e+05
   1.766885e+05  -8.215801e+05
   7.023057e+05  -8.285369e+05
   9.239558e+05  -7.799239e+04
   5.315587e+05   7.118843e+05
  -3.127582e+05   7.892982e+05
  -8.995572e+05   1.600949e+05
  -5.608615e+05  -4.932038e+05
   5.279624e+05  -5.493528e+05
   1.333601e+06   6.142138e+03
   9.802434e+05   6.729897e+05
  -2.717122e+05   9.136187e+05
  -1.253805e+06   5.636450e+05
  -1.114667e+06  -6.854241e+04
  -1.713657e+05  -4.497788e+05
   5.118936e+05  -2.807170e+05
   2.729358e+05   1.894626e+05
  -5.184195e+05   3.504002e+05
  -9.229224e+05  -1.559425e+05
  -4.176773e+05  -9.794751e+05
   6.014990e+05  -1.298749e+06
   1.244973e+06  -6.149057e+05
   9.954201e+05   6.589535e+05
   1.371353e+05   1.471650e+06
  -6.123392e+05   1.109346e+06
  -7.814821e+05  -7.028459e+04
  -4.296549e+05  -9.655336e+05
   8.450742e+04  -8.570463e+05
   4.304372e+05  -1.155146e+05
   4.495174e+05   3.345542e+05
   2.115317e+05   1.500001e+05
   1.132330e+04  -1.074674e+05
   1.148907e+05   1.658765e+05
   3.692827e+05   7.527786e+05
   2.498841e+05   9.070749e+05
  -4.677114e+05   3.530569e+05
  -1.210379e+06  -3.861224e+05
  -1.129687e+06  -6.946847e+05
  -1.624772e+05  -5.480083e+05
   7.729912e+05  -3.155108e+05
   8.330681e+05  -1.713658e+05
   2.300381e+05  -1.458690e+04
  -1.494803e+05   1.686871e+05
   5.916583e+04   2.276724e+05
   3.076181e+05   1.477646e+05
  -6.716970e+02   1.084417e+05
  -6.392272e+05   1.304430e+05
  -8.263704e+05  -4.803112e+04
  -1.958901e+05  -5.236300e+05
   7.772121e+05  -8.651914e+05
   1.297876e+06  -5.265639e+05
   9.986924e+05   4.018597e+05
   1.633442e+05   1.146712e+06
  -6.015052e+05   1.068999e+06
  -8.388608e+05   3.535612e+05
  -5.309556e+05  -2.520909e+05
  -6.097275e+04  -2.820111e+05
   1.341816e+05   1.808597e+04
  -4.347561e+04   8.391063e+04
  -2.877020e+05  -2.763823e+05
  -2.289036e+05  -6.584758e+05
   1.693467e+05  -5.202728e+05
   5.556231e+05   1.739668e+05
   5.150748e+05   8.298967e+05
  -2.410925e+04   8.046723e+05
  -6.518419e+05   9.022530e+04
  -7.787663e+05  -6.728520e+05
  -2.045704e+05  -8.662006e+05
   5.873144e+05  -4.636959e+05
   8.479501e+05   9.572126e+04
   3.751941e+05   4.289823e+05
  -2.213977e+05   4.581742e+05
  -2.318383e+05   2.816061e+05
   2.761870e+05   5.510778e+04
   5.420747e+05  -5.615814e+03
   8.713658e+04   2.292101e+05
  -6.744485e+05   5.451994e+05
  -9.579209e+05   4.889543e+05
  -5.371929e+05  -7.613337e+04
   9.238641e+04  -6.628357e+05
   3.787161e+05  -6.566089e+05
   2.532369e+05  -7.650137e+04
  -1.262532e+04   4.129268e+05
  -2.074776e+05   2.990919e+05
  -2.741661e+05  -1.971974e+05
  -1.830750e+05  -4.684905e+05
   5.869342e+04  -2.721319e+05
   3.051286e+05   7.370236e+04
   3.593707e+05   1.775556e+05
   1.992638e+05   3.512756e+04
   3.233249e+03  -5.788417e+04
  -8.240838e+04   8.333575e+04
  -1.051244e+05   3.158810e+05
  -1.814927e+05   3.382776e+05
  -2.857427e+05   2.918655e+04
  -2.507728e+05  -3.846211e+05
   1.696588e+04  -5.143467e+05
   3.647006e+05  -2.035334e+05
   4.718818e+05   2.768805e+05
   1.517711e+05   4.883543e+05
  -3.896248e+05   2.771079e+05
  -6.581784e+05  -1.021140e+05
  -3.556819e+05  -3.097017e+05
   2.342554e+05  -2.609555e+05
   4.865783e+05  -1.073465e+05
   1.419135e+05  -7.294528e+03
  -3.504493e+05  -2.245732e+04
  -3.450610e+05  -1.449769e+05
   2.131893e+05  -2.696549e+05
   7.086063e+05  -1.853543e+05
