
 $NMID
 id='ANONYMOUS ', fmtdat='(2E16.6)'
 volume=1.0
 tramp=1.0
 $END
  -4.126908e+07  -1.354522e+05
  -2.611564e+07  -2.300393e+07
   3.115063e+06  -2.727335e+07
   1.937540e+07  -1.366137e+07
   1.353537e+07   2.210825e+06
  -9.685733e+05   7.188498e+06
  -7.848651e+06   1.118144e+06
  -3.947838e+06  -7.041743e+06
   3.517494e+06  -8.937563e+06
   7.478566e+06  -3.055070e+06
   5.815124e+06   4.968736e+06
   6.400233e+05   7.391599e+06
  -3.420509e+06   1.892355e+06
  -2.424059e+06  -5.471475e+06
   2.711226e+06  -6.461335e+06
   6.349148e+06   2.261917e+05
   4.086143e+06   7.842059e+06
  -2.431648e+06   9.428192e+06
  -7.671142e+06   4.567684e+06
  -7.969137e+06  -1.932740e+06
  -4.193376e+06  -5.621850e+06
  -3.178862e+04  -5.527577e+06
   1.236056e+06  -3.596081e+06
  -5.708238e+05  -2.581419e+06
  -2.032882e+06  -3.601974e+06
   4.868563e+05  -4.837086e+06
   5.988494e+06  -3.456059e+06
   8.910073e+06   6.241686e+05
   5.554694e+06   4.090481e+06
  -9.714646e+05   4.042488e+06
  -4.242802e+06   1.217506e+06
  -1.981217e+06  -1.385649e+06
   2.165881e+06  -1.782030e+06
   3.779027e+06   1.941804e+04
   2.159563e+06   2.760480e+06
  -4.859366e+05   4.291843e+06
  -2.031203e+06   2.712548e+06
  -1.734036e+06  -9.917292e+05
  -2.551988e+05  -2.764930e+06
   6.204372e+05  -2.592875e+05
  -4.839942e+05   3.210926e+06
  -2.443857e+06   2.430700e+06
  -2.303363e+06  -2.278509e+06
   9.283917e+05  -4.767226e+06
   4.230595e+06  -1.177324e+06
   3.671717e+06   4.693715e+06
  -9.360018e+05   6.190385e+06
  -5.608443e+06   1.880212e+06
  -6.223004e+06  -3.560930e+06
  -2.282506e+06  -5.328202e+06
   2.930010e+06  -2.938874e+06
   5.205873e+06   7.803097e+05
   2.893482e+06   2.857325e+06
  -1.550122e+06   2.105364e+06
  -3.744978e+06  -3.577943e+05
  -1.893762e+06  -1.969219e+06
   1.261720e+06  -1.161294e+06
   1.822460e+06   7.989176e+05
  -4.722976e+05   1.302808e+06
  -2.168468e+06  -3.018549e+05
  -6.823307e+05  -2.018232e+06
   2.565484e+06  -1.831516e+06
   4.084718e+06   2.201729e+05
   2.191966e+06   2.758690e+06
  -1.742871e+06   4.416055e+06
  -4.995287e+06   4.024669e+06
  -5.609251e+06   1.042582e+06
  -3.513740e+06  -3.139162e+06
  -4.753721e+05  -5.519147e+06
   1.304971e+06  -4.502203e+06
   1.212607e+06  -1.908757e+06
   6.800514e+05  -6.808894e+05
   1.244041e+06  -1.142734e+06
   2.566954e+06  -1.048016e+06
   2.973407e+06   8.303547e+05
   1.595491e+06   2.811864e+06
  -6.883751e+05   2.542555e+06
  -2.223228e+06  -2.555897e+04
  -1.879953e+06  -2.643652e+06
   2.909771e+05  -3.138058e+06
   2.903168e+06  -1.211008e+06
   3.912445e+06   1.639188e+06
   2.393453e+06   3.444612e+06
  -2.593923e+05   3.296955e+06
  -1.737456e+06   1.991780e+06
  -1.569268e+06   1.045566e+06
  -1.530679e+06   9.532459e+05
  -2.918356e+06   7.402799e+05
  -4.412067e+06  -6.200229e+05
  -3.591781e+06  -2.784107e+06
  -1.265339e+05  -4.308569e+06
   3.517377e+06  -4.009377e+06
   4.585235e+06  -1.880361e+06
   2.669694e+06   8.694373e+05
  -1.785050e+05   2.451546e+06
  -1.500094e+06   1.804936e+06
  -5.406984e+05  -1.864263e+05
   1.284859e+06  -1.279137e+06
   1.909507e+06  -3.371471e+05
   7.572730e+05   1.204935e+06
  -6.983593e+05   1.168318e+06
  -6.899096e+05  -3.877650e+05
   7.745714e+05  -1.120383e+06
   1.973898e+06   5.049430e+05
   1.421436e+06   3.115720e+06
  -7.156462e+05   4.001585e+06
  -3.004484e+06   2.131718e+06
  -3.969021e+06  -1.000406e+06
  -2.968002e+06  -3.108296e+06
  -6.041941e+05  -3.087732e+06
   1.462995e+06  -1.564220e+06
   1.756685e+06  -1.189889e+05
   5.245102e+05   5.958918e+04
  -3.782284e+05  -7.962401e+05
   3.611941e+05  -1.321551e+06
   1.844503e+06  -5.812276e+05
   2.064766e+06   7.974860e+05
   4.848837e+05   1.380619e+06
  -1.208460e+06   6.471335e+05
  -1.083053e+06  -4.854878e+05
   8.197299e+05  -7.851854e+05
   2.535265e+06   9.034545e+04
   2.204842e+06   1.485948e+06
  -1.223061e+05   2.354351e+06
  -2.536009e+06   1.920852e+06
  -3.005473e+06   3.053305e+05
  -1.262150e+06  -1.279296e+06
   9.287104e+05  -1.446708e+06
   1.495349e+06  -1.512753e+05
   1.129389e+05   1.057585e+06
  -1.588798e+06   7.286133e+05
  -1.836725e+06  -7.797707e+05
  -4.847992e+05  -1.755762e+06
   1.062116e+06  -1.184242e+06
   1.392059e+06   1.681305e+05
   3.920814e+05   7.830838e+05
  -7.603315e+05   8.150947e+04
  -7.290490e+05  -1.104530e+06
   6.750974e+05  -1.475344e+06
   2.157715e+06  -4.870953e+05
   2.118353e+06   1.179346e+06
   3.733490e+05   2.190466e+06
  -1.502813e+06   1.727637e+06
  -1.822347e+06   2.577435e+05
  -5.866997e+05  -9.047881e+05
   6.828281e+05  -8.896442e+05
   7.634311e+05  -5.841719e+04
  -6.766462e+04   5.423643e+05
  -6.620585e+05   3.686126e+05
  -3.798818e+05  -1.294058e+05
   3.603849e+05  -1.375978e+05
   6.294685e+05   5.522790e+05
  -1.095792e+05   1.240690e+06
  -1.443929e+06   9.729420e+05
  -2.216081e+06  -4.497955e+05
  -1.524841e+06  -2.088421e+06
   2.771121e+05  -2.620425e+06
   1.780631e+06  -1.601061e+06
   1.931490e+06   7.946555e+04
   1.075139e+06   1.094338e+06
   3.689425e+05   9.747900e+05
   3.576998e+05   3.999196e+05
   5.021117e+05   2.732235e+05
   6.757926e+04   7.078317e+05
  -8.998462e+05   9.851800e+05
  -1.595620e+06   4.146034e+05
  -1.236763e+06  -8.290573e+05
   2.179195e+05  -1.707382e+06
   1.885274e+06  -1.224384e+06
   2.463051e+06   5.289178e+05
   1.267468e+06   2.247344e+06
  -9.904216e+05   2.518511e+06
  -2.650540e+06   1.164621e+06
  -2.585042e+06  -6.078921e+05
  -1.200749e+06  -1.456905e+06
   1.401224e+05  -1.185275e+06
   5.538525e+05  -6.884021e+05
   3.117458e+05  -7.739137e+05
   2.317935e+05  -1.259627e+06
   6.981105e+05  -1.271677e+06
   1.322298e+06  -2.901525e+05
   1.382292e+06   1.194942e+06
   5.446589e+05   2.050745e+06
  -7.133849e+05   1.530158e+06
  -1.395758e+06   1.632287e+03
  -8.913604e+05  -1.329982e+06
   3.387912e+05  -1.486980e+06
   1.141734e+06  -5.460448e+05
   8.552767e+05   5.713513e+05
  -1.281658e+04   1.053703e+06
  -4.246959e+05   8.631940e+05
  -3.531015e+04   5.164922e+05
   4.254648e+05   4.029164e+05
   3.599211e+04   4.263281e+05
  -1.179705e+06   2.303612e+05
  -2.128769e+06  -3.535692e+05
  -1.719091e+06  -1.083797e+06
  -4.052675e+04  -1.467923e+06
   1.603202e+06  -1.168608e+06
   1.931801e+06  -3.427809e+05
   9.325257e+05   4.113833e+05
  -2.320108e+05   5.456885e+05
  -5.167174e+05   8.508580e+04
   1.128120e+04  -3.683441e+05
   5.226312e+05  -2.415910e+05
   4.938692e+05   3.783142e+05
   1.560091e+05   8.033409e+05
  -4.872623e+02   5.170263e+05
   1.652862e+05  -1.672141e+05
   3.880954e+05  -3.890574e+05
   3.113580e+05   2.447597e+05
  -2.222405e+05   1.087717e+06
  -9.803043e+05   1.109402e+06
  -1.345698e+06   1.038404e+05
  -7.811605e+05  -9.951356e+05
   4.623693e+05  -1.123435e+06
   1.284964e+06  -2.469339e+05
   7.596331e+05   6.614670e+05
  -7.437245e+05   7.054958e+05
  -1.755132e+06  -8.169891e+04
  -1.199110e+06  -9.319071e+05
   4.498418e+05  -1.144405e+06
   1.660477e+06  -6.234711e+05
   1.419483e+06   1.633911e+05
   1.838032e+05   5.839384e+05
  -6.974521e+05   3.253758e+05
  -3.795709e+05  -2.919432e+05
   6.831108e+05  -5.014163e+05
   1.259939e+06   1.824886e+05
   6.101615e+05   1.318963e+06
  -7.722125e+05   1.781555e+06
  -1.666425e+06   8.561934e+05
  -1.334053e+06  -8.835145e+05
  -1.636894e+05  -1.966651e+06
   8.380794e+05  -1.436585e+06
   1.022166e+06   1.554814e+05
   5.032454e+05   1.300347e+06
  -1.864800e+05   1.097608e+06
  -5.918288e+05   1.136344e+05
  -5.528778e+05  -4.381429e+05
  -2.348675e+05  -1.780126e+05
  -3.279351e+04   1.237177e+05
  -2.121467e+05  -2.771363e+05
  -5.001282e+05  -1.039961e+06
  -2.564602e+05  -1.196122e+06
   7.012530e+05  -4.338245e+05
   1.604460e+06   5.419502e+05
   1.441981e+06   9.439685e+05
   1.950042e+05   7.490916e+05
  -9.962447e+05   4.239434e+05
  -1.098031e+06   1.965843e+05
  -3.432282e+05  -2.584561e+04
   1.861905e+05  -2.333379e+05
  -2.337323e+04  -2.629074e+05
  -3.560597e+05  -1.554036e+05
  -2.238430e+04  -1.478811e+05
   8.004356e+05  -2.041575e+05
   1.123457e+06   6.165263e+04
   3.444972e+05   7.407432e+05
  -1.009511e+06   1.204147e+06
  -1.809208e+06   7.242476e+05
  -1.424773e+06  -5.394852e+05
  -2.299345e+05  -1.541465e+06
   8.480593e+05  -1.447217e+06
   1.146521e+06  -5.059673e+05
   7.106135e+05   3.101865e+05
   1.047431e+05   3.882324e+05
  -1.352234e+05   2.345967e+04
   6.987094e+04  -6.523876e+04
   3.497061e+05   3.884811e+05
   2.733636e+05   8.846256e+05
  -2.259010e+05   7.148840e+05
  -7.439943e+05  -1.970639e+05
  -7.298303e+05  -1.092556e+06
  -2.360872e+04  -1.106772e+06
   8.566130e+05  -1.808235e+05
   1.074199e+06   8.662062e+05
   3.044501e+05   1.182548e+06
  -7.977166e+05   6.650659e+05
  -1.175790e+06  -1.283800e+05
  -5.254952e+05  -6.314986e+05
   3.205937e+05  -6.685674e+05
   3.678544e+05  -3.784071e+05
  -3.227616e+05  -4.404440e+04
  -7.187067e+05   1.346460e+04
  -1.311601e+05  -3.248832e+05
   9.139117e+05  -7.195436e+05
   1.333975e+06  -5.963234e+05
   7.674485e+05   1.640280e+05
  -1.322267e+05   9.153942e+05
  -5.705944e+05   8.922909e+05
  -4.054146e+05   1.270994e+05
  -1.249120e+04  -5.409759e+05
   2.794301e+05  -4.330117e+05
   3.757712e+05   2.197193e+05
   2.503639e+05   6.335923e+05
  -7.888596e+04   4.139557e+05
  -4.178730e+05  -8.144051e+04
  -4.922886e+05  -2.809509e+05
  -2.619673e+05  -7.996481e+04
   1.098013e+04   1.219344e+05
   9.467859e+04  -3.218869e+04
   6.970041e+04  -4.091107e+05
   1.637121e+05  -5.303744e+05
   3.751061e+05  -1.332648e+05
   4.133829e+05   4.774400e+05
   6.161280e+04   7.057572e+05
  -4.742553e+05   3.016526e+05
  -6.748139e+05  -3.520636e+05
  -2.307031e+05  -6.460065e+05
   5.444528e+05  -3.747836e+05
   9.217146e+05   1.273173e+05
   4.925965e+05   4.227751e+05
  -3.264385e+05   3.874693e+05
  -6.810352e+05   1.837323e+05
  -2.321767e+05   8.027694e+03
   4.273705e+05  -1.921760e+04
   4.556762e+05   1.379593e+05
  -2.377197e+05   3.392456e+05
  -8.849812e+05   2.635173e+05
