
 $NMID
 id='ANONYMOUS ', fmtdat='(2E16.6)'
 volume=1.0
 tramp=1.0
 $END
   5.142183e+07  -1.495041e+06
   3.235328e+07   3.036173e+07
  -5.134619e+06   3.497489e+07
  -2.474953e+07   1.490766e+07
  -1.577050e+07  -5.298856e+06
   2.426387e+06  -8.776244e+06
   9.289647e+06   3.845719e+05
   3.287689e+06   8.928854e+06
  -5.275002e+06   9.281370e+06
  -8.951737e+06   2.460454e+06
  -6.698312e+06  -5.618131e+06
  -9.232182e+05  -8.103049e+06
   3.685468e+06  -2.550044e+06
   2.584792e+06   5.301746e+06
  -3.347623e+06   6.503314e+06
  -7.414897e+06  -8.498175e+05
  -4.524289e+06  -9.334855e+06
   3.085475e+06  -1.109035e+07
   9.138692e+06  -5.716597e+06
   9.909250e+06   1.681780e+06
   6.079973e+06   6.644496e+06
   8.016875e+05   7.644012e+06
  -2.214297e+06   5.448562e+06
  -1.166067e+06   2.777180e+06
   1.262290e+06   2.520059e+06
   7.538577e+04   4.215584e+06
  -5.338260e+06   4.104887e+06
  -9.212675e+06   3.636672e+05
  -6.581097e+06  -3.867860e+06
  -5.470940e+04  -4.630492e+06
   3.671416e+06  -2.191014e+06
   2.220070e+06   2.833898e+05
  -1.028263e+06   1.051945e+06
  -2.580507e+06   2.942854e+05
  -2.085099e+06  -1.708558e+06
  -4.111175e+05  -3.865998e+06
   1.708004e+06  -3.497946e+06
   2.736717e+06   1.988335e+05
   1.402823e+06   3.238134e+06
  -6.010754e+05   1.483421e+06
  -1.131823e+05  -2.550758e+06
   2.387814e+06  -2.325190e+06
   2.455245e+06   2.862549e+06
  -1.847757e+06   5.786973e+06
  -6.122967e+06   1.279256e+06
  -4.867031e+06  -6.082628e+06
   1.388725e+06  -7.853295e+06
   6.764378e+06  -2.431091e+06
   6.742614e+06   4.016049e+06
   2.036441e+06   5.745840e+06
  -3.255630e+06   2.792315e+06
  -5.212251e+06  -1.244651e+06
  -2.576567e+06  -3.261614e+06
   2.121998e+06  -2.209381e+06
   4.287548e+06   6.654856e+05
   1.972593e+06   2.452232e+06
  -1.543300e+06   1.336711e+06
  -1.754107e+06  -9.357894e+05
   1.093865e+06  -1.066117e+06
   2.459722e+06   1.302065e+06
  -1.468868e+05   3.096926e+06
  -3.986063e+06   2.027173e+06
  -4.974776e+06  -9.026419e+05
  -2.362899e+06  -3.555071e+06
   1.640165e+06  -4.977080e+06
   4.806992e+06  -4.608117e+06
   5.869784e+06  -1.644721e+06
   4.264975e+06   2.977594e+06
   9.196357e+05   5.854925e+06
  -1.612212e+06   4.671421e+06
  -1.614886e+06   1.430531e+06
  -3.505340e+05  -3.428977e+04
  -2.976263e+05   9.325462e+05
  -1.762270e+06   1.533755e+06
  -2.745900e+06  -1.486889e+04
  -1.857318e+06  -2.078828e+06
   1.568879e+05  -2.173677e+06
   1.688390e+06  -1.218191e+05
   1.697633e+06   2.184342e+06
  -4.915581e+04   2.926125e+06
  -2.712709e+06   1.540419e+06
  -4.244648e+06  -1.198788e+06
  -3.021746e+06  -3.527997e+06
  -1.479192e+04  -3.906473e+06
   2.022993e+06  -2.547864e+06
   2.006161e+06  -1.164167e+06
   1.735714e+06  -7.836789e+05
   2.905047e+06  -5.771638e+05
   4.323286e+06   6.657754e+05
   3.497955e+06   2.698403e+06
   1.650177e+05   4.118579e+06
  -3.205470e+06   3.898059e+06
  -4.185749e+06   2.057524e+06
  -2.604112e+06  -4.994345e+05
  -1.701912e+05  -2.231887e+06
   1.157574e+06  -1.865615e+06
   5.417871e+05   6.684397e+04
  -1.109161e+06   1.287383e+06
  -1.877945e+06   3.991821e+05
  -8.829723e+05  -1.171265e+06
   5.491286e+05  -1.108860e+06
   4.937635e+05   3.983718e+05
  -1.001741e+06   8.260623e+05
  -1.929958e+06  -1.064480e+06
  -8.943077e+05  -3.395091e+06
   1.354388e+06  -3.590452e+06
   3.121612e+06  -1.396029e+06
   3.476980e+06   1.322207e+06
   2.427910e+06   2.832933e+06
   4.841889e+05   2.703284e+06
  -1.271552e+06   1.473207e+06
  -1.595433e+06   2.054200e+05
  -4.950290e+05  -4.525874e+04
   3.650696e+05   7.541686e+05
  -3.826318e+05   1.333348e+06
  -1.871179e+06   5.984681e+05
  -2.039334e+06  -8.408051e+05
  -4.211955e+05  -1.400282e+06
   1.172403e+06  -5.938167e+05
   9.308339e+05   4.644839e+05
  -8.488263e+05   5.900216e+05
  -2.265547e+06  -2.649946e+05
  -1.842952e+06  -1.388855e+06
   2.229605e+05  -2.055287e+06
   2.343666e+06  -1.711586e+06
   2.804824e+06  -2.919698e+05
   1.230074e+06   1.249734e+06
  -8.957130e+05   1.487162e+06
  -1.529421e+06   1.996026e+05
  -1.918595e+05  -1.060345e+06
   1.515250e+06  -7.409082e+05
   1.741827e+06   7.672904e+05
   3.768295e+05   1.671779e+06
  -1.083894e+06   1.028818e+06
  -1.292374e+06  -2.765631e+05
  -2.827975e+05  -7.861397e+05
   7.872734e+05  -7.114409e+04
   7.399336e+05   1.051452e+06
  -5.822802e+05   1.428411e+06
  -2.020202e+06   5.400467e+05
  -2.045370e+06  -1.055958e+06
  -3.935023e+05  -2.083800e+06
   1.434617e+06  -1.662621e+06
   1.738288e+06  -2.295581e+05
   5.226560e+05   8.731719e+05
  -6.594758e+05   8.221966e+05
  -6.562388e+05   6.847411e+04
   1.166415e+05  -4.037063e+05
   5.354040e+05  -2.355677e+05
   1.741736e+05   9.587843e+04
  -4.424000e+05  -1.867700e+04
  -5.546060e+05  -6.443613e+05
   1.754589e+05  -1.201024e+06
   1.383807e+06  -9.178414e+05
   2.101431e+06   4.064147e+05
   1.481081e+06   1.952393e+06
  -2.161783e+05   2.448071e+06
  -1.639452e+06   1.449690e+06
  -1.735474e+06  -1.149002e+05
  -8.935539e+05  -9.389124e+05
  -3.102684e+05  -7.159450e+05
  -4.390078e+05  -2.421926e+05
  -6.038372e+05  -2.870789e+05
  -9.855577e+04  -7.451906e+05
   8.719102e+05  -9.216393e+05
   1.473781e+06  -3.477593e+05
   1.083586e+06   7.417564e+05
  -2.433344e+05   1.508386e+06
  -1.745833e+06   1.105905e+06
  -2.283106e+06  -4.812178e+05
  -1.167651e+06  -2.117616e+06
   9.865946e+05  -2.397885e+06
   2.550799e+06  -1.072877e+06
   2.397821e+06   6.376088e+05
   1.006850e+06   1.363887e+06
  -1.987567e+05   9.971081e+05
  -4.283817e+05   5.366699e+05
  -1.191364e+05   7.377389e+05
  -1.115406e+05   1.282357e+06
  -6.573969e+05   1.283795e+06
  -1.287533e+06   3.234572e+05
  -1.344059e+06  -1.086690e+06
  -5.615161e+05  -1.910113e+06
   6.282397e+05  -1.449510e+06
   1.302292e+06  -4.522063e+03
   8.351358e+05   1.283827e+06
  -3.696793e+05   1.415886e+06
  -1.158904e+06   4.460993e+05
  -8.331182e+05  -6.630444e+05
   8.698219e+04  -1.075625e+06
   5.090905e+05  -8.089552e+05
   7.774086e+04  -4.386382e+05
  -4.288289e+05  -3.415409e+05
  -5.652129e+04  -3.873954e+05
   1.148641e+06  -2.240924e+05
   2.069337e+06   3.160535e+05
   1.638682e+06   1.030767e+06
  -8.697842e+03   1.441989e+06
  -1.574684e+06   1.158524e+06
  -1.845309e+06   3.020556e+05
  -8.611605e+05  -4.744652e+05
   2.460562e+05  -5.674369e+05
   5.140301e+05  -4.898686e+04
   3.187459e+04   4.056135e+05
  -4.512914e+05   2.535056e+05
  -4.834039e+05  -3.422915e+05
  -2.377523e+05  -7.242589e+05
  -8.129390e+04  -4.757436e+05
  -1.462251e+05   1.070618e+05
  -3.020346e+05   3.040764e+05
  -2.833869e+05  -2.330432e+05
   1.504867e+05  -9.971159e+05
   9.012492e+05  -1.076194e+06
   1.348334e+06  -1.812799e+05
   8.434660e+05   9.097811e+05
  -4.064578e+05   1.135913e+06
  -1.248193e+06   3.356949e+05
  -7.369268e+05  -5.791516e+05
   7.044924e+05  -6.617597e+05
   1.615118e+06   8.821634e+04
   1.039905e+06   8.769905e+05
  -4.792007e+05   1.020898e+06
  -1.528902e+06   5.049899e+05
  -1.265455e+06  -1.876311e+05
  -1.418349e+05  -5.271173e+05
   6.583830e+05  -2.811194e+05
   3.877534e+05   2.890398e+05
  -5.906279e+05   5.196534e+05
  -1.187795e+06  -8.494303e+04
  -6.694024e+05  -1.186662e+06
   5.966015e+05  -1.709213e+06
   1.494819e+06  -8.898381e+05
   1.268765e+06   7.637650e+05
   2.082956e+05   1.811827e+06
  -7.494472e+05   1.316591e+06
  -9.441060e+05  -1.715845e+05
  -4.466003e+05  -1.209874e+06
   2.168733e+05  -9.929348e+05
   5.699334e+05  -9.205240e+04
   4.761913e+05   3.873417e+05
   1.688192e+05   1.465593e+05
   4.906919e+04  -1.004348e+05
   2.817823e+05   2.856567e+05
   5.183943e+05   9.712324e+05
   2.004667e+05   1.099195e+06
  -7.172758e+05   4.116165e+05
  -1.494549e+06  -4.665959e+05
  -1.302581e+06  -8.491638e+05
  -1.919102e+05  -7.060993e+05
   8.638449e+05  -4.212683e+05
   9.985546e+05  -1.871814e+05
   3.667670e+05   4.531288e+04
  -1.465338e+05   2.261965e+05
  -3.635553e+04   2.161329e+05
   2.666795e+05   1.031911e+05
   5.089573e+04   1.316485e+05
  -6.668405e+05   2.338094e+05
  -1.056516e+06  -4.548214e+03
  -4.419091e+05  -6.860363e+05
   8.398227e+05  -1.189024e+06
   1.708245e+06  -7.812468e+05
   1.425715e+06   4.171151e+05
   2.868276e+05   1.417328e+06
  -7.637507e+05   1.399082e+06
  -1.052674e+06   5.527146e+05
  -6.604932e+05  -2.308164e+05
  -1.386436e+05  -3.583989e+05
   6.531391e+04  -6.187622e+04
  -8.753110e+04   1.921853e+04
  -3.083343e+05  -3.738913e+05
  -2.553404e+05  -8.191068e+05
   1.741091e+05  -6.874886e+05
   6.846412e+05   1.164761e+05
   7.523841e+05   9.496808e+05
   1.305008e+05   1.034310e+06
  -7.500749e+05   2.564909e+05
  -1.047913e+06  -7.132039e+05
  -3.656246e+05  -1.093900e+06
   7.086069e+05  -6.937488e+05
   1.131787e+06   5.999769e+04
   5.506982e+05   6.128856e+05
  -2.774453e+05   6.928497e+05
  -3.820794e+05   3.825761e+05
   2.437260e+05   1.184859e+04
   6.543688e+05  -4.499332e+04
   1.539549e+05   3.085737e+05
  -8.294755e+05   6.936498e+05
  -1.277179e+06   5.604152e+05
  -7.820225e+05  -1.690717e+05
   8.606771e+04  -8.812243e+05
   5.513730e+05  -8.787586e+05
   4.286642e+05  -1.779189e+05
   5.906673e+04   4.784733e+05
  -2.328234e+05   4.442140e+05
  -3.514045e+05  -1.408940e+05
  -2.635857e+05  -5.800035e+05
   4.202829e+04  -4.353351e+05
   3.934568e+05   3.855610e+04
   4.897653e+05   2.800267e+05
   2.499842e+05   9.790612e+04
  -4.349648e+04  -1.522940e+05
  -9.389890e+04  -5.083374e+04
   1.912497e+04   3.457575e+05
  -2.763970e+04   5.506610e+05
  -3.057871e+05   2.303128e+05
  -4.675871e+05  -3.638945e+05
  -1.746918e+05  -6.415949e+05
   4.032783e+05  -3.225849e+05
   6.749290e+05   2.668396e+05
   2.641034e+05   5.714506e+05
  -5.096786e+05   3.783501e+05
  -8.942235e+05  -5.950455e+04
  -4.906078e+05  -3.741966e+05
   2.877077e+05  -4.128325e+05
   6.395322e+05  -2.456135e+05
   2.568904e+05  -2.733904e+04
  -3.374390e+05   7.179743e+04
  -4.033788e+05  -5.486861e+04
   1.646612e+05  -2.867975e+05
   7.383433e+05  -2.750966e+05
