
 $NMID
 id='ANONYMOUS ', fmtdat='(2E16.6)'
 volume=1.0
 tramp=1.0
 $END
   3.891182e+07   1.693646e+05
   2.427486e+07   2.173284e+07
  -3.160456e+06   2.551818e+07
  -1.804826e+07   1.261213e+07
  -1.239764e+07  -2.123727e+06
   9.689007e+05  -6.617429e+06
   7.173190e+06  -9.944385e+05
   3.596084e+06   6.467745e+06
  -3.184648e+06   8.207467e+06
  -6.879672e+06   2.821363e+06
  -5.477437e+06  -4.601547e+06
  -6.952483e+05  -6.903903e+06
   3.210332e+06  -1.833182e+06
   2.391734e+06   5.031245e+06
  -2.408333e+06   5.990631e+06
  -5.880875e+06  -2.074304e+05
  -3.830803e+06  -7.297777e+06
   2.247649e+06  -8.808440e+06
   7.198599e+06  -4.308481e+06
   7.547496e+06   1.802679e+06
   3.995658e+06   5.359119e+06
  -2.680713e+04   5.300606e+06
  -1.298840e+06   3.349932e+06
   4.853638e+05   2.217488e+06
   2.035776e+06   3.169834e+06
  -2.587735e+05   4.524400e+06
  -5.514331e+06   3.430236e+06
  -8.390682e+06  -3.705491e+05
  -5.310674e+06  -3.766308e+06
   8.249083e+05  -3.900800e+06
   3.980242e+06  -1.323540e+06
   1.989030e+06   1.215334e+06
  -1.845027e+06   1.779771e+06
  -3.481610e+06   1.977460e+05
  -2.163917e+06  -2.458026e+06
   2.746139e+05  -4.061256e+06
   1.889139e+06  -2.628067e+06
   1.755216e+06   9.462608e+05
   3.022116e+05   2.695609e+06
  -6.910801e+05   3.123348e+05
   2.860077e+05  -3.017832e+06
   2.200974e+06  -2.308032e+06
   2.134556e+06   2.105838e+06
  -9.018650e+05   4.397370e+06
  -3.995911e+06   9.997100e+05
  -3.424079e+06  -4.457173e+06
   9.205148e+05  -5.793485e+06
   5.269344e+06  -1.775623e+06
   5.827712e+06   3.240717e+06
   2.179467e+06   4.887306e+06
  -2.654598e+06   2.750224e+06
  -4.799654e+06  -6.331377e+05
  -2.690626e+06  -2.575071e+06
   1.429346e+06  -1.934574e+06
   3.476069e+06   3.191210e+05
   1.754724e+06   1.816143e+06
  -1.175812e+06   1.084801e+06
  -1.691059e+06  -7.012421e+05
   4.150102e+05  -1.146072e+06
   1.931819e+06   3.081947e+05
   5.309958e+05   1.824543e+06
  -2.424849e+06   1.621840e+06
  -3.766398e+06  -2.361123e+05
  -2.021188e+06  -2.565074e+06
   1.572266e+06  -4.169519e+06
   4.595597e+06  -3.886370e+06
   5.252059e+06  -1.090002e+06
   3.377597e+06   2.903109e+06
   5.471606e+05   5.168693e+06
  -1.144284e+06   4.181299e+06
  -1.054532e+06   1.734237e+06
  -5.295280e+05   6.457437e+05
  -1.064292e+06   1.171341e+06
  -2.369320e+06   1.130418e+06
  -2.846727e+06  -6.453153e+05
  -1.626065e+06  -2.565894e+06
   5.221323e+05  -2.409423e+06
   2.052899e+06  -8.469551e+04
   1.838540e+06   2.372096e+06
  -1.696744e+05   2.931454e+06
  -2.690738e+06   1.220322e+06
  -3.723616e+06  -1.448612e+06
  -2.315038e+06  -3.209736e+06
   2.175420e+05  -3.118993e+06
   1.637079e+06  -1.881983e+06
   1.464805e+06  -9.654417e+05
   1.391548e+06  -8.889346e+05
   2.673795e+06  -7.436336e+05
   4.096875e+06   4.727670e+05
   3.395830e+06   2.491204e+06
   2.314007e+05   3.988577e+06
  -3.150048e+06   3.820846e+06
  -4.211446e+06   1.891307e+06
  -2.529024e+06  -7.250729e+05
   7.446847e+04  -2.302466e+06
   1.342729e+06  -1.743641e+06
   5.177437e+05   1.558385e+05
  -1.156760e+06   1.232316e+06
  -1.768745e+06   3.601679e+05
  -7.377557e+05  -1.112324e+06
   6.097698e+05  -1.111161e+06
   6.384570e+05   3.255627e+05
  -6.751522e+05   1.019921e+06
  -1.783956e+06  -4.467527e+05
  -1.333765e+06  -2.819331e+06
   5.655574e+05  -3.644451e+06
   2.672559e+06  -1.996691e+06
   3.648153e+06   8.078095e+05
   2.822677e+06   2.752277e+06
   6.600386e+05   2.821155e+06
  -1.305217e+06   1.497338e+06
  -1.628024e+06   1.683759e+05
  -4.878636e+05  -4.037512e+04
   3.717302e+05   7.270840e+05
  -3.084690e+05   1.232079e+06
  -1.701221e+06   5.773045e+05
  -1.927085e+06  -6.944046e+05
  -4.749250e+05  -1.264771e+06
   1.099880e+06  -6.278019e+05
   1.010346e+06   4.105338e+05
  -7.249436e+05   7.341723e+05
  -2.323487e+06  -9.884211e+03
  -2.070243e+06  -1.289814e+06
   3.718661e+04  -2.162522e+06
   2.280841e+06  -1.846114e+06
   2.770496e+06  -3.676543e+05
   1.199889e+06   1.154777e+06
  -8.326264e+05   1.367215e+06
  -1.390198e+06   1.715317e+05
  -1.311050e+05  -9.865733e+05
   1.455720e+06  -7.182182e+05
   1.717455e+06   6.734199e+05
   4.911547e+05   1.603472e+06
  -9.450369e+05   1.112228e+06
  -1.279561e+06  -1.207813e+05
  -3.754732e+05  -7.071686e+05
   7.035753e+05  -8.911998e+04
   7.059984e+05   1.007117e+06
  -5.850794e+05   1.390045e+06
  -1.989572e+06   5.147189e+05
  -1.999256e+06  -1.034959e+06
  -4.053069e+05  -2.020703e+06
   1.346881e+06  -1.638791e+06
   1.678105e+06  -2.855732e+05
   5.640758e+05   8.187930e+05
  -6.062751e+05   8.393315e+05
  -7.030421e+05   8.195355e+04
   3.924575e+04  -4.932872e+05
   5.868761e+05  -3.628659e+05
   3.490725e+05   8.961031e+04
  -3.193127e+05   1.200182e+05
  -5.830436e+05  -4.952985e+05
   7.384267e+04  -1.144590e+06
   1.309829e+06  -9.370653e+05
   2.064130e+06   3.557428e+05
   1.471026e+06   1.893326e+06
  -1.803322e+05   2.434598e+06
  -1.595346e+06   1.530678e+06
  -1.780680e+06  -1.401194e+04
  -1.028021e+06  -9.665935e+05
  -3.863381e+05  -8.785073e+05
  -3.597798e+05  -3.640829e+05
  -4.747942e+05  -2.532651e+05
  -7.561703e+04  -6.597256e+05
   8.056301e+05  -9.329571e+05
   1.458549e+06  -4.280852e+05
   1.166564e+06   7.228568e+05
  -1.464949e+05   1.576528e+06
  -1.703753e+06   1.184819e+06
  -2.292331e+06  -4.170844e+05
  -1.232617e+06  -2.040985e+06
   8.517785e+05  -2.352185e+06
   2.419376e+06  -1.143354e+06
   2.399267e+06   4.905065e+05
   1.145685e+06   1.301703e+06
  -8.820236e+04   1.087951e+06
  -4.779458e+05   6.560545e+05
  -2.600118e+05   7.420700e+05
  -1.845097e+05   1.186307e+06
  -6.193016e+05   1.199179e+06
  -1.221845e+06   3.027322e+05
  -1.316968e+06  -1.069592e+06
  -5.643698e+05  -1.885489e+06
   6.165810e+05  -1.439465e+06
   1.290539e+06  -4.122887e+04
   8.575849e+05   1.206482e+06
  -2.763091e+05   1.380159e+06
  -1.037899e+06   5.249474e+05
  -7.954676e+05  -5.133029e+05
  -5.409364e+03  -9.711352e+05
   3.735785e+05  -7.989219e+05
   1.572956e+04  -4.720628e+05
  -4.095386e+05  -3.620337e+05
  -4.738234e+04  -3.948703e+05
   1.087061e+06  -2.419765e+05
   1.982961e+06   2.741854e+05
   1.619480e+06   9.574880e+05
   6.979825e+04   1.354456e+06
  -1.459240e+06   1.120956e+06
  -1.776276e+06   3.665560e+05
  -8.643052e+05  -3.570662e+05
   2.061537e+05  -5.106929e+05
   4.736550e+05  -8.873321e+04
  -4.298476e+03   3.478198e+05
  -4.774840e+05   2.429707e+05
  -4.693210e+05  -3.375371e+05
  -1.736017e+05  -7.462457e+05
  -1.852886e+04  -4.858074e+05
  -1.428180e+05   1.578146e+05
  -3.391177e+05   3.739588e+05
  -2.939014e+05  -2.168844e+05
   1.703071e+05  -1.016572e+06
   8.781946e+05  -1.056464e+06
   1.253544e+06  -1.287042e+05
   7.573110e+05   9.083186e+05
  -4.031856e+05   1.058029e+06
  -1.193527e+06   2.644874e+05
  -7.259902e+05  -5.910573e+05
   6.683695e+05  -6.723322e+05
   1.622583e+06   2.414047e+04
   1.130553e+06   8.199986e+05
  -3.814587e+05   1.062600e+06
  -1.508756e+06   6.219400e+05
  -1.310658e+06  -1.065426e+05
  -1.868839e+05  -5.308475e+05
   6.336275e+05  -3.187935e+05
   3.590294e+05   2.631960e+05
  -6.203033e+05   4.898601e+05
  -1.178916e+06  -1.303605e+05
  -6.102917e+05  -1.209965e+06
   6.624920e+05  -1.683220e+06
   1.522593e+06  -8.487342e+05
   1.265357e+06   7.786408e+05
   2.118036e+05   1.817869e+06
  -7.302228e+05   1.353904e+06
  -9.462356e+05  -1.150073e+05
  -5.013573e+05  -1.185358e+06
   1.400878e+05  -1.014261e+06
   5.432605e+05  -1.194359e+05
   5.238609e+05   3.844360e+05
   2.218600e+05   1.520109e+05
   2.615463e+04  -1.127949e+05
   2.050356e+05   2.597262e+05
   4.940331e+05   9.523849e+05
   2.709067e+05   1.093853e+06
  -6.394694e+05   4.149531e+05
  -1.502330e+06  -4.535456e+05
  -1.360956e+06  -8.261004e+05
  -2.012097e+05  -6.882535e+05
   9.085552e+05  -4.277978e+05
   1.008679e+06  -2.155785e+05
   3.179887e+05   1.974945e+04
  -1.651447e+05   2.240711e+05
   2.933235e+04   2.352834e+05
   3.347630e+05   1.251591e+05
   2.686589e+04   1.387484e+05
  -7.348623e+05   2.213003e+05
  -1.045928e+06  -2.360199e+04
  -3.453549e+05  -6.867478e+05
   9.010409e+05  -1.154832e+06
   1.663350e+06  -7.234820e+05
   1.345260e+06   4.640725e+05
   2.615365e+05   1.424694e+06
  -7.465721e+05   1.366768e+06
  -1.052764e+06   5.055157e+05
  -6.713972e+05  -2.637134e+05
  -1.100506e+05  -3.598025e+05
   1.255793e+05  -3.336251e+04
  -5.959640e+04   5.819695e+04
  -3.323402e+05  -3.479276e+05
  -2.784194e+05  -8.097589e+05
   1.889506e+05  -6.718291e+05
   6.996263e+05   1.571043e+05
   7.157732e+05   9.932813e+05
   5.788005e+04   1.033327e+06
  -7.932828e+05   2.002521e+05
  -1.029047e+06  -7.705968e+05
  -3.195304e+05  -1.092235e+06
   7.242662e+05  -6.442220e+05
   1.098053e+06   8.614108e+04
   5.040173e+05   5.759337e+05
  -2.833037e+05   6.323591e+05
  -3.339899e+05   3.576952e+05
   2.999534e+05   2.456677e+04
   6.664951e+05  -3.586726e+04
   1.313167e+05   2.999950e+05
  -8.256312e+05   6.943617e+05
  -1.218117e+06   5.859916e+05
  -7.154524e+05  -1.371708e+05
   9.733012e+04  -8.548845e+05
   5.076394e+05  -8.411954e+05
   3.793264e+05  -1.266168e+05
   3.160344e+04   5.032735e+05
  -2.487931e+05   4.127680e+05
  -3.600031e+05  -1.896804e+05
  -2.518410e+05  -5.810938e+05
   6.466708e+04  -3.902405e+05
   3.924825e+05   6.212554e+04
   4.626274e+05   2.495999e+05
   2.423642e+05   6.809881e+04
  -1.126484e+04  -1.174372e+05
  -7.881753e+04   2.826535e+04
  -4.549789e+04   3.869268e+05
  -1.362653e+05   5.098696e+05
  -3.515454e+05   1.429574e+05
  -4.074436e+05  -4.341404e+05
  -8.387415e+04  -6.615705e+05
   4.321997e+05  -2.980273e+05
   6.419389e+05   3.080831e+05
   2.368650e+05   5.940972e+05
  -4.956074e+05   3.629938e+05
  -8.630837e+05  -9.233106e+04
  -4.707479e+05  -3.790413e+05
   2.951379e+05  -3.714111e+05
   6.319258e+05  -1.920537e+05
   2.181820e+05  -1.087544e+04
  -3.971437e+05   3.839045e+04
  -4.315237e+05  -1.091511e+05
   2.046255e+05  -3.246996e+05
   8.096289e+05  -2.786747e+05
