
 $NMID
 id='ANONYMOUS ', fmtdat='(2E16.6)'
 volume=1.0
 tramp=1.0
 $END
  -2.783087e+07  -4.341814e+05
  -1.798507e+07  -1.423034e+07
   1.067824e+06  -1.787167e+07
   1.251715e+07  -1.060547e+07
   9.715018e+06  -8.145039e+04
   1.157793e+05   4.945119e+06
  -5.509672e+06   1.835894e+06
  -3.640065e+06  -4.580356e+06
   1.733343e+06  -7.061383e+06
   5.176434e+06  -2.897159e+06
   4.297230e+06   3.569741e+06
   4.864634e+05   5.577474e+06
  -2.593830e+06   1.235219e+06
  -1.970030e+06  -4.460090e+06
   1.730477e+06  -5.225210e+06
   4.541460e+06  -2.463627e+05
   3.170152e+06   5.460090e+06
  -1.479157e+06   6.743379e+06
  -5.343829e+06   3.172610e+06
  -5.423203e+06  -1.592121e+06
  -2.446441e+06  -3.944000e+06
   3.268314e+05  -3.330969e+06
   4.364998e+05  -1.912275e+06
  -1.434135e+06  -1.946257e+06
  -2.126866e+06  -3.444411e+06
   6.063752e+05  -4.250264e+06
   5.128395e+06  -2.546978e+06
   7.046133e+06   8.858943e+05
   4.003726e+06   3.335046e+06
  -1.268098e+06   2.975205e+06
  -3.717572e+06   5.430921e+05
  -1.508309e+06  -1.676811e+06
   2.317723e+06  -1.883069e+06
   3.699376e+06   1.043277e+05
   1.845741e+06   2.760645e+06
  -7.969907e+05   3.718910e+06
  -1.781664e+06   1.807354e+06
  -8.912097e+05  -1.211947e+06
   3.696505e+05  -1.987565e+06
   5.231508e+05   4.399416e+05
  -6.488591e+05   2.961860e+06
  -1.960229e+06   2.058617e+06
  -1.808837e+06  -1.485770e+06
   1.842676e+05  -3.296520e+06
   2.371322e+06  -9.395979e+05
   2.375235e+06   2.988214e+06
  -4.296309e+05   4.101239e+06
  -3.874006e+06   1.296058e+06
  -4.789889e+06  -2.527928e+06
  -2.057074e+06  -4.029684e+06
   2.134509e+06  -2.496052e+06
   4.202403e+06   2.891752e+05
   2.551725e+06   2.034643e+06
  -9.029879e+05   1.665102e+06
  -2.730363e+06  -6.236726e+04
  -1.517007e+06  -1.296216e+06
   8.449589e+05  -8.619380e+05
   1.520512e+06   5.370198e+05
  -1.656334e+04   1.179130e+06
  -1.583290e+06   3.317348e+05
  -1.020247e+06  -1.020703e+06
   1.272797e+06  -1.394523e+06
   2.809521e+06  -2.465143e+05
   1.710962e+06   1.761934e+06
  -1.398162e+06   3.290416e+06
  -4.075336e+06   3.017070e+06
  -4.376546e+06   6.049343e+05
  -2.484165e+06  -2.572375e+06
  -2.323081e+05  -4.270975e+06
   8.139068e+05  -3.560931e+06
   7.254960e+05  -1.814865e+06
   7.092951e+05  -9.506081e+05
   1.493463e+06  -1.066085e+06
   2.491488e+06  -6.351323e+05
   2.543867e+06   1.055958e+06
   1.203823e+06   2.638188e+06
  -7.911716e+05   2.268606e+06
  -2.082682e+06  -5.273664e+04
  -1.666788e+06  -2.343471e+06
   3.072862e+05  -2.653695e+06
   2.427910e+06  -8.519953e+05
   3.011052e+06   1.498354e+06
   1.649023e+06   2.703578e+06
  -3.111193e+05   2.340345e+06
  -1.223953e+06   1.331934e+06
  -1.016362e+06   7.986169e+05
  -1.106438e+06   8.819154e+05
  -2.345683e+06   7.327361e+05
  -3.615109e+06  -4.019240e+05
  -2.994633e+06  -2.231188e+06
  -1.557925e+05  -3.575190e+06
   2.936542e+06  -3.355669e+06
   3.884749e+06  -1.503494e+06
   2.208891e+06   8.536323e+05
  -2.866914e+05   2.103120e+06
  -1.364256e+06   1.454970e+06
  -4.409350e+05  -2.033536e+05
   1.107706e+06  -1.051360e+06
   1.551253e+06  -2.733645e+05
   5.652650e+05   9.776810e+05
  -6.205086e+05   9.898701e+05
  -6.678818e+05  -2.897215e+05
   4.768684e+05  -1.070784e+06
   1.613281e+06   7.114000e+04
   1.478041e+06   2.330052e+06
  -1.590372e+05   3.451747e+06
  -2.313429e+06   2.164346e+06
  -3.479353e+06  -5.606780e+05
  -2.741798e+06  -2.598693e+06
  -6.091027e+05  -2.685933e+06
   1.256494e+06  -1.338033e+06
   1.503933e+06  -8.158005e+04
   4.407980e+05   4.653685e+04
  -3.261449e+05  -6.573265e+05
   2.566153e+05  -1.064213e+06
   1.462190e+06  -4.906618e+05
   1.691507e+06   5.825126e+05
   4.503201e+05   1.091872e+06
  -9.794252e+05   5.717693e+05
  -9.623755e+05  -3.800802e+05
   6.286409e+05  -7.491225e+05
   2.187051e+06  -6.648156e+04
   1.998225e+06   1.208106e+06
  -6.213291e+02   2.059572e+06
  -2.113251e+06   1.706916e+06
  -2.526912e+06   3.072795e+05
  -1.058162e+06  -1.025549e+06
   7.419843e+05  -1.161503e+06
   1.185685e+06  -1.218679e+05
   6.733442e+04   8.497274e+05
  -1.307677e+06   6.090044e+05
  -1.545532e+06  -6.022510e+05
  -4.811015e+05  -1.450829e+06
   8.210241e+05  -1.057030e+06
   1.177024e+06   5.039095e+04
   3.894760e+05   6.196869e+05
  -5.945771e+05   8.297562e+04
  -5.991386e+05  -9.061447e+05
   5.696855e+05  -1.225619e+06
   1.806046e+06  -4.008544e+05
   1.768376e+06   9.813390e+05
   3.284330e+05   1.817786e+06
  -1.218516e+06   1.454841e+06
  -1.510722e+06   2.559965e+05
  -5.249116e+05  -7.349312e+05
   5.455678e+05  -7.658696e+05
   6.718638e+05  -5.774886e+04
  -1.636408e+04   5.104533e+05
  -5.925183e+05   3.808834e+05
  -4.185745e+05  -1.123358e+05
   2.419864e+05  -1.982574e+05
   5.547221e+05   3.853676e+05
  -3.308880e+04   1.022556e+06
  -1.180508e+06   8.381109e+05
  -1.856638e+06  -3.484971e+05
  -1.289362e+06  -1.731958e+06
   2.103174e+05  -2.212125e+06
   1.483126e+06  -1.405213e+06
   1.664717e+06   9.489686e+03
   9.869152e+05   9.461026e+05
   3.506510e+05   9.197611e+05
   2.540083e+05   4.042391e+05
   3.535359e+05   2.074229e+05
   4.736991e+04   5.508233e+05
  -7.250191e+05   8.436393e+05
  -1.345360e+06   3.970152e+05
  -1.094608e+06  -6.944402e+05
   1.318574e+05  -1.487552e+06
   1.574186e+06  -1.083451e+06
   2.092545e+06   4.096189e+05
   1.114522e+06   1.859343e+06
  -7.572381e+05   2.111410e+06
  -2.169967e+06   1.033646e+06
  -2.194922e+06  -4.278895e+05
  -1.098987e+06  -1.201318e+06
   5.800083e+04  -1.058556e+06
   5.002999e+05  -6.487418e+05
   3.423771e+05  -6.526798e+05
   2.319389e+05  -1.009791e+06
   5.644539e+05  -1.031149e+06
   1.080911e+06  -2.381446e+05
   1.156809e+06   9.987669e+05
   4.662727e+05   1.720933e+06
  -5.944994e+05   1.290675e+06
  -1.175604e+06   2.456049e+04
  -7.714084e+05  -1.081379e+06
   2.307680e+05  -1.242042e+06
   8.999550e+05  -5.123615e+05
   7.084691e+05   3.967450e+05
   4.619167e+04   8.360420e+05
  -2.814259e+05   7.299370e+05
   4.891730e+03   4.582586e+05
   3.491150e+05   3.519532e+05
   2.523990e+04   3.651331e+05
  -9.645072e+05   2.083100e+05
  -1.754966e+06  -2.706976e+05
  -1.447824e+06  -8.732274e+05
  -8.337058e+04  -1.195122e+06
   1.288838e+06  -9.735869e+05
   1.597698e+06  -3.316827e+05
   7.954974e+05   2.804915e+05
  -1.713934e+05   4.314897e+05
  -4.159197e+05   9.633409e+04
   2.784286e+04  -2.785518e+05
   4.571383e+05  -1.987848e+05
   4.111670e+05   3.167308e+05
   9.616582e+04   6.906875e+05
  -3.545632e+04   4.414857e+05
   1.397896e+05  -1.704595e+05
   3.513415e+05  -3.675453e+05
   2.696627e+05   1.987614e+05
  -1.995701e+05   9.314387e+05
  -8.152077e+05   9.291353e+05
  -1.083502e+06   6.209192e+04
  -6.134634e+05  -8.380544e+05
   3.859048e+05  -9.074923e+05
   1.054494e+06  -1.719400e+05
   6.374738e+05   5.655836e+05
  -6.087969e+05   6.054920e+05
  -1.492540e+06  -3.100148e+04
  -1.069444e+06  -7.583695e+05
   3.257092e+05  -9.962885e+05
   1.397445e+06  -5.966024e+05
   1.229964e+06   9.223515e+04
   1.816899e+05   4.976106e+05
  -5.769539e+05   2.984287e+05
  -3.060495e+05  -2.308868e+05
   5.933771e+05  -4.072758e+05
   1.060134e+06   1.783200e+05
   4.839845e+05   1.127053e+06
  -6.878943e+05   1.492535e+06
  -1.424249e+06   7.030262e+05
  -1.128378e+06  -7.546270e+05
  -1.429504e+05  -1.668496e+06
   6.980462e+05  -1.239053e+06
   8.684705e+05   9.847822e+04
   4.592601e+05   1.087967e+06
  -1.137166e+05   9.435540e+05
  -4.864355e+05   1.130072e+05
  -4.954583e+05  -3.699785e+05
  -2.287983e+05  -1.549145e+05
  -1.491138e+04   1.125616e+05
  -1.372004e+05  -2.172945e+05
  -4.115574e+05  -8.682367e+05
  -2.588708e+05  -1.011276e+06
   5.490716e+05  -3.724292e+05
   1.363893e+06   4.495266e+05
   1.255777e+06   7.860477e+05
   1.717317e+05   6.242160e+05
  -8.685326e+05   3.625793e+05
  -9.359587e+05   1.835548e+05
  -2.637825e+05  -5.594719e+03
   1.677039e+05  -1.961588e+05
  -5.675160e+04  -2.355350e+05
  -3.393095e+05  -1.456624e+05
  -5.073038e+03  -1.283520e+05
   7.155322e+05  -1.645717e+05
   9.444705e+05   6.128601e+04
   2.378476e+05   6.241648e+05
  -8.866939e+05   9.995517e+05
  -1.503613e+06   5.841087e+05
  -1.160013e+06  -4.791891e+05
  -1.820241e+05  -1.308215e+06
   7.056027e+05  -1.208388e+06
   9.686516e+05  -4.028279e+05
   6.069734e+05   2.807471e+05
   7.275281e+04   3.283597e+05
  -1.477180e+05   1.991196e+03
   4.442926e+04  -7.817941e+04
   3.107990e+05   3.144391e+05
   2.458213e+05   7.437568e+05
  -1.981243e+05   5.960096e+05
  -6.371723e+05  -1.892682e+05
  -5.972176e+05  -9.474296e+05
   1.956644e+04  -9.342014e+05
   7.477424e+05  -1.211495e+05
   8.982162e+05   7.638673e+05
   2.332085e+05   9.985111e+05
  -6.819807e+05   5.355394e+05
  -9.756804e+05  -1.211043e+05
  -4.201692e+05  -5.116586e+05
   2.721887e+05  -5.318081e+05
   2.828515e+05  -3.079733e+05
  -3.049576e+05  -4.572877e+04
  -6.150946e+05   6.682570e+03
  -9.885677e+04  -2.694291e+05
   7.706352e+05  -6.108723e+05
   1.095860e+06  -5.227972e+05
   6.132061e+05   1.178531e+05
  -1.163245e+05   7.599302e+05
  -4.560792e+05   7.361791e+05
  -3.136793e+05   8.046648e+04
   5.022939e+03  -4.712846e+05
   2.442158e+05  -3.486719e+05
   3.219000e+05   2.134665e+05
   2.060695e+05   5.363869e+05
  -7.777978e+04   3.243656e+05
  -3.526373e+05  -8.170330e+04
  -4.026695e+05  -2.191645e+05
  -2.184790e+05  -5.026982e+04
  -7.807551e+03   8.249511e+04
   7.387814e+04  -7.262246e+04
   9.627077e+04  -3.678712e+05
   1.982378e+05  -4.229855e+05
   3.407914e+05  -6.253474e+04
   3.145139e+05   4.417169e+05
   1.037361e+03   6.061282e+05
  -4.168309e+05   2.412243e+05
  -5.518611e+05  -3.196592e+05
  -1.799902e+05  -5.586750e+05
   4.520780e+05  -3.096572e+05
   7.618773e+05   1.243279e+05
   4.061806e+05   3.594445e+05
  -2.788265e+05   3.047861e+05
  -5.704551e+05   1.263821e+05
  -1.742318e+05  -1.058478e+03
   3.945436e+05   3.778806e+03
   4.003286e+05   1.476807e+05
  -2.244791e+05   3.078026e+05
  -7.893360e+05   2.242336e+05
