
 $NMID
 id='ANONYMOUS ', fmtdat='(2E16.6)'
 volume=1.0
 tramp=1.0
 $END
  -2.446998e+07  -1.336328e+06
  -1.591462e+07  -1.137663e+07
   1.252873e+05  -1.504249e+07
   1.053527e+07  -1.064393e+07
   9.148045e+06  -1.705477e+06
   8.612511e+05   4.419254e+06
  -5.110614e+06   2.729205e+06
  -4.213123e+06  -3.892422e+06
   9.249016e+05  -7.340735e+06
   4.741312e+06  -3.395099e+06
   4.121525e+06   3.472132e+06
   3.718152e+05   5.578703e+06
  -2.636914e+06   9.669986e+05
  -2.032631e+06  -4.857926e+06
   1.500821e+06  -5.560090e+06
   4.284591e+06  -5.934839e+05
   3.162267e+06   5.040264e+06
  -1.221015e+06   6.326527e+06
  -4.928725e+06   2.793279e+06
  -4.781402e+06  -1.826615e+06
  -1.629618e+06  -3.686862e+06
   7.660261e+05  -2.460342e+06
  -2.797521e+04  -1.056439e+06
  -2.451167e+06  -1.936458e+06
  -2.714869e+06  -4.220269e+06
   9.096662e+05  -4.880589e+06
   5.821309e+06  -2.418538e+06
   7.392070e+06   1.440327e+06
   3.752408e+06   3.685083e+06
  -1.901377e+06   2.892410e+06
  -4.293178e+06   8.734586e+04
  -1.511472e+06  -2.372443e+06
   3.053888e+06  -2.422115e+06
   4.582135e+06   2.392231e+05
   2.034786e+06   3.480446e+06
  -1.296736e+06   4.199968e+06
  -2.068764e+06   1.526049e+06
  -4.366446e+05  -1.720728e+06
   9.978007e+05  -1.894360e+06
   5.906414e+05   1.106533e+06
  -9.807998e+05   3.521727e+06
  -2.109290e+06   2.265785e+06
  -1.846418e+06  -1.277018e+06
  -2.784897e+05  -2.979294e+06
   1.546476e+06  -9.331130e+05
   1.909726e+06   2.480361e+06
  -2.279832e+05   3.516771e+06
  -3.541355e+06   1.101575e+06
  -4.856326e+06  -2.449683e+06
  -2.340100e+06  -4.074517e+06
   2.099174e+06  -2.745158e+06
   4.480024e+06   5.046262e+04
   2.886469e+06   1.943752e+06
  -6.693329e+05   1.711621e+06
  -2.628634e+06   8.997272e+04
  -1.568047e+06  -1.128721e+06
   7.614163e+05  -8.247888e+05
   1.656741e+06   4.976205e+05
   3.085705e+05   1.371618e+06
  -1.522525e+06   8.733328e+05
  -1.504388e+06  -5.146904e+05
   6.186909e+05  -1.373438e+06
   2.523894e+06  -6.199583e+05
   1.735152e+06   1.459378e+06
  -1.533330e+06   3.229604e+06
  -4.437918e+06   2.942897e+06
  -4.541814e+06   3.528308e+05
  -2.276253e+06  -2.828117e+06
  -3.122384e+04  -4.388826e+06
   6.939488e+05  -3.709109e+06
   5.434372e+05  -2.180484e+06
   9.057675e+05  -1.397192e+06
   2.077125e+06  -1.275747e+06
   3.089219e+06  -4.545423e+05
   2.858363e+06   1.538066e+06
   1.172539e+06   3.202495e+06
  -1.110875e+06   2.628395e+06
  -2.509374e+06  -1.193275e+05
  -1.892107e+06  -2.736681e+06
   4.420773e+05  -2.950756e+06
   2.695240e+06  -7.505581e+05
   3.055789e+06   1.821073e+06
   1.444395e+06   2.843069e+06
  -4.716722e+05   2.184633e+06
  -1.156260e+06   1.133904e+06
  -8.515405e+05   7.912089e+05
  -1.066439e+06   1.035129e+06
  -2.507646e+06   8.825419e+05
  -3.911467e+06  -3.827211e+05
  -3.261968e+06  -2.409983e+06
  -1.679860e+05  -3.919690e+06
   3.280879e+06  -3.665075e+06
   4.353438e+06  -1.539312e+06
   2.403072e+06   1.095714e+06
  -4.764191e+05   2.369171e+06
  -1.631776e+06   1.531182e+06
  -4.724628e+05  -2.820251e+05
   1.273628e+06  -1.127106e+06
   1.675561e+06  -2.635715e+05
   5.409183e+05   1.063830e+06
  -7.402773e+05   1.091085e+06
  -8.187871e+05  -3.030951e+05
   3.854267e+05  -1.299315e+06
   1.744085e+06  -2.238756e+05
   1.863518e+06   2.329889e+06
   1.853931e+05   3.894238e+06
  -2.389480e+06   2.706839e+06
  -3.970661e+06  -4.048209e+05
  -3.226694e+06  -2.897114e+06
  -7.327414e+05  -3.065120e+06
   1.432727e+06  -1.485796e+06
   1.690099e+06  -5.097903e+04
   4.855396e+05   5.470280e+04
  -3.592545e+05  -7.242715e+05
   2.597908e+05  -1.133833e+06
   1.548975e+06  -5.211642e+05
   1.823440e+06   5.951459e+05
   5.160226e+05   1.156974e+06
  -1.067221e+06   6.439149e+05
  -1.113165e+06  -4.143242e+05
   6.510627e+05  -9.100183e+05
   2.478288e+06  -1.795260e+05
   2.333966e+06   1.326936e+06
   6.669729e+04   2.357104e+06
  -2.347595e+06   1.947055e+06
  -2.802645e+06   3.498207e+05
  -1.150973e+06  -1.106463e+06
   8.068841e+05  -1.223275e+06
   1.249458e+06  -1.079858e+05
   3.304658e+04   9.091406e+05
  -1.435099e+06   6.514619e+05
  -1.704540e+06  -6.430382e+05
  -5.766621e+05  -1.591575e+06
   8.615675e+05  -1.213315e+06
   1.309768e+06  -6.564370e+03
   4.741794e+05   6.609347e+05
  -6.253042e+05   9.827943e+04
  -6.440523e+05  -9.949532e+05
   6.489432e+05  -1.342156e+06
   2.001591e+06  -4.147212e+05
   1.935931e+06   1.102415e+06
   3.512098e+05   1.997149e+06
  -1.329965e+06   1.594966e+06
  -1.655671e+06   2.948210e+05
  -5.956174e+05  -8.003206e+05
   5.936787e+05  -8.563671e+05
   7.753280e+05  -5.830627e+04
   1.159033e+04   6.211825e+05
  -6.982078e+05   4.833342e+05
  -5.582422e+05  -1.337273e+05
   2.120593e+05  -2.967950e+05
   6.344991e+05   3.573871e+05
   7.733260e+03   1.112868e+06
  -1.286271e+06   9.334082e+05
  -2.046879e+06  -3.818256e+05
  -1.412830e+06  -1.913329e+06
   2.422574e+05  -2.454780e+06
   1.649216e+06  -1.589014e+06
   1.879663e+06  -1.894425e+04
   1.153731e+06   1.083904e+06
   4.109168e+05   1.113421e+06
   2.323510e+05   5.114334e+05
   3.270353e+05   2.112109e+05
   3.981195e+04   5.675571e+05
  -7.809217e+05   9.395767e+05
  -1.496512e+06   4.710009e+05
  -1.255075e+06  -7.766751e+05
   1.148921e+05  -1.693406e+06
   1.745952e+06  -1.232019e+06
   2.333129e+06   4.471641e+05
   1.256069e+06   2.047855e+06
  -7.978733e+05   2.325353e+06
  -2.365028e+06   1.166426e+06
  -2.445732e+06  -4.284546e+05
  -1.282368e+06  -1.325464e+06
   2.479940e+04  -1.229356e+06
   5.952294e+05  -7.755011e+05
   4.615661e+05  -7.187694e+05
   3.041533e+05  -1.068802e+06
   6.181550e+05  -1.099115e+06
   1.172010e+06  -2.440241e+05
   1.262834e+06   1.116483e+06
   5.006019e+05   1.909822e+06
  -6.718613e+05   1.425407e+06
  -1.305644e+06   3.193309e+04
  -8.610567e+05  -1.175394e+06
   2.228251e+05  -1.366256e+06
   9.503055e+05  -6.054628e+05
   7.719687e+05   3.718830e+05
   9.357004e+04   8.824221e+05
  -2.526340e+05   8.109670e+05
   2.951573e+04   5.301640e+05
   3.734936e+05   4.045582e+05
   1.935442e+04   4.094222e+05
  -1.044935e+06   2.330793e+05
  -1.908471e+06  -2.956651e+05
  -1.595616e+06  -9.511442e+05
  -1.228478e+05  -1.291692e+06
   1.386280e+06  -1.055298e+06
   1.750971e+06  -3.856348e+05
   8.896876e+05   2.627400e+05
  -1.726063e+05   4.512828e+05
  -4.453029e+05   1.247663e+05
   4.945433e+04  -2.773718e+05
   5.229656e+05  -2.082996e+05
   4.461359e+05   3.538783e+05
   6.483457e+04   7.769650e+05
  -7.746387e+04   4.926181e+05
   1.578218e+05  -2.142853e+05
   4.178373e+05  -4.397137e+05
   3.052725e+05   2.153949e+05
  -2.425913e+05   1.043272e+06
  -9.050563e+05   1.017122e+06
  -1.156322e+06   3.575004e+04
  -6.297328e+05  -9.346153e+05
   4.342881e+05  -9.663408e+05
   1.143859e+06  -1.456725e+05
   6.962954e+05   6.423062e+05
  -6.667198e+05   6.735292e+05
  -1.667327e+06  -2.012379e+04
  -1.230168e+06  -8.320657e+05
   3.263868e+05  -1.130882e+06
   1.558004e+06  -7.079465e+05
   1.395217e+06   7.830525e+04
   2.189798e+05   5.603552e+05
  -6.356218e+05   3.456610e+05
  -3.250070e+05  -2.464973e+05
   6.791229e+05  -4.299670e+05
   1.171377e+06   2.338486e+05
   4.939166e+05   1.269138e+06
  -8.157982e+05   1.635970e+06
  -1.605275e+06   7.425488e+05
  -1.243739e+06  -8.607575e+05
  -1.403214e+05  -1.861498e+06
   7.838852e+05  -1.390446e+06
   9.695770e+05   9.123673e+04
   5.275126e+05   1.207015e+06
  -1.000002e+05   1.064389e+06
  -5.310607e+05   1.357611e+05
  -5.717702e+05  -4.189753e+05
  -2.796420e+05  -1.812037e+05
  -7.172753e+03   1.324578e+05
  -1.127014e+05  -2.262066e+05
  -4.361437e+05  -9.606156e+05
  -3.116184e+05  -1.130021e+06
   5.764443e+05  -4.138082e+05
   1.517035e+06   5.107018e+05
   1.418937e+06   8.814272e+05
   1.895316e+05   6.880328e+05
  -9.937762e+05   3.938111e+05
  -1.050524e+06   2.069459e+05
  -2.701176e+05   6.447041e+03
   1.985229e+05  -2.139101e+05
  -9.259138e+04  -2.758573e+05
  -4.096299e+05  -1.810081e+05
   8.031903e+03  -1.454037e+05
   8.321536e+05  -1.647162e+05
   1.044260e+06   8.858480e+04
   2.082349e+05   6.925505e+05
  -1.028167e+06   1.080925e+06
  -1.654429e+06   6.050858e+05
  -1.241645e+06  -5.664610e+05
  -1.736826e+05  -1.460307e+06
   7.890090e+05  -1.321135e+06
   1.080299e+06  -4.131643e+05
   6.762505e+05   3.369018e+05
   6.276350e+04   3.656789e+05
  -1.934366e+05  -1.721578e+04
   3.836004e+04  -1.079024e+05
   3.559758e+05   3.418943e+05
   2.770002e+05   8.276618e+05
  -2.346302e+05   6.525021e+05
  -7.125911e+05  -2.399218e+05
  -6.322486e+05  -1.082074e+06
   7.008482e+04  -1.034977e+06
   8.524767e+05  -9.465797e+04
   9.774900e+05   8.890863e+05
   2.241982e+05   1.110527e+06
  -7.704608e+05   5.618068e+05
  -1.065872e+06  -1.577042e+05
  -4.401775e+05  -5.531155e+05
   3.087264e+05  -5.579014e+05
   2.929405e+05  -3.297729e+05
  -3.663093e+05  -6.420649e+04
  -6.901715e+05  -5.089413e+03
  -9.582938e+04  -2.952730e+05
   8.631311e+05  -6.710970e+05
   1.197444e+06  -5.848926e+05
   6.489909e+05   1.186172e+05
  -1.429480e+05   8.302704e+05
  -4.920952e+05   7.971859e+05
  -3.220085e+05   6.263161e+04
   2.659822e+04  -5.353361e+05
   2.821634e+05  -3.682338e+05
   3.571726e+05   2.665991e+05
   2.168788e+05   5.992671e+05
  -9.935404e+04   3.358694e+05
  -3.896315e+05  -1.071429e+05
  -4.334255e+05  -2.318520e+05
  -2.403021e+05  -4.300409e+04
  -2.400856e+04   7.226791e+04
   7.996191e+04  -1.208992e+05
   1.467432e+05  -4.254555e+05
   2.785330e+05  -4.414057e+05
   3.982029e+05  -1.847751e+04
   3.100963e+05   5.275689e+05
  -5.335423e+04   6.794492e+05
  -4.799926e+05   2.493464e+05
  -5.912357e+05  -3.813266e+05
  -1.785827e+05  -6.338180e+05
   4.987755e+05  -3.322690e+05
   8.287729e+05   1.623678e+05
   4.373665e+05   4.062823e+05
  -3.154729e+05   3.143761e+05
  -6.294892e+05   1.068908e+05
  -1.731564e+05  -9.502566e+03
   4.675913e+05   2.945025e+04
   4.548948e+05   1.985154e+05
  -2.761321e+05   3.568125e+05
  -9.176020e+05   2.376641e+05
