
 $NMID
 id='ANONYMOUS ', fmtdat='(2E16.6)'
 volume=1.0
 tramp=1.0
 $END
  -4.643909e+07  -1.912000e+06
  -2.716265e+07  -2.859239e+07
   6.371347e+06  -3.068693e+07
   2.260068e+07  -1.244131e+07
   1.378596e+07   4.861304e+06
  -2.336546e+06   7.626270e+06
  -8.193837e+06  -3.533611e+05
  -2.837171e+06  -7.934275e+06
   4.775105e+06  -8.370950e+06
   8.076832e+06  -2.093026e+06
   5.914102e+06   5.478373e+06
   5.009709e+05   7.613054e+06
  -3.616514e+06   2.119734e+06
  -2.340428e+06  -5.208786e+06
   3.160378e+06  -6.031218e+06
   6.650200e+06   9.679980e+05
   3.737872e+06   8.657414e+06
  -3.285080e+06   9.932622e+06
  -8.626514e+06   4.670547e+06
  -8.902202e+06  -2.236339e+06
  -4.926389e+06  -6.504405e+06
  -7.001683e+03  -6.822639e+06
   2.256194e+06  -4.440936e+06
   6.863933e+05  -2.282989e+06
  -1.564620e+06  -2.639227e+06
   8.848893e+04  -4.318011e+06
   5.505341e+06  -3.721954e+06
   8.899601e+06   2.055276e+05
   5.942174e+06   4.086827e+06
  -4.562818e+05   4.429097e+06
  -3.897689e+06   1.820195e+06
  -2.232027e+06  -6.926610e+05
   1.229319e+06  -1.396466e+06
   2.893143e+06  -3.295653e+05
   2.156983e+06   1.991794e+06
   1.049499e+05   3.993094e+06
  -1.945701e+06   3.127229e+06
  -2.446594e+06  -6.611234e+05
  -8.444026e+05  -3.180507e+06
   8.192277e+05  -1.038269e+06
  -1.913406e+04   2.744243e+06
  -2.337340e+06   2.212930e+06
  -2.143729e+06  -2.643179e+06
   1.787701e+06  -5.033775e+06
   5.330509e+06  -7.401750e+05
   3.926910e+06   5.706985e+06
  -1.644787e+06   6.902475e+06
  -6.268472e+06   1.814367e+06
  -6.128577e+06  -3.942159e+06
  -1.825410e+06  -5.376510e+06
   3.054528e+06  -2.591226e+06
   4.881961e+06   1.166642e+06
   2.424118e+06   3.005167e+06
  -1.922443e+06   1.943727e+06
  -3.874001e+06  -7.276285e+05
  -1.731802e+06  -2.258452e+06
   1.449309e+06  -1.146738e+06
   1.657476e+06   8.812280e+05
  -8.404784e+05   9.653415e+05
  -2.070043e+06  -1.044447e+06
   1.360659e+05  -2.493925e+06
   3.460573e+06  -1.553990e+06
   4.357179e+06   9.173083e+05
   1.996623e+06   3.242786e+06
  -1.808332e+06   4.573447e+06
  -4.861088e+06   4.156031e+06
  -5.677415e+06   1.215033e+06
  -3.814282e+06  -3.121322e+06
  -5.579233e+05  -5.598363e+06
   1.583482e+06  -4.334047e+06
   1.377744e+06  -1.411787e+06
   3.175062e+05  -2.305893e+05
   5.582682e+05  -1.106137e+06
   2.045010e+06  -1.414860e+06
   2.832247e+06   2.843960e+05
   1.775281e+06   2.296718e+06
  -2.967553e+05   2.278566e+06
  -1.805533e+06   1.254113e+05
  -1.709551e+06  -2.236515e+06
   1.492146e+05  -2.904936e+06
   2.743806e+06  -1.346564e+06
   4.009317e+06   1.431771e+06
   2.608616e+06   3.525354e+06
  -2.594110e+05   3.600957e+06
  -2.001013e+06   2.176336e+06
  -1.834436e+06   9.591911e+05
  -1.588379e+06   7.275412e+05
  -2.769473e+06   5.384694e+05
  -4.141314e+06  -7.059820e+05
  -3.329752e+06  -2.671672e+06
  -8.583319e+04  -4.009269e+06
   3.231101e+06  -3.744336e+06
   4.203337e+06  -1.888690e+06
   2.563754e+06   6.369230e+05
   4.462599e+04   2.265036e+06
  -1.263714e+06   1.799976e+06
  -5.376162e+05  -1.113284e+05
   1.144012e+06  -1.234763e+06
   1.826199e+06  -3.280997e+05
   7.875660e+05   1.171622e+06
  -5.844984e+05   1.093616e+06
  -5.216726e+05  -3.544150e+05
   8.573192e+05  -8.192429e+05
   1.741366e+06   8.837653e+05
   8.928649e+05   3.095585e+06
  -1.113271e+06   3.423898e+06
  -2.859743e+06   1.469913e+06
  -3.393912e+06  -1.163748e+06
  -2.470804e+06  -2.759369e+06
  -5.037126e+05  -2.694807e+06
   1.293340e+06  -1.441184e+06
   1.595670e+06  -1.617776e+05
   4.845220e+05   5.391828e+04
  -3.438220e+05  -7.399841e+05
   3.906533e+05  -1.260060e+06
   1.798335e+06  -5.219073e+05
   1.933841e+06   8.315680e+05
   3.894078e+05   1.332277e+06
  -1.135729e+06   5.651554e+05
  -9.298199e+05  -4.444927e+05
   7.830129e+05  -5.987286e+05
   2.213567e+06   2.062925e+05
   1.858258e+06   1.338684e+06
  -1.784362e+05   2.035407e+06
  -2.304297e+06   1.681415e+06
  -2.749858e+06   2.547020e+05
  -1.164747e+06  -1.227142e+06
   9.068043e+05  -1.397082e+06
   1.466239e+06  -1.372199e+05
   1.363141e+05   1.031215e+06
  -1.490517e+06   6.842706e+05
  -1.680955e+06  -7.604717e+05
  -3.710063e+05  -1.615663e+06
   1.026855e+06  -1.004683e+06
   1.242825e+06   2.427022e+05
   2.868847e+05   7.385480e+05
  -7.435449e+05   4.923676e+04
  -6.892290e+05  -1.039673e+06
   6.094321e+05  -1.382536e+06
   1.995392e+06  -4.779513e+05
   1.976234e+06   1.081551e+06
   3.418159e+05   2.038727e+06
  -1.419890e+06   1.590594e+06
  -1.690094e+06   2.040616e+05
  -5.065644e+05  -8.459681e+05
   6.443445e+05  -7.970628e+05
   6.637383e+05  -6.692675e+04
  -8.168736e+04   4.165762e+05
  -5.326890e+05   2.748555e+05
  -2.320177e+05  -7.060639e+04
   3.715668e+05  -4.847511e+03
   5.227130e+05   5.890477e+05
  -1.689846e+05   1.146030e+06
  -1.354070e+06   8.734099e+05
  -2.043665e+06  -4.304492e+05
  -1.409293e+06  -1.935783e+06
   2.515324e+05  -2.400827e+06
   1.619064e+06  -1.420719e+06
   1.712321e+06   1.050800e+05
   9.160920e+05   9.358129e+05
   3.427514e+05   7.617983e+05
   4.164399e+05   3.040742e+05
   5.374464e+05   3.017798e+05
   6.082105e+04   7.093573e+05
  -8.537448e+05   8.858480e+05
  -1.444109e+06   3.393697e+05
  -1.080968e+06  -7.358067e+05
   2.262667e+05  -1.494082e+06
   1.718238e+06  -1.077743e+06
   2.236482e+06   4.965261e+05
   1.121725e+06   2.075063e+06
  -9.787270e+05   2.309275e+06
  -2.479679e+06   1.013947e+06
  -2.332232e+06  -6.231473e+05
  -1.007951e+06  -1.323137e+06
   1.626335e+05  -9.971478e+05
   4.346017e+05  -5.716035e+05
   1.834866e+05  -7.471655e+05
   1.764158e+05  -1.238218e+06
   6.726089e+05  -1.216901e+06
   1.255610e+06  -2.761438e+05
   1.291637e+06   1.096764e+06
   5.129741e+05   1.886210e+06
  -6.460486e+05   1.411974e+06
  -1.275108e+06  -9.869643e+03
  -7.950452e+05  -1.251626e+06
   3.641046e+05  -1.362792e+06
   1.096437e+06  -4.282439e+05
   7.730077e+05   6.213869e+05
  -8.870661e+04   1.007634e+06
  -4.701442e+05   7.644478e+05
  -5.781750e+04   4.345998e+05
   4.119443e+05   3.562731e+05
   4.535860e+04   3.875628e+05
  -1.112679e+06   1.952230e+05
  -1.997197e+06  -3.511789e+05
  -1.577987e+06  -1.025918e+06
   2.148425e+04  -1.378590e+06
   1.539784e+06  -1.080464e+06
   1.791893e+06  -2.746075e+05
   8.242062e+05   4.416782e+05
  -2.478479e+05   5.281588e+05
  -4.875553e+05   4.660408e+04
  -1.286184e+03  -3.850520e+05
   4.619714e+05  -2.409941e+05
   4.642980e+05   3.480294e+05
   1.993619e+05   7.370891e+05
   4.890920e+04   4.839561e+05
   1.379974e+05  -1.207522e+05
   3.076125e+05  -3.246916e+05
   2.758778e+05   2.284622e+05
  -1.737157e+05   9.905961e+05
  -9.054538e+05   1.032370e+06
  -1.306360e+06   1.179558e+05
  -7.814914e+05  -9.267408e+05
   4.342759e+05  -1.083136e+06
   1.228588e+06  -2.715276e+05
   7.130667e+05   5.924810e+05
  -6.937812e+05   6.373444e+05
  -1.585386e+06  -9.518408e+04
  -1.033361e+06  -8.523641e+05
   4.515950e+05  -9.987846e+05
   1.494403e+06  -5.073592e+05
   1.249583e+06   1.743707e+05
   1.464135e+05   5.177632e+05
  -6.405428e+05   2.743657e+05
  -3.622871e+05  -2.875070e+05
   6.084460e+05  -4.939319e+05
   1.173406e+06   1.259162e+05
   6.179557e+05   1.201552e+06
  -6.514265e+05   1.674373e+06
  -1.509297e+06   8.365903e+05
  -1.237392e+06  -7.853890e+05
  -1.709255e+05  -1.793762e+06
   7.536966e+05  -1.294837e+06
   9.205378e+05   1.672953e+05
   4.326632e+05   1.185696e+06
  -2.026096e+05   9.717843e+05
  -5.501934e+05   8.538245e+04
  -4.790588e+05  -3.837316e+05
  -1.839620e+05  -1.421723e+05
  -4.014509e+04   9.938952e+04
  -2.400400e+05  -2.891478e+05
  -4.800774e+05  -9.653323e+05
  -2.008754e+05  -1.076314e+06
   6.867722e+05  -3.814749e+05
   1.466193e+06   4.847103e+05
   1.286224e+06   8.472457e+05
   1.757697e+05   6.926649e+05
  -8.765432e+05   4.070732e+05
  -9.886470e+05   1.763711e+05
  -3.391859e+05  -4.988658e+04
   1.563354e+05  -2.222413e+05
   1.320260e+04  -2.100869e+05
  -2.892807e+05  -1.053877e+05
  -3.958994e+04  -1.369532e+05
   6.896449e+05  -2.223942e+05
   1.041122e+06   3.451380e+04
   3.864826e+05   7.002241e+05
  -8.803651e+05   1.152481e+06
  -1.693198e+06   7.082612e+05
  -1.375400e+06  -4.696825e+05
  -2.459213e+05  -1.410723e+06
   7.804093e+05  -1.350382e+06
   1.056756e+06  -5.064112e+05
   6.557151e+05   2.517189e+05
   1.190825e+05   3.610333e+05
  -9.212968e+04   5.794866e+04
   7.072255e+04  -2.748353e+04
   3.016524e+05   3.620196e+05
   2.424814e+05   8.064089e+05
  -1.933987e+05   6.711049e+05
  -6.845366e+05  -1.415637e+05
  -7.159616e+05  -9.736628e+05
  -8.085696e+04  -1.033444e+06
   7.694979e+05  -2.234440e+05
   1.020955e+06   7.489482e+05
   3.212579e+05   1.092913e+06
  -7.263268e+05   6.540817e+05
  -1.106805e+06  -9.682522e+04
  -5.081523e+05  -6.090329e+05
   2.988485e+05  -6.563582e+05
   3.705061e+05  -3.534060e+05
  -2.629984e+05  -1.313697e+04
  -6.523941e+05   2.944722e+04
  -1.359814e+05  -3.077648e+05
   8.309734e+05  -6.672927e+05
   1.245934e+06  -5.278597e+05
   7.388991e+05   1.806437e+05
  -1.108045e+05   8.596764e+05
  -5.512041e+05   8.355705e+05
  -4.158578e+05   1.406058e+05
  -4.202917e+04  -4.865322e+05
   2.492956e+05  -4.242669e+05
   3.542131e+05   1.629704e+05
   2.441065e+05   5.797649e+05
  -6.530033e+04   4.153223e+05
  -3.905354e+05  -5.487115e+04
  -4.630764e+05  -2.789419e+05
  -2.374980e+05  -9.177851e+04
   2.278833e+04   1.429539e+05
   7.443995e+04   2.500484e+04
   6.005331e+03  -3.662473e+05
   8.460902e+04  -5.436234e+05
   3.361483e+05  -1.954517e+05
   4.420481e+05   4.033567e+05
   1.286653e+05   6.573238e+05
  -4.187754e+05   3.052467e+05
  -6.543538e+05  -2.971110e+05
  -2.421957e+05  -5.815715e+05
   5.076246e+05  -3.551923e+05
   8.743815e+05   9.358156e+04
   4.698440e+05   3.838630e+05
  -3.010541e+05   3.872771e+05
  -6.410488e+05   2.084788e+05
  -2.421721e+05   1.000263e+04
   3.613542e+05  -6.044470e+04
   4.152941e+05   7.822681e+04
  -1.774675e+05   2.995301e+05
  -7.599309e+05   2.682677e+05
