
 $NMID
 id='ANONYMOUS ', fmtdat='(2E16.6)'
 volume=1.0
 tramp=1.0
 $END
   3.656667e+07  -1.164202e+06
   2.407766e+07   1.919945e+07
  -1.552864e+06   2.419114e+07
  -1.664241e+07   1.314884e+07
  -1.230338e+07  -1.122059e+06
   4.222351e+05  -6.465341e+06
   7.030848e+06  -1.524466e+06
   3.998310e+06   6.115244e+06
  -2.705332e+06   8.342575e+06
  -6.603765e+06   3.169794e+06
  -5.405796e+06  -4.286370e+06
  -7.970528e+05  -6.687070e+06
   3.041009e+06  -1.763853e+06
   2.378045e+06   4.989696e+06
  -2.207040e+06   6.051042e+06
  -5.723888e+06   1.032827e+05
  -3.984445e+06  -6.880430e+06
   1.816302e+06  -8.547690e+06
   6.694908e+06  -4.321319e+06
   7.125515e+06   1.524298e+06
   3.796101e+06   4.862726e+06
   1.412844e+05   4.775053e+06
  -8.438306e+05   3.112701e+06
   8.600574e+05   2.376303e+06
   2.071027e+06   3.431894e+06
  -3.941452e+05   4.551123e+06
  -5.492386e+06   3.264336e+06
  -8.168384e+06  -4.329451e+05
  -5.096754e+06  -3.606237e+06
   9.027100e+05  -3.648610e+06
   3.932466e+06  -1.101372e+06
   1.809208e+06   1.368085e+06
  -2.121979e+06   1.787873e+06
  -3.649516e+06   2.618186e+04
  -2.063338e+06  -2.630783e+06
   4.527009e+05  -4.012684e+06
   1.816204e+06  -2.444803e+06
   1.467650e+06   9.498907e+05
   1.683571e+05   2.446452e+06
  -5.377496e+05   8.260633e+04
   4.477442e+05  -3.056232e+06
   2.188674e+06  -2.331187e+06
   2.186975e+06   1.942032e+06
  -5.521504e+05   4.300317e+06
  -3.591067e+06   1.247205e+06
  -3.393045e+06  -3.986840e+06
   5.668827e+05  -5.509802e+06
   4.934726e+06  -1.856305e+06
   5.785180e+06   3.012972e+06
   2.315344e+06   4.788399e+06
  -2.567155e+06   2.829696e+06
  -4.834636e+06  -4.910412e+05
  -2.812201e+06  -2.494212e+06
   1.278999e+06  -1.988051e+06
   3.393685e+06   1.563797e+05
   1.807823e+06   1.685482e+06
  -1.082516e+06   1.091418e+06
  -1.718329e+06  -6.618339e+05
   3.113549e+05  -1.264392e+06
   1.990723e+06   6.067662e+04
   8.361941e+05   1.704646e+06
  -2.100688e+06   1.774057e+06
  -3.662261e+06   4.276083e+04
  -2.101454e+06  -2.357721e+06
   1.471481e+06  -4.043850e+06
   4.494666e+06  -3.778746e+06
   5.088717e+06  -1.055688e+06
   3.226405e+06   2.790932e+06
   5.543751e+05   5.016043e+06
  -1.015219e+06   4.175382e+06
  -1.012540e+06   1.876197e+06
  -6.703204e+05   7.439537e+05
  -1.252512e+06   1.100056e+06
  -2.438329e+06   9.572177e+05
  -2.780746e+06  -7.956734e+05
  -1.503588e+06  -2.641941e+06
   6.405136e+05  -2.405920e+06
   2.123704e+06  -1.170397e+04
   1.830756e+06   2.449256e+06
  -2.103806e+05   2.927165e+06
  -2.658778e+06   1.155219e+06
  -3.600710e+06  -1.445097e+06
  -2.226266e+06  -3.075196e+06
   1.614746e+05  -2.954646e+06
   1.486298e+06  -1.817997e+06
   1.349397e+06  -1.006415e+06
   1.356674e+06  -9.557222e+05
   2.673977e+06  -7.962127e+05
   4.101657e+06   4.304149e+05
   3.410023e+06   2.470348e+06
   2.404179e+05   3.995424e+06
  -3.166371e+06   3.814918e+06
  -4.222785e+06   1.841537e+06
  -2.489327e+06  -7.732297e+05
   1.435821e+05  -2.289251e+06
   1.374610e+06  -1.694181e+06
   5.012142e+05   1.720462e+05
  -1.169934e+06   1.213929e+06
  -1.753133e+06   3.605956e+05
  -7.168922e+05  -1.089226e+06
   6.301929e+05  -1.103848e+06
   6.762834e+05   3.391951e+05
  -6.539126e+05   1.104460e+06
  -1.855243e+06  -3.254634e+05
  -1.489501e+06  -2.801485e+06
   4.539133e+05  -3.786138e+06
   2.704998e+06  -2.167095e+06
   3.769207e+06   7.647987e+05
   2.904319e+06   2.826261e+06
   6.611216e+05   2.886425e+06
  -1.330079e+06   1.496423e+06
  -1.637234e+06   1.481904e+05
  -4.894253e+05  -4.134966e+04
   3.743097e+05   7.287728e+05
  -2.887060e+05   1.228535e+06
  -1.678464e+06   5.913198e+05
  -1.933211e+06  -6.655672e+05
  -4.995171e+05  -1.256480e+06
   1.100516e+06  -6.408097e+05
   1.034803e+06   4.206855e+05
  -7.321616e+05   7.779379e+05
  -2.383405e+06   1.380778e+04
  -2.128696e+06  -1.324332e+06
   3.243228e+04  -2.219964e+06
   2.311369e+06  -1.875371e+06
   2.790947e+06  -3.720909e+05
   1.207493e+06   1.145352e+06
  -8.151272e+05   1.356248e+06
  -1.368063e+06   1.798813e+05
  -1.257279e+05  -9.693167e+05
   1.452597e+06  -7.176207e+05
   1.731092e+06   6.660014e+05
   5.150333e+05   1.618420e+06
  -9.430602e+05   1.147658e+06
  -1.305522e+06  -9.861137e+04
  -4.014686e+05  -7.118789e+05
   6.949227e+05  -1.006481e+05
   7.035600e+05   1.003350e+06
  -5.913172e+05   1.385891e+06
  -1.993085e+06   5.051918e+05
  -1.997519e+06  -1.041202e+06
  -4.068606e+05  -2.023075e+06
   1.343392e+06  -1.647449e+06
   1.685053e+06  -2.964015e+05
   5.775138e+05   8.219699e+05
  -6.068634e+05   8.505296e+05
  -7.170911e+05   7.360829e+04
   4.197693e+04  -5.230825e+05
   6.203548e+05  -3.763270e+05
   3.828428e+05   1.172871e+05
  -3.201730e+05   1.623170e+05
  -6.105515e+05  -4.784766e+05
   5.412339e+04  -1.154840e+06
   1.311327e+06  -9.484810e+05
   2.072934e+06   3.549733e+05
   1.473999e+06   1.899049e+06
  -1.869471e+05   2.448249e+06
  -1.616001e+06   1.550025e+06
  -1.812446e+06  -1.281069e+04
  -1.047804e+06  -1.002186e+06
  -3.729034e+05  -9.257974e+05
  -3.270309e+05  -3.783532e+05
  -4.573470e+05  -2.321054e+05
  -8.073901e+04  -6.447154e+05
   8.048122e+05  -9.449548e+05
   1.477710e+06  -4.385288e+05
   1.186176e+06   7.423399e+05
  -1.490627e+05   1.610391e+06
  -1.723369e+06   1.201243e+06
  -2.312385e+06  -4.224217e+05
  -1.249698e+06  -2.053982e+06
   8.386226e+05  -2.370292e+06
   2.424472e+06  -1.166923e+06
   2.430070e+06   4.804897e+05
   1.177980e+06   1.324008e+06
  -8.845650e+04   1.125570e+06
  -5.108322e+05   6.707457e+05
  -2.918038e+05   7.240388e+05
  -1.912937e+05   1.162737e+06
  -6.098381e+05   1.191675e+06
  -1.214557e+06   3.030187e+05
  -1.314695e+06  -1.075397e+06
  -5.601832e+05  -1.893894e+06
   6.244168e+05  -1.442687e+06
   1.300302e+06  -4.218740e+04
   8.701436e+05   1.206716e+06
  -2.635613e+05   1.392595e+06
  -1.035800e+06   5.535766e+05
  -8.117011e+05  -4.878257e+05
  -3.191479e+04  -9.706860e+05
   3.541209e+05  -8.188401e+05
   1.227965e+04  -4.894478e+05
  -4.030016e+05  -3.670647e+05
  -4.260143e+04  -3.971620e+05
   1.085384e+06  -2.491979e+05
   1.981737e+06   2.668174e+05
   1.629140e+06   9.556065e+05
   8.924137e+04   1.357244e+06
  -1.446531e+06   1.128111e+06
  -1.784072e+06   3.797990e+05
  -8.842968e+05  -3.431080e+05
   1.945486e+05  -5.076526e+05
   4.751016e+05  -9.956503e+04
  -4.242377e+03   3.337821e+05
  -4.843583e+05   2.357285e+05
  -4.678743e+05  -3.389184e+05
  -1.553610e+05  -7.454089e+05
  -3.002389e+03  -4.808182e+05
  -1.513605e+05   1.674806e+05
  -3.600929e+05   3.809219e+05
  -2.984602e+05  -2.184682e+05
   1.835752e+05  -1.021312e+06
   8.817525e+05  -1.056376e+06
   1.235685e+06  -1.264369e+05
   7.403961e+05   9.042706e+05
  -3.992810e+05   1.047311e+06
  -1.180567e+06   2.540734e+05
  -7.224034e+05  -5.986955e+05
   6.705727e+05  -6.790069e+05
   1.641209e+06   2.319272e+04
   1.156133e+06   8.337024e+05
  -3.780130e+05   1.087594e+06
  -1.533416e+06   6.402973e+05
  -1.336592e+06  -1.067659e+05
  -1.922726e+05  -5.418550e+05
   6.396620e+05  -3.270609e+05
   3.578227e+05   2.576977e+05
  -6.271878e+05   4.788419e+05
  -1.175596e+06  -1.447988e+05
  -5.921014e+05  -1.214914e+06
   6.835563e+05  -1.673167e+06
   1.533887e+06  -8.325404e+05
   1.264218e+06   7.919453e+05
   2.020445e+05   1.829590e+06
  -7.437023e+05   1.365853e+06
  -9.589385e+05  -1.112047e+05
  -5.103715e+05  -1.197758e+06
   1.360489e+05  -1.033563e+06
   5.458810e+05  -1.256746e+05
   5.331779e+05   3.959127e+05
   2.307696e+05   1.628635e+05
   2.461072e+04  -1.187873e+05
   1.945068e+05   2.462121e+05
   4.892695e+05   9.529073e+05
   2.793279e+05   1.110157e+06
  -6.314728e+05   4.253157e+05
  -1.510344e+06  -4.632822e+05
  -1.376722e+06  -8.425017e+05
  -2.025082e+05  -6.909717e+05
   9.244997e+05  -4.192137e+05
   1.020883e+06  -2.143877e+05
   3.144288e+05   9.899825e+03
  -1.702621e+05   2.210667e+05
   3.714825e+04   2.497468e+05
   3.446954e+05   1.417601e+05
   2.077862e+04   1.373585e+05
  -7.501798e+05   2.058136e+05
  -1.046184e+06  -3.170781e+04
  -3.255431e+05  -6.780137e+05
   9.181394e+05  -1.140036e+06
   1.659080e+06  -7.135561e+05
   1.327740e+06   4.707545e+05
   2.488962e+05   1.430791e+06
  -7.503478e+05   1.365839e+06
  -1.053956e+06   4.933328e+05
  -6.702620e+05  -2.764883e+05
  -1.031036e+05  -3.582659e+05
   1.330548e+05  -1.876752e+04
  -6.095154e+04   6.927301e+04
  -3.400801e+05  -3.504475e+05
  -2.805569e+05  -8.170579e+05
   1.941747e+05  -6.689646e+05
   6.988132e+05   1.715065e+05
   7.004307e+05   1.004746e+06
   3.921625e+04   1.027802e+06
  -7.977923e+05   1.801172e+05
  -1.017731e+06  -7.878857e+05
  -3.066939e+05  -1.092338e+06
   7.270791e+05  -6.319435e+05
   1.093007e+06   9.269796e+04
   5.001620e+05   5.681803e+05
  -2.805454e+05   6.220534e+05
  -3.254055e+05   3.600743e+05
   3.095330e+05   3.697454e+04
   6.708215e+05  -2.873823e+04
   1.274141e+05   2.973535e+05
  -8.331132e+05   6.936442e+05
  -1.220609e+06   5.950725e+05
  -7.108679e+05  -1.264417e+05
   1.009152e+05  -8.520848e+05
   5.016017e+05  -8.420411e+05
   3.654864e+05  -1.230747e+05
   2.024345e+04   5.063380e+05
  -2.506541e+05   4.053383e+05
  -3.550279e+05  -2.027439e+05
  -2.474208e+05  -5.838680e+05
   6.468151e+04  -3.803222e+05
   3.903837e+05   6.880920e+04
   4.630295e+05   2.440296e+05
   2.461776e+05   6.334691e+04
  -9.964023e+03  -1.070547e+05
  -8.830754e+04   4.440373e+04
  -6.566907e+04   3.864349e+05
  -1.534292e+05   4.882166e+05
  -3.494497e+05   1.191527e+05
  -3.857363e+05  -4.424031e+05
  -6.115419e+04  -6.555056e+05
   4.376356e+05  -2.882948e+05
   6.312794e+05   3.158881e+05
   2.263273e+05   5.984526e+05
  -4.953557e+05   3.611982e+05
  -8.563263e+05  -9.912798e+04
  -4.665512e+05  -3.815771e+05
   2.939687e+05  -3.629512e+05
   6.268534e+05  -1.807999e+05
   2.099148e+05  -1.241906e+04
  -4.051117e+05   2.144370e+04
  -4.300448e+05  -1.261033e+05
   2.202896e+05  -3.260112e+05
   8.285492e+05  -2.654611e+05
