
 $NMID
 id='ANONYMOUS ', fmtdat='(2E16.6)'
 volume=1.0
 tramp=1.0
 $END
   7.274812e+06  -2.290649e+06
   5.267612e+06   3.807116e+06
  -2.931593e+05   5.349365e+06
  -3.331347e+06   2.118651e+06
  -1.962701e+06  -1.279499e+06
   6.619218e+05  -1.630947e+06
   1.450103e+06   6.362385e+04
   4.871639e+05   1.332536e+06
  -6.671511e+05   1.247309e+06
  -1.229864e+06   3.169052e+05
  -1.095563e+06  -7.156742e+05
  -2.756627e+05  -1.151288e+06
   6.714169e+05  -5.796569e+05
   7.659530e+05   4.467247e+05
  -1.160789e+05   7.466891e+05
  -8.863312e+05  -3.813161e+04
  -6.535293e+05  -9.978376e+05
   2.498700e+05  -1.220176e+06
   1.014301e+06  -7.427175e+05
   1.311414e+06   1.169943e+03
   1.097938e+06   7.974059e+05
   3.266042e+05   1.304460e+06
  -5.782738e+05   9.864282e+05
  -7.389004e+05   1.510510e+04
  -1.863110e+03  -5.009934e+05
   5.554693e+05   9.180765e+04
   2.479269e+04   9.551936e+05
  -9.937813e+05   8.591508e+05
  -1.242190e+06  -1.537851e+05
  -5.243628e+05  -9.820209e+05
   2.790932e+05  -9.796088e+05
   5.663092e+05  -4.582185e+05
   4.786756e+05   7.371573e+04
   2.201789e+05   3.642346e+05
  -1.531980e+05   2.410627e+05
  -3.081425e+05  -2.391040e+05
   1.025243e+05  -5.075804e+05
   6.722012e+05  -8.180611e+04
   5.879335e+05   5.793841e+05
  -1.007542e+05   5.847434e+05
  -4.259462e+05  -7.218101e+03
   2.385495e+03  -1.901514e+05
   3.266736e+05   4.074168e+05
  -2.156976e+05   8.543033e+05
  -1.041015e+06   3.007851e+05
  -1.033544e+06  -7.393472e+05
  -1.160311e+05  -1.138886e+06
   7.442055e+05  -6.448018e+05
   8.303047e+05   6.107987e+04
   3.110930e+05   4.020389e+05
  -2.573067e+05   3.329064e+05
  -4.623566e+05  -6.468659e+03
  -1.543023e+05  -3.965090e+05
   4.250290e+05  -4.429693e+05
   6.775892e+05   1.120064e+04
   2.886565e+05   4.701306e+05
  -2.432762e+05   3.550504e+05
  -2.110637e+05  -9.869817e+04
   2.581396e+05  -1.369403e+05
   3.642934e+05   3.509617e+05
  -1.588420e+05   6.550583e+05
  -6.709386e+05   3.380123e+05
  -6.251016e+05  -1.886426e+05
  -2.777474e+05  -4.315871e+05
  -7.199036e+04  -4.958853e+05
   8.162824e+04  -5.980524e+05
   4.115116e+05  -4.934171e+05
   6.428712e+05   3.699314e+04
   3.762520e+05   5.453474e+05
  -1.413913e+05   4.239305e+05
  -2.536329e+05  -1.462691e+05
   1.547982e+05  -3.815820e+05
   4.914131e+05   1.500574e+04
   2.976059e+05   5.089569e+05
  -1.944806e+05   5.358351e+05
  -4.687016e+05   1.626698e+05
  -3.322082e+05  -1.856695e+05
   2.543635e+04  -2.601928e+05
   2.975595e+05  -7.246424e+04
   2.481097e+05   2.329519e+05
  -1.302448e+05   4.003212e+05
  -5.175139e+05   2.086758e+05
  -5.244136e+05  -2.233735e+05
  -1.531591e+05  -4.805953e+05
   1.894175e+05  -3.501472e+05
   2.192935e+05  -8.365187e+04
   9.236063e+04  -1.776734e+04
   8.701827e+04  -1.368825e+05
   2.113361e+05  -1.881568e+05
   2.950895e+05  -5.335984e+04
   2.676396e+05   1.833744e+05
   1.502163e+05   3.907571e+05
  -5.566457e+04   4.341815e+05
  -2.703531e+05   2.151157e+05
  -2.884202e+05  -1.398983e+05
  -5.528479e+04  -2.809154e+05
   1.488977e+05  -5.061979e+04
   5.354737e+04   2.375148e+05
  -1.900237e+05   1.943300e+05
  -2.229073e+05  -9.224717e+04
  -2.224490e+04  -2.098993e+05
   9.354058e+04  -5.341454e+04
  -1.347438e+04   6.321980e+04
  -1.182127e+05  -5.080533e+04
  -4.186011e+04  -1.847792e+05
   8.073006e+04  -1.230692e+05
   8.687049e+04   9.362193e+03
   5.909859e+04   1.012667e+04
   1.157326e+05  -4.970276e+04
   1.568414e+05   5.009314e+03
   5.474700e+04   1.163835e+05
  -7.156158e+04   1.041492e+05
  -3.077267e+04   3.562724e+03
   1.002598e+05   1.375437e+04
   7.590590e+04   1.485256e+05
  -1.238556e+05   1.969182e+05
  -2.519798e+05   5.088846e+04
  -1.577637e+05  -1.422974e+05
   2.936740e+04  -2.011917e+05
   1.220523e+05  -1.125621e+05
   9.147557e+04   3.075456e+04
   3.595619e+03   1.390208e+05
  -9.078414e+04   1.286735e+05
  -1.263751e+05  -2.849315e+04
  -3.452100e+04  -1.981384e+05
   1.233310e+05  -1.733862e+05
   1.605424e+05   4.720549e+04
   6.946415e+03   2.064532e+05
  -1.596096e+05   1.116161e+05
  -1.341350e+05  -1.088148e+05
   4.617153e+04  -1.880937e+05
   1.679425e+05  -6.340453e+04
   1.163322e+05   9.636756e+04
  -2.831471e+04   1.364688e+05
  -1.263701e+05   5.458691e+04
  -1.057625e+05  -6.624046e+04
   1.775602e+04  -1.338468e+05
   1.472609e+05  -7.612757e+04
   1.513759e+05   8.527465e+04
  -6.993053e+02   1.961824e+05
  -1.631019e+05   1.179098e+05
  -1.617214e+05  -8.024921e+04
  -8.911811e+03  -1.821137e+05
   1.188723e+05  -9.055742e+04
   1.078086e+05   7.044388e+04
   1.204253e+04   1.385804e+05
  -6.724479e+04   9.087779e+04
  -9.701610e+04   2.239741e+03
  -8.203887e+04  -6.866775e+04
  -2.620737e+04  -9.234635e+04
   2.926679e+04  -5.407592e+04
   2.005040e+04   4.020496e+03
  -3.559695e+04  -4.118093e+03
  -2.934588e+04  -8.540605e+04
   7.794494e+04  -1.230404e+05
   1.712699e+05  -3.099778e+04
   1.332897e+05   1.073325e+05
   1.051092e+04   1.452136e+05
  -6.325719e+04   7.133024e+04
  -5.306255e+04   2.231486e+03
  -2.976414e+04   4.025186e+03
  -3.041569e+04   2.892478e+04
  -2.556291e+04   2.501575e+04
  -1.169753e+04   3.758927e+03
  -2.226844e+04  -1.864894e+04
  -3.880986e+04  -5.063328e+04
  -1.246732e+03  -6.619364e+04
   6.725801e+04  -8.762408e+03
   5.442249e+04   9.855543e+04
  -7.015307e+04   1.303369e+05
  -1.731939e+05   1.512050e+04
  -1.229477e+05  -1.466427e+05
   3.201399e+04  -1.969663e+05
   1.329324e+05  -1.123819e+05
   1.146175e+05  -5.964365e+03
   5.321235e+04   3.529426e+04
   3.412389e+04   3.358030e+04
   5.640876e+04   4.498308e+04
   6.952073e+04   7.714601e+04
   3.809744e+04   1.012728e+05
  -3.942219e+04   9.321459e+04
  -1.251691e+05   4.214981e+04
  -1.488508e+05  -4.098656e+04
  -7.035240e+04  -1.063682e+05
   5.454606e+04  -9.497880e+04
   1.162823e+05  -8.856701e+03
   7.219099e+04   7.564745e+04
  -1.400759e+04   8.610800e+04
  -6.186012e+04   2.686685e+04
  -5.852954e+04  -3.876977e+04
  -3.820402e+04  -5.786679e+04
  -2.349899e+04  -2.807599e+04
  -1.557525e+04   8.819384e+03
  -8.543233e+03   1.856470e+03
   1.326409e+04  -5.743938e+04
   6.306465e+04  -1.079058e+05
   1.135099e+05  -7.254469e+04
   1.053639e+05   4.336391e+04
   2.539815e+04   1.388716e+05
  -5.678285e+04   1.285732e+05
  -6.837084e+04   4.086923e+04
  -2.353969e+04  -2.668513e+04
   7.882784e+03  -2.685796e+04
  -1.716517e+03   3.142662e+03
  -2.126752e+04   1.309745e+04
  -2.673272e+04  -1.913127e+03
  -2.587898e+04  -1.807973e+04
  -1.942672e+04  -1.820438e+04
   4.496279e+03   1.185877e+03
   2.715498e+04   2.860073e+04
   7.253974e+03   3.355801e+04
  -4.588012e+04  -7.436287e+03
  -6.095855e+04  -6.820171e+04
  -2.687776e+03  -8.468204e+04
   6.382899e+04  -2.957357e+04
   5.519458e+04   4.570133e+04
  -1.364165e+04   6.542561e+04
  -4.971529e+04   1.308688e+04
  -7.044173e+03  -5.658677e+04
   6.156155e+04  -7.708532e+04
   8.112487e+04  -2.730164e+04
   3.854539e+04   5.572236e+04
  -2.228586e+04   1.037449e+05
  -5.427106e+04   7.199623e+04
  -3.946341e+04  -1.101168e+04
   5.215367e+03  -5.980859e+04
   3.600547e+04  -2.273065e+04
   1.546103e+04   5.168000e+04
  -4.444092e+04   6.681992e+04
  -8.482728e+04  -5.719098e+03
  -5.948157e+04  -9.162852e+04
   1.661484e+04  -1.018128e+05
   8.469831e+04  -2.857772e+04
   9.552072e+04   5.813509e+04
   4.188174e+04   8.895714e+04
  -4.006570e+04   5.259637e+04
  -9.021149e+04  -9.991716e+03
  -6.821827e+04  -4.880322e+04
   1.528278e+03  -4.498711e+04
   4.628046e+04  -2.010848e+04
   2.875162e+04  -7.152915e+03
  -3.613543e+03  -1.255287e+04
   1.575224e+04  -1.403068e+04
   7.245580e+04   5.469362e+03
   8.231366e+04   3.657589e+04
   7.637252e+03   5.914509e+04
  -8.360694e+04   6.162034e+04
  -1.009662e+05   3.869855e+04
  -4.165001e+04  -8.368161e+03
   1.847831e+04  -5.542257e+04
   2.664279e+04  -6.258286e+04
   4.701318e+03  -2.199321e+04
  -1.530101e+03   1.935909e+04
   1.387042e+04   1.529704e+04
   2.256528e+04  -1.338954e+04
   8.439794e+03  -7.215004e+03
  -1.629535e+04   3.931675e+04
  -3.362337e+04   5.878013e+04
  -3.649550e+04   3.083851e+03
  -2.215383e+04  -8.236859e+04
   1.197600e+04  -1.092494e+05
   5.501048e+04  -5.116393e+04
   7.703163e+04   3.430149e+04
   5.444665e+04   7.855562e+04
   2.389928e+03   6.631074e+04
  -3.275475e+04   2.889906e+04
  -2.335643e+04   2.384918e+03
   4.962029e+03   7.613923e+02
   3.448316e+03   1.207431e+04
  -3.601283e+04   1.161050e+04
  -6.476163e+04  -1.120214e+04
  -3.556828e+04  -3.616034e+04
   3.454795e+04  -3.316259e+04
   7.728113e+04  -9.035879e+01
   4.856023e+04   3.319449e+04
  -2.358734e+04   3.922002e+04
  -7.202753e+04   1.676650e+04
  -6.018801e+04  -1.898464e+04
  -9.841323e+03  -4.981680e+04
   3.272017e+04  -5.460019e+04
   4.385097e+04  -2.188832e+04
   3.389104e+04   2.410631e+04
   2.348644e+04   3.495685e+04
   2.033097e+04  -1.433398e+03
   1.919137e+04  -3.168172e+04
   1.481755e+04  -2.079317e+02
   6.511024e+03   6.941756e+04
  -6.891292e+03   9.513884e+04
  -2.581927e+04   4.163911e+04
  -4.070622e+04  -3.320135e+04
  -3.482944e+04  -5.395363e+04
  -6.484557e+03  -1.790900e+04
   1.866331e+04   1.804908e+04
   1.244270e+04   1.868011e+04
  -1.862549e+04   1.650958e+03
  -3.647240e+04  -6.436742e+03
  -1.778213e+04  -7.674933e+03
   1.658950e+04  -1.474398e+04
   2.934439e+04  -2.182676e+04
   1.321810e+04  -1.417631e+04
  -5.617033e+03   5.556094e+03
  -5.742019e+03   1.938421e+04
   5.065425e+03   1.847497e+04
   6.349891e+03   1.083850e+04
  -7.296549e+03   4.761117e+03
  -2.172275e+04  -2.583484e+03
  -1.963440e+04  -1.522283e+04
   2.396563e+03  -2.535766e+04
   2.811034e+04  -1.848524e+04
   3.237768e+04   8.153118e+03
   6.382811e+03   3.623750e+04
  -2.691086e+04   3.989181e+04
  -3.384936e+04   1.210619e+04
  -1.065408e+04  -2.327634e+04
   1.007558e+04  -3.253845e+04
   1.576700e+03  -9.187891e+03
  -2.176640e+04   1.550100e+04
  -2.540292e+04   7.184663e+03
  -6.478516e+02  -2.860312e+04
   2.877159e+04  -4.896864e+04
