
 $NMID
 id='ANONYMOUS ', fmtdat='(2E16.6)'
 volume=1.0
 tramp=1.0
 $END
  -2.601642e+07  -5.090139e+03
  -1.780887e+07  -1.179150e+07
  -4.907550e+05  -1.650021e+07
   1.123868e+07  -1.160732e+07
   9.929390e+06  -1.620614e+06
   8.851538e+05   4.855094e+06
  -5.536583e+06   2.766054e+06
  -4.425380e+06  -4.256406e+06
   1.100064e+06  -7.712363e+06
   5.066951e+06  -3.558350e+06
   4.390644e+06   3.509961e+06
   5.094878e+05   5.741451e+06
  -2.644358e+06   1.106305e+06
  -2.086471e+06  -4.901748e+06
   1.587647e+06  -5.740945e+06
   4.563159e+06  -6.528796e+05
   3.449850e+06   5.266657e+06
  -1.132264e+06   6.728197e+06
  -5.076961e+06   3.160458e+06
  -5.093397e+06  -1.609877e+06
  -2.015588e+06  -3.678054e+06
   4.503070e+05  -2.690282e+06
  -1.091340e+05  -1.413622e+06
  -2.306630e+06  -2.180454e+06
  -2.562622e+06  -4.242651e+06
   9.124517e+05  -4.836016e+06
   5.772840e+06  -2.488192e+06
   7.464292e+06   1.292074e+06
   3.936808e+06   3.603585e+06
  -1.735014e+06   2.912653e+06
  -4.193998e+06   1.607643e+05
  -1.455869e+06  -2.248319e+06
   3.041591e+06  -2.261440e+06
   4.486372e+06   3.222585e+05
   1.961241e+06   3.419493e+06
  -1.243404e+06   4.135592e+06
  -1.979863e+06   1.625341e+06
  -4.906388e+05  -1.544223e+06
   8.166460e+05  -1.867340e+06
   4.700174e+05   9.758525e+05
  -9.873528e+05   3.443850e+06
  -2.148413e+06   2.294479e+06
  -1.967192e+06  -1.351871e+06
  -2.876696e+05  -3.259099e+06
   1.796384e+06  -1.170617e+06
   2.248588e+06   2.564812e+06
  -1.015011e+05   3.836842e+06
  -3.688842e+06   1.322840e+06
  -5.065871e+06  -2.484251e+06
  -2.408321e+06  -4.223449e+06
   2.186942e+06  -2.819347e+06
   4.614871e+06   9.618257e+04
   2.952020e+06   2.056994e+06
  -7.343049e+05   1.821107e+06
  -2.777642e+06   1.206641e+05
  -1.664444e+06  -1.195982e+06
   7.875935e+05  -8.946322e+05
   1.695933e+06   5.259165e+05
   2.171159e+05   1.433963e+06
  -1.692253e+06   8.022028e+05
  -1.548290e+06  -7.420645e+05
   7.814151e+05  -1.577377e+06
   2.754239e+06  -6.490342e+05
   1.878538e+06   1.563404e+06
  -1.482402e+06   3.353699e+06
  -4.429973e+06   3.061930e+06
  -4.595159e+06   4.731710e+05
  -2.402502e+06  -2.775492e+06
  -1.346937e+05  -4.466104e+06
   7.172178e+05  -3.836190e+06
   6.505110e+05  -2.208593e+06
   9.574359e+05  -1.302247e+06
   2.019558e+06  -1.175946e+06
   2.993626e+06  -4.428969e+05
   2.798766e+06   1.483452e+06
   1.156023e+06   3.139628e+06
  -1.097759e+06   2.576950e+06
  -2.473437e+06  -1.538314e+05
  -1.862469e+06  -2.744754e+06
   4.349200e+05  -2.954601e+06
   2.684383e+06  -7.922616e+05
   3.111991e+06   1.757041e+06
   1.566281e+06   2.836285e+06
  -3.755022e+05   2.274008e+06
  -1.151759e+06   1.258449e+06
  -9.082511e+05   8.699985e+05
  -1.128273e+06   1.057895e+06
  -2.568606e+06   8.828737e+05
  -3.979803e+06  -3.965308e+05
  -3.308252e+06  -2.447362e+06
  -1.647718e+05  -3.965047e+06
   3.307231e+06  -3.694104e+06
   4.362950e+06  -1.557996e+06
   2.402930e+06   1.070776e+06
  -4.594980e+05   2.349644e+06
  -1.608812e+06   1.535333e+06
  -4.690632e+05  -2.700069e+05
   1.271213e+06  -1.133183e+06
   1.694854e+06  -2.777813e+05
   5.661029e+05   1.063871e+06
  -7.378099e+05   1.090131e+06
  -8.107797e+05  -3.280624e+05
   4.486147e+05  -1.311480e+06
   1.829634e+06  -1.577720e+05
   1.868231e+06   2.460344e+06
   7.512167e+04   3.984334e+06
  -2.521346e+06   2.684525e+06
  -4.020275e+06  -4.958398e+05
  -3.198226e+06  -2.967697e+06
  -6.977434e+05  -3.086174e+06
   1.442360e+06  -1.485580e+06
   1.692727e+06  -4.988444e+04
   4.898805e+05   5.577331e+04
  -3.614322e+05  -7.327443e+05
   2.630147e+05  -1.158869e+06
   1.577473e+06  -5.397181e+05
   1.860083e+06   6.090232e+05
   5.232238e+05   1.185461e+06
  -1.085568e+06   6.476251e+05
  -1.112696e+06  -4.324192e+05
   6.858784e+05  -9.062406e+05
   2.509016e+06  -1.373003e+05
   2.324928e+06   1.373072e+06
   2.882434e+04   2.374416e+06
  -2.385374e+06   1.942424e+06
  -2.830884e+06   3.402879e+05
  -1.168496e+06  -1.123761e+06
   8.100062e+05  -1.249694e+06
   1.271388e+06  -1.232998e+05
   4.627490e+04   9.173507e+05
  -1.449377e+06   6.606965e+05
  -1.724661e+06  -6.591225e+05
  -5.693167e+05  -1.620627e+06
   8.933107e+05  -1.221151e+06
   1.332914e+06   1.359264e+04
   4.715528e+05   6.831540e+05
  -6.403056e+05   1.024068e+05
  -6.530042e+05  -1.004258e+06
   6.520807e+05  -1.352322e+06
   2.015355e+06  -4.183350e+05
   1.952299e+06   1.111208e+06
   3.536287e+05   2.018247e+06
  -1.349347e+06   1.612816e+06
  -1.678570e+06   2.924632e+05
  -5.978674e+05  -8.160572e+05
   6.062423e+05  -8.627237e+05
   7.746365e+05  -5.160230e+04
  -7.809778e+03   6.197679e+05
  -7.082173e+05   4.631692e+05
  -5.391261e+05  -1.527651e+05
   2.427461e+05  -2.915037e+05
   6.476070e+05   3.828422e+05
  -2.620811e+03   1.136104e+06
  -1.307181e+06   9.403383e+05
  -2.067338e+06  -3.915526e+05
  -1.423675e+06  -1.934044e+06
   2.518584e+05  -2.473737e+06
   1.674918e+06  -1.589103e+06
   1.894515e+06   1.351260e+03
   1.139433e+06   1.101517e+06
   3.870783e+05   1.107629e+06
   2.316085e+05   4.926924e+05
   3.477363e+05   2.060189e+05
   4.921673e+04   5.801540e+05
  -7.975140e+05   9.483072e+05
  -1.516231e+06   4.614303e+05
  -1.252234e+06  -7.946590e+05
   1.380253e+05  -1.703760e+06
   1.771795e+06  -1.229231e+06
   2.350615e+06   4.638974e+05
   1.257787e+06   2.077914e+06
  -8.201348e+05   2.355032e+06
  -2.404009e+06   1.171454e+06
  -2.472319e+06  -4.543337e+05
  -1.275531e+06  -1.356058e+06
   4.948743e+04  -1.235111e+06
   6.049563e+05  -7.593959e+05
   4.484696e+05  -7.087754e+05
   2.901610e+05  -1.079969e+06
   6.210349e+05  -1.118450e+06
   1.185709e+06  -2.516553e+05
   1.272900e+06   1.125247e+06
   5.015411e+05   1.925287e+06
  -6.791236e+05   1.434642e+06
  -1.317949e+06   2.596223e+04
  -8.677543e+05  -1.195673e+06
   2.353767e+05  -1.386649e+06
   9.792937e+05  -6.080219e+05
   7.938350e+05   3.911057e+05
   9.003811e+04   9.091667e+05
  -2.718656e+05   8.284817e+05
   1.798066e+04   5.346761e+05
   3.756002e+05   4.036538e+05
   1.903260e+04   4.103795e+05
  -1.061162e+06   2.354863e+05
  -1.933857e+06  -2.991690e+05
  -1.611947e+06  -9.675876e+05
  -1.187580e+05  -1.317320e+06
   1.407725e+06  -1.073543e+06
   1.776371e+06  -3.825213e+05
   9.043692e+05   2.809693e+05
  -1.745729e+05   4.642963e+05
  -4.568699e+05   1.231598e+05
   4.065650e+04  -2.832687e+05
   5.224676e+05  -2.077793e+05
   4.505004e+05   3.562804e+05
   6.987166e+04   7.735210e+05
  -7.186055e+04   4.886521e+05
   1.642793e+05  -2.091989e+05
   4.228679e+05  -4.292075e+05
   3.065931e+05   2.207044e+05
  -2.458048e+05   1.045000e+06
  -9.139977e+05   1.025579e+06
  -1.170587e+06   4.815959e+04
  -6.424015e+05  -9.342314e+05
   4.325323e+05  -9.812563e+05
   1.151712e+06  -1.579265e+05
   6.995838e+05   6.451568e+05
  -6.775713e+05   6.781775e+05
  -1.682127e+06  -3.225668e+04
  -1.229581e+06  -8.547668e+05
   3.466315e+05  -1.140502e+06
   1.581669e+06  -6.961497e+05
   1.404862e+06   9.579513e+04
   2.131742e+05   5.676256e+05
  -6.464189e+05   3.438560e+05
  -3.321869e+05  -2.492709e+05
   6.777055e+05  -4.321604e+05
   1.174933e+06   2.311794e+05
   4.996531e+05   1.269591e+06
  -8.133865e+05   1.641656e+06
  -1.609327e+06   7.466144e+05
  -1.248716e+06  -8.662189e+05
  -1.365390e+05  -1.872581e+06
   7.970715e+05  -1.394266e+06
   9.798911e+05   1.010604e+05
   5.234409e+05   1.223174e+06
  -1.143054e+05   1.074463e+06
  -5.402127e+05   1.342540e+05
  -5.685207e+05  -4.271727e+05
  -2.737382e+05  -1.867295e+05
  -1.137481e+04   1.337073e+05
  -1.247634e+05  -2.243467e+05
  -4.415329e+05  -9.674202e+05
  -3.029149e+05  -1.144138e+06
   5.907329e+05  -4.214882e+05
   1.525292e+06   5.190632e+05
   1.420398e+06   8.975312e+05
   1.896474e+05   6.956573e+05
  -9.955402e+05   3.895218e+05
  -1.058465e+06   2.016276e+05
  -2.801226e+05   6.946835e+03
   1.975525e+05  -2.134884e+05
  -8.272162e+04  -2.810853e+05
  -4.011870e+05  -1.861499e+05
   6.102839e+03  -1.432709e+05
   8.278838e+05  -1.596199e+05
   1.049958e+06   8.794317e+04
   2.201256e+05   6.886358e+05
  -1.025809e+06   1.084323e+06
  -1.666179e+06   6.165726e+05
  -1.254025e+06  -5.594830e+05
  -1.743263e+05  -1.466344e+06
   7.958294e+05  -1.333010e+06
   1.083542e+06  -4.192868e+05
   6.753262e+05   3.371760e+05
   6.577121e+04   3.653136e+05
  -1.845359e+05  -1.941100e+04
   4.571420e+04  -1.059924e+05
   3.566143e+05   3.500167e+05
   2.748499e+05   8.362812e+05
  -2.340861e+05   6.565138e+05
  -7.108669e+05  -2.389971e+05
  -6.346420e+05  -1.081095e+06
   6.332604e+04  -1.034819e+06
   8.474416e+05  -9.686621e+04
   9.789920e+05   8.875051e+05
   2.292672e+05   1.113873e+06
  -7.699801e+05   5.685031e+05
  -1.073924e+06  -1.546258e+05
  -4.507023e+05  -5.579354e+05
   3.057834e+05  -5.676528e+05
   2.992121e+05  -3.383589e+05
  -3.602983e+05  -6.857030e+04
  -6.920329e+05  -6.443958e+03
  -9.939987e+04  -2.963882e+05
   8.701884e+05  -6.736523e+05
   1.215415e+06  -5.879278e+05
   6.637862e+05   1.188467e+05
  -1.417368e+05   8.373036e+05
  -4.988804e+05   8.095093e+05
  -3.258489e+05   7.307190e+04
   2.652098e+04  -5.330339e+05
   2.798968e+05  -3.724592e+05
   3.535067e+05   2.635465e+05
   2.183623e+05   6.021592e+05
  -9.387909e+04   3.413948e+05
  -3.898315e+05  -1.055068e+05
  -4.416090e+05  -2.355596e+05
  -2.452167e+05  -4.682203e+04
  -1.724726e+04   7.422486e+04
   8.942507e+04  -1.128449e+05
   1.439193e+05  -4.169452e+05
   2.639026e+05  -4.392230e+05
   3.873234e+05  -2.482158e+04
   3.123929e+05   5.173236e+05
  -4.535426e+04   6.730685e+05
  -4.776356e+05   2.504666e+05
  -5.946038e+05  -3.767903e+05
  -1.798244e+05  -6.327989e+05
   5.028943e+05  -3.364008e+05
   8.344876e+05   1.581976e+05
   4.412498e+05   4.072607e+05
  -3.134528e+05   3.201883e+05
  -6.297809e+05   1.136912e+05
  -1.776403e+05  -4.451677e+03
   4.598997e+05   3.152258e+04
   4.489843e+05   1.961909e+05
  -2.767323e+05   3.501645e+05
  -9.149183e+05   2.306556e+05
