
 $NMID
 id='ANONYMOUS ', fmtdat='(2E16.6)'
 volume=1.0
 tramp=1.0
 $END
  -5.846036e+07   7.165391e+05
  -3.559621e+07  -3.605442e+07
   7.421870e+06  -3.981317e+07
   2.864667e+07  -1.533736e+07
   1.719127e+07   7.377061e+06
  -3.455232e+06   9.757644e+06
  -1.024857e+07  -1.339749e+06
  -2.852632e+06  -1.019511e+07
   6.490029e+06  -9.639649e+06
   1.002306e+07  -2.044766e+06
   7.262148e+06   6.340871e+06
   9.081022e+05   8.828121e+06
  -4.061942e+06   2.889098e+06
  -2.698750e+06  -5.509393e+06
   3.898337e+06  -6.706402e+06
   8.170862e+06   1.375407e+06
   4.656039e+06   1.053936e+07
  -3.835093e+06   1.223995e+07
  -1.039799e+07   6.229193e+06
  -1.122344e+07  -1.953213e+06
  -7.023867e+06  -7.644829e+06
  -9.092375e+05  -9.018651e+06
   2.984672e+06  -6.433573e+06
   2.080414e+06  -2.851525e+06
  -9.895817e+05  -2.102914e+06
  -3.051869e+05  -4.152230e+06
   5.386718e+06  -4.533286e+06
   9.828450e+06  -6.548550e+05
   7.293462e+06   4.117761e+06
   4.141219e+05   5.177988e+06
  -3.672070e+06   2.716040e+06
  -2.499207e+06   1.590366e+05
   5.178680e+05  -8.232674e+05
   2.170645e+06  -4.873962e+05
   2.184604e+06   1.337313e+06
   7.994671e+05   3.914679e+06
  -1.754541e+06   4.005718e+06
  -3.371999e+06   3.791718e+04
  -1.904183e+06  -3.701786e+06
   7.276874e+05  -2.100947e+06
   3.926154e+05   2.401963e+06
  -2.501101e+06   2.339267e+06
  -2.544873e+06  -3.309758e+06
   2.518279e+06  -6.412409e+06
   7.286280e+06  -1.146415e+06
   5.426786e+06   7.148960e+06
  -1.906503e+06   8.900270e+06
  -7.667953e+06   2.591843e+06
  -7.172286e+06  -4.552085e+06
  -1.883174e+06  -6.206831e+06
   3.585647e+06  -2.770190e+06
   5.390823e+06   1.602086e+06
   2.462859e+06   3.616163e+06
  -2.520375e+06   2.283891e+06
  -4.693700e+06  -9.438182e+05
  -2.024553e+06  -2.822409e+06
   1.772914e+06  -1.433104e+06
   1.776449e+06   1.064717e+06
  -1.426291e+06   9.454307e+05
  -2.611353e+06  -1.877760e+06
   6.571029e+05  -3.667288e+06
   4.858570e+06  -2.039122e+06
   5.538790e+06   1.403650e+06
   2.427502e+06   4.129674e+06
  -1.793821e+06   5.429265e+06
  -5.055167e+06   5.002958e+06
  -6.316974e+06   1.869358e+06
  -4.754148e+06  -3.161696e+06
  -1.037256e+06  -6.313655e+06
   1.918848e+06  -4.906861e+06
   1.866467e+06  -1.219229e+06
   1.694514e+05   3.494555e+05
  -1.207944e+05  -9.326697e+05
   1.527530e+06  -1.845817e+06
   2.814891e+06  -3.269431e+05
   2.073319e+06   1.882577e+06
   6.944987e+04   2.134027e+06
  -1.528800e+06   2.043087e+05
  -1.683234e+06  -2.085015e+06
  -2.446629e+04  -2.973395e+06
   2.793489e+06  -1.725672e+06
   4.592392e+06   1.146729e+06
   3.374258e+06   3.818267e+06
   2.947678e+04   4.376935e+06
  -2.327222e+06   2.858523e+06
  -2.324410e+06   1.202685e+06
  -1.908153e+06   6.942558e+05
  -3.023888e+06   4.762371e+05
  -4.455039e+06  -7.871567e+05
  -3.565008e+06  -2.832870e+06
  -1.301729e+05  -4.216133e+06
   3.263228e+06  -3.980742e+06
   4.233913e+06  -2.182075e+06
   2.705291e+06   3.918445e+05
   3.144268e+05   2.255418e+06
  -1.087968e+06   1.980082e+06
  -5.744260e+05  -2.254239e+04
   1.098507e+06  -1.340726e+06
   1.956724e+06  -4.167821e+05
   9.628520e+05   1.230477e+06
  -5.182515e+05   1.133162e+06
  -4.181442e+05  -4.129852e+05
   1.141450e+06  -6.937202e+05
   1.934714e+06   1.396850e+06
   6.122742e+05   3.650099e+06
  -1.740795e+06   3.491321e+06
  -3.285491e+06   1.056483e+06
  -3.358260e+06  -1.556227e+06
  -2.255642e+06  -2.837203e+06
  -4.288004e+05  -2.645456e+06
   1.259838e+06  -1.486311e+06
   1.601737e+06  -2.370357e+05
   5.039400e+05   4.758371e+04
  -3.650085e+05  -7.724369e+05
   4.320220e+05  -1.388284e+06
   1.975681e+06  -5.989183e+05
   2.099647e+06   9.293403e+05
   3.870015e+05   1.472480e+06
  -1.211216e+06   5.785703e+05
  -8.943715e+05  -4.782387e+05
   8.944869e+05  -5.072014e+05
   2.221791e+06   3.783729e+05
   1.738554e+06   1.411622e+06
  -2.941577e+05   1.996065e+06
  -2.372940e+06   1.662141e+06
  -2.839809e+06   2.634317e+05
  -1.250273e+06  -1.310120e+06
   9.477817e+05  -1.558029e+06
   1.619061e+06  -2.024915e+05
   2.189584e+05   1.116224e+06
  -1.560485e+06   7.580442e+05
  -1.761973e+06  -8.180424e+05
  -3.215412e+05  -1.705236e+06
   1.147314e+06  -9.831343e+05
   1.290909e+06   3.522254e+05
   2.329108e+05   8.179287e+05
  -8.319108e+05   5.412250e+04
  -7.607618e+05  -1.084829e+06
   5.867619e+05  -1.463129e+06
   2.057061e+06  -5.606588e+05
   2.090093e+06   1.076319e+06
   3.906385e+05   2.133808e+06
  -1.490546e+06   1.685207e+06
  -1.778552e+06   2.027352e+05
  -5.047535e+05  -9.012263e+05
   6.858119e+05  -8.180521e+05
   6.375388e+05  -7.374351e+04
  -1.403343e+05   3.506340e+05
  -4.938376e+05   1.837399e+05
  -8.709582e+04  -7.243053e+04
   4.876988e+05   1.062885e+05
   5.252355e+05   7.200130e+05
  -2.330921e+05   1.226753e+06
  -1.429131e+06   9.109255e+05
  -2.135426e+06  -4.342125e+05
  -1.499547e+06  -1.998402e+06
   2.294126e+05  -2.476413e+06
   1.661551e+06  -1.424822e+06
   1.717430e+06   1.531869e+05
   8.444935e+05   9.127349e+05
   3.029195e+05   6.314304e+05
   5.018026e+05   1.952374e+05
   6.694185e+05   3.245711e+05
   9.948326e+04   7.987709e+05
  -9.103039e+05   9.180796e+05
  -1.483722e+06   3.126859e+05
  -1.052409e+06  -7.439874e+05
   2.796970e+05  -1.476436e+06
   1.769579e+06  -1.077017e+06
   2.294166e+06   5.091291e+05
   1.143662e+06   2.163525e+06
  -1.061625e+06   2.428678e+06
  -2.628088e+06   1.038945e+06
  -2.402943e+06  -7.079199e+05
  -9.448492e+05  -1.384483e+06
   2.381101e+05  -9.468374e+05
   3.885523e+05  -4.922795e+05
   4.744239e+04  -7.651633e+05
   8.646233e+04  -1.355182e+06
   6.913400e+05  -1.336193e+06
   1.335671e+06  -3.320041e+05
   1.373151e+06   1.105814e+06
   5.694711e+05   1.940001e+06
  -6.366356e+05   1.470503e+06
  -1.316142e+06  -1.023574e+04
  -8.258397e+05  -1.328924e+06
   4.198681e+05  -1.435715e+06
   1.217158e+06  -3.978089e+05
   8.399719e+05   7.466582e+05
  -1.455525e+05   1.124719e+06
  -5.797151e+05   8.035232e+05
  -1.022334e+05   4.178487e+05
   4.470543e+05   3.370493e+05
   6.363120e+04   3.892579e+05
  -1.187905e+06   2.118204e+05
  -2.128371e+06  -3.465459e+05
  -1.657810e+06  -1.074922e+06
   5.550949e+04  -1.487973e+06
   1.649642e+06  -1.177159e+06
   1.888051e+06  -2.699136e+05
   8.526279e+05   5.334165e+05
  -2.751291e+05   5.961131e+05
  -5.331692e+05   2.541294e+04
  -4.205636e+04  -4.442127e+05
   4.447340e+05  -2.671144e+05
   4.962442e+05   3.492158e+05
   2.775198e+05   7.307840e+05
   1.161930e+05   4.854991e+05
   1.415648e+05  -8.304132e+04
   2.750725e+05  -2.792680e+05
   2.786494e+05   2.412234e+05
  -1.367953e+05   1.001458e+06
  -9.215575e+05   1.096130e+06
  -1.416215e+06   1.984895e+05
  -8.972907e+05  -9.306615e+05
   4.206463e+05  -1.186982e+06
   1.298381e+06  -3.698499e+05
   7.541233e+05   5.789415e+05
  -7.261314e+05   6.606795e+05
  -1.619634e+06  -1.140451e+05
  -1.000884e+06  -8.971365e+05
   5.226760e+05  -9.981431e+05
   1.535673e+06  -4.551483e+05
   1.245013e+06   2.181318e+05
   1.237035e+05   5.235128e+05
  -6.706163e+05   2.642855e+05
  -4.029566e+05  -3.075921e+05
   5.850370e+05  -5.463121e+05
   1.212068e+06   6.076563e+04
   7.132971e+05   1.194805e+06
  -5.689174e+05   1.752819e+06
  -1.500922e+06   9.291757e+05
  -1.289339e+06  -7.610658e+05
  -2.159883e+05  -1.827501e+06
   7.567748e+05  -1.312255e+06
   9.450569e+05   1.976115e+05
   4.249068e+05   1.224825e+06
  -2.499328e+05   9.818038e+05
  -5.842990e+05   7.735001e+04
  -4.587550e+05  -3.837663e+05
  -1.460495e+05  -1.364415e+05
  -5.849380e+04   9.221751e+04
  -3.192583e+05  -3.122899e+05
  -5.364645e+05  -9.928761e+05
  -1.714076e+05  -1.102072e+06
   7.610695e+05  -4.049095e+05
   1.506660e+06   4.716273e+05
   1.287576e+06   8.561290e+05
   1.889592e+05   7.204208e+05
  -8.490558e+05   4.325594e+05
  -9.993947e+05   1.803019e+05
  -3.907436e+05  -6.470640e+04
   1.385575e+05  -2.332622e+05
   6.519380e+04  -1.991900e+05
  -2.398557e+05  -8.202836e+04
  -6.458347e+04  -1.329538e+05
   6.419117e+05  -2.551932e+05
   1.075976e+06  -6.739967e+03
   4.963198e+05   7.065907e+05
  -8.202077e+05   1.231117e+06
  -1.755040e+06   8.168729e+05
  -1.489271e+06  -4.064217e+05
  -3.082377e+05  -1.432117e+06
   7.807334e+05  -1.429835e+06
   1.069389e+06  -5.851887e+05
   6.680171e+05   2.132578e+05
   1.554676e+05   3.653796e+05
  -4.075696e+04   8.599944e+04
   9.598544e+04   3.706916e+03
   2.971021e+05   3.857597e+05
   2.482376e+05   8.278664e+05
  -1.685948e+05   7.054176e+05
  -6.913228e+05  -9.303523e+04
  -7.885781e+05  -9.416181e+05
  -1.709391e+05  -1.056903e+06
   7.450113e+05  -2.961679e+05
   1.079997e+06   6.922502e+05
   3.955974e+05   1.112573e+06
  -7.140446e+05   7.303060e+05
  -1.164755e+06  -4.931773e+04
  -5.756686e+05  -6.428853e+05
   2.846367e+05  -7.315776e+05
   4.120735e+05  -3.925957e+05
  -2.211093e+05   3.762464e+03
  -6.568216e+05   5.396593e+04
  -1.663452e+05  -3.191653e+05
   8.378594e+05  -7.031242e+05
   1.313951e+06  -5.492444e+05
   8.186608e+05   1.941771e+05
  -8.254045e+04   9.057663e+05
  -5.815725e+05   9.017322e+05
  -4.648324e+05   1.986047e+05
  -7.859758e+04  -4.757038e+05
   2.310040e+05  -4.676520e+05
   3.591467e+05   1.161219e+05
   2.743260e+05   5.867170e+05
  -3.699570e+04   4.657550e+05
  -4.020358e+05  -2.623796e+04
  -5.045800e+05  -3.004451e+05
  -2.521327e+05  -1.138733e+05
   5.478137e+04   1.758010e+05
   9.010451e+04   9.201252e+04
  -5.851332e+04  -3.394518e+05
  -2.060567e+04  -5.936493e+05
   2.996698e+05  -2.836781e+05
   5.142831e+05   3.413749e+05
   2.262216e+05   6.524352e+05
  -3.963027e+05   3.439545e+05
  -7.056941e+05  -2.524905e+05
  -2.857097e+05  -5.699433e+05
   5.231893e+05  -3.894595e+05
   9.244374e+05   4.592894e+04
   5.076820e+05   3.772921e+05
  -2.922203e+05   4.397188e+05
  -6.577406e+05   2.755126e+05
  -2.811455e+05   3.051167e+04
   3.168913e+05  -9.947233e+04
   4.027548e+05   2.310417e+04
  -1.399586e+05   2.782560e+05
  -7.100630e+05   2.900914e+05
