
 $NMID
 id='ANONYMOUS ', fmtdat='(2E16.6)'
 volume=1.0
 tramp=1.0
 $END
   2.315828e+07  -1.436636e+05
   1.560502e+07   1.109601e+07
  -8.606051e+04   1.488595e+07
  -1.020886e+07   9.635710e+06
  -8.492209e+06   7.120881e+05
  -4.268630e+05  -4.243540e+06
   4.776623e+06  -1.955015e+06
   3.463905e+06   3.826123e+06
  -1.240443e+06   6.341667e+06
  -4.410628e+06   2.771834e+06
  -3.737369e+06  -3.003973e+06
  -4.520540e+05  -4.825290e+06
   2.217838e+06  -1.017955e+06
   1.728196e+06   3.978196e+06
  -1.424320e+06   4.688252e+06
  -3.919486e+06   3.989791e+05
  -2.875506e+06  -4.589443e+06
   1.073955e+06  -5.796312e+06
   4.436861e+06  -2.772029e+06
   4.521635e+06   1.297205e+06
   1.980031e+06   3.218603e+06
  -2.529431e+05   2.598441e+06
  -1.151422e+05   1.487077e+06
   1.557880e+06   1.800798e+06
   1.957940e+06   3.260619e+06
  -6.409291e+05   3.841421e+06
  -4.607358e+06   2.152454e+06
  -6.163990e+06  -8.870690e+05
  -3.403267e+06  -2.920449e+06
   1.239091e+06  -2.497240e+06
   3.332180e+06  -3.113088e+05
   1.242856e+06   1.637881e+06
  -2.269090e+06   1.720954e+06
  -3.446292e+06  -1.975029e+05
  -1.596029e+06  -2.599819e+06
   8.497941e+05  -3.307636e+06
   1.568151e+06  -1.474390e+06
   5.931388e+05   1.126428e+06
  -4.627933e+05   1.625128e+06
  -3.932482e+05  -5.707697e+05
   6.931818e+05  -2.696811e+06
   1.746801e+06  -1.852910e+06
   1.626383e+06   1.217131e+06
   4.769132e+04   2.841556e+06
  -1.821700e+06   9.506932e+05
  -2.039000e+06  -2.370615e+06
   1.919366e+05  -3.438319e+06
   3.236893e+06  -1.164407e+06
   4.226756e+06   2.127597e+06
   1.911249e+06   3.528754e+06
  -1.849439e+06   2.269076e+06
  -3.765864e+06  -1.714768e+05
  -2.345072e+06  -1.755482e+06
   7.098948e+05  -1.498469e+06
   2.366099e+06  -3.082708e+04
   1.366473e+06   1.069544e+06
  -6.992041e+05   7.584475e+05
  -1.370171e+06  -4.566824e+05
  -6.249258e+04  -1.120250e+06
   1.425826e+06  -4.637805e+05
   1.096985e+06   7.988458e+05
  -9.066978e+05   1.307357e+06
  -2.408285e+06   3.896414e+05
  -1.555192e+06  -1.429550e+06
   1.202826e+06  -2.843484e+06
   3.595063e+06  -2.606390e+06
   3.810233e+06  -4.892499e+05
   2.100371e+06   2.249471e+06
   1.824891e+05   3.716196e+06
  -6.499389e+05   3.160720e+06
  -6.030133e+05   1.710174e+06
  -7.141484e+05   9.342458e+05
  -1.473760e+06   9.304652e+05
  -2.303337e+06   4.572085e+05
  -2.252080e+06  -1.062306e+06
  -9.969036e+05  -2.434002e+06
   7.979861e+05  -2.041377e+06
   1.923085e+06   9.604669e+04
   1.488971e+06   2.157989e+06
  -3.124069e+05   2.376652e+06
  -2.162739e+06   7.066169e+05
  -2.606706e+06  -1.361984e+06
  -1.391370e+06  -2.341964e+06
   2.659017e+05  -1.973497e+06
   1.001877e+06  -1.126602e+06
   8.255086e+05  -7.268035e+05
   9.593824e+05  -8.291511e+05
   2.095700e+06  -6.877740e+05
   3.234353e+06   3.368631e+05
   2.683304e+06   1.987140e+06
   1.384203e+05   3.205119e+06
  -2.648214e+06   2.996738e+06
  -3.494759e+06   1.304353e+06
  -1.953688e+06  -8.089410e+05
   3.116612e+05  -1.882331e+06
   1.253685e+06  -1.267061e+06
   3.841468e+05   1.993279e+05
  -1.007934e+06   9.274350e+05
  -1.379902e+06   2.360717e+05
  -4.844248e+05  -8.652293e+05
   5.761458e+05  -8.798738e+05
   6.252781e+05   2.692908e+05
  -4.075123e+05   1.013617e+06
  -1.480775e+06   2.271752e+04
  -1.421996e+06  -2.058713e+06
   5.803848e+04  -3.171755e+06
   2.077083e+06  -2.052011e+06
   3.189009e+06   4.645650e+05
   2.511878e+06   2.371691e+06
   5.479789e+05   2.449772e+06
  -1.143849e+06   1.197142e+06
  -1.354009e+06   5.631892e+04
  -3.947822e+05  -4.319641e+04
   2.922245e+05   5.913420e+05
  -2.208546e+05   9.484273e+05
  -1.294875e+06   4.414365e+05
  -1.513494e+06  -5.082336e+05
  -4.133660e+05  -9.722559e+05
   8.808852e+05  -5.178225e+05
   8.804831e+05   3.496520e+05
  -5.651478e+05   7.031828e+05
  -1.998461e+06   7.933711e+04
  -1.831739e+06  -1.103106e+06
  -4.910285e+03  -1.883514e+06
   1.913654e+06  -1.547085e+06
   2.275964e+06  -2.738488e+05
   9.473444e+05   9.138954e+05
  -6.579858e+05   1.027631e+06
  -1.045707e+06   1.073651e+05
  -5.091191e+04  -7.510084e+05
   1.171742e+06  -5.407574e+05
   1.390641e+06   5.376924e+05
   4.436005e+05   1.308062e+06
  -7.339741e+05   9.671533e+05
  -1.069178e+06  -3.223643e+04
  -3.636693e+05  -5.582646e+05
   5.285530e+05  -8.039074e+04
   5.349168e+05   8.120586e+05
  -5.170344e+05   1.096666e+06
  -1.622553e+06   3.504967e+05
  -1.581565e+06  -8.869541e+05
  -2.910488e+05  -1.629967e+06
   1.091338e+06  -1.304499e+06
   1.355784e+06  -2.322425e+05
   4.755315e+05   6.609641e+05
  -4.916202e+05   6.915893e+05
  -6.131474e+05   4.389662e+04
   1.502012e+04  -4.802704e+05
   5.545522e+05  -3.541922e+05
   4.025904e+05   1.171991e+05
  -2.123096e+05   2.081277e+05
  -5.138987e+05  -3.298849e+05
   1.532922e+04  -9.203040e+05
   1.057581e+06  -7.571586e+05
   1.667951e+06   3.133491e+05
   1.154104e+06   1.556462e+06
  -1.958699e+05   1.989505e+06
  -1.342718e+06   1.269497e+06
  -1.511029e+06  -8.060085e+03
  -8.973934e+05  -8.704808e+05
  -3.067329e+05  -8.565611e+05
  -2.055333e+05  -3.743303e+05
  -3.027890e+05  -1.724583e+05
  -4.500357e+04  -4.814282e+05
   6.468661e+05  -7.624525e+05
   1.216175e+06  -3.641861e+05
   9.948230e+05   6.329052e+05
  -1.174207e+05   1.354753e+06
  -1.422150e+06   9.817292e+05
  -1.887224e+06  -3.712804e+05
  -1.007821e+06  -1.674416e+06
   6.713609e+05  -1.900875e+06
   1.946400e+06  -9.379488e+05
   1.984309e+06   3.781132e+05
   1.005243e+06   1.090325e+06
  -5.099808e+04   9.734423e+05
  -4.702861e+05   5.927981e+05
  -3.310917e+05   5.739065e+05
  -2.163687e+05   8.875896e+05
  -5.015006e+05   9.157449e+05
  -9.630899e+05   2.106142e+05
  -1.032649e+06  -9.005930e+05
  -4.118778e+05  -1.547853e+06
   5.401466e+05  -1.157237e+06
   1.059594e+06  -2.093186e+04
   6.974722e+05   9.690246e+05
  -1.992138e+05   1.119175e+06
  -8.031967e+05   4.766741e+05
  -6.430667e+05  -3.375447e+05
  -5.828083e+04  -7.463670e+05
   2.384800e+05  -6.656215e+05
  -6.859552e+03  -4.219078e+05
  -3.077180e+05  -3.188422e+05
  -1.934205e+04  -3.282993e+05
   8.615661e+05  -1.902697e+05
   1.569237e+06   2.392998e+05
   1.301518e+06   7.820604e+05
   8.633358e+04   1.071326e+06
  -1.146376e+06   8.738296e+05
  -1.435484e+06   3.034812e+05
  -7.246144e+05  -2.418771e+05
   1.461059e+05  -3.831073e+05
   3.726165e+05  -9.334777e+04
  -2.583100e+04   2.388038e+05
  -4.138870e+05   1.720913e+05
  -3.660645e+05  -2.848106e+05
  -7.225103e+04  -6.181859e+05
   4.362308e+04  -3.923212e+05
  -1.302890e+05   1.597277e+05
  -3.291728e+05   3.352590e+05
  -2.452934e+05  -1.782484e+05
   1.877389e+05  -8.375146e+05
   7.331246e+05  -8.316329e+05
   9.580515e+05  -5.236500e+04
   5.363571e+05   7.489584e+05
  -3.443882e+05   8.042609e+05
  -9.353946e+05   1.445961e+05
  -5.674534e+05  -5.124364e+05
   5.467400e+05  -5.455255e+05
   1.348237e+06   2.826995e+04
   9.744624e+05   6.881132e+05
  -2.888988e+05   9.081152e+05
  -1.267526e+06   5.460381e+05
  -1.118827e+06  -8.303540e+04
  -1.661939e+05  -4.530584e+05
   5.209418e+05  -2.722445e+05
   2.726947e+05   2.037237e+05
  -5.372840e+05   3.566664e+05
  -9.473669e+05  -1.714522e+05
  -4.191206e+05  -1.013990e+06
   6.331732e+05  -1.328729e+06
   1.284253e+06  -6.160993e+05
   1.008288e+06   6.863436e+05
   1.191183e+05   1.501843e+06
  -6.353009e+05   1.116774e+06
  -7.858447e+05  -8.605808e+04
  -4.164981e+05  -9.827299e+05
   9.944495e+04  -8.580070e+05
   4.373532e+05  -1.052036e+05
   4.502096e+05   3.395380e+05
   2.113959e+05   1.464090e+05
   1.228222e+04  -1.046991e+05
   1.146344e+05   1.858229e+05
   3.636740e+05   7.784578e+05
   2.365236e+05   9.166282e+05
  -4.860734e+05   3.393328e+05
  -1.225941e+06  -4.109003e+05
  -1.134418e+06  -7.160871e+05
  -1.539635e+05  -5.606402e+05
   7.891864e+05  -3.178907e+05
   8.464898e+05  -1.626649e+05
   2.331428e+05  -1.437148e+03
  -1.542060e+05   1.732472e+05
   5.653429e+04   2.204073e+05
   3.114192e+05   1.419500e+05
   3.559982e+02   1.143589e+05
  -6.520244e+05   1.363160e+05
  -8.459665e+05  -6.184395e+04
  -1.978209e+05  -5.537837e+05
   8.077278e+05  -8.836693e+05
   1.344044e+06  -5.134237e+05
   1.025490e+06   4.358790e+05
   1.525148e+05   1.175822e+06
  -6.357658e+05   1.080172e+06
  -8.689169e+05   3.509937e+05
  -5.428885e+05  -2.610298e+05
  -5.994565e+04  -2.934043e+05
   1.380736e+05   8.173443e+03
  -4.033776e+04   7.775602e+04
  -2.833774e+05  -2.833496e+05
  -2.208050e+05  -6.713271e+05
   1.821889e+05  -5.315992e+05
   5.703240e+05   1.805408e+05
   5.229019e+05   8.577561e+05
  -3.232522e+04   8.330687e+05
  -6.734440e+05   9.332371e+04
  -7.955045e+05  -6.975728e+05
  -1.982984e+05  -8.945465e+05
   6.135374e+05  -4.698823e+05
   8.698710e+05   1.144662e+05
   3.725306e+05   4.533100e+05
  -2.427822e+05   4.685147e+05
  -2.476956e+05   2.767671e+05
   2.798325e+05   4.964148e+04
   5.537821e+05  -4.261832e+02
   8.529865e+04   2.395050e+05
  -6.958900e+05   5.453867e+05
  -9.829823e+05   4.727258e+05
  -5.449704e+05  -9.906998e+04
   1.079070e+05  -6.781154e+05
   4.049832e+05  -6.585462e+05
   2.712528e+05  -6.860004e+04
  -1.298288e+04   4.243070e+05
  -2.205765e+05   3.065956e+05
  -2.847770e+05  -2.007856e+05
  -1.806987e+05  -4.824498e+05
   7.045973e+04  -2.832528e+05
   3.142887e+05   7.843584e+04
   3.601113e+05   1.928729e+05
   1.978985e+05   4.181749e+04
   8.401064e+03  -6.666532e+04
  -7.223436e+04   7.653718e+04
  -1.008487e+05   3.295619e+05
  -1.909121e+05   3.637753e+05
  -3.045306e+05   3.868799e+04
  -2.659365e+05  -4.024099e+05
   1.606634e+04  -5.390849e+05
   3.775445e+05  -2.087185e+05
   4.863201e+05   2.926904e+05
   1.531683e+05   5.037163e+05
  -4.049151e+05   2.752907e+05
  -6.772805e+05  -1.173556e+05
  -3.601854e+05  -3.242546e+05
   2.495646e+05  -2.663996e+05
   5.076433e+05  -1.041149e+05
   1.499797e+05   4.926702e+02
  -3.594612e+05  -1.559529e+04
  -3.576817e+05  -1.448017e+05
   2.123739e+05  -2.766966e+05
   7.205852e+05  -1.909627e+05
