
 $NMID
 id='ANONYMOUS ', fmtdat='(2E16.6)'
 volume=1.0
 tramp=1.0
 $END
   5.946753e+07  -2.578317e+06
   3.723763e+07   3.612263e+07
  -6.714161e+06   4.098844e+07
  -2.897700e+07   1.599941e+07
  -1.759907e+07  -7.587962e+06
   3.500252e+06  -1.004453e+07
   1.045117e+07   1.450541e+06
   2.871180e+06   1.040296e+07
  -6.598668e+06   9.673684e+06
  -1.013953e+07   2.077354e+06
  -7.438930e+06  -6.181266e+06
  -1.138222e+06  -8.755108e+06
   3.945128e+06  -3.064529e+06
   2.752478e+06   5.270654e+06
  -3.849472e+06   6.639474e+06
  -8.287795e+06  -1.313697e+06
  -4.894974e+06  -1.055393e+07
   3.622524e+06  -1.244739e+07
   1.034937e+07  -6.606764e+06
   1.145276e+07   1.558970e+06
   7.503620e+06   7.502235e+06
   1.336694e+06   9.277102e+06
  -2.961537e+06   6.842111e+06
  -2.417466e+06   2.950159e+06
   7.451193e+05   1.793510e+06
   4.778914e+05   3.851806e+06
  -4.973853e+06   4.637818e+06
  -9.592080e+06   1.067507e+06
  -7.425599e+06  -3.783257e+06
  -7.823759e+05  -5.137208e+06
   3.336347e+06  -2.928078e+06
   2.438059e+06  -4.916983e+05
  -2.351048e+05   5.654750e+05
  -1.782980e+06   5.304536e+05
  -2.078429e+06  -1.001340e+06
  -1.051815e+06  -3.647234e+06
   1.522115e+06  -4.117287e+06
   3.503096e+06  -3.461439e+05
   2.234572e+06   3.639321e+06
  -6.081219e+05   2.372279e+06
  -5.418265e+05  -2.133844e+06
   2.389701e+06  -2.289567e+06
   2.601891e+06   3.325386e+06
  -2.533673e+06   6.596040e+06
  -7.560643e+06   1.356692e+06
  -5.779862e+06  -7.172684e+06
   1.745405e+06  -9.151196e+06
   7.697121e+06  -2.849078e+06
   7.217299e+06   4.408793e+06
   1.893180e+06   6.135763e+06
  -3.538921e+06   2.736012e+06
  -5.302855e+06  -1.591805e+06
  -2.397768e+06  -3.602828e+06
   2.559124e+06  -2.322163e+06
   4.742936e+06   8.941863e+05
   2.063668e+06   2.836645e+06
  -1.766796e+06   1.484550e+06
  -1.737573e+06  -1.046655e+06
   1.545146e+06  -9.148273e+05
   2.699687e+06   2.028755e+06
  -7.388242e+05   3.901904e+06
  -5.055038e+06   2.187143e+06
  -5.681983e+06  -1.408065e+06
  -2.516023e+06  -4.179932e+06
   1.605244e+06  -5.457554e+06
   4.766451e+06  -5.096482e+06
   6.160696e+06  -2.091402e+06
   4.867937e+06   2.923872e+06
   1.244287e+06   6.198280e+06
  -1.860070e+06   4.870977e+06
  -1.926426e+06   1.115941e+06
  -1.227876e+05  -5.380353e+05
   3.651408e+05   8.045539e+05
  -1.226618e+06   1.906929e+06
  -2.637088e+06   5.624041e+05
  -2.080912e+06  -1.598451e+06
  -2.208081e+05  -1.956254e+06
   1.340910e+06  -2.352164e+05
   1.603900e+06   1.894626e+06
   1.239733e+05   2.829656e+06
  -2.627754e+06   1.801854e+06
  -4.555947e+06  -9.125902e+05
  -3.515096e+06  -3.655040e+06
  -2.008646e+05  -4.406716e+06
   2.266517e+06  -2.979972e+06
   2.351605e+06  -1.261791e+06
   1.909045e+06  -6.739166e+05
   2.942891e+06  -4.702445e+05
   4.332282e+06   7.110158e+05
   3.490550e+06   2.684773e+06
   1.955485e+05   4.054410e+06
  -3.039909e+06   3.886551e+06
  -3.977716e+06   2.219997e+06
  -2.606466e+06  -2.457601e+05
  -4.216882e+05  -2.118039e+06
   9.364742e+05  -1.945342e+06
   5.542906e+05  -1.855850e+04
  -1.002506e+06   1.317249e+06
  -1.888037e+06   4.525376e+05
  -9.888462e+05  -1.167874e+06
   4.506399e+05  -1.089781e+06
   3.640229e+05   4.076784e+05
  -1.173580e+06   6.298931e+05
  -1.923873e+06  -1.475372e+06
  -5.341765e+05  -3.644203e+06
   1.823918e+06  -3.355946e+06
   3.250639e+06  -8.993355e+05
   3.186768e+06   1.569127e+06
   2.091016e+06   2.683876e+06
   4.105092e+05   2.477504e+06
  -1.158705e+06   1.435452e+06
  -1.510921e+06   2.711365e+05
  -4.835220e+05  -3.595158e+04
   3.626304e+05   7.362705e+05
  -4.030842e+05   1.363416e+06
  -1.920723e+06   6.214048e+05
  -2.056143e+06  -8.833124e+05
  -3.858411e+05  -1.436116e+06
   1.163499e+06  -5.677940e+05
   8.385797e+05   4.532723e+05
  -8.803878e+05   4.595013e+05
  -2.109768e+06  -3.912090e+05
  -1.618497e+06  -1.340154e+06
   2.950810e+05  -1.877370e+06
   2.245732e+06  -1.594277e+06
   2.711378e+06  -2.893294e+05
   1.229728e+06   1.249926e+06
  -8.873204e+05   1.542027e+06
  -1.580292e+06   2.379110e+05
  -2.520220e+05  -1.080440e+06
   1.488181e+06  -7.633219e+05
   1.704730e+06   7.696970e+05
   3.091516e+05   1.639714e+06
  -1.114871e+06   9.376200e+05
  -1.243011e+06  -3.547558e+05
  -2.124090e+05  -7.989711e+05
   8.166205e+05  -6.476519e+04
   7.585050e+05   1.030149e+06
  -5.264982e+05   1.417847e+06
  -1.956770e+06   5.860346e+05
  -2.028545e+06  -9.866149e+05
  -4.150194e+05  -2.043930e+06
   1.410398e+06  -1.645840e+06
   1.709230e+06  -2.151154e+05
   4.885495e+05   8.646717e+05
  -6.519254e+05   7.895767e+05
  -5.916750e+05   7.964937e+04
   1.505077e+05  -3.103333e+05
   4.520089e+05  -1.462557e+05
   3.123221e+04   7.077362e+04
  -5.058353e+05  -1.319612e+05
  -5.085937e+05  -7.205609e+05
   2.263436e+05  -1.191986e+06
   1.364917e+06  -8.932520e+05
   2.055666e+06   3.831349e+05
   1.475089e+06   1.889827e+06
  -1.763295e+05   2.368945e+06
  -1.566850e+06   1.369119e+06
  -1.627078e+06  -1.402476e+05
  -7.832619e+05  -8.446812e+05
  -2.775090e+05  -5.467779e+05
  -5.050902e+05  -1.376493e+05
  -6.841440e+05  -3.040287e+05
  -1.194668e+05  -7.847544e+05
   8.681998e+05  -8.913726e+05
   1.412561e+06  -3.051226e+05
   9.935223e+05   6.932391e+05
  -2.652444e+05   1.393039e+06
  -1.676701e+06   1.040286e+06
  -2.194549e+06  -4.557199e+05
  -1.116945e+06  -2.060767e+06
   9.999582e+05  -2.351845e+06
   2.522311e+06  -1.026069e+06
   2.305718e+06   6.676408e+05
   8.884716e+05   1.319110e+06
  -2.409970e+05   8.807919e+05
  -3.458481e+05   4.406782e+05
   1.382438e+04   7.273871e+05
  -3.030853e+04   1.321528e+06
  -6.408318e+05   1.313998e+06
  -1.285242e+06   3.518577e+05
  -1.340394e+06  -1.029150e+06
  -5.835058e+05  -1.843728e+06
   5.785077e+05  -1.417890e+06
   1.258108e+06  -7.448910e+03
   8.092213e+05   1.272145e+06
  -3.972688e+05   1.388656e+06
  -1.188592e+06   3.823412e+05
  -8.291044e+05  -7.384742e+05
   1.416417e+05  -1.107274e+06
   5.761028e+05  -7.822861e+05
   1.075215e+05  -3.907976e+05
  -4.388192e+05  -3.053029e+05
  -7.157605e+04  -3.672496e+05
   1.146217e+06  -2.223109e+05
   2.061905e+06   2.966848e+05
   1.609035e+06   1.010780e+06
  -4.402583e+04   1.446100e+06
  -1.581210e+06   1.169308e+06
  -1.814688e+06   2.787315e+05
  -8.239450e+05  -5.255328e+05
   2.609865e+05  -5.914234e+05
   5.200852e+05  -2.392500e+04
   6.099074e+04   4.396243e+05
  -4.101421e+05   2.670355e+05
  -4.846829e+05  -3.235067e+05
  -2.992675e+05  -6.832445e+05
  -1.400110e+05  -4.565378e+05
  -1.346667e+05   6.679566e+04
  -2.455375e+05   2.503880e+05
  -2.674862e+05  -2.289910e+05
   1.032881e+05  -9.510666e+05
   8.615167e+05  -1.070162e+06
   1.373328e+06  -2.360290e+05
   9.008795e+05   8.672875e+05
  -3.757648e+05   1.163559e+06
  -1.245186e+06   4.021614e+05
  -7.341633e+05  -5.318605e+05
   6.888308e+05  -6.422047e+05
   1.544085e+06   9.351620e+04
   9.459616e+05   8.515542e+05
  -5.066968e+05   9.505461e+05
  -1.460716e+06   4.312956e+05
  -1.178011e+06  -2.061902e+05
  -1.154000e+05  -4.954533e+05
   6.411269e+05  -2.549936e+05
   3.994221e+05   2.919847e+05
  -5.364997e+05   5.417634e+05
  -1.158454e+06  -1.816529e+04
  -7.228760e+05  -1.115631e+06
   4.844559e+05  -1.689641e+06
   1.401563e+06  -9.296751e+05
   1.245769e+06   6.931074e+05
   2.437675e+05   1.734976e+06
  -6.992056e+05   1.255466e+06
  -9.045738e+05  -1.852387e+05
  -4.146854e+05  -1.165878e+06
   2.405677e+05  -9.350250e+05
   5.633629e+05  -7.810620e+04
   4.309024e+05   3.571458e+05
   1.259777e+05   1.256637e+05
   6.078686e+04  -8.560164e+04
   3.343019e+05   2.979030e+05
   5.399442e+05   9.400637e+05
   1.656728e+05   1.048663e+06
  -7.400727e+05   4.017667e+05
  -1.443493e+06  -4.211835e+05
  -1.227739e+06  -7.957292e+05
  -1.927722e+05  -6.879123e+05
   7.863476e+05  -4.279621e+05
   9.456169e+05  -1.844848e+05
   3.886785e+05   6.062605e+04
  -1.213793e+05   2.257376e+05
  -7.789237e+04   1.860036e+05
   2.094853e+05   6.698727e+04
   7.154454e+04   1.229230e+05
  -5.855165e+05   2.600500e+05
  -1.028116e+06   3.527328e+04
  -5.172068e+05  -6.616151e+05
   7.364070e+05  -1.200431e+06
   1.667919e+06  -8.337418e+05
   1.451684e+06   3.405501e+05
   3.318932e+05   1.355584e+06
  -7.183031e+05   1.389014e+06
  -1.006026e+06   5.946879e+05
  -6.374625e+05  -1.790819e+05
  -1.645535e+05  -3.441325e+05
   1.852598e+04  -9.090012e+04
  -1.003235e+05  -1.303258e+04
  -2.842876e+05  -3.692733e+05
  -2.473284e+05  -7.865177e+05
   1.409115e+05  -6.803449e+05
   6.558040e+05   6.169651e+04
   7.822297e+05   8.668369e+05
   2.074651e+05   1.003093e+06
  -6.900089e+05   3.147841e+05
  -1.049110e+06  -6.190101e+05
  -4.146834e+05  -1.051787e+06
   6.596252e+05  -7.259785e+05
   1.120868e+06   1.391707e+04
   5.766733e+05   6.110392e+05
  -2.533002e+05   7.213780e+05
  -3.985525e+05   3.908031e+05
   1.935310e+05  -1.167132e+04
   6.209674e+05  -6.809820e+04
   1.722369e+05   3.029756e+05
  -7.844974e+05   6.877131e+05
  -1.258339e+06   5.442220e+05
  -8.046250e+05  -1.765953e+05
   5.564627e+04  -8.727072e+05
   5.477838e+05  -8.833911e+05
   4.531612e+05  -2.151007e+05
   9.314976e+04   4.438787e+05
  -2.050345e+05   4.599138e+05
  -3.416906e+05  -8.830475e+04
  -2.774753e+05  -5.527697e+05
   1.806988e+04  -4.580308e+05
   3.837394e+05   9.266932e+03
   4.956848e+05   2.844557e+05
   2.452460e+05   1.120639e+05
  -6.599533e+04  -1.765978e+05
  -9.305678e+04  -1.095301e+05
   8.220037e+04   3.092029e+05
   6.551309e+04   5.766366e+05
  -2.649081e+05   3.027372e+05
  -5.149292e+05  -2.925434e+05
  -2.567877e+05  -6.100390e+05
   3.613234e+05  -3.433876e+05
   6.874453e+05   2.127639e+05
   2.924558e+05   5.298928e+05
  -4.943284e+05   3.870386e+05
  -8.909712e+05  -1.381718e+04
  -4.977781e+05  -3.470164e+05
   2.664381e+05  -4.376999e+05
   6.226889e+05  -2.928567e+05
   2.788177e+05  -4.039598e+04
  -2.814797e+05   1.111634e+05
  -3.752985e+05   2.782778e+03
   1.156385e+05  -2.563339e+05
   6.488650e+05  -2.899203e+05
