
 $NMID
 id='ANONYMOUS ', fmtdat='(2E16.6)'
 volume=1.0
 tramp=1.0
 $END
   8.866740e+06  -9.162913e+05
   6.673476e+06   3.223666e+06
   9.600701e+05   5.629476e+06
  -3.442728e+06   4.615717e+06
  -3.533705e+06   1.091378e+06
  -5.791956e+05  -1.698642e+06
   1.902664e+06  -1.281223e+06
   1.816439e+06   1.343069e+06
  -8.261445e+04   2.866904e+06
  -1.682356e+06   1.507787e+06
  -1.664961e+06  -1.095833e+06
  -3.485685e+05  -2.028480e+06
   8.990777e+05  -4.480947e+05
   8.815164e+05   1.729300e+06
  -3.830560e+05   2.147175e+06
  -1.601440e+06   4.268952e+05
  -1.417858e+06  -1.727180e+06
   1.448077e+05  -2.406198e+06
   1.647940e+06  -1.267867e+06
   1.784782e+06   4.043923e+05
   7.613872e+05   1.173818e+06
  -7.137857e+04   8.552506e+05
   1.831269e+05   4.392842e+05
   9.968133e+05   7.677263e+05
   1.058924e+06   1.551317e+06
  -2.459761e+05   1.800474e+06
  -2.046307e+06   1.010799e+06
  -2.705390e+06  -3.078345e+05
  -1.470155e+06  -1.184508e+06
   5.882302e+05  -1.047149e+06
   1.523615e+06  -1.068241e+05
   5.478158e+05   8.292495e+05
  -1.124941e+06   9.132315e+05
  -1.695429e+06  -4.427345e+04
  -7.812672e+05  -1.248331e+06
   3.989387e+05  -1.535897e+06
   6.708639e+05  -5.941310e+05
   1.451665e+05   5.626100e+05
  -2.934204e+05   6.439181e+05
  -1.641404e+05  -4.080185e+05
   3.146921e+05  -1.297764e+06
   7.238240e+05  -8.972798e+05
   7.611222e+05   4.018244e+05
   2.731011e+05   1.148373e+06
  -5.161345e+05   5.234859e+05
  -8.636195e+05  -7.615527e+05
  -1.408042e+05  -1.320853e+06
   1.226554e+06  -5.858984e+05
   1.895090e+06   7.239034e+05
   1.017092e+06   1.453460e+06
  -7.040489e+05   1.102710e+06
  -1.693475e+06   1.175595e+05
  -1.158677e+06  -6.542875e+05
   1.831902e+05  -6.938891e+05
   9.866438e+05  -1.527029e+05
   6.481248e+05   3.612692e+05
  -2.415186e+05   3.461455e+05
  -6.390042e+05  -1.390871e+05
  -1.453376e+05  -5.461990e+05
   6.061802e+05  -4.005370e+05
   6.590204e+05   1.928564e+05
  -1.585062e+05   6.249377e+05
  -9.549861e+05   3.736643e+05
  -7.393342e+05  -4.690306e+05
   4.364233e+05  -1.226732e+06
   1.519933e+06  -1.198084e+06
   1.626432e+06  -2.733851e+05
   9.048450e+05   9.303661e+05
   1.575470e+05   1.589554e+06
  -1.340576e+05   1.414274e+06
  -1.681037e+05   8.578405e+05
  -3.504915e+05   5.283911e+05
  -7.583950e+05   4.672062e+05
  -1.105113e+06   1.946612e+05
  -1.047334e+06  -5.120880e+05
  -4.722672e+05  -1.141385e+06
   3.667833e+05  -9.721582e+05
   9.281488e+05   1.042512e+04
   7.499195e+05   9.762661e+05
  -9.546831e+04   1.090895e+06
  -9.550520e+05   3.391437e+05
  -1.149575e+06  -5.672879e+05
  -6.161130e+05  -9.658811e+05
   7.153206e+04  -7.966063e+05
   3.531449e+05  -4.672527e+05
   2.794643e+05  -3.470146e+05
   3.747441e+05  -4.304232e+05
   9.145861e+05  -4.000999e+05
   1.463541e+06   3.452981e+04
   1.272596e+06   8.057745e+05
   1.618109e+05   1.445921e+06
  -1.120239e+06   1.431135e+06
  -1.559609e+06   6.658282e+05
  -8.963304e+05  -3.446852e+05
   1.270666e+05  -8.688614e+05
   5.593506e+05  -5.898231e+05
   1.748382e+05   9.147222e+04
  -4.399380e+05   4.418112e+05
  -6.085945e+05   1.438145e+05
  -2.277138e+05  -3.694530e+05
   2.478071e+05  -4.160645e+05
   3.148927e+05   1.015617e+05
  -1.227056e+05   5.115299e+05
  -6.788083e+05   1.369977e+05
  -7.832613e+05  -8.426553e+05
  -1.599472e+05  -1.486624e+06
   8.570463e+05  -1.088309e+06
   1.510714e+06   6.619913e+04
   1.265723e+06   1.020922e+06
   3.342901e+05   1.126758e+06
  -4.963436e+05   5.792279e+05
  -6.203481e+05   5.553954e+04
  -1.808694e+05  -8.441381e+03
   1.512278e+05   2.589653e+05
  -6.196616e+04   4.285506e+05
  -5.566019e+05   2.397546e+05
  -6.958264e+05  -1.682783e+05
  -2.272684e+05  -4.173250e+05
   3.800028e+05  -2.675683e+05
   4.241372e+05   1.315653e+05
  -2.279509e+05   3.595306e+05
  -9.274613e+05   1.209740e+05
  -8.996938e+05  -4.503134e+05
  -7.301570e+04  -8.812188e+05
   8.297803e+05  -7.777517e+05
   1.030979e+06  -1.968465e+05
   4.568160e+05   3.788721e+05
  -2.605896e+05   4.737033e+05
  -4.557323e+05   7.837699e+04
  -3.815541e+04  -3.298678e+05
   5.122076e+05  -2.775797e+05
   6.500114e+05   1.952853e+05
   2.552787e+05   5.810911e+05
  -2.942204e+05   4.777790e+05
  -4.935146e+05   3.506721e+04
  -1.965572e+05  -2.382280e+05
   2.284934e+05  -5.641924e+04
   2.629297e+05   3.492761e+05
  -2.058965e+05   5.092414e+05
  -7.267651e+05   2.008739e+05
  -7.406963e+05  -3.587429e+05
  -1.801435e+05  -7.290795e+05
   4.515646e+05  -6.251552e+05
   6.076327e+05  -1.518040e+05
   2.426505e+05   2.837673e+05
  -1.996276e+05   3.335298e+05
  -2.857764e+05   3.678343e+04
  -1.325421e+04  -2.342500e+05
   2.550066e+05  -1.915583e+05
   2.102773e+05   4.807608e+04
  -8.003417e+04   1.232134e+05
  -2.523738e+05  -1.184623e+05
  -3.269027e+04  -4.168820e+05
   4.539826e+05  -3.789648e+05
   7.671090e+05   9.094630e+04
   5.692546e+05   6.723252e+05
  -3.156247e+04   9.137648e+05
  -5.769890e+05   6.280716e+05
  -7.003727e+05   4.808654e+04
  -4.500420e+05  -3.826854e+05
  -1.671007e+05  -4.078048e+05
  -8.882692e+04  -1.790749e+05
  -1.267770e+05  -6.171313e+04
  -3.304350e+04  -2.065462e+05
   2.671498e+05  -3.691259e+05
   5.467796e+05  -2.094606e+05
   4.826794e+05   2.634661e+05
  -7.568456e+03   6.344588e+05
  -6.209678e+05   4.979386e+05
  -8.754781e+05  -1.115335e+05
  -5.161969e+05  -7.303630e+05
   2.367008e+05  -8.849644e+05
   8.494411e+05  -4.942506e+05
   9.221904e+05   1.005963e+05
   5.090079e+05   4.682381e+05
   1.400340e+04   4.622037e+05
  -2.100615e+05   2.974459e+05
  -1.550279e+05   2.665532e+05
  -8.166566e+04   3.959315e+05
  -1.968045e+05   4.218342e+05
  -4.249846e+05   1.213454e+05
  -4.927055e+05  -3.808806e+05
  -2.304998e+05  -6.931376e+05
   2.141819e+05  -5.421859e+05
   4.833126e+05  -4.303849e+04
   3.501234e+05   4.146998e+05
  -4.761097e+04   5.152007e+05
  -3.409730e+05   2.539371e+05
  -3.030199e+05  -1.158309e+05
  -6.245571e+04  -3.287695e+05
   7.280857e+04  -3.138981e+05
  -2.144799e+04  -1.993178e+05
  -1.456654e+05  -1.396928e+05
  -1.592736e+04  -1.501833e+05
   3.810334e+05  -1.142035e+05
   7.131769e+05   5.925030e+04
   6.153687e+05   3.123776e+05
   8.148200e+04   4.781978e+05
  -4.838201e+05   4.286608e+05
  -6.409379e+05   1.878195e+05
  -3.421133e+05  -7.566601e+04
   4.928942e+04  -1.727077e+05
   1.637823e+05  -5.922990e+04
  -8.413951e+03   1.008234e+05
  -1.878577e+05   8.722216e+04
  -1.731055e+05  -1.194239e+05
  -3.991318e+04  -2.813342e+05
   1.834656e+04  -1.795981e+05
  -5.668144e+04   8.329941e+04
  -1.489168e+05   1.698783e+05
  -1.185743e+05  -7.317346e+04
   6.712910e+04  -3.894387e+05
   3.091562e+05  -3.973819e+05
   4.216529e+05  -4.546085e+04
   2.532821e+05   3.247912e+05
  -1.329263e+05   3.662018e+05
  -4.137533e+05   8.310562e+04
  -2.709495e+05  -2.204164e+05
   2.309809e+05  -2.664277e+05
   6.201299e+05  -3.101496e+04
   4.776276e+05   2.842625e+05
  -9.641220e+04   4.316395e+05
  -5.661940e+05   2.994062e+05
  -5.223487e+05   9.308443e+02
  -9.384721e+04  -2.047138e+05
   2.288108e+05  -1.441490e+05
   1.270492e+05   8.132957e+04
  -2.389656e+05   1.721139e+05
  -4.346039e+05  -5.905684e+04
  -2.095637e+05  -4.532988e+05
   2.621605e+05  -6.181179e+05
   5.729011e+05  -3.089839e+05
   4.779388e+05   2.889010e+05
   9.436890e+04   6.841128e+05
  -2.595351e+05   5.328087e+05
  -3.636294e+05  -1.102368e+04
  -2.245138e+05  -4.366477e+05
   1.313447e+04  -4.002164e+05
   1.943769e+05  -6.424825e+04
   2.211975e+05   1.444953e+05
   1.074296e+05   6.386553e+04
   1.919569e+02  -5.066316e+04
   4.786427e+04   7.567817e+04
   1.841704e+05   3.427052e+05
   1.420322e+05   4.143711e+05
  -2.027732e+05   1.711073e+05
  -5.725982e+05  -1.538732e+05
  -5.459897e+05  -2.961895e+05
  -8.702103e+04  -2.500427e+05
   3.585045e+05  -1.654226e+05
   3.848713e+05  -1.001660e+05
   1.008148e+05  -1.195690e+04
  -6.832533e+04   8.233938e+04
   3.981466e+04   1.041324e+05
   1.544197e+05   6.195884e+04
  -3.195367e+02   5.231038e+04
  -3.030498e+05   7.543204e+04
  -3.860847e+05  -8.079377e+03
  -9.199591e+04  -2.445301e+05
   3.527881e+05  -4.184146e+05
   5.925372e+05  -2.639335e+05
   4.676427e+05   1.756055e+05
   9.708585e+04   5.333848e+05
  -2.585293e+05   5.066079e+05
  -3.861073e+05   1.769574e+05
  -2.552507e+05  -1.097277e+05
  -3.123796e+04  -1.316328e+05
   7.041713e+04   6.052150e+03
  -1.397449e+04   4.282027e+04
  -1.411116e+05  -1.193115e+05
  -1.221010e+05  -3.004411e+05
   7.060455e+04  -2.451009e+05
   2.659636e+05   7.338343e+04
   2.551838e+05   3.827027e+05
  -2.478745e+03   3.788715e+05
  -3.091356e+05   5.137294e+04
  -3.774184e+05  -3.048188e+05
  -1.080974e+05  -4.017041e+05
   2.683297e+05  -2.236986e+05
   3.950414e+05   3.166812e+04
   1.771892e+05   1.906591e+05
  -9.721827e+04   2.121120e+05
  -9.847399e+04   1.313399e+05
   1.363476e+05   1.899528e+04
   2.543543e+05  -1.315456e+04
   4.254209e+04   1.052478e+05
  -3.030885e+05   2.678508e+05
  -4.296226e+05   2.475231e+05
  -2.437974e+05  -2.424003e+04
   3.197940e+04  -3.087935e+05
   1.604514e+05  -3.081015e+05
   1.136946e+05  -3.331013e+04
   7.012258e+02   1.966280e+05
  -9.375670e+04   1.411236e+05
  -1.348932e+05  -9.111777e+04
  -9.369646e+04  -2.154242e+05
   2.619088e+04  -1.244244e+05
   1.447409e+05   3.067498e+04
   1.670677e+05   7.356275e+04
   9.155643e+04   9.599139e+03
   5.202549e+03  -2.484940e+04
  -3.171806e+04   4.808071e+04
  -4.752457e+04   1.565583e+05
  -9.085019e+04   1.619864e+05
  -1.412642e+05   1.234999e+04
  -1.215978e+05  -1.842366e+05
   6.046318e+03  -2.462915e+05
   1.700543e+05  -1.010252e+05
   2.240664e+05   1.253125e+05
   7.882901e+04   2.282283e+05
  -1.753193e+05   1.349097e+05
  -3.072397e+05  -3.906586e+04
  -1.703161e+05  -1.386085e+05
   1.065501e+05  -1.224935e+05
   2.263343e+05  -5.404950e+04
   6.277075e+04  -2.866236e+03
  -1.715545e+05  -4.195560e+03
  -1.691899e+05  -6.500783e+04
   9.643513e+04  -1.357790e+05
   3.339765e+05  -1.043140e+05
