
 $NMID
 id='ANONYMOUS ', fmtdat='(2E16.6)'
 volume=1.0
 tramp=1.0
 $END
   4.055043e+07   3.905369e+06
   2.264846e+07   2.541666e+07
  -6.338813e+06   2.618610e+07
  -1.990339e+07   1.067105e+07
  -1.208765e+07  -3.897052e+06
   1.932364e+06  -6.571234e+06
   7.220130e+06   3.143102e+04
   2.691276e+06   6.914116e+06
  -4.118450e+06   7.679806e+06
  -7.186408e+06   1.969313e+06
  -5.155508e+06  -5.159078e+06
  -1.613216e+05  -7.017762e+06
   3.425956e+06  -1.676197e+06
   2.051963e+06   5.098790e+06
  -2.925832e+06   5.641874e+06
  -5.902995e+06  -8.879327e+05
  -3.144661e+06  -7.807993e+06
   3.183002e+06  -8.755429e+06
   7.832203e+06  -3.771795e+06
   7.725104e+06   2.506031e+06
   3.806033e+06   6.008427e+06
  -5.189734e+05   5.748041e+06
  -1.960350e+06   3.455598e+06
  -6.592847e+04   2.023090e+06
   1.760928e+06   2.930243e+06
  -3.727406e+05   4.372773e+06
  -5.610275e+06   3.204298e+06
  -8.412633e+06  -7.887099e+05
  -5.196190e+06  -4.164359e+06
   9.501641e+05  -4.033476e+06
   4.015027e+06  -1.298508e+06
   2.064857e+06   1.136906e+06
  -1.604932e+06   1.618034e+06
  -3.227031e+06   1.735217e+05
  -2.076664e+06  -2.338241e+06
   3.127451e+05  -4.000572e+06
   2.077464e+06  -2.654925e+06
   1.971035e+06   1.021307e+06
   2.831380e+05   2.920344e+06
  -8.590808e+05   5.155207e+05
   2.814774e+05  -2.886952e+06
   2.298987e+06  -2.098632e+06
   1.903368e+06   2.360959e+06
  -1.521621e+06   4.348148e+06
  -4.403930e+06   4.723077e+05
  -3.116376e+06  -5.067600e+06
   1.625625e+06  -5.914376e+06
   5.615844e+06  -1.336326e+06
   5.546698e+06   3.757193e+06
   1.691699e+06   5.009667e+06
  -2.850248e+06   2.442061e+06
  -4.611503e+06  -1.057099e+06
  -2.342731e+06  -2.761576e+06
   1.674019e+06  -1.746085e+06
   3.465444e+06   6.942695e+05
   1.548367e+06   2.019179e+06
  -1.313962e+06   9.824269e+05
  -1.579845e+06  -8.276468e+05
   5.868402e+05  -9.655096e+05
   1.804876e+06   6.856068e+05
   7.794618e+04   1.945211e+06
  -2.818203e+06   1.276049e+06
  -3.778881e+06  -7.564644e+05
  -1.735822e+06  -2.850587e+06
   1.890363e+06  -4.116417e+06
   4.826088e+06  -3.641875e+06
   5.370681e+06  -7.928349e+05
   3.292262e+06   3.155479e+06
   2.222122e+05   5.245484e+06
  -1.504626e+06   4.022155e+06
  -1.178186e+06   1.476666e+06
  -4.018989e+05   4.918763e+05
  -9.029414e+05   1.157956e+06
  -2.304453e+06   1.152242e+06
  -2.812717e+06  -6.342392e+05
  -1.568981e+06  -2.517887e+06
   5.232749e+05  -2.324559e+06
   1.931663e+06  -4.021747e+04
   1.662696e+06   2.340636e+06
  -2.945999e+05   2.856502e+06
  -2.733755e+06   1.103596e+06
  -3.684251e+06  -1.637451e+06
  -2.168633e+06  -3.416829e+06
   4.565554e+05  -3.212186e+06
   1.873536e+06  -1.811875e+06
   1.613375e+06  -8.125104e+05
   1.449789e+06  -7.133481e+05
   2.655068e+06  -5.108538e+05
   3.967758e+06   7.498625e+05
   3.153481e+06   2.655966e+06
  -1.961576e+04   3.900968e+06
  -3.283874e+06   3.551238e+06
  -4.211273e+06   1.652183e+06
  -2.469377e+06  -8.046886e+05
   1.334355e+05  -2.257711e+06
   1.378862e+06  -1.676704e+06
   5.139119e+05   1.651010e+05
  -1.187976e+06   1.154657e+06
  -1.765163e+06   2.464821e+05
  -6.772503e+05  -1.154678e+06
   6.387465e+05  -1.056320e+06
   5.625285e+05   3.413023e+05
  -7.435438e+05   8.637421e+05
  -1.638685e+06  -6.747629e+05
  -9.659954e+05  -2.852309e+06
   8.902753e+05  -3.371249e+06
   2.693298e+06  -1.605681e+06
   3.382762e+06   1.051799e+06
   2.504097e+06   2.773848e+06
   4.762590e+05   2.722506e+06
  -1.335719e+06   1.385886e+06
  -1.589307e+06   9.026193e+04
  -4.722144e+05  -6.711320e+04
   3.170609e+05   7.301659e+05
  -3.957482e+05   1.188755e+06
  -1.720199e+06   4.478018e+05
  -1.833880e+06  -8.236071e+05
  -3.618263e+05  -1.272132e+06
   1.110656e+06  -5.334309e+05
   9.353761e+05   4.500408e+05
  -7.440442e+05   6.263841e+05
  -2.203281e+06  -1.733048e+05
  -1.881346e+06  -1.344678e+06
   1.697559e+05  -2.046846e+06
   2.303155e+06  -1.635720e+06
   2.704588e+06  -1.903046e+05
   1.095004e+06   1.208699e+06
  -9.128369e+05   1.297695e+06
  -1.391612e+06   7.626189e+04
  -7.548665e+04  -9.898035e+05
   1.467328e+06  -6.157704e+05
   1.622243e+06   7.673282e+05
   3.585051e+05   1.578468e+06
  -9.909268e+05   9.912879e+05
  -1.213913e+06  -2.181259e+05
  -2.961010e+05  -7.077321e+05
   7.020753e+05  -3.266784e+04
   6.325785e+05   1.029575e+06
  -6.468203e+05   1.327473e+06
  -1.969488e+06   3.954300e+05
  -1.892968e+06  -1.121981e+06
  -2.746177e+05  -1.994501e+06
   1.415830e+06  -1.511112e+06
   1.647752e+06  -1.677973e+05
   4.874687e+05   8.293394e+05
  -6.411340e+05   7.712710e+05
  -6.757974e+05   4.725637e+04
   6.500169e+04  -4.469214e+05
   5.583251e+05  -3.046350e+05
   2.985637e+05   7.838401e+04
  -3.184275e+05   5.235114e+04
  -5.104029e+05  -5.366498e+05
   1.612100e+05  -1.102433e+06
   1.332885e+06  -8.253325e+05
   1.985075e+06   4.701932e+05
   1.321369e+06   1.929489e+06
  -3.127297e+05   2.351676e+06
  -1.625739e+06   1.379081e+06
  -1.703184e+06  -1.203667e+05
  -9.248247e+05  -9.656697e+05
  -3.397029e+05  -8.287123e+05
  -3.655734e+05  -3.608211e+05
  -4.680700e+05  -2.983141e+05
  -2.960783e+04  -6.652072e+05
   8.426831e+05  -8.505575e+05
   1.428824e+06  -3.205587e+05
   1.075115e+06   7.535591e+05
  -2.334992e+05   1.493944e+06
  -1.712448e+06   1.038423e+06
  -2.191963e+06  -5.369612e+05
  -1.064312e+06  -2.051821e+06
   9.853004e+05  -2.226939e+06
   2.424688e+06  -9.477341e+05
   2.280237e+06   6.319289e+05
   1.006284e+06   1.314641e+06
  -1.504713e+05   1.016001e+06
  -4.696166e+05   5.960376e+05
  -2.627664e+05   7.286807e+05
  -2.425608e+05   1.173194e+06
  -6.858115e+05   1.142673e+06
  -1.218955e+06   2.232044e+05
  -1.225254e+06  -1.115850e+06
  -4.442195e+05  -1.865249e+06
   6.785799e+05  -1.365570e+06
   1.251960e+06   3.716376e+04
   7.524119e+05   1.228674e+06
  -3.654100e+05   1.317915e+06
  -1.047113e+06   4.199867e+05
  -7.289839e+05  -5.762820e+05
   8.107133e+04  -9.494218e+05
   4.335257e+05  -7.364965e+05
   4.721182e+04  -4.410037e+05
  -3.857085e+05  -3.720717e+05
  -2.824756e+04  -3.858392e+05
   1.077732e+06  -1.643064e+05
   1.921687e+06   3.928097e+05
   1.514368e+06   1.032796e+06
  -3.319483e+04   1.323965e+06
  -1.505179e+06   1.000764e+06
  -1.747758e+06   2.384335e+05
  -8.011385e+05  -4.152503e+05
   2.441225e+05  -4.900014e+05
   4.663107e+05  -4.683260e+04
  -2.453309e+04   3.547573e+05
  -4.728882e+05   2.169736e+05
  -4.399386e+05  -3.557014e+05
  -1.455343e+05  -7.396107e+05
  -6.505671e+03  -4.807415e+05
  -1.395159e+05   1.350370e+05
  -3.303898e+05   3.373296e+05
  -2.693299e+05  -2.274851e+05
   2.117451e+05  -9.774042e+05
   9.160899e+05  -9.799776e+05
   1.251360e+06  -5.442340e+04
   7.045528e+05   9.359418e+05
  -4.603128e+05   1.021215e+06
  -1.195180e+06   1.994457e+05
  -6.779004e+05  -6.115682e+05
   6.899742e+05  -6.097528e+05
   1.562605e+06   1.205526e+05
   1.027420e+06   8.527121e+05
  -4.392405e+05   9.877832e+05
  -1.483198e+06   4.978907e+05
  -1.245163e+06  -1.814631e+05
  -1.451165e+05  -5.174072e+05
   6.310599e+05  -2.647353e+05
   3.364340e+05   2.842619e+05
  -6.270015e+05   4.537389e+05
  -1.147004e+06  -1.810380e+05
  -5.444161e+05  -1.211915e+06
   7.230333e+05  -1.615315e+06
   1.524283e+06  -7.565507e+05
   1.190739e+06   8.203817e+05
   1.101221e+05   1.774651e+06
  -7.783190e+05   1.265729e+06
  -9.033494e+05  -1.724753e+05
  -4.095852e+05  -1.173640e+06
   2.013700e+05  -9.610792e+05
   5.348008e+05  -7.768797e+04
   4.785095e+05   3.938872e+05
   1.977488e+05   1.497758e+05
   3.396394e+04  -1.020295e+05
   1.966156e+05   2.804262e+05
   4.314174e+05   9.585345e+05
   1.905069e+05   1.066355e+06
  -6.578460e+05   3.561889e+05
  -1.431333e+06  -5.209713e+05
  -1.262721e+06  -8.692155e+05
  -1.544288e+05  -6.810002e+05
   8.948360e+05  -3.733514e+05
   9.843040e+05  -1.521411e+05
   3.133973e+05   4.879894e+04
  -1.688246e+05   2.122655e+05
   6.015525e+03   2.157093e+05
   3.084239e+05   1.239176e+05
   2.474664e+04   1.385596e+05
  -7.136718e+05   1.895338e+05
  -1.019593e+06  -7.590009e+04
  -3.185643e+05  -7.003228e+05
   9.290727e+05  -1.090523e+06
   1.671517e+06  -6.192700e+05
   1.305407e+06   5.249800e+05
   1.851181e+05   1.399803e+06
  -8.055395e+05   1.291601e+06
  -1.056428e+06   4.448826e+05
  -6.411668e+05  -2.831317e+05
  -9.387122e+04  -3.594717e+05
   1.162165e+05  -4.108639e+04
  -6.029605e+04   4.114944e+04
  -2.954833e+05  -3.567227e+05
  -2.216285e+05  -7.992148e+05
   2.184260e+05  -6.479639e+05
   6.746273e+05   1.789244e+05
   6.569955e+05   9.994234e+05
   1.607316e+04   1.018267e+06
  -7.812378e+05   1.707505e+05
  -9.715700e+05  -7.940951e+05
  -2.616567e+05  -1.085142e+06
   7.420147e+05  -5.997913e+05
   1.072638e+06   1.416516e+05
   4.625382e+05   6.006254e+05
  -3.168701e+05   6.121559e+05
  -3.567369e+05   3.270862e+05
   2.807647e+05   2.818358e+04
   6.481220e+05  -3.471410e+03
   1.148577e+05   3.035409e+05
  -8.389923e+05   6.300105e+05
  -1.221472e+06   4.903386e+05
  -6.957220e+05  -1.878754e+05
   1.415215e+05  -8.320724e+05
   5.519873e+05  -7.906328e+05
   3.930262e+05  -1.053433e+05
   1.359351e+04   4.897956e+05
  -2.651583e+05   3.965267e+05
  -3.456368e+05  -1.920583e+05
  -2.164505e+05  -5.792012e+05
   8.602347e+04  -3.881419e+05
   3.818045e+05   7.646785e+04
   4.366594e+05   2.771555e+05
   2.285312e+05   8.606184e+04
  -5.635629e+03  -1.267235e+05
  -6.844034e+04   5.111543e+03
  -4.512506e+04   3.754154e+05
  -1.440215e+05   5.133714e+05
  -3.536907e+05   1.450023e+05
  -3.959565e+05  -4.386172e+05
  -6.788168e+04  -6.573217e+05
   4.335350e+05  -2.761327e+05
   6.202771e+05   3.300142e+05
   2.077529e+05   5.892032e+05
  -5.056415e+05   3.272019e+05
  -8.446888e+05  -1.335447e+05
  -4.418905e+05  -3.950797e+05
   3.112921e+05  -3.545618e+05
   6.338182e+05  -1.626615e+05
   2.227789e+05   3.828823e+03
  -3.811038e+05   3.252168e+04
  -4.163229e+05  -1.134369e+05
   2.018183e+05  -3.033338e+05
   7.861102e+05  -2.385812e+05
