
 $NMID
 id='ANONYMOUS ', fmtdat='(2E16.6)'
 volume=1.0
 tramp=1.0
 $END
  -5.659675e+07  -2.325463e+06
  -3.244808e+07  -3.687187e+07
   9.403825e+06  -3.814111e+07
   2.851882e+07  -1.315155e+07
   1.611100e+07   8.195119e+06
  -3.936195e+06   9.215098e+06
  -9.771568e+06  -1.948795e+06
  -2.104750e+06  -9.988798e+06
   6.812764e+06  -8.836389e+06
   9.751287e+06  -1.361486e+06
   6.658839e+06   6.470949e+06
   4.364017e+05   8.515005e+06
  -4.047158e+06   2.600521e+06
  -2.314819e+06  -5.363935e+06
   4.096902e+06  -6.176075e+06
   7.784549e+06   1.794247e+06
   3.910434e+06   1.040145e+07
  -4.354143e+06   1.158792e+07
  -1.036152e+07   5.477978e+06
  -1.076142e+07  -2.440958e+06
  -6.445858e+06  -7.760540e+06
  -4.327126e+05  -8.832733e+06
   3.291247e+06  -6.112011e+06
   2.277239e+06  -2.583543e+06
  -7.985508e+05  -1.935968e+06
  -1.505447e+05  -3.926651e+06
   5.309688e+06  -4.121427e+06
   9.436847e+06  -2.169233e+05
   6.832860e+06   4.284625e+06
   2.139610e+05   5.025092e+06
  -3.602529e+06   2.503401e+06
  -2.435188e+06   1.186764e+05
   4.147863e+05  -7.234545e+05
   1.993185e+06  -4.154607e+05
   2.034686e+06   1.286668e+06
   6.580476e+05   3.751598e+06
  -1.859402e+06   3.803345e+06
  -3.319565e+06  -8.645352e+04
  -1.717811e+06  -3.687626e+06
   8.263097e+05  -2.070851e+06
   3.244864e+05   2.262975e+06
  -2.488102e+06   2.095044e+06
  -2.256730e+06  -3.329830e+06
   2.819679e+06  -6.042601e+06
   7.158158e+06  -6.907584e+05
   4.879197e+06   7.223252e+06
  -2.336881e+06   8.508694e+06
  -7.540266e+06   2.105667e+06
  -6.633849e+06  -4.739301e+06
  -1.453308e+06  -6.029559e+06
   3.573113e+06  -2.437964e+06
   5.039210e+06   1.831035e+06
   2.127680e+06   3.589356e+06
  -2.562711e+06   2.043117e+06
  -4.458931e+06  -1.170219e+06
  -1.782117e+06  -2.829239e+06
   1.786345e+06  -1.284077e+06
   1.628425e+06   1.110573e+06
  -1.451501e+06   7.920805e+05
  -2.391340e+06  -2.010387e+06
   9.067609e+05  -3.529367e+06
   4.853220e+06  -1.680460e+06
   5.261676e+06   1.691814e+06
   2.100573e+06   4.123824e+06
  -1.980901e+06   5.130312e+06
  -5.056838e+06   4.567860e+06
  -6.142571e+06   1.513113e+06
  -4.438297e+06  -3.248992e+06
  -7.059396e+05  -6.100560e+06
   2.099035e+06  -4.581982e+06
   1.858996e+06  -1.016549e+06
   9.705367e+04   3.942598e+05
  -1.565301e+05  -8.997693e+05
   1.487216e+06  -1.744084e+06
   2.695983e+06  -2.491569e+05
   1.921976e+06   1.836339e+06
   1.712398e+04   2.015526e+06
  -1.421603e+06   1.459010e+05
  -1.494838e+06  -2.021937e+06
   9.654901e+04  -2.818326e+06
   2.735234e+06  -1.538182e+06
   4.354268e+06   1.287930e+06
   3.075643e+06   3.823841e+06
  -1.797502e+05   4.227370e+06
  -2.395370e+06   2.646858e+06
  -2.312930e+06   1.028956e+06
  -1.863838e+06   5.463389e+05
  -2.895839e+06   2.898670e+05
  -4.191889e+06  -9.709154e+05
  -3.246878e+06  -2.862043e+06
   7.599167e+04  -4.003027e+06
   3.271888e+06  -3.625474e+06
   4.106562e+06  -1.893523e+06
   2.558907e+06   4.721432e+05
   2.241668e+05   2.151565e+06
  -1.104379e+06   1.844946e+06
  -5.485038e+05  -3.905743e+04
   1.096188e+06  -1.226740e+06
   1.881103e+06  -3.064171e+05
   8.674120e+05   1.218479e+06
  -5.340232e+05   1.051303e+06
  -3.596866e+05  -4.092418e+05
   1.132572e+06  -5.717603e+05
   1.753386e+06   1.472817e+06
   3.489711e+05   3.514452e+06
  -1.873939e+06   3.183826e+06
  -3.169759e+06   7.758093e+05
  -3.067815e+06  -1.661968e+06
  -1.966683e+06  -2.773108e+06
  -2.770563e+05  -2.501965e+06
   1.253215e+06  -1.349409e+06
   1.524162e+06  -1.584523e+05
   4.750775e+05   6.804269e+04
  -3.090610e+05  -7.489611e+05
   4.818338e+05  -1.300041e+06
   1.912225e+06  -4.731313e+05
   1.948561e+06   9.909264e+05
   2.894937e+05   1.419962e+06
  -1.176297e+06   4.867452e+05
  -8.142832e+05  -4.933940e+05
   8.739553e+05  -4.203320e+05
   2.067456e+06   4.783289e+05
   1.555489e+06   1.411337e+06
  -3.795686e+05   1.856123e+06
  -2.317908e+06   1.451257e+06
  -2.697504e+06   1.146782e+05
  -1.123151e+06  -1.304848e+06
   9.768260e+05  -1.440199e+06
   1.554805e+06  -1.162496e+05
   1.600971e+05   1.075106e+06
  -1.516139e+06   6.472278e+05
  -1.628234e+06  -8.617692e+05
  -2.146102e+05  -1.628228e+06
   1.137932e+06  -8.646493e+05
   1.199227e+06   4.056633e+05
   1.715110e+05   7.869113e+05
  -7.962575e+05   8.444665e+03
  -6.723863e+05  -1.065706e+06
   6.215835e+05  -1.361573e+06
   1.974702e+06  -4.399678e+05
   1.932650e+06   1.114862e+06
   2.709288e+05   2.041049e+06
  -1.493888e+06   1.526210e+06
  -1.694341e+06   1.050503e+05
  -4.311127e+05  -8.778056e+05
   6.889990e+05  -7.391432e+05
   6.009380e+05  -4.246137e+04
  -1.517106e+05   3.130432e+05
  -4.644425e+05   1.418464e+05
  -6.196587e+04  -6.501673e+04
   4.621946e+05   1.411898e+05
   4.553766e+05   7.174828e+05
  -2.872879e+05   1.150891e+06
  -1.398502e+06   7.930340e+05
  -2.001899e+06  -5.120050e+05
  -1.328078e+06  -1.962886e+06
   3.307083e+05  -2.331909e+06
   1.635146e+06  -1.264394e+06
   1.608747e+06   2.284317e+05
   7.469593e+05   8.918068e+05
   2.590039e+05   5.916094e+05
   4.793455e+05   1.989929e+05
   6.296436e+05   3.460441e+05
   5.690476e+04   7.694178e+05
  -9.077301e+05   8.240627e+05
  -1.415300e+06   2.215705e+05
  -9.538246e+05  -7.485502e+05
   3.361955e+05  -1.373316e+06
   1.722121e+06  -9.308147e+05
   2.143688e+06   5.890396e+05
   9.760728e+05   2.101464e+06
  -1.126873e+06   2.248263e+06
  -2.541186e+06   8.533980e+05
  -2.234532e+06  -7.900264e+05
  -8.162107e+05  -1.350829e+06
   2.734956e+05  -8.711727e+05
   3.790123e+05  -4.393284e+05
   6.506051e+04  -7.278533e+05
   1.392699e+05  -1.290664e+06
   7.206910e+05  -1.239621e+06
   1.285364e+06  -2.538030e+05
   1.251671e+06   1.109701e+06
   4.513049e+05   1.862461e+06
  -6.688805e+05   1.363130e+06
  -1.243825e+06  -7.205786e+04
  -7.164752e+05  -1.299955e+06
   4.713709e+05  -1.338468e+06
   1.176810e+06  -3.091057e+05
   7.580168e+05   7.596297e+05
  -2.012940e+05   1.063105e+06
  -5.974314e+05   7.289223e+05
  -1.195476e+05   3.845644e+05
   4.108319e+05   3.376122e+05
   4.418766e+04   3.708172e+05
  -1.138185e+06   1.431379e+05
  -2.004296e+06  -4.302290e+05
  -1.518903e+06  -1.098178e+06
   1.301389e+05  -1.409679e+06
   1.625413e+06  -1.038535e+06
   1.801408e+06  -1.622644e+05
   7.769937e+05   5.534166e+05
  -2.931763e+05   5.552645e+05
  -5.074821e+05  -5.300047e+03
  -2.088307e+04  -4.294027e+05
   4.305128e+05  -2.353381e+05
   4.551461e+05   3.534113e+05
   2.374209e+05   7.045359e+05
   9.494861e+04   4.664109e+05
   1.355515e+05  -6.727394e+04
   2.657508e+05  -2.469831e+05
   2.511299e+05   2.417199e+05
  -1.710104e+05   9.404259e+05
  -9.235397e+05   9.968134e+05
  -1.360089e+06   1.254840e+05
  -8.157545e+05  -9.243672e+05
   4.545179e+05  -1.111510e+06
   1.253234e+06  -2.966097e+05
   6.893683e+05   5.804075e+05
  -7.190856e+05   5.901123e+05
  -1.523288e+06  -1.853513e+05
  -8.956686e+05  -8.941256e+05
   5.460168e+05  -9.124291e+05
   1.469189e+06  -3.503721e+05
   1.159843e+06   2.671142e+05
   8.968346e+04   4.981772e+05
  -6.466130e+05   2.154818e+05
  -3.690310e+05  -3.126470e+05
   5.761730e+05  -4.951070e+05
   1.146834e+06   1.072262e+05
   6.286116e+05   1.162355e+06
  -6.106438e+05   1.638508e+06
  -1.460189e+06   8.178050e+05
  -1.187006e+06  -7.757032e+05
  -1.233960e+05  -1.737523e+06
   7.740155e+05  -1.203318e+06
   8.823141e+05   2.341129e+05
   3.412543e+05   1.177165e+06
  -2.862834e+05   9.119083e+05
  -5.573943e+05   4.334757e+04
  -4.122111e+05  -3.813440e+05
  -1.272410e+05  -1.324625e+05
  -6.100630e+04   8.235737e+04
  -2.942980e+05  -3.157059e+05
  -4.649405e+05  -9.658994e+05
  -1.063326e+05  -1.047185e+06
   7.451545e+05  -3.452767e+05
   1.402950e+06   5.136874e+05
   1.173355e+06   8.662587e+05
   1.451038e+05   6.911296e+05
  -8.176957e+05   3.731203e+05
  -9.510180e+05   1.240668e+05
  -3.702332e+05  -8.330487e+04
   1.396782e+05  -2.156168e+05
   7.586849e+04  -1.805658e+05
  -2.177440e+05  -8.286897e+04
  -5.781958e+04  -1.291052e+05
   6.125762e+05  -2.174238e+05
   1.020020e+06   3.994914e+04
   4.475216e+05   6.949156e+05
  -8.260972e+05   1.134464e+06
  -1.703394e+06   6.984306e+05
  -1.400766e+06  -4.497088e+05
  -2.309676e+05  -1.368851e+06
   8.050452e+05  -1.320261e+06
   1.039754e+06  -5.107316e+05
   6.229734e+05   2.276440e+05
   1.336736e+05   3.537470e+05
  -3.793793e+04   8.516354e+04
   9.145865e+04   1.284592e+04
   2.603956e+05   3.794136e+05
   1.954719e+05   7.938754e+05
  -1.900312e+05   6.619973e+05
  -6.503015e+05  -1.139961e+05
  -7.098497e+05  -9.231557e+05
  -1.218612e+05  -1.010882e+06
   7.163648e+05  -2.546650e+05
   9.955328e+05   6.979995e+05
   3.293230e+05   1.072306e+06
  -7.086427e+05   6.647366e+05
  -1.104105e+06  -9.732538e+04
  -5.187898e+05  -6.394210e+05
   3.039953e+05  -6.855167e+05
   4.129985e+05  -3.531861e+05
  -2.045391e+05  -2.289527e+03
  -6.229864e+05   2.342778e+04
  -1.449955e+05  -3.111944e+05
   8.240159e+05  -6.277700e+05
   1.271675e+06  -4.560940e+05
   7.706835e+05   2.261733e+05
  -1.183411e+05   8.562144e+05
  -5.960540e+05   8.287589e+05
  -4.557117e+05   1.698643e+05
  -5.712980e+04  -4.524019e+05
   2.391942e+05  -4.359435e+05
   3.361116e+05   1.206336e+05
   2.347079e+05   5.676019e+05
  -5.559712e+04   4.443652e+05
  -3.803592e+05  -4.039020e+04
  -4.651511e+05  -3.107609e+05
  -2.327692e+05  -1.221086e+05
   4.546172e+04   1.736204e+05
   7.881569e+04   9.936208e+04
  -4.852038e+04  -3.228246e+05
  -1.717350e+03  -5.716042e+05
   2.958096e+05  -2.656867e+05
   4.805320e+05   3.418034e+05
   1.948146e+05   6.296140e+05
  -3.885015e+05   3.115711e+05
  -6.615245e+05  -2.676966e+05
  -2.487387e+05  -5.509118e+05
   5.142417e+05  -3.460466e+05
   8.769977e+05   8.270538e+04
   4.656752e+05   3.798512e+05
  -2.971513e+05   4.073503e+05
  -6.376677e+05   2.362998e+05
  -2.718155e+05   1.615829e+04
   3.000013e+05  -8.614517e+04
   3.798436e+05   3.309551e+04
  -1.390358e+05   2.552764e+05
  -6.774708e+05   2.460550e+05
