
 $NMID
 id='ANONYMOUS ', fmtdat='(2E16.6)'
 volume=1.0
 tramp=1.0
 $END
  -3.766739e+03   2.279997e+01
  -2.431805e+03  -2.009800e+03
   2.173879e+02  -2.426912e+03
   1.525499e+03  -1.215919e+03
   1.000663e+03   3.024416e+01
  -1.670286e+02   3.101822e+02
  -5.545375e+02  -1.925743e+02
  -6.816813e+00  -6.957268e+02
   5.503665e+02  -6.798877e+02
   7.570168e+02  -6.557162e+01
   4.895493e+02   6.233275e+02
  -2.055373e+01   7.518200e+02
  -3.840986e+02   1.856981e+02
  -3.233675e+02  -5.707410e+02
   1.611184e+02  -6.515692e+02
   5.689844e+02  -7.747626e+01
   3.306642e+02   5.804858e+02
  -1.518822e+02   6.935012e+02
  -5.184503e+02   2.233374e+02
  -4.664416e+02  -2.270845e+02
  -9.585115e+01  -3.722208e+02
   1.519611e+02  -2.846015e+02
   1.336192e+02  -2.618318e+01
  -1.563893e+02  -3.455791e+01
  -4.062710e+02  -3.078168e+02
  -2.840542e-01  -3.994110e+02
   5.063479e+02  -2.700146e+02
   7.380117e+02   1.696957e+02
   3.012734e+02   4.742024e+02
  -4.073834e+02   3.395885e+02
  -5.796334e+02  -1.356316e+02
  -2.689380e+02  -4.276479e+02
   2.652270e+02  -3.963351e+02
   5.005869e+02  -1.610537e+02
   3.923114e+02   1.872168e+02
   1.023062e+02   3.648446e+02
  -1.024757e+02   1.395460e+02
  -1.676078e+01  -1.766316e+02
   2.037767e+02  -3.017500e+02
   3.133105e+02   8.849327e+01
   9.976109e+01   5.910383e+02
  -2.658890e+02   5.284709e+02
  -4.716651e+02   1.750669e+00
  -1.396160e+02  -4.321702e+02
   1.965290e+02  -2.834714e+02
   2.749319e+02   3.232997e+02
  -1.034602e+02   4.293529e+02
  -5.187896e+02   9.298863e+01
  -5.861388e+02  -3.615212e+02
  -1.753909e+02  -5.447032e+02
   3.902186e+02  -3.051066e+02
   6.076670e+02   7.154267e+01
   3.956862e+02   2.984209e+02
  -6.398378e+01   3.093545e+02
  -3.242713e+02   9.932538e+01
  -2.476351e+02  -4.573479e+01
   1.122899e+01  -5.743613e+00
   4.738365e+01   9.815917e+01
  -1.504061e+02   5.577273e+01
  -2.568782e+02  -5.812527e+01
  -8.608712e+01  -2.818874e+02
   1.695804e+02  -2.805863e+02
   3.723398e+02  -1.575419e+02
   2.299579e+02   5.940575e+01
  -7.209964e+01   3.147023e+02
  -3.746919e+02   3.607126e+02
  -3.965230e+02   1.977601e+02
  -3.124269e+02  -1.680310e+02
  -3.913947e+01  -3.893107e+02
   9.018263e+01  -3.645602e+02
   1.562920e+01  -1.771386e+02
   6.262962e+00  -3.941609e+01
   6.922857e+01  -1.661532e+02
   2.167698e+02  -1.211962e+02
   2.718232e+02   4.827905e+01
   1.290127e+02   2.875021e+02
  -1.412275e+02   2.800129e+02
  -2.105667e+02  -1.357871e+01
  -1.503385e+02  -2.571505e+02
   1.101562e+01  -2.752936e+02
   2.753232e+02  -9.756578e+01
   3.618452e+02   1.459272e+02
   1.435946e+02   3.169993e+02
  -9.207333e+01   3.155214e+02
  -1.793682e+02   1.500445e+02
  -2.140638e+02   3.164902e+01
  -1.842428e+02   6.869923e+01
  -3.048928e+02   5.846448e+01
  -4.229439e+02  -3.800130e+01
  -3.735595e+02  -2.857428e+02
   1.661422e+01  -4.858647e+02
   3.867798e+02  -4.212564e+02
   5.158545e+02  -2.074804e+02
   3.191121e+02   3.772688e+01
   1.199638e+01   3.100261e+02
  -7.827781e+01   2.151499e+02
  -3.394443e+01   8.438912e+01
   1.290971e+02  -4.616538e+00
   1.472460e+02   2.821120e+01
   2.277279e+01   1.835337e+02
  -8.405407e+01   9.580086e+01
  -1.144098e+02  -4.007776e+01
   5.851873e+01  -1.398523e+02
   1.619425e+02  -1.818805e+01
   1.496850e+02   2.961393e+02
  -1.935093e+01   3.516119e+02
  -2.841191e+02   1.889010e+02
  -3.276090e+02  -1.022958e+02
  -3.375069e+02  -2.420168e+02
  -6.430582e+01  -3.014381e+02
   1.529000e+02  -1.681743e+02
   1.433570e+02   9.158198e+00
   5.830081e+01   1.381190e+01
  -5.747074e+01  -7.719706e+01
   3.930564e+01  -8.637521e+01
   1.674610e+02  -1.157409e+02
   1.915703e+02  -2.744367e+01
   2.997452e+01   8.318409e+01
  -1.592296e+02   4.757355e+01
  -6.439711e+01  -9.381380e+01
   1.626424e+02  -4.977666e+01
   3.450515e+02   5.152181e+01
   3.059334e+02   1.321821e+02
   4.720232e+01   2.656379e+02
  -1.899926e+02   2.371604e+02
  -2.604763e+02   9.898511e+01
  -1.327552e+02  -3.189647e+01
   5.141067e+01  -1.150174e+02
   5.556025e+01   5.291762e+01
  -6.491779e+01   8.235171e+01
  -1.547085e+02   1.660121e+01
  -2.233155e+02  -1.164679e+02
  -7.191766e+01  -2.419933e+02
   5.268315e+01  -1.325231e+02
   1.345824e+02  -1.918237e+01
   1.161746e+02   8.698339e+01
  -2.256197e+01  -8.225993e+01
  -2.290606e+01  -1.253085e+02
   4.881176e+01  -1.246636e+02
   2.514585e+02   5.123069e+00
   1.957450e+02   1.400639e+02
   3.770446e+01   2.794380e+02
  -1.637365e+02   1.840256e+02
  -2.074141e+02   1.174298e+01
  -8.845496e+01  -1.135775e+02
   1.877012e+01  -9.492993e+01
   7.368314e+01  -2.794370e-01
  -1.574887e+01  -1.055868e+01
  -1.607925e+00  -9.102091e+00
   3.216705e+01  -4.179719e+01
   1.106973e+02  -3.957504e+01
   1.012466e+02   9.244447e+01
   3.717082e+01   1.610293e+02
  -1.686647e+02   1.698214e+02
  -1.941566e+02   2.324129e+01
  -2.280210e+02  -1.846284e+02
  -8.375416e+01  -2.166868e+02
   8.654592e+01  -2.129788e+02
   8.904257e+01  -8.538219e+01
   6.881815e+01   3.894746e+01
   2.535968e+00   7.055020e+01
   1.185513e+02   3.211757e+01
   8.840010e+01   3.094235e+01
   5.323481e+01   1.757668e+01
   1.525359e+01   8.931287e+01
  -1.555332e+02   9.281193e+01
  -1.276327e+02  -4.471051e+01
   4.797411e+01  -1.752084e+02
   1.771296e+02  -9.370599e+01
   2.300865e+02   1.459422e+02
   1.289328e+02   1.916322e+02
  -1.415090e+02   2.597861e+02
  -2.629078e+02   6.182103e+01
  -2.507046e+02  -8.625416e+01
  -1.160705e+02  -1.577062e+02
   4.931679e+01  -1.031161e+02
   1.124838e+02  -8.988365e+01
   3.920445e+01  -3.762818e+01
   4.822211e+01  -1.005286e+02
   8.195822e+01  -1.102742e+02
   1.525367e+02  -4.341385e+00
   7.408241e+01   1.428672e+02
   2.962835e+01   2.178765e+02
  -1.240392e+02   1.598732e+02
  -1.533326e+02   5.038847e+01
  -1.441753e+02  -1.471877e+02
   7.787728e+00  -1.691114e+02
   8.252223e+01  -1.230876e+02
   9.861825e+01   5.064474e+01
   2.443335e+00   2.084064e+01
  -2.610872e+01   2.471710e+01
   2.764109e+01   3.292533e+01
   6.179469e+01   5.238550e+01
   2.600815e+01   3.097029e+01
  -1.092534e+02   8.255048e+01
  -1.425966e+02   2.816135e+01
  -1.671575e+02  -4.786918e+01
  -6.501340e+00  -1.004335e+02
   1.159796e+02  -7.123124e+01
   1.129365e+02  -3.313081e+01
   1.319368e+01   5.482811e+01
   6.878084e+00   4.668102e+01
  -8.214027e+01   2.072000e+00
  -1.794811e+01  -1.252070e+02
  -2.576660e+01  -1.216545e+02
   8.005616e+01  -9.982629e+00
   6.619203e+01   7.334527e+01
   4.547650e+01   5.412070e+01
   6.854919e+01   1.071150e+01
   9.341867e+01  -2.916016e+01
   2.897750e+01   6.784538e+01
   6.527711e+00   1.290034e+02
  -5.851478e+01   9.650225e+01
  -2.112688e+02   2.961779e+00
  -1.693591e+02  -1.452063e+02
  -6.123929e+00  -1.317658e+02
   9.865386e+01  -1.287521e+02
   3.449267e+01   2.440725e+00
  -6.585944e+01   7.777285e+01
  -1.304047e+02  -7.171363e+01
  -8.751249e+01  -5.607361e+01
   7.829748e+01  -1.208420e+02
   2.247353e+02  -2.623439e+01
   1.316795e+02  -3.638089e+01
   4.971714e+01   6.090165e+01
  -8.318431e+01   7.000244e+01
  -2.373299e+01  -4.394703e-01
   4.497511e+01  -1.419588e+01
   7.919947e+01  -1.304976e+01
   3.387705e+01   1.064102e+02
  -1.138390e+02   1.452377e+02
  -1.351547e+02   1.110619e+02
  -1.449794e+02  -1.114585e+02
  -3.986687e+01  -1.421106e+02
   6.351256e+01  -1.647050e+02
   8.286901e+01  -4.931805e+00
   4.172560e+01   1.172898e+02
   1.710972e+01   1.222055e+02
  -2.447532e+01   2.068461e+00
  -4.903960e+01  -3.035875e+01
  -4.068819e+00  -4.636699e+01
   2.307358e+01   6.994479e+01
  -4.426500e+00  -6.070523e+01
  -4.097133e+01  -5.069859e+01
  -4.699696e+01  -1.365430e+02
   6.131555e+01  -6.727825e+01
   1.704566e+02   3.617396e+01
   1.095219e+02   7.848631e+01
   6.162297e+00   7.720844e+01
  -6.863047e+01   2.938420e+01
  -9.046339e+01   5.670885e+00
  -5.148926e+01   2.601727e+00
  -8.861630e+00  -2.196453e+01
   8.123085e+00  -6.111137e+01
  -5.572916e+01   4.726946e+01
   1.441423e+01  -2.929517e+01
   9.491833e+01  -3.975329e+01
   1.256831e+02   1.450370e+01
   8.662156e+00   1.260859e+02
  -1.235711e+02   1.656629e+02
  -2.285911e+02   4.911754e+01
  -1.697746e+02  -5.007331e+01
  -1.875882e+01  -1.667973e+02
   8.950509e+01  -1.729962e+02
   1.647503e+02  -1.044973e+02
   8.504575e+01   1.090098e+01
  -4.600972e+00   5.050392e+01
   2.910221e+00  -2.097607e+01
   5.395989e+01   5.410663e+01
   1.377995e+01   3.966407e+01
   4.027482e+01   6.251323e+01
  -4.881547e+01   6.863213e+01
  -5.925956e+01  -2.619400e+01
  -9.390770e+01  -1.492104e+02
   7.633436e+00  -8.650520e+01
   9.602922e+01  -6.642088e+00
   1.241887e+02   4.970764e+01
   5.149932e+01   5.072533e+01
  -7.980336e+01   7.159132e+01
  -4.452939e+01   2.328879e+01
  -1.801785e+01  -3.113092e+01
   3.360491e+01  -3.117682e+01
   3.842671e+01  -4.014652e+01
  -7.039127e+01   1.107001e+01
  -3.826542e+01   2.879505e+01
  -8.651079e+00   9.025894e+00
   1.191059e+02  -9.268091e+01
   1.619418e+02  -1.055051e+02
   7.214092e+01   3.887713e+00
  -1.021582e+02   7.176279e+01
  -7.283433e+01   9.407877e+01
  -5.405083e+01  -2.994969e+01
  -2.308215e+01  -8.724447e+01
  -1.758503e+01  -6.054243e+01
   3.220362e+01   2.049491e+01
   6.107112e+00   3.243532e+01
   1.046403e+01   5.814970e+01
  -3.343414e+01  -7.669415e+00
  -3.243753e+01  -3.079154e+01
  -4.576230e+01   1.698313e+01
  -1.430932e+01  -1.544961e+01
   3.940351e+01  -1.043141e+01
   3.623543e+00  -6.759089e+01
  -3.203444e+01  -5.664403e+01
   1.675100e+01  -3.221138e+01
   2.462898e+01   4.612254e+01
   3.395951e+01   9.100222e+01
  -7.818168e+01   3.515228e+01
  -1.020634e+02  -1.631154e+01
  -1.879399e+01  -6.708217e+01
   9.310745e+01  -2.658028e+01
   1.276922e+02   6.478930e+01
   7.316164e+01   5.315148e+01
  -2.378168e+01   5.803652e+01
  -2.471867e+01   3.515048e+01
  -6.858523e+01   5.288568e+01
   6.508160e+01  -2.587920e+01
   2.938780e+01   9.664441e+00
  -6.726753e+01  -4.405124e+00
  -6.400019e+01   1.059865e+01
