
 $NMID
 id='ANONYMOUS ', fmtdat='(2E16.6)'
 volume=1.0
 tramp=1.0
 $END
   3.930676e+03  -7.205097e+01
   2.432854e+03   2.135047e+03
  -4.291626e+02   2.576011e+03
  -1.783329e+03   1.127232e+03
  -1.005367e+03  -3.060887e+02
   3.412415e+02  -4.500682e+02
   6.886456e+02   2.929734e+02
  -1.434304e+00   9.067305e+02
  -7.159008e+02   7.680170e+02
  -8.660971e+02  -3.916914e+00
  -5.040480e+02  -7.511389e+02
   1.196715e+02  -7.605209e+02
   5.009194e+02  -1.541114e+02
   3.494740e+02   6.272585e+02
  -1.884118e+02   7.180422e+02
  -4.979484e+02   1.051773e+01
  -3.717941e+02  -5.967524e+02
   2.708182e+02  -6.167951e+02
   5.258089e+02  -1.845269e+02
   4.437145e+02   2.508669e+02
   8.524208e+01   4.480072e+02
  -2.202229e+02   2.456503e+02
  -1.533837e+02   5.530212e+01
   1.685797e+02   4.444067e+01
   3.347034e+02   1.937839e+02
   1.256566e+02   4.084189e+02
  -5.432029e+02   3.482918e+02
  -8.092310e+02  -1.556471e+02
  -3.698941e+02  -4.317467e+02
   3.748299e+02  -4.077670e+02
   6.859279e+02   6.909205e+01
   2.865048e+02   4.653593e+02
  -2.486555e+02   3.948234e+02
  -4.833620e+02   1.754376e+02
  -4.027296e+02  -2.095635e+02
  -1.210137e+02  -4.308451e+02
   1.105219e+02  -2.107483e+02
   6.836010e+01   1.892064e+02
  -1.498502e+02   2.956073e+02
  -3.191162e+02  -4.431173e+01
  -1.286788e+02  -6.083736e+02
   2.973665e+02  -6.576494e+02
   5.315720e+02   3.977894e+01
   1.976216e+02   4.469594e+02
  -2.307319e+02   2.309204e+02
  -2.975762e+02  -2.546195e+02
   8.331811e+01  -4.519923e+02
   5.836186e+02  -7.028070e+01
   6.033066e+02   4.259457e+02
   2.305169e+02   5.419118e+02
  -3.716559e+02   3.265387e+02
  -6.158264e+02  -5.704004e+01
  -4.348182e+02  -3.490958e+02
   8.020525e+01  -3.098163e+02
   3.708137e+02  -7.730344e+01
   2.356317e+02   9.317464e+01
  -5.261471e+01   9.715844e+01
  -1.344366e+02  -9.714017e+01
   1.726200e+02  -1.036499e+02
   3.139029e+02   8.646194e+01
   1.109720e+02   2.429208e+02
  -1.593452e+02   2.928697e+02
  -3.491527e+02   9.405881e+01
  -2.602212e+02  -5.534860e+01
   2.347913e+01  -3.037880e+02
   3.097193e+02  -3.416846e+02
   4.225058e+02  -1.690985e+02
   3.058776e+02   1.471763e+02
   7.498538e+01   4.065871e+02
  -8.255213e+01   3.747699e+02
  -1.175980e+02   1.484398e+02
   2.931575e+01   6.601076e+01
  -8.159067e+01   6.159237e+01
  -2.650895e+02   1.322176e+02
  -2.563502e+02  -7.994064e+01
  -1.480584e+02  -2.783836e+02
   9.834153e+01  -2.036652e+02
   2.120109e+02   5.646876e+01
   2.011579e+02   2.202650e+02
  -3.928469e+01   3.164038e+02
  -2.917016e+02   9.960842e+01
  -3.551344e+02  -2.047813e+02
  -1.817219e+02  -3.841599e+02
   7.932249e+01  -3.367206e+02
   1.758833e+02  -1.040534e+02
   1.661276e+02  -1.524911e+01
   1.024887e+02  -6.708214e+00
   1.912333e+02  -2.306772e+01
   4.069296e+02   3.788876e+01
   3.432406e+02   2.974175e+02
  -9.290400e+00   4.905859e+02
  -3.617510e+02   3.965283e+02
  -4.972822e+02   1.743311e+02
  -3.366306e+02  -8.844702e+01
  -8.102218e+01  -2.164161e+02
   1.490362e+02  -2.506199e+02
   1.011025e+02   3.736643e+00
  -1.173354e+02   8.194396e+01
  -1.746139e+02   2.039365e+01
  -6.181956e+01  -1.661615e+02
   1.344255e+02  -1.559830e+02
   2.074843e+02   7.643494e+01
   2.247000e+01   1.627408e+02
  -1.430983e+02   1.939828e+01
  -1.529993e+02  -2.699399e+02
   3.668705e+01  -3.464549e+02
   2.240006e+02  -2.439693e+02
   3.547907e+02   1.127324e+02
   2.576603e+02   2.708928e+02
   1.131762e+02   2.541722e+02
  -1.070865e+02   1.628194e+02
  -1.498036e+02  -3.975485e+01
  -5.490642e+01  -5.156428e+01
   7.853880e+01   6.766172e+01
   2.759507e+01   9.054334e+01
  -1.243334e+02   7.227462e+01
  -1.985033e+02   5.408286e-02
  -4.441188e+01  -7.276041e+01
   1.069587e+02   7.924683e+01
   1.591020e+01   6.358503e+01
  -1.414345e+02   9.932571e+01
  -2.980059e+02  -2.689718e+00
  -2.396392e+02  -1.759326e+02
  -4.948919e+01  -2.867607e+02
   1.916478e+02  -2.205347e+02
   2.652983e+02  -1.230703e+02
   1.741785e+02  -1.931121e+00
   1.716401e+00   1.017879e+02
  -1.346077e+02  -1.485983e+00
   8.171187e+01  -7.950063e+01
   2.195497e+02  -5.150308e+01
   1.734241e+02   1.121661e+02
   2.248501e+01   2.103918e+02
  -1.219583e+02   1.756490e+02
  -1.652498e+02   3.889127e+01
  -4.720316e+01   1.744976e+01
  -1.926464e+01  -1.045785e+01
  -4.746777e+00   1.225315e+02
  -7.961798e+01   1.136127e+02
  -1.965242e+02   1.119828e+01
  -2.228505e+02  -1.338749e+02
   8.331997e+00  -2.374069e+02
   1.071361e+02  -1.109120e+02
   1.779622e+02  -1.790594e+01
   9.562670e+01   1.315305e+02
  -5.367446e+01   9.165960e+01
  -9.591510e+01   2.347335e+01
  -1.546662e+01  -7.639558e+00
   2.662844e+01   1.030112e+01
  -3.876892e+01  -2.096611e+01
  -4.808986e+01   7.998410e-01
  -1.309820e+02  -6.347466e+01
  -1.572086e+01  -1.592437e+02
   1.276582e+02  -1.771100e+02
   2.380709e+02  -1.899681e+01
   2.106005e+02   1.434753e+02
   4.914944e+01   2.254477e+02
  -8.975067e+01   1.587436e+02
  -1.382904e+02   1.560101e+01
  -1.138612e+02  -6.059261e+01
  -4.059234e+01  -1.992862e+01
  -2.688181e+01   1.659915e+01
  -1.043285e+02   2.199464e+01
   8.360513e+00  -6.851151e+01
   2.514905e+00  -7.404596e+01
   9.154079e+01  -6.496751e+01
   1.007791e+02   5.233222e+01
   1.233664e+01   1.126189e+02
  -1.913967e+02   4.386368e+01
  -2.497941e+02  -4.353813e+01
  -1.003899e+02  -2.464463e+02
   8.709829e+01  -2.164083e+02
   3.045897e+02  -3.064389e+01
   2.758847e+02   2.753223e+01
   8.489523e+01   1.571611e+02
  -5.783248e+01   1.418475e+02
  -7.080942e+01   9.392670e+01
  -6.011466e+01   9.909221e+01
  -3.060667e+01   1.041361e+02
  -9.626744e+01   7.837990e+01
  -1.007268e+02   1.074249e+01
  -1.145115e+02  -1.518512e+02
  -2.556667e+01  -2.318175e+02
   1.009974e+02  -1.871514e+02
   1.431081e+02  -3.134470e+01
   1.652469e+02   1.231958e+02
   2.618148e+01   1.591847e+02
  -1.006279e+02   1.151529e+02
  -3.887159e+01  -3.702521e+01
  -3.489519e+00  -5.650041e+01
  -1.315836e-01  -5.294491e+01
  -9.898526e+00  -3.470809e+01
  -2.112081e+01  -2.847026e+01
  -8.183443e+01  -4.349257e+01
   5.386586e+01  -3.810177e+01
   1.952096e+02  -1.777392e+01
   1.231099e+02   8.775316e+00
  -4.137277e+01   1.041091e+02
  -1.608666e+02   6.586752e+01
  -1.324773e+02   3.110975e+01
  -2.078815e+01  -1.006130e+02
   1.141751e+02  -4.375155e+01
   3.432075e+01   3.880827e+01
   4.260020e+00   5.643758e+01
  -7.895382e+01   7.093939e+01
  -6.141758e+01  -8.671453e-01
  -8.562247e+01  -9.412005e+01
  -3.805766e+01  -5.302900e+01
  -3.322965e+01  -6.823936e+01
  -3.338872e+01   2.536074e+01
   4.753120e-01  -4.941562e+01
   5.404623e+01  -1.774014e+02
   1.370581e+02  -1.122705e+02
   2.066382e+02   3.267455e+00
   1.723997e+02   5.427582e+01
  -1.368657e+01   1.203270e+02
  -1.414440e+02   6.989569e+01
  -4.057510e+01  -2.408407e+01
   5.804068e+01  -5.876081e+01
   1.814210e+02   3.381966e+01
   5.400032e+01   7.618802e+01
  -6.379239e+01   1.572677e+02
  -1.590732e+02   5.406207e+01
  -2.116921e+02  -8.892214e+01
  -7.273545e+01  -1.081754e+02
   4.532280e+01  -6.335524e+01
   4.119765e+01   1.298396e+00
  -2.274405e+01   5.458241e+01
  -7.540542e+01  -6.823014e+01
  -5.368600e+01  -7.490295e+01
   9.188597e+01  -1.287304e+02
   1.520070e+02  -2.621217e+01
   9.054298e+01   1.227310e+02
  -2.425771e+01   2.311951e+02
  -8.919324e+01   1.556234e+02
  -1.444377e+02  -3.519280e+01
  -9.840372e+01  -1.435429e+02
  -2.482452e+00  -1.420443e+02
   5.824801e+01  -2.723097e+01
   8.872495e+01  -1.069610e+01
   1.293162e+01  -5.373534e+00
   8.243604e+00  -5.668844e+01
   7.384768e+01   2.437848e+01
   6.725268e+01   6.333032e+01
   9.517371e+01   1.007586e+02
  -6.069285e+01   6.020781e+01
  -1.217805e+02  -5.691440e+01
  -1.331130e+02  -4.302689e+01
  -7.992075e+01  -7.873434e+01
   3.222441e+01  -3.694293e+01
   3.974694e+01  -3.597708e+01
   2.380560e-01   2.032340e+01
  -7.498719e+01   2.274933e+01
  -3.309379e+01   8.482040e+01
   3.664053e+01   1.558290e+01
  -3.718952e+01   6.089511e+01
  -1.165236e+02  -4.105444e+01
  -8.353175e+01  -5.810863e+01
   1.280715e+01  -9.264432e+01
   1.672567e+02  -1.112805e+02
   1.949343e+02  -6.684866e+01
   1.166151e+02   9.982925e+01
   1.603136e+01   1.831008e+02
  -4.795175e+01   1.621496e+02
  -6.890012e+01   9.070830e+01
  -7.765555e+00  -2.293490e+01
  -6.372515e+01  -5.323170e+01
  -2.866736e+01  -2.309047e+01
   1.040400e-01   8.076796e+00
  -2.065549e+01  -9.176303e-02
  -5.064387e+01  -1.357463e+02
   2.288413e+01  -1.214119e+02
   1.075091e+02   2.745935e+01
   7.676465e+01   8.701678e+01
  -2.586412e+00   8.699581e+01
  -1.051083e+02   3.615262e+01
  -6.289166e+01  -5.064907e+01
  -5.501599e+01  -1.021505e+02
   1.059738e+02  -8.039791e+01
   4.638054e+01   2.310975e+01
   4.153455e+01   8.477369e+01
  -7.116070e+01   3.333777e+01
  -5.573309e+01   5.949168e+01
  -8.049084e+00   1.877695e+01
   7.263615e+01  -4.617766e+00
  -3.166562e+01  -2.056641e+01
  -1.197229e+02   1.033834e+02
  -2.025929e+02   2.795026e+01
  -5.318875e+01  -2.315157e+01
   3.883418e+01  -1.098831e+02
   4.526356e+01  -9.829372e+01
   6.220227e+01   1.265380e+00
  -4.604661e+01   4.536342e+01
   5.480886e-01   4.137824e+00
  -5.850189e+01   7.575929e+00
   1.052211e+01  -9.208121e+01
   2.500089e+01  -3.699058e+01
   4.563777e+01   6.358655e+01
   7.482709e-01  -1.859120e+00
   1.606496e+01   3.363862e+00
  -8.116187e-01  -8.256450e+00
   4.430416e+01   3.197022e+01
   2.002494e+01   4.109146e+01
  -7.834858e+01   8.574533e+01
  -6.395007e+01  -2.866322e+01
  -3.672019e+01   1.157495e+01
  -2.719605e+01  -1.032171e+02
   7.633510e+01   8.013552e+00
   4.782571e+01   6.466370e+01
   1.041556e+01   4.168806e+01
  -1.381474e+01   2.439998e+01
  -1.171195e+02  -4.839760e+01
  -6.151447e+01  -3.052066e+01
   1.588059e+01  -9.387076e+01
   5.311065e+01  -5.974767e+01
   2.238443e+01   5.637269e+01
  -4.875717e+01  -1.480096e+01
  -7.000152e+01   4.534505e+01
  -1.000939e+01  -6.013614e+01
   9.583094e+01  -1.628986e+01
