
 $NMID
 id='ANONYMOUS ', fmtdat='(2E16.6)'
 volume=1.0
 tramp=1.0
 $END
  -3.987123e+03  -7.994449e+01
  -2.326978e+03  -2.392629e+03
   6.013135e+02  -2.505093e+03
   1.885672e+03  -8.562217e+02
   8.710819e+02   4.846120e+02
  -5.495523e+02   4.707204e+02
  -7.777449e+02  -3.544040e+02
  -4.189115e+00  -9.294379e+02
   7.613883e+02  -7.122219e+02
   8.372326e+02   1.158168e+02
   4.346233e+02   7.781330e+02
  -2.250794e+02   8.069739e+02
  -5.690428e+02   1.473971e+02
  -3.044895e+02  -7.053527e+02
   2.887835e+02  -6.732574e+02
   5.764394e+02  -5.195668e+01
   2.549923e+02   6.506702e+02
  -2.758438e+02   6.453677e+02
  -5.958071e+02   1.712573e+02
  -3.927789e+02  -2.771005e+02
  -1.771260e+01  -4.553344e+02
   2.057299e+02  -2.670725e+02
   1.436468e+02  -1.082684e+02
  -1.269282e+02   3.748537e+01
  -2.903525e+02  -1.133498e+02
  -1.201073e+02  -3.764426e+02
   4.492944e+02  -3.437409e+02
   7.711886e+02   8.512286e+01
   4.044902e+02   5.126703e+02
  -4.014621e+02   4.051001e+02
  -7.560771e+02  -7.879048e+01
  -2.854505e+02  -4.263222e+02
   2.979391e+02  -4.687882e+02
   4.813907e+02  -1.971949e+02
   4.190095e+02   1.691397e+02
   4.137747e+01   3.981294e+02
  -1.826654e+02   2.890209e+02
  -1.268170e+02  -2.342159e+02
   1.884227e+02  -3.914654e+02
   3.371929e+02   2.844514e+01
   1.526013e+02   6.726062e+02
  -2.624761e+02   6.252208e+02
  -5.801695e+02  -8.954438e+00
  -2.505562e+02  -4.806790e+02
   1.929604e+02  -2.104405e+02
   3.177667e+02   3.196534e+02
  -6.067094e+01   4.402046e+02
  -4.801271e+02   6.872467e+01
  -5.500611e+02  -3.608690e+02
  -1.690907e+02  -5.587428e+02
   3.509362e+02  -3.588631e+02
   6.491685e+02   1.102214e+02
   3.573208e+02   3.328031e+02
  -1.361352e+02   3.487081e+02
  -4.133364e+02   1.279015e+01
  -2.332454e+02  -1.429983e+02
   6.939698e+01  -7.579935e+01
   1.090205e+02   1.112064e+02
  -1.929058e+02   1.485337e+02
  -3.490024e+02  -3.069130e+01
  -1.411299e+02  -2.692584e+02
   1.969186e+02  -2.378433e+02
   2.688007e+02  -5.738971e+01
   1.781748e+02   6.480289e+01
  -5.843297e+01   1.851486e+02
  -2.245479e+02   3.658565e+02
  -4.144296e+02   2.063182e+02
  -2.644181e+02  -1.266829e+02
  -5.533905e+01  -4.110325e+02
   1.171766e+02  -3.436077e+02
   8.904595e+01  -1.284086e+02
   2.424991e+00   2.003570e+00
   1.252556e+01  -5.792874e+01
   1.335721e+02  -4.282826e+01
   2.113122e+02   2.564477e+01
   1.397372e+02   2.561468e+02
  -6.385757e+01   2.249788e+02
  -2.143589e+02   4.662918e+01
  -1.805847e+02  -2.539005e+02
   2.410006e+00  -3.137371e+02
   2.768377e+02  -1.056604e+02
   3.360922e+02   1.603623e+02
   1.629552e+02   3.384664e+02
  -3.999034e+01   2.717217e+02
  -1.784062e+02   1.455462e+02
  -1.518419e+02  -2.838675e+00
  -8.761224e+01   6.375987e+01
  -2.912983e+02   4.345463e+01
  -3.863238e+02  -6.053186e+01
  -3.175011e+02  -2.940141e+02
   1.424959e+01  -4.276062e+02
   3.617302e+02  -3.914064e+02
   4.443155e+02  -1.681950e+02
   3.536719e+02   8.770338e+01
   3.596110e+01   3.256111e+02
  -1.221486e+02   2.582070e+02
  -2.338746e+00   5.294004e+01
   4.671141e+01  -6.188779e+01
   1.550266e+02   1.657669e+01
   8.795457e+01   1.565112e+02
  -1.780120e+02   2.035076e+02
  -1.375613e+02  -3.650138e+01
   4.050319e+01  -1.565095e+02
   2.323418e+02  -3.419669e+01
   1.247129e+02   2.443492e+02
  -8.374929e+01   3.300427e+02
  -2.318203e+02   2.146833e+02
  -3.228817e+02  -6.557131e+01
  -2.311841e+02  -1.901208e+02
  -6.428541e+01  -2.858844e+02
   1.410382e+02  -1.524245e+02
   1.927663e+02   2.013211e+00
   5.316632e+01   4.851431e+01
  -9.563514e+01  -5.373146e+01
  -5.551031e+01  -1.109151e+02
   8.867299e+01  -1.038749e+02
   2.015009e+02   3.663333e+01
   2.376150e+01   9.280727e+01
  -1.493605e+02   1.781671e+01
  -4.806309e+00  -1.195747e+01
   1.182835e+02  -7.494073e+01
   2.461027e+02  -4.733631e+01
   3.131731e+02   1.732475e+02
   4.245249e+01   2.248522e+02
  -1.912021e+02   1.850528e+02
  -1.882462e+02   8.011983e+01
  -1.066224e+02  -5.116521e+01
   1.010072e+02  -8.307521e+01
   8.721210e+01   1.794410e+01
  -5.036802e+01   9.887850e+01
  -1.480693e+02   5.113324e+01
  -2.285694e+02  -7.672376e+01
  -4.911709e+01  -1.776468e+02
   1.170193e+02  -1.322721e+02
   1.313454e+02  -5.643188e+01
   5.732148e+01   6.926091e+01
   1.288806e+01  -3.612236e+01
  -9.120675e-01  -2.194820e+01
   2.558874e+01  -8.036318e+01
   2.216912e+02  -6.034903e+01
   1.940362e+02   1.668704e+02
   3.652293e+01   1.680700e+02
  -1.523073e+02   1.960818e+02
  -2.252405e+02   3.433684e+01
  -2.620352e+01  -1.006576e+02
   8.938761e+01  -9.714040e+01
   2.398211e+01  -4.731056e+01
   3.034226e+01   3.937726e+01
  -5.631905e+01   6.246680e+01
   4.005396e+01   2.472917e+00
   2.789893e+01   3.524893e+01
   8.681871e+01   7.116943e+01
   7.284812e+01   9.685400e+01
  -1.396650e+02   1.228635e+02
  -2.082313e+02   2.173048e+01
  -1.902418e+02  -1.490492e+02
  -7.282610e+01  -2.066771e+02
   9.372989e+01  -1.162738e+02
   1.310070e+02   5.547280e+00
   5.540332e+01   2.767395e+01
   5.924104e+00   7.572095e+01
   4.844588e+01  -4.078140e+01
   8.441516e+01   4.033092e+00
   3.792898e+01   5.184596e+01
   1.517661e+00   5.489275e+01
  -1.302853e+02   6.346358e+01
  -1.139466e+02  -7.445663e+01
  -2.436197e+01  -8.808344e+01
   1.126293e+02  -5.618295e+01
   1.194621e+02   4.456534e+01
   1.419579e+02   2.222957e+02
  -9.357519e+01   2.223829e+02
  -2.548662e+02   4.711521e+01
  -2.170210e+02  -7.313917e+01
  -1.033236e+02  -1.784809e+02
   2.415748e+01  -1.411956e+02
   7.526469e+01  -5.994651e+01
   8.172640e+01  -1.002352e+02
   1.391327e+02  -4.282987e+01
   7.141517e+01  -9.134733e+01
   1.403998e+02  -2.029732e+01
   7.530690e+01   1.438143e+02
   8.951269e+00   2.083402e+02
  -1.248200e+02   1.639174e+02
  -1.462487e+02  -1.496244e+01
  -1.265774e+02  -1.177580e+02
   1.140004e+01  -1.255014e+02
   8.894726e+01  -8.933611e+01
   5.796849e+01  -1.189515e+01
  -1.345521e+01   7.044296e+01
  -3.815093e+01   2.813151e+01
   2.379272e+01   5.264096e+01
   3.691249e+01  -8.443782e+00
  -1.748205e+01   1.113230e+02
  -6.988109e+01   1.199048e+01
  -1.541979e+02  -1.282994e+01
  -1.178157e+02  -4.368393e+01
  -6.819714e+01  -6.925826e+01
   1.367531e+02  -5.800003e+01
   7.041981e+01  -5.446388e+00
   5.171621e+01   5.508075e+01
  -7.667701e+01  -2.401969e+00
  -8.686079e+01  -4.651639e+00
   1.285360e+01  -6.673870e+01
   5.538752e+01  -7.847679e+01
   1.926339e+01   2.411035e+01
   6.705633e+01   3.794874e+01
   6.827243e+01   2.643099e+01
   2.461603e+01   3.301178e+01
   5.164163e+01  -1.199302e+01
   5.419068e+01   5.181173e+01
  -3.394671e+01   1.477287e+02
  -1.461870e+02   1.421181e+02
  -2.439385e+02  -7.427330e+00
  -1.227295e+02  -1.120995e+02
   2.429039e+01  -1.275311e+02
   7.544227e+01  -2.783570e+01
   9.082108e+01   2.267722e+01
  -7.303068e+01  -1.906751e+01
  -1.547153e+02  -2.405190e+01
  -4.606489e+01  -1.118232e+02
   1.037767e+02  -1.643421e+02
   1.261195e+02  -5.135754e+01
   1.548078e+02   9.098826e+00
  -9.352821e+00   9.874206e+01
  -4.186316e+01   8.857883e+01
  -8.727778e+01   2.830083e+01
   1.995770e+01  -7.984985e+00
   1.393750e+02   7.576935e+00
   1.000056e+01   1.271573e+02
  -1.009991e+02   1.635317e+02
  -1.608218e+02   4.499831e+01
  -9.890740e+01  -9.723698e+01
   2.133237e+01  -2.017318e+02
   1.083273e+02  -1.390830e+02
   6.197016e+01  -3.871758e+01
   3.859011e+01   9.225404e+01
  -1.073491e+01   1.097704e+02
  -5.608792e+00   7.294435e+01
  -1.089598e+02  -5.593420e+01
   2.100287e+01   1.046313e+01
  -3.593309e+01   3.718140e+01
  -3.886405e+01  -2.522446e+01
  -7.218649e+01  -1.207235e+02
  -6.906357e+01  -7.933436e+01
   3.130250e+01  -2.747074e+00
   1.080446e+02   5.083813e+01
   8.571473e+01   6.491219e+01
   2.293865e+01   4.614699e+01
  -3.938288e+01  -3.365529e-01
  -6.213092e+01  -4.350836e+01
  -1.016603e+01   3.229210e+00
   2.236915e+01   1.098799e-01
   3.053587e+01  -4.741481e+01
   3.352268e+00   3.869932e+01
   9.905949e+00   3.946492e+01
   6.201042e+01  -2.547411e+01
   1.069485e+02   4.313811e+01
  -5.403118e+00   8.487905e+01
  -9.171886e+01   7.920726e+01
  -1.641398e+02   1.249309e+02
  -1.229403e+02  -7.857399e+01
  -2.216462e+01  -1.963173e+02
   3.325300e+01  -1.209434e+02
   1.116566e+02  -7.989579e+01
   4.200866e+01   4.322387e-01
   2.385953e+01   8.243324e+01
   6.059646e+00  -3.104236e+01
   1.073682e+01   2.534572e+01
   5.067824e+01   4.904317e+01
   9.387721e+00   1.244553e+02
  -2.988373e+01   3.907400e+01
  -5.390973e+01  -4.436964e+01
  -2.977527e+01  -1.187551e+02
  -4.978268e+01  -1.038572e+02
   7.041403e+01  -4.754289e+01
   1.247193e+02   3.328442e+01
   2.443431e+01   1.079266e+02
  -1.019513e+02   3.889500e+01
  -9.758239e+01  -9.334813e+00
  -4.877911e+01  -2.585355e+01
   4.612944e+01  -5.072951e+01
   6.475180e+01   3.238779e+01
  -5.808397e+00  -5.158145e+01
  -5.835433e+01  -1.996384e+01
   5.137189e+01   2.720783e+01
   2.968380e+01  -6.697673e+01
   9.395999e+01  -7.793614e+01
   7.630527e+01   6.423585e+01
   2.862080e+01   9.437918e+01
  -2.721918e+01   6.987215e+01
  -2.849939e+01   2.718699e+00
  -1.689968e+01  -4.107301e+01
   2.449527e+01  -2.809243e+01
  -8.921252e+00   7.364349e+00
   4.273802e+01   2.046991e+01
  -2.529869e+00   4.673465e+01
  -1.904492e+01  -2.037152e+01
  -7.225517e+01   1.522894e+01
   8.858641e+00   6.967296e+01
   9.799763e+00   4.771035e+01
   4.584883e+01  -1.360296e+01
   2.864031e+01  -4.943131e+01
   5.822659e+01  -4.902295e+01
  -4.624499e+00  -2.775872e+00
   8.368813e+01   9.718049e+00
  -4.740723e+01   1.982964e+00
  -7.113006e+01  -1.340394e+01
  -3.995759e+01  -2.564591e+01
  -1.692628e+01  -8.380091e+01
   5.134510e+01  -6.994729e+01
   1.070467e+02   2.311014e+01
   6.513054e+01   4.668746e+01
  -3.435432e+01   2.570827e+01
  -5.353541e+01   2.706636e+00
  -2.553287e+01   2.039673e+01
   4.598362e+01   2.869307e+00
   8.321636e+01   2.470309e+01
  -4.243928e+00   6.145055e+01
  -4.159753e+01   1.307664e+01
