
 $NMID
 id='ANONYMOUS ', fmtdat='(2E16.6)'
 volume=1.0
 tramp=1.0
 $END
  -3.908558e+03   1.174462e+01
  -2.318473e+03  -2.401819e+03
   7.471965e+02  -2.469050e+03
   1.943967e+03  -7.060344e+02
   8.418157e+02   6.590952e+02
  -6.677539e+02   5.829934e+02
  -8.892694e+02  -4.289868e+02
   3.980441e+01  -1.011415e+03
   7.683587e+02  -6.841701e+02
   9.180013e+02   1.347428e+02
   3.606562e+02   8.530958e+02
  -2.477382e+02   8.376609e+02
  -5.746335e+02   1.087914e+02
  -3.682004e+02  -6.742799e+02
   2.633910e+02  -7.320557e+02
   5.397341e+02  -5.438674e+00
   2.031547e+02   6.597305e+02
  -3.197767e+02   5.117857e+02
  -4.673480e+02   2.706023e+01
  -3.404057e+02  -3.482437e+02
  -1.843493e+01  -4.205520e+02
   2.716730e+02  -1.835126e+02
   1.748796e+02  -1.141485e+01
  -9.498799e+01   4.247483e+01
  -3.768723e+02  -1.147719e+02
  -2.125141e+02  -3.925941e+02
   3.819737e+02  -3.958234e+02
   7.439105e+02   7.672422e+01
   3.544861e+02   5.005264e+02
  -3.821085e+02   4.564092e+02
  -6.487958e+02   1.658566e+00
  -3.065040e+02  -4.306703e+02
   2.401799e+02  -4.525137e+02
   5.111566e+02  -1.771638e+02
   3.461997e+02   1.916696e+02
   2.303724e+01   4.621715e+02
  -1.933498e+02   2.440908e+02
  -1.913855e+02  -2.536058e+02
   1.660614e+02  -4.360233e+02
   4.918490e+02  -3.083611e+01
   2.614813e+02   6.169570e+02
  -2.845083e+02   6.185412e+02
  -5.915987e+02   2.731594e+01
  -2.229288e+02  -4.458612e+02
   2.585360e+02  -2.686794e+02
   3.593518e+02   3.392572e+02
  -7.221452e+01   4.832793e+02
  -5.625023e+02   7.814828e+01
  -5.542977e+02  -3.446302e+02
  -1.607758e+02  -4.814521e+02
   3.984610e+02  -3.070411e+02
   5.735491e+02   2.497141e+01
   3.425786e+02   3.627941e+02
  -1.197062e+02   3.282999e+02
  -4.325700e+02   8.171871e+01
  -2.387148e+02  -1.816975e+02
   8.989151e+01  -6.439576e+01
   1.220843e+02   1.882057e+02
  -1.313780e+02   1.669860e+02
  -3.765123e+02  -8.004834e+01
  -1.182997e+02  -2.636621e+02
   2.108071e+02  -2.410479e+02
   2.412517e+02  -6.562269e+01
   1.753899e+02   6.347947e+01
  -2.750851e+01   2.004813e+02
  -2.063947e+02   2.599484e+02
  -3.360618e+02   1.666260e+02
  -2.165915e+02  -1.403310e+02
  -1.199527e+02  -3.889659e+02
   1.157825e+02  -3.345369e+02
   1.839068e+02  -3.896331e+01
   3.691176e+01   2.379561e+01
   4.164056e+01  -4.649185e+01
   1.636036e+02  -1.226450e+02
   2.453595e+02  -1.124262e+01
   1.674396e+02   2.179923e+02
  -5.775618e+01   2.766442e+02
  -2.739861e+02   9.798941e+00
  -1.935672e+02  -2.559690e+02
  -1.154410e+01  -3.221807e+02
   2.118815e+02  -4.933523e+01
   3.460754e+02   1.324170e+02
   1.614591e+02   2.870221e+02
  -7.055600e+01   3.161942e+02
  -2.294883e+02   8.444134e+01
  -1.053672e+02  -3.071679e+01
  -6.740007e+01   2.299561e+01
  -1.761239e+02   4.401263e+01
  -3.560794e+02   1.275812e+01
  -3.007886e+02  -2.918092e+02
   6.837616e+00  -3.642902e+02
   2.755791e+02  -3.448932e+02
   4.510928e+02  -2.285681e+02
   2.675615e+02   1.041217e+02
   1.875779e+01   2.629320e+02
  -1.360256e+02   2.089127e+02
  -6.063150e+01  -3.334472e-02
   7.663745e+01  -1.104191e+02
   1.818746e+02  -5.985410e+01
   5.729310e+01   2.099124e+02
  -1.613460e+02   2.284318e+02
  -2.074666e+02  -5.581912e+01
  -1.664535e+01  -1.646983e+02
   1.863524e+02  -1.182608e+01
   1.891874e+02   2.475120e+02
  -1.432577e+01   3.195276e+02
  -1.992549e+02   1.910914e+02
  -3.047452e+02  -1.275286e+01
  -2.175318e+02  -1.800049e+02
  -9.049736e+01  -2.313221e+02
   9.631685e+01  -1.596030e+02
   1.686692e+02  -2.761902e+01
   5.798230e+01   2.199645e+01
  -6.808372e+01  -7.138501e+00
  -3.364205e+01  -8.899973e+01
   5.270246e+01  -1.117984e+02
   1.470560e+02   3.780188e+01
   1.329201e+01   6.132121e+01
  -8.837752e+01  -4.875312e+00
  -4.533140e+01  -6.088470e+01
   1.051610e+02  -6.724013e+01
   2.110793e+02  -2.155763e+01
   2.487410e+02   1.211199e+02
   8.595188e+01   2.045215e+02
  -1.376962e+02   2.484795e+02
  -2.299162e+02   9.129319e+01
  -1.879532e+02  -7.245439e+01
   6.582934e+01  -8.846577e+01
   1.050256e+02  -4.844791e+00
  -7.983000e+01   6.916550e+01
  -1.631659e+02   7.782782e+01
  -2.249543e+02  -7.721640e+01
  -1.090468e+02  -1.465721e+02
   6.240811e+01  -1.419095e+02
   1.322342e+02  -7.883229e+00
   4.644397e+01   7.083367e+01
  -3.912382e+01   1.100813e+01
  -4.388332e+01  -5.997290e+01
   5.126587e+01  -1.078348e+02
   1.696379e+02  -3.936964e+00
   1.525667e+02   1.322601e+02
   1.759521e+01   1.594611e+02
  -1.203135e+02   1.382277e+02
  -1.583546e+02   1.264492e+01
  -4.765352e+01  -1.225656e+02
   1.124792e+02  -9.300047e+01
   7.685953e+01  -2.037117e+01
   6.150292e-01   3.800156e+01
   1.743921e+00   2.761538e+01
   5.461818e+01   2.152238e+01
   4.075569e+01  -1.283245e+01
   1.040435e+02   7.815190e+01
  -2.850698e+01   1.039347e+02
  -1.462384e+02   1.155195e+02
  -2.511942e+02   9.203469e+00
  -1.800744e+02  -1.228790e+02
  -5.542950e+01  -2.089518e+02
   1.242962e+02  -8.661336e+01
   8.056940e+01   3.323213e+01
   6.121697e+01   7.034420e+01
  -4.677674e+00   5.070881e+01
  -2.579460e+01   1.970255e+01
   6.400901e+01  -4.527011e+01
   3.161482e+01   2.992912e+01
  -5.994541e+01   4.635501e+01
  -1.186858e+02   4.617514e+01
  -1.280849e+02  -1.333633e+01
   4.308404e+01  -1.002684e+02
   1.449566e+02  -5.407599e+01
   1.714198e+02   6.049145e+01
   7.807431e+01   1.651997e+02
  -7.192780e+01   2.178995e+02
  -2.930764e+02   9.498244e+01
  -2.556609e+02  -4.752659e+01
  -1.011125e+02  -1.273622e+02
   3.251458e+01  -1.171727e+02
   9.894207e+01  -5.272204e+01
   3.985493e+01  -2.611875e+01
   8.666308e+01  -8.692462e+01
   1.175383e+02  -5.005332e+01
   7.815799e+01  -4.433491e+01
   7.329888e+01   8.842447e+01
   7.878736e-01   1.999337e+02
  -9.651318e+01   1.576664e+02
  -1.511740e+02  -1.474461e+01
  -6.292632e+01  -9.406971e+01
  -4.235354e+01  -1.719464e+02
   7.505574e+01  -6.381571e+01
   5.913196e+01   2.019294e+01
   1.077607e+00   5.174646e+01
   1.168933e+01  -2.627748e+00
   3.149358e+01  -2.133884e+01
   9.836739e+01   8.253164e+01
   8.573692e+01   4.865371e+01
  -7.534883e+01   6.267941e+01
  -1.278292e+02   2.579105e-02
  -1.079028e+02  -1.439030e+01
   2.338105e+01  -9.842345e+01
   9.926916e+01  -9.396851e+01
   7.548528e+01   6.887685e+00
   4.466075e+01   1.665319e+01
  -3.485123e+01  -6.503641e-01
  -8.447623e+01  -2.585896e+01
   2.789387e+01  -9.749481e+01
   4.925356e+01  -8.758168e+01
   5.885001e+01  -3.211483e+01
   1.366297e+01   2.288012e+01
   6.180897e+01   5.412368e+01
   2.070621e+01   6.208314e+00
   9.854565e+01  -6.450679e-01
   1.197051e+01  -4.854236e+00
  -5.046650e+01   1.250797e+02
  -7.898943e+01   1.413979e+02
  -1.060237e+02  -2.270782e+01
  -1.317404e+02  -2.794726e+01
   4.979406e+00  -1.388934e+02
   7.231984e+01  -5.907348e+01
   8.802483e+01   1.662551e+01
  -7.418743e+01  -5.863302e+01
  -1.889410e+02  -5.162337e+01
  -3.600388e+01  -9.369017e+01
   3.831073e+01  -1.088429e+02
   1.736927e+02  -3.237160e+01
   1.248712e+02   1.555094e+01
   1.943644e+01   9.258358e+01
  -3.560316e+01   4.299516e+01
   1.163057e+01   9.424651e+01
   3.984523e+00   1.659148e+01
   6.141513e+01  -4.707108e+01
  -1.761381e+01   1.299353e+02
  -4.824725e+01   1.004194e+02
  -1.669523e+02   5.006590e+01
  -1.289226e+02  -1.115359e+02
  -1.063302e+01  -1.587365e+02
   5.666743e+01  -1.103362e+02
   8.551847e+01  -7.746333e+00
   8.003579e+01   1.200605e+02
  -3.377744e+01   9.797688e+01
  -4.909832e+01   2.640341e+01
  -1.105428e+02  -4.422496e+00
   3.700682e+01   4.927809e+01
  -4.491142e+01   1.112505e+00
   1.863614e+01   2.508741e+01
  -1.189031e+02  -6.616258e+01
   4.548027e+00  -7.581184e+01
   9.757202e+00  -2.975221e+01
   1.201112e+02   9.577696e+00
   8.599090e+01   6.480084e+01
  -1.739951e+01  -2.495324e+01
  -5.176998e+01   3.667860e+01
  -6.845884e+01   8.116863e+01
   3.911169e+00   5.051038e+01
   4.727248e+01   1.201868e+01
  -4.728456e+01   4.526699e+01
  -2.754961e+01  -7.435518e+00
   5.766204e+01   1.918630e+01
   1.995443e+01   6.194884e+00
   6.962543e+01   4.105838e+01
  -2.610072e+01   6.513035e+01
  -1.177903e+02   7.557732e+01
  -1.393258e+02   2.801401e+01
  -9.256784e+01  -6.476522e+01
  -1.184831e+01  -1.467399e+02
   4.770053e+01  -1.546368e+02
   6.369995e+01   2.052847e+00
   7.433249e+01   2.306836e+01
  -3.341445e+01   4.452527e+01
  -1.014647e+01   2.737258e+01
   9.680522e+00   1.669744e+01
   4.156945e+01   1.298033e+01
   3.515015e+01   1.467081e+02
  -2.576574e+01   1.033317e+02
  -7.919116e+01  -4.345882e+00
  -1.512658e+01  -7.855140e+01
   1.651753e+01  -1.178669e+02
   6.429712e+01  -5.107197e+01
   8.879232e+01   8.419845e+01
  -1.631750e+01   8.251909e+01
  -2.225265e+01   2.886582e+01
  -1.040133e+02  -4.107733e+00
  -3.777937e+01  -5.705358e+01
   1.533472e+01  -2.370818e+01
   4.556143e+01   6.920773e+01
  -2.144065e+01  -4.304154e+01
  -2.483559e+01  -1.386143e+01
   1.830777e+01  -2.815902e+01
   2.537691e+01  -6.923403e+01
   6.763997e+01   8.291836e-01
   4.227547e+01   7.315570e+01
   4.280120e+00   2.656548e+01
  -4.803117e+01   8.250240e+01
  -1.903338e+01  -3.204162e+01
   1.957203e+00  -6.433053e+01
   4.754384e+01  -5.402200e+01
  -4.026629e+00   2.711974e+01
   1.372859e+01   4.824980e+01
  -4.532380e+01   4.206439e+01
  -4.625580e+01   6.038930e+01
  -1.508174e+01  -6.162743e+01
  -1.798350e+01  -6.736408e+01
  -1.341919e+01  -1.069809e+01
   6.189479e+01  -4.806674e+01
  -1.159049e+01  -3.614346e+01
   6.047435e+01  -1.307492e+00
   2.583104e+01  -2.324534e+00
  -1.997306e+01   3.395371e+01
   1.097246e+01   3.678839e+01
   2.546241e+00   2.042301e+01
  -3.057671e+01  -2.115269e+01
  -4.047503e+01  -2.944407e+01
   5.593065e+00  -1.710993e+01
   4.800104e+01   5.697356e+01
   5.265910e+01   5.081246e+01
  -2.823642e+01   2.463617e+01
  -3.507960e+01  -1.649413e+01
   1.378467e+01   1.090380e+01
   6.848986e+01  -3.428349e+01
   5.419613e+00   3.037945e+01
  -1.971521e+01  -1.995802e+01
  -9.033772e+01  -1.142074e+01
