
 $NMID
 id='ANONYMOUS ', fmtdat='(2E16.6)'
 volume=1.0
 tramp=1.0
 $END
  -3.597434e+03  -3.462403e+01
  -2.244912e+03  -1.944307e+03
   2.608547e+02  -2.292842e+03
   1.561592e+03  -1.122396e+03
   9.729122e+02   1.048679e+02
  -2.441972e+02   3.616413e+02
  -5.354503e+02  -2.089270e+02
   5.801655e-01  -7.129182e+02
   5.579695e+02  -6.649989e+02
   7.450995e+02  -3.018985e+01
   4.558914e+02   6.508573e+02
  -8.650620e+01   7.220938e+02
  -4.319851e+02   1.724989e+02
  -2.620484e+02  -5.376494e+02
   1.568858e+02  -6.186857e+02
   3.926213e+02  -6.118208e+01
   2.344783e+02   5.575245e+02
  -1.704278e+02   6.517923e+02
  -5.388615e+02   1.782587e+02
  -4.535584e+02  -2.611613e+02
  -7.391038e+01  -3.874938e+02
   2.082037e+02  -2.722157e+02
   1.257110e+02  -5.053259e+01
  -1.740529e+02   1.032180e+01
  -3.555346e+02  -2.629172e+02
  -8.418471e+01  -3.700865e+02
   4.121708e+02  -2.288841e+02
   6.331004e+02   2.042220e+02
   2.656466e+02   4.246657e+02
  -3.206034e+02   2.757377e+02
  -5.851353e+02  -8.931836e+01
  -2.589007e+02  -4.121823e+02
   2.828618e+02  -3.854681e+02
   4.757878e+02  -1.104005e+02
   3.390390e+02   1.542475e+02
   6.015729e+01   3.378349e+02
  -1.086940e+02   2.237791e+02
  -5.262907e+00  -1.012485e+02
   2.018350e+02  -2.356911e+02
   3.289966e+02   1.230512e+02
   7.006698e+01   5.416858e+02
  -2.737919e+02   4.560277e+02
  -3.638339e+02   7.540835e+01
  -1.828761e+02  -3.944367e+02
   2.761241e+02  -2.220684e+02
   2.796913e+02   2.926833e+02
  -1.102913e+02   4.844792e+02
  -4.439073e+02   5.834017e+01
  -5.242171e+02  -3.551824e+02
  -1.477037e+02  -4.880464e+02
   3.330867e+02  -2.864902e+02
   5.312377e+02   8.828841e+01
   3.400396e+02   3.204545e+02
  -1.154778e+02   2.908202e+02
  -3.579138e+02   3.303490e+01
  -2.303417e+02  -1.592469e+02
   1.107148e+02  -7.339109e+01
   1.012220e+02   1.448016e+02
  -1.468591e+02   1.242656e+02
  -2.477996e+02  -3.632295e+01
  -1.593009e+02  -2.404061e+02
   1.446863e+02  -2.305668e+02
   3.628993e+02  -1.409811e+02
   2.247864e+02   1.401542e+02
  -1.792790e+01   2.708329e+02
  -2.643865e+02   3.267637e+02
  -3.222520e+02   1.500204e+02
  -2.266673e+02  -1.156686e+02
  -8.798603e+01  -3.433933e+02
   6.699371e+01  -3.926190e+02
   6.671080e+01  -1.953764e+02
   2.154203e+01  -7.064033e+01
   1.014947e+02  -1.018093e+02
   2.481954e+02  -1.128851e+02
   2.360552e+02   1.017727e+02
   1.415473e+02   2.384138e+02
  -1.454666e+02   2.474431e+02
  -1.891532e+02  -6.317166e+01
  -1.314105e+02  -2.317936e+02
   4.962836e+01  -2.209295e+02
   2.628832e+02  -8.049426e+01
   3.350154e+02   1.503542e+02
   1.570720e+02   3.378929e+02
  -3.790678e+01   2.761411e+02
  -2.041431e+02   1.480509e+02
  -1.719921e+02   1.987024e+01
  -8.815146e+01   2.177131e+01
  -2.754659e+02   4.454050e+01
  -3.801504e+02  -9.295712e+01
  -3.732643e+02  -2.872557e+02
   1.456261e+00  -4.303498e+02
   3.830024e+02  -3.735707e+02
   4.722591e+02  -1.637529e+02
   2.480319e+02   8.464363e+01
   6.563017e+01   1.919538e+02
  -6.395569e+01   2.012810e+02
  -8.203993e+01   2.450498e+01
   1.161986e+02  -2.466241e+01
   1.972883e+02   4.890878e+01
   4.685084e+01   1.866128e+02
  -1.735265e+02   8.920751e+01
  -1.190718e+02  -1.019498e+02
   3.614111e+01  -1.765754e+02
   1.908439e+02  -1.331601e+01
   1.585778e+02   2.431396e+02
  -1.699706e+01   3.583223e+02
  -2.720651e+02   2.341517e+02
  -3.759240e+02  -2.025327e+01
  -2.185649e+02  -2.965785e+02
  -9.322920e+01  -2.197050e+02
   1.453582e+02  -1.481225e+02
   1.759364e+02   2.196675e+01
   1.548127e+01  -2.641623e+01
  -4.124260e+01  -4.951736e+01
   3.750859e-01  -1.004778e+02
   9.495572e+01  -1.413347e+02
   1.399948e+02   2.900320e+01
   7.998587e+01   1.141164e+02
  -7.666655e+01  -2.188564e+01
  -3.145255e+01  -1.089993e+02
   1.536527e+02  -9.921449e+01
   2.927756e+02   1.635050e+00
   2.585746e+02   1.328566e+02
   5.353476e-02   3.018375e+02
  -1.990915e+02   2.396003e+02
  -2.378500e+02   1.139602e+02
  -1.696656e+02  -8.841095e+01
   2.661542e+01  -4.608839e+01
   6.836484e+01  -1.839872e+01
  -2.098532e+01   1.455512e+02
  -2.212561e+02  -8.439110e+00
  -1.672573e+02  -1.004766e+02
  -1.024025e+02  -1.668283e+02
   6.841946e+01  -1.472413e+02
   1.697006e+02  -7.300458e+01
   8.891495e+01   4.339410e+01
  -1.461210e+01   5.682064e+00
  -4.741823e+01  -9.102278e+01
   4.473750e+01  -1.381900e+02
   2.384477e+02  -5.447875e+01
   1.649770e+02   1.750345e+02
  -3.585758e+01   1.841450e+02
  -1.296558e+02   2.049905e+02
  -2.114238e+02   3.165585e+01
  -2.610188e+01  -1.098837e+02
   8.417961e+01  -3.913755e+01
   4.332796e+01  -4.120149e+01
  -1.351054e+01   1.564771e+01
  -1.921141e+01   5.026088e+01
  -5.368801e+01  -3.221059e+00
   8.432812e+01   8.708047e+00
   1.324618e+02   1.002505e+02
   6.559646e+00   1.691468e+02
  -1.457676e+02   1.199611e+02
  -2.240798e+02   8.070892e+00
  -1.953834e+02  -2.318452e+02
  -2.630163e+01  -2.491120e+02
   1.001511e+02  -1.069145e+02
   1.689195e+02  -1.785528e+01
   3.946610e+01   2.586312e+01
   1.786921e+01   2.685184e+01
   1.087292e+00  -2.486405e+01
  -5.830356e+00   7.738294e+00
   8.732058e+01   3.986299e+01
  -4.613251e+01   8.642707e+01
  -6.268963e+01   7.503596e+01
  -1.135484e+02  -3.032395e+01
   7.517614e+00  -1.029469e+02
   1.250311e+02  -5.732667e+01
   1.703599e+02   6.192502e+01
   1.207434e+02   2.119361e+02
  -1.422647e+02   2.406120e+02
  -3.024488e+02   7.954281e+01
  -2.933325e+02  -5.584608e+01
  -8.127845e+01  -1.329657e+02
   5.826209e+01  -1.324170e+02
   6.555736e+01  -5.508148e+01
   9.751849e+01  -8.542838e+01
   5.970396e+01  -1.338478e+02
   4.618040e+01  -4.494256e+01
   1.422650e+02   7.294199e+00
   1.038895e+02   1.294700e+02
   1.798277e+01   2.621835e+02
  -8.544992e+01   1.770151e+02
  -1.936797e+02   2.657036e+01
  -1.126906e+02  -1.091371e+02
  -9.355448e+01  -1.366402e+02
   6.222831e+01  -8.697405e+01
   9.192606e+01  -4.667131e+01
   5.050526e+01   6.206913e+01
  -2.420085e+01   5.032529e+01
   7.935069e+00   6.405510e+01
   1.030493e+02   1.018618e+01
   2.035621e+01   5.661219e+01
  -8.281329e+01   1.608400e+01
  -1.945175e+02  -6.816137e+01
  -1.790088e+02  -9.280115e+01
  -6.558310e+00  -1.195283e+02
   1.550105e+02  -7.706888e+01
   1.235078e+02   1.847033e+01
   5.873145e+01   3.076590e+01
  -7.746905e+01   4.492957e+00
  -7.862689e+01  -3.576639e+01
   1.521517e+01  -4.141259e+01
   2.563019e+01  -4.407865e+01
   4.576607e+01   1.455066e+01
   1.056684e+02   4.318810e+01
   4.546388e+01   6.101913e+01
   9.540321e+01   3.755171e+01
   2.048071e+01  -5.928252e+01
   3.160590e+01   6.879294e+01
  -2.069123e+01   1.196588e+02
  -8.760795e+01   1.639269e+02
  -1.596159e+02   6.192233e+01
  -1.330230e+02  -1.015081e+02
   3.826950e+01  -1.273008e+02
   5.770194e+01  -7.696448e+01
   1.083424e+02   1.341552e+01
  -7.007713e+01  -1.610063e+01
  -1.933726e+02  -8.533371e+01
  -6.557724e+01  -1.110092e+02
   1.301446e+02  -1.275886e+02
   1.294687e+02   1.478867e+01
   1.326446e+02   2.963100e+01
   3.890054e+01   6.000820e+01
  -9.390302e+01   8.813915e+01
  -4.034425e+01  -7.499366e+00
   1.059354e+01  -5.892489e+01
   7.846882e+01   1.391050e+01
   3.169254e+01   1.043687e+02
  -1.155442e+02   1.337194e+02
  -1.446584e+02   7.775863e+01
  -9.077727e+01  -1.041912e+02
  -5.889865e+01  -1.916175e+02
   5.194782e+01  -1.454043e+02
   7.877771e+01   3.645407e+01
   1.081145e+02   1.113693e+02
  -3.771162e+01   1.152838e+02
  -2.317577e+01  -2.293861e+01
  -2.454600e+01  -3.455362e+01
  -5.015283e+00  -8.036347e+00
  -6.657269e+00   2.099863e+01
   1.962672e+01  -1.433042e+01
   9.863502e+00  -5.973156e+01
  -7.118491e+01  -1.402423e+02
   8.766740e+01  -1.383182e+01
   1.568743e+02   2.965466e+01
   1.176437e+02   9.392137e+01
  -2.659981e+01   1.043566e+02
  -8.129540e+01   3.746223e+01
  -5.292801e+01   3.898731e+01
  -3.102774e+01   5.501374e+01
   8.206663e+00   1.974981e+01
   6.429421e+01  -2.607054e+01
  -3.112623e+00   8.252961e-01
   2.215723e+01  -2.975118e+01
   2.491553e+01  -1.207358e+01
   7.748645e+01   1.689537e+01
   1.056993e+01   1.401896e+02
  -1.354834e+02   1.268409e+02
  -1.489788e+02   6.750693e+01
  -9.769221e+01  -9.708550e+01
  -5.544676e+01  -1.707516e+02
   6.567862e+01  -1.665921e+02
   1.033100e+02  -5.291752e+01
   2.215628e+01   6.126295e+01
   5.442155e+01   9.602175e+00
  -3.561383e+01   3.438286e+01
   4.647583e+01   3.770062e+00
   4.856870e+01   7.612730e+01
   7.246327e+01   7.508282e+01
  -7.436673e+01   6.995220e+01
  -1.070143e+02  -1.096594e+01
  -2.988956e+01  -8.994582e+01
  -1.942945e+01  -9.687227e+01
   1.016516e+02  -7.616177e+01
   1.135251e+02   9.933498e+01
   1.480529e+01   7.842295e+01
  -9.298642e+01   2.337400e+01
  -8.326453e+01  -2.736584e+01
  -5.105093e+01  -1.377267e+01
   4.513404e+01  -1.779422e+01
   2.596533e+01   3.273607e+00
  -4.638056e+01  -5.381173e+00
  -9.063270e+01  -1.570472e+01
  -6.361663e+01  -3.061552e+01
   5.872975e+01  -5.341493e+01
   1.293569e+02  -9.274751e+01
   7.329812e+01   7.455992e+01
  -7.569859e+01   6.600799e+01
  -2.052807e+01   1.061685e+02
  -3.956612e+01   2.004438e+01
  -2.450767e+01  -5.247102e+01
   6.324232e+01  -6.210058e+01
   8.253869e+01  -4.192039e+01
   1.201122e+00   6.188090e+01
  -3.279250e+01   2.852165e+01
  -4.431607e+01  -2.180949e+01
  -2.199718e+01  -3.436501e+01
  -3.172315e+01   4.371062e+01
   3.599034e+01   2.115228e+01
   6.376067e+00  -3.002737e+01
  -5.971855e+01  -9.038701e+00
   2.287665e+00  -6.120028e+01
   3.317988e+01  -1.361260e+01
   2.530757e+01  -2.061820e+01
  -1.479256e+01   4.491927e+01
  -8.065328e+01  -1.090482e+01
  -5.867288e+01  -1.610400e+01
   2.011633e+01  -4.228365e+01
   9.266390e+01  -1.984215e+00
   8.354136e+01   1.029913e+02
   8.206446e+00   6.453699e+01
  -4.321413e+01   4.157522e+01
  -6.428506e+01   2.329949e+01
  -5.705655e+01   2.904623e+01
   7.901718e+00  -8.029818e+00
   5.812930e+01  -3.811804e+01
   5.524580e+01   2.799530e+01
  -1.953338e+01   1.069837e+01
