
 $NMID
 id='ANONYMOUS ', fmtdat='(2E16.6)'
 volume=1.0
 tramp=1.0
 $END
   3.749385e+03   9.071749e+00
   2.121006e+03   2.284120e+03
  -7.063318e+02   2.359067e+03
  -1.843347e+03   7.217257e+02
  -8.076892e+02  -6.812730e+02
   6.016021e+02  -5.798695e+02
   7.935159e+02   3.842337e+02
   1.017317e+01   9.566979e+02
  -7.097400e+02   6.480699e+02
  -8.333358e+02  -2.898880e+01
  -3.231339e+02  -7.599567e+02
   2.703242e+02  -7.596127e+02
   5.598006e+02  -4.253437e+01
   3.048760e+02   6.477172e+02
  -2.173468e+02   6.539331e+02
  -5.305927e+02  -4.481633e+01
  -2.092768e+02  -6.064502e+02
   3.013787e+02  -5.179698e+02
   5.293110e+02  -2.287040e+01
   2.928269e+02   3.023092e+02
  -1.556068e+01   3.325880e+02
  -2.118240e+02   1.921047e+02
  -2.222934e+02  -1.953924e+01
   1.269734e+02  -1.033320e+02
   3.275843e+02   6.242119e+01
   8.962221e+01   3.444235e+02
  -4.169515e+02   3.645911e+02
  -7.099285e+02  -2.748424e+01
  -4.053117e+02  -4.310100e+02
   3.122460e+02  -4.333080e+02
   5.793354e+02   3.606132e+00
   2.803627e+02   3.979452e+02
  -2.414338e+02   4.856851e+02
  -5.547490e+02   1.801515e+02
  -3.407646e+02  -2.263519e+02
  -6.918763e+01  -3.866992e+02
   1.792737e+02  -2.062009e+02
   1.592001e+02   2.051242e+02
  -2.002734e+02   4.285631e+02
  -3.894437e+02   4.650192e+01
  -2.718212e+02  -5.617407e+02
   2.828578e+02  -6.402930e+02
   5.820180e+02  -2.355612e+01
   2.353067e+02   4.860944e+02
  -2.521633e+02   3.339676e+02
  -3.641476e+02  -2.887144e+02
   5.493031e+01  -4.874509e+02
   4.909597e+02  -9.215140e+01
   5.339090e+02   2.967144e+02
   7.795646e+01   5.126416e+02
  -3.760525e+02   2.544327e+02
  -5.451566e+02  -6.270600e+01
  -3.163031e+02  -3.272824e+02
   1.494046e+02  -3.487371e+02
   3.976214e+02  -2.501116e+01
   2.080993e+02   1.452946e+02
  -5.469193e+01   8.489810e+01
  -1.330935e+02  -1.240404e+02
   8.153482e+01  -1.465633e+02
   3.445547e+02   4.804068e+01
   1.176062e+02   2.044268e+02
  -1.454983e+02   1.973603e+02
  -1.790023e+02   6.906200e+01
  -1.881365e+02  -4.418409e+01
   6.889874e+01  -1.276242e+02
   1.640291e+02  -2.624105e+02
   2.590493e+02  -1.662757e+02
   2.420585e+02   7.909613e+01
   7.654209e+01   3.590919e+02
  -1.918885e+02   3.900297e+02
  -1.661594e+02   7.153691e+01
  -4.861405e+00   3.454479e+00
  -1.055431e+01   7.019195e+01
  -1.830031e+02   1.795445e+02
  -2.232718e+02  -4.686697e+01
  -1.169865e+02  -1.875938e+02
   5.514240e+01  -1.563398e+02
   1.546862e+02  -4.821386e+01
   9.635204e+01   2.102117e+02
   1.002536e+01   2.660886e+02
  -2.740775e+02   1.443935e+02
  -2.544723e+02  -1.206865e+02
  -1.810143e+02  -3.437597e+02
   9.470493e+01  -3.079194e+02
   2.054700e+02  -5.870592e+01
   1.728006e+02  -3.100027e+01
   9.091440e+01  -7.863993e+01
   1.802425e+02  -2.995349e+01
   2.714071e+02   6.550392e+01
   2.515775e+02   2.025080e+02
  -2.678036e+01   4.356024e+02
  -2.678165e+02   3.421542e+02
  -4.191497e+02   1.781866e+02
  -2.577480e+02  -6.374965e+01
  -3.051309e+01  -2.686924e+02
   1.310559e+02  -2.112422e+02
   3.533819e+01  -3.653629e+01
  -1.850348e+01   1.194033e+02
  -2.066513e+02  -5.783317e+01
  -8.181936e+01  -1.563537e+02
   1.584391e+02  -1.478063e+02
   1.258351e+02   3.711514e+01
   3.297631e+01   1.593920e+02
  -1.933330e+02   4.519341e+01
  -1.720490e+02  -2.457620e+02
   6.020438e+01  -3.186130e+02
   2.054897e+02  -1.681823e+02
   3.215448e+02   3.046950e+01
   2.049499e+02   2.509022e+02
   7.456079e+01   2.249089e+02
  -7.450130e+01   2.031996e+02
  -1.771980e+02  -1.880129e+01
  -2.164860e+01  -1.650139e+01
   5.867791e+01   5.557506e+01
   4.965010e+01   8.867056e+01
  -1.669370e+02   6.915382e+01
  -1.674154e+02  -1.091108e+01
  -5.017503e+01  -4.395214e+01
   5.083932e+01  -2.985742e+01
   2.382799e+01   4.664741e+01
  -1.098960e+02   7.775478e+01
  -2.412598e+02   3.482922e+01
  -2.090339e+02  -1.040653e+02
  -6.263899e+01  -2.203904e+02
   1.543949e+02  -1.908719e+02
   2.720539e+02  -1.253451e+02
   1.453384e+02   3.094489e+01
   1.931556e+01   1.248052e+02
  -4.066937e+01   2.576354e-01
  -3.002774e+01  -9.553053e+01
   1.720718e+02  -2.294594e+01
   1.619116e+02   1.044299e+02
   3.775959e+01   2.451576e+02
  -1.678914e+01   1.273971e+02
  -1.209522e+02   4.643875e+01
  -2.984499e+01  -7.291844e+00
   7.651333e+01  -6.772972e+00
   1.130926e+01   6.800554e+01
  -4.544329e+01   5.975374e+01
  -1.778395e+02   6.223901e+01
  -1.765688e+02  -8.540775e+01
  -7.228871e+01  -1.496711e+02
   1.160704e+02  -2.124729e+02
   1.837923e+02   3.324780e+01
   7.322970e+01   1.084407e+02
  -5.944298e+01   8.572682e+01
  -9.189279e+01   3.626163e+01
  -8.053735e+01  -2.866651e+01
   1.418311e+00  -2.403264e+01
  -5.651640e+01  -1.689958e+01
   3.950681e+00  -4.815537e+01
  -5.358465e+01  -1.981060e+01
   2.086994e+01  -8.317810e+01
   1.371302e+02  -1.258656e+02
   1.993914e+02  -8.733170e+00
   2.059495e+02   1.113546e+02
   8.382859e+01   1.904380e+02
  -6.392883e+01   8.160978e+01
  -1.055774e+02   6.050259e+01
  -4.681295e+01  -5.306593e+01
  -9.534631e+00  -3.103396e+01
  -4.375364e+01   3.973912e+01
  -2.626560e+01   4.832353e+01
  -1.524742e+01  -1.616380e+01
   5.869944e+01  -6.511268e+01
   1.154653e+02  -6.286184e+01
   3.302412e+01   3.104529e+01
  -4.451077e+01   7.016211e+01
  -8.524787e+01   8.031947e+01
  -1.222754e+02  -3.612463e+01
  -8.760393e+01  -1.604860e+02
   7.229425e+01  -2.054631e+02
   2.064322e+02  -8.958957e+01
   1.977114e+02   3.720257e+01
   1.413661e+02   2.106436e+02
  -7.629503e+01   1.205205e+02
  -1.155230e+02   6.343280e+01
  -1.068996e+02   4.106404e+01
  -3.714466e+01   8.638490e+01
  -5.237175e+01   7.873187e+00
  -1.057997e+02   8.549007e-01
  -8.390972e+01  -1.415636e+02
   3.445837e+01  -1.603945e+02
   8.786341e+01  -1.606423e+02
   8.695912e+01   1.090443e+01
   7.521340e+01   8.721342e+01
   2.392226e+01   1.054848e+02
  -5.788228e+01   3.349233e+01
  -1.081859e+01   1.643169e+01
  -1.511947e+01  -8.005702e+00
   2.680356e+01  -5.581550e+01
  -2.807301e+01   6.093742e+00
  -8.790099e+01  -5.083670e+01
  -6.452620e+01  -1.588429e+01
   5.289365e+01  -1.558429e+01
   1.143495e+02  -2.789741e+01
   9.721058e+01   5.223678e+01
  -3.648610e+01   6.709683e+01
  -9.024917e+01   9.804724e+01
  -1.114640e+02   2.563306e+01
  -6.493265e+01   1.430040e+01
   8.234119e+01  -6.394399e+01
   9.410612e+01   1.615319e+01
   8.893380e+00   8.797067e+01
  -9.645638e+01   2.842644e+00
  -8.441816e+01   1.840307e+01
  -6.980191e+01  -8.049976e+01
   5.091196e+00  -3.898422e+01
   1.333211e+01  -2.524909e+01
  -9.570123e+01  -1.180101e+01
  -1.585604e+01  -9.862723e+01
   7.287716e+01  -1.102049e+02
   1.560541e+02  -1.496359e+02
   1.048403e+02  -4.636979e+01
   4.411367e+01   1.015363e+02
   4.500921e+01   1.515628e+02
  -9.030271e+01   2.883539e+01
  -7.920821e+01   2.489216e+00
   4.852614e+01   1.548804e+01
   1.044487e+02   8.862671e+00
   1.341100e+01   3.210314e+01
  -6.874008e+01   5.414643e+01
  -1.838470e+02   4.365338e+01
  -1.680420e+02  -3.898226e+00
  -6.677503e+01  -7.358326e+01
   7.413672e+01  -8.166529e+01
   8.103611e+01   4.858358e+00
   3.791088e+00   1.859555e+01
  -1.177281e+02  -5.443662e+01
  -3.406063e+01  -7.441856e+01
   7.303625e+01  -1.316177e+02
   1.046876e+02  -8.939525e+01
   7.572008e+01   8.548877e+01
  -3.231813e+01   1.536480e+02
  -4.637188e+01   8.679932e+01
  -1.122338e+02   3.216536e+01
  -9.489144e+01  -7.716982e+01
   3.644973e+01  -9.169141e+01
  -1.686789e+01  -3.788182e+01
   1.390024e+02   3.183443e+01
   1.210948e+01   5.829610e+01
   2.049728e+01  -4.472361e+01
   3.026064e+01  -4.633210e+00
   4.232998e+01   5.239132e+01
  -5.747032e+00   9.435806e+01
  -8.359788e+01   5.493772e-01
  -1.069520e+02  -2.194822e+01
  -1.071896e+02  -8.444261e+01
   1.537636e+01  -2.322525e+01
   5.907361e+01  -5.674650e+01
   4.813051e+01  -3.456249e+01
  -1.859392e+01   3.870303e+01
  -7.238712e+01  -2.330767e+01
   3.772002e+00   1.658598e+01
   1.118470e+01  -4.625047e+01
   1.629586e+01  -2.516377e+01
  -7.653540e+01   4.108609e+01
  -6.792708e+01  -9.178854e+00
   4.984715e+00  -6.774971e+01
   9.032105e+01  -1.022288e+02
   1.398819e+02  -5.829937e+01
   1.485254e+02   4.832855e+01
   1.841173e+01   1.139570e+02
  -2.781322e-01   1.448484e+02
  -8.096048e+01   7.278234e+01
  -1.146888e+02  -5.481321e+00
   3.527813e+01  -1.005595e+01
   2.521436e-01   1.235151e+01
  -4.646280e+01   2.904135e+01
  -4.192814e+01   1.807874e+00
  -2.258564e+01  -5.314697e+01
   3.763209e+01  -1.360341e+02
   8.230446e+01  -2.413145e+01
   1.251025e+02   6.159010e+01
  -2.756453e+01   8.859040e+01
  -8.294015e+01   4.492021e+01
  -9.895327e+01  -7.701924e+01
  -3.173739e+01  -6.083699e+01
   8.978611e+01  -6.293245e+01
   7.447367e+01  -6.197183e+01
   2.163825e+01   6.861688e+01
   3.411741e+01   8.896615e+01
  -4.563797e+01  -1.039246e+01
  -2.528300e+01   1.646447e+00
   4.568252e+01  -8.712499e+00
  -9.484863e+00   2.724223e+01
  -1.060548e+02   5.479022e+01
  -1.193018e+02   5.502605e+01
  -1.684267e+01  -1.927573e+01
  -4.577296e+00  -2.637224e+01
   3.484993e+01  -5.727868e+01
  -1.402793e+01   3.988408e+01
  -5.495554e+00   9.263271e+01
  -2.781500e+01   2.623846e+01
  -4.496063e-01   5.188500e+01
  -6.122513e+01  -6.340525e+01
   4.223253e+01  -5.282991e+01
   1.894073e+01   4.225486e+01
   4.238125e+01   4.239419e+01
  -4.872144e+01  -2.504410e+01
  -4.937961e+00  -5.167421e+01
   7.719405e+00  -6.544857e+00
  -3.017909e+01   2.430958e+01
  -3.734112e+01   8.015329e+01
  -3.269421e+01  -1.138315e+01
  -8.489079e+01  -3.246567e+01
   3.602349e+01  -4.424028e+01
   4.401288e+01  -9.011418e+00
   9.406732e+01   9.293633e+00
  -3.314582e+01   7.732605e+01
  -3.385995e+01   5.144438e+01
  -3.821994e+01  -2.682562e+01
  -7.421539e+01  -8.766870e+00
   3.877892e+01  -6.244925e+01
   4.630381e+01  -4.609431e+01
  -1.497989e+01  -3.317661e+01
  -2.161261e+01   9.734911e+00
  -1.711574e+01   1.139842e+00
   4.274119e+01  -5.125883e+01
   8.962501e+01  -1.085488e+01
