
 $NMID
 id='ANONYMOUS ', fmtdat='(2E16.6)'
 volume=1.0
 tramp=1.0
 $END
   3.737284e+03   5.284021e+01
   2.150222e+03   2.280977e+03
  -6.760342e+02   2.330055e+03
  -1.859920e+03   6.484891e+02
  -7.429135e+02  -6.842767e+02
   6.615799e+02  -4.708430e+02
   8.565168e+02   4.147887e+02
  -4.219358e+00   8.804658e+02
  -7.377242e+02   6.889478e+02
  -7.778772e+02  -1.384189e+02
  -3.325192e+02  -7.363854e+02
   2.387008e+02  -7.562958e+02
   5.593332e+02  -1.154993e+02
   3.411236e+02   6.200080e+02
  -1.468294e+02   6.182424e+02
  -5.373036e+02  -4.341984e+01
  -2.087418e+02  -6.123177e+02
   3.051090e+02  -5.030065e+02
   4.415470e+02  -4.877749e+01
   2.952340e+02   3.713022e+02
  -2.294377e+01   3.780422e+02
  -2.131329e+02   1.912866e+02
  -2.111554e+02   1.989239e+00
   1.172253e+02  -8.667708e+01
   3.752165e+02   6.951032e+01
   2.349818e+02   3.209993e+02
  -3.902132e+02   4.153056e+02
  -7.590003e+02  -8.197187e+01
  -3.427804e+02  -4.978991e+02
   3.467238e+02  -4.295207e+02
   6.449059e+02  -5.805052e+00
   2.604634e+02   4.219393e+02
  -2.860172e+02   5.172237e+02
  -4.521381e+02   1.960322e+02
  -3.472647e+02  -1.915762e+02
  -8.093588e+01  -3.820342e+02
   2.151912e+02  -3.259909e+02
   1.844137e+02   2.039963e+02
  -1.317456e+02   4.167897e+02
  -4.229061e+02  -4.931951e-01
  -2.346691e+02  -5.692563e+02
   3.093622e+02  -6.157280e+02
   5.765046e+02   6.474670e+01
   1.902645e+02   4.848753e+02
  -2.132652e+02   3.070823e+02
  -3.517926e+02  -2.951164e+02
   5.831075e+01  -4.807748e+02
   4.743149e+02  -1.151764e+02
   4.758438e+02   3.678063e+02
   1.198501e+02   5.330582e+02
  -3.351833e+02   3.530984e+02
  -4.925784e+02  -8.442126e+01
  -3.166139e+02  -3.570772e+02
   7.957004e+01  -2.829127e+02
   3.865647e+02  -4.046367e+01
   2.045614e+02   1.327945e+02
  -1.527594e+02   3.323918e+01
  -1.297640e+02  -8.877816e+01
   1.159539e+02  -1.877957e+02
   2.960329e+02   4.394395e+01
   9.906387e+01   2.150359e+02
  -1.549547e+02   2.083280e+02
  -2.926153e+02   6.135772e+01
  -1.427466e+02  -2.393594e+01
  -4.919033e+00  -1.642471e+02
   1.499243e+02  -2.685167e+02
   2.688909e+02  -2.316702e+02
   2.514467e+02   9.297279e+01
   1.171941e+02   3.926122e+02
  -1.285565e+02   2.869168e+02
  -1.342943e+02   6.495240e+01
   2.465004e+00  -6.507974e+01
  -3.783140e+01   3.351754e+01
  -1.764449e+02   1.576081e+02
  -2.623907e+02  -6.192915e+01
  -1.412118e+02  -2.487824e+02
   6.026459e+01  -1.808358e+02
   1.758394e+02   2.236729e+00
   1.716575e+02   1.777613e+02
  -5.056073e+00   2.021697e+02
  -2.895470e+02   9.840777e+01
  -3.272890e+02  -1.223079e+02
  -1.340463e+02  -2.535362e+02
   1.018108e+02  -2.586188e+02
   2.014760e+02  -7.451155e+01
   1.237687e+02  -6.751244e+01
   6.706949e+01   1.136467e+01
   2.297499e+02  -3.688060e+01
   3.009611e+02   1.354838e+01
   3.082935e+02   1.819206e+02
   4.269654e+01   3.166330e+02
  -3.068883e+02   3.523384e+02
  -3.822930e+02   1.917505e+02
  -2.548508e+02  -7.989134e+01
  -4.176593e+01  -2.133370e+02
   1.216772e+02  -2.472578e+02
   1.123580e+02  -7.743919e+01
  -7.117845e+01   4.664487e+00
  -2.144783e+02  -1.523455e+01
  -6.147358e+01  -2.127092e+02
   9.918459e+01  -1.318453e+02
   1.953118e+02   4.918148e+01
   2.980557e+01   1.402706e+02
  -1.207693e+02   3.191150e+01
  -1.058442e+02  -2.061950e+02
   2.490871e+01  -2.963950e+02
   1.653065e+02  -1.613535e+02
   2.445527e+02   4.439996e+01
   2.168285e+02   1.650642e+02
   8.957125e+01   1.841281e+02
  -7.635880e+01   8.184041e+01
  -1.580059e+02   6.810464e+01
  -3.530306e+01  -3.589677e+01
   7.592183e+01   9.482311e-01
   5.109338e+01   6.181891e+01
  -6.858694e+01   1.065601e+02
  -1.266653e+02  -2.151868e+01
  -6.158379e+01   2.154968e+00
   7.048041e+01  -3.954839e+01
   7.389358e+01   3.386745e+00
  -1.190472e+02   5.035716e+01
  -1.988403e+02   4.224148e+01
  -2.057438e+02  -1.112407e+02
  -4.806064e+01  -1.590097e+02
   1.753613e+02  -2.708483e+02
   2.390492e+02  -1.071909e+02
   1.431995e+02   4.157062e+01
  -1.311266e+01   8.791395e+01
  -1.217116e+02   8.329460e+00
   3.056117e+01  -1.302227e+02
   1.646064e+02  -7.243366e+01
   1.848298e+02   1.048939e+02
   7.225490e+01   1.600619e+02
  -9.753376e+01   1.389259e+02
  -1.495915e+02   3.544439e+01
  -2.442292e+01  -2.392928e+01
   5.334066e+01   2.294793e+00
   2.660802e+01   6.026730e+01
  -4.786652e+01   4.239776e+01
  -1.829733e+02   4.549242e+01
  -1.551674e+02  -7.600339e+01
  -1.892127e+01  -1.508953e+02
   1.363916e+02  -1.139451e+02
   1.774924e+02   1.458673e+01
   6.914073e+01   8.073082e+01
  -2.668559e+01   6.469629e+01
  -5.153086e+01   5.091085e+01
  -3.183960e+01  -2.347408e+00
  -2.225409e+01  -7.491483e+01
   9.736973e+00   2.494088e+01
  -2.527718e+01   4.170702e+00
  -5.885061e+01  -8.773728e+01
  -6.393421e+01  -1.151621e+02
   8.188059e+01  -7.311845e+01
   2.011551e+02   3.316731e+01
   1.716406e+02   7.707181e+01
   3.272143e+01   1.929655e+02
  -1.172826e+02   1.065191e+02
  -9.638594e+01   1.019330e+02
  -5.779744e+01  -9.613676e+01
   1.286780e+01  -7.390524e+01
  -8.679587e+01  -1.192856e+01
  -1.104127e+02  -3.261989e+01
  -1.608445e+01  -7.634653e+01
   1.014560e+02  -5.683633e+01
   9.324207e+01  -2.081878e+01
   1.670711e+02   5.917559e+01
  -2.451968e+01   7.942797e+01
  -1.262521e+02   9.995197e+01
  -1.648735e+02  -9.926671e+00
  -8.917875e+01  -1.779453e+02
   7.692622e+01  -1.547875e+02
   2.220608e+02  -9.126375e+01
   1.989325e+02   6.030264e+01
   1.208804e+02   8.995299e+01
  -3.794944e+01   1.086994e+02
  -9.527628e+01   4.831587e+01
  -7.047292e+01   5.621937e+01
  -3.090284e+01   6.238641e+01
  -3.109567e+00   6.328887e+01
  -6.812478e+01  -6.756747e+01
  -9.799324e+01  -4.004560e+01
  -4.352698e+01  -1.638565e+02
   9.909815e+01  -1.458074e+02
   1.328950e+02  -1.340858e+01
   9.680657e+01   1.333415e+02
   3.845229e+00   7.930956e+01
  -2.254598e+01   6.957032e+01
   4.568385e+01  -5.312009e+00
  -2.219324e+00  -8.165038e+01
  -1.915858e+01  -4.482490e+01
   4.799186e+00  -1.680124e+01
  -2.943505e+01  -3.945233e+01
  -6.013835e+01  -4.169647e+01
   1.345182e+02  -5.799071e+01
   2.094857e+02  -5.066145e+00
   1.113951e+02   5.337252e+01
   8.129547e+00   6.197839e+01
  -7.344534e+01   8.799970e+01
  -8.822226e+01  -8.516565e+00
   5.513634e+00  -5.487293e+01
   7.958462e+01   1.016546e+01
   8.787140e+01   1.635985e+01
   9.665417e+00   9.266671e+01
  -2.442389e+01   9.502564e+01
  -7.858565e+00  -1.649372e+00
  -3.449383e+01  -3.589831e+01
  -2.651130e+01  -1.970139e+01
  -1.867366e+01   4.453084e+01
  -1.562008e-01  -2.513115e+01
  -5.351018e+01  -8.306344e+01
   2.783844e+01  -1.249261e+02
   1.105148e+02  -1.480533e+02
   1.266594e+02  -5.538172e+01
   1.109516e+02   1.348913e+02
   1.524024e+01   8.700373e+01
  -8.717774e+01   1.220504e+02
  -4.004166e+01   4.500142e+01
   2.903412e+01  -7.348600e+00
   1.137183e+02   4.880928e+01
   1.496917e+01   8.043599e+01
  -7.378643e+01   8.221388e+01
  -1.425301e+02   2.789795e+01
  -1.488256e+02  -1.174249e+01
  -7.766012e+01  -1.348234e+02
   5.080062e+01  -7.890924e+01
   2.124144e+01  -7.432396e+01
  -2.742426e+01   3.885754e+01
  -8.960935e+01  -4.192782e-01
  -2.272170e+01  -1.371292e+02
   6.616391e+01  -6.751289e+01
   1.521724e+02  -4.755928e+01
   5.539784e+01   8.616634e+01
   3.783842e+01   2.116675e+02
  -1.075348e+02   9.201624e+01
  -5.662916e+01  -1.952950e+01
  -2.281640e+01  -1.228429e+02
  -1.605185e+01  -7.311122e+01
   3.777390e+01   2.221220e+01
   1.952615e+01   1.467449e+01
   8.956235e+00   4.003532e+01
   1.216740e+01  -1.081481e+01
  -1.920631e+00   5.554923e+00
   2.688977e+01   9.846240e+01
   2.809946e+01   1.058916e+02
  -1.192875e+01   1.961539e+00
  -1.595727e+02  -7.505327e+01
  -7.140620e+01  -4.926830e+01
   1.672775e+01  -4.056776e+01
   3.293658e+01   1.353460e+01
   7.201488e+01  -2.028988e+01
  -2.878280e+01   4.641127e+01
  -3.757484e+01   4.847020e+01
  -2.775802e+01  -5.009438e+00
   4.214503e+01   2.462587e+01
  -4.886897e+01  -1.563774e+01
  -2.832844e+01   1.024410e+01
  -3.597029e+01  -2.819156e+01
   8.772457e+00  -5.105006e+01
   8.471454e+01  -1.046938e+02
   1.168562e+02  -4.143473e+00
   1.077132e+02   2.763272e+01
   3.828609e+01   1.756399e+02
  -7.987921e+01   9.965100e+01
  -1.137046e+02   6.483757e+01
  -4.493840e+01  -1.094819e+01
   1.326716e+00  -3.134510e+01
   3.825235e+01  -2.292049e+01
  -2.454967e+01  -1.106641e+01
  -5.498745e+01  -2.956451e+01
  -3.050666e+01  -4.823254e+01
  -5.269740e+00  -4.704934e+01
   7.103111e+01   6.023733e+01
   3.096249e+01   9.746359e+01
  -5.678312e+01   7.720240e+01
  -6.632528e+01  -3.051705e+00
  -1.006709e+02  -5.169642e+01
  -6.963452e+01  -1.314590e+02
   6.768863e+01  -5.240731e+01
   9.657381e+01  -4.023740e+00
  -1.925697e+00   4.910178e+01
  -3.277789e+01   3.905654e+01
  -6.937562e+00   9.965086e+01
   5.069655e+00   1.266628e+01
   3.137726e+01  -2.804904e+01
  -1.185863e+00   4.552681e+01
  -2.299863e+01   7.115909e+01
  -3.021136e+01   3.176983e+01
  -1.000378e+02   1.599839e+01
   3.260362e+01  -8.359137e+01
   3.966453e+01  -1.146612e+02
   5.630150e+01  -3.730215e+01
  -3.064772e+01   5.684064e+01
  -5.580002e+01   5.173425e+01
  -6.638730e+01  -4.122454e+00
  -3.044017e+00  -4.202581e+01
  -2.204201e+01   2.212976e+01
   1.971149e+01  -1.693184e+01
   1.839105e+01   3.808904e+01
   4.386369e+01  -3.097564e+01
   2.097941e+01  -7.520350e+00
   3.631249e+01   3.139959e+01
   8.207000e+01  -1.290478e+01
  -2.685062e+00  -7.187793e+00
  -2.249075e+01   1.202725e-01
  -4.714893e+01  -1.571978e+00
   1.520306e+01  -4.907117e+01
  -4.256316e+00  -7.396123e+01
   2.141049e+01   1.257884e+01
  -4.846078e+01   2.013921e+01
  -5.108095e+01   5.456351e+01
  -2.559569e+01  -1.738901e+01
  -4.109031e+01  -1.083981e+01
   4.431607e+01   2.410055e+01
   1.082123e+02  -8.314229e+00
  -3.417388e+01   3.588581e+01
  -2.298797e+01   1.417562e+01
  -3.856970e+01  -4.412202e+01
   1.307760e+01  -5.090645e+00
   2.973086e+01   2.092198e+01
