
 $NMID
 id='ANONYMOUS ', fmtdat='(2E16.6)'
 volume=1.0
 tramp=1.0
 $END
  -4.212756e+03   5.433505e+01
  -2.454618e+03  -2.586982e+03
   7.665161e+02  -2.694924e+03
   2.098257e+03  -8.173133e+02
   9.195110e+02   7.385499e+02
  -7.207723e+02   6.609242e+02
  -8.942555e+02  -4.504087e+02
   1.006364e+01  -1.066957e+03
   8.510745e+02  -7.762903e+02
   9.000672e+02   1.287253e+02
   4.243047e+02   8.375774e+02
  -2.214396e+02   8.411353e+02
  -6.151207e+02   1.141074e+02
  -3.750245e+02  -7.015327e+02
   2.420999e+02  -7.455991e+02
   6.057997e+02  -4.754878e+01
   2.313274e+02   6.950377e+02
  -3.386795e+02   6.116070e+02
  -5.861401e+02   4.479544e+01
  -3.442666e+02  -3.495809e+02
   1.677020e+01  -4.274575e+02
   2.749708e+02  -2.291888e+02
   2.771492e+02  -4.054450e+01
  -6.062587e+01   9.968322e+01
  -4.057552e+02  -9.882460e+01
  -2.044239e+02  -4.175063e+02
   4.245489e+02  -4.370729e+02
   8.386866e+02   4.168315e+01
   4.821276e+02   5.433609e+02
  -3.271413e+02   4.770788e+02
  -7.440448e+02   1.527090e+01
  -3.154704e+02  -5.039984e+02
   2.306304e+02  -5.408965e+02
   5.531802e+02  -2.013464e+02
   3.985377e+02   1.876624e+02
   5.876737e+01   4.878384e+02
  -1.857126e+02   3.323831e+02
  -2.152848e+02  -2.126032e+02
   1.668671e+02  -4.756891e+02
   4.582863e+02  -3.384705e+01
   2.872008e+02   6.330953e+02
  -3.261724e+02   6.600881e+02
  -6.111728e+02   9.182191e+00
  -2.582648e+02  -5.256226e+02
   2.671221e+02  -2.950010e+02
   3.653844e+02   3.493317e+02
  -7.708915e+01   5.211114e+02
  -5.525042e+02   1.451758e+02
  -5.440419e+02  -3.785703e+02
  -2.126515e+02  -5.765032e+02
   4.025549e+02  -3.440888e+02
   6.033757e+02   3.665339e-01
   3.803446e+02   3.954644e+02
  -1.475953e+02   3.480542e+02
  -4.523362e+02   3.745128e+01
  -2.872873e+02  -2.026375e+02
   1.572116e+02  -1.378577e+02
   1.731929e+02   1.638930e+02
  -1.432098e+02   1.932835e+02
  -3.388805e+02  -2.500512e+01
  -1.357414e+02  -3.132960e+02
   1.885255e+02  -2.892737e+02
   2.664500e+02  -9.777383e+01
   2.128628e+02   8.742788e+01
  -6.204625e+01   1.889928e+02
  -1.412131e+02   2.715436e+02
  -2.437826e+02   2.948439e+02
  -2.786188e+02  -1.030753e+02
  -7.901409e+01  -3.673986e+02
   5.988370e+01  -4.259320e+02
   1.227365e+02  -1.192362e+02
   3.538606e+01   2.824274e+00
   4.118286e+01  -6.134706e+01
   1.698663e+02  -1.585419e+02
   2.523655e+02   1.002478e+01
   1.742171e+02   2.286212e+02
  -3.990422e+01   2.365090e+02
  -1.925999e+02   3.692385e+01
  -2.112237e+02  -2.231390e+02
   1.258935e+01  -3.097154e+02
   1.993060e+02  -7.920396e+01
   3.191816e+02   1.065476e+02
   1.151671e+02   3.094595e+02
  -1.235119e+02   3.253209e+02
  -2.696558e+02   9.147165e+01
  -1.890177e+02  -1.059916e+01
  -6.052371e+01   3.542546e+01
  -1.971090e+02   2.615511e+01
  -3.517010e+02  -2.653030e+01
  -3.348126e+02  -2.131282e+02
   4.612779e+01  -4.211405e+02
   3.288077e+02  -3.479175e+02
   4.237474e+02  -1.909840e+02
   2.974078e+02   2.715810e+01
   6.493044e+01   2.405480e+02
  -1.216296e+02   2.365459e+02
  -7.806691e+01   3.139577e+01
   8.847868e+01  -5.828248e+01
   1.566702e+02  -2.394284e+01
   8.801698e+01   2.049056e+02
  -1.755727e+02   2.219993e+02
  -1.760328e+02  -1.943253e+01
  -1.861695e+00  -1.389394e+02
   1.397531e+02  -5.143739e+01
   1.632434e+02   2.498302e+02
  -4.098449e+01   3.488957e+02
  -2.149571e+02   1.982004e+02
  -2.876521e+02  -8.640719e+01
  -2.516643e+02  -2.139664e+02
  -8.986174e+01  -2.881764e+02
   1.505944e+02  -1.482522e+02
   1.259738e+02  -3.724492e+01
   2.079930e+01   3.026743e+01
  -8.015912e+01  -5.785142e+01
  -7.312841e+01  -2.253357e+01
   9.512332e+01  -1.084844e+02
   1.633749e+02   8.812987e+00
   6.094489e+01   2.080433e+01
  -4.761513e+01  -7.678801e+00
  -9.378669e+01  -1.384291e+01
   9.334598e+01  -7.462227e+01
   2.677197e+02  -2.593404e+01
   2.671961e+02   1.054267e+02
   8.823621e+01   1.948525e+02
  -1.406080e+02   2.426887e+02
  -2.880106e+02   1.354335e+02
  -1.710587e+02  -5.978071e+01
   1.061967e+01  -1.023148e+02
   9.088864e+01  -9.674115e+00
   5.866605e+00   9.912005e+01
  -1.920844e+02   1.167970e+02
  -2.209253e+02  -6.174011e+01
  -8.537849e+01  -1.362262e+02
   8.093865e+01  -1.954004e+02
   1.573936e+02  -4.495358e+01
   9.157159e+01   4.716096e+00
   3.856220e+01   4.905567e+01
  -6.061271e+01  -7.664925e+01
   1.950147e+01  -5.663502e+01
   1.646113e+02  -7.204501e+01
   1.636947e+02   8.497532e+01
   7.411287e+01   1.902160e+02
  -1.273458e+02   1.737809e+02
  -1.836554e+02   7.516585e+00
  -8.054843e+01  -1.113949e+02
   1.513290e+02  -1.385060e+02
   3.490054e+01  -4.385297e+01
   1.488922e+01   2.068495e+01
  -2.622300e+01   2.604699e+01
   7.268414e+01   4.737467e-01
   9.092363e+00  -1.667048e+01
   1.301442e+02   8.088456e+01
  -7.363982e+00   1.461960e+02
  -1.254669e+02   1.622818e+02
  -2.333387e+02   2.650908e+01
  -2.128856e+02  -1.255518e+02
  -3.719367e+01  -2.607663e+02
   7.697743e+01  -1.442667e+02
   1.263528e+02  -3.796396e+01
   8.128699e+01   2.243492e+01
   6.179040e+01  -2.325928e+01
   3.771561e+01   1.886923e+01
   6.242629e+01  -7.767313e+00
   1.438170e+01   4.380559e+01
  -4.604844e+01   9.478642e+01
  -4.320762e+01   5.191716e+01
  -6.034897e+01  -8.043857e+00
   3.426845e+01  -9.229611e+01
   5.136776e+01  -1.101895e+02
   1.474263e+02   7.140103e+01
   1.158575e+02   1.936108e+02
  -9.993827e+01   2.644533e+02
  -2.288575e+02   1.338590e+02
  -2.708740e+02  -6.678452e+01
  -9.029761e+01  -1.547098e+02
   6.860631e+01  -8.372836e+01
  -1.044884e+01  -3.982282e+01
   5.462666e+01  -9.093042e+01
   3.525006e+01  -6.615123e+01
   4.988678e+01  -5.356833e+01
   7.396789e+01   4.395435e+01
   1.116867e+02   1.056427e+02
   2.323344e+01   2.023565e+02
  -5.793149e+01   1.429785e+02
  -1.380213e+02   1.106214e+01
  -1.637988e+02  -9.239208e+01
  -7.082709e+01  -1.898457e+02
   6.002740e+01  -8.617837e+01
   9.072880e+01   1.586444e+01
   2.421974e+01   4.589075e+01
  -1.037386e+01   1.848093e+01
   2.424227e+01   8.371555e+00
   8.511214e+01  -1.188229e+01
   6.782465e+01   3.679782e+01
  -4.201669e+01   5.083427e+01
  -1.662333e+02   1.689226e+01
  -1.283014e+02  -3.766930e+01
  -2.497316e+01  -5.144717e+01
   7.082332e+01  -7.919386e+00
   1.395969e+02  -5.467889e+00
   2.021435e+01   3.552772e+01
  -3.163456e+01   3.962033e+01
  -6.551328e+01   3.871744e+01
   2.894408e+00  -5.486701e+01
   1.008696e+02   6.687164e+00
   2.608974e+01  -4.516407e+01
   3.611039e+01   6.076360e+01
  -4.128312e+00   2.272823e+01
   3.579180e+01  -2.605896e+01
   1.451997e+01   1.567670e+01
   2.619670e+01   7.855395e+01
  -2.550413e+01   1.512828e+02
  -1.016694e+02   1.310041e+02
  -1.321292e+02   6.519408e+01
  -9.624153e+01  -1.497950e+02
  -1.858730e+01  -1.091211e+02
   6.821042e+01  -5.279289e+01
   5.803323e+01  -2.909881e+01
  -3.360588e+01   8.568906e+00
  -1.174809e+02  -2.559524e+01
  -6.868634e+01  -1.451766e+02
   9.202668e+01  -9.605408e+01
   1.433333e+02  -5.224189e+01
   2.013140e+02  -3.115676e+01
   1.793448e+01   1.066398e+02
  -5.076554e+01   6.407611e+01
  -4.291763e+01  -9.102883e+00
   1.234514e+01  -3.967428e+01
   4.405872e+01   3.393283e+01
   6.476012e+01   8.446870e+01
  -8.926611e+01   1.591245e+02
  -1.752253e+02   1.022694e+02
  -1.177897e+02  -7.800697e+01
   1.362005e+00  -1.624054e+02
   8.577467e+01  -1.157422e+02
   1.016832e+02  -2.411881e+01
  -1.060879e+01   1.245183e+02
  -1.683690e+01   8.861461e+01
  -4.760875e+01  -3.984894e+00
  -6.602839e+01  -1.957005e+01
  -5.176401e+01  -9.518722e+00
  -3.046748e+01  -1.557653e+01
   2.204489e+00  -2.299345e+00
  -4.610889e+01  -1.133029e+02
  -2.954357e+01  -1.111203e+02
   5.480343e+01  -1.932332e+01
   1.502901e+02   3.219957e+01
   1.299757e+02   5.935849e+01
   9.245672e+00   5.712727e+01
  -6.775160e+01  -4.062252e+01
  -1.176124e+02   1.338760e+01
  -4.503607e+01   2.869981e+01
   3.417568e+01  -2.179903e+01
   1.243710e+01   3.133545e+01
   3.971408e+01  -2.917260e+01
  -2.244020e+01  -4.094151e+01
   6.648154e+01  -1.922271e+01
   5.785954e+01  -4.319548e+00
  -7.831771e+01   6.701158e+01
  -9.525989e+01   9.463046e+01
  -1.733857e+02   3.697958e+01
  -1.155752e+02  -7.434290e+01
  -3.101071e+01  -1.397348e+02
   6.119180e+01  -1.503782e+02
   8.583797e+01  -7.115794e+01
   1.110522e+02  -4.575141e+01
   5.368939e+01   6.377043e+00
   1.910749e+01  -4.703181e+01
   1.296185e+01  -4.486886e+01
  -1.047404e+01  -8.224489e+00
  -4.406034e+00   4.585117e+01
  -7.106906e+01   8.418979e+01
  -8.231157e+01  -4.849054e+01
  -1.326293e+02  -9.258117e+01
  -2.020973e+01  -9.468871e+01
   1.088316e+02  -7.316100e+01
   1.050588e+02   4.877077e+01
   2.575766e+01   9.872688e+01
  -7.262610e+01  -1.606067e+01
  -8.990789e+01   2.600048e+01
  -8.503205e+01  -7.978328e+01
   5.786502e+01  -5.747984e+01
   1.699094e+01  -6.119448e+01
  -2.412563e+01  -2.114898e+01
  -8.300459e+01   9.578651e+00
  -1.473999e+01  -7.008285e+00
   1.139875e+02  -3.590705e+01
   1.113113e+02  -8.250019e+01
   8.215125e+01   3.189337e+01
  -4.269257e+01   4.012805e+01
  -6.949846e+01   7.063824e+01
   2.411791e+01  -1.064523e+01
  -5.404056e+01  -6.549451e+01
  -6.872427e+01  -2.705527e+01
   2.211907e+01   1.788183e+01
   2.274211e+01   4.315760e+01
   2.690058e+01   5.588426e+01
  -2.722307e+01  -2.074015e+00
  -5.639609e+01  -5.812833e+00
  -5.834623e+01  -4.413067e+01
  -2.282387e+01   3.349989e+01
   2.603184e+01  -6.329209e+00
  -1.593220e+00  -8.303599e+00
   1.553493e+01   4.472599e-01
   3.743060e+01  -8.323702e+00
   8.030129e+01   4.750189e+01
  -8.517784e+00   1.181502e+02
   8.013498e+00   2.071521e+01
  -8.879039e+01  -8.200800e+01
   2.187831e+00  -6.884938e+01
   5.968891e+01  -6.532958e+01
   1.078195e+02  -1.242794e+01
   5.423570e+01  -2.930016e+01
  -2.604137e+01   2.887740e+01
  -5.613961e+01   4.878727e+00
  -3.167782e+01   7.647023e+00
   2.393923e+01  -2.197891e+01
   7.744296e+00   3.255688e+01
  -1.869215e+01   5.136253e+01
  -7.525276e+01   7.539203e+00
