
 $NMID
 id='ANONYMOUS ', fmtdat='(2E16.6)'
 volume=1.0
 tramp=1.0
 $END
  -4.597310e+03  -2.540362e+01
  -2.538803e+03  -2.848612e+03
   9.105002e+02  -2.837065e+03
   2.254340e+03  -8.010259e+02
   9.209541e+02   8.633438e+02
  -7.555407e+02   6.261478e+02
  -9.687472e+02  -5.229056e+02
   1.774489e+01  -1.184813e+03
   9.302654e+02  -7.782077e+02
   1.001129e+03   1.899429e+02
   4.853992e+02   9.524183e+02
  -3.502945e+02   9.078096e+02
  -6.900641e+02   7.076605e+01
  -4.644349e+02  -7.808097e+02
   3.169666e+02  -8.270433e+02
   6.549493e+02  -2.086498e+01
   2.452604e+02   7.367763e+02
  -4.143326e+02   6.883304e+02
  -5.967869e+02   3.592205e+01
  -3.711911e+02  -3.994605e+02
   1.183451e+01  -4.662568e+02
   2.764835e+02  -2.420409e+02
   2.675927e+02  -2.408981e+01
  -9.983797e+01   1.201372e+02
  -4.545558e+02  -7.830561e+01
  -2.232490e+02  -4.483181e+02
   4.875746e+02  -4.904862e+02
   9.039297e+02   3.776896e+01
   4.771145e+02   6.410499e+02
  -4.141207e+02   5.698221e+02
  -7.632677e+02  -8.642990e+01
  -3.356335e+02  -5.285120e+02
   3.119871e+02  -5.516302e+02
   5.558787e+02  -2.685081e+02
   3.914810e+02   2.378843e+02
   7.912385e+01   5.258297e+02
  -1.817521e+02   2.276761e+02
  -2.303439e+02  -2.534949e+02
   1.876057e+02  -4.514260e+02
   4.674821e+02   2.466883e+01
   3.085743e+02   7.564650e+02
  -3.600056e+02   7.587838e+02
  -6.610087e+02  -2.286101e+01
  -2.734836e+02  -5.558930e+02
   3.145424e+02  -3.397658e+02
   4.236630e+02   3.706175e+02
  -8.862596e+01   6.054758e+02
  -5.745033e+02   1.660717e+02
  -6.084502e+02  -4.095653e+02
  -1.712431e+02  -6.170507e+02
   4.328587e+02  -3.740022e+02
   6.293454e+02   1.415717e+02
   3.660518e+02   3.793652e+02
  -2.026348e+02   4.035280e+02
  -4.687036e+02   6.668400e+01
  -2.710317e+02  -2.404217e+02
   1.809009e+02  -1.314026e+02
   1.659166e+02   1.350981e+02
  -1.171331e+02   1.635386e+02
  -2.968412e+02  -8.978425e+01
  -9.069332e+01  -2.672020e+02
   2.638850e+02  -2.885237e+02
   2.544641e+02  -4.277122e+01
   1.668270e+02   7.224367e+01
  -7.190942e+01   2.299578e+02
  -2.262371e+02   2.922946e+02
  -2.903686e+02   2.179027e+02
  -3.336813e+02  -1.298476e+02
  -5.375477e+01  -4.192783e+02
   1.038866e+02  -4.105363e+02
   1.000255e+02  -1.159153e+02
   1.833171e+01   3.716528e+01
  -3.117015e+01  -1.301637e+02
   1.602276e+02  -1.718662e+02
   2.690726e+02   2.664169e+01
   1.799200e+02   2.816492e+02
  -5.030071e+01   2.720297e+02
  -2.267237e+02   3.732696e+01
  -1.879888e+02  -2.676114e+02
   1.120175e+01  -3.189936e+02
   2.306319e+02  -1.487903e+02
   3.816903e+02   1.921048e+02
   2.001351e+02   3.777419e+02
  -7.436037e+01   3.060184e+02
  -2.610516e+02   1.094107e+02
  -1.338925e+02  -2.253129e+01
  -8.730018e+01   1.325984e+00
  -2.052289e+02   1.091876e+02
  -3.809458e+02  -2.597072e+01
  -3.525249e+02  -2.990411e+02
   1.396381e+01  -4.781083e+02
   3.169448e+02  -4.293185e+02
   5.107392e+02  -2.380560e+02
   3.256989e+02   7.706487e+01
   3.404584e+01   2.492999e+02
  -1.430462e+02   2.539565e+02
  -1.254019e+02   2.774248e+01
   1.013149e+02  -1.140410e+02
   1.751113e+02   2.161265e+01
   4.410038e+01   1.780306e+02
  -1.294194e+02   1.668043e+02
  -1.891183e+02  -3.281134e+01
   1.241615e+01  -1.539980e+02
   2.251739e+02  -3.730449e+01
   1.979182e+02   2.806568e+02
  -3.244502e+01   3.380376e+02
  -2.278056e+02   1.700626e+02
  -3.068701e+02  -6.174825e+01
  -2.490359e+02  -1.907641e+02
  -1.417349e+02  -2.383591e+02
   1.151693e+02  -2.169801e+02
   2.324103e+02  -2.558037e+01
   5.208173e+01   2.306301e+01
  -1.381983e+02   1.515084e+00
  -6.539047e+01  -1.510700e+02
   8.791552e+01  -1.353200e+02
   1.707260e+02  -3.856527e+01
   9.039786e+01   4.845600e+01
  -9.014148e+01   6.830308e+01
  -4.353986e+01  -5.208898e+01
   1.401607e+02  -8.781823e+01
   2.253707e+02  -2.308062e+01
   2.482932e+02   1.592134e+02
   4.169898e+01   2.590375e+02
  -1.838171e+02   2.532735e+02
  -2.733998e+02   1.783164e+02
  -1.932308e+02  -6.285250e+01
   7.974415e+00  -1.268136e+02
   7.006435e+01   1.654443e+01
  -4.660125e+01   7.725892e+01
  -2.337979e+02   7.378342e+01
  -2.141055e+02  -1.464526e+02
  -5.933217e+01  -1.232074e+02
   8.738376e+01  -1.876055e+02
   1.264833e+02  -5.452250e-01
   5.653888e+01   6.544777e+01
  -4.955161e+01  -1.198389e+01
  -4.630072e+01  -9.402928e+01
   1.030740e+02  -7.988410e+01
   1.584502e+02  -3.565328e+01
   2.305239e+02   1.137485e+02
   3.223787e+01   1.882626e+02
  -1.599385e+02   1.622293e+02
  -1.944162e+02   6.994076e+01
  -7.615031e+01  -1.749024e+02
   9.871708e+01  -1.074493e+02
   1.352188e+02  -2.663061e+01
   3.876503e+01   1.010640e+01
  -3.630723e+01   5.038529e+01
   4.011362e+01  -4.227953e+01
   9.725836e+01  -5.817165e+01
   4.878669e+01   8.264183e+01
   6.442688e+00   1.206865e+02
  -1.291185e+02   1.499924e+02
  -2.657310e+02   3.426408e+01
  -2.356600e+02  -1.030322e+02
  -5.971102e+01  -2.472843e+02
   1.909709e+02  -1.159939e+02
   1.640331e+02  -3.318539e+01
   8.469785e+01   1.920754e+01
   2.576660e+01   4.852555e+01
  -1.485478e+00  -3.335701e+01
   1.118404e+02  -3.140737e+00
   8.695345e+01   2.190781e+01
  -4.749472e+00   1.299256e+02
  -1.183427e+02   3.435563e+00
  -1.478020e+01  -3.918969e+01
   5.679019e+01  -7.842544e+01
   1.115819e+02  -6.066795e+01
   2.564615e+02   4.175940e+01
   1.375910e+02   1.545893e+02
  -1.352085e+02   1.855738e+02
  -2.356853e+02   1.297531e+02
  -2.809445e+02  -6.881334e+01
  -1.514384e+02  -1.921007e+02
   3.746502e+01  -1.634637e+02
   1.141959e+02  -6.649600e+01
   1.184355e+02  -6.808103e+01
   5.384902e+01  -9.002853e+01
   3.024449e+01  -1.133955e+02
   1.293617e+02   2.495312e+01
   1.471768e+02   6.593984e+01
  -2.021501e+01   2.740436e+02
  -1.713652e+02   1.945793e+02
  -1.753728e+02   1.479552e+01
  -1.286326e+02  -9.697565e+01
  -6.227890e+01  -1.885766e+02
   6.395211e+01  -1.125266e+02
   7.482296e+01   6.144910e+00
   7.696968e+00   8.638982e+01
  -3.447654e+00   5.236260e+01
   5.538338e+00   4.873201e+01
   1.080738e+02   2.511189e+00
   4.019144e+01   5.588350e+01
  -3.615872e+01   8.206891e+01
  -2.091531e+02  -3.233099e+01
  -1.858425e+02  -5.730808e+01
  -5.396386e+00  -3.441270e+01
   1.677783e+02  -7.344721e+01
   1.642940e+02  -1.830579e+01
   5.778341e+01   4.938510e+01
  -5.580375e+01   2.200111e+01
  -7.954652e+01  -4.681955e+01
   2.152362e+01  -5.113596e+01
   2.462754e+01  -6.605838e+01
   5.222433e+01   5.467940e+01
  -1.500561e+01   5.118233e+01
   1.204393e+01   2.679077e+01
   8.056297e+01   2.486328e+01
   1.069588e+02  -1.087768e+01
   2.807735e+01   1.056284e+02
  -4.900616e+01   1.193495e+02
  -1.491324e+02   1.242992e+02
  -1.245936e+02   6.691204e+00
  -1.773553e+02  -1.291220e+02
  -3.782695e+01  -1.161124e+02
   5.865751e+01  -8.542469e+01
   3.613604e+01   3.644493e+01
  -5.759234e+01   4.116789e+01
  -7.770304e+01  -4.569219e+01
  -8.021666e+01  -5.944407e+01
   5.889466e+01  -6.884752e+01
   2.043774e+02  -2.955787e+01
   1.843502e+02   8.997535e+00
   3.100190e+01   1.192515e+02
  -7.264455e+01   5.467020e+01
  -5.160896e+01  -2.509074e+01
   6.961321e+01  -2.209557e+01
   5.693633e+01   6.417761e-01
   4.261870e+00   1.556812e+02
  -1.485605e+02   1.443263e+02
  -1.687130e+02   3.791837e+01
  -1.304346e+02  -1.008797e+02
  -8.348186e+00  -1.609139e+02
   4.965140e+01  -1.240756e+02
   1.061294e+02  -1.971686e-01
   6.457656e+01   1.364628e+02
  -2.062807e+01   6.000803e+01
  -7.829031e+01   3.585620e+01
  -5.147908e+01  -1.812579e+01
  -3.226483e+01   1.189902e+00
   1.751379e+01   1.017741e+02
  -2.884799e+01   1.599681e+01
  -7.013798e+01  -1.261493e+02
  -5.543397e+00  -1.326782e+02
   1.368022e+01  -5.915261e+01
   1.861145e+02   2.016237e+01
   1.087620e+02   1.201690e+02
   2.356545e+01   4.653223e+01
  -9.425658e+01   2.395748e+01
  -7.273925e+01  -2.126127e+01
   3.496390e+01  -6.827040e+01
   4.361148e+01  -4.853974e+01
  -9.552514e+00  -2.306453e+00
  -4.471323e+01  -2.414863e+01
  -1.346140e+01  -1.046590e+01
   9.380090e+01   6.960918e+00
   1.222886e+02  -2.083499e-01
  -4.316040e+01   8.900782e+01
  -1.186470e+02   1.276516e+02
  -1.804857e+02   3.340511e+01
  -1.746627e+02  -7.842385e+01
  -2.459497e+01  -1.477048e+02
   9.083726e+01  -1.629256e+02
   1.148676e+02  -9.884830e+01
   5.554397e+01  -2.757382e+01
   9.779667e+00   4.274193e+01
  -3.877434e+00   2.541064e+01
  -2.442924e+01  -1.719326e+00
   1.469747e+01   8.335208e+01
   2.076274e+01   1.358757e+02
  -3.107739e+01   1.050690e+02
  -1.029383e+02  -2.513192e+01
  -5.841855e+01  -8.658272e+01
   1.446478e+01  -6.806030e+01
   4.530573e+01  -2.454919e+01
   9.744859e+01   1.053837e+02
   2.075103e+01   7.782624e+01
  -6.239133e+01   2.342323e+01
  -1.176335e+02  -3.343429e+01
  -7.196512e+01  -5.929417e+01
   1.283254e+01  -6.009590e+01
   3.350062e+01   1.341119e+00
  -6.422210e+01  -2.518921e+01
  -6.628229e+01  -1.298215e+01
   2.607168e+00  -7.884907e+01
   9.024180e+01  -7.626239e+01
   1.093987e+02  -5.205489e+01
   8.968723e+01   2.077849e+01
  -2.566206e+01   7.989967e+01
  -5.373351e+00   4.338934e+01
  -1.124824e+01  -2.760301e+01
   2.800114e+01  -2.997767e+01
   7.033261e+01  -5.056985e+01
   7.766032e+01   3.362812e+01
   5.822993e+01   1.012717e+02
   2.374229e+01   3.621741e+01
   5.624975e+00   1.639014e+01
  -5.934327e+01  -3.581519e+01
  -8.516955e+00   7.461324e+00
   7.467937e+01  -3.074067e+01
   5.535960e+01   2.584815e+01
  -6.324883e-01  -4.566629e+01
   3.982951e+01  -4.512673e+01
   6.341860e+00  -3.280482e+00
   4.541489e+01   1.137724e+01
  -3.663435e+01   3.520841e+01
  -6.454941e+01   1.714354e+00
  -2.486578e+01  -5.845508e+01
  -2.384771e+01  -5.287385e+01
   1.009981e+02  -6.826581e+01
   4.219370e+01   2.118518e+01
   5.454683e+01   3.306053e+01
  -4.831700e+01   4.414660e+00
  -1.699557e+01   5.118983e+01
  -2.468860e+01  -3.503973e+01
   6.304826e+00   8.078380e+00
   4.699688e+01   2.001667e+01
  -5.805494e+01   4.542628e+01
  -7.401442e+01   2.007825e+01
