
 $NMID
 id='ANONYMOUS ', fmtdat='(2E16.6)'
 volume=1.0
 tramp=1.0
 $END
   4.696105e+03  -7.626894e+00
   2.724744e+03   2.853493e+03
  -8.763009e+02   2.969401e+03
  -2.334345e+03   8.693720e+02
  -9.797616e+02  -8.067448e+02
   7.573735e+02  -6.335162e+02
   1.005617e+03   5.457343e+02
  -7.196974e+01   1.179113e+03
  -9.403106e+02   8.406976e+02
  -9.953464e+02  -1.359991e+02
  -3.937644e+02  -9.675358e+02
   2.497662e+02  -9.555030e+02
   6.912341e+02  -9.915852e+01
   4.507216e+02   7.880520e+02
  -2.726038e+02   8.303385e+02
  -6.470493e+02   4.152775e+01
  -2.908282e+02  -7.590317e+02
   3.942109e+02  -6.437089e+02
   6.670571e+02  -4.206110e+01
   3.778348e+02   3.877929e+02
  -3.448187e+01   4.684247e+02
  -2.787198e+02   3.095405e+02
  -2.294978e+02   1.576427e+01
   1.424296e+02  -1.018075e+02
   4.959409e+02   8.866342e+01
   2.057077e+02   4.404948e+02
  -4.642251e+02   4.874634e+02
  -8.976999e+02  -1.261461e+01
  -4.332111e+02  -5.349333e+02
   4.139491e+02  -4.787219e+02
   8.292153e+02   2.419571e+01
   3.689215e+02   5.755533e+02
  -3.585977e+02   5.693767e+02
  -5.280076e+02   1.869444e+02
  -4.123318e+02  -2.659379e+02
  -8.832341e+01  -5.287917e+02
   2.271258e+02  -3.164835e+02
   2.353515e+02   2.437856e+02
  -1.640959e+02   5.210594e+02
  -5.790444e+02  -2.889913e+01
  -2.701581e+02  -7.407304e+02
   3.380881e+02  -7.736419e+02
   6.813849e+02  -1.174714e+01
   3.431755e+02   6.007204e+02
  -2.948165e+02   3.475014e+02
  -4.078815e+02  -3.694740e+02
   7.277616e+01  -5.701196e+02
   5.997767e+02  -1.794566e+02
   6.192536e+02   4.118120e+02
   1.849032e+02   6.082222e+02
  -4.056954e+02   3.512529e+02
  -7.019612e+02  -6.407861e+01
  -3.989864e+02  -4.570643e+02
   1.985919e+02  -3.831487e+02
   4.869957e+02  -2.916197e+01
   2.604330e+02   2.784982e+02
  -1.449788e+02   1.130810e+02
  -1.753209e+02  -1.632154e+02
   1.623824e+02  -1.865443e+02
   3.993934e+02   8.813423e+01
   1.291866e+02   3.191719e+02
  -2.539690e+02   2.432582e+02
  -3.992318e+02   8.721513e+01
  -1.925060e+02  -8.879407e+01
   1.411268e+01  -1.848421e+02
   2.004568e+02  -3.005927e+02
   3.345126e+02  -2.484745e+02
   3.373497e+02   1.138654e+02
   5.219606e+01   4.147903e+02
  -1.154088e+02   3.609087e+02
  -1.485570e+02   1.600301e+02
  -6.417629e+01  -4.254201e+01
  -4.161418e+01   1.007737e+02
  -2.194007e+02   1.361314e+02
  -2.366752e+02  -3.440441e+01
  -2.035239e+02  -2.581855e+02
   6.341511e+01  -2.565359e+02
   2.528249e+02  -4.649082e+01
   2.647551e+02   3.039305e+02
   1.439466e+01   3.283179e+02
  -2.337608e+02   1.648532e+02
  -4.041861e+02  -2.451263e+02
  -2.110310e+02  -3.652894e+02
   1.201316e+02  -3.271587e+02
   2.436520e+02  -1.554268e+02
   1.697241e+02   3.309076e+01
   1.120295e+02  -5.096311e+01
   3.037413e+02  -7.273702e+01
   3.818770e+02   5.559841e+01
   3.749127e+02   2.498670e+02
   1.471217e+01   4.324780e+02
  -3.536447e+02   4.493433e+02
  -5.098536e+02   1.826484e+02
  -3.681327e+02  -7.188228e+01
  -1.008125e+02  -2.947552e+02
   1.792205e+02  -2.679287e+02
   9.117063e+01  -4.026975e+01
  -9.992917e+01   1.413689e+02
  -2.216808e+02   2.467397e+01
  -2.608068e+01  -2.264166e+02
   1.161729e+02  -1.727948e+02
   1.930097e+02   2.390800e+01
  -5.711148e+01   2.355214e+02
  -2.040170e+02  -2.456982e+01
  -1.428057e+02  -2.939290e+02
   3.417763e+01  -3.438113e+02
   2.512774e+02  -1.976651e+02
   3.315607e+02   6.961470e+01
   2.585528e+02   2.474225e+02
   8.489975e+01   2.799335e+02
  -3.853669e+01   1.711864e+02
  -2.168373e+02   2.779962e+01
  -7.218427e+01  -4.573192e+00
   5.144904e+01  -1.699674e+01
   1.226980e+01   1.752802e+02
  -1.265475e+02   9.845031e+01
  -1.922634e+02  -2.188522e-01
  -5.622800e+01  -1.245499e+02
   5.279369e+01   1.248643e+01
   6.782379e+01   4.705905e+01
  -1.500138e+02   1.067043e+02
  -3.157686e+02  -1.140294e+01
  -2.850027e+02  -1.601993e+02
  -8.755518e+01  -2.309852e+02
   1.702580e+02  -2.915760e+02
   2.755786e+02  -1.072904e+02
   1.773613e+02   6.324476e+01
  -4.029142e+01   9.893314e+01
  -8.793208e+01   1.837807e+01
   8.851990e-01  -1.038180e+02
   2.029033e+02  -1.115009e+01
   2.246110e+02   1.282282e+02
   1.480334e+02   2.083813e+02
  -6.940888e+01   1.172838e+02
  -1.291579e+02   5.248818e+01
  -4.994371e+01  -3.843800e+01
   6.116820e+01   9.808578e+00
   5.058752e+01   1.193520e+02
  -1.074446e+02   1.168014e+02
  -1.437979e+02   6.486806e+01
  -2.136389e+02  -1.331833e+02
  -2.609307e+01  -2.624155e+02
   1.403960e+02  -1.854324e+02
   1.934780e+02   2.292201e+01
   4.835455e+01   1.252626e+02
  -2.318380e+01   1.004659e+02
  -8.528965e+01   5.382359e+01
   2.893080e+01  -5.001429e+01
   4.058657e+01  -6.180161e+01
  -7.365844e+01   4.253194e+01
  -1.078750e+02  -4.171041e+01
  -5.494633e+01  -5.009269e+01
  -7.731057e+00  -1.609420e+02
   7.560502e+01  -1.913498e+02
   2.492129e+02  -3.932175e+01
   1.742812e+02   1.004404e+02
  -5.503442e+00   2.456383e+02
  -1.228392e+02   1.638290e+02
  -1.771847e+02   3.399674e+01
  -8.558866e+01  -8.473501e+01
  -6.981397e+01  -2.564462e+00
   8.199373e+00   3.741877e+01
  -5.568797e+01   2.591867e+01
   3.794021e+00  -2.202591e+01
   3.938476e+01  -5.862663e+01
   7.677565e+01  -4.346964e+01
   8.928124e+01   5.036528e+01
   1.475103e+01   1.377496e+02
  -9.409958e+01   1.115449e+02
  -2.128176e+02  -3.884336e+01
  -1.209213e+02  -1.566464e+02
   9.494956e+01  -2.640844e+02
   2.641335e+02  -8.680797e+01
   2.891097e+02   9.804141e+01
   1.386801e+02   1.607700e+02
  -2.792312e+01   1.872128e+02
  -1.076011e+02   1.029037e+02
  -6.884000e+01   7.916624e+01
  -6.996616e+01   1.086635e+02
  -9.275506e+01   1.123157e+02
  -1.573505e+02  -1.124040e+01
  -1.427238e+02  -1.299702e+02
  -2.226408e+01  -1.835784e+02
   1.087253e+02  -1.879177e+02
   2.003843e+02  -5.324120e+01
   1.715805e+02   6.931173e+01
  -6.817388e+00   1.810934e+02
  -3.964403e+01   9.856438e+01
  -1.594858e+01   9.394443e+00
   1.801146e+01  -3.664315e+01
   4.613560e+00   1.846327e+01
  -4.608180e+01   1.490479e+01
  -8.415704e+01  -5.584829e+01
  -9.219341e+00  -1.929200e+01
   4.803350e+01  -2.879082e+01
   9.625605e+01   2.203685e+01
   1.746419e+02   2.252552e+01
  -4.193275e+01   1.475489e+02
  -9.554571e+01   6.488642e+01
  -1.001728e+02   9.742544e+01
  -9.919703e+01  -1.223752e+01
   6.089317e+01  -3.647902e+01
   4.059556e+01   5.254239e+01
  -1.213175e+00   7.664694e+01
  -6.559133e+01   9.373986e+00
  -7.192609e+01  -6.220912e+01
  -3.275641e+01   3.364502e+01
  -7.306864e+01  -6.350465e+01
  -6.696505e+01   6.636920e+01
  -4.568958e+01   5.496007e+01
  -3.533518e+01  -2.662924e+01
   3.421440e+01  -1.934021e+02
   1.004950e+02  -1.454985e+02
   1.248807e+02  -1.077195e+01
   1.238094e+02   1.226446e+02
  -5.395442e+00   5.978144e+01
  -1.229855e+02   6.884710e+01
  -2.245895e+01  -1.881906e+00
   6.452061e+01  -6.354503e+01
   1.703760e+02   1.835040e+01
   1.095941e+02   1.391835e+02
  -4.109537e+01   4.037028e+01
  -1.947744e+02   5.882472e+01
  -1.898330e+02  -2.284898e+01
  -2.613306e+01  -8.133268e+01
   3.787627e+01  -1.271881e+02
   6.163971e+01  -4.137613e+01
  -2.945805e+01  -1.262535e+01
  -6.014637e+01  -3.510263e+01
  -5.728525e+00  -7.865631e+01
   5.341699e+00  -1.380398e+02
   1.661185e+02  -6.913500e+01
   1.216140e+02   1.083217e+02
   2.747813e+00   1.361657e+02
  -7.982654e+01   1.393245e+02
  -1.164270e+02  -3.243543e+01
  -4.406432e+01  -1.678403e+02
  -3.699358e+01  -1.201805e+02
   6.700895e+01  -3.183850e+01
   5.722325e+01   4.272292e+01
   2.872469e+01   1.111705e+01
  -1.184003e+01  -1.870737e+01
   3.539843e+01   2.170505e+01
   4.469363e+01   1.020775e+02
   1.132541e+02   8.614516e+01
  -6.517747e+01   1.651355e+01
  -1.629798e+02  -1.994031e+01
  -1.452100e+02  -4.598929e+01
  -4.532453e+01  -3.094317e+01
   1.007898e+02  -1.972515e+01
   1.066630e+02   8.978481e+01
   2.140211e+01   1.939400e+01
  -6.656242e+01   6.211750e+01
   1.710760e+01  -1.909766e+01
   5.433430e+01   5.414047e+00
   2.793017e+01  -6.238748e+01
  -9.308551e+01  -2.015352e+01
  -9.128082e+01  -4.720575e+01
  -4.620431e+01  -6.496162e+01
   1.003957e+02  -1.709111e+02
   1.744606e+02  -8.829502e+01
   1.609648e+02   8.665994e+01
   1.496554e+01   1.658561e+02
  -9.072806e+01   1.622593e+02
  -8.916762e+01   3.927646e+01
  -5.911367e+01   9.496344e+00
   6.763156e+00  -9.198083e+01
  -1.118051e+01   4.580050e+01
  -2.589458e-01  -1.143641e+01
  -2.669638e+01  -6.640380e+01
   2.991181e+01  -8.097375e+01
   4.671402e+00  -5.316006e+01
   7.708406e+01   2.824962e+01
   6.305338e+01   1.753566e+02
   2.461887e+01   8.075811e+01
  -6.790925e+01   5.359835e+01
  -1.406254e+02  -5.172293e+01
   8.432183e+00  -9.988408e+01
   5.281123e+01  -3.010175e+01
   9.172717e+01  -1.978888e+01
   2.442850e+01   4.921051e+01
  -7.055506e+01   1.312725e+02
  -2.754050e+01   2.825441e+01
   7.472198e+01  -4.826644e+00
   7.195807e+01   2.778141e+01
  -9.603876e+00   9.036450e+01
  -7.268123e+01   5.962206e+01
  -9.119751e+01   7.898215e+01
  -7.639665e+01   7.662366e-01
   1.929739e+01  -2.755617e+01
   9.319214e+01  -5.250065e+01
   9.028370e+01  -2.880985e+01
   2.333779e+00   2.203193e+01
  -2.275051e+01   6.191038e+01
  -1.258977e+01  -2.534569e+01
  -9.103182e+01  -1.878012e+01
  -1.355764e+01  -6.289213e+01
   4.390586e+01   5.189830e+00
   4.868452e+01   7.699781e-01
   7.363158e+00  -1.760102e+01
   4.455395e+01  -9.952203e+00
   1.669249e+01   4.586061e+01
   2.320978e+01   3.167405e+01
  -1.923269e+01   4.250696e+01
  -4.897598e+00   9.600451e+00
  -6.560516e+01  -8.448921e+01
  -4.575581e+00  -2.830851e+01
   9.095509e+01  -2.398089e+01
   4.081847e+01   5.582566e+01
   4.521707e+01  -3.964620e+00
  -3.976639e+01   2.531661e+01
  -1.029856e+02  -2.506586e+01
  -9.005887e+01  -3.828354e+01
   3.417216e+01  -8.393302e+00
   6.999411e+01   7.321441e+00
   2.773966e+01   3.785082e+00
  -4.121814e+01  -2.711733e+00
  -8.540754e+00   4.757431e-01
   7.932055e+01   1.583967e+01
   1.005908e+02   1.026916e+01
