
 $NMID
 id='ANONYMOUS ', fmtdat='(2E16.6)'
 volume=1.0
 tramp=1.0
 $END
  -3.432830e+03  -2.290489e+01
  -1.950507e+03  -2.122842e+03
   6.389339e+02  -2.174203e+03
   1.756636e+03  -5.909480e+02
   6.912945e+02   5.797990e+02
  -5.605388e+02   5.200733e+02
  -7.451530e+02  -3.831802e+02
   6.107988e+01  -8.981942e+02
   6.634051e+02  -6.338690e+02
   7.511511e+02   1.434860e+02
   3.340531e+02   7.071234e+02
  -2.567089e+02   6.648287e+02
  -5.164874e+02   7.557852e+01
  -3.383550e+02  -5.758580e+02
   1.714602e+02  -5.796565e+02
   4.448731e+02   2.487373e+01
   2.116046e+02   5.902383e+02
  -2.943447e+02   4.868551e+02
  -4.627729e+02   5.625535e+00
  -2.718310e+02  -2.523984e+02
   1.819830e+01  -3.834715e+02
   2.510448e+02  -1.704692e+02
   2.025340e+02  -6.577045e+00
  -9.047801e+01   7.816350e+01
  -3.554057e+02  -7.508587e+01
  -1.867550e+02  -2.896216e+02
   3.863829e+02  -3.722267e+02
   5.860426e+02   4.465104e+01
   3.144031e+02   4.565034e+02
  -2.998591e+02   3.524689e+02
  -6.199338e+02  -2.430916e+01
  -3.178663e+02  -3.711290e+02
   2.484282e+02  -4.158832e+02
   4.122857e+02  -1.529762e+02
   3.179741e+02   1.899986e+02
   4.404710e+01   3.568627e+02
  -1.571018e+02   2.541554e+02
  -1.712008e+02  -1.777657e+02
   1.142616e+02  -3.680348e+02
   2.686302e+02  -2.285240e-01
   2.293375e+02   5.103810e+02
  -2.618904e+02   6.032832e+02
  -4.926454e+02  -1.962639e+01
  -1.952654e+02  -4.181508e+02
   2.579980e+02  -2.622536e+02
   2.866252e+02   2.621053e+02
  -4.142170e+01   4.311436e+02
  -4.208833e+02   1.347384e+02
  -5.012468e+02  -2.934132e+02
  -8.873094e+01  -4.983509e+02
   3.019933e+02  -2.555743e+02
   5.088857e+02   4.833888e+01
   3.369650e+02   2.781989e+02
  -1.586166e+02   3.045806e+02
  -3.896849e+02   2.409892e+01
  -1.797182e+02  -1.697486e+02
   1.206475e+02  -8.500310e+01
   1.790062e+02   1.391881e+02
  -1.389493e+02   1.766925e+02
  -2.783551e+02  -4.968052e+01
  -1.270702e+02  -2.174383e+02
   1.496885e+02  -1.805055e+02
   2.621425e+02  -2.556594e+01
   1.321856e+02   1.032770e+02
  -7.257503e+01   1.760211e+02
  -1.303998e+02   2.496776e+02
  -2.851445e+02   1.481880e+02
  -1.889661e+02  -1.115161e+02
  -7.374724e+01  -3.509920e+02
   5.156651e+01  -2.844459e+02
   1.238829e+02  -9.835008e+01
  -2.100031e+00   4.765684e+01
  -2.671544e+00  -1.272402e+02
   1.082863e+02  -1.059426e+02
   2.064133e+02  -4.178625e+01
   1.379756e+02   1.993576e+02
   4.809106e+00   2.798803e+02
  -2.004538e+02  -1.514299e+01
  -1.667353e+02  -1.638716e+02
  -1.673103e+01  -2.385256e+02
   2.369462e+02  -1.008106e+02
   3.059302e+02   9.016550e+01
   1.845350e+02   2.979538e+02
  -8.758690e+01   2.608209e+02
  -2.013429e+02   4.910993e+01
  -1.132956e+02   3.892371e+01
  -9.624594e+01   4.438423e+01
  -2.346066e+02   8.630786e+01
  -2.777115e+02  -8.107686e+01
  -3.136310e+02  -2.186212e+02
   3.020906e+01  -3.659015e+02
   2.978653e+02  -3.437268e+02
   3.494658e+02  -1.378026e+02
   2.542074e+02   8.908919e+01
   5.366163e+01   2.115151e+02
  -1.015722e+02   1.346835e+02
  -5.605833e+01   4.415471e+01
   7.576903e+01  -7.179109e+01
   1.808641e+02  -2.277737e+01
   4.274193e-01   2.291255e+02
  -1.494003e+02   1.410751e+02
  -1.930103e+02  -1.618033e+01
  -2.277165e+01  -2.007866e+02
   1.568661e+02  -3.782629e+01
   1.345247e+02   1.651505e+02
  -3.739504e+01   2.332243e+02
  -1.082958e+02   1.613663e+02
  -2.996779e+02  -3.023662e+01
  -2.090155e+02  -2.100567e+02
  -5.252899e+01  -1.896210e+02
   8.282950e+01  -1.296322e+02
   1.490615e+02   8.322371e+00
   5.647193e+01   4.946730e+01
  -1.356865e+02  -2.489578e+01
  -2.473037e+01  -1.540659e+02
   9.847637e+01  -6.894755e+01
   7.835464e+01   2.718170e+01
   7.797474e+01   8.589028e+01
  -5.467918e+01  -1.974181e+01
  -3.994028e+01  -8.675102e+01
   1.213213e+02  -7.678216e+01
   1.871637e+02   1.892233e+01
   2.458941e+02   9.802863e+01
   1.824181e+01   1.740477e+02
  -1.348158e+02   2.002745e+02
  -2.647278e+02   9.869962e+01
  -1.437051e+02  -2.320599e+01
   5.100806e+01  -1.325136e+02
   6.796569e+01  -1.610581e+00
  -3.545952e+01   5.160480e+01
  -1.520358e+02   3.629742e+00
  -1.316417e+02  -1.266358e+02
  -2.012431e+01  -1.008980e+02
   8.204793e+01  -1.025958e+02
   1.018131e+02   5.298817e+00
   3.306326e+01   1.547261e+01
  -7.931090e+01  -2.386500e-01
  -5.179159e+01  -8.448710e+01
   2.109868e+01  -5.669869e+01
   1.279254e+02  -6.651740e+00
   1.512158e+02   3.342207e+01
   3.619142e+01   1.807639e+02
  -1.208863e+02   1.472920e+02
  -1.323737e+02  -1.533415e+01
  -6.782368e+01  -6.143362e+01
   4.260372e+01  -8.169629e+01
   2.630523e+01  -4.961106e+01
   1.401260e+01   4.046209e+01
  -2.491945e+01  -5.687816e+01
  -3.698432e+01  -5.465988e+01
   3.338053e+01   2.528212e+00
   1.378244e+01   1.066724e+02
   3.881949e+01   5.859304e+01
  -1.413069e+02   1.304139e+02
  -1.864573e+02   6.371833e+01
  -1.590739e+02  -1.441748e+02
  -5.974295e+00  -1.814027e+02
   7.603772e+00  -8.651625e+01
   1.220842e+02  -2.918598e+01
   7.214257e+01   7.866228e+01
   3.855859e+01   1.362228e+01
   1.762769e+01   1.343201e+01
   8.470783e+01   4.406243e+00
   1.013286e+01   5.205819e+01
  -9.130476e+01   6.973269e+01
  -5.251206e+01   2.047762e+01
  -9.598454e+01  -5.008851e+01
  -9.475719e+00  -1.078874e+02
   9.133695e+01  -9.465590e+01
   2.037910e+02   5.270079e+01
   5.447781e+01   1.271925e+02
  -1.075077e+02   1.914376e+02
  -2.383214e+02   1.082347e+02
  -1.869554e+02  -5.547644e+01
  -5.536779e+01  -1.080355e+02
   1.609495e+00  -9.191286e+01
   6.946230e+01  -3.664733e+01
   4.772006e+01  -7.304795e+01
   7.677537e+01  -2.599458e+01
   8.799757e+01  -4.680696e+01
   9.422484e+01   8.116574e+00
   9.450143e+01   1.345057e+02
   7.212467e+00   1.514922e+02
  -8.516949e+01   1.150101e+02
  -1.121954e+02   1.013308e+00
  -5.796948e+01  -6.699529e+01
  -5.444054e+01  -1.145556e+02
   5.856145e+01  -8.660356e+01
   6.620804e+01  -2.202759e+01
  -1.063875e+01   3.995091e+01
   5.980548e+00   9.227742e+00
  -2.115357e+01   6.902682e+01
   4.750381e+01   3.546895e+01
  -4.747300e+01   8.826189e+01
  -5.712309e+01   1.627053e+01
  -1.085884e+02  -1.657936e+01
  -3.121044e+01  -6.530563e+01
  -3.239643e+01  -6.147371e+01
   6.578869e+01  -1.032333e+02
   1.093439e+02  -3.332538e+01
   3.316660e+01   1.721770e+01
  -5.123084e+01   6.760772e+01
  -1.330091e+02  -2.139766e+01
  -5.996946e+01  -6.009876e+01
   4.007426e+01  -4.724169e+01
   2.014158e+01  -1.184256e+01
   1.964046e+01   1.510326e+01
   2.164215e+01   7.026801e+01
   5.874406e+01   4.839438e+01
   6.929354e+01  -4.297443e+00
   1.162222e+01   5.145337e+01
  -1.011719e+01   7.725366e+01
  -8.755547e+01   1.309139e+02
  -1.193238e+02   3.491561e+01
  -7.301684e+01  -4.997361e+01
  -4.455687e+01  -7.363890e+01
   6.715660e+01  -3.830017e+00
   2.185672e+01   3.544419e+01
  -6.492315e+01   5.388372e+01
  -1.227484e+02   3.340722e+01
  -3.298489e+01  -5.836458e+01
   5.795142e+01  -6.665057e+01
   1.881237e+02  -7.718097e+01
   1.581109e+02   3.867571e+01
   1.310334e+01   8.260458e+01
  -5.691096e+01   3.476813e+01
  -5.843538e+01   1.518639e+01
   2.637522e+01   3.646041e+01
   8.112706e+01   8.343201e+00
   5.465009e+01   9.381804e+01
  -1.004471e+02   8.863878e+01
  -1.348715e+02   1.091639e+01
  -8.567619e+01  -9.075891e+01
   1.603508e+01  -1.743838e+02
   6.503263e+01  -9.830801e+01
   8.241851e+01   1.324812e+01
   5.743913e+00   6.732468e+01
  -1.756905e+01   5.476421e+01
   1.228918e+01  -1.078212e+01
  -2.636445e+01  -2.568488e+01
   2.403999e-01   1.663070e+01
  -3.487700e+01  -4.199201e+00
  -3.418219e+01   2.034174e+01
   1.355644e+01  -5.127939e+01
  -5.010808e+01  -6.909480e+01
   4.858903e+01   2.750622e+01
   1.017081e+02   5.794193e+01
   7.303473e+01   6.324619e+01
   7.186357e+00   7.600567e+00
  -8.293766e+01  -2.427831e+01
  -8.074281e+01   3.212661e+01
  -4.354463e+01   1.261907e+01
   3.174109e+01  -2.913310e+01
  -2.475529e+01  -8.509329e+00
  -3.393544e+00   2.304077e+01
  -9.058076e+00   5.638384e+01
   8.049250e+01  -8.731348e-01
   7.016319e+01   1.495984e+01
   1.780339e+01   1.667024e+01
  -5.928296e+01   7.542743e+01
  -1.588765e+02   3.874541e+01
  -1.274284e+02  -4.161583e+01
  -7.755399e+00  -1.614548e+02
   4.520598e+01  -9.996963e+01
   8.978299e+01  -4.404495e+01
   7.371969e+01   5.541382e+01
   4.760375e+01   4.625390e+00
   5.329694e+00  -2.866571e+01
  -6.887480e+00  -4.609304e-02
   1.104955e+01   1.953015e+00
   1.657000e+01   6.372468e+01
  -1.494391e+01   5.956860e+01
  -5.991599e+01  -8.972389e-02
   1.829874e+01  -4.046745e+01
  -2.324898e+01  -8.298328e+01
  -1.127788e+00  -2.309721e+01
   4.711443e+01   4.739285e+00
  -2.924764e+01   9.209161e+01
  -5.734196e+01   3.288113e+01
  -1.402811e+02   4.008214e+01
  -5.537958e+01  -3.607122e+01
  -9.899956e+00  -7.581724e+01
  -2.394129e+01  -2.424338e+01
  -2.925306e+01   1.920190e+01
  -6.319413e+01  -8.625491e-01
  -4.341772e+01   5.234149e-01
   2.633009e+01  -4.582797e+01
   1.225016e+02  -4.664517e+01
   8.404101e+01  -1.501579e+01
  -2.760795e+01   5.683113e+01
  -1.697154e+01   2.599030e+01
  -9.412451e+00   2.734389e+01
  -3.979869e+01  -6.409985e+00
  -7.859157e+00  -2.210964e+01
   5.191275e+01  -2.225993e+01
   2.357054e+01   3.869929e+01
   1.247500e+01  -1.868329e+01
  -4.880018e+01  -6.153440e+01
  -5.167090e+01  -1.002140e+02
  -2.803888e+01  -1.364777e+01
  -1.489762e+01   5.796753e+01
   1.845882e+00   9.669902e+00
  -8.568563e+00  -5.249905e+01
   1.879848e+01  -6.488318e+00
   5.174898e+01   3.991099e+01
   4.948149e+01   3.877300e+01
  -2.401491e+01   3.688180e+01
  -7.676263e+01   1.692497e+01
  -1.058279e+01   2.501795e+01
   5.515154e+00  -5.213061e+01
   1.037486e+02  -1.467256e+01
   8.623077e+01   1.884780e+01
  -2.309968e+01  -4.565450e+01
  -3.460161e+01   2.353914e+01
  -3.000152e+01   4.821923e+01
  -5.535245e+01  -1.433737e+01
   6.049503e+01   3.768974e+01
  -2.543925e+00   3.229681e+01
  -2.480390e+01   9.894414e+00
  -6.482532e+01   2.275117e+01
