
 $NMID
 id='ANONYMOUS ', fmtdat='(2E16.6)'
 volume=1.0
 tramp=1.0
 $END
   4.521769e+03  -1.401059e+01
   2.681820e+03   2.766776e+03
  -8.493693e+02   2.866542e+03
  -2.248345e+03   8.181666e+02
  -9.787858e+02  -7.895850e+02
   7.456454e+02  -6.438065e+02
   9.505091e+02   5.054396e+02
  -2.690297e+01   1.144815e+03
  -9.115520e+02   7.989006e+02
  -1.060718e+03  -1.091728e+02
  -5.109810e+02  -9.175547e+02
   2.800007e+02  -9.533275e+02
   6.640367e+02  -1.216414e+02
   4.164793e+02   7.633009e+02
  -3.070093e+02   7.894867e+02
  -6.449370e+02  -1.860985e+00
  -2.734815e+02  -7.320253e+02
   3.025712e+02  -6.881835e+02
   6.080863e+02  -1.969883e+01
   4.054047e+02   3.985045e+02
   3.433994e+01   4.372221e+02
  -2.091850e+02   2.523122e+02
  -2.156657e+02   3.112183e+01
   1.130668e+02  -1.239157e+02
   4.427524e+02   8.302561e+01
   2.243236e+02   4.526180e+02
  -4.360534e+02   5.048524e+02
  -9.199624e+02  -1.188491e+02
  -4.452527e+02  -5.987696e+02
   4.215905e+02  -5.235767e+02
   7.900961e+02  -5.539148e+00
   3.981108e+02   5.393302e+02
  -3.350387e+02   5.391550e+02
  -5.532436e+02   2.580214e+02
  -4.032009e+02  -2.670593e+02
  -8.914913e+01  -5.580164e+02
   2.265331e+02  -2.986143e+02
   2.055918e+02   2.728813e+02
  -1.511363e+02   5.387706e+02
  -3.909597e+02  -1.795847e+01
  -2.744260e+02  -7.214072e+02
   3.821457e+02  -7.707003e+02
   6.671144e+02  -5.091710e+01
   2.661556e+02   6.332812e+02
  -3.381394e+02   3.951049e+02
  -4.051562e+02  -3.710778e+02
   3.585969e+00  -5.077754e+02
   5.626278e+02  -1.201679e+02
   5.858464e+02   3.849245e+02
   1.546299e+02   5.976057e+02
  -3.990062e+02   3.652795e+02
  -5.829252e+02  -7.498007e+01
  -3.609408e+02  -3.933319e+02
   2.317554e+02  -3.662776e+02
   4.406818e+02  -8.633731e+01
   1.922866e+02   2.413086e+02
  -1.494014e+02   1.175111e+02
  -1.720001e+02  -1.938080e+02
   1.786825e+02  -1.754242e+02
   3.936249e+02   1.039207e+02
   1.834601e+02   3.626534e+02
  -2.204464e+02   2.645570e+02
  -3.345216e+02   6.764121e+01
  -1.545517e+02  -1.221149e+02
   3.409465e+01  -2.288384e+02
   1.842599e+02  -3.458842e+02
   3.434387e+02  -2.168750e+02
   3.336209e+02   1.550540e+02
   1.194301e+02   4.594089e+02
  -1.270602e+02   4.307766e+02
  -1.611517e+02   1.391134e+02
   1.660835e+00  -2.147546e+01
   9.289992e+00   1.382267e+02
  -2.371537e+02   1.653425e+02
  -2.951342e+02  -3.679904e+01
  -1.977771e+02  -3.080096e+02
   1.064911e+02  -2.851523e+02
   2.588639e+02  -3.790974e+01
   2.603506e+02   2.361625e+02
   1.869798e+01   3.174175e+02
  -3.169179e+02   1.474912e+02
  -3.726956e+02  -1.715392e+02
  -2.620918e+02  -3.456718e+02
   8.693836e+01  -2.576186e+02
   2.711830e+02  -1.724689e+02
   1.455529e+02   9.354728e-02
   1.018168e+02   3.664338e+01
   2.371472e+02  -7.551300e+01
   3.902297e+02   3.900116e+01
   3.494938e+02   2.798506e+02
  -2.596159e+01   4.670633e+02
  -3.679229e+02   4.690082e+02
  -5.396471e+02   2.116787e+02
  -3.447996e+02  -7.533759e+01
  -7.946095e+01  -2.999378e+02
   1.126301e+02  -2.695272e+02
   9.065196e+01  -7.047492e+01
  -7.753847e+01   1.265116e+02
  -1.800148e+02  -3.371141e+00
  -8.594804e+01  -1.769729e+02
   1.277661e+02  -1.448292e+02
   1.134899e+02   6.224709e+01
  -1.931116e+01   1.662480e+02
  -2.210840e+02   8.138820e+01
  -2.229147e+02  -3.054230e+02
   2.453415e+01  -3.639557e+02
   1.863996e+02  -1.826067e+02
   3.687706e+02   5.176157e+01
   2.905125e+02   2.165449e+02
   1.178339e+02   2.260922e+02
  -5.788956e+01   1.743072e+02
  -2.204936e+02   2.117449e+01
  -8.332329e+01  -2.625576e+01
   1.139451e+02   4.859595e+01
   2.584598e+01   1.355116e+02
  -1.230079e+02   1.004208e+02
  -1.434456e+02  -3.426265e+01
  -4.456660e+01  -4.866865e+01
   7.327778e+01  -3.822327e+01
   5.532772e+01   6.798134e+01
  -1.193483e+02   5.491689e+01
  -2.778929e+02   4.465615e+01
  -2.540078e+02  -1.034269e+02
  -8.646908e+01  -2.502282e+02
   1.561050e+02  -3.002004e+02
   2.425323e+02  -1.100400e+02
   1.776664e+02   4.979098e+01
  -4.920964e+01   1.009125e+02
  -1.142804e+02   2.427259e+01
   4.976119e+01  -1.475111e+02
   1.623980e+02  -1.161000e+02
   2.486567e+02   4.307007e+01
   6.607044e+01   2.432395e+02
   1.790070e+01   2.338552e+02
  -1.581861e+02   6.282154e+01
  -1.123426e+02  -3.956808e+01
   5.254589e+01  -4.345321e+01
   4.654693e+01   5.217675e+01
  -6.599087e+01   9.013342e+01
  -2.094166e+02   8.114756e+01
  -2.276242e+02  -1.476837e+02
  -2.258119e+01  -2.434792e+02
   1.698050e+02  -2.094591e+02
   2.089898e+02  -3.348128e+01
   8.797810e+01   1.320649e+02
  -9.150342e+01   1.362866e+02
  -1.214964e+02   6.489382e+01
   2.424371e+01   4.454478e+00
   6.263472e+01  -1.679203e+01
  -1.409213e+01   1.839794e+00
  -7.588929e+01  -3.254798e+01
  -1.015744e+02  -7.144450e+01
  -7.740582e+01  -1.589487e+02
   1.311019e+02  -1.238531e+02
   2.727108e+02  -2.028404e+01
   1.994755e+02   1.437918e+02
   6.661762e+01   2.695205e+02
  -5.144044e+01   1.676282e+02
  -1.515695e+02   5.680266e+01
  -7.994388e+01  -5.954440e+01
  -5.028097e+01  -1.238222e+01
  -1.113500e+02   2.647457e+01
  -7.583732e+01  -2.330279e+00
  -7.289660e+01  -6.953042e+01
   5.087033e+01  -6.622608e+01
   1.062310e+02  -7.002907e+01
   8.997743e+01   7.615413e+01
   2.125896e+00   1.001234e+02
  -9.738788e+01   7.089575e+01
  -2.359591e+02  -1.913542e+01
  -1.139188e+02  -2.549628e+02
   1.464463e+02  -2.580441e+02
   2.577671e+02  -1.488587e+02
   2.863053e+02   7.083940e+01
   1.480259e+02   1.994344e+02
  -8.448031e+00   1.473249e+02
  -9.856824e+01   8.012511e+01
  -5.808118e+01   1.098442e+02
  -1.585820e+00   1.417280e+02
  -8.601990e+01   5.863751e+01
  -9.660405e+01  -2.836701e+01
  -1.474900e+02  -1.411489e+02
  -3.808597e+01  -1.812004e+02
   9.361512e+01  -1.966482e+02
   2.208750e+02  -4.069472e+01
   1.482969e+02   1.004741e+02
   3.049734e+01   1.841140e+02
  -8.670152e+01   8.566234e+01
  -6.492067e+01  -1.850908e+01
  -2.189281e+01  -8.351516e+01
   1.222074e+01   7.443797e+00
  -3.064926e+01   2.730940e+01
  -7.647475e+01  -1.686415e+01
  -2.092272e+01  -3.652296e+01
   2.174325e+01  -1.166586e+02
   1.349934e+02  -7.201148e+00
   1.513962e+02   4.754079e+01
   3.624785e+01   9.681207e+01
  -1.007600e+02   8.964266e+01
  -1.091878e+02   1.431401e+01
  -6.671331e+01  -5.989083e+01
   1.108285e+02  -2.193977e+01
   1.525278e+02   3.482629e+01
   4.998377e+01   7.684741e+01
  -2.606205e+01   2.549433e+01
  -6.735783e+01  -6.710729e+00
  -1.330853e+00  -7.005063e+01
  -5.777531e+01  -9.311998e+01
  -4.574492e+01   6.453261e+00
  -5.311861e+01   1.985531e+01
  -5.383443e+01  -9.118152e+01
   3.572024e+01  -1.322977e+02
   1.298188e+02  -1.205560e+02
   1.994957e+02  -4.247486e+01
   1.201200e+02   7.483408e+01
   2.651394e+01   9.007969e+01
  -8.731298e+01   3.475746e+01
  -1.023462e+02  -2.083132e+01
   4.220783e+01   1.067033e+01
   1.895666e+02   5.645037e+01
   7.315818e+01   1.243114e+02
  -7.476488e+01   7.547954e+01
  -2.152648e+02   2.856781e+01
  -1.647387e+02  -5.474988e+01
  -5.459602e+01  -8.648655e+01
   4.192672e+01  -6.284588e+01
   4.433257e+01  -4.430254e+01
  -1.088237e+02   5.780463e+01
  -1.024660e+02  -1.708555e-01
  -8.238113e+01  -1.486976e+02
   1.127270e+02  -2.032280e+02
   1.677052e+02  -1.024740e+02
   1.263631e+02   1.447748e+02
   3.845460e+01   2.086800e+02
  -4.556074e+01   1.357843e+02
  -6.658212e+01  -5.815818e+01
  -4.007124e+01  -1.286236e+02
  -1.237621e+01  -9.002317e+01
   1.343254e+01  -1.590974e+01
   4.739858e+01   7.702168e+01
   6.252036e+01   8.099346e+00
  -1.018823e+01  -4.961488e+01
   1.440885e+00   5.632106e+01
   1.028570e+02   8.639779e+01
   4.426571e+01   7.798213e+01
  -3.517379e+01   6.221999e+01
  -1.595932e+02  -4.980425e+01
  -1.620279e+02  -9.638075e+01
  -2.040929e+01   5.571659e+00
   7.056208e+01  -4.247734e+01
   8.891039e+01  -9.812691e+00
  -3.911894e+01   5.769988e+00
   1.343022e+01   3.838862e+01
   3.499958e+01  -5.751490e+00
   2.682778e+01   3.125284e+01
   2.639064e+01  -2.206477e+01
  -6.082836e+01   4.510379e+01
  -1.578463e+02   1.556573e+01
  -3.746341e+01  -1.138320e+02
   8.613476e+01  -1.260342e+02
   2.151904e+02  -2.341419e+01
   1.169592e+02   7.634773e+01
   8.728686e+00   1.194891e+02
  -6.888471e+01   1.285453e+02
  -1.189755e+01   1.094458e+02
  -1.087969e+02  -1.065770e+01
  -2.665573e+01  -4.551815e+01
   7.393504e+01  -1.015195e+01
   6.483865e+00  -2.359425e+01
  -5.131708e+01   7.542075e+00
  -1.754142e+01  -1.237938e+02
   6.027647e+01  -1.204115e+02
   9.605803e+01   5.045060e+01
   7.892251e+01   1.156438e+02
  -2.706990e+01   2.764900e+01
  -7.426209e+01  -8.911658e+00
  -5.328259e+01  -8.261798e+01
  -7.729349e+01  -1.093880e+02
   1.075479e+01  -4.474782e+01
   6.170618e+01   1.286283e+01
   4.912053e+01   8.743195e+01
  -1.710871e+01   6.279072e+01
  -2.177457e+01   1.003886e+01
   3.394808e+01  -1.317560e+01
   6.109197e+01   2.047103e+01
  -2.349840e+01   3.665336e+01
  -9.019320e+01   6.201663e+01
  -7.199308e+01  -3.965384e+00
  -1.200670e+02   3.710446e+01
  -3.532770e+01  -1.017480e+02
   2.579211e+00  -1.370850e+02
   9.257093e+01   1.442036e+01
   3.905983e+01   3.335118e+01
   7.399101e+00   8.723031e+01
  -1.930465e+01  -4.203341e+01
  -2.102468e+01  -2.807056e+01
  -3.672352e+01  -3.097413e+01
   5.193712e+01   6.468649e+00
   5.157335e+01   1.464433e+00
  -1.665006e+00  -4.658590e+01
  -1.983043e+01  -3.316493e+01
   2.813404e+01   4.013003e+01
  -2.782338e+01   4.457282e+01
  -1.082525e+01   4.832637e+01
   1.274447e+00   2.076234e+01
  -2.732436e+01  -2.931333e+01
  -4.746826e+00   3.684826e+01
   1.119625e+02   4.247241e-01
   1.034485e+02   4.948032e+01
   3.166877e+01   4.807969e+01
  -7.042902e+01   9.336868e+01
  -3.392242e+01  -6.758269e+01
  -1.049042e+02  -4.440501e+01
   3.442437e+01  -4.724432e+01
   3.382783e+01  -5.780224e+01
   3.633803e+01   1.908156e+01
  -2.811650e+01   1.404653e+01
  -3.762486e+01  -4.880791e+01
   7.029424e+01  -2.567589e+01
   8.422094e+01   6.283032e+00
