
 $NMID
 id='ANONYMOUS ', fmtdat='(2E16.6)'
 volume=1.0
 tramp=1.0
 $END
  -4.688896e+03  -1.295027e+01
  -2.655287e+03  -2.897551e+03
   8.924271e+02  -2.959628e+03
   2.348413e+03  -8.054102e+02
   9.609120e+02   8.371798e+02
  -7.891377e+02   6.495428e+02
  -9.641091e+02  -5.416345e+02
  -1.256636e+01  -1.215086e+03
   9.009342e+02  -8.148135e+02
   1.049608e+03   1.201842e+02
   4.758732e+02   9.486950e+02
  -2.922617e+02   9.760061e+02
  -7.049595e+02   9.827568e+01
  -3.756261e+02  -8.933161e+02
   2.597101e+02  -8.229464e+02
   6.512954e+02   7.450191e+01
   2.702529e+02   6.859061e+02
  -3.924794e+02   6.416598e+02
  -6.314748e+02  -6.839646e+00
  -4.313228e+02  -3.850053e+02
   4.694566e+01  -4.596072e+02
   3.569749e+02  -2.979891e+02
   2.731766e+02  -1.645980e+01
  -1.224981e+02   1.091230e+02
  -4.492340e+02  -8.325423e+01
  -2.445582e+02  -3.876519e+02
   4.933484e+02  -5.081501e+02
   8.828928e+02   8.025688e+01
   4.879413e+02   6.457432e+02
  -3.910230e+02   5.123655e+02
  -7.721803e+02  -5.119414e+01
  -4.095563e+02  -4.988208e+02
   2.969703e+02  -5.847758e+02
   5.993707e+02  -2.542708e+02
   4.284273e+02   2.670641e+02
   4.788292e+01   5.824198e+02
  -2.438344e+02   3.171596e+02
  -1.971740e+02  -2.570223e+02
   1.282483e+02  -4.090301e+02
   4.661177e+02  -1.242882e+01
   2.844175e+02   7.056729e+02
  -3.760531e+02   7.559513e+02
  -6.840682e+02  -2.270959e+01
  -2.986853e+02  -5.870282e+02
   3.079185e+02  -3.670291e+02
   4.955542e+02   3.489963e+02
  -5.494794e+01   5.381846e+02
  -6.458538e+02   1.120211e+02
  -6.501765e+02  -4.142581e+02
  -1.605678e+02  -6.032741e+02
   4.169084e+02  -4.040636e+02
   6.891718e+02   9.263726e+01
   3.780305e+02   4.334228e+02
  -1.374535e+02   4.103385e+02
  -4.787503e+02   5.373409e+01
  -2.689232e+02  -2.417117e+02
   1.488047e+02  -1.697504e+02
   1.715982e+02   1.650151e+02
  -2.005967e+02   2.893284e+02
  -3.746381e+02  -6.054791e+01
  -1.461747e+02  -3.309579e+02
   1.792731e+02  -2.559615e+02
   3.924945e+02  -9.106185e+01
   2.060150e+02   8.420938e+01
  -2.685285e+01   2.132916e+02
  -1.903062e+02   3.625100e+02
  -3.195075e+02   2.035122e+02
  -3.106174e+02  -1.453250e+02
  -1.166361e+02  -4.934556e+02
   1.465106e+02  -4.310588e+02
   1.713529e+02  -1.030609e+02
   5.447497e+01   8.729005e+01
   6.309745e+01  -4.809671e+01
   2.078293e+02  -1.731823e+02
   2.889400e+02   4.192389e+01
   1.765979e+02   2.830749e+02
  -7.768936e+01   3.008794e+02
  -2.235886e+02   9.929947e-01
  -1.858221e+02  -2.597574e+02
  -3.688447e+00  -3.514612e+02
   2.287151e+02  -1.179161e+02
   4.154896e+02   2.001355e+02
   1.634259e+02   3.439272e+02
  -8.889851e+01   2.861893e+02
  -2.814522e+02   1.146418e+02
  -1.430924e+02   4.900217e+00
  -9.967148e+01   3.022085e+01
  -2.314013e+02   7.133890e+01
  -3.747731e+02  -7.615385e+01
  -3.608283e+02  -2.513125e+02
  -3.874200e+01  -4.589444e+02
   3.985092e+02  -4.311555e+02
   5.770626e+02  -2.364875e+02
   3.917924e+02   4.027304e+01
   1.012415e+02   3.092875e+02
  -1.398249e+02   2.985240e+02
  -9.946141e+01  -9.545501e+00
   9.066796e+01  -8.157942e+01
   1.814246e+02  -1.098315e+01
   5.657357e+01   1.981206e+02
  -1.844108e+02   1.869929e+02
  -2.166096e+02  -6.081761e+01
  -3.197414e+00  -3.097822e+02
   1.909918e+02  -4.692241e+01
   1.495816e+02   2.280806e+02
  -1.827685e+01   3.641346e+02
  -2.428450e+02   1.959724e+02
  -3.124425e+02  -7.986423e+01
  -2.526113e+02  -2.687016e+02
  -9.204630e+01  -2.860945e+02
   1.252271e+02  -1.325728e+02
   2.113247e+02  -5.023120e+01
   7.428558e+01   3.366737e+01
  -8.879617e+01   1.872475e+01
  -4.399481e+01  -9.455212e+01
   1.429665e+02  -6.459249e+01
   2.166929e+02   1.590763e+01
   4.517563e+01   7.084821e+01
  -6.907278e+01  -7.343061e-01
  -8.422422e+01  -6.352817e+01
   1.292442e+02  -9.683557e+01
   3.003086e+02  -1.398657e+01
   2.431823e+02   1.235761e+02
   8.705030e+01   2.545148e+02
  -1.809466e+02   2.581504e+02
  -3.042231e+02   1.435822e+02
  -1.937574e+02  -9.820075e+01
   1.457621e+01  -1.836604e+02
   1.159810e+02  -4.541306e+01
  -3.910299e+01   1.163583e+02
  -2.236484e+02   1.028978e+01
  -2.460478e+02  -1.099583e+02
  -8.813023e+01  -1.998605e+02
   1.296637e+02  -1.784840e+02
   1.428513e+02  -3.431788e+01
   6.696791e+01   7.335450e+00
  -9.916878e+00   1.227376e+01
  -4.449861e+01  -1.055728e+02
   2.227289e+01  -1.492403e+02
   1.986176e+02  -4.944621e+01
   1.550025e+02   1.261808e+02
   2.053942e+01   2.094062e+02
  -1.491858e+02   1.654249e+02
  -2.140588e+02   2.950826e+01
  -6.976485e+01  -8.665412e+01
   6.696791e+01  -1.036762e+02
   9.769770e+01  -8.662817e+01
   3.490959e+00   4.448489e+01
   3.831583e+00   4.442264e+01
  -3.553260e+00   1.518158e+01
   8.218332e+01   3.025437e+01
   6.954334e+01   7.928060e+01
   3.884305e+01   1.849380e+02
  -1.613999e+02   1.549587e+02
  -1.987636e+02   1.758273e+01
  -2.274535e+02  -1.680820e+02
  -2.129892e+01  -2.182039e+02
   1.336060e+02  -1.455217e+02
   1.372751e+02  -6.535201e+01
   2.761268e+01   5.464328e+01
   2.928665e+01   4.309902e+01
   7.202093e+01  -2.383005e+01
   7.351770e+01  -1.118053e+01
   6.211916e+01   2.633748e+01
  -1.243072e+01   7.359281e+01
  -9.527580e+01   1.239982e+02
  -1.009120e+02   1.104575e+01
   4.459477e+01  -1.297118e+02
   9.844693e+01  -9.793038e+01
   1.796162e+02   5.431472e+01
   1.241499e+02   2.402213e+02
  -9.882522e+01   2.267617e+02
  -2.602999e+02   3.683233e+01
  -3.213241e+02  -7.591067e+01
  -8.183057e+01  -1.807758e+02
   2.501739e+01  -1.478585e+02
   1.410777e+02  -1.293874e+02
   6.995105e+01  -7.949333e+01
   6.072326e+01  -8.864161e+01
   1.272746e+02  -1.070468e+02
   1.844231e+02   1.463921e+01
   1.092082e+02   1.666569e+02
   6.846091e+01   2.635813e+02
  -1.099271e+02   1.834401e+02
  -1.402219e+02  -1.054599e+01
  -1.969767e+02  -1.080633e+02
  -1.972844e+01  -1.679915e+02
   1.045237e+02  -1.224795e+02
   4.341768e+01   1.588276e+01
  -2.527451e+01   5.018726e+01
   3.119404e+01  -4.133211e+00
   2.983152e+01   5.131770e+01
   2.494024e+01   1.435120e+01
   5.091125e+01   6.489872e+01
  -3.029835e+01   7.681969e+01
  -1.687417e+02   1.754754e+01
  -1.767186e+02  -6.861563e+01
  -6.266487e+01  -6.411665e+01
   1.391128e+02  -9.569717e+01
   1.424709e+02  -4.647103e+01
   5.584351e+01   3.721404e+00
  -5.838013e+01   3.264884e+01
  -1.395526e+02  -6.046948e+01
   2.820917e+01  -1.231482e+02
   5.743663e+01  -4.196790e+01
   6.818414e+01   8.036195e+00
   2.051267e+01   8.761298e+01
   5.076718e+01   4.782975e+01
   6.326586e+01   5.467740e+00
   8.428309e+01   4.961091e+01
   4.663425e+01   5.244600e+01
  -5.298284e+01   1.520676e+02
  -1.250118e+02   6.090421e+01
  -1.676996e+02   2.191791e+01
  -1.630797e+02  -1.258093e+02
  -5.387249e+01  -1.628672e+02
   7.908464e+01  -5.538876e+01
   4.813424e+01   3.886867e+01
  -5.726034e+01   1.296715e+01
  -1.724215e+02  -2.193756e+01
  -7.506447e+01  -1.261067e+02
   9.363618e+01  -1.690971e+02
   1.987298e+02  -6.577450e+01
   1.898642e+02   1.380632e+01
   3.977967e+00   1.000071e+02
  -4.223102e+01   4.232686e+01
  -3.465542e+01   1.372319e+01
   4.548538e+01  -7.560589e+01
   3.794913e+01  -2.711219e+01
   8.941042e+01   1.484605e+02
  -1.076992e+02   1.659538e+02
  -1.476191e+02   4.098518e+01
  -1.919908e+02  -1.087723e+02
  -3.444613e+01  -2.173917e+02
   7.058342e+01  -1.615289e+02
   1.509786e+02   4.537613e+01
   4.236448e+01   1.184841e+02
   2.588140e+01   1.029107e+02
  -5.650453e+01  -1.096797e+01
  -3.517659e+01  -6.523823e+01
  -4.491462e+01  -2.599495e+01
  -2.377512e+01  -7.772513e+00
  -4.901114e+01   1.568992e+01
  -4.774131e+01  -9.157688e+01
  -6.482077e+01  -1.081205e+02
   5.777164e+01  -5.772734e+01
   1.163170e+02   4.808757e+01
   1.145895e+02   9.855529e+01
   2.902627e+00  -7.075099e+00
  -9.601735e+01  -1.534397e+00
  -9.023286e+01   1.099945e+01
   8.766603e+00  -1.843563e+01
   5.709765e+01  -4.419869e+01
   2.037475e+01  -2.125892e+01
  -7.595171e+01  -2.634163e+01
  -1.050050e+01   2.794235e+01
   7.816558e+01   6.942484e+00
   6.558366e+01   4.361763e+01
  -1.531994e+01   8.362748e+01
  -7.849074e+01   1.590766e+02
  -1.821981e+02   1.932741e+01
  -1.695362e+02  -4.670576e+01
  -2.257796e+01  -1.591306e+02
   1.053911e+02  -1.303116e+02
   1.133983e+02  -7.386162e+01
   8.388523e+01   3.294132e+01
  -9.509724e+00   1.491577e+01
   6.179730e+00   7.253560e+01
  -3.173051e+01   2.351390e+01
   5.574047e+01   2.715770e+01
   4.466195e-01   7.953448e+01
  -6.309298e+01   8.920694e+01
  -9.220851e+01   2.794440e+00
  -8.584949e+01  -1.111374e+02
  -2.627769e+01  -8.905398e+01
   8.046171e+01  -1.732487e+00
   1.603547e+02   7.457291e+01
  -3.329807e+00   1.675742e+02
  -1.296261e+02   1.448901e+02
  -1.118009e+02  -1.529197e+01
  -3.704167e+01  -1.649117e-01
   3.238837e+01  -5.846310e+01
   3.943199e+01   3.289683e+01
  -6.623221e+01  -1.139902e+01
  -9.324752e+01   3.487113e+01
  -3.421240e+01  -5.644789e+00
   7.482239e+01  -7.812820e+01
   1.069380e+02  -1.081654e+02
   2.476372e+01   2.675396e+01
  -2.803069e+01   1.254064e+02
  -5.525884e+01   1.051514e+02
  -6.600174e+01  -2.503129e+00
   1.140289e+01  -8.352159e+01
   4.011701e+01  -5.021531e+01
   1.378249e+01   4.000598e+01
   3.009381e+01   2.181707e+01
  -4.593567e+01   5.204892e+01
  -2.011804e+00  -1.974959e+01
  -7.809094e+01  -1.466451e+01
  -2.621885e+00  -3.084975e+01
   3.178624e+01   1.043424e+01
   4.371530e+00  -3.526066e+01
   4.163419e+01  -1.017692e+01
  -1.137946e+01   1.451676e+00
   3.601426e+01  -3.636127e+01
  -7.338043e+00   9.852792e+01
  -1.972490e+01   8.735485e+01
  -7.256295e+01  -1.067788e+01
   1.079867e+01  -5.431772e+01
  -4.386903e+01  -8.113713e+01
   7.769114e+01  -2.381029e+01
   1.235531e+02   5.582112e+01
   5.561255e+01   4.637773e+01
  -2.870654e+01  -7.004324e+00
  -9.655574e+01  -2.531379e+01
  -2.953734e+01  -1.755927e+01
   5.103922e+01   1.438331e+01
   3.889312e+01  -8.781331e+00
   1.703947e+00   4.538328e+01
  -5.171451e+01  -6.133197e+00
