
 $NMID
 id='ANONYMOUS ', fmtdat='(2E16.6)'
 volume=1.0
 tramp=1.0
 $END
   4.515676e+03   9.694372e+00
   2.649933e+03   2.788043e+03
  -8.744568e+02   2.924721e+03
  -2.274277e+03   8.173856e+02
  -9.239749e+02  -8.108165e+02
   7.575332e+02  -6.158312e+02
   9.762677e+02   4.781833e+02
   6.030385e+00   1.123859e+03
  -8.766889e+02   7.715928e+02
  -9.746305e+02  -1.368774e+02
  -3.879979e+02  -9.744840e+02
   3.128525e+02  -9.433131e+02
   7.048697e+02  -1.310314e+02
   4.415096e+02   7.727101e+02
  -2.524307e+02   8.136451e+02
  -6.385042e+02  -2.956387e+01
  -2.183038e+02  -6.990229e+02
   3.086223e+02  -6.828332e+02
   5.877251e+02  -1.405945e+01
   4.089649e+02   3.696893e+02
  -8.179496e+00   5.258232e+02
  -2.565157e+02   2.741740e+02
  -1.713154e+02  -1.499804e+01
   8.421944e+01  -1.391972e+02
   4.303801e+02   9.600429e+01
   2.238287e+02   4.343521e+02
  -4.926596e+02   4.806737e+02
  -8.986776e+02  -1.166057e+02
  -4.100914e+02  -5.347923e+02
   4.469964e+02  -5.129673e+02
   8.052207e+02   4.617778e+01
   3.631208e+02   5.100975e+02
  -2.783783e+02   5.748751e+02
  -5.734739e+02   2.067825e+02
  -4.146774e+02  -2.379303e+02
  -4.610622e+01  -5.173499e+02
   2.261441e+02  -2.883319e+02
   2.159699e+02   1.947872e+02
  -1.534328e+02   4.743290e+02
  -4.877606e+02   8.052803e+00
  -2.266243e+02  -6.911390e+02
   3.294264e+02  -8.027211e+02
   6.205668e+02   5.634532e+01
   3.521405e+02   6.291530e+02
  -3.482259e+02   3.580707e+02
  -4.130546e+02  -3.406498e+02
   6.514160e+01  -5.294649e+02
   5.802959e+02  -1.382182e+02
   6.448379e+02   3.920474e+02
   1.809541e+02   5.845715e+02
  -3.530193e+02   3.171381e+02
  -6.649511e+02  -1.274841e+02
  -3.933620e+02  -4.118844e+02
   1.567739e+02  -4.254395e+02
   4.913731e+02  -8.533901e+01
   2.432911e+02   2.572344e+02
  -1.259983e+02   1.245910e+02
  -1.517707e+02  -1.402020e+02
   1.656355e+02  -2.212539e+02
   2.856382e+02   7.787765e+01
   1.059232e+02   3.558950e+02
  -1.982663e+02   2.585733e+02
  -3.303058e+02   2.055383e+01
  -1.956744e+02  -1.121732e+02
   3.627394e+01  -1.896555e+02
   2.026286e+02  -2.712284e+02
   3.231553e+02  -2.378165e+02
   3.074634e+02   1.613003e+02
   1.055309e+02   4.095360e+02
  -1.610244e+02   3.904763e+02
  -1.518162e+02   1.256060e+02
  -3.446809e+01  -4.379809e+01
  -7.363018e+01   3.342899e+01
  -1.397564e+02   1.633851e+02
  -2.842560e+02  -3.421220e+01
  -1.515577e+02  -2.338636e+02
   6.439069e+01  -2.725421e+02
   2.482987e+02  -2.613105e+01
   2.496306e+02   2.376212e+02
   3.700443e+01   2.427936e+02
  -2.907032e+02   8.523937e+01
  -3.590065e+02  -1.256515e+02
  -1.883761e+02  -3.767946e+02
   1.766444e+02  -3.040357e+02
   2.017570e+02  -1.172084e+02
   1.612669e+02   6.035466e+01
   1.049163e+02  -5.683706e+01
   2.260888e+02  -1.160679e+02
   4.363679e+02   7.447909e+01
   3.056170e+02   2.504021e+02
   3.576733e+00   4.166783e+02
  -3.346132e+02   4.151921e+02
  -4.934119e+02   1.941351e+02
  -3.233806e+02  -1.012972e+02
  -4.795859e+01  -2.969506e+02
   1.328419e+02  -2.257777e+02
   8.198596e+01  -2.756483e+01
  -9.390604e+01   1.025894e+02
  -2.226210e+02   6.602140e+00
  -1.150375e+02  -2.229935e+02
   1.688382e+02  -2.059804e+02
   1.544016e+02   7.555632e+01
   5.872349e+00   2.289658e+02
  -2.127843e+02   1.255550e+01
  -1.799704e+02  -2.248867e+02
   3.825151e+01  -3.840918e+02
   2.153600e+02  -1.504502e+02
   3.070291e+02   7.851855e+01
   2.718482e+02   1.993508e+02
   5.240158e+01   2.239162e+02
  -7.863607e+01   2.165870e+02
  -1.977755e+02   1.617663e+01
  -5.399441e+01  -5.986155e+01
   7.478983e+01   5.109173e+01
   1.836923e+00   1.390096e+02
  -1.172134e+02   1.139058e+02
  -2.030288e+02  -1.831071e+01
  -7.818806e+01   1.092562e+01
   6.586468e+01  -4.858446e+00
   5.479231e+01   2.557349e+01
  -6.410748e+01   1.125119e+02
  -2.980683e+02  -9.144043e+00
  -2.465479e+02  -1.328062e+02
  -1.117453e+02  -2.606388e+02
   2.067245e+02  -2.291426e+02
   3.327391e+02  -1.291641e+02
   1.701182e+02   1.225855e+01
  -4.229929e+01   1.274815e+02
  -1.000221e+02  -2.640551e+01
  -1.609465e+01  -1.199438e+02
   2.034168e+02  -9.528584e+01
   1.938923e+02   8.053128e+01
   4.759223e+01   2.664300e+02
  -1.055038e+02   9.221907e+01
  -1.738074e+02   4.989963e+01
  -4.705416e+01   1.088584e+01
  -1.770191e+01  -1.431659e+01
   3.624817e+01   1.649295e+01
   2.085926e+01   8.194527e+01
  -1.930410e+02   8.423970e+01
  -1.664922e+02  -6.265110e+01
  -3.909792e+01  -2.382809e+02
   2.043268e+02  -1.808775e+02
   1.817743e+02  -8.906982e+00
   3.231398e+01   1.225598e+02
  -6.410826e+01   1.530687e+02
   1.899977e+00   7.056214e+01
   3.699263e+00  -3.062720e+01
   4.483002e+01   1.087099e+01
   1.422274e+01  -2.352061e+01
  -4.777675e+01  -3.155770e+01
  -8.961176e+01  -2.655961e+01
  -1.637777e-01  -1.952972e+02
   9.778722e+01  -1.439925e+02
   1.704862e+02  -5.544353e+01
   1.920875e+02   1.397859e+02
   4.078218e+01   2.204101e+02
  -7.854668e+01   1.851901e+02
  -1.202630e+02   5.598767e+01
  -7.838564e+01  -5.999205e+01
  -3.672765e+01  -3.200406e+01
  -8.501912e+01   3.692199e+00
  -1.363872e+02  -3.651408e+00
  -2.129238e+01   1.371046e+01
   7.721011e+01  -7.511110e+01
   1.515066e+02  -5.373412e+01
   1.003977e+02   5.830118e+01
   2.554873e+01   1.340374e+02
  -1.110135e+02   8.040807e+01
  -1.773926e+02  -8.651406e+01
  -1.001325e+02  -2.234485e+02
   8.913270e+01  -1.966563e+02
   2.971750e+02  -1.604368e+02
   2.895405e+02   9.256806e+01
   9.897287e+01   1.749233e+02
   1.150355e+00   1.472856e+02
  -1.072943e+02   1.217208e+02
  -9.988151e+01   7.535135e+01
  -5.981353e+01   5.390165e+01
  -1.029517e+02   9.536749e+01
  -1.106229e+02  -8.071308e+01
  -9.890990e+01  -1.231764e+02
  -7.109603e+01  -2.838253e+02
   1.231421e+02  -1.689784e+02
   1.722392e+02   2.371000e+01
   1.734420e+02   4.361991e+01
   1.264477e+01   1.836658e+02
  -6.380184e+01   1.452023e+02
  -6.976583e+01  -4.311264e+01
  -1.449224e+01  -2.105931e+01
  -3.664342e+01  -4.300639e+01
  -6.449759e+01  -2.218933e+01
  -7.939796e+01  -2.410399e+00
  -4.050801e+01  -9.315629e+01
   6.319496e+01  -1.726797e+01
   1.707559e+02   1.201610e+01
   2.068943e+02   6.196300e+01
  -2.908997e+01   9.374804e+01
  -1.498366e+02   5.705714e+01
  -1.168548e+02   5.890561e+01
  -6.839943e+01  -3.808856e+01
   1.113259e+02  -1.883535e+01
   2.849929e+01   6.871862e+01
  -2.995789e+01   6.265239e+01
  -3.194822e+01   7.047475e+01
  -7.653266e+01   3.392462e+01
  -1.045937e+02  -1.046067e+02
  -9.029458e+01  -4.481702e+01
  -4.858044e+01   1.854158e+01
  -1.126184e+02  -2.753653e+01
  -3.058850e+01  -3.713268e+01
   3.724752e+01  -1.191548e+02
   1.242585e+02  -1.105075e+02
   1.602572e+02  -3.005411e+01
   1.243190e+02   7.719220e+01
   1.424822e+01   1.483106e+02
  -3.831505e+01   7.983574e+01
  -1.749281e+01  -2.895076e+01
   1.513702e+01  -1.106553e+01
   1.559713e+02   6.116038e+01
   5.640133e+01   1.378146e+02
  -9.103843e+01   4.372661e+01
  -1.779222e+02   2.331641e+01
  -2.035657e+02  -6.296847e+01
  -8.866288e+01  -7.882963e+01
   1.096744e+02  -3.883555e+01
   1.017544e+02  -3.643887e+01
  -2.921913e+01   6.675931e+01
  -1.132861e+02  -2.495145e+01
  -2.884743e+01  -6.883657e+01
   5.161625e+01  -1.799592e+02
   2.222037e+02  -4.566045e+01
   1.434999e+02   1.172277e+02
   5.935592e+00   1.645021e+02
  -5.117226e+01   1.615881e+02
  -9.502199e+01  -1.809853e+01
  -6.247592e+00  -1.127169e+02
  -1.394039e+01  -1.291862e+02
   8.991490e+01  -3.302200e+01
   7.240171e+01   3.148424e+01
  -4.998583e+00  -1.225430e+01
  -1.340250e+01   1.891430e+01
  -1.660667e+01   1.039454e+01
  -2.332734e+01   1.346260e+02
   1.870744e+01   1.163758e+02
  -6.346946e+01   2.041165e+01
  -1.455912e+02  -6.921720e+01
  -1.079789e+02  -1.396228e+02
   2.576875e+01  -9.842403e+01
   7.997500e+01  -1.027913e+02
   1.176645e+02  -6.476519e+01
   5.738378e+01  -8.163282e+01
  -7.347933e+01   5.136933e+01
  -4.559094e+01   1.441415e+01
   4.498173e-01   4.916508e+01
   1.372714e+01  -2.703879e+01
  -1.146987e+02  -1.000529e+01
  -8.039071e+01  -1.310817e+01
   1.141354e+01  -7.435914e+01
   8.767982e+01  -1.442492e+02
   2.299996e+02  -9.442264e+01
   9.849448e+01   6.636284e+01
  -1.425230e+01   1.720608e+02
  -7.182018e+01   2.056535e+02
  -9.216130e+01   5.913991e+01
  -6.988548e+01  -5.721488e+01
  -7.270763e+01  -5.090730e+01
  -2.331303e+01  -3.680826e+01
  -5.804245e+01  -2.628094e+01
  -9.993548e+00  -5.401356e+01
  -5.723353e+01  -1.823873e+01
  -5.898286e+01  -7.554909e+01
   1.200243e+02   2.329365e+01
   5.782077e+01   1.072426e+02
  -3.144028e+01   1.703274e+02
  -1.007619e+02   4.279873e+01
  -1.162964e+02  -1.255950e+02
  -1.384941e+01  -1.039319e+02
   7.409579e+01  -3.228581e+01
   8.597754e+01  -2.812683e+01
   1.124634e+01   3.609426e+01
   1.824174e+01   6.251104e+01
  -1.717911e+01   1.597553e+01
   3.988233e+01   2.304854e+01
   9.393461e+01   2.448116e+01
   5.636627e+01   2.381984e+01
  -9.192234e+01   8.162284e+01
  -1.145451e+02   3.374664e+01
  -3.219005e+01  -7.187211e+01
   2.834303e+01  -6.576812e+01
   5.800141e+01  -5.297113e+01
   3.980679e+01   1.093764e+01
  -3.041607e+01   3.197095e+01
  -1.318354e+01   4.763466e+01
  -3.694643e+01  -2.135038e+01
   1.454968e+01  -6.530885e+01
   2.591086e+00  -5.950244e+01
   3.648173e+01   6.473553e+01
   5.313502e+01   1.449297e+01
   3.651938e+01  -1.747325e+00
  -2.863153e+01  -2.965633e+01
  -4.416545e+01   6.598626e+01
   7.628172e+00   4.130038e+01
  -5.854395e+01   9.297391e+01
  -3.547559e+01   1.618045e+01
   1.447125e+01  -3.209831e+01
  -7.556145e+00  -8.890660e+01
   3.734878e+01  -1.224737e+01
   6.163994e+01  -4.843159e+00
   2.341500e+00   6.332105e+01
  -2.234443e+01   3.838382e+01
  -9.832723e+01   5.205594e+01
  -6.035778e+01  -1.129890e+02
  -4.243492e+01  -5.885065e+01
   4.274053e+01  -2.258035e+01
  -3.725224e+01  -6.753880e+01
  -1.343065e+01   3.676187e+01
  -2.764776e+01  -6.265696e+01
   4.309687e+01  -1.847512e+01
   3.463618e+01   2.116183e+01
