
 $NMID
 id='ANONYMOUS ', fmtdat='(2E16.6)'
 volume=1.0
 tramp=1.0
 $END
   4.508560e+03   5.700753e+01
   2.594209e+03   2.767727e+03
  -8.531191e+02   2.866573e+03
  -2.297277e+03   8.800914e+02
  -9.637783e+02  -7.486450e+02
   7.721300e+02  -6.554929e+02
   9.508365e+02   4.548068e+02
  -2.964512e+01   1.143835e+03
  -8.395402e+02   8.316503e+02
  -9.534822e+02  -1.651238e+02
  -4.039783e+02  -9.336021e+02
   2.950001e+02  -9.407733e+02
   6.567097e+02  -7.187544e+01
   3.800384e+02   7.472685e+02
  -3.173869e+02   8.053858e+02
  -6.158939e+02  -3.769279e+01
  -2.930491e+02  -7.728231e+02
   4.004283e+02  -7.060805e+02
   6.419354e+02  -4.857305e+01
   4.085951e+02   3.854783e+02
   2.336835e+01   4.642690e+02
  -2.796844e+02   2.533156e+02
  -2.436438e+02  -1.445835e+01
   8.361910e+01  -1.201144e+02
   4.542060e+02   2.787887e+01
   2.451097e+02   4.632120e+02
  -4.668835e+02   4.214523e+02
  -9.150196e+02  -4.240808e+01
  -4.972690e+02  -5.245710e+02
   3.815802e+02  -5.308144e+02
   7.190171e+02   3.103276e+01
   3.736305e+02   5.495605e+02
  -2.835960e+02   5.477198e+02
  -5.743328e+02   1.875198e+02
  -4.555297e+02  -2.052910e+02
  -6.801641e+01  -5.101049e+02
   2.306478e+02  -2.824700e+02
   2.712146e+02   2.367418e+02
  -1.674739e+02   5.421368e+02
  -5.372573e+02  -5.641901e+00
  -2.566295e+02  -6.663050e+02
   3.546226e+02  -7.065604e+02
   6.217461e+02   2.623007e+01
   3.264270e+02   6.357929e+02
  -3.139041e+02   3.222531e+02
  -4.323457e+02  -2.890284e+02
   1.311517e+02  -5.636637e+02
   6.066109e+02  -1.653102e+02
   6.066199e+02   3.998324e+02
   1.587436e+02   5.672807e+02
  -4.225280e+02   3.890850e+02
  -6.426157e+02  -9.477187e+01
  -3.636015e+02  -4.239470e+02
   1.125103e+02  -3.784693e+02
   4.935869e+02  -9.828232e+00
   2.508768e+02   1.864016e+02
  -1.473559e+02   1.530964e+02
  -1.636525e+02  -1.208363e+02
   2.027621e+02  -2.254404e+02
   3.783946e+02   7.902875e+01
   1.776299e+02   3.328818e+02
  -2.225902e+02   2.840715e+02
  -3.110202e+02   5.444374e+01
  -1.769905e+02  -1.657155e+02
   3.125216e+01  -2.421799e+02
   2.764867e+02  -2.973616e+02
   3.333562e+02  -1.713829e+02
   3.260024e+02   1.097961e+02
   5.457174e+01   4.570944e+02
  -8.118849e+01   4.102208e+02
  -1.370272e+02   8.307315e+01
   8.017866e+00  -1.353620e+01
  -4.221678e+01   5.436444e+01
  -1.279506e+02   1.200772e+02
  -2.647556e+02  -1.135574e+02
  -1.636898e+02  -2.943120e+02
   6.104911e+01  -2.740609e+02
   2.652452e+02  -8.138507e+01
   1.986293e+02   2.320654e+02
  -3.819444e+01   3.050484e+02
  -2.696670e+02   8.188570e+01
  -3.932340e+02  -1.236897e+02
  -2.188499e+02  -3.721565e+02
   9.419342e+01  -2.793092e+02
   2.199781e+02  -1.249583e+02
   1.124356e+02   1.204429e+01
   1.457890e+02  -2.808947e+01
   1.864696e+02  -7.028589e+01
   4.447225e+02  -5.986624e+01
   3.706483e+02   3.058847e+02
   2.280671e+01   4.601945e+02
  -4.109426e+02   3.962891e+02
  -5.018295e+02   2.127772e+02
  -3.875778e+02  -8.241346e+01
  -5.049858e+01  -2.803326e+02
   1.525852e+02  -2.264041e+02
   1.170642e+02   1.318121e+00
  -1.508771e+02   4.554789e+01
  -2.067853e+02   2.430080e+01
  -1.356739e+01  -2.081505e+02
   1.715833e+02  -2.200839e+02
   2.003288e+02   6.104413e+01
  -6.275650e+01   1.832963e+02
  -1.615922e+02   1.189643e+01
  -1.970457e+02  -2.540760e+02
   1.795957e+01  -3.860579e+02
   2.561032e+02  -1.099114e+02
   3.066318e+02   4.319381e+01
   2.560320e+02   2.119261e+02
   9.438147e+01   3.049664e+02
  -8.022892e+01   1.731093e+02
  -1.643377e+02  -1.303089e+00
  -3.324389e+01  -2.138938e+01
   1.085959e+02   3.876186e+01
   6.828152e+01   1.397390e+02
  -1.259957e+02   1.390192e+02
  -2.266084e+02   2.860508e+01
  -5.178229e+01  -5.081550e+01
   5.649435e+01   9.017250e+00
   2.034224e+01   2.342306e+01
  -1.520248e+02   1.096325e+02
  -2.861867e+02   1.460887e+01
  -2.654751e+02  -8.930770e+01
  -9.804226e+01  -2.621427e+02
   1.750135e+02  -2.696501e+02
   2.658040e+02  -1.224794e+02
   1.706171e+02   8.580321e+01
   1.028640e+01   1.301931e+02
  -7.754668e+01  -3.782977e+01
  -4.213651e+01  -8.423471e+01
   1.826878e+02  -8.540747e+01
   1.891543e+02   1.105169e+02
   4.666237e+01   2.115350e+02
  -7.978472e+01   1.099759e+02
  -1.121840e+02   3.680187e+01
  -8.385131e+01  -3.931343e+01
   1.670410e+01  -3.268723e+01
   3.984371e+01   7.964251e+01
  -1.124475e+02   1.179055e+02
  -1.805605e+02   7.526969e+01
  -1.691597e+02  -1.191939e+02
  -2.926943e+01  -1.853613e+02
   1.590841e+02  -1.588445e+02
   2.579347e+02   5.249409e+01
   9.425907e+01   1.089061e+02
  -5.635355e+01   1.257052e+02
  -1.555945e+02   3.096831e+01
   1.940342e+01  -7.388945e+00
   9.779464e+00  -2.962236e+01
   8.821044e+00   3.384331e+01
  -2.533521e+01  -4.902813e+01
  -8.881357e+01  -8.174160e+01
  -5.935514e+01  -1.397027e+02
   1.337639e+02  -1.757138e+02
   2.244068e+02  -9.809608e+00
   2.480563e+02   1.484831e+02
   2.907804e+01   2.546338e+02
  -1.642494e+02   1.650559e+02
  -3.757832e+01   4.512551e+01
  -5.109170e+01  -5.002137e+01
  -5.953055e+01  -4.985317e+01
  -7.958273e+01  -8.766933e+00
  -5.492950e+01  -4.368458e+00
  -8.192725e+01  -1.076813e+02
   3.933654e+01  -9.724727e+01
   7.700379e+01  -7.083845e+01
   7.939054e+01   7.126271e+01
   7.680755e+00   9.329466e+01
  -1.664325e+02   5.840725e+01
  -2.003513e+02  -5.011280e+01
  -1.101273e+02  -1.836615e+02
   1.017374e+02  -2.503971e+02
   2.516783e+02  -1.435798e+02
   3.088053e+02   9.589003e+01
   7.387076e+01   2.021193e+02
  -6.614167e+01   1.446201e+02
  -8.231447e+01   1.005552e+02
  -5.656119e+01   8.763920e+01
  -3.716759e+01   1.386738e+02
  -1.325844e+02   7.433903e+01
  -1.062445e+02  -1.800854e+01
  -6.679216e+01  -2.034678e+02
  -2.048034e+01  -2.349307e+02
   1.336972e+02  -1.442455e+02
   1.787749e+02  -3.812271e+01
   1.384817e+02   7.332046e+01
   1.564861e+01   1.446557e+02
  -7.712898e+01   9.285803e+01
  -7.539130e+01   1.462403e+01
   1.727454e+01   8.804832e+00
   1.835473e+01  -6.687063e+01
   8.812795e-01  -4.421288e+01
  -6.153402e+01  -2.514530e+01
  -9.638114e+01   5.777391e+00
   4.656923e+01  -5.243993e+01
   1.413099e+02  -4.372200e+01
   9.831441e+01   1.626717e+01
   4.149548e-01   4.978609e+01
  -8.023722e+01   5.652424e+01
  -1.267902e+02  -4.918860e+00
  -4.768900e+00   8.537183e-01
   6.517765e+01   2.476361e+01
   8.495825e+01   9.881249e+00
  -3.217672e+01   9.499545e+01
  -2.541457e+00   5.224623e+01
  -4.686363e+01  -9.580498e-01
  -4.893338e+01  -5.829561e+01
  -7.071889e+01  -2.183346e+01
  -3.224259e+01   1.637383e+01
  -6.317622e+01   1.985998e+01
  -3.364009e+01  -6.363725e+01
   3.128613e+01  -1.274621e+02
   1.543628e+02  -1.645119e+02
   1.773549e+02  -1.866240e+01
   1.031771e+02   9.759785e+01
   1.952605e+01   1.777004e+02
  -7.915654e+01   8.344677e+01
  -3.351479e+01  -2.163541e+01
   2.112010e+01  -1.684127e+00
   9.961030e+01   3.906578e+01
   9.281896e+01   6.137956e+01
  -7.286555e+01   7.943079e+01
  -1.675800e+02   9.426359e+01
  -1.740404e+02  -4.441796e+01
  -3.196743e+01  -5.477981e+01
   4.693114e+01  -9.014578e+01
   5.497268e+01  -5.342989e+01
  -2.181215e+01   7.642833e+00
  -1.030349e+02  -3.735128e+01
  -5.301511e+01  -1.098213e+02
   8.566866e+01  -1.524545e+02
   1.710874e+02  -1.056286e+02
   8.056809e+01   1.437217e+02
   3.681094e+01   2.009804e+02
  -9.070117e+01   1.349287e+02
  -1.194580e+02   1.082685e+01
  -3.194071e+01  -1.165580e+02
   1.960451e+01  -1.311512e+02
   4.318967e+01  -8.525095e+01
   7.288950e+01   3.328790e+01
   2.075075e+01   5.133677e+01
   6.343116e+01   3.136004e+00
   4.964242e+01  -3.625305e+01
   6.883313e+01   8.671698e+01
  -2.797544e+01   8.014096e+01
  -1.098078e+02   5.048513e+01
  -9.474750e+01  -3.654732e+01
  -1.118894e+02  -1.009371e+02
  -1.870491e+01  -1.116043e+02
   9.844907e+01   1.178928e+00
   1.086120e+02   6.140260e+00
  -1.912933e+01  -2.570431e+01
  -1.697942e+01  -1.496816e+01
   1.002712e+01   1.042766e+01
  -2.673753e+00  -3.147915e+01
  -5.667868e+01   4.512840e+01
   2.310915e+00   3.642835e+01
  -7.633528e+01  -9.055824e+00
   1.605195e+01  -8.755767e+01
   1.175344e+02  -1.000265e+02
   1.558683e+02  -8.916360e+01
   1.516047e+02   5.257109e+01
   3.649518e+01   1.735477e+02
  -9.751813e+01   1.659732e+02
  -1.381255e+02   5.199763e+01
  -7.061463e+01  -3.954051e+01
  -5.372517e+01  -1.506986e+01
  -4.962985e+01   2.566375e+01
  -7.826680e+00   1.474487e+01
  -5.807512e+01  -1.978543e+01
  -3.457685e+01  -6.771428e+01
   3.754865e+01  -8.172028e+01
   7.535190e+01   3.246445e+01
   7.466679e+01   1.301697e+02
  -2.368341e+00   7.634253e+01
  -1.605659e+01   9.140791e+01
  -4.265909e+01  -4.909383e+01
   1.932721e+01  -8.700527e+01
   9.543800e+01  -5.164488e+01
   1.147644e+02  -2.321228e+01
   4.602178e+01   5.192683e+01
  -8.166675e+01   1.168752e+02
  -5.018516e+01   2.053368e+01
   3.349015e+01  -5.686432e+00
   3.191212e+01   9.322066e+00
   2.519847e+01   2.069012e+00
  -8.904007e+01   8.206988e+01
  -6.843435e+01   6.893508e+01
  -4.705182e+01  -2.032784e+01
   7.140575e+00  -1.100703e+02
   7.621165e+01  -9.435757e+01
   2.841186e+01  -1.286635e+01
  -1.066789e+01   4.082798e+01
   7.845650e+00   4.320269e+01
  -4.652212e+01  -8.519426e+01
  -6.540752e+01  -7.378510e+01
  -1.887159e+01  -5.503778e+01
   4.517999e+01   2.482642e+01
   1.000773e+01   4.004782e+00
   6.121327e+01  -2.621869e+01
  -2.263320e+01   2.082326e+01
   3.666139e+00   4.815457e+01
   1.154098e+01   1.992268e+01
  -4.643655e+01   5.257321e+01
  -7.712720e+01  -3.410387e+01
  -2.513376e+01  -5.844798e+01
  -3.223073e+01  -5.404408e+01
   2.686871e+01   1.523492e+01
   2.462809e+01   4.485895e+01
   7.516851e+00   5.598281e+01
  -6.023577e+01   2.629174e+01
  -6.041211e+01  -8.931365e+01
  -7.109263e+01  -7.106414e+01
   4.793999e+01  -7.502284e+01
   1.008323e+00  -2.213564e+01
  -1.827522e+01  -2.976735e+01
  -1.565732e+01   1.666601e+01
  -1.341626e+01  -1.443839e+00
   1.253410e+01   1.553814e+01
   1.520209e+02  -1.289243e+01
