
 $NMID
 id='ANONYMOUS ', fmtdat='(2E16.6)'
 volume=1.0
 tramp=1.0
 $END
  -4.319984e+03   7.069373e+01
  -2.621543e+03  -2.588110e+03
   6.904947e+02  -2.745025e+03
   2.115004e+03  -9.647355e+02
   9.638299e+02   6.078160e+02
  -5.714676e+02   5.175171e+02
  -8.673077e+02  -3.910153e+02
  -5.941970e+01  -1.060714e+03
   8.087820e+02  -7.629966e+02
   9.282278e+02   7.467314e+01
   4.505796e+02   9.004034e+02
  -2.286173e+02   8.701698e+02
  -6.073799e+02   1.364730e+02
  -4.381638e+02  -6.908244e+02
   2.295297e+02  -7.176652e+02
   6.476754e+02  -2.676817e+01
   2.686419e+02   6.736600e+02
  -2.473606e+02   6.294677e+02
  -5.631243e+02   1.228633e+02
  -3.813732e+02  -3.961110e+02
  -6.629907e+01  -4.790158e+02
   2.118991e+02  -2.883497e+02
   1.807015e+02  -3.743874e+01
  -1.057564e+02   4.009672e+01
  -4.017394e+02  -1.024763e+02
  -1.633136e+02  -4.626673e+02
   4.623762e+02  -4.066190e+02
   7.950112e+02   1.472320e+02
   5.074407e+02   5.935724e+02
  -3.883209e+02   4.883727e+02
  -7.076296e+02  -4.699886e+01
  -2.863721e+02  -4.618876e+02
   2.846304e+02  -5.051016e+02
   5.615805e+02  -2.522011e+02
   4.351085e+02   2.322354e+02
   4.683521e+01   4.535376e+02
  -1.831451e+02   2.868839e+02
  -1.278886e+02  -2.247356e+02
   1.604961e+02  -4.170597e+02
   3.998787e+02   5.720533e+01
   2.023255e+02   6.589715e+02
  -3.013471e+02   7.091028e+02
  -5.468127e+02   4.297835e+01
  -2.495852e+02  -5.419500e+02
   2.922536e+02  -3.310062e+02
   4.377531e+02   3.193533e+02
  -4.499810e+01   5.233346e+02
  -5.529222e+02   1.776873e+02
  -6.206000e+02  -4.364637e+02
  -1.949545e+02  -5.502261e+02
   3.079034e+02  -3.735307e+02
   6.053913e+02   6.417657e+01
   3.887804e+02   3.247042e+02
  -8.099158e+01   3.407112e+02
  -4.148027e+02   7.426317e+01
  -2.408679e+02  -1.757457e+02
   9.548943e+01  -9.523233e+01
   9.686390e+01   1.538309e+02
  -1.357310e+02   1.830063e+02
  -3.068300e+02  -6.423626e+01
  -1.797473e+02  -3.602429e+02
   1.945117e+02  -3.387925e+02
   2.573921e+02  -4.426703e+01
   2.414252e+02   2.541398e+01
  -1.201607e+00   2.518402e+02
  -2.366839e+02   2.939987e+02
  -3.226954e+02   2.766932e+02
  -2.585069e+02  -1.282594e+02
  -4.380629e+01  -5.108473e+02
   7.926463e+01  -3.879142e+02
   1.170708e+02  -1.191902e+02
   1.179969e+01  -1.502417e+01
   2.442706e+01  -6.886459e+01
   2.327569e+02  -1.123694e+02
   3.227526e+02   3.617710e+01
   1.468707e+02   2.610741e+02
  -3.622760e+01   2.368175e+02
  -2.327801e+02   4.977725e+01
  -1.617453e+02  -2.343231e+02
   5.272453e+01  -2.722514e+02
   2.671504e+02  -6.851464e+01
   3.482940e+02   2.065418e+02
   1.814909e+02   3.519011e+02
  -1.221523e+02   2.665092e+02
  -1.804330e+02   1.709664e+02
  -1.650841e+02  -9.715786e+01
  -9.107906e+01   2.164479e+01
  -2.468952e+02  -8.964365e+00
  -4.346023e+02  -9.644294e+00
  -3.243178e+02  -2.895364e+02
   2.043620e+01  -4.991169e+02
   3.559276e+02  -4.011592e+02
   4.641663e+02  -1.810143e+02
   3.020490e+02   1.088408e+02
   1.196076e+02   3.016736e+02
  -1.478616e+02   2.334310e+02
  -8.630916e+01   4.477230e+01
   7.109397e+01  -1.321203e+02
   1.923820e+02   1.433718e+01
   6.634272e+01   1.712908e+02
  -1.181877e+02   1.562824e+02
  -2.081733e+02  -2.672139e+01
  -3.738846e+01  -1.662424e+02
   1.989506e+02  -4.598297e+01
   2.076365e+02   2.231078e+02
  -1.367697e+01   4.184989e+02
  -1.865845e+02   1.943633e+02
  -3.438510e+02  -4.310701e+01
  -2.908305e+02  -2.445603e+02
  -1.359790e+02  -3.166377e+02
   1.354776e+02  -2.042989e+02
   1.834470e+02  -1.885397e+00
   1.253850e+02  -1.500314e+01
  -1.473620e+02  -4.559196e+01
  -4.752715e+01  -1.481301e+02
   1.402545e+02  -1.153211e+02
   1.091894e+02   6.019946e+01
   6.715484e+01  -1.123310e+01
  -8.775368e+01  -5.357796e-01
  -6.544684e+01  -1.165411e+02
   1.756546e+02  -1.551102e+02
   2.836904e+02   1.761882e+01
   2.780188e+02   1.608095e+02
   5.407274e+01   2.613804e+02
  -1.948127e+02   2.751225e+02
  -2.557279e+02   1.410222e+02
  -1.520997e+02   1.118839e+01
   1.774367e+01  -1.438818e+02
   1.107331e+02  -4.149448e+00
  -4.348631e+01   1.153370e+02
  -1.932558e+02   7.984850e+01
  -1.754378e+02  -1.470446e+02
  -7.472506e+01  -2.119406e+02
   9.576507e+01  -1.657409e+02
   1.521666e+02  -5.973457e+01
   7.190890e+01   9.332815e+00
  -9.877549e+00   3.398109e+01
  -1.004988e+01  -1.119753e+02
   7.463274e+01  -9.277960e+01
   2.542204e+02  -8.400789e+00
   1.693793e+02   1.426368e+02
  -1.292189e+01   2.639478e+02
  -2.040197e+02   1.663543e+02
  -1.663053e+02   1.210396e+01
  -3.327887e+01  -7.435570e+01
   6.147595e+01  -7.372262e+01
   1.401395e+02  -2.374588e+01
   8.430127e-01   9.168632e+00
  -2.995648e+01   1.830529e+00
   3.372575e+01   2.774854e+01
   5.261334e+01   3.050667e+01
   9.335813e+01   4.316212e+01
   1.609503e+01   2.062053e+02
  -1.492914e+02   1.387130e+02
  -2.673714e+02   8.271239e+00
  -1.658849e+02  -1.449295e+02
  -2.621295e+01  -2.100196e+02
   1.342207e+02  -1.079139e+02
   9.982859e+01  -4.825026e+01
   8.708101e+01  -4.299015e+00
  -2.361123e+01   5.419963e+01
   6.735466e+01   1.679429e+01
   9.526554e+01  -1.142488e+01
   1.026268e+02   1.117334e+02
  -2.675114e+01   6.726797e+01
  -9.805489e+01   7.134765e+01
  -1.512387e+02  -2.728310e+01
   2.518455e+01  -1.173897e+02
   1.623367e+02  -6.504454e+01
   1.920039e+02   8.968301e+01
   1.409742e+02   2.089717e+02
  -1.159041e+02   2.505925e+02
  -3.048401e+02   1.471334e+02
  -2.555748e+02  -1.159837e+02
  -9.347976e+01  -1.419636e+02
   7.360261e+01  -1.472641e+02
   6.713486e+01  -1.075929e+02
   2.665376e+01  -9.410353e+01
   4.691528e+01  -1.099784e+02
   8.539387e+01  -8.450426e+01
   9.207599e+01   8.503630e+00
   1.616419e+02   1.685847e+02
   1.448685e+01   2.796556e+02
  -8.867570e+01   1.254042e+02
  -1.324158e+02   4.176707e+01
  -1.048936e+02  -1.330629e+02
  -3.149176e+01  -1.757893e+02
   8.380570e+01  -1.093218e+02
   7.147799e+01   1.595549e+01
  -2.230375e+00   5.969544e+01
  -1.118329e+01   2.380714e+01
   9.144428e+00  -4.495574e+00
   5.726481e+01  -1.517986e+01
   4.657037e+01   3.046698e+01
  -3.212193e+01   3.208552e+01
  -2.036603e+02   1.221235e+01
  -1.540479e+02  -5.953838e+01
   1.529949e+01  -1.169898e+02
   1.310012e+02  -8.609100e+01
   1.641795e+02   1.651693e+01
   3.026172e+01   7.655487e+01
  -7.116234e+01   1.449719e+01
  -7.230669e+01  -1.892659e+01
   2.329249e+01  -8.338778e+01
   6.710070e+01   2.529265e-01
   4.313753e+01   8.083711e+00
   6.945939e+01   8.202380e+01
   4.625232e+01   1.277875e+01
   4.927976e+01  -1.482522e+01
   7.070248e+01   1.671102e+01
   1.775827e+01   9.514221e+01
  -1.711334e+01   1.875309e+02
  -1.228568e+02   1.815123e+02
  -1.326584e+02   4.524257e+00
  -1.581384e+02  -4.903760e+01
   1.825611e+01  -5.948947e+01
   1.036702e+02  -5.175877e+01
   7.197723e+01   2.176999e+00
  -3.221746e+01   4.907554e+01
  -8.442546e+01  -5.562102e+01
  -1.038744e+02  -1.351547e+02
   3.833388e+01  -1.310671e+02
   1.818485e+02  -9.393213e+01
   1.459159e+02   1.423524e+01
   7.474537e+00   1.187968e+02
  -2.367310e+01   7.498600e+01
  -5.863082e+01  -4.317256e+01
   4.256132e+01  -2.163912e+01
   1.139312e+02   6.166094e+01
   2.979282e-02   9.886808e+01
  -6.648934e+01   1.721129e+02
  -1.897613e+02   1.082290e+02
  -1.333226e+02  -1.063374e+02
  -1.501582e+00  -2.095575e+02
   9.275328e+01  -1.413588e+02
   1.392620e+02   2.080454e+01
   6.706678e+01   1.392912e+02
  -6.658920e+00   5.654630e+01
  -1.797777e+01  -5.781420e+00
  -1.195621e+02  -3.218388e+01
  -2.685928e+01   6.407223e+01
   9.189760e+00   1.810659e+01
  -1.219961e+01  -3.258267e+01
  -3.097995e+01  -6.251562e+01
  -2.144882e+01  -9.625170e+01
   1.226049e+01  -2.396479e+01
   1.183563e+02   6.163588e+01
   1.350643e+02   2.939688e+01
   4.104185e+01   4.074099e+01
  -1.453265e+02   1.954407e+01
  -8.152979e+01   2.016088e+01
  -1.474235e+01  -3.923210e+01
   4.054785e+01  -3.760436e+01
   9.610905e+01  -8.384116e-02
  -6.184118e+01  -2.988125e+01
   1.646830e+01  -5.865986e+00
   6.968590e+01   1.076117e+01
   7.443913e+01   2.095931e+01
   1.772375e-01   8.317035e+01
  -1.123344e+02   7.933642e+01
  -2.016410e+02   6.162331e+01
  -1.074486e+02  -4.604803e+01
   7.802149e+00  -1.450347e+02
   6.478908e+01  -1.534004e+02
   6.575166e+01  -7.187022e+01
   7.810031e+01   1.000260e+01
  -1.810342e+01   2.251790e+01
   1.735465e+01   3.444536e+01
   2.091818e+01  -5.121025e+01
   3.418777e+01   4.112327e+01
  -3.814289e+00   9.182004e+01
  -3.201881e+01   6.521433e+01
  -4.733500e+01  -9.096909e+01
  -1.154408e+02  -6.885463e+01
  -4.502368e+01  -1.229345e+02
   1.100393e+02  -1.196781e+01
   7.471735e+01   1.055886e+02
   1.842640e+01   3.750834e+01
  -8.059147e+01   7.209978e+01
  -8.784088e+01  -1.806157e+01
  -6.215731e+01  -1.070221e+02
   6.158551e+01  -6.934765e+01
   4.263040e+01  -8.169871e+00
  -5.385333e+01   1.633926e+01
  -1.142771e+02  -1.654525e+01
  -4.749286e+01   6.612896e+00
   1.818575e+01  -1.648674e+01
   9.072927e+01  -8.888685e+01
   7.695112e+01   1.222030e+00
  -5.666034e+01   9.799156e+01
  -6.537846e+01   1.021283e+02
  -3.583060e+01   3.986488e+01
   4.052035e+01  -7.472699e+01
   6.248005e+01  -4.963478e+01
   3.846268e+01  -5.042510e+01
   1.642443e+01   7.339003e+01
  -2.597538e+01   7.396599e+01
  -3.229156e+01  -5.054050e+00
  -7.037486e+01  -4.531833e+00
  -1.152243e+01  -2.647449e+01
  -2.136217e+01   7.010605e+00
   1.018578e+02  -1.469617e+01
  -1.731583e+01  -4.326309e+01
   3.970975e+01  -4.900665e+01
   8.660323e+01  -4.427995e+01
   7.872541e+01   5.363285e+01
  -2.792381e+01   8.128241e+01
  -7.384529e+01   6.083525e+00
  -2.647477e+01  -4.166646e+01
  -3.173142e+00  -4.353300e+01
   4.521490e+01  -2.833291e+01
   1.278031e+02  -5.090392e+01
   9.432543e+01   4.073842e+01
  -8.074693e+01   4.597420e-01
  -6.838521e+01   3.513937e+01
   5.721488e+01  -4.968993e+01
   4.299071e+01   9.706420e+00
   3.477988e+01   1.395166e+01
  -5.836824e+01   9.148532e+00
  -6.457333e+01   2.314860e+01
