
 $NMID
 id='ANONYMOUS ', fmtdat='(2E16.6)'
 volume=1.0
 tramp=1.0
 $END
  -4.703260e+03  -5.109118e+01
  -2.708693e+03  -2.856984e+03
   8.680270e+02  -2.966322e+03
   2.338678e+03  -8.799562e+02
   9.127556e+02   8.444570e+02
  -7.659475e+02   7.293443e+02
  -1.051656e+03  -5.364617e+02
   7.497737e+01  -1.192380e+03
   9.263778e+02  -7.897829e+02
   9.655797e+02   1.602595e+02
   4.948826e+02   9.853653e+02
  -2.812437e+02   9.536188e+02
  -7.349943e+02   7.890229e+01
  -4.075955e+02  -7.392601e+02
   3.254573e+02  -8.027562e+02
   6.799578e+02  -1.032703e+01
   2.476004e+02   7.625728e+02
  -3.919827e+02   6.434291e+02
  -5.711518e+02   6.385891e+01
  -3.618005e+02  -3.964102e+02
   3.206672e+00  -5.023648e+02
   3.178213e+02  -2.985017e+02
   2.537508e+02   3.464150e+01
  -1.233267e+02   1.352958e+02
  -4.180102e+02  -6.930009e+01
  -2.804944e+02  -4.516706e+02
   4.875786e+02  -4.873102e+02
   9.379303e+02   2.258158e+01
   4.557507e+02   6.355286e+02
  -4.022760e+02   5.330537e+02
  -8.231574e+02  -6.015336e+01
  -3.514491e+02  -5.833084e+02
   3.178384e+02  -5.849675e+02
   5.871167e+02  -2.299427e+02
   4.836366e+02   2.355607e+02
   4.247653e+01   5.022322e+02
  -2.296378e+02   3.452290e+02
  -2.585254e+02  -2.525826e+02
   1.338029e+02  -5.202617e+02
   5.110877e+02   1.251367e+01
   2.476764e+02   7.666118e+02
  -3.759468e+02   8.153396e+02
  -6.769109e+02   2.740863e+01
  -2.157096e+02  -6.103279e+02
   3.066565e+02  -3.378967e+02
   4.720517e+02   3.955670e+02
  -3.890356e+01   5.938725e+02
  -5.912183e+02   1.442317e+02
  -6.531302e+02  -4.083235e+02
  -1.292218e+02  -6.055717e+02
   4.222829e+02  -3.856336e+02
   6.764253e+02   9.339596e+01
   4.383735e+02   4.158283e+02
  -1.788577e+02   4.271606e+02
  -4.547671e+02   1.650058e+01
  -2.690726e+02  -2.703364e+02
   1.430059e+02  -1.037193e+02
   1.717185e+02   1.423178e+02
  -9.373700e+01   2.289282e+02
  -3.665352e+02  -7.217362e+01
  -1.576125e+02  -3.375402e+02
   2.228393e+02  -2.223594e+02
   3.399434e+02  -3.317923e+01
   1.992581e+02   9.904669e+01
  -6.475385e+01   1.900303e+02
  -2.578292e+02   2.981478e+02
  -2.945851e+02   2.125311e+02
  -3.120589e+02  -1.486449e+02
  -1.330857e+02  -4.010699e+02
   1.519444e+02  -4.224615e+02
   1.715059e+02  -1.028667e+02
   2.800842e+01   7.971297e+01
   3.909773e+01  -9.096606e+01
   2.100499e+02  -1.615534e+02
   3.133785e+02   5.185644e+01
   1.899605e+02   3.093665e+02
  -6.668630e+01   3.121627e+02
  -2.534868e+02   2.346661e+01
  -1.986387e+02  -2.921436e+02
   1.844844e+01  -2.369896e+02
   2.602464e+02  -1.791889e+02
   4.071172e+02   1.567386e+02
   2.465512e+02   3.517673e+02
  -8.459769e+01   2.818305e+02
  -3.234609e+02   1.484759e+02
  -1.979688e+02  -2.971202e+00
  -1.106977e+02  -1.790937e+00
  -2.456418e+02   8.304003e+01
  -4.461935e+02  -5.940972e+01
  -3.762867e+02  -2.966377e+02
   1.814059e+01  -4.387837e+02
   4.065748e+02  -4.218048e+02
   5.335638e+02  -1.567836e+02
   3.093175e+02   2.670210e+01
   5.257883e+01   2.862248e+02
  -1.477667e+02   2.719220e+02
  -1.122473e+02   4.935702e+01
   1.687056e+02  -8.825388e+01
   2.499702e+02   3.879380e+01
   8.380225e+01   2.153027e+02
  -2.005397e+02   2.095497e+02
  -2.346445e+02  -7.505162e+01
   4.876896e+01  -1.951735e+02
   2.808251e+02  -7.654643e+01
   1.902990e+02   2.893964e+02
  -7.159824e+01   3.862947e+02
  -2.341114e+02   1.836863e+02
  -3.751718e+02  -6.341560e+01
  -2.658113e+02  -2.357235e+02
  -8.445072e+01  -3.012781e+02
   1.460731e+02  -1.296837e+02
   1.602928e+02  -5.984522e+01
   8.189418e+01   2.802727e+01
  -9.571176e+01  -1.082378e+01
  -2.673312e+01  -1.288302e+02
   1.507689e+02  -1.157431e+02
   1.990680e+02   2.778642e+00
   3.632441e+01   1.001176e+02
  -1.298535e+02   1.612948e+01
  -3.900361e+01  -9.634767e+01
   1.545753e+02  -1.069790e+02
   2.971011e+02   2.135663e+01
   2.308890e+02   1.247997e+02
   5.933193e+01   2.879388e+02
  -1.138316e+02   3.137796e+02
  -3.248315e+02   1.645520e+02
  -1.574036e+02  -2.873097e+01
   2.680670e+01  -6.821502e+01
   1.382787e+02   1.672510e+01
  -3.322150e+01   1.270916e+02
  -2.410255e+02   5.067479e+01
  -2.234837e+02  -1.066570e+02
  -5.089445e+01  -1.745427e+02
   7.834641e+01  -2.103684e+02
   1.083406e+02  -4.998409e+01
   1.134767e+02   5.702888e+01
  -5.644599e+01   3.344626e+01
  -3.178067e+01  -7.778836e+01
   7.313419e+00  -1.472672e+02
   2.281938e+02  -7.850099e+01
   1.980655e+02   1.362811e+02
   4.058072e+01   2.652984e+02
  -1.701532e+02   1.514848e+02
  -1.866158e+02   1.501007e+01
  -1.332701e+02  -8.550494e+01
   1.274785e+02  -1.441710e+02
   5.312223e+01  -2.301652e+00
   6.515034e+01   8.474310e+00
   3.301929e+01   4.098044e+01
   3.242416e+01  -2.762003e+00
   4.127094e+01   1.561933e+00
   5.602992e+01   8.293519e+01
  -1.513385e+01   1.453427e+02
  -1.642307e+02   2.043124e+02
  -2.325937e+02   2.611554e+01
  -2.269545e+02  -1.316138e+02
  -2.528385e+01  -2.498864e+02
   1.172956e+02  -1.521341e+02
   1.616357e+02  -4.699900e+01
   7.048882e+01   5.081979e+01
   2.312774e+00   2.138768e+00
   6.149824e+01  -1.393363e+01
   7.228996e+01  -1.071167e+01
   2.586975e+01   2.160162e+01
  -1.452299e+01   9.945021e+01
  -1.105445e+02   6.265189e+01
  -5.309753e+01  -1.278420e+01
   3.652309e+01  -1.168338e+02
   1.419894e+02  -6.790950e+01
   1.657042e+02   6.735490e+01
   1.462655e+02   1.964872e+02
  -1.733759e+02   2.375798e+02
  -2.560538e+02   1.328287e+02
  -2.623180e+02  -6.333839e+01
  -1.746194e+02  -1.692892e+02
   2.459658e+01  -1.657410e+02
   1.404953e+02  -6.146836e+01
   1.375224e+02  -6.705046e+01
   8.728648e+01  -9.277871e+01
   7.372202e+01  -5.361623e+01
   1.458058e+02   2.303248e+01
   9.433283e+01   1.402152e+02
  -2.684229e+00   2.179569e+02
  -8.441510e+01   2.457199e+02
  -1.921392e+02   2.655687e+01
  -2.067383e+02  -1.359174e+02
  -9.070115e+00  -1.870360e+02
   4.548426e+01  -2.018847e+01
   6.752051e+01   2.807047e+01
  -1.367469e+01   3.993260e+01
  -8.788133e+00   1.386796e+01
  -1.042478e+01  -3.958095e+01
   9.025454e+01   5.058653e+01
   5.100457e+01   6.996243e+01
  -6.166794e+01   1.757245e+01
  -1.054278e+02   1.821282e+01
  -1.303961e+02  -7.499105e+01
   1.509177e+01  -1.270673e+02
   1.400855e+02  -5.915666e+01
   1.313399e+02  -2.796141e+01
   4.074860e+01   1.220925e+01
  -5.297524e+01   4.679573e+01
  -6.121627e+01   1.223211e+01
  -3.456337e+01  -8.429043e+01
   1.237693e+02  -1.133599e+02
   4.930291e+00  -2.956287e+01
   1.106771e+00   9.130001e+01
   1.037840e+02   2.985597e+01
   3.264655e+01   4.784642e+01
   7.144911e+01   6.860976e+01
   1.615116e+01   5.776427e+01
  -2.832466e+00   1.027593e+02
  -1.096793e+02   1.369438e+02
  -1.637667e+02   7.390139e+01
  -1.613475e+02  -9.669912e+01
   3.717287e+00  -8.892211e+01
   1.203847e+02  -7.199427e+01
  -9.450364e+00   2.222819e+01
  -8.451809e+01   7.132081e+00
  -7.602443e+01  -1.255883e+01
  -9.055467e+01  -1.227567e+02
   7.755423e+01  -1.066045e+02
   2.239761e+02  -7.056504e+01
   2.058955e+02   3.487442e+01
   3.045024e+01   1.214294e+02
  -8.994591e+01   9.961121e+01
  -6.635561e+01  -1.692502e+01
   4.281697e+01  -2.643714e+00
   7.478401e+01   4.233295e+01
   4.562778e+01   2.112642e+02
  -1.030488e+02   1.553263e+02
  -1.664448e+02   7.113211e+01
  -1.482786e+02  -6.621499e+01
   2.084982e+01  -2.555470e+02
   4.846593e+01  -1.208635e+02
   9.150393e+01   1.894131e+01
   3.225422e+01   1.232345e+02
   2.786904e+01   1.421488e+02
  -6.770936e+01   1.284288e+01
  -4.914824e+01  -2.986722e+00
  -7.683268e+00  -2.224659e+01
   1.920194e+01  -8.878510e+00
   1.420600e+00   3.340239e+01
  -5.108683e+01  -1.321628e+02
  -2.745583e+01  -1.216989e+02
   6.836518e+01  -7.824028e+01
   1.610332e+02   5.612690e+01
   1.611682e+02   8.754177e+01
  -1.220699e+01   6.269786e+01
  -1.172096e+02  -3.217376e+01
  -8.818126e+01  -1.623835e+01
   4.713676e+00  -2.254052e+01
  -6.306608e+00   3.668240e+01
  -2.131509e+01  -2.774550e+01
   4.117063e+01  -2.775632e+01
   4.084972e+01   9.886716e+00
   8.246135e+01   9.615108e+00
   7.836152e+01   5.954106e+01
   1.467117e+01   1.181927e+02
  -1.075798e+02   1.355923e+02
  -1.716506e+02   6.034951e+01
  -1.251389e+02  -7.542756e+01
  -3.132167e+01  -1.760251e+02
   2.641851e+01  -1.597594e+02
   9.263819e+01  -5.782531e+01
   1.661475e+02   2.515823e+01
   4.019922e+01   5.026086e+01
   2.191637e+00   5.776573e+01
  -5.706638e-01   2.321740e+01
   4.762744e+01   3.244965e+01
   1.324264e+01   7.065903e+01
  -3.653600e+01   7.561983e+01
  -9.620002e+01  -5.775224e+01
  -3.510107e+01  -1.288008e+02
  -5.707045e-01  -1.337978e+02
   6.728841e+01  -5.618553e+00
   1.303357e+02   3.761430e+01
   9.937904e+00   1.089892e+02
  -4.402694e+01   4.455807e+01
  -8.175952e+01  -3.482511e+01
  -4.731212e+01  -4.880021e+01
   2.568804e+01  -8.050129e+01
   7.162696e+01  -2.538298e+01
  -5.417583e+01  -2.490205e+01
  -5.523947e+01   5.645690e+01
  -3.962442e+01  -2.118597e+01
   8.928426e+01  -5.800734e+01
   1.256835e+02  -3.488519e+01
   1.601421e+02   1.471156e+01
  -4.951346e+01   4.232437e+01
   1.310632e+01   5.204534e+01
  -2.963801e+00   5.478744e+01
  -7.545706e+00  -1.121714e+01
   1.882624e+01  -2.451621e+01
   3.088170e+01   5.000217e+01
   3.456558e+01   6.321269e+01
  -2.411608e+01   1.735103e+01
  -4.685028e+01  -6.581583e+00
  -5.068112e+01  -1.469351e+01
  -5.324158e+01   8.313195e+00
   1.061774e+01   7.093583e+01
   1.106255e+01  -9.589537e+00
   4.278618e+01  -1.747397e+01
   2.605891e+00  -3.161439e+01
   1.478435e+01  -3.332376e+01
   6.139306e+01   8.182433e+01
  -5.237048e+01   5.168130e+01
  -5.816643e+01  -2.777032e+01
  -5.711040e+01  -4.780585e+01
   1.537414e+01  -5.690916e+01
   4.349358e+00  -3.020331e+01
   8.994185e+01   6.980539e+01
   3.935793e+01   4.006626e+01
  -3.534098e+01   7.500576e+01
  -6.090514e+01  -3.897211e+01
  -1.292687e+01   1.328214e+01
   5.365190e+01  -5.813686e-01
   4.200881e+01  -6.768811e+01
  -4.134166e+01   8.745709e+01
  -9.021665e+01   4.775669e+01
