
 $NMID
 id='ANONYMOUS ', fmtdat='(2E16.6)'
 volume=1.0
 tramp=1.0
 $END
   4.695368e+03  -7.177407e+01
   2.711217e+03   2.918271e+03
  -8.377508e+02   2.967415e+03
  -2.317221e+03   9.301617e+02
  -1.031366e+03  -7.673708e+02
   7.171790e+02  -6.692212e+02
   9.346596e+02   4.928874e+02
  -1.302528e+01   1.146271e+03
  -9.777445e+02   8.350572e+02
  -9.842806e+02  -1.188873e+02
  -5.005965e+02  -9.248347e+02
   2.822490e+02  -9.307097e+02
   6.815805e+02  -1.456223e+02
   4.068889e+02   7.685607e+02
  -2.971052e+02   8.106835e+02
  -6.534569e+02  -7.457056e+01
  -2.921891e+02  -7.247617e+02
   3.934413e+02  -6.227860e+02
   6.357301e+02  -1.015740e+02
   4.399799e+02   3.553642e+02
  -2.234269e+01   4.006654e+02
  -2.710797e+02   2.850912e+02
  -2.917710e+02  -2.322341e+01
   1.385767e+02  -1.583141e+02
   4.404561e+02   1.261920e+02
   2.288073e+02   4.710494e+02
  -4.579961e+02   4.749758e+02
  -9.049965e+02  -9.416205e+01
  -4.740977e+02  -5.913923e+02
   4.074174e+02  -5.314637e+02
   7.798680e+02  -2.912391e+01
   3.532688e+02   5.007865e+02
  -3.047240e+02   5.616968e+02
  -6.710242e+02   2.242475e+02
  -4.040591e+02  -2.857436e+02
  -1.158496e+02  -5.379422e+02
   2.308508e+02  -2.933849e+02
   2.207828e+02   2.482944e+02
  -1.794786e+02   4.424863e+02
  -4.606592e+02  -3.809320e+01
  -2.637475e+02  -6.789732e+02
   3.203072e+02  -7.900461e+02
   6.910146e+02   8.603822e+00
   3.510930e+02   6.226029e+02
  -3.477617e+02   3.228288e+02
  -4.762236e+02  -3.253999e+02
   6.528792e+01  -6.173912e+02
   6.054943e+02  -1.446837e+02
   6.596249e+02   4.358780e+02
   1.132697e+02   6.831931e+02
  -4.431510e+02   3.406334e+02
  -6.841876e+02  -8.759092e+01
  -4.018943e+02  -4.453324e+02
   1.286923e+02  -4.583281e+02
   4.848579e+02  -2.523955e+01
   2.312308e+02   2.229017e+02
  -1.410706e+02   1.433013e+02
  -1.324171e+02  -1.536111e+02
   1.397863e+02  -1.942558e+02
   4.000610e+02   1.176543e+02
   1.413694e+02   2.897903e+02
  -1.908136e+02   2.843663e+02
  -3.789610e+02   1.140941e+02
  -1.796014e+02  -1.209828e+02
   4.561783e+01  -1.817362e+02
   2.862186e+02  -3.086294e+02
   3.446640e+02  -2.720446e+02
   3.610306e+02   1.287504e+02
   6.964541e+01   4.505629e+02
  -9.567871e+01   4.153413e+02
  -1.298853e+02   1.069775e+02
  -5.264856e+00  -1.039430e+02
  -1.085266e+01   1.228783e+02
  -1.340570e+02   1.617218e+02
  -3.070519e+02  -1.696781e+01
  -1.647550e+02  -2.299248e+02
   5.169546e+01  -3.033520e+02
   2.646715e+02  -1.085622e+01
   2.280940e+02   2.359605e+02
  -2.058470e+01   3.217198e+02
  -2.518164e+02   1.154007e+02
  -3.793668e+02  -2.037286e+02
  -2.175195e+02  -3.638534e+02
   6.980085e+01  -3.574842e+02
   2.008563e+02  -1.531968e+02
   1.272399e+02   3.002626e+01
   1.044413e+02  -1.715946e+01
   2.262495e+02  -1.017711e+02
   4.315268e+02   7.372150e+01
   3.013352e+02   2.954175e+02
  -1.473312e+01   4.520842e+02
  -3.742103e+02   4.877619e+02
  -5.372541e+02   2.262392e+02
  -3.012809e+02  -1.027890e+02
  -2.092979e+01  -3.074125e+02
   1.007342e+02  -3.152335e+02
   8.513020e+01  -2.923968e+01
  -1.187068e+02   1.297081e+02
  -1.987183e+02   2.858134e+01
  -2.867371e+01  -2.171038e+02
   1.860963e+02  -1.994712e+02
   2.019607e+02   1.230341e+02
   5.569962e+01   2.047449e+02
  -2.768400e+02   4.608564e+01
  -1.634772e+02  -2.687086e+02
   4.580490e+01  -3.866503e+02
   2.305858e+02  -2.174866e+02
   3.303534e+02   1.294461e+02
   2.820804e+02   2.085376e+02
   8.873066e+01   2.832755e+02
  -1.010662e+02   1.908497e+02
  -1.461838e+02   5.594892e+01
  -5.590796e+01  -9.879026e+01
   5.186600e+01   5.019666e+01
   4.746108e+01   1.140652e+02
  -1.031719e+02   1.561920e+02
  -1.781027e+02  -5.373577e+01
  -7.833158e+01  -4.330737e+01
   1.039084e+02   9.749248e+00
   5.096017e+01   4.824833e+01
  -1.358957e+02   9.359590e+01
  -2.882713e+02   2.727435e+01
  -2.469439e+02  -1.672007e+02
  -2.226633e+01  -2.491539e+02
   2.199738e+02  -3.203419e+02
   2.993921e+02  -1.459470e+02
   1.780986e+02   4.220239e+01
  -3.763815e+01   1.520782e+02
  -7.377385e+01  -1.303719e+01
  -1.236332e+01  -1.234838e+02
   1.624776e+02  -2.796610e+01
   2.627578e+02   1.113467e+02
   2.093559e+01   1.943602e+02
  -1.512758e+02   1.436818e+02
  -1.157330e+02  -2.037995e+01
  -5.724890e+01  -5.823415e+01
   3.017589e+01   1.432635e+01
   2.370181e+01   7.260709e+01
  -7.553191e+01   8.479464e+01
  -1.999205e+02   3.614057e+01
  -1.916397e+02  -9.888225e+01
  -3.393695e+01  -2.666875e+02
   1.725784e+02  -2.072428e+02
   1.874943e+02  -3.841749e+01
   2.445915e+01   5.031278e+01
  -6.855997e+01   1.353413e+02
  -8.836817e+01  -1.427048e+00
  -3.725851e+01  -2.694653e+01
   6.336812e+01  -3.352437e+01
   5.914055e+01  -9.620788e+00
  -9.471940e+01   2.296299e+01
  -3.457556e+01  -1.904458e+01
  -5.620149e+01  -9.394802e+01
   1.642882e+02  -1.640404e+02
   2.057302e+02  -1.193725e+01
   1.841476e+02   1.379946e+02
   6.795108e+01   2.336069e+02
  -1.117998e+02   1.789288e+02
  -1.066137e+02   4.148484e+01
  -2.794615e+01  -7.855113e+01
  -3.074723e+01   6.125227e-01
  -5.689848e+01   3.337589e+01
  -8.735880e+01   4.943418e+01
  -1.872942e+01  -9.700387e+01
   8.567293e+01  -1.270803e+02
   9.865598e+01  -2.900461e+01
   1.070784e+02   6.662535e+01
  -3.645448e+01   1.675265e+02
  -1.317188e+02   1.198976e+02
  -1.815167e+02  -5.643280e+01
  -1.060323e+02  -2.214068e+02
   1.287359e+02  -2.397956e+02
   2.752688e+02  -6.855045e+01
   2.510095e+02   7.850008e+01
   1.036098e+02   2.147509e+02
  -2.329438e+01   1.512105e+02
  -1.349510e+02   1.121345e+02
  -5.146368e+01   1.204990e+02
  -7.679454e+01   1.061632e+02
  -1.107830e+02   8.154053e+01
  -1.063394e+02   2.518210e+01
  -1.245508e+02  -1.504962e+02
   4.564263e+00  -1.827487e+02
   1.066179e+02  -1.249919e+02
   1.941478e+02  -1.668833e+01
   1.146793e+02   9.947498e+01
   3.386428e+01   1.724483e+02
  -8.952713e+01   8.659583e+01
  -6.130926e+01   1.923786e+01
  -7.573036e+00  -1.735371e+01
  -2.284827e+01   1.543129e+01
  -7.100119e+01  -2.545294e+01
  -7.124275e+01  -4.335402e+01
  -9.871712e+01  -2.238536e+01
   4.788092e+01   7.761383e+00
   2.049178e+02   3.907603e+01
   1.461419e+02   5.019929e+01
   1.496255e+01   9.216986e+01
  -1.515578e+02   1.152934e+02
  -1.670910e+02   3.328572e+01
  -8.922479e+01  -2.428517e+01
   9.293287e+00  -4.985254e+01
   7.021378e+01   9.479173e+00
  -2.238684e+00   1.007056e+02
  -7.062314e+01   4.955586e+01
  -7.751046e+01   2.389706e+01
   1.184035e+01  -5.074691e+01
  -5.328822e+01  -5.273062e+01
  -9.522127e+01  -9.944977e+00
  -1.222824e+02   2.619550e+01
  -3.646444e+01  -4.723901e+01
   5.014820e+01  -9.680033e+01
   1.255957e+02  -1.371058e+02
   1.805442e+02   1.614102e+00
   1.307109e+02   1.486749e+02
   1.444215e+01   1.343422e+02
  -9.613424e+01   6.302213e+01
  -2.410820e+01  -1.696232e+00
   2.995374e+01  -1.127713e+01
   1.102242e+02   8.672553e+01
   1.129434e+02   8.803802e+01
  -8.579727e+01   1.173639e+02
  -1.701711e+02   1.848033e+01
  -2.027738e+02  -3.853507e+01
  -4.651636e+01  -8.239844e+01
   3.610677e+01  -5.529605e+01
   4.429819e+01   2.208522e+01
  -4.176538e+01   3.481717e+01
  -9.970551e+01  -4.700024e+01
  -2.830131e+01  -1.575960e+02
   1.206705e+02  -1.810884e+02
   1.384347e+02  -4.094515e+01
   6.941768e+01   1.494092e+02
  -1.231065e+01   2.427309e+02
  -8.245376e+01   1.845105e+02
  -8.518998e+01  -1.149984e+00
  -8.469456e+01  -1.853104e+02
   1.233146e+01  -8.055494e+01
   7.088557e+01  -6.755619e+01
  -7.392613e+00   7.125382e+01
   3.385673e+01  -5.400545e+01
  -2.930539e+01   1.514653e+00
  -1.749934e+01   8.535761e+00
   7.650180e+01   1.035439e+02
   1.840778e+01   4.394810e+01
  -5.286030e+01   6.562904e+01
  -1.507613e+02   1.259587e+01
  -1.122060e+02  -1.051397e+02
  -3.067442e+01  -3.607466e+01
   1.174661e+02  -2.415911e+01
   1.303265e+02  -3.986519e+01
   2.593950e+01  -2.793943e+01
  -6.713749e+01  -1.307552e+01
   4.575901e+01   5.306528e+01
   5.001278e+01   1.108949e+01
   1.388297e+01  -6.887717e+01
  -1.035924e+02  -2.503662e+01
  -1.055714e+02  -2.502076e+01
  -2.021661e+01  -1.070030e+02
   1.463308e+02  -1.486438e+02
   1.972105e+02  -8.081022e+01
   1.115655e+02   9.791692e+01
   4.563188e+01   1.199481e+02
  -1.054589e+02   1.673714e+02
  -1.239473e+02   6.972556e+01
  -7.573630e+01  -1.970256e+01
  -2.633113e+01  -7.547358e+01
   1.636651e+01  -4.000022e+01
  -4.117859e+01  -2.277510e+01
  -4.607807e+01   1.567329e-01
  -1.715335e+01  -9.882733e+01
   2.927395e+01  -5.655070e+01
   7.685231e+01   1.643123e+01
   9.830843e+01   1.070277e+02
  -1.523954e+01   1.116999e+02
  -7.594353e+01   1.724526e+01
  -1.765404e+02  -3.735254e+01
  -1.617374e+01  -5.537738e+01
   7.593021e+01  -4.039663e+01
   1.152810e+02  -8.533716e-01
   6.337900e+01   4.659796e+01
  -5.021216e+01   5.691991e+01
  -8.365360e+01   6.500361e+01
   2.283794e+01  -1.129765e+00
   9.688241e+01  -4.191068e+01
   2.274126e+01   5.562427e+01
  -9.974735e+01   3.526102e+01
  -1.278453e+02   1.136916e+02
  -3.784430e+01   1.582885e+00
   3.945423e+01  -8.035243e+01
   5.252314e+01  -9.704144e+01
   3.696302e+01   7.166192e+01
  -1.998290e+01   4.708700e+01
  -1.209029e+01   8.942170e+01
  -6.217675e+01  -6.585312e+00
  -1.811298e+01  -4.439103e+00
   1.519519e+01  -5.514237e+00
   4.263214e+01   9.122773e+00
   4.295715e+00   3.127337e+01
  -1.969360e+01  -5.831854e+01
   5.529547e+01  -5.831014e+00
  -3.562702e+01   1.004611e+01
  -4.004715e+01   7.585805e+01
  -3.380701e+01   5.393444e+01
  -3.710650e+01   4.412615e+01
   2.198816e+01  -8.350256e+01
   3.382782e+00  -8.603795e+01
   1.046906e+01  -2.836385e+01
   7.536169e+01   2.996253e+01
   4.869854e+01   6.929182e+01
  -1.143587e+02   3.854358e+01
  -6.418556e+01  -3.755638e+00
  -2.158976e+01  -8.569667e+01
   2.028776e+01  -4.726974e+01
   7.602285e+01  -4.356855e+01
   2.498164e+00   8.263372e+00
  -6.155611e+01  -4.016048e+01
  -7.306680e+01  -2.296932e+01
   3.126849e+01  -3.932280e+01
   1.091217e+02  -6.879133e+01
