
 $NMID
 id='ANONYMOUS ', fmtdat='(2E16.6)'
 volume=1.0
 tramp=1.0
 $END
   4.267165e+03   9.955734e+01
   2.486336e+03   2.503280e+03
  -6.778662e+02   2.647793e+03
  -2.004603e+03   9.600021e+02
  -9.653471e+02  -5.199572e+02
   5.939379e+02  -4.907792e+02
   8.061506e+02   3.639381e+02
  -5.508443e-01   9.771680e+02
  -8.234517e+02   7.085883e+02
  -9.382344e+02  -1.127492e+02
  -4.564619e+02  -8.163101e+02
   1.920656e+02  -9.004602e+02
   5.325835e+02  -1.225862e+02
   3.738431e+02   6.824203e+02
  -2.339180e+02   7.398854e+02
  -5.768128e+02   1.050381e+01
  -2.366838e+02  -6.496806e+02
   2.756362e+02  -6.060455e+02
   5.687646e+02  -1.148606e+02
   3.851395e+02   3.598911e+02
   9.611573e+00   4.626741e+02
  -2.304752e+02   3.273218e+02
  -2.172178e+02  -1.390672e+01
   1.741610e+02  -9.156002e+01
   4.070522e+02   2.328255e+02
   1.345136e+02   4.591276e+02
  -5.054048e+02   3.614157e+02
  -8.243786e+02  -4.951082e+01
  -3.622007e+02  -5.117465e+02
   3.746583e+02  -4.183376e+02
   7.228250e+02   4.233207e+01
   3.252381e+02   5.043241e+02
  -2.403915e+02   4.801187e+02
  -6.060641e+02   1.846448e+02
  -4.176308e+02  -2.200037e+02
  -7.900978e+01  -4.656312e+02
   1.911500e+02  -2.816718e+02
   1.625966e+02   2.396282e+02
  -2.456694e+02   3.646571e+02
  -4.051091e+02  -7.973100e+01
  -2.559925e+02  -6.779026e+02
   2.760987e+02  -6.515455e+02
   5.549225e+02   7.664674e+00
   2.173317e+02   5.238977e+02
  -2.802958e+02   3.236561e+02
  -3.621764e+02  -3.089858e+02
   1.220861e+02  -5.101673e+02
   5.781173e+02  -1.515554e+02
   5.501528e+02   4.193507e+02
   1.656610e+02   5.776944e+02
  -3.505166e+02   3.206072e+02
  -5.970600e+02  -1.314194e+02
  -3.694749e+02  -3.914736e+02
   1.322238e+02  -3.352464e+02
   4.021660e+02  -4.436049e+01
   1.975569e+02   2.443819e+02
  -1.262685e+02   7.943760e+01
  -1.286696e+02  -1.145609e+02
   1.313841e+02  -1.727782e+02
   3.404482e+02   3.947244e+01
   8.758417e+01   3.162408e+02
  -1.613819e+02   2.368198e+02
  -3.596988e+02   5.240262e+01
  -2.204898e+02  -1.361527e+02
   9.218277e+01  -2.206996e+02
   2.272208e+02  -3.765207e+02
   3.880221e+02  -2.390090e+02
   2.432800e+02   1.829326e+02
   3.565400e+01   4.057305e+02
  -1.490226e+02   3.691025e+02
  -4.036912e+01   1.145917e+02
  -5.891387e+01   5.695829e+01
  -6.581064e+01   6.549007e+01
  -2.006639e+02   1.665630e+02
  -2.476873e+02   8.686291e+00
  -1.596637e+02  -2.746611e+02
   5.483075e+01  -2.364713e+02
   2.154796e+02   1.408231e+01
   1.963312e+02   2.792684e+02
  -1.552046e+00   3.430930e+02
  -2.397154e+02   8.916248e+01
  -3.416757e+02  -1.274197e+02
  -2.418871e+02  -3.778311e+02
   1.390138e+02  -3.119844e+02
   2.334638e+02  -1.187373e+02
   1.469408e+02  -2.761481e+00
   1.094774e+02  -8.811639e+01
   2.565564e+02   2.298687e+01
   3.953674e+02   8.581468e+01
   3.446117e+02   2.699347e+02
   4.371009e+01   4.225041e+02
  -3.727132e+02   4.406943e+02
  -4.959439e+02   1.453352e+02
  -3.315913e+02  -1.012132e+02
  -3.906268e+01  -3.602284e+02
   1.378046e+02  -2.636579e+02
   1.248355e+02  -5.299989e+01
  -1.247286e+02   5.325350e+01
  -1.787493e+02  -2.090863e+01
  -2.501939e+01  -1.442849e+02
   1.696871e+02  -1.694644e+02
   2.202563e+02   4.022213e+01
   4.458464e+00   1.583245e+02
  -2.034087e+02  -3.026017e+01
  -1.135476e+02  -2.808438e+02
   2.749598e+01  -3.338890e+02
   1.926434e+02  -1.039219e+02
   3.196902e+02   9.607702e+01
   3.323421e+02   2.559376e+02
   1.369545e+02   2.595748e+02
  -1.146101e+02   1.750630e+02
  -1.512268e+02   9.966772e+01
  -6.690151e+01  -2.690455e+01
   9.444953e+01   3.315568e+01
   2.052823e+01   1.246980e+02
  -1.193729e+02   1.271368e+02
  -2.194724e+02   2.556403e+01
  -6.036764e+01   1.036629e+00
   1.110908e+02  -4.640802e+00
   3.221215e+01   1.181692e+02
  -1.375807e+02   1.184174e+02
  -3.143665e+02   3.895324e+01
  -2.809572e+02  -1.621799e+02
  -1.579238e+01  -2.539982e+02
   1.628476e+02  -2.493901e+02
   2.993541e+02  -9.043301e+01
   1.718587e+02  -5.966431e-01
  -4.084860e+01   7.154323e+01
  -1.440274e+02  -9.998515e+00
   6.454129e+01  -1.160112e+02
   1.814632e+02  -3.002026e+01
   2.053018e+02   9.964902e+01
   5.610325e+01   1.890818e+02
  -1.117659e+02   1.341124e+02
  -2.055128e+02   1.332176e+01
  -2.688053e+01  -2.410896e+01
   5.069776e+01  -4.168438e+01
   1.020973e+02   8.466994e+01
  -5.762642e+01   9.348778e+01
  -2.183678e+02   2.768466e+01
  -1.699712e+02  -1.136390e+02
   9.682815e-01  -2.315804e+02
   1.365046e+02  -1.537087e+02
   2.167883e+02  -3.798387e+01
   5.394547e+01   1.414001e+02
  -3.463761e+01   8.955810e+01
  -1.168087e+02   7.049287e+01
  -4.152982e+01  -1.846404e+01
   8.860545e+01  -7.541843e+00
  -6.695981e+01   2.084282e+01
  -4.041092e+01   1.498941e+01
  -8.095008e+01  -1.283420e+02
  -1.500831e+01  -1.540797e+02
   1.244814e+02  -1.164398e+02
   2.948127e+02  -2.111998e+01
   1.616529e+02   2.080083e+02
   5.839331e+01   2.577449e+02
  -1.115083e+02   1.512059e+02
  -1.031784e+02   2.489257e+01
  -6.135672e+01  -4.846371e+01
  -3.875396e+00  -5.948307e+01
  -6.038766e+01   8.847766e+00
  -8.798032e+01  -1.227265e+01
  -2.746611e+01  -1.548700e+01
   4.425129e+01  -9.080082e+01
   8.830209e+01  -7.772626e+01
   7.256880e+01   7.228439e+01
  -9.638815e-01   1.475251e+02
  -1.293714e+02   1.071896e+02
  -2.067774e+02  -3.882771e+01
  -1.539007e+02  -1.632858e+02
   5.380817e+01  -2.273636e+02
   2.352118e+02  -1.187895e+02
   2.469941e+02   1.359405e+02
   1.315562e+02   1.672712e+02
   7.810833e+00   1.315346e+02
  -1.185901e+02   1.103747e+02
  -2.281990e+01   6.699534e+01
  -8.044930e+01   4.160353e+01
  -7.628036e+01   9.406617e+01
  -1.235683e+02   3.361577e+00
  -1.196581e+02  -2.071268e+02
  -1.397182e+01  -2.471064e+02
   1.011283e+02  -1.776381e+02
   1.620455e+02   1.284033e+01
   1.569149e+02   1.647306e+02
   5.917313e+01   1.674204e+02
  -1.468881e+02   6.739593e+01
  -5.540796e+01  -5.900121e+01
   3.067337e+01  -2.579332e+01
  -6.980753e-01  -8.749322e+01
  -5.000184e+01  -3.802488e+00
  -8.970011e+01  -4.928168e+01
  -7.857817e+01  -5.931286e+01
   1.682750e+01  -6.179374e+01
   9.357148e+01   2.577505e+01
   1.125962e+02   4.222335e+01
  -5.487103e+00   9.952874e+01
  -1.746755e+02   2.066932e+01
  -1.560781e+02   2.306247e+01
  -9.666811e+01  -4.383197e+01
   2.606941e+01  -4.417594e+01
   8.676759e+01   3.002729e+01
  -2.727282e+00   6.330957e+01
  -7.497216e+01   7.314680e+01
  -7.695825e+01   2.513385e+01
  -4.688882e+01  -3.703019e+01
  -6.148955e+01  -5.237689e+01
  -1.394519e+01  -1.448234e+01
  -9.790183e+00  -5.959110e+01
  -2.940782e+01  -5.691996e+01
   3.221088e+01  -1.214892e+02
   1.388460e+02  -1.175434e+02
   2.095615e+02   3.235855e+01
   1.480937e+02   1.254821e+02
  -1.159664e+01   1.404147e+02
  -7.013445e+01   5.310339e+01
  -5.105018e+01  -7.461340e+01
   8.229817e+01   5.825339e+01
   1.483335e+02   1.715990e+01
   1.307479e+02   1.222543e+02
  -9.332671e+01   1.079698e+02
  -1.981347e+02   3.386947e+01
  -2.143234e+02  -5.832247e+01
  -3.924489e+01  -9.946165e+01
  -1.305671e+01  -5.904544e+01
   7.990596e+01  -1.904247e+01
  -1.061669e+02   1.657282e+01
  -2.486702e+01   8.072352e+00
  -2.153564e+01  -1.335797e+02
   9.960696e+01  -1.991526e+02
   1.775106e+02  -6.976330e+01
   1.431279e+02   6.123424e+01
   1.297673e+01   1.712957e+02
  -1.341525e+02   1.488856e+02
  -1.205003e+02   3.009577e+01
  -4.387235e+01  -1.629377e+02
   4.066432e+01  -1.310804e+02
   6.236849e+00  -3.230975e+01
   5.747186e+01   1.100039e+02
   9.408479e+00  -7.516140e+00
   9.432812e+00  -3.748675e+00
   1.406317e+01  -6.964025e-01
   5.795403e+01   1.348826e+02
   3.496215e+01   1.385712e+02
  -4.133528e+01   7.359263e+01
  -1.308790e+02   1.107361e+00
  -1.568036e+02  -5.184547e+01
  -2.866338e+00  -2.345496e+01
   6.346335e+01  -4.223747e+01
   5.842267e+01  -1.479996e+01
   3.970175e+01   2.907135e+01
  -7.361553e+01   4.639829e+01
  -4.240718e+00   4.923465e+00
   2.643028e+01  -5.326512e+01
  -2.985484e+01   2.573004e+01
  -8.403185e+01  -3.750082e+01
  -7.982416e+01  -1.333034e+01
  -3.898818e+01  -3.545407e+01
   1.226488e+02  -1.294641e+02
   2.266612e+02  -6.792390e+01
   1.048165e+02   3.965252e+01
   3.962082e+01   1.341805e+02
  -4.747861e+01   1.968357e+02
  -1.524698e+02   2.412069e+01
  -6.091660e+01   9.533921e+00
  -2.914714e+01  -5.193374e+01
   6.047392e+01  -3.755460e+01
   2.818233e+01   4.457355e+00
  -8.623687e-01  -1.127048e+01
   3.518225e+01  -1.004303e+02
   9.092957e-01  -5.633916e+01
   9.657204e+01   2.052743e+01
   1.160244e+02   9.928498e+01
   2.198163e+01   1.049089e+02
  -1.173230e+01   2.320957e+01
  -1.095764e+02  -6.135162e+01
  -7.201567e+01  -8.442497e+01
   6.146490e+01  -8.018016e+01
   6.782318e+01  -4.865703e+01
   6.741542e+01   4.316709e+01
  -5.346399e+01   1.837515e+01
  -2.057559e+01   3.246154e+00
   2.554756e+01  -3.756113e+01
   4.420896e+01  -1.669484e+01
   2.291303e+01   2.727862e+01
  -8.120623e+01   6.111391e+01
  -1.323253e+02   6.272757e+01
  -4.025543e+01   2.606714e+01
   2.761583e+00  -1.107037e+02
   8.253413e+01  -1.194940e+02
   4.194480e+01   1.590241e+01
   6.339834e+01   5.346196e+01
  -4.709687e+01   4.962475e+01
  -6.744611e+01   1.645505e+00
  -3.308092e+01   7.084449e+00
   6.613261e+00  -2.035759e+01
   2.033696e+01   6.271761e+01
   7.728743e+01   6.661001e+01
   4.148004e+01   4.026074e+00
  -4.412733e+01   3.991643e+01
  -6.897446e-01   7.325787e+00
  -1.509207e-01  -1.485735e+01
  -4.528480e+00   9.174189e+01
  -2.218650e+01  -3.102616e+00
  -3.112962e+01  -6.093304e+01
   3.146922e+01  -5.176317e+01
   3.224511e+01   4.063275e+01
   7.131373e+01   3.979064e+01
   1.673060e+00   1.291629e+01
  -1.027295e+02   6.098242e+01
  -5.023464e+01  -5.681958e+01
  -2.204006e+01  -7.698144e+01
   4.597621e+01  -5.529969e+01
   9.825272e+01  -2.824253e+01
   8.824814e+01  -4.560833e+01
  -2.341783e+01   2.515594e+01
  -4.110731e+01   6.670652e+00
   2.139123e+01  -3.670268e+00
   8.302128e+01  -4.102401e+01
