
 $NMID
 id='ANONYMOUS ', fmtdat='(2E16.6)'
 volume=1.0
 tramp=1.0
 $END
  -3.471996e+03   2.021147e+01
  -2.200272e+03  -1.827882e+03
   9.745631e+01  -2.196400e+03
   1.411674e+03  -1.213360e+03
   9.832681e+02  -1.869964e+01
  -6.914687e+01   3.145799e+02
  -4.648600e+02  -1.629526e+02
  -9.199160e+01  -6.743920e+02
   5.030631e+02  -6.249711e+02
   6.662656e+02  -5.335973e+01
   4.784374e+02   5.748208e+02
  -1.605928e+01   6.986510e+02
  -3.471103e+02   2.247167e+02
  -2.960415e+02  -4.846128e+02
   1.255499e+02  -5.615021e+02
   4.154705e+02  -9.054951e+01
   3.225148e+02   4.738428e+02
  -1.739482e+02   6.637611e+02
  -5.054825e+02   2.275002e+02
  -4.749730e+02  -2.559988e+02
  -1.285934e+02  -3.597440e+02
   1.084037e+02  -2.881622e+02
   1.021698e+02  -7.522015e+01
  -1.347784e+02  -9.508651e+01
  -3.392210e+02  -1.968081e+02
  -1.067125e+02  -3.648635e+02
   4.314410e+02  -2.338021e+02
   6.067360e+02   1.476721e+02
   2.611764e+02   3.517065e+02
  -3.669058e+02   2.876695e+02
  -5.366892e+02  -1.368476e+02
  -2.107019e+02  -3.484468e+02
   2.830615e+02  -4.303742e+02
   4.772726e+02  -1.839023e+02
   3.148790e+02   1.820829e+02
   4.559685e+01   3.952203e+02
   1.129327e+00   2.294089e+02
  -6.944904e+00  -4.378776e+01
   1.737692e+02  -2.099724e+02
   1.997977e+02   1.975194e+02
   1.072761e+02   5.097003e+02
  -2.671071e+02   5.493017e+02
  -3.569201e+02   5.781208e-01
  -1.153376e+02  -3.733171e+02
   1.994156e+02  -2.417247e+02
   2.129809e+02   2.251988e+02
  -1.019274e+02   3.928408e+02
  -4.670668e+02   9.016604e+01
  -5.086746e+02  -3.009686e+02
  -1.789505e+02  -5.719312e+02
   3.177504e+02  -2.781441e+02
   4.975290e+02   4.220107e+01
   3.631394e+02   2.783423e+02
  -3.349421e+01   2.625351e+02
  -3.224351e+02   8.372863e+01
  -2.406496e+02  -9.649389e+01
   1.247601e+01  -8.096586e+01
   6.479076e+01   1.320358e+02
  -1.075154e+02   9.570984e+01
  -2.532894e+02  -3.869477e+01
  -1.592729e+02  -2.472618e+02
   1.739333e+02  -2.805048e+02
   3.319188e+02  -1.177067e+02
   2.231868e+02   7.506896e+01
  -2.915508e+00   3.143538e+02
  -2.413346e+02   3.729679e+02
  -3.150313e+02   1.378213e+02
  -2.650585e+02  -2.023822e+02
  -7.879599e+01  -4.001416e+02
   8.441030e+01  -3.003235e+02
   8.963124e+01  -1.454118e+02
   5.717137e+01  -6.185511e+01
   1.029685e+02  -1.509549e+02
   1.993413e+02  -1.086158e+02
   2.085357e+02   5.942255e+01
   5.587128e+01   1.981112e+02
  -8.159393e+01   2.534604e+02
  -2.160495e+02  -1.069423e+01
  -1.375051e+02  -2.790448e+02
   5.877395e+01  -2.855728e+02
   2.473285e+02  -5.352394e+01
   2.656731e+02   1.489141e+02
   1.885193e+02   3.381607e+02
  -8.220889e+01   2.826589e+02
  -2.052242e+02   1.453542e+02
  -1.669439e+02   6.754295e+01
  -1.598007e+02   4.390437e+01
  -2.714512e+02   2.320585e+01
  -4.215911e+02  -4.146772e+01
  -3.205947e+02  -2.593165e+02
   4.845064e+00  -4.285991e+02
   4.126840e+02  -3.462466e+02
   3.901394e+02  -1.748070e+02
   3.367739e+02   1.227127e+02
   3.154717e+01   2.590406e+02
  -6.140360e+01   2.242233e+02
  -2.159526e+01   6.685146e+01
   9.348134e+01  -3.753188e+00
   1.206236e+02   4.641044e+01
  -1.663127e+01   1.591144e+02
  -2.708379e+01   1.228645e+02
  -9.277335e+01  -7.633086e+01
  -2.342554e+01  -1.460645e+02
   1.549411e+02  -8.768908e-03
   2.206316e+02   2.078123e+02
   1.535010e+00   3.500924e+02
  -2.709133e+02   2.360427e+02
  -3.508193e+02  -9.124811e+01
  -3.211590e+02  -2.479627e+02
  -4.644359e+01  -2.441238e+02
   1.485698e+02  -1.092379e+02
   1.664726e+02  -2.791969e+01
   1.959582e+00   4.543344e+01
  -9.334086e+01  -1.320511e+01
   8.163756e+00  -9.227903e+01
   1.196882e+02  -1.578576e+02
   1.253127e+02   1.349423e+01
   9.115601e-01   4.632467e+01
  -8.111667e+01  -1.052271e+01
  -3.190649e+01  -8.366383e+01
   1.309369e+02  -8.803433e+01
   3.132617e+02   1.942609e+01
   2.516127e+02   1.805263e+02
   1.541883e+01   2.277067e+02
  -2.054506e+02   1.929744e+02
  -3.167152e+02   9.952905e+01
  -1.373581e+02  -3.810523e+01
  -4.204831e-01  -8.647275e+01
   8.036704e+01   3.581750e+01
  -1.127007e+02   2.455440e+01
  -2.093087e+02   7.308665e+01
  -1.757023e+02  -5.080666e+01
  -2.073706e+01  -2.121203e+02
   1.399575e+02  -1.476691e+02
   1.364765e+02  -1.696898e+01
   3.517907e+01   6.108815e+01
  -3.144788e+01  -2.826371e+00
  -2.994776e+01  -4.969843e+01
   1.012438e+02  -6.858282e+01
   2.030041e+02  -2.242889e+01
   1.818910e+02   1.774956e+02
  -5.059095e+01   2.324408e+02
  -1.814441e+02   1.674395e+02
  -1.132396e+02   7.229248e+00
  -6.934399e+01  -1.034646e+02
   6.805477e+01  -1.166975e+02
   7.978404e+01  -2.887216e+01
  -5.496972e+01   6.320677e+01
  -4.745680e+01   1.575896e+00
  -4.665258e+01  -4.412186e+01
   6.542022e+01  -3.998397e+01
   1.103565e+02   6.550812e+01
   3.565137e+01   1.667016e+02
  -1.654662e+02   1.537567e+02
  -2.313459e+02   1.521104e+01
  -1.689881e+02  -1.397249e+02
  -5.724395e+01  -2.373383e+02
   1.114124e+02  -1.735116e+02
   1.432102e+02   1.387203e+01
   6.655311e+01  -8.102051e+00
   5.564568e+01   2.465449e+01
   4.221041e+01  -3.438972e+01
   1.123880e+02   1.202901e+01
   6.976427e+01   6.120692e+01
  -6.736417e+01   8.047442e+01
  -1.102122e+02   8.429916e+01
  -1.174834e+02  -8.044382e+01
   3.227198e+01  -1.609282e+02
   1.242472e+02  -9.163783e+01
   2.136871e+02   8.578511e+01
   4.580051e+01   2.159455e+02
  -8.453452e+01   1.991124e+02
  -1.982331e+02   1.206695e+02
  -2.344651e+02  -6.027260e+01
  -4.485221e+01  -1.670647e+02
   3.915711e+01  -1.051921e+02
   1.021592e+02  -4.575400e+01
  -1.165824e+01  -1.188263e+02
   1.121128e+02  -6.953326e+01
   1.131833e+02  -1.141805e+02
   1.268530e+02  -5.407490e+00
   9.577800e+01   1.635405e+02
   6.026731e+01   2.259910e+02
  -9.626181e+01   1.453133e+02
  -1.970542e+02   5.304299e+01
  -1.271347e+02  -1.214450e+02
   3.561727e+01  -1.413835e+02
   1.067020e+02  -5.795052e+01
   8.874156e+01   5.686984e+01
  -2.783603e+01   5.598057e+01
  -5.227045e+01   5.091529e+01
   7.450503e+01  -2.786465e+01
   1.171906e+02   3.517622e+01
   6.483169e+01   5.764578e+01
  -4.770757e+01   6.127152e+01
  -1.556211e+02   2.749300e+00
  -1.793821e+02  -5.854500e+01
   6.019207e+01  -7.671608e+01
   1.897013e+02  -5.934161e+01
   1.282266e+02   6.470928e+00
   6.708588e+01   2.999517e+01
  -6.266797e+00  -2.790673e+00
   9.694840e+00  -6.797931e+00
  -3.873938e+00  -8.075712e+01
  -3.276635e+00  -9.417612e+01
   6.874542e+01   3.914348e+01
   2.031572e+01   8.814922e+01
   1.621477e+01   4.926325e+01
   4.330250e+01   2.602183e+01
   3.622055e+01   4.040356e+01
  -1.456575e+01   5.618845e+01
  -3.305299e+01   2.180165e+02
  -1.432702e+02   8.903001e+01
  -1.702370e+02   5.385919e+01
  -1.731133e+02  -9.132062e+01
   1.807072e+01  -1.599317e+02
   7.688093e+01  -7.646653e+01
   4.166962e+01   2.040413e+01
  -6.521356e+01  -4.389943e+00
  -1.573903e+02  -4.702806e+01
  -7.355773e+01  -9.982333e+01
   8.464826e+01  -1.097675e+02
   2.035158e+02  -3.004410e+01
   1.424442e+02   4.194716e+01
   9.512593e+00   4.512780e+01
  -5.740829e+01   7.245233e+01
  -6.595183e+01   6.653529e+00
   5.995016e+01   4.041414e+01
   1.122627e+02   3.902016e+00
   1.595093e+01   1.253816e+02
  -6.089924e+01   1.849195e+02
  -1.610543e+02   1.254736e+02
  -1.173660e+02  -7.094415e+01
  -1.593511e+01  -1.885953e+02
   9.346158e+01  -1.029682e+02
   6.474935e+01  -1.249965e+01
   7.750237e+01   8.067309e+01
  -3.979607e+01   3.319820e+01
  -8.816337e+01  -3.276260e+01
  -2.377550e+01  -2.345465e+00
  -4.116682e+01   7.731093e+01
  -2.300016e+01   6.482464e+01
   8.861943e+00  -3.932660e+01
  -1.052908e+02  -2.663454e+01
  -3.714917e+01  -1.412314e+02
   1.728086e+01  -8.497237e+01
   1.705894e+02   4.941746e+01
   1.910052e+02   9.946859e+01
   1.896144e+01   3.788391e+01
  -7.323517e+01  -1.214171e+01
  -5.358186e+01   3.569473e+01
  -1.628163e+01  -1.323745e+01
   5.751892e+01  -2.595639e+01
  -3.516007e+01  -2.000593e+00
  -2.392296e+01   6.305059e+01
   1.571599e+01  -8.653594e+00
   1.247858e+02   1.892637e+01
   4.588297e+01   8.863548e+01
   5.177874e+01   7.042542e+01
  -8.969783e+01   1.464922e+02
  -2.031695e+02   6.074034e+01
  -1.468540e+02  -3.286388e+01
  -6.196238e+01  -1.647295e+02
   4.666624e+01  -1.468870e+02
   1.277279e+02  -1.012507e+02
   6.582624e+01   1.802538e+01
   3.306684e+01   7.428188e+00
   3.847283e+01   3.811729e+01
  -2.219907e+01  -9.997622e+00
   5.063416e+01   8.203321e+01
   5.397193e+01   1.319951e+02
   8.595547e-01   1.672884e+01
  -8.359887e+01  -4.173675e+01
  -1.030382e+02  -8.355021e+01
  -2.407411e+01  -1.411106e+02
   6.962691e+01  -2.921084e+01
   1.088035e+02   6.260253e+01
   2.981953e+01   1.096627e+02
  -1.127974e+02   3.040687e+01
  -8.732955e+01  -1.688343e+00
  -4.071007e+01  -2.466470e+01
   1.396521e+01  -4.327437e+01
   2.717973e+01  -2.580950e+01
  -2.384835e+01   2.671820e+01
  -7.616195e+01  -1.060226e+01
  -4.992519e+00  -2.240946e+01
   8.907655e+01  -4.239681e+01
   1.042184e+02  -2.292444e+01
   6.443906e+01   3.234331e+01
   2.380718e+01   4.247136e+01
  -5.516290e+01   8.736728e+01
  -4.633648e+01   2.345708e+01
   2.858231e+01  -5.384195e+01
   6.561599e+01  -7.217574e+01
   3.076681e+01   3.473386e+01
   4.864433e+01   2.603964e+01
  -7.134321e+00   5.590261e+01
  -2.775855e+01   1.560231e+00
   1.268871e+01   1.922209e+01
  -5.715928e+01   3.177691e+01
   2.246107e+01   1.144010e+02
   4.829546e+01   2.711056e+01
   3.014328e+01  -4.969778e+01
  -1.988307e+00  -2.640840e+01
   5.441029e+00  -1.752721e+01
   3.375925e+01   6.329234e+01
   1.053632e+00   4.949763e+01
  -1.197737e+01  -2.304691e+01
  -1.177299e+02  -5.254929e-01
   3.183722e+01  -7.056279e+01
   6.922806e+01  -7.222123e+01
   1.050404e+02   4.950016e+01
   6.409642e+01   6.167763e+01
   2.038191e+01   1.211283e+01
  -8.451361e+01   7.700513e+01
  -1.047416e+01  -2.941042e+00
  -2.043516e+01   9.746376e+00
   2.392136e+01   3.175077e+00
  -3.891527e+01  -9.218278e+00
  -9.126651e+01   5.851246e+01
