
 $NMID
 id='ANONYMOUS ', fmtdat='(2E16.6)'
 volume=1.0
 tramp=1.0
 $END
  -2.965004e+03  -4.650455e+01
  -2.026756e+03  -1.403875e+03
  -2.062000e+02  -1.876397e+03
   1.035922e+03  -1.259693e+03
   9.692002e+02  -3.956346e+02
   2.117022e+02   1.190817e+02
  -2.712285e+02  -9.827060e+00
  -4.042516e+01  -4.358660e+02
   4.154144e+02  -5.025675e+02
   5.926530e+02  -1.037945e+02
   4.010198e+02   4.317505e+02
   2.816533e+01   5.773381e+02
  -1.903716e+02   1.939967e+02
  -2.241507e+02  -3.330249e+02
   1.004203e+02  -4.867282e+02
   3.325738e+02  -5.826056e+01
   2.782442e+02   4.093459e+02
  -4.817673e+01   6.228148e+02
  -4.055170e+02   3.590672e+02
  -4.873010e+02  -4.804253e+01
  -1.305970e+02  -3.575704e+02
   1.160194e+02  -1.998846e+02
  -3.428673e+00  -8.736135e+01
  -2.106221e+02  -1.540061e+02
  -2.517482e+02  -2.920084e+02
   7.381809e+01  -3.640849e+02
   4.973997e+02  -1.181192e+02
   5.409208e+02   2.245874e+02
   1.408574e+02   3.860428e+02
  -3.615086e+02   1.172392e+02
  -4.315818e+02  -1.637677e+02
  -1.595678e+02  -3.715586e+02
   3.343904e+02  -3.039256e+02
   3.807792e+02  -1.368302e+02
   3.316845e+02   1.281861e+02
   1.109451e+02   2.649895e+02
  -4.032087e+00   9.990787e+01
   9.385228e+01  -9.496151e+01
   1.750234e+02  -7.222652e+01
   1.401731e+02   1.764741e+02
   2.561798e+01   4.871612e+02
  -2.552643e+02   3.511412e+02
  -2.921446e+02   2.841470e+01
  -1.294443e+02  -2.816361e+02
   9.259853e+01  -9.737816e+01
   1.650205e+02   2.562602e+02
  -1.504837e+02   3.065807e+02
  -4.821495e+02  -4.524163e+01
  -4.257715e+02  -3.387165e+02
  -1.937387e+02  -4.794695e+02
   2.738977e+02  -2.242051e+02
   4.639090e+02   4.547575e+01
   2.955803e+02   1.200003e+02
  -5.226685e+01   2.045886e+02
  -2.758486e+02   6.932237e+01
  -2.459573e+02   2.725224e+01
  -6.530896e+01  -2.252064e+01
  -4.112384e+01   2.452489e+01
  -5.930847e+01  -1.227218e+01
  -2.410033e+02  -7.897423e+00
  -1.230355e+02  -1.313161e+02
   1.340059e+02  -2.566280e+02
   3.365649e+02  -1.991178e+02
   2.744767e+02   1.360780e+02
  -1.107622e+01   3.720550e+02
  -3.487771e+02   3.369379e+02
  -3.522869e+02   1.632515e+02
  -1.712701e+02  -8.669393e+01
  -3.077542e+01  -3.469452e+02
   1.431088e+01  -2.839891e+02
   6.029258e+01  -8.158141e+01
   4.048295e+01  -1.426217e+02
   1.355311e+02  -1.387219e+02
   2.372448e+02  -2.018204e+01
   1.962038e+02   1.445275e+02
   6.060623e+01   2.300671e+02
  -1.661029e+02   1.848120e+02
  -1.580030e+02  -4.890916e+01
  -8.552058e+01  -2.262786e+02
   9.034743e+01  -1.901925e+02
   2.305344e+02  -3.121591e+01
   3.542981e+02   1.700625e+02
   1.399539e+02   2.441396e+02
  -5.998569e+01   2.458553e+02
  -1.723293e+02   1.801740e+02
  -1.450983e+02   1.148868e+02
  -1.543716e+02   1.067138e+02
  -2.443634e+02   2.543784e+01
  -3.773715e+02  -1.011609e+02
  -3.045156e+02  -2.900621e+02
   8.948225e+00  -4.300430e+02
   3.756720e+02  -3.065917e+02
   4.984349e+02  -1.556756e+02
   2.378447e+02   6.432376e+01
   3.311030e+01   2.258447e+02
  -9.673988e+01   1.556936e+02
  -1.209150e+01   3.080758e+01
   1.204843e+02   1.829764e+01
   1.094220e+02   3.785806e+01
  -4.865467e+01   1.640242e+02
  -1.313209e+02   9.574633e+01
  -9.388206e+01  -3.648641e+01
   5.098464e+01  -8.051915e+01
   1.253005e+02   2.196376e+01
   1.987821e+02   2.047527e+02
  -3.629878e+01   3.587866e+02
  -2.093644e+02   2.171100e+02
  -3.813586e+02  -3.877610e+01
  -3.031169e+02  -3.184199e+02
  -5.553385e+01  -3.223065e+02
   1.186931e+02  -1.991853e+02
   1.137630e+02   3.888469e+01
   1.200584e+01  -3.436571e+01
  -6.989971e+01  -1.091506e+02
   1.407059e+01  -1.445231e+02
   1.333393e+02  -9.409986e+00
   1.453630e+02   6.474053e+01
  -2.050093e+01   5.589481e+01
  -5.930462e+01  -4.200242e+01
  -2.098790e+01  -8.661597e+01
   1.347166e+02  -1.394688e+02
   3.300356e+02  -3.924187e+01
   2.570310e+02   1.713534e+02
  -5.657469e+00   2.900616e+02
  -2.928458e+02   1.902863e+02
  -2.831401e+02   6.459902e+01
  -1.643838e+02  -1.743446e+01
  -8.238222e+00  -1.114649e+02
   8.841041e+01  -3.122215e+01
  -7.947374e+01   7.156613e+01
  -2.093485e+02   9.606669e+00
  -1.863658e+02  -1.575101e+02
  -1.135033e+02  -1.828037e+02
   2.255438e+01  -1.532941e+02
   8.910656e+01  -7.213383e+00
   1.004301e+02   5.306475e+01
  -6.323573e+01   1.200878e+01
  -2.647343e+01  -1.407713e+02
   9.510076e+01  -8.410066e+01
   2.576919e+02  -3.082006e+01
   1.727836e+02   1.074104e+02
  -5.197582e+01   1.535679e+02
  -2.301650e+02   5.968246e+01
  -1.237009e+02  -4.283095e+01
  -2.468314e+01  -9.055887e+01
   1.021710e+01  -3.857573e+01
   2.236997e+01  -5.781177e+01
   3.220368e+01  -4.047356e+01
  -4.998260e+01  -2.395969e+01
  -8.043796e-01  -1.653636e+00
   1.216553e+02  -1.816854e+01
   8.967842e+01   9.053516e+01
  -3.667591e+01   1.603170e+02
  -1.475978e+02   1.463654e+02
  -2.202177e+02   2.717397e+01
  -1.816634e+02  -1.204334e+02
  -6.337673e+01  -2.337517e+02
   5.884774e+01  -1.549625e+02
   1.217261e+02  -4.750556e+01
   7.691710e+01   4.645386e+01
   8.772316e+01   2.838625e+00
   8.288121e+01  -2.103179e+01
   8.462296e+01   4.271790e+00
   7.229978e+01  -1.093741e+01
  -3.939091e+01   8.921221e+01
  -1.149534e+02   9.459801e+01
  -1.529192e+02   1.752862e+00
   1.139865e+01  -1.613986e+02
   1.759076e+02  -1.192281e+02
   1.995592e+02   6.660279e+01
   6.416525e+01   1.805145e+02
  -1.266787e+02   1.605864e+02
  -2.735525e+02   5.027882e+01
  -2.190259e+02  -8.676521e+01
  -6.492778e+01  -1.875002e+02
   7.814600e+01  -1.746330e+02
   5.331417e+01  -7.444995e+01
   1.008602e+02  -6.091556e+01
   5.065310e+01  -9.956157e+01
   5.985179e+01  -5.389646e+01
   1.204914e+02   1.212610e+00
   1.011692e+02   1.630384e+02
   5.739392e+01   2.472895e+02
  -1.663885e+02   1.615559e+02
  -2.056894e+02   5.753971e-01
  -6.335624e+01  -1.162219e+02
   5.234404e+01  -1.663385e+02
   6.120139e+01  -1.066545e+02
   3.492286e+01   7.126884e+01
  -2.450406e+01   4.669698e+01
  -6.212338e+01   6.216959e+01
   7.658327e+01  -9.409702e+00
   8.916895e+01   1.154398e+01
   4.118642e+01   1.055449e+01
  -5.845523e+01   9.510407e+01
  -2.344160e+02   5.297387e+01
  -9.943462e+01  -4.163661e+01
  -1.010285e+01  -7.788378e+01
   1.197864e+02  -4.256558e+01
   1.934949e+02  -3.300554e+01
   1.972028e+01   4.905349e+01
  -6.144612e+01   4.081141e+01
  -2.172056e+01  -2.914831e+01
  -9.198221e+01   6.352370e+00
  -4.674796e+01  -1.018928e+02
   9.371766e+01  -1.577958e+01
   8.954041e+01   2.499359e+01
   5.128183e+01   7.185434e+01
   6.569538e+01  -1.295494e+01
   3.295165e+01   2.062702e+01
   3.444962e+01   2.819262e+01
  -4.629886e+01   1.606900e+02
  -1.373013e+02   1.895569e+02
  -1.760401e+02   6.103613e+01
  -1.327926e+02  -1.193345e+02
   1.699541e+01  -1.305597e+02
   8.005400e+01  -6.720039e+01
   6.645079e+01   6.770486e+00
  -3.946484e+01   4.369851e+01
  -1.680392e+02  -2.851801e+01
  -6.150897e+01  -8.974111e+01
   8.931557e+01  -1.021263e+02
   1.987943e+02   4.970018e+00
   1.236776e+02   6.373201e+01
   5.320821e+01   1.078174e+02
  -5.090711e+01   4.578651e+01
  -5.808355e+01  -5.369925e+01
   4.721239e+01   3.389308e+00
   9.852579e+01   9.376643e+01
   8.846870e+01   1.228562e+02
  -9.817893e+01   2.026174e+02
  -1.760790e+02   7.142675e+01
  -1.869703e+02  -1.057524e+02
   7.807641e+00  -2.070973e+02
   1.216633e+02  -2.096954e+02
   1.019280e+02   5.182737e+00
   1.034003e+01   1.338730e+02
  -3.837932e+01   1.759787e+02
  -8.935018e+01   8.775348e+01
  -9.311946e+01  -3.298409e+01
  -2.946547e+01   3.246158e+01
   2.035269e+01   5.831948e+01
  -2.825559e+01  -4.066210e+01
  -5.707562e+01  -8.497205e+01
  -8.570214e+00  -3.013686e+01
   5.451196e+01  -3.166782e+01
   1.302123e+02   4.085108e+01
   1.199338e+02   1.048879e+02
   1.201091e+01   6.708297e+01
  -8.458585e+01   4.801411e+01
  -1.337153e+02  -8.996328e+00
  -2.722746e+01   2.030410e+01
   6.253906e+01  -2.491880e+01
   3.232304e+00  -2.288354e+01
  -5.066582e+01  -4.005577e+01
  -1.530056e+01  -3.723370e+01
   8.551276e+01  -3.669877e+00
   7.738873e+01  -1.402710e+01
   3.526011e+01   1.324825e+02
  -6.854469e+01   1.698171e+02
  -1.553726e+02   2.738139e+01
  -1.854015e+02  -6.598708e+01
  -4.196408e+01  -1.642177e+02
   1.273689e+02  -2.018404e+02
   8.247990e+01  -1.488587e+01
   6.390665e+01   1.412132e+01
   1.457486e+01   4.565801e+01
   1.842264e+01   6.163048e+01
  -2.040539e+01   2.561360e+01
   3.286971e+01   6.332400e+01
   1.164193e+01   9.227595e+01
   1.590259e+01   7.833288e+01
  -5.486366e+01   3.208821e+01
  -8.852788e+01  -1.133559e+02
   5.057922e+01  -1.093772e+02
   4.824479e+00   4.015919e+00
   1.146214e+02   5.567246e+01
   4.971706e+01   1.332266e+02
  -7.931199e+01   6.052494e+01
  -9.730916e+01   1.512505e+01
  -5.700133e+01  -4.092712e+01
   5.217940e+01  -1.003354e+02
   5.064070e+01   5.177192e+00
  -1.019414e+02   5.771857e+01
  -7.165970e+01  -3.388390e+01
  -3.447157e+01  -3.120875e+01
   6.841454e+01  -4.784540e+01
   1.323602e+02  -5.665467e+01
   4.262764e+01   1.804030e+01
   3.175938e+01   8.397914e+01
  -1.260556e+02   8.453645e+01
  -3.559258e+01   2.543691e+01
  -8.960615e+00  -4.360038e+01
   4.138151e+01  -7.729702e+01
   2.814139e+01  -4.219104e+01
   6.435937e+01   4.350562e+01
  -6.104141e+00   2.655332e+01
  -5.174750e+01  -1.347752e+01
   2.405333e+01  -4.358766e+00
  -4.573867e+01  -1.564138e+01
  -6.522385e+00   2.864822e+01
   1.636914e+01   3.009909e+01
   6.902465e+00  -1.182549e+00
   2.767059e+01  -7.710847e+01
   6.001398e+01  -1.780516e+01
  -4.035119e+00   3.210088e+01
   2.518546e+01   1.197423e+02
  -6.239968e+01  -3.300965e+01
  -3.807790e+01  -2.950140e+01
  -4.350551e+01  -7.425439e+01
   5.364616e+01   3.549246e+01
   1.341111e+02  -1.532196e+00
   3.980272e+01   7.612518e+00
   1.073594e+01   7.585625e+00
  -1.177246e+02   2.645583e+01
  -5.531887e+01  -1.413907e+01
   4.879208e+01  -6.456763e+00
   6.206247e+01   1.471123e+01
   2.959665e+00   1.943285e+01
   5.008268e+00   3.484483e+01
