
 $NMID
 id='ANONYMOUS ', fmtdat='(2E16.6)'
 volume=1.0
 tramp=1.0
 $END
   4.246995e+03   2.728418e+01
   2.436266e+03   2.537794e+03
  -6.381493e+02   2.651784e+03
  -1.980953e+03   8.897940e+02
  -9.269812e+02  -5.739616e+02
   6.246317e+02  -5.300612e+02
   8.108595e+02   4.137299e+02
  -1.217515e+01   1.010499e+03
  -7.682734e+02   7.865707e+02
  -9.096652e+02  -1.476817e+02
  -4.343285e+02  -8.409927e+02
   2.301257e+02  -8.794087e+02
   5.405965e+02  -1.299698e+02
   3.211266e+02   6.941445e+02
  -2.210046e+02   7.482968e+02
  -6.081264e+02  -1.200274e+01
  -2.780066e+02  -6.612474e+02
   2.854413e+02  -5.821230e+02
   5.203092e+02  -8.319097e+01
   3.965500e+02   3.411868e+02
   2.346193e+01   4.317004e+02
  -2.529658e+02   2.371941e+02
  -2.145710e+02   1.401342e+01
   1.464569e+02  -6.922651e+01
   3.593526e+02   1.482591e+02
   1.622475e+02   4.161394e+02
  -3.937781e+02   3.405477e+02
  -8.374876e+02  -5.297006e+01
  -3.592631e+02  -4.853021e+02
   3.471795e+02  -4.161798e+02
   7.295121e+02   6.061049e+01
   3.942583e+02   4.292631e+02
  -3.244678e+02   4.535222e+02
  -5.853373e+02   1.661983e+02
  -3.627780e+02  -3.000606e+02
  -9.401678e+01  -4.435787e+02
   1.866592e+02  -3.114952e+02
   1.008789e+02   1.668936e+02
  -1.312916e+02   3.954933e+02
  -4.172520e+02  -4.768611e+01
  -1.880534e+02  -7.046886e+02
   3.154106e+02  -6.074126e+02
   5.528285e+02  -6.041562e+01
   2.376489e+02   4.986731e+02
  -2.519488e+02   3.205436e+02
  -3.750586e+02  -3.343730e+02
   8.468292e+01  -4.856070e+02
   5.846215e+02  -1.272666e+02
   5.995624e+02   3.909406e+02
   2.173425e+02   5.893705e+02
  -3.657739e+02   2.824147e+02
  -6.183063e+02  -1.268395e+02
  -3.399945e+02  -3.632843e+02
   1.667090e+02  -3.437018e+02
   4.231797e+02  -7.083465e+01
   2.463119e+02   1.695074e+02
  -1.665765e+02   8.497118e+01
  -1.046492e+02  -1.300544e+02
   1.393852e+02  -1.408814e+02
   3.538241e+02   1.338083e+02
   1.119120e+02   3.308994e+02
  -1.841647e+02   2.142164e+02
  -3.328932e+02   9.089558e+01
  -2.001702e+02  -8.752209e+01
   8.416195e+01  -2.418861e+02
   2.710499e+02  -3.430869e+02
   3.824224e+02  -1.886561e+02
   3.470375e+02   1.138918e+02
   6.236425e+01   4.569062e+02
  -9.029599e+01   3.789581e+02
  -1.208903e+02   9.978079e+01
  -1.469745e+01   1.643397e+01
  -6.718089e+01   8.618038e+01
  -2.390628e+02   7.248418e+01
  -2.498642e+02  -4.007478e+01
  -1.617386e+02  -3.136715e+02
   7.233711e+01  -2.503750e+02
   1.910449e+02   8.378608e+01
   2.017902e+02   3.117277e+02
  -1.678672e+01   3.169735e+02
  -2.339481e+02   1.210839e+02
  -3.208774e+02  -1.998230e+02
  -2.231450e+02  -3.149751e+02
   1.405901e+02  -2.809272e+02
   2.271036e+02  -9.137759e+01
   1.829627e+02   4.332406e+01
   1.101730e+02  -1.558248e+01
   2.521512e+02  -7.667726e+01
   3.967881e+02   7.644378e+01
   3.319655e+02   2.702586e+02
   4.104221e+01   4.084346e+02
  -3.838064e+02   4.061761e+02
  -4.975778e+02   1.464795e+02
  -2.895742e+02  -7.027915e+01
  -1.159999e+02  -3.019582e+02
   1.440342e+02  -2.269073e+02
   8.510121e+01   7.882458e+00
  -1.092711e+02   1.029125e+02
  -1.762822e+02   9.995367e+00
  -3.887315e+01  -2.312155e+02
   1.771824e+02  -1.534554e+02
   1.892809e+02   7.464409e+01
  -1.758954e+01   2.416923e+02
  -2.556034e+02  -3.918363e+01
  -1.431021e+02  -2.606220e+02
   3.036794e+01  -3.419475e+02
   2.464712e+02  -2.216548e+02
   3.703259e+02   6.645381e+01
   2.955307e+02   2.851588e+02
   6.623904e+01   2.381480e+02
  -8.608847e+01   1.836044e+02
  -1.911297e+02   1.007278e+01
  -1.070431e+02  -2.149897e+01
   5.357637e+01   6.364123e+01
   2.452064e+01   1.022753e+02
  -1.292196e+02   9.234306e+01
  -1.709329e+02  -1.122425e+01
  -8.347274e+01  -6.964671e+01
   3.880468e+01  -2.178891e+01
   5.910494e+01   7.629576e+01
  -1.385737e+02   6.727254e+01
  -3.290815e+02  -2.305342e+01
  -2.342793e+02  -1.439584e+02
  -2.050642e+01  -2.808296e+02
   1.934264e+02  -2.238728e+02
   2.669432e+02  -1.054038e+02
   1.192564e+02   3.657854e+01
  -7.116890e+00   5.169812e+01
  -8.762882e+01  -2.758559e+01
   6.961520e+01  -1.010484e+02
   2.275372e+02  -6.145082e+01
   1.898524e+02   9.811518e+01
   5.556802e+01   1.775487e+02
  -1.045076e+02   1.899260e+02
  -1.438710e+02   6.858340e+01
  -4.983079e+01  -1.036173e+02
   1.536803e+01   1.524767e+01
   5.492906e+01   4.855220e+01
  -5.385030e+01   6.677895e+01
  -2.271685e+02   2.998352e+01
  -1.580077e+02  -1.600821e+02
  -1.652641e+01  -1.665657e+02
   1.288615e+02  -2.338438e+02
   1.840112e+02   7.106573e+00
   8.019421e+01   1.260166e+02
  -1.289569e+02   8.847790e+01
  -1.243711e+02   1.296691e+01
  -5.209920e+01  -1.333653e+01
   8.762806e+01  -7.613356e+00
  -2.299832e+01   1.625253e+01
  -6.558982e+01  -3.353109e+01
  -4.278044e+01  -1.039536e+02
  -1.288726e+01  -1.080202e+02
   1.560737e+02  -1.303820e+02
   2.196416e+02  -4.026013e+01
   2.048303e+02   1.272998e+02
   3.047783e+01   2.736626e+02
  -1.356291e+02   1.145682e+02
  -1.375351e+02   3.238702e+01
  -2.166010e+01  -1.366835e+01
  -7.691917e+01  -3.834136e+01
  -9.405388e+01   4.928632e+01
  -6.775780e+01  -2.347415e+01
  -4.486539e+01   2.693468e+01
   1.167037e+02  -1.164225e+02
   1.164305e+02  -3.314233e+01
   1.088165e+02   1.220809e+01
  -4.630644e+01   1.697617e+02
  -1.527108e+02   9.118918e+01
  -1.915841e+02  -9.055620e+00
  -1.311588e+02  -1.804797e+02
   7.851928e+01  -2.163907e+02
   2.774338e+02  -1.364763e+02
   2.288016e+02   8.473976e+01
   1.045387e+02   2.078173e+02
  -1.236266e+01   1.555072e+02
  -1.350849e+02   1.054534e+02
  -8.188088e+01   7.790752e+01
  -5.021154e+01   4.770347e+01
  -9.658582e+01   3.217415e+01
  -1.478958e+02  -1.393552e+01
  -1.229385e+02  -1.765578e+02
  -5.832810e+01  -2.540543e+02
   9.539398e+01  -1.637110e+02
   2.124237e+02  -5.583652e+01
   1.142335e+02   1.614478e+02
   7.145495e+01   1.448790e+02
  -5.943393e+01   8.465123e+01
  -9.061672e+01  -4.532526e+01
   1.636430e+01  -2.577079e+01
  -7.121299e+00  -5.644063e+00
  -5.921686e+01  -1.210268e+01
  -9.014596e+01  -5.293621e+01
  -3.220261e+01  -6.031685e+01
   3.233697e+01   2.901385e+00
   9.732934e+01   6.241710e+01
   1.226773e+02   7.445363e+01
   6.857333e+00   7.213249e+01
  -1.438229e+02   2.172112e+01
  -1.678775e+02   5.144933e+01
  -3.118887e+01  -3.467616e+01
   6.593897e+01  -4.567417e+01
   1.094730e+02   3.323663e+01
   2.858429e+01   4.690143e+01
  -8.554000e+00   9.419470e+01
  -4.314067e+01   2.310884e+01
  -9.466736e+01  -9.314286e+01
  -5.038595e+01  -8.858606e+01
  -6.807820e+01  -2.629295e+01
  -4.669301e+01  -3.733966e+01
  -2.508361e+01  -9.352668e+01
   1.551171e+01  -2.039369e+02
   1.082058e+02  -1.771183e+02
   1.361314e+02   1.845259e+01
   1.329173e+02   7.684726e+01
   4.184936e+00   1.171903e+02
  -6.296823e+01   6.761162e+01
  -4.663193e+01  -3.467654e+01
   8.814140e+00  -1.448315e+01
   1.322043e+02   7.138015e+01
   1.377771e+02   1.381336e+02
  -8.690211e+01   1.145676e+02
  -2.211666e+02   4.078245e+01
  -1.674906e+02  -6.285232e+01
  -1.804606e+01  -8.979917e+01
   8.195686e+01  -6.831020e+01
   6.854053e+01   3.098374e+00
  -6.643306e+01  -2.170127e+00
  -1.470692e+02   2.609791e+01
   3.597605e+00  -1.309252e+02
   1.156141e+02  -9.544713e+01
   1.429488e+02  -1.028292e+02
   1.223865e+02   1.241542e+02
   1.131448e+01   1.884787e+02
  -8.188562e+01   1.283939e+02
  -7.879543e+01  -1.792011e+01
  -5.409049e+01  -1.354868e+02
   1.349655e+01  -1.303325e+02
   8.664880e+01   9.857055e+00
   6.190984e+01   4.568239e+01
   4.439499e+01   2.695078e+01
   3.403967e+01  -1.787646e+01
   4.473000e+01   6.407898e+01
   4.881257e+01   5.978425e+01
   2.405790e+01   1.003880e+02
  -5.615191e+01   9.457877e+01
  -1.363634e+02  -5.073900e+00
  -1.620836e+02  -6.203870e+01
   7.786983e+00  -2.854037e+01
   1.545356e+02  -3.300039e+01
   9.700919e+01  -1.922905e+01
  -4.254570e+01  -1.757411e+01
   1.524792e+01  -1.068055e+01
  -2.664353e+01   7.287337e-01
   3.159063e+01  -2.665553e+01
   2.846434e+01  -2.654092e+01
  -5.489817e+01   3.897105e+00
  -7.100026e+01   1.222173e+01
  -2.286028e+01  -5.836894e+01
   1.662820e+02  -1.135357e+02
   1.757034e+02  -1.565450e+01
   1.586133e+02   1.237518e+02
   1.914699e+01   1.230373e+02
  -9.277433e+01   1.247114e+02
  -1.805141e+02   5.400782e+01
  -6.085680e+01  -1.551802e+01
   1.525028e+00  -4.045777e+01
  -4.068660e+01  -4.568989e+01
  -4.444271e+01  -4.293480e+01
  -2.905588e+01  -6.206946e+01
   3.416437e+01  -1.013091e+02
   2.806747e+00  -5.407893e+01
   1.153588e+02   5.586208e+01
   1.075832e+02   5.187646e+01
   3.476576e+00   1.014653e+02
  -8.886182e+01   4.972333e+01
  -5.689531e+01  -6.916687e+01
  -8.767752e+00  -1.144007e+02
   1.064085e+02  -8.171708e+01
   9.473111e+01   3.933667e+00
   4.325101e+01   6.898140e+00
  -5.293298e+00   9.941815e+01
   5.088892e+00   8.568758e+01
   5.107336e+01   4.276957e+01
   9.179415e+01   8.597718e+01
  -1.072990e+01   2.528152e+01
  -9.313683e+01   5.485375e+01
  -1.228619e+02   5.986058e+01
  -5.636545e+01  -2.204185e+01
  -1.918607e+00  -6.937942e+01
   6.185747e+01  -9.497297e+01
   5.821430e+01   1.362754e+01
  -4.018208e+01   9.721762e+01
  -3.452985e+01   9.644329e+00
  -7.910108e+01  -1.011347e+02
  -5.611234e+01  -3.720471e+01
  -3.337226e+01  -3.870997e+01
   3.286685e+01   1.805555e+01
   6.516897e+01  -2.111532e+01
  -1.336839e+01  -3.875057e+01
  -5.929420e+01  -1.292417e+01
   1.434361e+01  -4.591860e+01
   1.064937e+01   3.412583e+01
  -1.383460e+00   9.695860e+01
  -3.262717e+01   4.567846e+01
  -3.468455e+01   1.709998e+01
   2.791329e+01  -5.859041e+01
   8.904421e+01  -5.465187e+01
   7.149748e+01   3.585922e+01
  -1.653262e+01   4.332641e+01
  -4.984245e+01   4.580175e+01
  -8.891124e+01   1.092306e+01
  -1.118296e+01  -1.027506e+02
   2.677516e+01  -6.641277e+01
   4.920046e+01  -1.558718e+01
   1.948616e+01   2.896232e-01
  -5.378434e+01  -4.946766e+01
  -9.532137e+01  -4.539758e+01
   2.587142e+01  -5.218632e+01
   3.850084e+01  -1.863146e+01
