
 $NMID
 id='ANONYMOUS ', fmtdat='(2E16.6)'
 volume=1.0
 tramp=1.0
 $END
   4.514717e+03   6.769430e+01
   2.481842e+03   2.656103e+03
  -7.793200e+02   2.837295e+03
  -2.177047e+03   8.235462e+02
  -9.281749e+02  -6.866881e+02
   7.093496e+02  -6.466190e+02
   8.864627e+02   4.770150e+02
  -2.106994e+01   1.129590e+03
  -8.302304e+02   7.843043e+02
  -1.005804e+03  -1.507881e+02
  -4.601867e+02  -8.869067e+02
   3.000086e+02  -9.370364e+02
   6.353729e+02  -1.297022e+02
   3.816569e+02   6.846217e+02
  -3.339872e+02   8.402544e+02
  -5.696985e+02  -5.442391e+01
  -2.652976e+02  -6.991615e+02
   3.633866e+02  -6.558438e+02
   5.865890e+02  -1.057615e+02
   3.282350e+02   3.664333e+02
  -1.601290e+01   4.224733e+02
  -2.075522e+02   2.849233e+02
  -2.441045e+02   9.787650e+01
   1.281559e+02  -9.404381e+01
   4.400311e+02   1.302906e+02
   1.977548e+02   4.109320e+02
  -5.039616e+02   4.177042e+02
  -8.675324e+02  -4.423768e+01
  -4.828612e+02  -6.116069e+02
   4.703031e+02  -5.274714e+02
   7.758665e+02   9.964868e+00
   3.640685e+02   5.572629e+02
  -3.438271e+02   5.112615e+02
  -6.273431e+02   1.331339e+02
  -4.474765e+02  -1.812162e+02
  -6.725560e+01  -4.455622e+02
   2.384291e+02  -3.265721e+02
   1.952053e+02   2.374976e+02
  -2.386569e+02   4.010139e+02
  -5.059651e+02   2.469901e+00
  -2.414193e+02  -7.230736e+02
   3.385183e+02  -7.497602e+02
   6.036204e+02  -6.838091e+00
   2.736905e+02   5.651562e+02
  -3.462869e+02   3.253981e+02
  -3.974459e+02  -3.614219e+02
   5.915489e+01  -5.745700e+02
   5.752471e+02  -1.477243e+02
   6.099118e+02   4.296877e+02
   1.261266e+02   6.131792e+02
  -3.739710e+02   3.172685e+02
  -6.248415e+02  -3.351044e+01
  -3.858497e+02  -4.048211e+02
   1.705782e+02  -3.874855e+02
   4.708767e+02  -1.709474e+01
   2.448807e+02   2.355795e+02
  -1.357335e+02   1.576131e+02
  -1.013885e+02  -1.701781e+02
   1.331994e+02  -1.625376e+02
   3.790183e+02   9.422120e+01
   1.624434e+02   3.294712e+02
  -2.331377e+02   3.017858e+02
  -3.316739e+02   1.666903e+01
  -2.140456e+02  -8.612858e+01
   3.294134e+01  -2.202173e+02
   2.793089e+02  -3.177658e+02
   4.036778e+02  -2.177346e+02
   2.701335e+02   1.447652e+02
   3.900456e+01   4.604086e+02
  -1.652835e+02   3.493951e+02
  -1.067912e+02   1.315975e+02
  -3.571104e+01   2.394177e+01
  -2.127566e+01   9.056057e+01
  -1.932763e+02   1.077143e+02
  -2.783529e+02  -3.733913e+01
  -1.551758e+02  -2.571170e+02
   9.838492e+01  -2.345781e+02
   1.907981e+02   4.150973e+01
   1.997580e+02   2.045453e+02
  -2.974013e+01   2.921033e+02
  -3.059780e+02   1.161188e+02
  -3.685210e+02  -1.737501e+02
  -1.856211e+02  -3.393958e+02
   5.825628e+01  -3.456707e+02
   2.676143e+02  -1.102224e+02
   1.844666e+02   1.630684e+01
   1.198983e+02  -3.997064e+01
   2.408897e+02  -8.370581e+01
   3.894988e+02   9.684268e+01
   3.615094e+02   2.700719e+02
  -3.330816e+01   3.402087e+02
  -4.174516e+02   4.324466e+02
  -4.725964e+02   2.175365e+02
  -2.858494e+02  -4.377209e+01
  -6.598310e+01  -3.284065e+02
   9.393749e+01  -2.469812e+02
   5.537748e+01  -4.083771e+01
  -1.153049e+02   1.153691e+02
  -2.252458e+02   2.411196e+01
  -5.715891e+01  -2.056338e+02
   2.019772e+02  -1.945790e+02
   1.798396e+02   9.402753e+01
   3.162353e+00   2.216158e+02
  -2.133281e+02   3.178665e+00
  -1.228213e+02  -2.755171e+02
   9.347571e+01  -3.714172e+02
   2.481434e+02  -1.554328e+02
   3.490908e+02   8.510276e+01
   2.367562e+02   2.198260e+02
   1.160353e+02   2.855502e+02
  -1.207169e+02   2.107973e+02
  -1.601069e+02   3.247167e+01
  -3.028833e+01   4.098398e+00
   3.081023e+01   6.551136e+01
   1.021160e+02   1.518744e+02
  -1.467671e+02   7.931651e+01
  -1.976773e+02   9.116839e+00
  -1.547032e+01  -1.034882e+02
   5.728113e+01  -4.182541e+01
   9.251696e+01   8.488265e+01
  -1.330209e+02   8.119581e+01
  -3.113605e+02  -1.307542e+01
  -3.100946e+02  -1.049674e+02
  -2.460176e+01  -2.691539e+02
   2.146626e+02  -2.107180e+02
   2.984118e+02  -1.691231e+02
   1.764748e+02   8.057453e+01
  -2.716964e+01   1.325322e+02
  -8.535138e+01  -2.716213e+01
   1.440527e+01  -9.413821e+01
   2.535799e+02  -9.071246e+01
   1.724885e+02   1.295298e+02
   6.979418e+01   2.059754e+02
  -1.046259e+02   1.327881e+02
  -1.545347e+02   1.109305e+01
  -3.614877e+01  -2.484162e+01
   1.179845e+01  -1.579070e+01
   3.734991e+01   7.452617e+01
  -1.097895e+02   1.268853e+02
  -1.573686e+02   7.449605e+01
  -2.083766e+02  -6.555839e+01
  -2.187936e+01  -2.330885e+02
   1.525246e+02  -1.406235e+02
   2.157549e+02  -3.072842e+01
   7.454689e+01   4.456454e+01
  -5.556974e+01   1.058126e+02
  -8.025452e+01   6.011967e+01
  -2.394271e+01  -6.733861e+01
   2.160715e+01   2.589830e+01
   2.426555e+01  -4.544462e-01
  -6.431959e+01   1.008690e+01
  -8.037345e+01  -9.737762e+01
   3.235537e-01  -1.148223e+02
   9.538013e+01  -1.449977e+02
   2.134983e+02  -3.316907e+01
   1.870237e+02   1.668498e+02
  -6.121087e+00   1.963593e+02
  -8.057948e+01   1.654952e+02
  -9.478703e+01   4.548443e+01
  -8.842172e+01  -5.276756e+01
  -4.026329e+01  -4.905339e+01
  -9.070333e+01   8.646748e+00
  -7.944951e+01   3.313086e+01
   1.802105e+01   3.566460e+00
   9.278828e+01  -7.610698e+01
   5.506982e+01  -4.509564e+01
   6.093510e+01   5.160754e+01
  -9.282858e+00   9.178121e+01
  -1.877523e+02   9.445215e+01
  -1.989934e+02  -6.426263e+01
  -1.140481e+02  -1.807179e+02
   1.316415e+02  -2.619406e+02
   2.298164e+02  -1.432969e+02
   3.136353e+02   4.866353e+01
   1.128337e+02   2.056834e+02
  -2.111321e+01   9.995106e+01
  -1.482825e+02   9.490564e+01
  -1.034826e+02   7.154878e+01
  -9.597363e+01   5.303280e+01
  -8.158099e+01   1.152289e+02
  -1.268590e+02   1.143149e+01
  -7.285316e+01  -1.322297e+02
  -6.905076e+01  -1.868752e+02
   1.015150e+02  -2.175052e+02
   1.125727e+02  -4.296313e+01
   8.263563e+01   1.141975e+02
   2.484107e+01   1.582752e+02
  -8.363463e+01   6.654343e+01
  -1.120074e+02  -9.412303e+00
   1.840512e+01  -2.871173e+01
   2.120252e+01  -4.357650e+01
  -6.279876e+01  -7.911880e-01
  -7.627101e+01  -4.537312e+00
  -2.002778e+01   2.349211e+00
   1.290831e+02   1.149520e+00
   1.678833e+02   2.189938e+00
   1.366300e+02   1.603573e+01
   4.167098e+01   6.983957e+01
  -8.783306e+01   7.030605e+01
  -1.441230e+02   3.057141e+00
  -2.896374e+01  -2.186836e+01
   4.878411e+01  -3.383346e+01
   9.587419e+01   4.050699e+01
  -3.707680e+01   7.482335e+01
  -5.331603e+01   4.611526e+01
  -4.611673e+01   5.011531e+00
  -1.079956e+02  -2.352844e+01
  -1.189739e+01  -3.152993e+00
  -9.106326e+01  -1.743322e+01
  -3.167097e+01   2.706246e+01
  -2.396209e+01  -9.638982e+01
   7.842234e+01  -1.371791e+02
   1.339330e+02  -1.172267e+02
   1.404803e+02  -1.029411e+02
   1.616124e+02   1.285683e+02
   1.084267e+01   1.527441e+02
  -8.290537e+01   3.820934e+01
  -6.815704e+01  -5.804995e+01
   3.696443e+01  -1.829742e+01
   1.166500e+02   8.535836e+01
   1.236531e+02   1.261532e+02
  -1.022392e+02   4.668969e+01
  -2.076690e+02   1.058403e+02
  -2.102101e+02  -1.609817e+01
  -6.977246e+01  -9.822178e+01
   9.148670e+01   8.438528e+00
   2.234211e+01  -6.737759e+01
   1.806711e+00  -4.934828e-02
  -6.188208e+01  -2.700027e+01
  -1.174911e+02  -1.184730e+02
   1.080135e+02  -1.566602e+02
   1.439633e+02  -1.015628e+02
   1.202839e+02   9.312739e+01
  -2.453348e+01   1.865092e+02
  -1.466261e+02   1.507098e+02
  -1.190964e+02  -1.188587e+01
  -3.743040e+01  -9.078425e+01
  -2.830981e+01  -1.069933e+02
   7.662737e+01  -3.381403e+01
   2.445803e+01   5.077820e+01
   3.706582e+01   8.470024e+01
   4.345966e+00  -1.849616e+01
   4.213811e+01   2.655654e+01
   1.216640e+01   6.562351e+01
   7.093109e+00   1.377515e+02
  -4.968185e+01   5.390134e+01
  -1.594731e+02  -8.125951e+01
  -1.480636e+02  -3.386018e+01
  -1.428809e+01  -5.034513e+01
   8.859800e+01  -2.615846e+01
   1.371948e+02  -1.386088e+01
  -2.366923e+01  -3.390946e+01
  -5.289243e+01  -4.970266e+01
   9.476047e+00   2.486897e+01
   3.162147e+01  -1.776146e+01
   4.675108e+01  -5.840194e+01
  -1.086056e+02   1.366856e+01
  -1.225236e+02  -4.418879e+01
  -2.569791e+00  -3.920480e+01
   1.162032e+02  -1.186447e+02
   1.845770e+02  -2.421276e+01
   1.255703e+02   1.149502e+02
   1.248642e+01   1.745402e+02
  -1.063983e+02   1.293923e+02
  -7.471133e+01   1.093550e+02
  -1.116240e+02  -4.295373e+01
  -1.171882e+01   1.562823e+00
  -4.493833e+01   2.903603e+01
  -2.129972e+01  -7.118392e+00
  -1.768786e+01  -6.099652e+01
  -4.678887e+01  -7.464087e+01
   5.273039e+01  -8.176433e+01
   3.421443e+01  -2.246269e+01
   1.232590e+02   8.000957e+01
  -2.573771e+01   1.761079e+02
  -7.846292e+01   1.699598e+01
  -1.040952e+02  -1.292729e+02
   6.658559e+00  -1.113366e+02
   7.594400e+01  -3.024649e+01
   6.751344e+01  -3.824522e+00
   4.903990e+00   6.830418e+01
   2.002570e+01   5.196487e+01
  -3.821150e+01  -8.076377e-01
   5.185245e+01   2.880578e+01
   6.544655e+01   1.292798e+01
  -4.683079e+01   5.723615e-01
  -9.294946e+01   4.259198e+01
  -6.821191e+01   1.957020e+01
  -2.490778e+01   2.735119e+01
   6.451262e+01  -9.623712e+01
   5.219659e+01  -1.205411e+02
   7.296557e+01  -3.194573e+01
   1.044554e+01   3.197296e+01
  -4.628546e+01   5.925887e+01
  -1.991295e-01   1.656764e+01
  -1.581131e+01  -4.796886e+01
  -8.085767e+01  -1.304479e+01
   6.593017e+01  -2.411567e+00
   2.686550e+01   9.458357e+00
   1.207847e+00   2.274966e+00
  -1.306893e+01   9.303589e-01
  -2.106332e+01  -3.632305e+01
  -2.271232e+01   9.677199e+00
  -8.045369e+01   6.529341e+01
  -7.075800e+01   1.647826e+01
  -2.668126e+01  -7.782389e+01
  -4.248854e+01  -6.288043e+01
   1.846546e+01  -2.080652e+01
   1.151130e+02   2.838626e+01
   1.425352e+01   8.635622e+01
  -9.531121e+01  -9.701585e+00
  -1.322145e+02   2.322265e+01
  -3.111420e+01   5.359107e+00
   3.389652e+01  -9.475361e+01
   1.009516e+02   1.885709e+01
   4.563030e+01  -3.991230e+01
  -3.846941e+01   6.954330e+01
  -1.066188e+01  -4.238433e+01
   4.032541e+01   1.318839e+00
   1.243557e+02   2.259054e+01
