
 $NMID
 id='ANONYMOUS ', fmtdat='(2E16.6)'
 volume=1.0
 tramp=1.0
 $END
   4.648895e+03  -2.802521e+01
   2.671816e+03   2.879950e+03
  -9.046313e+02   2.975481e+03
  -2.346705e+03   8.382914e+02
  -9.805429e+02  -8.755523e+02
   8.004939e+02  -6.487860e+02
   1.031057e+03   5.192057e+02
   2.606251e+01   1.209193e+03
  -9.234754e+02   8.719818e+02
  -1.038145e+03  -1.025641e+02
  -5.276072e+02  -1.026467e+03
   2.692238e+02  -9.830520e+02
   7.457387e+02  -8.208492e+01
   4.206191e+02   8.202873e+02
  -3.459554e+02   7.967287e+02
  -6.447438e+02  -4.547416e+01
  -2.714794e+02  -7.346903e+02
   3.931808e+02  -6.438873e+02
   6.499877e+02  -1.449563e-01
   3.912456e+02   3.680379e+02
  -4.036570e+01   4.168974e+02
  -2.323213e+02   2.213770e+02
  -2.683148e+02   2.449896e+00
   6.303350e+01  -1.052370e+02
   4.637181e+02   7.781328e+01
   2.330666e+02   4.298745e+02
  -5.009896e+02   4.041747e+02
  -8.915684e+02  -5.995107e+01
  -4.779780e+02  -6.040017e+02
   4.212875e+02  -5.526606e+02
   8.179689e+02   1.778522e+01
   3.841527e+02   5.315647e+02
  -2.891053e+02   5.740174e+02
  -5.839794e+02   2.305867e+02
  -4.570784e+02  -2.364188e+02
  -6.063594e+01  -5.049450e+02
   2.497244e+02  -2.842877e+02
   1.864766e+02   2.448671e+02
  -1.845549e+02   5.021757e+02
  -5.123158e+02   2.698456e+01
  -3.054443e+02  -7.805239e+02
   2.971545e+02  -7.896304e+02
   6.934246e+02  -2.398890e+01
   3.118628e+02   5.640368e+02
  -3.532435e+02   3.571854e+02
  -3.934176e+02  -3.101187e+02
   6.692517e+01  -5.911857e+02
   5.749944e+02  -2.224429e+02
   6.320784e+02   4.486342e+02
   1.820120e+02   5.562613e+02
  -3.880191e+02   3.794278e+02
  -7.211304e+02  -8.371122e+01
  -4.152696e+02  -3.948739e+02
   1.622534e+02  -4.462375e+02
   4.956944e+02  -1.200300e+02
   2.252319e+02   2.505854e+02
  -1.224857e+02   2.005594e+02
  -1.846571e+02  -1.967901e+02
   2.186366e+02  -1.975830e+02
   3.555234e+02   5.801637e+01
   2.364193e+02   3.234532e+02
  -2.306183e+02   2.350059e+02
  -2.838396e+02   6.202228e+01
  -2.021315e+02  -1.070527e+02
   3.625618e+00  -1.909688e+02
   2.471429e+02  -3.389904e+02
   3.269136e+02  -2.559082e+02
   3.009453e+02   8.675632e+01
   1.051682e+02   4.988681e+02
  -1.365082e+02   3.818045e+02
  -1.863393e+02   1.076193e+02
  -2.444707e+01  -4.741638e+01
  -7.439957e+00   7.850948e+01
  -1.802348e+02   1.661216e+02
  -2.533588e+02  -1.046652e+01
  -1.643769e+02  -2.490669e+02
   6.807319e+01  -2.852532e+02
   2.141749e+02  -1.343593e+00
   2.444233e+02   2.606779e+02
  -2.823579e+00   3.286248e+02
  -2.605267e+02   1.011875e+02
  -3.863520e+02  -2.099881e+02
  -2.204645e+02  -3.951077e+02
   8.369303e+01  -3.279101e+02
   2.751835e+02  -9.609627e+01
   1.743026e+02  -6.871046e+01
   1.304415e+02  -5.335150e+01
   2.395539e+02  -9.626433e+01
   3.564557e+02   1.050221e+01
   3.455101e+02   3.145195e+02
  -1.202457e+00   4.767909e+02
  -3.493149e+02   4.596887e+02
  -4.873912e+02   2.156029e+02
  -3.739614e+02  -1.111921e+02
  -4.327515e+01  -2.980246e+02
   1.311536e+02  -2.797929e+02
   8.405745e+01  -7.391921e+01
  -1.087927e+02   1.478864e+02
  -2.287348e+02  -3.021457e+01
  -6.790790e+01  -1.759172e+02
   1.854532e+02  -1.927226e+02
   1.790106e+02   7.704488e+01
  -2.347504e-01   2.089687e+02
  -2.444675e+02   3.714417e+01
  -1.781779e+02  -2.487713e+02
   3.426016e+01  -3.445805e+02
   2.221753e+02  -1.868114e+02
   3.604914e+02   2.821456e+01
   3.107073e+02   2.847546e+02
   9.453974e+01   2.235154e+02
  -1.441133e+02   1.705408e+02
  -1.571335e+02   1.285324e+00
  -9.388471e+01  -4.118817e+01
   9.290553e+01   3.185151e+01
   2.744821e+01   1.303464e+02
  -1.310912e+02   1.005822e+02
  -2.043935e+02   3.554112e+01
  -5.303464e+01  -1.143380e+02
   1.017915e+02  -5.469559e+01
   7.213377e+01   1.324960e+02
  -1.091406e+02   3.451983e+01
  -2.664357e+02   5.453404e+01
  -2.912748e+02  -1.096258e+02
  -1.311309e+02  -2.339008e+02
   2.074082e+02  -2.988139e+02
   3.097658e+02  -6.505883e+01
   1.809242e+02   6.123055e+01
  -7.399652e+01   6.487962e+01
  -5.976176e+01  -8.590934e-01
   5.081843e+01  -1.297496e+02
   2.523376e+02  -6.943608e+01
   2.248472e+02   1.176008e+02
   8.174918e+01   2.347429e+02
  -7.267314e+01   1.385942e+02
  -1.102496e+02   3.463120e+01
  -8.790397e+00  -3.763310e+00
   4.702728e+01   2.819807e+01
   3.081045e+01  -1.590577e+01
  -4.651861e+01   1.413966e+02
  -1.942136e+02   5.157011e+01
  -2.044759e+02  -1.298414e+02
  -9.120178e+00  -2.419745e+02
   2.152547e+02  -2.221673e+02
   2.160151e+02  -4.884240e+01
   8.561157e+01   8.632938e+01
  -7.009946e+01   1.402929e+02
  -6.061366e+01   3.407790e+01
  -7.721076e+00  -2.381493e+01
   1.145158e+01  -4.124570e+00
   2.557679e+01   3.170117e+01
  -6.718489e+01  -3.328405e+01
  -6.340117e+01  -1.203226e+02
  -3.699265e+00  -1.756388e+02
   8.338827e+01  -1.812547e+02
   2.185499e+02  -1.548449e+01
   2.173712e+02   1.784530e+02
   5.092454e+01   2.630294e+02
  -1.157626e+02   1.468299e+02
  -1.536715e+02   3.564075e+01
  -7.468515e+01  -6.140986e+01
  -9.582270e+01  -2.935852e+01
  -4.916573e+01  -1.452596e+01
  -9.211584e+01   2.376356e+01
  -8.593959e+01  -4.356263e+01
   3.494395e+01  -8.864064e+01
   1.184590e+02  -3.471222e+01
   8.589450e+01   4.953096e+01
  -7.003566e+00   1.353622e+02
  -9.699272e+01   8.341271e+01
  -1.905493e+02  -4.168071e+01
  -1.418432e+02  -1.812973e+02
   7.000032e+01  -2.247966e+02
   2.545324e+02  -1.492787e+02
   3.065967e+02   9.367998e+01
   1.488941e+02   2.100401e+02
  -2.441344e+01   1.461237e+02
  -1.586808e+02   1.457667e+02
  -6.626402e+01   7.877022e+01
  -6.492027e+01   1.270938e+02
  -1.173117e+02   2.455285e+01
  -8.266262e+01  -2.580020e+01
  -1.553758e+02  -1.587544e+02
   1.102529e+01  -1.851794e+02
   1.447070e+02  -1.754429e+02
   1.428430e+02  -8.039776e+00
   1.023915e+02   1.298261e+02
   7.229579e+01   1.927461e+02
  -5.530955e+00   1.148422e+02
  -4.534328e+01  -5.604810e+01
  -3.808167e+00  -7.355947e+01
  -5.645427e+00  -1.048092e+02
  -6.145080e+01  -4.190595e+01
  -4.490186e+01  -6.145548e+00
   1.418766e+01  -6.457790e+01
   9.351500e+01  -3.183517e+01
   1.905432e+02  -2.162047e+01
   1.886656e+02   1.006599e+02
  -3.746666e+01   1.155767e+02
  -9.280642e+01   1.016787e+02
  -1.201311e+02  -1.233691e+00
  -5.639961e+01  -1.581943e+01
   8.063814e+01  -3.841200e+01
   9.593478e+01   2.915936e+01
  -1.571947e+01   9.096597e+01
  -3.663193e+01   9.994227e+01
  -6.488383e+01  -7.014964e+00
  -6.771328e+01  -1.062005e+02
   5.265678e-01  -5.353732e+01
  -1.113126e+02  -2.464615e+01
  -4.022608e+01   3.851528e+01
  -7.909513e+01  -6.356875e+01
   7.364962e+01  -1.342258e+02
   1.315536e+02  -1.429396e+02
   1.540679e+02  -2.680679e+01
   1.397270e+02   8.724335e+01
  -2.614827e+01   1.090850e+02
  -3.242411e+01   7.504348e+01
  -6.339844e+01  -7.834460e+01
   9.283111e+01  -3.688173e+01
   1.503388e+02   5.179966e+01
   1.240655e+02   1.064897e+02
  -6.439224e+01   1.008192e+02
  -1.864283e+02   5.412388e+01
  -1.777485e+02  -3.183317e+00
  -5.658656e+01  -5.698977e+01
   5.799011e+01  -6.064648e+01
   1.625343e+01  -1.902432e+01
  -3.829453e+01   6.081127e+01
  -1.002287e+02  -3.278791e+01
   5.332766e+00  -7.900057e+01
   9.077406e+01  -1.142155e+02
   1.802303e+02  -6.762856e+01
   1.437978e+02   5.839455e+01
   1.667477e+01   2.171622e+02
  -1.306025e+01   1.720558e+02
  -7.705642e+01  -3.221696e+01
  -4.937409e+01  -8.394957e+01
   2.089954e+01  -1.426060e+02
   8.266285e+01  -1.892334e+01
   3.827901e+01   3.130222e+01
   5.192871e+01   1.661355e+01
   1.090669e+01  -3.278962e+01
   4.969700e+01  -2.904624e+00
   3.355095e+01   9.341122e+01
   5.197079e+01   1.118501e+02
  -7.999564e+00   3.545444e+01
  -1.984015e+02  -4.936222e+01
  -1.588328e+02  -5.335182e+01
   8.217109e+00  -1.443633e+01
   8.994585e+01   2.687736e+01
   1.191471e+02  -6.020934e+01
   1.784750e+01   4.442345e+01
  -8.720412e+01   4.662222e+00
  -8.665943e-01   4.444850e+01
   6.554543e+00  -4.024967e+01
  -6.003620e+00  -1.150526e+01
  -6.321448e+01  -5.050171e+01
  -1.396960e+02  -1.580236e+01
   4.024327e+00  -5.280328e+01
   1.463693e+02  -8.180739e+01
   1.462085e+02  -1.551517e+01
   1.549365e+02   3.465951e+01
   3.876338e+01   1.819454e+02
  -1.093940e+02   1.540505e+02
  -1.058014e+02   8.937474e+01
  -1.189966e+02  -3.110004e+01
  -7.795119e+00   3.164501e+01
   1.352488e+01  -1.763435e+01
   3.463549e+00   2.023682e+01
   2.072504e+01  -5.696453e+01
   4.478639e+01  -9.765642e+01
   8.174126e+01  -1.004400e+02
   9.231368e+01   6.623912e+01
   6.533903e+01   1.569109e+02
  -2.881638e+01   8.627492e+01
  -1.252780e+02   1.443677e+01
  -1.190079e+02  -4.856934e+01
  -2.066296e+01  -4.240399e+01
   8.432025e+01  -4.597569e-01
   1.395104e+02   3.559743e+01
   2.363903e+01  -1.398807e+00
   2.509668e+01   9.079968e+01
  -9.125581e-01  -3.356415e+01
   7.883309e+01   1.870740e+00
   8.538146e+01   1.094810e+01
  -1.358047e+01   5.667944e+01
  -9.185038e+01   8.207494e+01
  -7.321856e+01   8.643182e+01
  -3.586035e+01   2.934796e+01
  -9.956012e+00  -6.596533e+01
   1.913564e+01  -8.519479e+01
   4.032928e+01   1.604314e+00
   2.282637e+01   4.194208e+01
  -2.635556e+01   5.121059e+01
  -9.401492e+00  -5.020962e+01
  -4.769488e+00  -5.978624e+01
   2.276142e+01  -2.407712e+01
   2.358629e+01   3.744094e+01
   6.802086e+01   1.725321e+00
   1.633917e+00  -8.449889e+00
  -2.285113e+01   1.596548e+01
   1.879345e+01  -2.046677e+01
   4.200649e+01   4.528923e+01
   1.280081e+01   1.300520e+01
  -6.731075e+01  -4.399133e+00
   3.474907e+01  -6.633962e+01
   4.702094e+01  -2.516214e+01
   9.659111e+01  -6.862032e+00
   5.562599e+01   6.454247e+01
   5.514094e+00   7.387869e+01
  -5.539649e+01   3.988083e+01
  -8.359913e+01  -1.029493e+01
  -5.767156e+01  -8.428340e+01
  -3.099258e+01  -5.043157e+01
   4.434713e+01  -2.960859e+01
   2.916052e+01   1.905467e+01
  -1.015930e+02   9.639494e+00
  -4.568891e+01  -2.436191e+01
   5.206503e+01  -7.848698e+01
   1.276964e+02  -2.375859e+01
