
 $NMID
 id='ANONYMOUS ', fmtdat='(2E16.6)'
 volume=1.0
 tramp=1.0
 $END
  -4.258968e+03  -5.710785e+01
  -2.457708e+03  -2.559309e+03
   6.779140e+02  -2.653393e+03
   2.035122e+03  -9.349764e+02
   9.582707e+02   5.456948e+02
  -5.797963e+02   4.682145e+02
  -7.595021e+02  -4.055099e+02
  -1.938633e+01  -1.021430e+03
   7.579409e+02  -7.604374e+02
   9.081946e+02   8.484756e+01
   3.897760e+02   8.427508e+02
  -2.324035e+02   8.779996e+02
  -5.908387e+02   1.280973e+02
  -3.657609e+02  -6.943990e+02
   2.893887e+02  -7.101648e+02
   5.460553e+02  -6.602392e+00
   2.347689e+02   6.240593e+02
  -2.907148e+02   6.385446e+02
  -5.763282e+02   1.356575e+02
  -4.117635e+02  -3.246086e+02
  -6.819160e+01  -4.414789e+02
   2.150788e+02  -2.593113e+02
   1.527915e+02   7.046094e+00
  -1.302820e+02   5.516691e+00
  -3.847996e+02  -1.737176e+02
  -1.693530e+02  -4.197048e+02
   4.681351e+02  -3.919371e+02
   8.233256e+02   1.097162e+02
   4.092615e+02   5.356023e+02
  -3.641125e+02   4.515860e+02
  -6.993762e+02  -5.819992e+01
  -3.609920e+02  -4.991837e+02
   3.519111e+02  -4.744034e+02
   5.419272e+02  -2.270876e+02
   4.372890e+02   2.522704e+02
   3.175987e+01   4.465682e+02
  -1.976047e+02   2.848697e+02
  -1.555109e+02  -2.018626e+02
   2.101711e+02  -4.029081e+02
   3.878588e+02   2.621426e+01
   2.266540e+02   7.057468e+02
  -3.428126e+02   6.621063e+02
  -5.679639e+02   6.847090e+00
  -2.036054e+02  -5.799549e+02
   2.663899e+02  -2.933503e+02
   3.893159e+02   3.133743e+02
  -1.321260e+02   5.666770e+02
  -5.805784e+02   1.286983e+02
  -5.806484e+02  -4.186185e+02
  -1.749562e+02  -6.206313e+02
   3.703992e+02  -3.830951e+02
   6.365128e+02   9.363784e+01
   4.026308e+02   4.244705e+02
  -2.079447e+02   3.864793e+02
  -4.529393e+02   6.473372e+01
  -2.409759e+02  -1.937656e+02
   7.856844e+01  -1.150384e+02
   1.601655e+02   1.050719e+02
  -1.035627e+02   1.913700e+02
  -3.350470e+02  -1.344401e+02
  -1.706075e+02  -2.940221e+02
   2.132801e+02  -2.858660e+02
   3.743567e+02  -8.672148e+01
   1.823873e+02   9.180027e+01
  -1.243236e+02   2.603984e+02
  -2.488349e+02   3.647178e+02
  -3.983444e+02   2.558567e+02
  -2.790845e+02  -1.233799e+02
  -7.949895e+01  -4.344725e+02
   1.054256e+02  -3.535113e+02
   7.552693e+01  -1.298715e+02
   1.928207e+01  -2.097194e+01
   5.438120e+01  -6.009399e+01
   2.009433e+02  -1.395187e+02
   2.650393e+02  -8.204723e-01
   1.259376e+02   2.422689e+02
  -8.274748e+01   2.173362e+02
  -2.217263e+02   6.491241e+01
  -1.569517e+02  -2.608757e+02
  -2.984615e+01  -2.883497e+02
   2.544809e+02  -1.328779e+02
   3.457820e+02   1.371342e+02
   1.571080e+02   3.450670e+02
  -8.142015e+01   2.823769e+02
  -3.140219e+02   1.153057e+02
  -1.392948e+02   2.372583e+01
  -9.515992e+01   2.864377e+01
  -2.988996e+02   3.159777e+01
  -4.429463e+02  -1.440994e+01
  -2.922250e+02  -2.536986e+02
  -3.591553e+01  -4.615307e+02
   4.253254e+02  -3.569892e+02
   5.010542e+02  -1.904528e+02
   3.611515e+02   9.223459e+01
   1.304685e+01   3.275929e+02
  -1.237764e+02   2.365988e+02
  -4.853572e+01   7.243616e+01
   1.405813e+02  -7.934658e+01
   2.187579e+02   1.971591e+00
   5.147940e+01   1.906700e+02
  -1.450669e+02   1.269975e+02
  -1.673024e+02  -8.319713e+01
   3.970303e+01  -1.768143e+02
   2.027829e+02   1.102439e+01
   1.149275e+02   2.457894e+02
   2.215494e+01   3.664284e+02
  -2.610988e+02   2.094178e+02
  -3.368910e+02  -2.864832e+01
  -2.835455e+02  -2.434745e+02
  -9.693404e+01  -2.535108e+02
   1.413234e+02  -2.196677e+02
   2.552123e+02   1.772410e+01
   5.178989e+01  -3.477848e+01
  -3.246170e+01   3.356742e+00
  -1.721526e+01  -1.292627e+02
   1.287209e+02  -8.428377e+01
   2.606720e+02   4.094499e+01
   9.472208e+01   5.024259e+01
  -3.872396e+01   4.591548e+01
  -3.846757e+01  -6.289640e+01
   1.557834e+02  -1.600879e+02
   2.661858e+02  -2.420328e+01
   3.357067e+02   1.410689e+02
   5.736425e+01   2.886658e+02
  -1.862318e+02   2.981545e+02
  -3.090364e+02   1.647782e+02
  -1.500407e+02  -3.806513e+01
   5.678296e+01  -1.180257e+02
   9.061742e+01  -3.161684e+01
   1.960639e+01   1.301892e+02
  -2.205525e+02   7.600072e+01
  -1.983953e+02  -1.289061e+02
  -6.632649e+01  -1.730968e+02
   6.743129e+01  -1.282681e+02
   9.584651e+01   1.032706e+01
   4.667181e+01   4.862607e+01
  -1.959747e+01  -6.507930e+01
  -3.781243e+01  -1.048865e+02
   7.750807e+01  -8.604217e+01
   2.254409e+02  -8.509326e+01
   2.125899e+02   1.264860e+02
   2.717403e+00   2.470960e+02
  -1.778347e+02   1.616199e+02
  -2.037650e+02   3.537329e+01
  -5.619547e+01  -1.297660e+02
   1.193729e+02  -9.651037e+01
   1.056780e+02   2.333631e+00
  -4.605450e+00   6.879222e+00
   9.038147e-01   2.672035e+01
   1.886602e+01   3.771272e+01
   7.867091e+01   1.338068e+01
   1.165351e+02   6.334801e+01
  -2.351344e-01   1.731380e+02
  -1.104822e+02   1.581118e+02
  -2.485672e+02   3.918958e+01
  -1.882924e+02  -1.211530e+02
  -4.000460e+01  -2.363523e+02
   9.372818e+01  -1.849019e+02
   1.523384e+02  -3.070620e+01
   1.566161e+02   9.179500e+01
  -1.873911e+01   4.297148e+01
   5.784676e+01  -3.099611e+01
   3.731930e+01  -4.682586e+01
   1.881803e+00   7.403384e+01
  -5.090955e+01   1.277716e+02
  -1.017847e+02   6.059884e+01
  -1.220297e+02  -1.769275e+00
  -3.846105e+01  -7.646547e+01
   1.575826e+02  -8.600693e+01
   2.125203e+02   1.950805e+01
   8.466679e+01   2.109049e+02
  -1.380347e+02   2.070438e+02
  -3.201258e+02   1.024805e+02
  -3.616862e+02  -1.137507e+02
  -1.147215e+02  -2.404926e+02
   2.687173e+01  -1.041772e+02
   6.733340e+01  -8.836533e+01
   9.812855e+01  -4.819838e+01
   9.859602e+01  -8.927447e+01
   9.722208e+01  -2.280855e+01
   1.149061e+02  -4.294028e+01
   1.036131e+02   1.157016e+02
   4.040182e+01   2.179621e+02
  -8.631512e+01   1.780944e+02
  -1.974260e+02   4.609303e+01
  -1.441642e+02  -1.245665e+02
  -5.308077e+01  -1.659944e+02
   5.032078e+01  -1.681344e+02
   9.275482e+01  -3.067943e+01
  -2.356436e+01   8.249552e+01
  -3.192452e+01   2.884244e+01
   2.086028e+01   3.365853e+00
   9.657578e+01   9.443492e+00
   6.436712e+01   1.101501e+01
  -7.393960e+01   4.426078e+01
  -1.915396e+02   9.703382e+01
  -1.525805e+02  -7.951075e+01
  -2.215044e+01  -5.093879e+01
   1.024060e+02  -9.202325e+01
   1.833891e+02  -2.345046e+01
   1.635941e+01   4.110145e+01
  -5.424305e+01   6.621514e+01
  -5.840686e+01  -9.242418e+00
   1.477105e+01  -6.685470e+01
   6.551984e+01  -1.226782e+02
   1.161895e+02   2.333271e+00
   5.685922e+01   2.045289e+00
   4.669160e+01   6.956201e+01
   7.451154e+01   1.768126e+01
   9.861046e+01   7.155092e+01
  -2.168933e+01   7.975401e+01
  -6.747575e+01   1.225994e+02
  -1.198467e+02   2.190767e+02
  -1.679827e+02   3.881184e+01
  -9.496383e+01  -6.301552e+01
  -5.752915e+01  -1.155057e+02
   7.875616e+01  -7.145715e+01
   2.032948e+01   1.238829e+01
  -3.043970e+01   9.586726e+00
  -1.748235e+02  -5.204872e+01
  -5.940111e+01  -7.941001e+01
   1.238736e+02  -1.648679e+02
   1.781958e+02  -6.528019e+01
   1.800261e+02   1.065546e+02
   4.093726e+01   2.879579e+01
  -4.028031e+01   1.053769e+02
  -3.999962e+01   1.961584e+01
   4.941295e+01  -6.025112e+01
   5.848984e+01   5.843872e+01
   2.124274e+01   1.301912e+02
  -1.019947e+02   1.510089e+02
  -1.542221e+02   1.028336e+02
  -1.374044e+02  -1.410358e+02
  -2.839631e+01  -2.140483e+02
   1.046169e+02  -1.492808e+02
   1.425634e+02  -1.629990e+01
   3.181167e+01   9.122625e+01
  -3.589711e+01   1.073709e+02
  -3.057213e+01   3.505456e+01
  -5.537726e+01  -1.431209e+01
  -2.870519e+01  -2.456452e+01
  -2.191952e+01  -2.083842e+01
  -3.486386e+01   3.031062e+01
  -7.309456e+01  -6.120434e+01
  -5.991098e+01  -9.625489e+01
   2.624332e+01  -5.878520e+01
   1.304740e+02   3.632515e+01
   9.896870e+01   1.083589e+02
  -3.672846e+01   8.657361e+01
  -7.195543e+01   5.468531e+01
  -5.947351e+01   4.253979e+01
   1.049661e+01  -5.234585e+00
   4.629909e+01  -5.290331e+01
   4.604561e+00  -2.238516e+01
   3.087276e+01  -5.978013e+01
  -5.175427e+00   5.916266e+00
   8.599149e+00  -3.840403e+01
   8.560770e+01   3.797311e+01
   2.046696e+01   6.811894e+01
  -1.003274e+02   1.072913e+02
  -1.608378e+02   5.996569e+01
  -1.298051e+02  -7.845496e+01
  -2.747981e+01  -1.830801e+02
   1.713685e-01  -1.692111e+02
   7.962011e+01  -6.018201e+01
   7.715381e+01   1.291998e+01
  -1.952625e+01   3.576088e+01
   5.110427e+00   1.185471e+01
   3.044800e+01  -1.070218e+01
  -2.660754e+00   7.806088e+01
   3.237685e+01   7.005631e+01
  -2.744887e+01   9.871424e+01
  -1.168147e+02  -3.102979e+01
  -7.723364e+01  -9.524231e+01
   2.115256e+01  -9.420159e+01
   5.857919e+01   6.689409e+00
   1.177004e+02   7.316610e+01
   2.304151e+01   8.150223e+01
  -1.792139e+01   2.451210e+01
  -5.367347e+01  -4.922117e+01
  -3.928481e+01  -7.608148e+01
  -1.009960e+01  -9.100161e+01
   4.661375e+01  -3.451099e+01
  -2.974637e+01  -2.728260e+01
  -2.703500e+01   2.478692e+00
  -1.646675e+01  -8.771369e+00
   1.033806e+02  -4.922622e+01
   6.579167e+01  -7.174221e+01
   1.045815e+02   6.757344e+01
  -1.392887e+01   5.653901e+01
  -2.667842e+01   7.684176e+01
  -1.506697e+01  -5.241267e+00
   1.564192e+01  -3.712004e+01
  -3.752088e+01   5.224247e+00
   6.273189e+01   2.954586e+01
   3.251699e+01   7.153384e+01
  -8.975876e-01   9.845658e+00
  -1.319551e+01  -3.905431e+01
  -4.799818e+01  -2.198581e+01
  -5.201394e+01  -4.165265e+01
  -3.008997e+01   7.915945e+00
  -1.379354e+01  -4.109762e+00
  -4.608291e+01  -2.489405e+01
   3.650571e+01   5.108061e+00
   9.312560e+00  -7.579033e+01
  -2.801382e+01   3.662121e+01
   2.379389e+01   4.363919e+01
  -3.001396e+01   8.164684e+01
  -4.158544e+01  -1.521230e+01
  -6.125191e+01  -2.454537e+01
   5.873439e+01  -6.555414e+01
   5.501234e+01   5.455716e+01
   1.929124e+01   8.911911e+01
  -6.866054e+01   1.302183e+01
  -6.657636e+01   4.249839e+01
  -6.125271e+00   5.398666e+01
  -2.171838e+01  -2.574509e+01
   7.524093e+01   9.795425e+00
  -5.888768e+01  -2.855652e+01
  -8.114164e+01  -5.141640e-01
