
 $NMID
 id='ANONYMOUS ', fmtdat='(2E16.6)'
 volume=1.0
 tramp=1.0
 $END
   3.052191e+03  -6.795130e+01
   2.132924e+03   1.431875e+03
   1.718626e+02   1.961365e+03
  -1.101067e+03   1.307849e+03
  -9.793701e+02   3.784398e+02
  -1.541978e+02  -1.576349e+02
   3.188091e+02   1.294339e+01
   5.611981e+01   4.706118e+02
  -3.949474e+02   5.846975e+02
  -5.929562e+02   1.579301e+02
  -4.031509e+02  -4.335198e+02
  -1.034441e+02  -5.979637e+02
   2.419236e+02  -2.814133e+02
   2.464875e+02   3.002230e+02
  -4.911383e+01   5.244063e+02
  -3.962701e+02   9.361574e+01
  -3.445715e+02  -4.337971e+02
   5.753834e+01  -5.919086e+02
   4.237895e+02  -3.468078e+02
   4.455369e+02   7.957385e+01
   1.593768e+02   3.969164e+02
  -9.449953e+01   2.689601e+02
  -5.384471e+01   1.036833e+02
   1.686204e+02   1.465710e+02
   3.275279e+02   2.796631e+02
  -8.833309e+01   3.388083e+02
  -4.238139e+02   1.360627e+02
  -5.268640e+02  -2.336282e+02
  -1.859768e+02  -3.878391e+02
   2.362900e+02  -2.051966e+02
   4.452792e+02   1.129906e+02
   2.565836e+02   3.192363e+02
  -2.320797e+02   3.524829e+02
  -4.095691e+02   1.560105e+02
  -3.214758e+02  -1.040089e+02
  -8.703715e+01  -3.201430e+02
  -1.040642e+01  -1.888027e+02
  -4.602908e+01   1.741862e+01
  -1.570718e+02   9.711707e+01
  -1.809093e+02  -2.164670e+02
   7.288987e+01  -4.426790e+02
   2.474021e+02  -4.446663e+02
   2.629213e+02  -3.866932e+01
   1.257669e+02   3.018651e+02
  -1.015044e+02   9.947619e+01
  -1.447739e+02  -2.262332e+02
   1.000295e+02  -3.782880e+02
   4.243564e+02  -3.741223e+01
   4.780903e+02   3.784869e+02
   1.914601e+02   4.498172e+02
  -2.760375e+02   2.927853e+02
  -4.305740e+02  -8.095511e+01
  -3.963203e+02  -2.041303e+02
   3.245423e+01  -1.948154e+02
   2.621378e+02  -9.578487e+01
   1.963394e+02  -1.153792e+01
   1.196974e+00   4.875034e+01
  -2.325087e+01  -3.958395e+01
   4.846547e+01  -2.025379e+01
   2.241714e+02   2.322964e+01
   1.328773e+02   1.534822e+02
  -1.151510e+02   2.512771e+02
  -3.097764e+02   1.687075e+02
  -3.000783e+02  -7.180979e+01
   3.432195e+01  -3.711680e+02
   2.827341e+02  -3.914374e+02
   3.359929e+02  -1.682204e+02
   2.046460e+02   1.431584e+02
   1.155429e+02   3.519555e+02
   2.908100e+01   3.057814e+02
   5.363241e+01   1.800769e+02
  -4.466783e+00   7.272973e+01
  -1.457493e+02   1.321257e+02
  -2.253625e+02   7.118699e+01
  -1.947622e+02  -1.642315e+02
  -1.452089e+02  -2.506110e+02
   1.117832e+02  -2.116213e+02
   1.621457e+02   7.750117e+01
   1.672167e+02   2.404685e+02
  -9.917212e+01   2.810679e+02
  -2.405174e+02   5.062058e+01
  -2.979300e+02  -1.179852e+02
  -1.884395e+02  -2.635324e+02
  -8.727137e+00  -2.818607e+02
   1.412568e+02  -1.997279e+02
   1.325460e+02  -1.184432e+02
   8.877413e+01  -1.024289e+02
   2.947522e+02   2.912588e+01
   4.552276e+02   7.957722e+01
   3.574631e+02   2.905420e+02
   2.223852e+01   4.463672e+02
  -4.123694e+02   3.551812e+02
  -4.361380e+02   2.139436e+02
  -2.318848e+02  -1.392027e+02
  -3.269932e+01  -2.518291e+02
   4.306072e+01  -2.058053e+02
   1.409783e+01  -1.527391e+01
  -1.266247e+02   4.166042e+01
  -1.617330e+02  -6.222565e+00
   6.681777e-02  -5.913202e+01
   1.328418e+02  -6.975346e+01
   1.346921e+02   3.840526e+01
  -7.332723e+01   1.521072e+02
  -1.688570e+02   4.207992e+01
  -8.632682e+01  -2.402191e+02
   1.947278e+01  -3.281809e+02
   2.596106e+02  -2.323653e+02
   3.769747e+02   1.172297e+02
   3.318575e+02   2.527220e+02
   6.207577e+01   2.040261e+02
  -1.137837e+02   1.162511e+02
  -1.158297e+02  -2.621667e+01
  -6.225270e+01  -5.013482e+01
   3.216363e+01   1.253107e+01
   2.145816e+00   1.307813e+02
  -1.196100e+02   5.631522e+01
  -1.191083e+02   1.627417e+00
   1.564681e+00  -8.211776e+00
   7.255795e+01   2.303699e+01
   6.368079e+01   1.170431e+02
  -1.542795e+02   5.096818e+01
  -3.179584e+02  -5.984853e+01
  -2.524855e+02  -1.776556e+02
  -2.827506e+01  -2.990762e+02
   2.409777e+02  -2.196034e+02
   2.490933e+02  -1.036020e+02
   1.736539e+02   1.472185e+01
  -9.605140e+00   9.126261e+01
  -4.192590e+01   4.740949e+01
   6.433232e+01  -4.786720e+01
   1.716302e+02  -7.335545e+01
   2.006453e+02   7.949414e+01
   7.860321e+01   1.344338e+02
  -9.433242e+01   1.316377e+02
  -1.410732e+02   3.820489e+00
  -4.841404e+01  -4.012031e+01
   6.475308e+01   1.342354e+01
  -1.444662e+01   6.633900e+01
  -1.597916e+02   1.076892e+02
  -2.022188e+02  -3.523992e+01
  -2.283257e+02  -1.385810e+02
  -2.036751e+01  -1.889724e+02
   1.637084e+02  -1.393101e+02
   1.484818e+02  -2.420758e+01
   4.891820e+01   7.549300e+01
  -7.922196e+01   9.268551e+01
  -7.619467e+01  -8.300244e+00
   3.104206e+01  -1.341850e+01
   1.007578e+02  -8.404361e+00
  -5.441441e-02   1.017809e+01
  -6.938582e+01  -3.457250e+01
  -1.323992e+02  -1.200647e+02
   1.659501e+01  -1.877238e+02
   1.217160e+02  -1.027465e+02
   2.940162e+02  -4.375782e+01
   1.974181e+02   1.789167e+02
   1.754145e+01   2.034296e+02
  -5.331806e+01   1.239161e+02
  -1.277236e+02   1.056341e+01
  -1.016070e+02  -7.030175e+01
  -4.910737e+01  -2.580699e+01
  -3.703903e+01   5.426465e+01
  -9.593360e+01   1.295684e+01
  -5.802387e+01  -5.035159e+01
   5.057738e+01  -5.616377e+01
   9.221192e+01  -1.133971e+02
   1.354453e+02  -1.746345e+01
  -2.862296e+01   1.436882e+02
  -1.279645e+02   2.639138e+01
  -2.185176e+02  -3.386623e+01
  -3.895036e+01  -2.171201e+02
   9.905976e+01  -1.957111e+02
   2.905194e+02  -1.401447e+02
   2.543846e+02   7.194002e+01
   1.030731e+02   1.970245e+02
  -5.335746e+00   1.638531e+02
  -6.192181e+01   1.206099e+02
  -8.237446e+01   9.122323e+01
  -4.961671e+01   6.395559e+01
  -7.995706e+01   1.189925e+02
  -1.555339e+02  -1.632499e+01
  -7.618097e+01  -1.747147e+02
  -2.148595e+01  -2.536039e+02
   8.580551e+01  -1.543968e+02
   1.552639e+02   1.541619e+01
   1.629818e+02   1.446019e+02
   6.465875e+00   1.747470e+02
  -6.477584e+01   9.891063e+01
  -8.265286e+01  -1.238277e+01
  -1.195103e+01  -7.014551e+01
   2.161203e+01  -4.189385e+01
  -2.258824e+01  -6.119713e+01
  -2.921905e+01  -5.859187e+01
  -4.574337e+01  -7.672812e+00
   5.559639e+01  -7.452559e+01
   2.113120e+02   8.817407e+01
   1.195188e+02   2.362106e+00
   6.363532e+00   1.416844e+02
  -1.537540e+02   8.083202e+01
  -1.701832e+02  -9.822472e+00
  -2.075319e+01  -7.681640e+01
   2.708703e+01  -7.649118e+01
   7.998913e+01   5.131379e+01
   4.278440e+01   7.197490e+01
  -8.024654e+01   9.667615e+01
  -1.125354e+02  -8.520603e+00
  -6.142270e+01  -6.812968e+01
  -5.114410e+01  -3.292272e+01
  -9.646244e+01  -9.421880e+00
  -9.246222e+00  -5.074449e+01
  -2.158535e+01  -3.245750e+01
  -5.893041e+00  -1.386095e+02
   1.561572e+02  -9.224963e+01
   2.422255e+02  -1.168920e+00
   1.225418e+02   1.295019e+02
   2.967405e+01   1.482231e+02
  -5.439828e+01   1.256068e+02
  -8.962320e+01  -1.397635e+01
   5.375454e+01  -2.201149e+01
   1.550262e+02   3.647232e+01
   6.965184e+01   8.356706e+01
  -1.104995e+02   1.361923e+02
  -1.878196e+02   2.744394e+01
  -1.379573e+02  -8.500901e+01
  -8.620476e+01  -8.020547e+01
   3.635445e+01  -2.695010e+01
   3.258269e+01   3.295169e+01
  -6.424871e+01   1.616107e+01
  -1.364793e+02  -4.577886e+00
  -5.267065e+01  -1.098961e+02
   5.878452e+01  -1.337386e+02
   1.603083e+02  -8.541181e+01
   7.415432e+01   5.716826e+01
  -4.389042e+01   1.765136e+02
  -7.394050e+01   1.298185e+02
  -9.845111e+01  -5.257517e+01
  -7.576203e+01  -8.787709e+01
  -2.877056e+01  -6.724683e+01
   8.205111e+01   7.124641e+00
   1.093021e+01   4.313062e+01
   3.342620e+01  -4.486882e+01
   1.761086e+00  -1.824535e+01
   6.067267e+01   5.362754e+01
   7.413073e+01   6.235996e+01
   4.943143e+00   1.086735e+02
  -3.636573e+01   3.427620e+01
  -1.409880e+02  -5.909196e+01
  -1.553898e+02  -6.158608e+01
  -2.295262e+01  -2.523232e+01
   6.766149e+01  -2.191038e+01
   9.533510e+01   1.089016e+01
   1.135185e+01  -6.627225e+00
  -1.473032e+00   2.679815e+01
  -3.630829e+01  -3.093027e+01
  -1.631463e+01   6.591719e+00
   1.890465e+01   2.253268e+00
  -5.996933e+01  -3.033085e+01
  -1.237851e+02   9.019992e+00
   2.001669e+00  -8.793504e+01
   1.154678e+02  -9.479732e+01
   1.599402e+02  -9.673387e+01
   1.983815e+02   7.678696e+00
   2.284101e+01   1.178517e+02
  -7.821742e+01   1.695296e+02
  -9.065520e+01   7.213918e+01
  -4.325398e+01   1.555878e+01
  -9.276690e+00  -4.951358e+00
   1.291181e+01   3.515848e+01
   4.003730e+01   3.208358e+01
  -1.766687e+01  -4.499487e+01
   6.630838e+00  -6.907099e+01
   5.947420e+01  -7.637879e+01
   5.877917e+01   4.062147e+01
   5.123933e+01   4.220895e+01
   5.922130e+01   8.469292e+01
  -7.947661e+01   3.114558e+01
  -1.382576e+02  -8.172976e+01
  -1.426342e+01  -7.174236e+01
   6.223702e+01  -7.861964e+01
   1.120720e+02   6.453123e-01
   4.375843e+01   5.139416e+01
  -2.333488e+00   5.581093e+01
  -4.966382e+01   2.717149e+01
   7.316128e+01  -1.352121e+01
   7.539867e+01  -4.438449e+01
  -4.128855e+01   3.507785e+01
  -2.951480e+01   8.144281e+01
  -1.450310e+02   6.255440e+01
  -1.155901e+02   2.000127e+01
   6.016557e+01  -1.147000e+02
   1.153309e+02  -8.178617e+01
   7.693323e+01  -4.181880e+01
  -1.748831e+01   5.376007e+01
   3.414393e+01   8.009493e+01
  -8.578383e+01  -6.942248e+01
  -3.299301e+01  -5.066413e+01
  -2.714071e+01  -1.940322e+01
   1.599048e+01  -3.699729e+01
   5.847243e+01   7.056546e+01
   5.211685e+01  -5.815118e+00
   1.289941e+01   9.936200e+00
  -1.032665e+01  -1.452160e+01
  -4.215295e+01   4.378141e+01
   3.751571e+01   3.478058e+01
   4.843437e+01   5.868904e+01
  -6.423346e+01  -5.532489e+01
   4.946926e+01  -4.439235e+01
   5.724617e+01  -7.050622e+01
   8.946206e+01   7.712779e+01
   3.623341e+01   6.128838e+01
  -4.033706e+01   2.143086e+01
  -1.145691e+02   2.014783e+00
  -2.942660e+01  -3.804021e+01
   3.621063e+01  -7.385968e+01
   3.198445e+01  -4.797279e+01
   1.984873e+01  -3.885838e+01
   2.172029e+01  -5.547363e+00
  -2.994960e+01  -2.037498e+01
  -3.245785e+00   1.663380e+01
   7.427792e+01  -3.633625e+01
