
 $NMID
 id='ANONYMOUS ', fmtdat='(2E16.6)'
 volume=1.0
 tramp=1.0
 $END
  -4.517879e+03  -4.904246e+01
  -2.634937e+03  -2.806508e+03
   8.188505e+02  -2.818643e+03
   2.222044e+03  -8.015083e+02
   9.576342e+02   7.748424e+02
  -7.241209e+02   5.887501e+02
  -9.705504e+02  -4.897750e+02
   4.794250e+01  -1.140281e+03
   8.276722e+02  -8.033816e+02
   9.521060e+02   9.559252e+01
   4.690853e+02   9.203031e+02
  -2.678811e+02   8.936877e+02
  -6.916621e+02   9.713575e+01
  -3.764579e+02  -7.671929e+02
   3.125112e+02  -7.582384e+02
   6.301930e+02   7.378658e+01
   3.214853e+02   7.439835e+02
  -3.286758e+02   6.672970e+02
  -6.011598e+02   1.231658e+02
  -4.023592e+02  -3.965873e+02
  -3.626167e+01  -4.783945e+02
   2.235073e+02  -2.822662e+02
   1.852471e+02   1.652791e+01
  -8.206456e+01   1.134234e+02
  -4.300158e+02  -1.121686e+02
  -1.969664e+02  -5.003183e+02
   4.600435e+02  -4.292240e+02
   9.359431e+02   2.258433e+01
   4.521453e+02   5.809382e+02
  -4.400036e+02   5.124284e+02
  -7.270832e+02  -9.094451e+01
  -3.885063e+02  -5.741857e+02
   2.711545e+02  -5.543212e+02
   6.067944e+02  -1.893606e+02
   4.324830e+02   2.313284e+02
   1.038008e+02   4.846626e+02
  -2.188830e+02   3.025222e+02
  -2.102686e+02  -2.376121e+02
   2.029950e+02  -4.318190e+02
   5.167702e+02  -1.138571e+01
   2.286612e+02   7.608620e+02
  -3.252570e+02   7.055226e+02
  -6.113326e+02   1.014709e+01
  -2.670770e+02  -6.093075e+02
   3.144004e+02  -3.285221e+02
   4.028264e+02   3.616474e+02
  -1.119143e+02   5.641597e+02
  -5.883790e+02   1.991169e+02
  -5.963422e+02  -4.503495e+02
  -1.886921e+02  -6.448470e+02
   3.838018e+02  -3.519234e+02
   6.652325e+02   4.540431e+01
   4.197119e+02   4.410151e+02
  -1.570378e+02   3.430011e+02
  -4.523432e+02   1.237359e+02
  -2.215193e+02  -1.858346e+02
   6.618183e+01  -9.821230e+01
   1.388546e+02   8.541964e+01
  -2.203794e+02   1.930041e+02
  -3.731661e+02  -9.143489e+01
  -1.593735e+02  -3.070998e+02
   2.322897e+02  -3.047535e+02
   3.479576e+02  -3.270277e+01
   2.438326e+02   8.418168e+01
  -5.348719e+01   2.221261e+02
  -2.152972e+02   3.846824e+02
  -3.706249e+02   2.514748e+02
  -3.721951e+02  -1.628263e+02
  -1.137695e+02  -4.533664e+02
   1.387008e+02  -3.909678e+02
   1.328295e+02  -1.127507e+02
   3.312087e+01   2.697199e+01
   5.555042e+01  -6.604415e+01
   2.056060e+02  -1.554421e+02
   3.012364e+02   6.212758e+01
   1.830248e+02   2.705525e+02
  -5.114293e+01   2.637255e+02
  -2.575426e+02   2.118549e+01
  -2.129084e+02  -2.061048e+02
  -2.560959e+01  -2.636425e+02
   2.955904e+02  -1.313548e+02
   3.809619e+02   1.676668e+02
   2.009611e+02   4.262579e+02
  -8.552754e+01   2.545314e+02
  -2.258145e+02   1.310068e+02
  -1.185876e+02  -2.323395e+00
  -8.705917e+01   8.469968e+00
  -1.957557e+02   7.444894e+01
  -3.988103e+02  -3.529565e+01
  -3.377209e+02  -2.915547e+02
  -2.520334e+00  -4.780397e+02
   3.404260e+02  -3.573718e+02
   5.246386e+02  -2.212941e+02
   3.708433e+02   5.413401e+01
   1.275762e+02   3.231608e+02
  -1.409169e+02   2.144137e+02
  -6.868510e+01   5.302898e+01
   1.030956e+02  -1.151211e+02
   2.082666e+02  -2.431418e+01
  -1.004163e+01   1.740167e+02
  -1.208292e+02   1.937305e+02
  -1.758097e+02  -8.868828e+01
   8.317918e+00  -1.801182e+02
   2.213209e+02  -4.412051e+01
   1.365786e+02   1.494895e+02
  -4.726022e+01   3.565905e+02
  -2.621715e+02   1.764470e+02
  -2.934091e+02  -4.347360e+01
  -2.640140e+02  -2.279698e+02
  -6.723761e+01  -2.568477e+02
   8.905921e+01  -1.379764e+02
   2.523683e+02   1.670902e+01
   9.190466e+01   6.776626e+01
  -4.936082e+01  -3.227251e+01
  -2.571237e+01  -9.024181e+01
   1.691599e+02  -1.183997e+02
   1.503738e+02   5.486084e+01
   5.183709e+01   3.670460e+01
  -8.269545e+01   2.229283e+01
  -1.169783e+02  -3.559666e+01
   1.145068e+02  -6.052123e+01
   2.766237e+02   4.720408e+01
   2.900990e+02   1.813201e+02
   7.026551e+01   3.016849e+02
  -1.573898e+02   2.524416e+02
  -2.803358e+02   1.533269e+02
  -1.828266e+02  -8.672417e+01
   5.626820e+01  -1.132011e+02
   1.204575e+02  -5.380287e+01
  -1.430178e+01   7.006898e+01
  -1.878154e+02   4.262387e+01
  -1.775042e+02  -1.146533e+02
  -1.141031e+02  -2.497451e+02
   1.116817e+02  -1.411378e+02
   1.808687e+02   2.681945e+01
   6.852669e+01   7.296794e+01
  -3.180989e+01   2.686493e+01
  -5.351119e+01  -9.836942e+01
   8.891801e+01  -1.139246e+02
   2.084340e+02  -1.936789e+01
   1.801898e+02   1.007951e+02
   1.215101e+01   2.375058e+02
  -1.803170e+02   1.538768e+02
  -1.688167e+02   1.685310e+01
  -9.314217e+01  -1.543621e+02
   1.596184e+01  -1.695981e+02
   5.862836e+01   2.651662e+00
   7.244118e+00   3.816753e+01
  -6.778043e+01   8.632396e+00
   1.042844e+00  -2.178126e+01
   8.042328e+01   9.609982e+00
   1.081000e+02   6.485545e+01
  -2.335983e+01   1.778159e+02
  -7.526977e+01   1.235557e+02
  -2.591003e+02   5.444795e+01
  -2.183725e+02  -1.888808e+02
  -3.236014e+01  -1.753797e+02
   8.388687e+01  -1.141010e+02
   8.628340e+01  -9.220491e+01
   4.730291e+01   9.910035e+01
  -8.687960e+00   5.639952e+01
   7.710395e+01  -1.585120e+01
   4.659249e+01   4.162443e+01
  -1.534870e+00  -3.387240e+00
  -6.903101e+01   6.408326e+01
  -7.930509e+01   1.013512e+02
  -7.718645e+01  -1.508123e+01
   1.089593e+01  -1.021708e+02
   1.514308e+02  -4.869164e+01
   1.312502e+02   5.518827e+01
   1.350870e+02   2.210162e+02
  -7.258676e+01   2.312020e+02
  -3.163929e+02   1.291076e+02
  -3.169982e+02  -8.348757e+01
  -1.443488e+02  -1.326268e+02
   4.894830e+01  -1.429977e+02
   1.305474e+02  -1.025518e+02
   8.372333e+01  -5.109752e+01
   1.019390e+02  -7.555328e+01
   6.413076e+01  -9.253766e+01
   7.791006e+01   5.692549e+00
   8.921934e+01   1.384841e+02
   3.144466e+01   2.610879e+02
  -9.676614e+01   1.833890e+02
  -1.331130e+02   9.655895e+00
  -9.326574e+01  -1.045776e+02
  -3.193991e+01  -1.714133e+02
   5.883824e+01  -1.251885e+02
   1.282334e+02  -1.999852e+01
  -4.495213e+01   7.757861e+01
  -5.337991e+01   7.441438e+00
   1.915562e+01  -1.152156e+01
   6.314691e+01   3.222056e+01
  -1.169959e+01   2.979441e+01
  -5.002783e+01   2.878949e+01
  -1.859374e+02  -9.263182e+00
  -1.025560e+02  -4.631402e+01
  -3.037708e+01  -8.251567e+01
   1.131204e+02  -7.467807e+01
   1.005975e+02  -2.191564e+00
   5.267141e+01   1.164042e+01
  -2.604823e+01   2.475873e+01
  -1.071341e+02   1.080202e+01
   7.680644e+00  -4.085154e+01
   6.946578e+01  -4.794913e+01
  -2.212240e+01  -5.384438e+00
   2.964467e+01   6.571018e+01
   5.719624e+01   3.704435e+01
   1.042869e+02   1.926513e+00
   1.006159e+02  -4.728629e+01
   6.833049e+00   7.928134e+01
  -6.040933e+01   1.142800e+02
  -1.021703e+02   1.517677e+02
  -1.357200e+02   1.506302e+01
  -1.677856e+02  -1.164022e+02
  -6.877855e+00  -1.285638e+02
   8.644975e+01  -9.202230e+01
   1.104814e+02   4.267085e+01
  -8.120763e+01   1.243246e+01
  -1.457617e+02  -1.795664e+01
  -7.643848e+01  -4.189764e+01
   8.495321e+01  -1.336668e+02
   1.560218e+02  -2.983990e+01
   1.773641e+02   2.265416e+01
  -1.126464e+01   7.866366e+01
  -2.012402e+01   4.996189e+01
  -7.502035e+00   3.728649e+01
   6.690212e+01  -5.375083e+01
   1.428030e+02  -1.950697e+00
   3.125144e+01   1.081814e+02
  -9.127140e+01   1.905781e+02
  -1.305973e+02   1.047045e+02
  -8.248875e+01  -1.323157e+02
  -5.572102e+01  -2.410529e+02
   4.378584e+01  -9.195238e+01
   6.804656e+01   4.649069e+01
   3.469293e+01   1.406694e+02
   3.353941e-01   1.188372e+02
  -4.794034e+01   3.011196e+01
  -4.185521e+01  -1.721251e+00
  -1.012734e+00  -4.613520e+01
   2.131119e+01   3.807761e+00
  -3.981130e+01  -3.579467e+01
  -7.428078e+01  -1.163176e+02
  -6.047150e+01  -1.016280e+02
   4.220060e+01  -1.464060e+01
   1.479199e+02   1.655062e+01
   1.498478e+02   3.747815e+01
   3.912092e+01   4.979070e+01
  -9.360812e+01   1.719341e+00
  -6.182151e+01  -4.732275e+01
  -1.489725e+01  -4.300576e+01
   3.260557e+01   1.389925e+01
   9.206820e+00   1.559565e+01
  -5.268381e+00  -8.332067e+00
   5.436605e+01  -2.790987e+01
   1.026998e+02  -1.053351e+00
   4.283069e+01   7.869230e+01
   2.885881e+01   5.170625e+01
  -1.241635e+02   1.282886e+02
  -1.495432e+02   4.724577e+01
  -1.630674e+02  -5.490412e+01
  -2.277818e+01  -1.299895e+02
   3.604771e+01  -1.307091e+02
   8.746957e+01  -9.587877e+01
   1.339485e+02   7.990857e+01
   1.806701e+01   2.933914e+01
  -4.195189e+01   2.095475e+01
  -5.210841e+01   8.233129e+00
   3.370547e+01   1.025440e+02
   1.474226e+01   9.023612e+01
  -9.733450e+01   6.895045e+01
  -9.110673e+01  -5.334440e+01
  -3.379792e+01  -1.130684e+02
  -1.854237e+01  -9.804020e+01
   7.241192e+01  -5.805355e+00
   1.300356e+02   8.917138e+01
   6.051127e+01   1.050572e+02
  -7.945103e+01   4.544658e+01
  -1.249316e+02  -2.291618e+01
  -4.130315e+01  -1.209391e+02
   6.038427e+01  -8.025922e+01
   5.090954e+01  -1.120127e+01
  -3.388768e+01  -1.153016e+01
  -5.680791e+01   2.482132e+00
  -2.255791e+01   1.197790e+00
   7.037021e+01  -1.852814e+01
   6.622562e+01  -2.531347e+01
   4.672593e+01   2.733884e+01
  -1.721167e+01   1.128004e+02
  -6.914079e+01   1.221534e+02
   1.494854e+01  -6.110389e+00
  -6.490126e+01  -1.073448e+02
   1.543803e+01   3.847102e+01
   9.170696e+00  -9.046244e+00
   8.104291e+00   4.777748e+00
   1.681879e+01   4.971170e+00
  -1.302969e+01   2.737780e+01
  -3.987590e+01  -7.659723e+00
   5.815003e+01   3.257363e+01
   2.065430e+01   4.782811e+01
   2.283461e+01   1.129459e+01
   7.273329e+01  -2.954202e+01
   2.417839e+01  -3.918785e+01
   2.812490e+01   3.041282e+01
   4.176090e+01   6.311845e+01
  -1.055216e+01   7.941792e+01
  -8.389741e+01  -2.300074e+01
  -3.519183e+01  -3.079115e+01
  -3.385226e+01  -5.600779e+01
   3.711257e+01  -2.927173e+01
   6.807067e+01   6.951446e+01
   3.322315e+01   7.279743e+01
   3.186706e+01   7.287383e+01
  -3.269124e+01   5.510335e+00
  -3.027325e+00  -1.368571e+01
   3.755395e+01  -8.095164e+00
   1.453491e+01   1.434493e+00
  -5.170431e+01   6.058501e+01
  -1.407723e+02  -3.259872e+00
