
 $NMID
 id='ANONYMOUS ', fmtdat='(2E16.6)'
 volume=1.0
 tramp=1.0
 $END
  -4.707113e+03   2.007547e+01
  -2.678677e+03  -2.893469e+03
   8.778698e+02  -2.955682e+03
   2.293506e+03  -8.497636e+02
   1.017586e+03   8.220692e+02
  -7.608218e+02   6.895849e+02
  -1.050038e+03  -4.961157e+02
   5.655956e+01  -1.160578e+03
   8.889168e+02  -8.557898e+02
   1.026109e+03   9.906018e+01
   5.197618e+02   1.002740e+03
  -2.844960e+02   9.701822e+02
  -7.119413e+02   9.004748e+01
  -4.275593e+02  -8.001738e+02
   2.975165e+02  -7.952916e+02
   6.912606e+02   1.083040e+01
   2.884202e+02   7.209759e+02
  -3.593893e+02   6.547361e+02
  -6.359885e+02   2.601996e+01
  -3.712854e+02  -4.042342e+02
   3.644800e+01  -4.344858e+02
   3.287288e+02  -2.794582e+02
   2.382444e+02   2.756842e+01
  -8.187056e+01   1.156201e+02
  -4.208688e+02  -2.737466e+01
  -2.351430e+02  -4.762464e+02
   4.446883e+02  -5.002030e+02
   9.278072e+02   6.880476e+01
   4.067443e+02   6.075456e+02
  -4.282786e+02   5.167151e+02
  -8.194833e+02   3.007826e+01
  -3.616515e+02  -5.273344e+02
   2.920926e+02  -5.501588e+02
   6.176317e+02  -2.379709e+02
   4.854233e+02   2.481870e+02
   9.069319e+01   5.473742e+02
  -2.291512e+02   3.936427e+02
  -2.274489e+02  -2.332290e+02
   1.563307e+02  -4.594920e+02
   5.401626e+02  -3.707112e+01
   2.602914e+02   8.324113e+02
  -3.233915e+02   8.259557e+02
  -6.757739e+02   1.904926e+01
  -3.258492e+02  -6.301276e+02
   3.069022e+02  -2.945810e+02
   4.200921e+02   3.524945e+02
  -5.451305e+01   5.908840e+02
  -5.720533e+02   1.738887e+02
  -6.475901e+02  -4.529358e+02
  -1.966780e+02  -6.372660e+02
   3.423301e+02  -4.152701e+02
   6.664069e+02   6.884676e+01
   4.139681e+02   4.316210e+02
  -2.105614e+02   4.218949e+02
  -5.182030e+02   6.708073e+01
  -2.589700e+02  -2.168655e+02
   1.095735e+02  -1.575526e+02
   1.993458e+02   1.848920e+02
  -2.000419e+02   2.228897e+02
  -4.096664e+02  -1.130844e+02
  -1.815686e+02  -3.280752e+02
   2.102321e+02  -2.481865e+02
   3.074806e+02  -7.683434e+01
   1.776890e+02   9.924340e+01
  -1.707495e+01   2.037139e+02
  -2.217290e+02   2.720625e+02
  -3.035673e+02   2.345886e+02
  -3.023294e+02  -1.347781e+02
  -8.096751e+01  -5.059690e+02
   1.657555e+02  -4.177252e+02
   1.272534e+02  -9.756381e+01
   4.547578e+01   1.885254e+01
   2.574756e+01  -7.020958e+01
   1.948253e+02  -1.173572e+02
   3.426471e+02  -3.516003e+00
   1.888702e+02   2.785901e+02
  -9.864055e+00   2.533492e+02
  -2.180890e+02   3.988666e+01
  -2.247585e+02  -2.434985e+02
  -1.120155e+01  -2.610201e+02
   2.563350e+02  -1.392878e+02
   3.296189e+02   1.553528e+02
   1.877759e+02   3.671637e+02
  -1.081603e+02   3.476904e+02
  -2.453922e+02   1.166552e+02
  -1.543969e+02  -1.991101e+00
  -1.000466e+02   4.257710e+01
  -2.219860e+02   2.847589e+01
  -4.493379e+02  -6.079557e+01
  -3.541155e+02  -2.738435e+02
  -9.496354e+01  -4.373128e+02
   3.279950e+02  -4.260087e+02
   5.320333e+02  -1.748244e+02
   3.726237e+02   6.472548e+01
   6.468410e+01   3.301086e+02
  -1.358265e+02   2.304563e+02
  -1.467904e+02   4.126721e+01
   8.882096e+01  -1.803867e+02
   1.898392e+02  -2.513005e+01
   1.227211e+02   1.849907e+02
  -1.712533e+02   1.637855e+02
  -1.793552e+02  -7.513122e+01
   1.271976e+01  -2.712808e+02
   2.027701e+02  -6.271438e+01
   1.493776e+02   2.432588e+02
  -2.233429e+01   3.571116e+02
  -2.262768e+02   1.777658e+02
  -2.982835e+02  -8.431405e+01
  -3.183772e+02  -2.311413e+02
  -1.235122e+02  -2.520967e+02
   1.092228e+02  -1.518991e+02
   1.784429e+02  -7.329517e+00
   8.988476e+01   3.370080e+01
  -6.617536e+01  -2.743361e+01
   1.419599e+01  -1.135718e+02
   1.092579e+02  -1.026628e+02
   2.220065e+02  -3.938930e+01
   1.552942e+01   6.700728e+01
  -7.240258e+01  -8.793382e+00
  -4.907393e+01  -2.785631e+01
   1.191826e+02  -8.281741e+01
   3.181809e+02  -3.631010e+01
   2.725805e+02   1.805078e+02
   1.067659e+02   1.984346e+02
  -1.697672e+02   2.799903e+02
  -2.860028e+02   1.795494e+02
  -1.609166e+02  -6.241613e+01
   1.048329e+01  -8.390499e+01
   7.915819e+01  -3.768992e+01
  -7.278211e+01   9.088908e+01
  -2.205151e+02   4.742295e+01
  -2.082542e+02  -1.074250e+02
  -1.250460e+02  -1.750134e+02
   6.502441e+01  -1.638333e+02
   1.490327e+02   2.380931e+01
   6.957820e+01   4.567238e+01
  -1.811616e+01  -3.075072e+01
  -3.780872e+01  -1.070109e+02
   7.850921e+01  -1.110916e+02
   1.780159e+02  -4.606855e+01
   1.895749e+02   1.050925e+02
   9.542726e+00   2.537312e+02
  -1.834214e+02   1.380208e+02
  -2.002976e+02   2.006880e+01
  -7.208628e+01  -1.249086e+02
   9.350449e+01  -1.516406e+02
   8.688967e+01  -6.025858e+01
   2.338827e+01   6.746490e+01
  -1.725960e+01   6.646808e+01
   1.474462e+01  -7.893861e+00
   9.877455e+01   7.321574e+00
   5.413975e+01   1.217232e+02
   3.675097e+01   7.890961e+01
  -1.198592e+02   1.368422e+02
  -2.535341e+02   5.730788e+01
  -1.990983e+02  -1.623985e+02
  -7.519204e+00  -2.263139e+02
   1.456956e+02  -1.565593e+02
   1.305983e+02  -1.974627e+01
   8.473301e+01   1.211963e+02
   3.000777e+01   5.447197e+01
   6.837729e+01  -2.966095e+01
   8.061954e+01   5.900936e+01
   6.221178e+01   5.952315e+01
  -5.258026e+01   8.838609e+01
  -1.237495e+02   5.187812e+01
  -5.926904e+01  -9.946763e+00
   5.413727e-01  -7.628439e+01
   1.323305e+02  -8.278360e+01
   1.518873e+02   3.249545e+01
   1.275200e+02   1.959848e+02
  -7.859832e+01   2.543087e+02
  -2.527830e+02   1.118201e+02
  -2.729073e+02  -6.279774e+01
  -1.135071e+02  -1.552671e+02
   2.653015e+01  -1.483667e+02
   9.889529e+01  -3.109601e+01
   5.588235e+01  -4.196936e+01
   6.982232e+01  -8.832105e+01
   6.340408e+01  -7.609632e+01
   1.475910e+02   5.022033e+01
   1.449202e+02   1.705400e+02
   5.221814e+01   2.162326e+02
  -3.937682e+01   2.184881e+02
  -2.038894e+02   2.715793e+01
  -8.655615e+01  -1.016390e+02
  -4.618549e+01  -1.895087e+02
   3.850043e+01  -7.066403e+01
   5.637244e+01   3.566665e+01
   7.457331e+01   2.832741e+01
   4.176871e+01   7.720471e+00
   5.013606e+01   3.285622e+01
   5.717745e+01   4.696825e+01
   7.531784e+01   1.121747e+01
  -8.785655e+01   8.475749e+00
  -1.460026e+02  -1.126164e+00
  -1.360193e+02  -6.979791e+01
  -4.605805e+01  -1.249853e+02
   1.001054e+02  -8.786298e+01
   1.822910e+02   1.287762e+01
   3.328485e+01   2.685217e+01
  -1.152999e+02   3.952556e+01
  -4.500631e+01  -3.837693e+01
  -3.343340e+01  -7.906688e+01
   3.195528e+01  -1.965458e+01
   9.547929e+01   1.076062e+01
  -6.459730e-01   3.710426e+01
   3.121186e+01   2.671747e+01
   5.257327e+01  -7.532657e+01
   6.248940e+01   2.590792e+01
   1.365895e+01   6.180759e+01
   4.702433e+00   1.140904e+02
  -6.150313e+01   1.612894e+02
  -1.869481e+02   5.242057e+01
  -1.490726e+02  -1.294720e+02
  -3.090820e+01  -1.255167e+02
   1.211500e+02  -5.626666e+01
   2.032557e+01  -1.750473e+00
  -8.429931e+01  -1.137696e+01
  -1.323442e+02  -5.498320e+01
  -8.544568e+01  -1.226065e+02
   6.624551e+01  -1.311762e+02
   1.825811e+02  -7.218382e+01
   2.009714e+02   5.242509e+01
   1.667546e+01   6.303101e+01
  -2.839798e+01   9.778115e+01
  -4.090096e+01   4.872825e+01
   1.293310e+01  -6.747585e+01
   1.563576e+02   7.091962e+01
   4.290218e+01   1.346621e+02
  -1.345476e+02   1.445998e+02
  -1.484378e+02   5.981370e+01
  -1.167919e+02  -3.992680e+01
  -3.721332e+01  -1.405990e+02
   1.057819e+02  -1.283500e+02
   1.258609e+02   3.839501e+01
   3.663434e+01   1.043709e+02
   4.006544e+00   8.435713e+01
  -4.000753e+01   2.343749e+01
  -7.196208e+01  -8.754641e+00
  -2.860155e+01  -4.539681e+01
   3.138231e+01   2.119508e+01
  -5.356617e+01  -2.393234e+01
  -4.640836e+01  -4.298778e+01
  -6.497952e+00  -1.264512e+02
   3.549646e+01   4.390333e+00
   1.062518e+02   4.841943e+01
   1.408559e+02   7.063151e+01
   1.835403e+01   1.811507e+01
  -1.165919e+02   4.093663e+01
  -1.197290e+02  -2.112917e+01
  -4.582145e+01  -2.490491e+01
   1.350132e+01  -3.629723e+01
   3.497497e+01  -2.376300e+01
  -5.485324e+01  -1.280396e+01
   1.578141e+01   3.402962e+01
   9.934496e+01   4.216720e+01
   1.028307e+02   8.598212e+01
  -3.524974e+01   1.047841e+02
  -1.044399e+02   1.199029e+02
  -1.558833e+02   8.110876e+01
  -1.847119e+02  -5.489926e+01
  -3.082732e+01  -1.693863e+02
   9.075594e+01  -1.606220e+02
   1.207237e+02  -1.126504e+02
   8.931891e+01   1.826392e+00
  -1.683941e+00   1.149543e+02
   1.663889e+01   5.141035e+01
  -1.002859e-01   3.283262e+01
   2.980445e+01   8.049319e+01
   7.837670e+01   1.182420e+02
  -2.130710e+01   3.441776e+01
  -5.654021e+01   2.653768e+01
  -6.462111e+01  -1.301753e+02
   5.641922e+01  -3.424898e+01
   8.765960e+01  -2.503928e+01
   1.031361e+02   8.482891e+01
  -8.095155e+00   9.318112e+01
  -4.241006e+01   2.691278e+01
  -1.276621e+02   5.815524e+00
  -8.106557e+01  -6.090478e+01
   9.126608e-02  -4.151735e+01
  -9.461378e+00  -3.448483e+00
  -7.540415e+00  -2.837608e+01
  -7.956131e+01   2.532227e+01
   2.684094e+01  -6.913827e-01
   9.632560e+01  -8.886621e+01
   1.307675e+02  -1.388664e+02
   6.748170e+01   3.165416e+01
   1.365989e+01   8.189987e+01
  -5.715394e+01   1.049264e+02
  -1.605431e+01  -1.783611e+01
   4.899888e+01  -5.615063e+01
   1.007207e+02  -4.943633e+01
   1.257412e+01  -1.437863e+01
   4.167191e+01   8.903305e-01
  -1.876507e+01   3.428962e+01
  -4.784942e+01  -4.294471e+01
   2.138163e+01  -1.817783e+01
  -2.323708e+01  -2.862489e+01
   1.777081e+01   2.575144e+01
   3.454575e+00  -2.969181e+01
   5.822414e+01  -7.063409e+01
   2.508857e+01  -4.276188e+01
   3.655526e+01  -2.924665e+01
  -1.540566e+01   4.511423e+01
  -7.359832e+01   5.989162e+00
  -6.555844e+01  -9.668951e+00
  -5.639367e+00  -3.088393e+01
  -2.278353e+01  -1.342847e+02
   3.987142e+01  -2.265009e+01
   1.449957e+02   1.725945e+01
   4.299545e+01   7.397298e+01
  -7.144058e+00   2.267619e+01
  -2.422277e+01   5.788225e+01
  -4.301054e+01  -1.123165e+01
   6.273211e+01   6.461879e+00
  -1.789850e+01   3.813327e+01
  -9.897278e+01   7.454579e+01
  -1.116525e+02   3.584253e+01
