
 $NMID
 id='ANONYMOUS ', fmtdat='(2E16.6)'
 volume=1.0
 tramp=1.0
 $END
   4.706937e+03  -5.679032e+01
   2.709060e+03   2.853594e+03
  -8.283108e+02   2.989806e+03
  -2.272183e+03   9.110812e+02
  -9.695038e+02  -9.222927e+02
   8.292469e+02  -6.675277e+02
   1.082554e+03   4.482188e+02
  -5.779992e+00   1.185412e+03
  -8.480568e+02   8.479646e+02
  -1.012000e+03  -1.136139e+02
  -4.570577e+02  -9.738179e+02
   3.024697e+02  -9.281873e+02
   7.217449e+02  -1.646055e+02
   4.611721e+02   8.679192e+02
  -2.904806e+02   8.283832e+02
  -6.370311e+02  -7.142878e+01
  -2.796451e+02  -7.182856e+02
   3.937977e+02  -6.415394e+02
   5.708307e+02  -3.921798e+01
   4.247153e+02   3.627645e+02
   2.138091e+01   4.458534e+02
  -2.737176e+02   3.342472e+02
  -2.618054e+02   1.993745e+01
   1.032800e+02  -1.079778e+02
   4.372036e+02   4.460658e+01
   2.372268e+02   4.296462e+02
  -5.199390e+02   5.318486e+02
  -9.649737e+02  -1.030387e+02
  -4.137542e+02  -6.038321e+02
   4.387138e+02  -5.696328e+02
   7.862558e+02   2.875931e+00
   3.971271e+02   5.358551e+02
  -3.310896e+02   5.508580e+02
  -6.218692e+02   2.383025e+02
  -4.660642e+02  -2.209661e+02
  -5.231816e+01  -5.001095e+02
   2.377288e+02  -3.410564e+02
   2.149356e+02   2.843022e+02
  -2.057179e+02   5.101598e+02
  -4.775101e+02  -1.134442e+01
  -2.701557e+02  -7.306950e+02
   3.116950e+02  -7.925744e+02
   7.158818e+02  -3.630934e+01
   3.289254e+02   6.456825e+02
  -3.725959e+02   3.825311e+02
  -4.066088e+02  -3.294989e+02
   6.574797e+01  -5.746771e+02
   6.183809e+02  -1.562568e+02
   6.492129e+02   4.159840e+02
   1.263381e+02   5.988900e+02
  -4.085267e+02   4.319803e+02
  -6.592799e+02  -1.259030e+02
  -3.985320e+02  -4.190136e+02
   1.251738e+02  -4.474092e+02
   4.890381e+02  -6.772329e+01
   2.194965e+02   2.236951e+02
  -1.043862e+02   1.083459e+02
  -1.411540e+02  -1.381721e+02
   2.004699e+02  -1.893482e+02
   3.971692e+02   1.101328e+02
   1.557193e+02   3.304746e+02
  -2.245527e+02   3.205480e+02
  -3.525465e+02   4.869415e+01
  -1.732372e+02  -5.222037e+01
  -5.691444e+01  -1.899829e+02
   1.744048e+02  -3.574456e+02
   3.588381e+02  -2.332506e+02
   3.070158e+02   1.948230e+02
   1.038980e+02   4.740571e+02
  -1.438976e+02   4.085787e+02
  -1.766889e+02   6.236765e+01
  -2.851129e+01  -6.439217e+01
   3.463301e+00   1.068078e+02
  -2.564032e+02   9.727360e+01
  -2.971965e+02  -2.558307e+01
  -1.866958e+02  -3.288786e+02
   9.055684e+01  -3.514140e+02
   2.109767e+02  -7.750287e+01
   2.205355e+02   2.773114e+02
  -1.373770e+01   2.869447e+02
  -3.033466e+02   7.659551e+01
  -3.834806e+02  -2.080692e+02
  -2.261603e+02  -3.641608e+02
   1.172039e+02  -3.118864e+02
   2.871775e+02  -1.321672e+02
   1.447192e+02  -5.022179e+01
   8.764634e+01  -7.220444e+01
   2.248579e+02  -7.493506e+01
   4.443008e+02   6.985934e+01
   3.649268e+02   2.671231e+02
   9.391355e+00   4.544421e+02
  -3.883498e+02   4.597463e+02
  -4.941662e+02   2.484171e+02
  -3.875590e+02  -1.084785e+02
  -8.603375e+00  -2.823757e+02
   1.294001e+02  -2.781997e+02
   7.709891e+01  -6.943609e+01
  -9.892565e+01   1.370227e+02
  -2.517164e+02  -3.356402e+01
  -5.094843e+01  -2.215805e+02
   1.853236e+02  -1.968571e+02
   1.814438e+02   5.898928e+01
  -1.928171e+00   2.039343e+02
  -1.802222e+02   6.862802e+01
  -1.696290e+02  -2.443524e+02
   1.119946e+01  -3.616356e+02
   2.208305e+02  -1.532679e+02
   3.483309e+02   5.067641e+01
   3.291424e+02   2.575690e+02
   9.474934e+01   2.549538e+02
  -1.572396e+02   1.202634e+02
  -1.424918e+02  -3.459801e+01
  -5.199105e+01  -5.201780e+01
   1.199687e+02   6.800266e+01
  -3.440503e+01   1.285442e+02
  -1.100983e+02   1.235379e+02
  -2.061276e+02  -1.846267e+01
  -5.659888e+01  -1.211356e+02
   5.901646e+01  -8.333345e+00
   6.786128e+01   1.133733e+02
  -1.638768e+02   4.803265e+01
  -2.746960e+02  -1.934727e+01
  -2.866710e+02  -6.778966e+01
  -8.205143e+01  -2.190282e+02
   1.953737e+02  -3.115680e+02
   2.595166e+02  -1.434651e+02
   1.424503e+02   2.089049e+01
  -1.870182e+01   1.349624e+02
  -1.159041e+02   4.012208e+01
   3.517606e+01  -9.505729e+01
   1.600158e+02  -6.394897e+01
   2.304348e+02   1.304845e+02
   8.224966e+01   2.029082e+02
  -8.747764e+01   1.464118e+02
  -1.474592e+02   3.388164e+01
  -1.084832e+02  -2.533117e+01
   5.588529e+01  -2.502917e+01
   2.013749e+01   3.960029e+01
  -6.813080e+01   9.275300e+01
  -2.463901e+02   6.349341e+01
  -1.980517e+02  -9.051104e+01
  -3.630034e+01  -2.024529e+02
   1.129161e+02  -1.905849e+02
   1.914444e+02  -5.863278e+01
   6.999945e+01   1.084657e+02
  -6.012053e+01   1.318743e+02
  -4.693029e+01   3.792517e+01
  -7.680085e+00  -1.403562e+01
  -9.059482e+00  -2.130293e+00
   2.197862e+01   7.900879e+01
  -3.527136e+01  -2.587991e+01
  -1.037497e+02  -1.549642e+02
  -3.150989e+01  -1.561256e+02
   1.348654e+02  -1.929580e+02
   2.474954e+02  -5.867896e+01
   2.069231e+02   2.034153e+02
   5.891801e+01   2.289482e+02
  -1.307451e+02   1.541119e+02
  -1.248702e+02   5.069154e+01
  -1.055791e+02  -9.030623e+01
  -2.661055e+01  -3.542626e+01
  -4.069496e+01   6.363896e+01
  -9.550486e+01  -7.597598e+00
   5.316390e+00  -6.462013e+01
   3.056359e+01  -7.631784e+01
   1.244034e+02  -2.308973e+01
   1.127284e+02   9.526147e+00
   3.136126e+01   1.438652e+02
  -1.320063e+02   7.410272e+01
  -2.178074e+02  -7.539681e+01
  -1.244227e+02  -2.176801e+02
   1.391152e+02  -2.150642e+02
   2.663686e+02  -8.473111e+01
   2.570672e+02   1.052789e+02
   8.402152e+01   1.681324e+02
  -3.268793e+01   1.566575e+02
  -1.571248e+02   8.923591e+01
  -7.317118e+01   1.149987e+02
  -5.560034e+01   1.377891e+02
  -1.006039e+02   1.218112e+02
  -1.160808e+02  -4.682807e+01
  -1.338919e+02  -1.447241e+02
  -2.036265e+01  -2.154440e+02
   6.209224e+01  -1.951971e+02
   1.677863e+02  -3.052367e+01
   1.598614e+02   7.868678e+01
   6.241129e+01   1.368575e+02
  -7.005729e+01   1.131342e+02
  -5.639609e+01   1.059666e+00
  -2.410281e+01  -6.459857e+01
   3.836625e+01  -3.505911e+00
  -4.537014e+01   1.827827e+01
  -7.927799e+01   1.216035e+01
  -5.974284e+01  -8.997261e+01
   8.438280e+01  -2.696929e+01
   1.882656e+02  -9.810060e+01
   1.081398e+02   8.103154e+01
  -8.054419e+00   6.156425e+01
  -1.047068e+02   7.005848e+01
  -1.770821e+02   3.982128e+01
  -4.961612e+01  -5.647130e+01
   8.522617e+01  -6.548976e+01
   7.696406e+01   2.832366e+01
  -7.953286e+00   4.660103e+01
  -6.468403e+01   8.757259e+01
  -4.060514e+01  -4.566053e+01
  -6.296166e+01  -4.884400e+01
  -2.634055e+01  -6.946004e+01
  -3.243144e+01   3.813953e+01
  -6.010372e+01   1.297323e+01
  -6.397225e+01  -1.052850e+02
   3.914337e+01  -1.220069e+02
   1.540825e+02  -1.452051e+02
   1.599760e+02  -2.176764e+01
   9.781173e+01   9.330311e+01
   3.431106e+01   8.732000e+01
  -9.610286e+01   5.857795e+01
  -4.877505e+01  -3.332140e+01
   6.718846e+01   6.049365e+00
   1.449159e+02   1.961212e+01
   7.749747e+01   1.656781e+02
  -1.093672e+02   1.255014e+02
  -2.036592e+02   6.783562e+01
  -1.194084e+02  -2.186725e+01
  -3.475702e+01  -8.083422e+01
   2.147923e+01  -8.164343e+01
   4.702629e+01  -8.318447e+00
  -5.317329e+01   4.044269e+01
  -1.031743e+02  -5.487789e+01
  -2.206000e+01  -8.975216e+01
   1.161205e+02  -1.778110e+02
   9.395883e+01  -2.870843e+01
   1.275336e+02   1.272204e+02
   2.382173e+01   2.008608e+02
  -1.027980e+02   1.242768e+02
  -6.541360e+01  -1.359354e+01
  -7.419858e+01  -1.426674e+02
   1.703565e+01  -1.192356e+02
   7.418288e+01   4.983905e+00
   1.229649e+01   3.834891e+01
  -2.006015e+01  -2.477272e+01
   4.160683e+01  -9.016231e+01
  -2.651943e+01   4.883093e+01
   9.217145e+01   1.149128e+02
   6.183428e+01   9.649754e+01
  -7.385746e+00   8.201928e+01
  -2.062627e+02  -3.054383e+01
  -1.082379e+02  -1.234360e+02
  -5.474935e+01  -3.202101e+01
   8.491994e+01  -3.579626e+01
   9.592932e+01   3.502457e+01
   6.504370e+01   5.290101e+01
  -4.662587e+01   2.429135e+01
  -4.666487e+01   1.176011e+02
   1.840178e+01   2.172516e+01
   6.080839e+01  -6.037992e+01
  -1.071344e+02  -5.946460e+01
  -5.392899e+01  -2.054903e+01
   1.459951e+01  -1.072454e+02
   7.524630e+01  -1.216990e+02
   1.646966e+02  -2.420511e+01
   1.306944e+02   9.480281e+01
   3.690656e+01   1.845072e+02
  -8.108733e+01   1.652923e+02
  -8.019728e+01   3.720793e+01
  -6.433446e+01  -4.900422e+01
  -2.179875e+01  -3.274647e+01
  -6.155533e+00   3.507941e+01
  -1.870012e+01   3.082439e+01
  -2.813156e+01  -2.386998e+01
  -4.354139e+01  -8.434974e+01
   6.165051e+01  -7.606500e+01
   1.150882e+02  -1.087046e+01
   1.168045e+02   1.437236e+02
  -2.629412e+01   1.189609e+02
  -1.112621e+02   5.178366e+01
  -1.138332e+02  -7.268850e+01
  -4.996658e+01  -1.465599e+02
   2.506906e+01   2.457954e+00
   9.392476e+01   4.088702e+01
   9.364873e+01  -5.665238e+00
  -4.170357e+01   3.976990e+01
  -4.629267e+01   8.658958e+01
   3.387890e+01  -9.473133e+01
   4.909397e+01   8.872344e+00
   4.051107e+01   2.914590e+01
  -9.391827e+01   7.955113e+01
  -1.473351e+02   1.915547e+01
  -4.947276e+01   1.790675e+01
   1.011329e+00  -1.010606e+02
   5.768821e+01  -6.481089e+01
   8.384078e+01  -2.333337e+01
  -1.739094e+01   7.022249e+01
  -7.620280e+00   1.320375e+01
  -4.226208e+01   7.425428e+00
  -4.460727e+00  -1.058514e+02
  -2.102482e+00   1.386296e+01
   1.242131e+01   1.402043e+01
   1.849715e+01   3.745573e+01
   4.294579e+01   1.478338e+01
  -4.005166e+01   3.142415e+00
   3.915638e+01   1.824885e+00
   1.484067e+01   4.976220e+01
  -7.131309e+00   2.353091e+01
  -4.838911e+01  -6.056520e+01
  -3.642590e+01  -8.154522e+01
  -1.253022e+00  -5.470078e+01
   3.357617e+01  -9.697993e+00
   2.598181e+01   1.841216e+01
  -1.622153e+01   8.616830e+01
  -7.674788e+01   5.861489e+01
  -4.252884e+01   2.462294e+01
  -9.742478e-01  -5.728428e+01
   1.820781e+01  -8.629558e+00
   8.209891e+01  -7.393341e+01
   4.304455e+01  -4.015100e+01
  -3.017422e+01   5.654952e+00
  -4.823366e+01   1.769253e+01
   4.695318e+01  -4.351956e+01
   5.574046e+01  -2.205838e+01
