
 $NMID
 id='ANONYMOUS ', fmtdat='(2E16.6)'
 volume=1.0
 tramp=1.0
 $END
   4.305636e+03   3.939422e+00
   2.494564e+03   2.568254e+03
  -6.294761e+02   2.747086e+03
  -2.028454e+03   8.982619e+02
  -9.324754e+02  -5.022651e+02
   5.848156e+02  -5.350887e+02
   8.405314e+02   4.235196e+02
  -1.046016e+01   9.751566e+02
  -8.472754e+02   7.609996e+02
  -8.763692e+02  -1.095198e+02
  -4.274148e+02  -8.238745e+02
   2.743784e+02  -9.067487e+02
   5.819585e+02  -1.464802e+02
   3.552948e+02   7.411551e+02
  -2.993535e+02   7.525788e+02
  -5.666752e+02   4.381808e+00
  -2.742987e+02  -6.922240e+02
   2.767606e+02  -6.231589e+02
   5.846484e+02  -1.356229e+02
   3.979949e+02   3.246140e+02
   3.497262e+01   3.944157e+02
  -2.001037e+02   3.051099e+02
  -1.866092e+02  -8.081551e+00
   1.840733e+02  -6.499742e+01
   4.176096e+02   1.846171e+02
   2.129049e+02   4.806076e+02
  -4.774777e+02   3.658987e+02
  -8.412836e+02  -1.143711e+02
  -4.026272e+02  -6.109125e+02
   3.918531e+02  -4.509598e+02
   7.364731e+02   7.536931e+01
   3.176911e+02   4.393210e+02
  -2.749495e+02   5.288857e+02
  -6.177949e+02   2.137876e+02
  -4.072527e+02  -2.416965e+02
  -1.167150e+02  -4.260977e+02
   1.958363e+02  -2.756736e+02
   1.261111e+02   2.115868e+02
  -1.168789e+02   4.603367e+02
  -3.690821e+02  -6.329548e+01
  -2.698300e+02  -6.719702e+02
   3.927168e+02  -7.003638e+02
   5.912884e+02  -6.105668e+00
   2.061982e+02   5.410891e+02
  -2.655224e+02   2.653881e+02
  -3.878802e+02  -2.887197e+02
   7.551785e+01  -5.494683e+02
   5.483825e+02  -1.703962e+02
   5.849518e+02   4.238796e+02
   1.513016e+02   5.767508e+02
  -3.641491e+02   3.377287e+02
  -6.511761e+02  -8.067741e+01
  -3.432778e+02  -3.371997e+02
   1.731599e+02  -3.601915e+02
   4.059740e+02  -6.244540e+01
   1.887776e+02   1.688139e+02
  -1.080476e+02   1.110846e+02
  -1.459726e+02  -1.651683e+02
   1.594154e+02  -1.930431e+02
   3.809486e+02   1.253067e+02
   1.399941e+02   2.991420e+02
  -1.908343e+02   2.555493e+02
  -3.715292e+02   1.047917e+02
  -1.789300e+02  -9.192713e+01
   2.559927e+01  -2.693795e+02
   2.216950e+02  -3.542703e+02
   3.234369e+02  -2.053495e+02
   2.887576e+02   1.388089e+02
   7.221628e+01   4.213433e+02
  -1.642789e+02   3.574534e+02
  -5.374633e+01   1.225448e+02
  -8.025234e+01  -6.786211e+00
  -5.754856e+01   8.278868e+01
  -2.505537e+02   1.758736e+02
  -2.685809e+02  -8.592158e+01
  -1.036561e+02  -2.450246e+02
   1.081282e+02  -2.697087e+02
   2.358144e+02  -1.782967e+01
   1.754994e+02   2.497576e+02
  -2.425809e+01   3.152915e+02
  -2.394473e+02   1.170700e+02
  -3.436728e+02  -1.994002e+02
  -1.488493e+02  -3.406235e+02
   1.136252e+02  -2.470164e+02
   1.749326e+02  -1.201887e+02
   1.571334e+02   1.207178e+01
   1.080713e+02  -3.248838e+01
   2.220996e+02  -7.005541e+01
   4.022752e+02   4.928395e+01
   3.325468e+02   3.390647e+02
   2.072590e+01   4.226805e+02
  -4.087976e+02   4.139922e+02
  -4.976762e+02   2.024975e+02
  -3.448388e+02  -1.030704e+02
  -1.104444e+01  -3.121038e+02
   1.058796e+02  -2.775199e+02
   3.839501e+01  -2.095056e+01
  -1.436824e+02   1.229916e+02
  -1.483132e+02  -4.793204e+01
  -3.019700e+01  -2.249627e+02
   1.860678e+02  -1.732985e+02
   1.731241e+02   1.044507e+02
  -2.461005e+01   1.778130e+02
  -1.528882e+02   5.115594e+01
  -1.742608e+02  -2.338374e+02
  -2.221186e+00  -3.457237e+02
   2.813517e+02  -1.931330e+02
   3.139620e+02   8.098616e+01
   2.883398e+02   2.198313e+02
   7.839659e+01   2.714666e+02
  -9.316398e+01   1.549649e+02
  -1.735635e+02   5.932181e+01
  -2.806030e+01  -4.186241e+01
   5.679276e+01   4.302091e+01
   3.342470e+01   1.503079e+02
  -1.046550e+02   1.314925e+02
  -1.777296e+02  -2.361500e+01
  -2.338957e+01  -9.085662e+01
   8.798829e+01  -2.885552e+01
   7.290034e+01   1.088080e+02
  -1.387063e+02   1.058184e+02
  -3.030746e+02  -2.743209e+00
  -2.536827e+02  -1.423661e+02
  -2.323642e+01  -2.838692e+02
   1.811831e+02  -2.615095e+02
   2.989817e+02  -1.084349e+02
   1.747612e+02   3.779959e+01
  -8.744899e+01   9.521402e+01
  -1.253552e+02   1.621311e+01
   6.823723e+01  -7.769946e+01
   1.649164e+02  -3.851760e+01
   1.875660e+02   1.605317e+02
   8.298031e+01   1.731002e+02
  -4.256190e+01   2.044623e+02
  -1.512770e+02   1.258414e+01
  -3.884249e+01  -7.388597e+00
   1.362637e+01  -5.076222e+01
   4.693260e+01   9.714187e+01
  -9.103760e+01   1.034201e+02
  -2.275993e+02   1.903846e+01
  -1.597157e+02  -1.498163e+02
   3.772998e+01  -2.346759e+02
   1.679565e+02  -1.936016e+02
   1.412945e+02   4.074452e+01
   9.121376e+01   1.540144e+02
  -2.652609e+01   1.021758e+02
  -1.329121e+02   1.660779e+01
  -5.628694e+01  -7.649176e+01
  -1.827598e+01  -5.469593e+01
  -4.273431e+01  -4.139054e+01
  -7.314339e+01  -3.557946e+01
  -9.984546e+01  -1.211623e+02
  -5.836798e+01  -1.594014e+02
   1.492627e+02  -1.229095e+02
   2.046360e+02  -4.318155e+01
   1.766681e+02   1.311727e+02
   6.806701e+01   2.324665e+02
  -1.052221e+02   1.986223e+02
  -1.281866e+02  -1.988672e+01
  -1.011887e+02  -7.240550e+01
  -4.136799e+01  -2.574874e+01
  -5.709274e+01  -2.924884e+00
  -6.217410e+01  -3.311118e+00
  -2.198512e+01  -3.299246e+01
   4.287840e+01  -6.348560e+01
   6.703046e+01  -8.728011e+01
   9.287863e+01   9.241905e+01
  -1.626604e+01   1.374870e+02
  -1.753116e+02   6.109803e+01
  -1.869655e+02  -5.223801e+01
  -1.440262e+02  -2.194743e+02
   8.890820e+01  -2.569109e+02
   2.810381e+02  -1.074580e+02
   2.459898e+02   7.231083e+01
   4.415423e+01   1.424362e+02
  -5.770664e+01   1.313422e+02
  -8.633494e+01   8.674616e+01
  -7.620579e+01   8.345736e+01
  -7.016297e+01   1.417813e+02
  -8.259049e+01   1.176988e+02
  -1.042454e+02  -3.057387e+01
  -6.106954e+01  -1.138516e+02
  -2.017780e+01  -1.948118e+02
   7.271618e+01  -1.685580e+02
   1.331606e+02  -2.496848e+01
   1.482711e+02   1.072622e+02
  -3.213721e+01   2.001258e+02
  -5.855162e+01   5.790800e+01
  -9.639913e+01  -2.638192e+01
   5.260042e+01  -2.840926e+01
  -1.805969e+01  -6.422095e+01
  -6.700027e+00  -5.027396e+01
  -6.536574e+01  -4.160976e+01
  -1.186508e+01  -2.593865e+01
   1.932415e+01  -3.521291e+01
   1.956793e+02   5.086941e+00
   9.381068e+01   1.781155e+00
   5.517491e+01   1.082986e+02
  -1.377099e+02   3.831886e+01
  -1.597704e+02   1.766841e+01
  -1.031607e+01  -4.064622e+01
   6.388765e+01  -2.870401e+01
   8.595690e+01  -2.030596e+01
   1.632025e+00   9.169746e+01
  -2.980033e+01   6.780851e+01
  -8.231185e+01   1.069079e+01
  -7.463247e+01  -6.572510e+01
  -4.862696e+01  -6.503689e+01
  -1.045357e+02   4.154435e+01
  -2.422082e+01  -4.603339e+01
   3.523348e+01  -8.324913e+01
   1.199833e+01  -1.264930e+02
   1.020784e+02  -1.117526e+02
   1.773802e+02   3.047725e+00
   1.131731e+02   1.311524e+02
   1.991482e+01   1.325730e+02
  -1.054278e+02   5.109575e+01
  -4.140389e+01  -2.971988e+01
   7.331969e+01  -1.887409e+01
   1.231423e+02   6.766858e+01
   7.093463e+01   6.832851e+01
  -8.284336e+01   1.375244e+02
  -2.166226e+02   1.240940e+01
  -1.658167e+02  -5.660764e+01
  -8.019422e+01  -8.748774e+01
   3.033289e+01   9.781086e+00
   5.453344e+01   1.292556e+01
  -5.017586e+01  -2.514163e+01
  -1.335804e+02  -1.262778e+01
  -3.093241e+01  -1.042211e+02
   9.279568e+01  -1.534273e+02
   1.443264e+02  -2.954830e+01
   1.852639e+02   5.870947e+01
   2.164977e+01   1.785643e+02
  -1.003234e+02   2.143737e+02
  -7.317638e+01  -2.033814e+01
  -8.145598e+01  -1.168780e+02
  -5.176671e+01  -1.259125e+02
   8.179592e+01  -8.171003e+00
   3.857596e+01   9.993090e+01
   1.439591e+00   5.272904e+01
   2.992516e+01  -3.729586e+00
   1.232081e+01   2.330971e+01
   5.360798e+01   6.911085e+01
   1.449177e+01   1.291751e+02
  -3.715331e+01   6.382636e+01
  -1.855070e+02  -1.522434e+01
  -1.171675e+02  -1.035775e+02
  -3.746505e+01  -4.513912e+01
   9.529731e+01  -2.128320e+01
   6.519083e+01  -1.644580e+01
  -1.237227e+01  -2.878145e+01
  -4.386782e+01   1.462197e+01
  -1.719543e+01   5.379478e+01
   5.672038e+01  -3.478642e+01
   2.113991e+01  -8.536945e+00
  -1.591398e+02   4.314258e+00
  -1.413254e+02  -4.863719e+00
  -1.791079e+00  -1.282854e+02
   9.892143e+01  -1.066523e+02
   1.730077e+02  -8.868793e+01
   1.587088e+02   4.625873e+01
  -1.581355e+01   1.685015e+02
  -3.801554e+01   6.568847e+01
  -1.059547e+02   4.734507e+01
  -1.059100e+02  -1.788987e+01
   3.889065e+01  -1.145480e+01
   1.384230e+01  -2.108369e+01
   1.702855e+00   2.453101e+01
  -5.053209e+01  -3.995955e+01
   2.834801e+01  -1.181932e+02
   4.263787e+01  -9.044415e+01
   7.277866e+01   2.245599e+01
   3.089663e+01   8.445264e+01
   7.775829e+01   7.329084e+01
  -8.557108e+01   1.533651e+01
  -9.884791e+01  -1.048463e+02
  -5.054668e+01  -1.013681e+02
   6.036238e+01  -4.102884e+01
   8.427465e+01  -2.027259e+01
   6.738952e+01   7.246162e+01
   2.339636e+01   3.487238e+01
   1.256755e+01  -7.060001e+00
   9.119429e+01   4.716390e+01
   5.340502e+01  -3.250242e+01
   1.666818e+01   3.632942e+01
  -1.084768e+02   6.819529e+01
  -9.375429e+01   9.517621e+01
  -5.539230e+01  -1.119349e+01
   4.334412e+01  -7.155515e+01
   6.559463e+01  -1.390019e+02
   2.282772e+01   2.956604e+01
  -1.670522e+01   3.750858e+01
   1.763474e+01   2.487972e+01
  -6.178674e+01   9.405446e+00
  -6.813720e+01  -3.869348e+01
  -4.657960e+01  -3.115695e+01
  -2.805189e+01  -3.389854e+01
   5.382158e+01   1.354283e+01
  -2.867979e+01   2.265688e+01
  -4.701036e+01  -4.747165e+00
   8.620884e+00  -2.901530e+01
   3.342812e+01   5.417499e+01
  -4.875727e+01   1.618001e+01
  -8.252946e+01  -9.860371e+00
  -2.110680e+01  -7.207812e+00
   5.188902e+01  -1.173802e+02
   6.027025e+01   5.279923e+00
   4.158835e+00  -5.135170e+01
   5.290972e+01   7.986358e+01
  -6.748321e+01   1.442624e+01
  -1.443916e+02   4.331063e+01
  -1.785486e+01  -1.020619e+02
   9.640394e+01  -2.258086e+01
   5.457757e+01  -1.920677e+01
   4.348499e+01  -2.464395e+01
  -5.799977e+01   4.102157e+01
   4.230761e+01  -5.494893e+01
   8.544386e+01  -1.026936e+01
   1.016951e+02   5.983122e+00
