
 $NMID
 id='ANONYMOUS ', fmtdat='(2E16.6)'
 volume=1.0
 tramp=1.0
 $END
   4.592056e+03   5.383871e+01
   2.682413e+03   2.835313e+03
  -9.098980e+02   2.868693e+03
  -2.305878e+03   7.589218e+02
  -9.462862e+02  -8.054178e+02
   7.361926e+02  -6.222819e+02
   9.790237e+02   4.872622e+02
  -1.145724e+01   1.161825e+03
  -9.766084e+02   8.315330e+02
  -1.047416e+03  -1.381955e+02
  -4.766528e+02  -9.807202e+02
   3.348816e+02  -8.950312e+02
   6.900091e+02  -1.020481e+02
   3.579373e+02   7.810309e+02
  -3.090981e+02   7.093445e+02
  -7.016631e+02  -5.430886e+01
  -2.628278e+02  -7.448731e+02
   4.037287e+02  -6.228513e+02
   5.928689e+02  -3.995122e+01
   4.078844e+02   3.623180e+02
  -2.076317e+01   4.280968e+02
  -2.468796e+02   2.607760e+02
  -1.723427e+02   3.493279e-02
   9.857412e+01  -1.591973e+02
   4.318789e+02   1.309251e+02
   2.257010e+02   4.479706e+02
  -4.492772e+02   4.633060e+02
  -9.083760e+02  -3.433301e+01
  -5.425001e+02  -6.246113e+02
   4.159000e+02  -5.537377e+02
   7.934064e+02  -6.559774e+00
   3.564308e+02   4.957377e+02
  -3.306856e+02   5.652216e+02
  -5.727116e+02   2.115746e+02
  -4.613268e+02  -1.891951e+02
  -2.814600e+01  -5.300938e+02
   1.751023e+02  -3.224083e+02
   2.130943e+02   2.812213e+02
  -1.516852e+02   5.070641e+02
  -5.010414e+02  -1.286073e+00
  -2.458340e+02  -7.381790e+02
   3.814262e+02  -7.688396e+02
   6.488707e+02  -2.127438e+01
   2.814604e+02   6.238740e+02
  -2.963426e+02   3.808270e+02
  -3.815617e+02  -3.144392e+02
   1.159441e+02  -6.369070e+02
   5.772531e+02  -1.684778e+02
   6.775960e+02   4.246790e+02
   1.476932e+02   5.844361e+02
  -4.107833e+02   3.535416e+02
  -5.671035e+02  -1.181707e+02
  -3.451423e+02  -4.025616e+02
   1.675896e+02  -3.839422e+02
   4.739097e+02  -9.850895e+01
   2.710926e+02   1.799080e+02
  -1.343048e+02   1.091616e+02
  -2.140753e+02  -2.027903e+02
   2.544756e+02  -2.207246e+02
   3.607906e+02   4.662744e+01
   1.288190e+02   2.714919e+02
  -2.078476e+02   2.581363e+02
  -2.555699e+02   2.739553e+01
  -1.591196e+02  -8.528656e+01
   2.371152e+01  -2.409860e+02
   2.143689e+02  -3.388619e+02
   3.213495e+02  -1.916561e+02
   2.735754e+02   1.672767e+02
   8.768683e+01   4.690018e+02
  -2.047540e+02   3.698519e+02
  -8.369259e+01   9.655171e+01
  -2.464961e+01  -3.544941e+01
  -2.631140e+01   8.477910e+01
  -1.576512e+02   1.368833e+02
  -3.135267e+02  -5.575777e+01
  -1.785521e+02  -2.856795e+02
   6.823054e+01  -2.812570e+02
   2.006771e+02  -1.683089e+01
   1.945525e+02   2.284827e+02
   9.617548e+00   2.785665e+02
  -2.767334e+02   1.396404e+02
  -4.194898e+02  -1.854843e+02
  -1.936095e+02  -3.950298e+02
   1.312416e+02  -3.253178e+02
   2.653486e+02  -1.312249e+02
   2.290148e+02   2.856968e+01
   1.400087e+02  -9.295115e+00
   2.166187e+02  -8.416135e+01
   4.113429e+02   7.074998e+01
   3.792118e+02   2.512418e+02
   2.037253e+01   4.535189e+02
  -3.716097e+02   3.773253e+02
  -5.441828e+02   1.960300e+02
  -3.483316e+02  -8.874232e+01
  -6.473560e+01  -3.153739e+02
   1.360971e+02  -2.739768e+02
   7.632217e+01  -2.174029e+01
  -6.859571e+01   1.516690e+02
  -2.510868e+02  -5.220287e+01
  -5.585156e+01  -2.435024e+02
   2.537985e+02  -1.918539e+02
   1.495510e+02   5.262842e+01
  -5.563903e+01   1.773098e+02
  -1.979565e+02   1.492817e+01
  -1.706035e+02  -2.432846e+02
  -6.969890e-02  -3.095353e+02
   1.674232e+02  -2.123476e+02
   2.816453e+02   6.409811e+01
   2.699425e+02   2.981688e+02
   1.606544e+02   2.737408e+02
  -4.234085e+01   2.078941e+02
  -2.116940e+02   2.023998e+00
  -1.602718e+02  -6.927751e+01
   5.593676e+01   3.077759e+01
   7.635949e+01   1.211652e+02
  -1.210353e+02   1.453349e+02
  -1.942107e+02  -1.786326e+01
   1.369838e+01  -1.137039e+02
   1.138607e+02  -1.695802e+01
   8.496580e+01   6.239324e+01
  -8.514408e+01   6.427251e+01
  -3.019634e+02   1.885064e+00
  -3.076755e+02  -1.453851e+02
  -8.333321e+01  -2.067277e+02
   1.483442e+02  -2.519882e+02
   2.671162e+02  -1.204312e+02
   1.309521e+02   3.668827e+01
  -1.449708e+01   9.097231e+01
  -1.040147e+02   7.056987e+01
   7.991055e+01  -1.308638e+02
   1.720105e+02  -5.848075e+01
   1.559972e+02   7.760627e+01
   5.590432e+01   2.478585e+02
  -1.150202e+02   1.110002e+02
  -1.570718e+02   4.436602e+01
  -3.376771e+01  -8.770317e+01
   1.895185e+01   7.370496e+00
   9.425404e+01   9.018834e+01
  -5.341567e+01   1.430553e+02
  -2.165030e+02   5.138123e+01
  -2.036152e+02  -1.274409e+02
  -4.931986e+01  -2.238901e+02
   1.428871e+02  -2.012717e+02
   2.305338e+02  -6.717945e+00
   1.146341e+02   1.457805e+02
  -4.888539e+01   7.094720e+01
  -8.586302e+01   5.870495e+01
   4.849269e+00  -4.383799e+01
   1.841887e+01   4.147979e+00
  -7.494396e+00   2.185045e+01
  -4.805175e+01  -8.663720e-01
  -7.114737e+01  -1.115152e+02
  -3.445610e+01  -1.307685e+02
   1.081382e+02  -1.791417e+02
   2.648519e+02  -4.128850e+01
   2.071727e+02   1.616513e+02
   7.854232e+01   1.907874e+02
  -1.053286e+02   1.612543e+02
  -1.479230e+02   1.948505e+01
  -5.324649e+01  -5.162465e+01
  -6.581176e+01  -5.388483e+01
  -1.192904e+01   5.327880e+01
  -6.104082e+01  -1.900342e+01
  -3.517229e+01  -3.145389e+01
   3.319544e+01  -6.721247e+01
   1.066458e+02  -1.179269e+02
   5.499722e+01   3.653555e+01
  -4.993939e+01   6.777223e+01
  -9.541454e+01   1.006550e+02
  -1.650366e+02  -8.298496e+00
  -9.273076e+01  -1.927625e+02
   9.462571e+01  -2.841128e+02
   2.385222e+02  -1.123866e+02
   2.622823e+02   7.584515e+01
   9.510747e+01   1.179961e+02
  -3.554837e+01   2.256559e+02
  -1.176360e+02   1.082870e+02
  -7.427667e+01   6.000896e+01
  -1.138235e+02   1.046976e+02
  -8.324585e+01   3.879517e+01
  -1.268610e+02  -4.229662e+01
  -1.195803e+02  -1.893194e+02
  -1.502877e+01  -2.633947e+02
   1.085827e+02  -1.870341e+02
   1.575611e+02  -1.963308e+01
   1.487527e+02   1.023696e+02
   5.126309e+01   1.254970e+02
  -1.056678e+02   1.237901e+02
  -4.128423e+01  -2.317872e+01
   3.866109e+01  -9.598309e+01
  -1.440500e+01  -1.291148e+02
  -1.118553e+01  -3.605804e+01
  -1.208240e+02  -7.915268e+00
  -4.374635e+01  -1.821451e+01
   6.322571e+01  -5.190838e+01
   1.069201e+02  -6.539014e+00
   1.659789e+02   9.967410e+00
   2.059381e+01   1.168918e+02
  -1.386979e+02   4.265250e+01
  -1.679019e+02   1.321693e+01
  -7.570340e+01  -5.827213e+01
   4.658908e+01  -2.690920e+01
   6.240197e+01   3.750627e+01
   4.615044e+01   9.057650e+01
  -4.809891e+01   4.072400e+01
  -8.109599e+01  -3.905506e-01
  -1.224771e+00   2.118443e+01
  -3.191087e+01  -3.054317e+01
  -6.724946e+01  -9.591871e+00
  -6.306695e+01  -2.738305e+01
  -5.266292e+01  -8.515495e+01
   8.178035e+01  -1.928344e+02
   1.477996e+02  -1.940757e+02
   1.517798e+02   2.635314e+01
   1.436184e+02   8.428160e+01
   7.373830e+00   1.719600e+02
  -9.597163e+01   6.058174e+01
  -2.349805e+01  -2.195328e+01
   5.109320e+01  -3.773644e+01
   1.480939e+02   9.518957e+01
   5.878553e+01   1.017330e+02
  -9.934693e+01   1.148518e+02
  -1.681419e+02   6.293252e+01
  -1.754168e+02  -4.044471e+01
  -4.517708e+01  -1.011187e+02
   5.402727e+01  -5.313734e+01
   5.627287e+01   1.613490e+00
  -5.981589e+01   4.230450e+00
  -1.218875e+02  -3.608690e+01
  -2.361080e+01  -1.709194e+02
   1.390693e+02  -1.364603e+02
   1.239280e+02  -4.793498e+01
   1.442357e+02   9.057838e+01
   2.159492e+01   1.564720e+02
  -6.664974e+01   6.172275e+01
  -1.369564e+02   2.618569e+01
  -5.262796e+01  -9.194352e+01
  -1.600431e+01  -1.226713e+02
   4.960044e+01   3.058010e+01
   6.510210e+01   1.501246e+01
   1.931515e+01   7.707189e+00
  -3.407123e+01  -4.364298e+01
   2.728203e+00   1.195297e+01
   7.177315e+01   1.431200e+02
   3.568870e+01   5.169768e+01
  -4.691896e+01   6.504063e+01
  -2.010421e+02  -3.246813e+01
  -1.511038e+02  -9.574525e+01
  -1.262037e+01  -3.176557e+01
   1.147058e+02   3.782069e+01
   1.230281e+02  -3.740096e-01
   5.038831e+00   9.644010e+00
  -7.434162e+01  -4.193241e+00
  -1.929785e+01   4.644620e+01
  -1.657911e+01   2.450721e+01
   4.084280e-01   4.582058e+01
  -7.355373e+01  -3.833114e+01
  -8.489773e+01  -5.771973e+01
   5.669434e+01  -6.000941e+01
   1.337018e+02  -1.023129e+02
   1.980100e+02  -4.018679e+01
   1.306151e+02   8.206549e+01
   3.973523e+01   1.788979e+02
  -5.634493e+01   1.748832e+02
  -1.299476e+02   1.477088e+01
  -1.024921e+02  -2.761012e+01
  -6.752204e-01  -2.659434e+01
  -6.441039e+01  -1.560545e+01
  -3.363459e+01  -6.123976e+01
  -7.581093e+01  -8.112793e+01
  -1.044466e+01  -9.302708e+01
   3.552362e+01  -7.015071e+01
   1.563498e+02   1.057446e+01
   1.295522e+02   8.457303e+01
   2.065362e+01   1.168248e+02
  -4.871511e+01  -1.935448e+01
  -1.369934e+02  -6.462014e+01
  -5.669911e+01  -1.382711e+02
   3.892066e+01  -6.987888e+01
   1.103251e+02   3.265253e+01
   1.092379e+01   2.689706e+01
  -8.043620e-01   7.758336e+01
  -6.719551e+01   1.115463e+02
   3.039096e+01  -2.492649e+01
   5.589128e+01  -4.465829e+01
  -2.011823e+01   6.277816e+01
  -7.138456e+01   5.764748e+01
  -1.067017e+02   4.311931e+01
  -7.137543e+01  -3.495327e+01
   3.004806e+01  -9.013662e+01
   1.234286e+02  -1.641312e+00
   6.861424e+00  -3.200164e+01
  -2.186766e+01   1.045859e+02
  -2.587784e+01   3.667637e+00
  -6.657862e+00   1.672174e+01
  -2.102600e+01  -5.981116e+01
  -2.129054e+00  -6.555092e+01
   8.858754e+00   1.281989e+00
   4.002378e+01  -4.517506e+00
  -4.027997e+00  -5.721774e+00
  -2.500880e+01  -2.641236e+01
   9.368758e+00  -6.429121e+01
  -3.965675e+01   5.895485e+01
  -2.046238e+01   6.512072e+01
  -1.816448e+01   3.537048e+01
  -6.768450e+01  -5.612724e+01
  -2.653148e+01  -5.220748e+01
   1.002026e+02  -5.481589e+01
   3.738343e+01  -4.614688e+01
  -1.544028e+01   8.142707e+01
  -6.785987e+01   3.052033e+01
  -8.629049e+01  -2.409499e+01
  -5.790463e+01  -7.775080e+01
   1.357971e+01  -4.437268e+01
   8.653714e+00   5.158704e+01
   5.881171e+00  -3.092108e+01
  -1.236366e+01   5.110889e+01
  -1.610084e+01  -2.041958e+01
   7.730241e+01  -7.796709e+00
   8.075149e+01   4.692150e+00
