
 $NMID
 id='ANONYMOUS ', fmtdat='(2E16.6)'
 volume=1.0
 tramp=1.0
 $END
  -4.563072e+03   1.137025e+01
  -2.716272e+03  -2.776558e+03
   8.298815e+02  -2.937349e+03
   2.277170e+03  -8.958725e+02
   9.819658e+02   8.142678e+02
  -7.711383e+02   6.709888e+02
  -9.818626e+02  -4.750118e+02
  -2.350510e+01  -1.187570e+03
   9.025424e+02  -8.130451e+02
   1.081560e+03   9.288545e+01
   4.185517e+02   9.217623e+02
  -2.632154e+02   9.205143e+02
  -7.200500e+02   1.219155e+02
  -4.448333e+02  -7.365379e+02
   3.207925e+02  -8.323317e+02
   6.822099e+02   4.989636e+01
   2.453394e+02   7.462273e+02
  -3.020383e+02   6.187492e+02
  -5.647939e+02   4.595630e+01
  -3.680157e+02  -3.827751e+02
   4.666425e+01  -4.595961e+02
   2.098453e+02  -2.333072e+02
   2.327539e+02   1.205400e+01
  -1.378132e+02   1.366063e+02
  -3.836650e+02  -9.832033e+01
  -2.606283e+02  -4.999773e+02
   4.655671e+02  -4.402358e+02
   8.954175e+02   7.864229e+01
   4.851489e+02   6.256290e+02
  -4.187152e+02   5.852956e+02
  -7.835647e+02  -3.767398e+01
  -3.393829e+02  -5.267054e+02
   3.051756e+02  -5.019107e+02
   6.117775e+02  -2.334329e+02
   4.496306e+02   2.149235e+02
   6.529855e+01   4.948259e+02
  -2.041466e+02   3.172711e+02
  -1.962268e+02  -2.046933e+02
   2.104979e+02  -5.119089e+02
   4.956755e+02  -1.268337e+01
   2.918438e+02   7.648744e+02
  -3.362065e+02   7.820355e+02
  -6.287672e+02   1.621619e+01
  -2.835050e+02  -5.993869e+02
   2.893193e+02  -3.720936e+02
   4.256878e+02   3.164102e+02
  -7.665729e+01   6.145474e+02
  -5.894057e+02   1.766758e+02
  -6.428332e+02  -4.156158e+02
  -1.976186e+02  -6.037739e+02
   3.894541e+02  -3.510574e+02
   6.732028e+02   4.964336e+01
   4.132774e+02   4.082734e+02
  -1.397414e+02   4.092280e+02
  -5.102159e+02   9.231284e+01
  -2.584321e+02  -2.163856e+02
   1.168943e+02  -1.294293e+02
   2.023680e+02   1.814973e+02
  -1.774156e+02   1.952020e+02
  -3.880895e+02  -8.252001e+01
  -1.485375e+02  -3.607846e+02
   2.573495e+02  -2.712942e+02
   4.140836e+02  -1.119949e+02
   2.083508e+02   9.804026e+01
  -4.628307e+01   2.291941e+02
  -2.459327e+02   3.387337e+02
  -3.255192e+02   2.674863e+02
  -2.839511e+02  -1.221482e+02
  -6.342280e+01  -4.998497e+02
   1.386948e+02  -4.354041e+02
   2.133250e+02  -9.191958e+01
   4.669404e+01   1.874397e+00
  -5.056972e+01  -3.994236e+01
   2.562579e+02  -1.723045e+02
   2.356203e+02   2.449539e+01
   1.840666e+02   2.771137e+02
  -4.071111e+01   2.538997e+02
  -2.221691e+02   4.986851e+00
  -1.747624e+02  -2.422966e+02
  -1.250058e+01  -3.085899e+02
   2.867650e+02  -1.156917e+02
   3.696673e+02   1.564912e+02
   2.160098e+02   3.755994e+02
  -8.244192e+01   3.651691e+02
  -2.387419e+02   1.084201e+02
  -1.870403e+02  -4.142242e+01
  -1.043719e+02  -4.761096e+00
  -2.543909e+02   2.884423e+01
  -4.227942e+02  -5.009099e+01
  -3.479293e+02  -2.578030e+02
  -4.200726e+01  -4.100213e+02
   4.156572e+02  -3.736773e+02
   4.871784e+02  -2.272940e+02
   4.042046e+02   9.828668e+01
   2.871243e+01   3.077937e+02
  -7.738410e+01   3.052861e+02
  -1.148769e+02   5.873835e+01
   1.144971e+02  -1.313547e+02
   1.853412e+02  -3.050746e+01
   1.010244e+02   1.805046e+02
  -1.538366e+02   2.038239e+02
  -1.955582e+02  -6.505643e+01
   2.289083e+00  -2.566274e+02
   1.660973e+02  -3.662677e+01
   1.726125e+02   2.978298e+02
  -4.436401e+00   3.498258e+02
  -1.956780e+02   2.367812e+02
  -3.277232e+02  -1.918487e+01
  -3.094668e+02  -2.818063e+02
  -1.005950e+02  -2.595494e+02
   1.006508e+02  -1.523030e+02
   1.842851e+02  -8.563122e+01
   1.031419e+02   2.934105e+01
  -1.421998e+02  -4.161150e+01
  -2.968016e+00  -1.286511e+02
   1.608604e+02  -1.099378e+02
   1.921751e+02  -1.564827e+01
   1.538945e+02   6.272814e+01
  -7.215189e+01  -2.029456e+00
  -7.281665e+01  -3.663947e+01
   1.491985e+02  -6.642626e+01
   2.790464e+02  -2.469013e+01
   2.059470e+02   9.990224e+01
   8.698501e+01   2.568027e+02
  -2.104291e+02   2.213406e+02
  -2.834872e+02   1.503259e+02
  -1.871079e+02  -4.252156e+01
   1.074548e+01  -6.390946e+01
   1.245033e+02  -4.320137e+01
   9.464895e+00   9.126728e+01
  -1.893205e+02   8.003231e+01
  -2.223115e+02  -8.653753e+01
  -6.665993e+01  -2.924801e+02
   9.576388e+01  -1.805836e+02
   1.416284e+02  -7.037392e+00
   1.325751e+02   4.000886e+01
  -1.036276e+01   5.342135e+01
   2.537990e+01  -8.628955e+01
   5.884541e+01  -1.141131e+02
   1.295516e+02   4.709579e+00
   2.377424e+02   1.080392e+02
  -2.320556e+01   2.386650e+02
  -1.304288e+02   1.726080e+02
  -1.913617e+02   1.786378e+01
  -4.806194e+01  -1.552915e+02
   3.340299e+01  -9.611229e+01
   1.476241e+02   3.213116e+01
   4.032425e+01   4.651437e+01
  -3.593506e+01   1.483908e+01
   4.965083e+00   6.201066e+01
   2.840127e+01   1.865424e+01
   6.784384e+01   1.184491e+02
   4.606701e+01   1.200781e+02
  -9.197057e+01   1.313009e+02
  -2.895534e+02   1.891496e+01
  -2.529008e+02  -1.064412e+02
  -6.300271e+01  -2.321497e+02
   9.865915e+01  -1.690769e+02
   1.255039e+02  -3.324716e+00
   7.330996e+01   1.568352e+01
  -1.258624e+01   1.323822e+01
   1.487017e+01   2.521198e+01
   1.271207e+02   6.699949e+00
   5.059352e+01   9.629380e+01
  -3.856732e+01   1.316976e+02
  -8.309640e+01   7.201298e+01
  -9.236527e+01  -7.553249e+01
   1.181378e+01  -1.243869e+02
   9.352097e+01  -1.569842e+02
   1.955060e+02   1.917224e+01
   5.931785e+01   2.217572e+02
  -1.145313e+02   2.222880e+02
  -2.120578e+02   6.330140e+01
  -2.291977e+02  -8.172786e+01
  -1.131655e+02  -2.054331e+02
   6.090988e+01  -1.912277e+02
   7.980589e+01  -1.070036e+02
   1.271768e+02  -7.208591e+01
   8.102566e+01  -1.704544e+02
   6.007003e+01  -8.620858e+01
   1.025403e+02   6.357956e+01
   1.248036e+02   1.320324e+02
   4.441696e+01   1.856635e+02
  -1.302707e+02   1.801846e+02
  -2.041177e+02   5.028344e+01
  -1.569644e+02  -1.498263e+02
  -1.525689e+00  -1.120168e+02
   4.633208e+01  -1.048366e+02
   6.295576e+01  -5.738743e-01
   3.130049e+01   3.207386e+01
  -5.021411e+01  -1.227979e+01
   4.711320e+01   1.097055e+01
   1.397202e+02  -4.332043e+01
  -1.674016e+01   1.079078e+01
  -1.010259e+02   2.131230e+01
  -2.009549e+02  -5.099870e+01
  -1.168009e+02  -4.255413e+01
  -2.472024e+01  -6.443584e+01
   9.488326e+01  -6.279623e+01
   2.026460e+02  -3.811424e+01
   3.146790e+01   9.021092e+01
  -6.072638e+01  -5.458759e+00
  -4.977577e+01  -2.728067e+01
  -5.791401e+00  -9.722270e+01
   9.413661e+01  -1.263486e+01
   9.798359e+01   1.037457e+01
   4.686385e+01   9.429970e+01
   4.035860e+01  -1.527031e+01
   5.646447e+01  -2.871767e+01
   5.678124e+01  -1.059957e+00
   3.441900e+01   2.279505e+01
  -3.425819e+01   1.256290e+02
  -1.798961e+02   1.167631e+02
  -1.857848e+02   2.130719e+01
  -8.573071e+01  -7.434319e+01
  -3.910428e+01  -1.334749e+02
   8.001030e+01  -8.811774e+00
   7.110011e+01  -1.706010e+01
  -9.996033e+01   2.386563e+01
  -1.593425e+02  -6.515923e+00
  -5.459851e+01  -1.217496e+02
   9.050618e+01  -1.102271e+02
   2.230292e+02  -8.098040e+01
   1.183963e+02   1.109739e+01
   7.141258e+01   9.812671e+01
  -4.083185e+01   1.203344e+02
  -4.160342e+01   2.008543e+01
   8.698950e+01  -2.771717e+00
   9.460908e+01   2.206517e+01
   2.525195e+01   1.375230e+02
  -6.565105e+01   1.779108e+02
  -1.851446e+02   4.357903e+01
  -1.047971e+02  -6.871690e+01
  -7.045636e+00  -2.506768e+02
   7.475853e+01  -1.658494e+02
   8.542495e+01   1.183666e+01
   6.383404e+01   1.436524e+02
  -1.950668e+01   1.240547e+02
  -4.623010e+01   1.009861e+01
  -5.523921e+01  -4.394152e+01
  -2.512365e+01  -6.689335e+01
  -3.111209e+00   2.349049e+01
  -5.437806e+01   5.287017e+01
   1.412878e+00  -4.684769e+01
  -4.819686e+01  -1.300877e+02
  -2.299787e+00  -1.017018e+02
   1.028148e+02   4.799799e+01
   1.281340e+02   1.376627e+02
   4.900087e+01   4.613112e+01
  -1.004533e+02  -2.283485e+01
  -9.730916e+01   4.872465e+01
   5.694549e+00  -2.384344e+01
   4.244501e+01  -3.425394e+01
  -5.889578e+00  -1.907939e+00
  -3.622450e+01   3.397022e+01
   6.551857e+00   3.644504e+01
   1.334341e+02  -3.201657e+01
   7.123566e+01   2.641852e+01
  -3.152403e+01   1.058395e+02
  -9.823434e+01   1.201638e+02
  -1.693622e+02   1.717296e+01
  -1.740247e+02  -1.304977e+02
  -7.420304e+01  -1.570635e+02
   4.976404e+01  -1.808089e+02
   9.203453e+01  -2.282562e+01
   4.787204e+01   4.380025e+01
   5.642011e+01   1.051921e+02
   3.330541e+01  -4.389017e+01
   5.960470e+01  -6.867688e+00
  -1.985945e+01   2.980535e+00
  -1.202585e+01   4.132553e+01
   1.548377e+01   5.947243e+01
  -1.270227e+02  -3.954177e+01
  -5.480790e+01  -1.365638e+02
  -3.008678e+01  -1.475330e+02
   1.023486e+02   3.185917e+01
   9.299092e+01   9.039429e+01
   3.325429e+01   8.905025e+01
  -8.627757e+01   6.387218e+01
  -6.812640e+01  -1.279416e+01
   4.079012e+01  -7.796968e+01
   2.268940e+01   1.434931e+01
   2.387774e+01  -5.143960e+01
  -6.139838e+01   9.307111e+00
  -3.010443e+01  -2.890702e+01
  -1.536434e+01  -2.741605e+00
   1.127185e+02  -7.804367e+01
   1.115672e+02  -9.645500e+01
   6.072436e+01  -1.730545e+01
   2.510802e+01   1.367236e+02
  -4.961744e+01   8.443899e+01
  -4.762239e+01   4.332155e+01
   2.125704e+01  -6.191169e+00
   6.243927e+01  -1.724549e+01
   3.718912e+01   4.761920e+01
   3.172486e+01   6.738637e+01
   1.499742e+01   2.366712e+01
  -6.092615e+01  -1.823503e+01
  -1.781337e+01   5.115280e+01
  -5.657997e+01  -1.731194e-01
   1.612549e+01   1.355047e+01
   5.366475e+01  -4.115341e+01
  -4.468030e+01  -1.350404e+01
  -1.619812e+01  -2.822640e+01
   1.056119e+02  -1.218498e+01
   2.332985e+01   4.125809e+01
   2.780089e+01   3.095004e+01
  -8.985306e+01   1.955651e+01
  -8.853355e+01  -3.273453e+01
  -5.402648e+01  -4.521364e+01
   6.888986e+01  -4.149966e+01
   1.143261e+02   1.852673e+01
   5.167609e+01   6.570724e+01
  -4.364333e+01   2.830561e+01
  -4.302740e+01   1.088642e+01
  -5.634112e+01  -2.009794e+01
   4.904378e+01   1.451879e+01
  -1.210831e+01   1.550898e+01
  -5.108713e+01   3.920635e+00
  -1.017248e+02   6.583652e+01
