
 $NMID
 id='ANONYMOUS ', fmtdat='(2E16.6)'
 volume=1.0
 tramp=1.0
 $END
   4.678095e+03   7.025648e+00
   2.667774e+03   2.833339e+03
  -8.927913e+02   2.908433e+03
  -2.314463e+03   8.122920e+02
  -9.636455e+02  -8.207170e+02
   8.251995e+02  -6.280411e+02
   1.047717e+03   5.461183e+02
  -9.181245e+00   1.186690e+03
  -9.333901e+02   8.245952e+02
  -1.003318e+03  -1.960674e+02
  -4.810648e+02  -9.428297e+02
   3.772038e+02  -9.271688e+02
   6.892750e+02  -1.412695e+02
   4.094311e+02   8.367580e+02
  -2.998238e+02   8.174290e+02
  -6.780659e+02   6.046787e+00
  -2.305494e+02  -7.339606e+02
   3.954527e+02  -6.711926e+02
   5.960120e+02  -5.896154e+01
   3.938925e+02   4.326192e+02
  -2.577459e+01   4.819653e+02
  -2.726153e+02   2.515695e+02
  -2.520527e+02  -3.216870e+01
   1.028104e+02  -1.132060e+02
   4.695431e+02   9.619666e+01
   2.751549e+02   4.560008e+02
  -4.777857e+02   5.038869e+02
  -9.796839e+02  -6.723034e+01
  -4.192061e+02  -5.757696e+02
   4.144862e+02  -5.255806e+02
   8.063546e+02  -4.141450e+01
   4.046227e+02   5.033464e+02
  -2.706941e+02   5.358576e+02
  -6.024598e+02   2.635227e+02
  -4.486540e+02  -2.515236e+02
  -1.474570e+01  -5.093100e+02
   2.036294e+02  -2.863289e+02
   2.200482e+02   2.328634e+02
  -1.548338e+02   4.628839e+02
  -4.800823e+02   1.872610e+00
  -2.982034e+02  -7.285650e+02
   3.452791e+02  -7.988453e+02
   6.754320e+02  -5.110549e+01
   3.093129e+02   6.268527e+02
  -3.317360e+02   4.122968e+02
  -4.859029e+02  -3.618393e+02
   1.660072e+01  -5.950547e+02
   6.351228e+02  -1.778805e+02
   6.084646e+02   4.595266e+02
   1.441284e+02   6.366372e+02
  -3.553100e+02   3.925953e+02
  -7.188633e+02  -9.884879e+01
  -3.898049e+02  -4.540678e+02
   2.053590e+02  -3.615759e+02
   4.684302e+02  -5.743180e+01
   2.843442e+02   2.870071e+02
  -1.297202e+02   1.596969e+02
  -1.581898e+02  -1.689663e+02
   1.641081e+02  -2.239928e+02
   3.349074e+02   8.627017e+01
   1.097626e+02   3.269903e+02
  -2.120725e+02   2.693049e+02
  -3.019045e+02   5.833300e+01
  -2.997279e+02  -5.934656e+01
   1.613718e+01  -2.118190e+02
   2.170750e+02  -3.171628e+02
   3.676592e+02  -2.676984e+02
   3.660230e+02   1.583310e+02
   7.869661e+01   4.845580e+02
  -1.661344e+02   3.929086e+02
  -1.339752e+02   1.013729e+02
  -1.957386e+01  -2.784169e+00
  -4.398887e+01   9.842694e+01
  -1.933535e+02   9.386143e+01
  -2.795433e+02  -5.702406e+01
  -1.988012e+02  -2.601463e+02
   8.434842e+01  -2.752983e+02
   2.385314e+02  -1.000131e+02
   1.831046e+02   2.811843e+02
   4.056887e+01   2.946565e+02
  -3.137262e+02   2.033708e+01
  -3.946690e+02  -2.359329e+02
  -1.423165e+02  -3.539017e+02
   1.112716e+02  -3.259753e+02
   2.386912e+02  -1.302664e+02
   1.396374e+02   1.550009e+01
   9.470452e+01  -4.776597e+01
   2.500120e+02  -4.790029e+01
   4.064899e+02   7.182550e+01
   3.292961e+02   2.787173e+02
   2.320650e+01   4.330405e+02
  -3.684231e+02   4.611957e+02
  -5.292588e+02   2.151641e+02
  -3.837266e+02  -1.238764e+02
  -2.981356e+01  -3.481257e+02
   1.142197e+02  -2.373770e+02
   4.080360e+01  -3.667707e+01
  -1.225260e+02   1.305627e+02
  -2.298550e+02  -1.679925e+01
  -1.038178e+02  -2.324550e+02
   1.293134e+02  -2.151420e+02
   2.191603e+02   8.185973e+01
   2.327618e+00   2.531074e+02
  -2.164191e+02   2.532163e+01
  -1.881537e+02  -2.337891e+02
   4.815010e+01  -3.863654e+02
   2.080765e+02  -1.666120e+02
   2.987275e+02   5.550319e+01
   2.907867e+02   2.671080e+02
   9.339443e+01   2.564457e+02
  -1.157345e+02   1.558885e+02
  -2.224128e+02   9.402526e+01
  -6.588675e+01  -4.631990e+01
   5.006955e+01   4.970936e+01
   2.080106e+01   1.136777e+02
  -1.511858e+02   9.274108e+01
  -1.921272e+02  -1.848247e+01
  -7.741231e+01  -3.333586e+01
   4.050497e+01  -3.137238e+01
   5.154211e+01   6.938641e+01
  -1.539484e+02   1.217124e+02
  -2.499125e+02   1.285866e+01
  -2.684282e+02  -1.259207e+02
  -4.574408e+01  -2.656026e+02
   1.720305e+02  -2.496557e+02
   2.849756e+02  -1.584108e+02
   2.701904e+02   8.416138e+01
  -6.454057e+01   1.375381e+02
  -1.148181e+02   2.805381e+01
   6.081270e+01  -1.224415e+02
   2.064895e+02  -5.531617e+01
   2.297631e+02   8.511775e+01
   8.608524e+01   2.015746e+02
  -7.356838e+01   1.650948e+02
  -1.405109e+02   4.717676e+01
  -7.966831e+01  -4.009819e+01
   3.996349e+01   2.280800e+01
   3.738238e+01   9.517875e+01
  -1.012349e+02   1.272285e+02
  -1.416113e+02   2.213415e+01
  -2.053539e+02  -9.957583e+01
   1.186301e+01  -2.305358e+02
   1.717715e+02  -1.080605e+02
   1.786516e+02  -4.515994e+00
   8.079161e+01   1.293421e+02
  -6.762551e+01   1.107614e+02
  -9.223591e+01   5.523022e+01
  -5.492717e+01  -6.106538e+01
   5.228020e+01  -2.075174e+01
   9.813031e-01  -1.794655e+01
  -7.100376e+01  -2.758099e+01
  -9.043108e+01  -1.037086e+02
  -7.298732e+00  -1.786711e+02
   1.255336e+02  -1.228033e+02
   2.973098e+02   5.795122e-01
   2.292505e+02   2.045802e+02
   6.631275e+01   2.901250e+02
  -6.613573e+01   1.913196e+02
  -1.200776e+02   3.185371e+01
  -2.936850e+01  -7.110723e+01
  -5.691555e+01  -3.901015e+01
  -9.255218e+01  -2.018379e+01
  -1.030604e+02   4.159074e+01
  -1.312523e+01  -3.734010e+01
   4.709155e+01  -5.306620e+01
   1.419258e+02  -3.905443e+01
   5.647586e+01   3.798592e+01
  -6.665899e+01   1.203671e+02
  -1.580651e+02   9.773409e+01
  -1.703956e+02  -3.497005e+01
  -8.117542e+01  -1.770240e+02
   1.252135e+02  -3.099708e+02
   3.012396e+02  -1.132418e+02
   2.241817e+02   6.564763e+01
   1.501598e+02   1.289152e+02
  -7.199645e+01   1.565357e+02
  -1.062633e+02   1.202555e+02
  -8.306558e+01   9.788568e+01
  -3.486533e+01   1.123019e+02
  -7.258138e+01   8.454825e+01
  -1.143759e+02  -9.148804e+00
  -1.272907e+02  -1.491409e+02
  -3.961259e+00  -2.378548e+02
   1.479508e+02  -2.217851e+02
   1.968236e+02  -1.723371e+01
   1.668285e+02   1.617045e+02
   3.445581e+01   1.360360e+02
  -9.786325e+01   5.546513e+01
  -1.607835e+01   2.170711e+01
  -1.552749e+01  -1.007697e+02
  -3.396584e+00  -8.969580e+01
  -1.214511e+02  -4.692624e+01
  -9.094075e+01   1.293552e+01
  -8.121938e+01  -5.988196e+01
   8.856036e+01  -8.656294e+01
   1.657191e+02   1.326633e+01
   1.453373e+02   2.228052e+01
  -1.857945e-01   1.014884e+02
  -1.728843e+02   3.657277e+01
  -1.215738e+02  -2.096581e+01
  -6.455882e+01  -9.214633e+00
   6.893816e+01   4.805789e-01
   1.128280e+02   5.639840e+01
   8.545254e+00   9.361820e+01
  -8.047289e+01   9.555698e+01
  -5.533188e+01  -2.497294e+00
  -4.851570e+01  -5.545224e+01
  -1.174565e+02  -9.185943e+01
  -8.923232e+01   1.564080e+01
  -1.020895e+02  -1.454012e+01
   1.038611e-01  -9.144673e+01
   4.115364e+01  -1.459051e+02
   1.067072e+02  -1.331386e+02
   1.538437e+02   1.330467e+00
   1.046644e+02   1.053069e+02
  -1.898683e+01   1.006106e+02
  -6.333408e+01   3.491269e+01
  -2.509442e+01  -4.471025e+01
   8.495236e+01  -3.637351e+01
   1.652902e+02   3.909505e+01
   6.496307e+01   9.963546e+01
  -1.423973e+02   9.633838e+01
  -1.749832e+02   7.409947e+01
  -2.268285e+02  -3.725105e+01
  -4.821295e+01  -7.545413e+01
   4.189259e+01  -9.797794e+01
   6.300919e+01   4.748265e+00
   1.882279e+01   1.379918e+01
  -4.334312e+01  -1.015007e+02
  -6.651528e+01  -9.338793e+01
   1.274488e+02  -1.107776e+02
   2.052146e+02  -1.291980e+02
   1.311392e+02   6.282990e+01
   5.131421e+01   2.337456e+02
  -6.383192e+01   1.233531e+02
  -9.712191e+01  -3.819581e+00
  -1.086873e+00  -7.518880e+01
   3.341705e+01  -7.092730e+01
   6.757037e+01  -8.896055e+00
   6.873210e+01   1.039087e+01
   3.909101e+01   3.607763e+01
   1.439088e+01  -2.416495e+01
  -5.511212e+01  -4.918150e+00
   8.862719e+01   1.042189e+02
   4.917284e+01   1.046189e+02
  -5.835349e+01   6.127711e+01
  -1.284009e+02  -3.802336e+01
  -1.427053e+02  -8.136112e+01
  -2.010093e+01  -4.788687e+01
   6.901988e+01   1.016721e+01
   8.602753e+01   4.768360e+01
   4.448616e+01  -2.971187e+01
  -6.427624e+01   1.120359e+01
  -3.282764e-01   6.961370e+01
   3.125285e+01   1.510188e+01
  -2.406898e+01  -4.076321e+01
  -7.605816e+01   3.970033e+01
  -1.465591e+02   1.674043e+01
   6.361309e+01  -8.040416e+01
   1.479615e+02  -1.356450e+02
   2.225927e+02  -6.938593e+01
   1.801547e+02   5.188565e+01
   9.465902e-01   1.218395e+02
  -4.157527e+01   1.860173e+02
  -8.260074e+01   2.325704e+01
  -9.263507e+01  -5.017338e+01
  -6.653007e+01   3.392804e+01
   2.005025e+01  -4.073576e+00
  -4.849819e+01  -3.682875e+01
  -3.684438e+01  -6.905332e+01
  -7.873323e-02  -4.739976e+01
   4.546348e+01  -5.429011e+01
   5.900290e+01  -6.022907e+01
   8.131691e+01   9.271252e+01
  -2.959146e+01   1.223284e+02
  -8.666872e+01   1.118576e+01
  -6.102869e+01  -8.881047e+01
  -1.760777e+01  -1.430671e+02
   6.542129e+01  -9.154369e+01
   1.032109e+02  -4.113062e+01
   8.436810e+01   8.213458e+00
  -1.846517e+01   8.967558e+01
  -3.134181e+01  -2.044763e+01
   2.637967e+01   1.902449e+01
   9.957533e+01  -4.237958e+00
   2.261536e+01   4.749462e+01
  -1.482993e+01   3.073669e+01
  -1.558551e+02   4.320858e+01
  -4.837421e+01  -9.716686e-01
  -1.350452e+00  -5.449121e+01
   7.123418e+01  -8.084601e+01
  -3.183988e+00  -2.874427e+00
  -6.984822e+01   1.206292e+02
   2.894219e+01   7.608077e+00
   4.560796e+00  -1.481881e+01
  -1.827195e+01  -1.085266e+02
   1.676137e+01   1.065294e+00
   2.340797e-01   3.178786e+01
   1.742883e+01   4.903571e+01
   7.702544e+00  -2.692422e+00
  -2.728147e+01   3.729108e+00
  -4.227482e+00   7.983278e+01
  -9.053950e+00   6.303343e+01
  -8.030420e+01   7.204944e+01
  -3.251112e+01   8.797363e+00
  -2.407336e+01  -7.972974e+01
  -7.867566e+00  -6.858336e+01
   1.190750e+02  -3.002627e+01
   3.125233e+01   3.029750e+01
  -4.287398e+00   3.365299e+01
  -8.777059e+01   6.876231e+01
  -8.797394e+01   1.340190e+01
  -3.011489e+01  -9.553777e+01
   3.747382e+01  -2.123838e+01
   5.233504e+01  -3.027075e+01
   2.190245e+01  -4.385774e+01
  -6.861468e-01  -2.812917e+01
  -6.265425e+01  -5.380778e+01
  -1.992107e+01  -4.514036e-01
   1.450969e+02  -3.215567e+01
