
 $NMID
 id='ANONYMOUS ', fmtdat='(2E16.6)'
 volume=1.0
 tramp=1.0
 $END
  -4.590211e+03   2.035157e+01
  -2.636820e+03  -2.843247e+03
   8.544622e+02  -2.909960e+03
   2.311068e+03  -8.909592e+02
   1.020921e+03   8.459933e+02
  -7.753427e+02   6.140626e+02
  -9.566389e+02  -4.663353e+02
  -7.656311e+00  -1.126763e+03
   8.590358e+02  -8.028434e+02
   9.995218e+02   1.373761e+02
   4.850068e+02   9.948483e+02
  -2.491213e+02   9.290735e+02
  -7.256207e+02   1.001467e+02
  -3.884942e+02  -8.165962e+02
   2.385059e+02  -7.743315e+02
   6.565121e+02   2.450763e+01
   3.002267e+02   7.390627e+02
  -4.005299e+02   6.449170e+02
  -6.308529e+02   4.449409e+01
  -3.604054e+02  -3.854446e+02
   1.039006e+01  -4.855292e+02
   2.426913e+02  -2.974743e+02
   2.740129e+02   1.657365e+01
  -5.901869e+01   1.004631e+02
  -4.181679e+02  -7.708112e+01
  -2.642156e+02  -4.326160e+02
   4.542557e+02  -5.050723e+02
   9.355336e+02   1.044298e+02
   4.225054e+02   5.762360e+02
  -3.861229e+02   5.215474e+02
  -7.523651e+02  -6.890759e+01
  -4.073073e+02  -5.558480e+02
   3.090744e+02  -5.433017e+02
   5.573156e+02  -1.955044e+02
   4.342087e+02   2.020758e+02
   3.808959e+01   4.973780e+02
  -2.231863e+02   2.737681e+02
  -1.610034e+02  -2.766543e+02
   1.785916e+02  -5.172682e+02
   4.441080e+02  -1.011195e+01
   2.756444e+02   7.083613e+02
  -3.704304e+02   7.300530e+02
  -6.530384e+02  -1.813977e+01
  -3.051835e+02  -6.205490e+02
   3.040771e+02  -3.627553e+02
   4.241036e+02   3.317070e+02
  -7.362661e+01   5.727797e+02
  -6.311880e+02   1.715922e+02
  -5.904489e+02  -4.523246e+02
  -1.504239e+02  -6.116044e+02
   3.660958e+02  -3.829441e+02
   6.714672e+02   8.596817e+01
   3.671862e+02   3.887195e+02
  -2.079917e+02   3.781522e+02
  -4.423485e+02   4.610866e+01
  -3.287477e+02  -2.021605e+02
   1.360088e+02  -1.565290e+02
   1.578535e+02   2.003411e+02
  -1.787418e+02   2.496690e+02
  -2.933038e+02  -9.889542e+01
  -4.844374e+01  -3.641311e+02
   1.914745e+02  -2.440402e+02
   3.727047e+02  -6.272832e+01
   2.078836e+02   7.714003e+01
  -4.618804e+01   1.799113e+02
  -2.195769e+02   3.557203e+02
  -3.177864e+02   1.876456e+02
  -3.470018e+02  -1.812219e+02
  -7.441509e+01  -5.067920e+02
   1.375546e+02  -3.788865e+02
   1.741044e+02  -1.185028e+02
   6.117226e+01   4.253224e+01
   1.420245e+00  -1.043811e+02
   1.411233e+02  -1.178265e+02
   3.104224e+02   4.637202e+01
   1.471187e+02   2.789196e+02
  -8.465094e+01   2.380268e+02
  -2.480453e+02   3.132208e+01
  -2.396112e+02  -2.608178e+02
  -1.980038e+01  -3.213358e+02
   3.228979e+02  -1.368094e+02
   3.430689e+02   1.405757e+02
   1.974235e+02   3.716236e+02
  -9.409964e+01   3.303016e+02
  -2.794737e+02   8.290168e+01
  -1.459747e+02  -3.078819e+01
  -1.005586e+02   1.655915e+01
  -2.618181e+02   9.464344e+01
  -4.468079e+02  -5.831853e+01
  -3.674141e+02  -2.721262e+02
   2.585183e+01  -4.201940e+02
   3.496898e+02  -4.379916e+02
   5.057596e+02  -2.157551e+02
   3.035292e+02   7.102784e+01
   1.050474e+02   2.922571e+02
  -1.485643e+02   2.427906e+02
  -1.667030e+02   4.075537e+01
   1.462693e+02  -1.118556e+02
   2.009102e+02  -4.186768e+01
   1.295767e+02   1.685235e+02
  -1.736850e+02   2.350863e+02
  -1.753002e+02  -9.296451e+01
   4.644699e+01  -2.417459e+02
   2.072401e+02  -2.620512e+01
   2.321548e+02   2.662337e+02
  -3.797451e+01   3.370034e+02
  -2.409889e+02   1.875950e+02
  -3.155833e+02  -6.691987e+01
  -2.878740e+02  -2.387638e+02
  -1.277092e+02  -2.595048e+02
   8.077392e+01  -1.910659e+02
   1.867614e+02  -5.356615e+01
   6.478673e+01   2.042071e+01
  -4.536522e+01  -2.184236e+01
  -2.735192e+01  -1.727318e+02
   1.438733e+02  -8.811373e+01
   1.530823e+02   1.234093e+01
   4.462872e+01   8.761650e+01
  -1.119881e+02   9.095590e+00
  -5.565141e+01  -5.252333e+01
   1.187860e+02  -4.000073e+01
   3.097322e+02  -7.981919e+00
   3.176537e+02   1.204374e+02
   4.879194e+01   2.818189e+02
  -1.465125e+02   2.998734e+02
  -2.269560e+02   1.121159e+02
  -1.263623e+02  -5.376226e+01
   6.351116e+01  -7.072101e+01
   1.606916e+02  -3.374001e+01
  -6.309311e+01   6.555251e+01
  -1.881423e+02   1.242686e+02
  -2.652476e+02  -9.405771e+01
  -1.874133e+01  -2.034646e+02
   7.778078e+01  -2.169912e+02
   1.081932e+02  -5.804629e+01
   2.676039e+01   4.389908e+01
  -1.364905e+01   2.478635e+01
  -1.856077e+01  -7.285126e+01
   3.549658e+01  -8.282893e+01
   2.256246e+02  -7.427737e+01
   1.932024e+02   1.353029e+02
  -2.352127e+00   2.331400e+02
  -1.511312e+02   1.462598e+02
  -2.347759e+02  -1.508052e+01
  -7.143324e+01  -9.804742e+01
   7.771379e+01  -7.913974e+01
   5.073090e+01  -4.321979e+01
  -4.490811e+01  -4.328058e+01
   6.202377e+00   3.104596e+01
   3.521968e+01   1.404605e+01
   1.793293e+01   1.837715e+01
   6.517477e+01   5.675225e+01
   3.883716e+00   1.879359e+02
  -1.073750e+02   1.741103e+02
  -2.090059e+02   7.932801e+01
  -2.365494e+02  -1.585393e+02
  -4.548340e+01  -2.012274e+02
   1.000643e+02  -1.678873e+02
   1.926145e+02  -5.984667e+00
   5.309584e+01  -1.717443e+01
   3.993079e+01   2.663270e+01
   4.572949e+01  -1.663658e+01
   6.840274e+01  -2.896916e+01
   2.528199e+01   4.090718e+01
  -7.239500e+01   1.143173e+02
  -1.440744e+02   8.079589e+01
  -7.393845e+01  -3.942812e+01
   2.116088e+01  -1.392506e+02
   1.415358e+02  -7.566229e+01
   1.562531e+02   1.606523e+01
   7.069159e+01   2.127864e+02
  -1.551407e+02   1.758254e+02
  -2.865310e+02   8.017194e+01
  -2.552590e+02  -1.117703e+02
  -1.115059e+02  -1.960060e+02
   3.218301e+01  -1.377261e+02
   1.179055e+02  -7.621143e+01
   1.240501e+02  -8.295590e+01
   2.153982e+01  -8.615651e+01
   5.152360e+01  -7.341970e+01
   1.165988e+02  -4.842080e+00
   1.100715e+02   1.628268e+02
  -4.209878e+00   2.071452e+02
  -9.381156e+01   1.349643e+02
  -1.774864e+02   2.851683e+00
  -1.333401e+02  -1.167389e+02
  -3.153208e+01  -1.263330e+02
   1.118598e+02  -7.741273e+01
   6.631264e+01   2.808691e+01
  -7.777140e+00   1.033570e+02
   3.857201e+01  -1.697471e+01
   5.245954e+01   5.424091e+01
   8.822005e+01   2.352855e+01
   8.800592e+01   3.858208e+01
  -8.448800e+01   5.033844e+00
  -1.491980e+02   7.487597e+00
  -1.196301e+02  -6.160447e+01
   2.772326e+00  -5.629632e+01
   8.161921e+01  -1.306841e+02
   1.088266e+02   8.140576e+00
   4.136184e+01   9.760760e+01
  -3.747837e+01   4.173985e+01
  -7.439100e+01  -6.394234e+01
   2.153687e+00  -1.043275e+02
   6.264980e+00  -4.649373e+01
   1.009321e+02  -1.011857e+01
   5.415415e+01   9.807015e+01
   2.832757e+01   6.432385e+00
   9.742312e+01   1.750748e+01
   1.825284e+01  -3.664215e+01
   2.331738e+01   7.062251e+01
  -3.664930e+00   1.594746e+02
  -1.912712e+02   1.014121e+02
  -2.039115e+02   3.460809e+01
  -1.362811e+02  -1.237975e+02
   1.248195e+01  -1.485896e+02
   1.458359e+02  -1.004721e+02
   3.654289e+01   6.395285e+01
  -9.363240e+01   9.920346e+00
  -1.173454e+02  -4.749162e+01
  -7.675968e+01  -7.423687e+01
   7.016946e+01  -1.272637e+02
   2.243937e+02  -4.615908e+01
   2.278098e+02   8.603505e+01
   2.693452e+00   1.473978e+02
  -7.829559e+01   7.097573e+01
  -8.561726e+01  -1.389905e+01
   7.118605e+01  -5.591674e-01
   1.413832e+02   9.619840e+00
   5.530360e+01   8.173358e+01
  -1.436048e+02   1.433775e+02
  -1.563045e+02   7.453492e+01
  -6.755031e+01  -1.288629e+02
   3.102063e+01  -1.917923e+02
   1.314870e+02  -1.718270e+02
   1.152103e+02   1.497611e+00
   1.272055e+02   1.180487e+02
  -8.809147e+00   9.503203e+01
  -4.489510e+01   2.936038e+01
  -5.224677e+01  -5.950479e+01
  -7.320443e+01   9.292702e+00
   1.210506e+01  -3.141933e+00
  -4.464753e+01  -5.656681e+01
  -6.068716e+01  -9.891833e+01
  -4.194084e+01  -1.364616e+02
  -7.783193e+00  -9.876219e+00
   1.395073e+02   1.108370e+02
   1.591264e+02   4.140061e+01
  -1.013181e+01   5.998459e+01
  -1.038768e+02   2.325487e+01
  -6.292521e+01   9.574782e+00
  -1.806119e+01  -5.498651e-01
   4.615120e+01  -5.679185e+01
  -1.464295e+01  -5.688298e+01
  -1.235600e-01  -2.782408e+01
   3.095552e+01   2.320333e+00
   9.362324e+01  -3.817493e+01
   6.767787e+01   4.687816e+01
  -8.444248e+00   7.377857e+01
  -1.364606e+02   1.686572e+02
  -1.849119e+02   8.099340e+01
  -1.467471e+02  -1.105667e+02
  -2.451495e+01  -1.096420e+02
   6.056375e+01  -1.156656e+02
   1.049497e+02  -8.561091e+01
   8.085708e+01   5.265785e+01
   2.145906e+01   1.212193e+01
   4.594545e+01   6.836714e+01
  -1.358322e+00   3.709758e+01
  -5.521791e+00   3.867318e+01
   1.548103e+01   8.994099e+01
  -4.408924e+01   1.480398e+02
  -1.109022e+02  -3.300889e+01
  -7.978324e+01  -1.300359e+02
   8.177218e-01  -1.297486e+02
   3.544489e+01  -3.960792e+01
   1.390345e+02   7.996061e+01
   1.127655e+02   6.359400e+01
  -2.656157e+01   6.636701e+01
  -7.562097e+01  -7.582189e+01
   4.459866e+00  -5.274862e+01
   5.467972e+01  -8.513312e+01
   7.666527e+01  -9.882984e+00
  -2.737065e+01  -1.772891e+01
   1.962604e+01  -2.099013e+01
  -2.120408e+00  -3.473535e+01
   9.529538e+01  -5.524856e+01
   1.123628e+02  -1.089238e+02
   6.140398e+01  -1.444230e+01
  -3.099373e+01   9.155498e+01
  -3.939110e+01   2.372126e+01
   1.071333e+01  -3.314638e+00
   3.511171e+01  -6.469632e+01
   5.293710e+01  -5.326078e+01
   5.745766e+01   2.715459e+01
   5.276243e+01   7.877697e+01
   2.058384e+01   7.152209e+01
  -1.930111e+01  -3.291090e+01
  -8.712668e+01  -7.496008e+01
   1.390302e-02  -7.092309e+01
  -8.818999e+00  -7.612747e+00
   3.633774e+01  -3.698917e+01
  -5.694639e+00  -6.402592e+01
   8.612102e+01   1.347702e+01
   2.545530e+01   5.057652e+01
   2.694201e+01   3.544838e+01
  -4.835537e+01   9.448735e+01
  -7.656937e+01   6.393570e+01
  -1.065754e+02  -6.196009e+01
  -2.498109e+01  -8.029903e+01
   4.700991e+01  -4.984363e+01
   8.471545e+01  -4.735610e+01
   9.046978e+01   9.057786e+00
  -3.647910e+00   8.321835e+01
  -6.736327e+01   1.516530e+01
   1.367314e+01  -4.905763e+01
   5.060701e+01   1.101583e+01
   3.249414e+01   7.916319e+00
  -9.039299e+01   4.795322e+01
  -6.053344e+01   4.836093e+01
