
 $NMID
 id='ANONYMOUS ', fmtdat='(2E16.6)'
 volume=1.0
 tramp=1.0
 $END
  -4.475057e+03   3.013037e+01
  -2.578895e+03  -2.647077e+03
   7.984353e+02  -2.879107e+03
   2.285428e+03  -8.658903e+02
   9.581024e+02   7.867462e+02
  -7.489567e+02   6.510175e+02
  -9.169362e+02  -4.718837e+02
   6.826041e+00  -1.137117e+03
   9.212766e+02  -8.229434e+02
   9.834757e+02   1.302637e+02
   4.523704e+02   9.296050e+02
  -2.306757e+02   9.055517e+02
  -7.343787e+02   1.105610e+02
  -4.012591e+02  -7.453756e+02
   2.728535e+02  -7.978978e+02
   6.657035e+02   9.031677e+01
   2.601427e+02   7.191556e+02
  -3.099790e+02   6.565479e+02
  -6.376220e+02   8.684623e+01
  -3.762290e+02  -3.263824e+02
   7.922508e+01  -4.349931e+02
   2.615035e+02  -2.908539e+02
   1.988051e+02  -4.598392e+00
  -1.157208e+02   1.324732e+02
  -4.612071e+02  -7.122220e+01
  -2.359586e+02  -3.668130e+02
   5.090953e+02  -4.645238e+02
   8.600050e+02   8.755795e+01
   4.314071e+02   5.965932e+02
  -3.517336e+02   5.401857e+02
  -8.007143e+02  -1.478992e+01
  -3.813462e+02  -4.778187e+02
   2.966292e+02  -5.422552e+02
   5.890711e+02  -2.161958e+02
   4.044417e+02   2.306307e+02
   5.391086e+01   5.014977e+02
  -1.997316e+02   2.976832e+02
  -1.786970e+02  -2.160784e+02
   2.057660e+02  -4.805010e+02
   4.402587e+02   4.326933e+00
   2.622832e+02   7.399631e+02
  -3.259967e+02   7.446855e+02
  -6.839503e+02   1.010194e+01
  -2.176466e+02  -6.483119e+02
   3.126057e+02  -3.223489e+02
   3.803736e+02   3.037463e+02
  -1.034302e+02   5.537210e+02
  -6.007471e+02   1.292728e+02
  -6.385623e+02  -4.357436e+02
  -2.142889e+02  -6.182945e+02
   4.285947e+02  -4.117571e+02
   6.076603e+02   5.967283e+01
   4.109434e+02   4.162964e+02
  -1.505648e+02   3.622660e+02
  -5.262955e+02   6.374440e+01
  -2.192814e+02  -2.095487e+02
   1.498550e+02  -1.211213e+02
   1.124318e+02   1.711800e+02
  -1.978541e+02   2.162746e+02
  -3.758848e+02  -6.549761e+01
  -1.679980e+02  -3.338603e+02
   2.385709e+02  -3.044492e+02
   3.589513e+02  -2.245043e+01
   1.585830e+02   7.888004e+01
  -7.526940e+00   1.667851e+02
  -2.049222e+02   3.143790e+02
  -3.662800e+02   2.367996e+02
  -2.760178e+02  -8.482839e+01
  -8.986526e+01  -4.631356e+02
   1.603119e+02  -3.879813e+02
   1.393498e+02  -1.260021e+02
   3.410219e+01   7.405925e+01
   5.059575e+01  -5.839134e+01
   1.834465e+02  -1.830029e+02
   2.732518e+02   6.850572e+01
   2.022835e+02   3.199626e+02
  -6.125828e+01   2.987277e+02
  -2.508499e+02  -4.710148e+01
  -2.297469e+02  -2.102383e+02
  -4.846275e+00  -3.251857e+02
   2.803656e+02  -1.490705e+02
   3.441949e+02   2.003393e+02
   2.387245e+02   3.511198e+02
  -1.262170e+02   3.322269e+02
  -2.523028e+02   1.098360e+02
  -1.255550e+02  -2.391323e+00
  -8.984138e+01   1.930260e+01
  -2.229638e+02   6.072383e+01
  -3.837927e+02  -6.414930e+01
  -2.906224e+02  -3.030221e+02
   3.615628e+00  -3.967418e+02
   3.745109e+02  -4.717409e+02
   4.669933e+02  -2.128359e+02
   3.395884e+02   9.887816e+01
   5.018454e+01   3.681743e+02
  -1.350598e+02   2.447595e+02
  -9.503932e+01  -2.101251e+01
   1.216951e+02  -1.054480e+02
   2.200068e+02   1.066796e+01
   7.437954e+00   1.648458e+02
  -1.761526e+02   1.536556e+02
  -2.252009e+02  -7.674658e+01
  -3.152081e+01  -1.801380e+02
   1.870225e+02  -3.689686e+01
   1.374570e+02   2.141195e+02
   8.881555e+00   3.534803e+02
  -2.225804e+02   2.232913e+02
  -3.228039e+02  -6.771738e+01
  -2.664690e+02  -2.061134e+02
  -5.293586e+01  -2.983075e+02
   1.385459e+02  -1.350725e+02
   1.969214e+02  -7.317013e+01
   2.756746e+01   5.945431e+01
  -7.914949e+01  -3.190882e+01
  -2.129655e+01  -6.536778e+01
   1.866523e+02  -7.210354e+01
   1.718334e+02   5.868066e+01
   4.033691e+01   9.872443e+01
  -8.044023e+01   4.188966e+01
  -5.333868e+01  -4.943669e+01
   1.143830e+02  -5.646595e+01
   3.078327e+02  -6.779936e+00
   2.466988e+02   1.417417e+02
   7.924177e+01   2.444053e+02
  -1.381224e+02   2.507997e+02
  -2.890692e+02   8.705260e+01
  -1.218624e+02  -6.060200e+01
   3.879465e+01  -1.078177e+02
   1.622997e+02   1.540920e+01
  -1.255005e+01   1.255211e+02
  -2.156164e+02   2.715399e+01
  -1.735708e+02  -1.021101e+02
  -9.367281e+01  -1.755844e+02
   1.173520e+02  -1.862785e+02
   7.815286e+01  -6.876306e+01
   8.291366e+01  -9.723076e+00
   2.771148e+01   2.608755e+01
  -4.436547e+01  -1.070440e+02
   2.004525e+01  -1.141904e+02
   1.885257e+02  -1.086939e+01
   1.478200e+02   1.204055e+02
  -2.107476e+01   2.551202e+02
  -1.610924e+02   2.128455e+02
  -2.156392e+02  -1.145866e+01
  -1.229896e+02  -1.288446e+02
   1.809111e+00  -1.996408e+02
   1.360177e+02  -8.478295e+00
   4.032287e+01   4.931217e+01
  -1.691522e+01  -1.132911e+01
   2.031957e+01  -2.484662e+01
   4.313250e+01  -6.286974e+01
   6.205651e+01   4.842642e+01
   5.366844e+01   1.621450e+02
  -1.288732e+02   1.342818e+02
  -2.055631e+02   1.570151e+01
  -2.268158e+02  -1.017884e+02
  -6.668124e+01  -2.528859e+02
   8.817871e+01  -1.967227e+02
   1.031177e+02  -2.385409e+01
   1.847737e+01   1.010869e+02
   7.509636e+01  -3.354653e+00
   7.273750e+01   1.910889e+01
   7.879211e+01   4.021003e+00
   5.790575e+01   1.731024e+01
   1.122677e+01   8.417571e+01
  -9.498690e+01   6.766294e+01
  -6.925886e+01  -4.424638e+01
   3.602482e+01  -1.114869e+02
   1.410542e+02  -8.539476e+01
   2.032648e+02   1.337304e+00
   8.574439e+01   1.877662e+02
  -2.284128e+01   2.385846e+02
  -2.572370e+02   1.181046e+02
  -2.457647e+02  -9.156119e+01
  -9.915196e+01  -1.804205e+02
   3.944831e+01  -1.274170e+02
   1.104953e+02  -3.578912e+01
   1.198161e+02  -1.143735e+02
   1.749455e+01  -9.151849e+01
   2.171032e+01  -4.351188e+01
   1.086398e+02  -1.126256e+01
   9.245679e+01   1.576541e+02
   5.107066e+01   2.115839e+02
  -9.195421e+01   1.677895e+02
  -2.024305e+02   4.666047e+01
  -1.290906e+02  -1.197665e+02
  -5.777490e+01  -1.805441e+02
   1.908105e+01  -8.174373e+01
   5.778880e+01  -2.055816e+01
  -4.584100e+01  -3.991214e+00
  -5.176725e+00   4.564924e+01
   3.326835e+01   2.936304e+01
   7.195470e+01  -3.774728e+00
   1.097086e+02   4.018915e+01
  -5.625579e+01   2.216027e+01
  -1.392806e+02   4.556715e+01
  -1.186176e+02  -4.770571e+01
   2.109774e+01  -7.373828e+01
   1.148835e+02  -7.758449e+01
   1.555815e+02  -5.692781e+01
   9.847231e+01   4.916611e+01
  -3.984076e+01   3.735583e+01
  -6.652000e+01  -2.367492e+01
  -5.239081e-01  -1.219987e+02
   3.386764e+01  -5.704298e+01
   3.145186e+01  -2.275130e+01
   6.136735e+01   2.702994e-01
   8.599686e+01   2.031407e+00
   9.062444e+01  -1.983619e+01
   7.917550e+01   4.869424e+01
   6.028007e+01   9.873851e+01
  -3.800049e+01   1.608660e+02
  -1.381563e+02   1.362438e+02
  -1.915455e+02   7.479713e+01
  -1.281001e+02  -9.290056e+01
   2.752978e+01  -1.507960e+02
   8.662646e+01  -5.770153e+01
   1.038314e+02   5.526203e+01
  -4.440541e+01   8.128589e+01
  -1.638767e+02  -7.102128e+01
  -1.150382e+02  -1.059714e+02
   1.234074e+02  -1.220260e+02
   2.056098e+02  -1.047621e+02
   1.750731e+02   4.427402e+01
   6.038579e+01   6.621577e+01
  -9.965402e+01   4.830586e+01
  -5.639132e+01  -4.773908e+00
   4.182365e+01  -6.254723e+01
   8.859560e+01  -3.186941e+01
   5.452004e+01   8.892884e+01
  -7.555892e+01   1.185617e+02
  -1.513357e+02   5.228149e+01
  -9.964077e+01  -1.019133e+02
  -1.322647e+01  -1.840378e+02
   3.235417e+01  -9.248018e+01
   6.310118e+01   1.131214e+01
   6.919978e+01   1.026501e+02
  -1.954735e+01   1.144870e+02
  -5.201527e+01   1.702890e+01
  -6.231873e+01  -3.863698e+01
  -4.308448e+01   4.588924e+01
   9.571269e+00   5.259634e+01
   2.392448e+01   6.515872e+00
  -7.118012e+01  -1.291979e+02
  -1.531101e+01  -1.523953e+02
   5.460403e+01  -3.072986e+01
   9.174002e+01   2.863970e+01
   1.249581e+02   1.256513e+02
  -7.963103e+00   3.393209e+01
  -9.768995e+01   8.106117e+01
  -6.972437e+01   3.071587e+01
  -3.553978e+01  -3.312741e+01
   6.053730e+01  -3.879954e+01
  -6.655138e-01  -4.353792e+01
  -1.981593e+01  -3.337504e+01
   3.800623e+01   3.323384e+01
   6.609090e+01  -1.621983e+01
   3.960169e+01   3.671256e+01
   9.297808e+00   7.282807e+01
  -1.233741e+02   5.506316e+01
  -1.851986e+02   8.194576e+01
  -1.367931e+02  -8.716162e+01
  -5.974775e+01  -1.592044e+02
   2.169992e+01  -1.366609e+02
   1.002711e+02  -8.165839e+01
   1.211108e+02   7.532027e+00
   2.351756e+01   5.679325e+01
  -4.059181e+01  -1.080455e+01
   3.405205e+01   3.255085e+01
   4.503435e+01   2.978621e+01
   6.337252e+00   7.237926e+01
  -4.891606e+01   9.978842e+01
  -3.072692e+01  -1.771094e+01
  -5.021253e+00  -1.367517e+02
   4.806075e+00  -9.536452e+01
   9.356788e+01  -2.435459e+01
   7.787149e+01   7.123677e+01
   1.476387e+01   7.361284e+01
  -6.481904e+01   2.645371e+01
  -9.271800e+01  -1.679028e+01
  -3.973838e+00  -7.896575e+01
   7.376679e+00  -1.097571e+02
   4.600673e+01  -1.165603e+00
  -5.850167e+01  -3.516674e+01
  -1.834298e+01   5.171055e+01
   9.175477e+00  -6.874238e+00
   7.331644e+01  -4.192488e+01
   9.240920e+01  -2.958354e+01
   9.562161e+01  -6.772085e+00
  -8.306451e+01   8.346583e+01
  -5.930309e+01   7.441084e+01
  -6.840943e+01  -3.123650e+01
   2.299709e+01  -3.056135e+01
   7.189694e+00  -2.531120e+00
   5.379247e+01   1.444618e+01
   9.093983e+01   5.835214e+01
  -1.626491e+01   9.118168e+01
  -2.435093e+01  -5.437847e+01
  -5.957033e+01  -3.620739e+01
  -1.593438e+01  -2.023801e+01
   4.610607e+00   2.269392e+01
  -1.384326e+01   2.043425e+01
   1.629573e+01  -2.673357e+01
  -1.246306e+01  -6.861484e+01
   4.386923e+01   1.915060e+01
   1.487648e+01   2.936459e+01
  -1.520974e+01   4.620085e+01
  -6.380297e+00   3.162384e+01
  -2.075141e+01  -1.069299e+02
   1.987283e+01  -7.869810e+01
   8.226785e+01  -7.156021e+01
   1.033653e+02  -1.249394e+01
   5.086798e+01   5.379562e+01
  -6.155854e+01   3.160567e+01
  -5.013666e+01   2.988956e+01
   1.418671e+01   3.911012e+00
   3.022257e+01   5.025670e+01
   8.109567e+01   5.863621e+00
  -3.968668e+01   6.732073e+00
  -8.639329e+01   1.914663e+01
