
 $NMID
 id='ANONYMOUS ', fmtdat='(2E16.6)'
 volume=1.0
 tramp=1.0
 $END
   4.572824e+03   2.904836e+01
   2.608262e+03   2.808665e+03
  -8.380080e+02   2.830348e+03
  -2.327145e+03   8.237835e+02
  -9.514529e+02  -8.059619e+02
   8.201892e+02  -6.238111e+02
   9.519888e+02   5.120855e+02
  -2.799495e+01   1.172480e+03
  -8.929847e+02   8.555498e+02
  -1.005823e+03  -1.380128e+02
  -4.963565e+02  -9.676291e+02
   2.894461e+02  -9.147991e+02
   6.841928e+02  -8.823068e+01
   3.748226e+02   7.574825e+02
  -3.332578e+02   8.217129e+02
  -6.353113e+02  -4.918022e+01
  -2.155616e+02  -7.284218e+02
   3.472508e+02  -7.179326e+02
   6.314732e+02  -7.521647e+01
   4.066697e+02   3.619078e+02
   2.364130e+01   4.537434e+02
  -2.847680e+02   2.689638e+02
  -2.240101e+02   5.336910e+01
   8.975584e+01  -8.734206e+01
   4.119534e+02   1.513603e+02
   2.104140e+02   4.571221e+02
  -4.845755e+02   4.551511e+02
  -8.956164e+02  -1.079916e+01
  -4.676978e+02  -5.652802e+02
   4.087969e+02  -5.441139e+02
   8.422757e+02   5.780510e+01
   3.533478e+02   5.042137e+02
  -2.660197e+02   5.562932e+02
  -6.030399e+02   1.971576e+02
  -4.619229e+02  -2.563603e+02
  -1.512693e+00  -5.211491e+02
   1.982649e+02  -3.067230e+02
   2.096404e+02   2.187373e+02
  -1.470083e+02   4.864329e+02
  -5.040980e+02   3.074214e+01
  -2.247122e+02  -6.794605e+02
   3.758320e+02  -7.520037e+02
   6.677537e+02  -3.603270e+01
   2.326954e+02   6.190793e+02
  -3.217303e+02   2.448036e+02
  -4.116791e+02  -3.403514e+02
   3.284287e+01  -5.885342e+02
   5.281815e+02  -1.387234e+02
   6.591524e+02   4.477937e+02
   1.367203e+02   5.572985e+02
  -4.351569e+02   3.401333e+02
  -6.264823e+02  -6.098103e+01
  -3.742253e+02  -4.051105e+02
   1.675533e+02  -4.148606e+02
   4.359085e+02  -2.650405e+01
   2.568534e+02   2.437134e+02
  -1.317677e+02   7.795363e+01
  -1.486738e+02  -1.261426e+02
   1.975634e+02  -1.647013e+02
   3.675624e+02   1.632026e+02
   1.683310e+02   3.482473e+02
  -2.485770e+02   2.848156e+02
  -2.987924e+02   4.771614e+01
  -2.280010e+02  -2.081826e+01
   2.310170e+01  -2.628926e+02
   2.180333e+02  -2.715053e+02
   3.574981e+02  -2.354711e+02
   2.304744e+02   1.452482e+02
   7.169687e+01   4.534722e+02
  -1.256425e+02   3.783346e+02
  -1.549631e+02   1.080577e+02
  -3.687404e+01  -3.874609e+01
  -1.374433e+01   6.420887e+01
  -1.650690e+02   1.355827e+02
  -2.747269e+02  -4.627084e+01
  -1.284083e+02  -3.102253e+02
   1.259109e+02  -3.015026e+02
   2.414256e+02   4.498714e+00
   1.692558e+02   2.312576e+02
  -5.334328e+01   2.371009e+02
  -3.034162e+02   7.507291e+01
  -3.707299e+02  -1.324641e+02
  -1.952720e+02  -3.134311e+02
   1.345089e+02  -2.791261e+02
   2.503915e+02  -1.701962e+02
   1.339283e+02   1.051427e+01
   1.148334e+02  -4.496652e+01
   2.407040e+02  -8.156880e+01
   3.515683e+02   7.439066e+01
   3.150702e+02   2.849116e+02
   6.868583e+00   4.344078e+02
  -3.488819e+02   4.236688e+02
  -5.025256e+02   2.493179e+02
  -3.210385e+02  -1.094979e+02
  -8.517623e+01  -2.752522e+02
   1.352437e+02  -2.816872e+02
   7.736095e+01   5.550201e+00
  -1.259496e+02   6.792393e+01
  -2.303810e+02  -4.790711e+01
  -5.605658e+01  -1.741343e+02
   2.059153e+02  -1.354797e+02
   2.011558e+02   4.425430e+00
   4.528873e+01   1.881888e+02
  -1.420491e+02   5.938560e+01
  -1.732431e+02  -2.283189e+02
   8.617825e+01  -3.466811e+02
   1.989631e+02  -1.702238e+02
   3.136407e+02   9.822742e+01
   2.901158e+02   1.942568e+02
   1.023111e+02   2.237664e+02
  -1.463929e+02   1.447455e+02
  -2.113108e+02  -2.485509e+01
  -8.329583e+01  -6.389439e+01
   1.065893e+02   3.182148e+01
   5.107153e+01   1.972902e+02
  -1.151808e+02   1.314750e+02
  -1.851310e+02   4.790255e+01
  -4.948599e+01  -7.142505e+01
   7.603459e+01  -7.157992e+01
   7.938706e+01   5.946641e+01
  -1.459037e+02   1.135183e+02
  -3.191004e+02   5.226759e+00
  -2.607612e+02  -1.243497e+02
  -1.192826e+02  -2.656420e+02
   1.789231e+02  -2.575121e+02
   2.698647e+02  -1.075174e+02
   1.775102e+02   5.592765e+01
  -3.233544e+01   1.280411e+02
  -1.054610e+02   7.073637e+01
  -1.367210e+01  -5.484599e+01
   2.042242e+02  -1.229336e+02
   2.252599e+02   9.362832e+01
   9.453754e+01   2.419747e+02
  -8.853030e+01   1.375935e+02
  -1.864985e+02   5.304716e+01
  -4.721229e+01  -6.668175e+00
   1.500923e+01  -6.200984e+01
   3.468036e+01   7.631262e+01
  -7.428094e+01   1.393485e+02
  -1.344253e+02  -8.135247e+00
  -2.095500e+02  -1.062979e+02
   9.187621e+00  -2.639864e+02
   1.388314e+02  -1.431756e+02
   2.156803e+02  -8.478939e+00
   3.811884e+01   1.476494e+02
  -6.680584e+01   1.359219e+02
  -1.062912e+02   2.584881e+00
  -1.131875e+01  -6.497672e+01
  -3.130380e+01   7.812346e+00
  -1.289074e+01  -4.033107e+01
  -1.003316e+02   2.524262e+01
  -7.494715e+01  -5.391025e+01
  -2.861665e+00  -1.743659e+02
   9.638725e+01  -1.570867e+02
   2.576949e+02  -3.198350e+01
   2.564565e+02   1.855423e+02
   9.283110e+01   2.689483e+02
  -1.529675e+02   1.218969e+02
  -1.230025e+02   2.802784e+01
  -9.817980e+01  -4.181186e+01
  -5.341690e+01  -2.873996e+01
  -4.462153e+01  -1.765253e+01
  -8.985419e+01   6.275247e+01
  -5.837667e+01  -1.035202e+02
   6.133757e+01  -1.256845e+02
   1.461636e+02  -5.240952e+01
   7.436965e+01  -9.262009e+00
  -3.625302e+01   1.472232e+02
  -1.194403e+02   3.545888e+01
  -1.547925e+02  -1.108556e+02
  -1.384033e+02  -1.915242e+02
   9.653822e+01  -2.004550e+02
   2.509323e+02  -1.374463e+02
   2.816053e+02   1.061733e+02
   1.109823e+02   2.140363e+02
   1.504661e+01   1.362694e+02
  -1.231948e+02   1.071970e+02
  -4.602714e+01   7.674761e+01
  -6.296374e+01   2.433020e+01
  -5.721947e+01   1.342112e+02
  -1.302386e+02  -4.705383e+01
  -6.171663e+01  -1.632828e+02
  -4.441539e+01  -2.381228e+02
   8.283944e+01  -1.971569e+02
   1.447095e+02  -2.726694e+01
   1.362410e+02   8.613510e+01
   8.847831e+00   1.580788e+02
  -5.476501e+01   5.507363e+01
  -5.591090e+01  -5.022975e+00
   3.307945e+00  -3.343021e+01
   2.276727e+01  -5.661694e+00
  -4.094437e+01   6.217498e+00
  -4.924833e+01  -2.827127e+01
  -2.826749e+01  -3.284731e+01
   7.046555e+01   6.781689e+00
   1.542477e+02  -1.741933e+01
   1.277157e+02   4.653745e+01
   1.727076e+01   9.102884e+01
  -1.498424e+02   1.137703e+02
  -1.408663e+02   1.755564e+01
  -1.335808e+01  -1.569006e+01
   9.027642e+01   1.166572e+01
   9.454947e+01   1.161945e+01
   4.466653e-01   8.548926e+01
  -5.299456e+01   2.012379e+01
  -8.476444e+01   3.103895e-01
  -4.329562e+01  -5.270279e+01
  -4.528507e+01  -6.553513e+01
  -8.845571e+01  -3.910962e+01
  -1.061921e+02  -5.649728e+00
   1.929278e+01  -7.446943e+01
   1.019917e+01  -1.173370e+02
   8.926149e+01  -1.283099e+02
   1.736772e+02  -4.998816e+01
   1.272407e+02   1.070027e+02
   3.360238e+01   1.063222e+02
  -7.237019e+01   9.492122e+01
  -7.461376e+01  -5.012219e+00
   5.724037e+01   7.449779e+00
   1.343506e+02   3.226363e+01
   1.005653e+02   1.038019e+02
  -1.388433e+02   1.378379e+02
  -1.530292e+02   2.685569e+01
  -1.328907e+02   7.832157e+00
   2.047699e-01  -1.332269e+02
   6.665017e+01  -4.041477e+01
   8.061329e+01   2.946217e+00
  -4.454471e+01   5.804434e+01
  -1.072619e+02  -3.512677e+01
  -6.162386e+01  -1.239719e+02
   1.297389e+02  -1.713076e+02
   1.402192e+02  -8.543033e+01
   1.140746e+02   1.891237e+02
   4.691911e+01   1.762159e+02
  -8.401478e+01   1.045863e+02
  -1.124928e+02  -4.018602e+00
  -1.687944e+01  -1.087739e+02
  -2.385018e+00  -1.297057e+02
   6.400958e+01  -7.508150e+00
   6.437559e+01   1.640638e+01
  -4.844708e+00   2.801462e+01
   3.310753e+01  -2.217573e+01
  -9.385481e+00  -6.679478e+00
   5.187470e+01   9.846383e+01
   3.178321e+01   7.932406e+01
   1.045919e+01   7.965784e+01
  -9.473061e+01  -9.308180e+00
  -1.525593e+02  -9.185706e+01
  -5.428897e+01  -8.660394e+01
   7.985539e+01  -2.000329e+00
   1.162168e+02  -6.352115e+01
  -3.580085e+00  -1.216099e+01
  -2.877618e+01   3.296133e+01
   1.726839e+01  -1.719307e+00
   7.820289e+01  -2.839764e+01
  -4.527778e+01  -4.987122e+00
  -1.351835e+02   2.068199e+01
  -7.595397e+01   1.235512e+01
   5.272348e+00  -6.909907e+01
   1.747060e+02  -1.729266e+02
   2.624316e+02  -3.421193e+01
   1.038441e+02   3.034460e+01
   1.431853e+01   1.810707e+02
  -2.787166e+01   1.348730e+02
  -7.950768e+01   5.063692e+01
  -5.631989e+01  -1.803050e+01
  -3.956485e+01  -6.977108e+01
   1.114947e+01   1.441989e+01
  -2.830847e+01   2.311295e+01
  -2.758194e+01   2.389797e-01
  -8.323636e+01  -9.624036e+01
   2.590097e+01  -4.732443e+00
   5.295638e+01   2.702491e+01
   1.117134e+02   1.480635e+02
   5.010351e+01   9.036134e+01
  -3.677939e+01   1.731631e+01
  -1.499509e+02  -5.393279e+01
   3.308642e+00  -1.048423e+02
   6.929806e+01  -2.319156e+01
   7.965681e+01   1.381349e+01
   4.612397e+00   1.661534e+01
  -7.717793e+01   6.240577e+01
   8.777212e+00   1.963698e+01
   3.515892e+01  -4.868292e+01
   1.100068e+02   7.389384e+00
   5.214939e+01   1.254774e+01
  -6.819789e+01   8.832711e+01
  -1.491979e+02   1.582948e+01
  -7.206762e+01   5.113657e+01
   1.507976e+01  -3.338584e+01
   4.287976e+01  -6.416477e+01
   9.650303e+00   4.703219e+01
   5.489657e+01   8.485177e+01
   1.818138e+01   2.144520e+01
  -7.168783e+01  -6.008213e+01
  -1.480189e+01  -8.549557e+01
   4.229019e+01   4.557857e+01
   8.398848e+00   3.117259e+01
   3.581738e+01   1.258537e+01
   3.173127e+01   4.631556e+00
   1.977704e+01   1.338119e+01
  -1.408216e+01   2.606774e+01
  -2.970862e+01   3.290415e+01
  -1.225432e+01   9.125775e+01
  -5.229363e+01  -4.705198e+01
  -5.150499e+01   1.255820e+01
  -1.944093e+01  -8.507552e+01
   6.072450e+01  -3.060381e+00
   4.041325e+01   5.772765e+01
   3.554868e+01   5.485155e+01
  -1.378630e+01   3.287299e+01
  -4.249899e+01  -3.517782e+01
  -3.746313e+01  -5.082952e+01
   3.833856e+01  -3.714639e+01
   4.315064e+01  -7.799705e+00
   4.032878e+01   2.824528e+01
   3.818504e-01   1.311544e+01
  -4.539565e+01   8.153283e+00
   2.761599e-01  -6.243544e+01
   8.538114e+01  -7.096129e-01
