
 $NMID
 id='ANONYMOUS ', fmtdat='(2E16.6)'
 volume=1.0
 tramp=1.0
 $END
  -4.757510e+03  -3.355761e+00
  -2.696430e+03  -2.870755e+03
   9.169180e+02  -2.941602e+03
   2.325462e+03  -8.294945e+02
   9.173027e+02   7.550403e+02
  -7.790564e+02   6.759783e+02
  -9.764832e+02  -5.111215e+02
  -1.800413e+00  -1.183513e+03
   9.599302e+02  -8.674514e+02
   1.011848e+03   2.036334e+02
   4.431168e+02   9.014595e+02
  -2.792611e+02   9.449660e+02
  -7.332727e+02   7.609911e+01
  -4.353925e+02  -8.070204e+02
   3.368133e+02  -8.046077e+02
   6.264828e+02   7.095214e+01
   2.440192e+02   7.975232e+02
  -3.762707e+02   6.577001e+02
  -6.898428e+02   3.535236e+01
  -3.700797e+02  -4.364786e+02
   2.322384e+01  -4.653902e+02
   2.443411e+02  -3.094002e+02
   2.298531e+02  -1.092854e+01
  -1.628443e+02   7.554589e+01
  -4.739959e+02  -4.253484e+01
  -2.536250e+02  -4.459448e+02
   4.402670e+02  -4.662899e+02
   9.686999e+02   2.676185e+01
   4.668804e+02   6.586163e+02
  -4.628283e+02   5.082122e+02
  -8.191342e+02  -3.533084e+01
  -4.160841e+02  -5.547095e+02
   3.057481e+02  -5.331234e+02
   5.881776e+02  -1.725323e+02
   3.925186e+02   2.502219e+02
   5.873626e+01   5.356959e+02
  -2.173104e+02   3.175320e+02
  -2.401268e+02  -2.799799e+02
   1.635517e+02  -5.183685e+02
   4.586072e+02   4.816795e+00
   3.047904e+02   7.315992e+02
  -3.534588e+02   8.107022e+02
  -7.380597e+02   2.172952e+01
  -3.145278e+02  -6.305942e+02
   3.181139e+02  -4.216523e+02
   4.490399e+02   3.215491e+02
  -5.066403e+01   5.808079e+02
  -5.919098e+02   1.514458e+02
  -6.050268e+02  -4.512915e+02
  -1.600691e+02  -6.970894e+02
   4.744604e+02  -3.578080e+02
   6.973847e+02   5.984786e+01
   3.796081e+02   4.547811e+02
  -1.434118e+02   4.160673e+02
  -5.087484e+02   4.167512e+01
  -2.293693e+02  -2.475807e+02
   1.654644e+02  -1.721693e+02
   1.907684e+02   1.679235e+02
  -1.554999e+02   2.153480e+02
  -3.670175e+02  -9.672368e+01
  -1.640455e+02  -3.812009e+02
   2.461090e+02  -2.769040e+02
   3.116921e+02  -6.694608e+01
   1.575905e+02   9.685590e+01
  -9.129413e+01   2.162613e+02
  -2.342962e+02   3.050878e+02
  -3.307847e+02   2.693559e+02
  -2.753547e+02  -1.309438e+02
  -5.150000e+01  -4.735835e+02
   1.094625e+02  -4.994053e+02
   2.138878e+02  -1.153086e+02
   3.260638e+01   3.963104e+01
   6.420618e+01  -1.213422e+02
   2.303733e+02  -1.433179e+02
   3.234363e+02  -1.877665e+01
   1.266876e+02   2.669434e+02
  -6.472628e+01   3.191604e+02
  -2.521858e+02  -1.088187e+01
  -2.051456e+02  -2.513037e+02
  -2.147504e+00  -3.874444e+02
   3.073857e+02  -1.419717e+02
   2.949480e+02   1.486912e+02
   2.241181e+02   4.589291e+02
  -9.496459e+01   2.699783e+02
  -3.155779e+02   1.865724e+02
  -9.583297e+01  -1.755884e+01
  -1.290108e+02   1.437543e+01
  -2.494067e+02   5.258780e+01
  -3.511445e+02  -7.825992e+01
  -3.315965e+02  -3.003528e+02
   7.463578e+00  -4.333348e+02
   3.773945e+02  -3.794563e+02
   4.513030e+02  -2.408233e+02
   3.724745e+02   7.522250e+01
   7.379312e+01   3.151908e+02
  -1.037572e+02   2.805967e+02
  -1.381475e+02   3.523511e+01
   5.719865e+01  -1.411584e+02
   2.185407e+02  -2.817951e+00
   8.465623e+01   2.036056e+02
  -1.222923e+02   1.778185e+02
  -2.413566e+02  -4.067007e+01
  -6.050336e+01  -2.426944e+02
   2.442462e+02  -4.028506e+01
   1.119601e+02   2.463493e+02
  -2.557594e+01   3.285481e+02
  -2.483946e+02   1.351018e+02
  -3.466958e+02  -1.163215e+02
  -3.039858e+02  -2.444734e+02
  -1.064013e+02  -2.891766e+02
   1.024790e+02  -1.715512e+02
   2.035651e+02  -4.488593e+01
   6.349553e+01   2.941757e+01
  -8.493581e+01  -3.174121e+01
  -5.592357e+01  -1.136593e+02
   1.401464e+02  -1.309445e+02
   2.165850e+02   6.650182e+00
   5.150486e+01   3.646103e+01
  -6.502559e+01   4.588666e+00
  -2.063208e+01  -2.668802e+01
   1.129612e+02  -1.008485e+02
   3.049595e+02  -1.272275e+01
   2.830826e+02   1.092034e+02
   3.730847e+01   2.441894e+02
  -1.854329e+02   2.687200e+02
  -2.948734e+02   1.035346e+02
  -1.292700e+02  -1.058783e+02
   9.930643e+00  -1.730131e+02
   1.316304e+02   1.977005e+01
  -1.015849e+02   8.512021e+01
  -1.770769e+02   4.976905e+01
  -2.399228e+02  -9.997933e+01
  -2.109263e+01  -1.884287e+02
   3.708160e+01  -1.572855e+02
   1.404510e+02  -4.572464e+01
   1.112457e+02   2.201605e+01
  -3.954357e+01   5.054875e+01
  -1.784315e+01  -1.252960e+02
   7.042239e+01  -1.565594e+02
   2.075215e+02  -1.649544e+01
   1.843479e+02   1.392897e+02
   2.097346e+01   2.152744e+02
  -1.908021e+02   1.713117e+02
  -1.717054e+02   5.063934e+01
  -8.098588e+01  -1.040386e+02
  -1.973728e+01  -1.319886e+02
   1.375608e+02  -4.755677e+01
   4.487509e+00  -8.873816e+00
  -3.496127e+00   3.407561e+01
   4.345078e+01   1.641301e+01
   5.905018e+01   1.003075e+01
   1.230539e+02   5.870780e+01
   3.450689e+01   1.400965e+02
  -9.491111e+01   2.271085e+02
  -2.940536e+02   1.215508e+01
  -2.447993e+02  -1.803552e+02
  -3.554545e+01  -2.116193e+02
   9.274649e+01  -1.734540e+02
   1.648465e+02  -5.473360e+01
   1.067783e+02   2.808050e+01
   3.651578e+01   6.639957e+01
   7.556027e+01   3.212625e+01
   1.268201e+02  -2.117292e+01
  -1.883136e+01   1.519015e+01
  -6.327713e+01   6.889061e+01
  -7.924178e+01   7.971924e+01
  -4.935334e+01   2.259975e+01
  -5.152620e+00  -8.975943e+01
   1.505332e+02  -6.027013e+01
   2.104891e+02   5.263671e+00
   7.065825e+01   2.060391e+02
  -1.188196e+02   2.407274e+02
  -2.778997e+02   1.275714e+02
  -3.292128e+02  -1.218327e+02
  -6.381794e+01  -1.770189e+02
   8.087185e+01  -1.603369e+02
   8.979425e+01  -8.916933e+01
   1.449900e+02  -5.974485e+01
   9.093433e+01  -5.784555e+01
   6.782202e+01  -8.522224e+01
   1.246902e+02  -6.130125e+00
   1.762210e+02   1.760127e+02
   8.643395e+01   2.375504e+02
  -1.480250e+02   1.474835e+02
  -2.288332e+02  -1.010902e+01
  -1.466079e+02  -9.554149e+01
  -3.235707e+01  -1.269477e+02
   5.680008e+01  -1.040488e+02
   4.955776e+01  -6.941758e+00
   5.469601e+00   3.797134e+01
  -1.606968e+00   5.376681e+01
   1.296214e+02   1.661165e+01
   8.728803e+01  -8.945190e-01
   2.358557e+01   5.010085e+01
  -9.736737e+01   3.794107e+01
  -1.454817e+02  -1.426105e+01
  -1.540007e+02  -2.164359e+01
   3.562725e+01  -1.145616e+02
   1.215945e+02  -7.742775e+01
   1.754940e+02  -2.170822e+00
   2.005684e+00   9.790531e+01
  -1.851500e+01   1.018076e+02
  -8.165934e+01  -3.388811e+01
   2.671814e+01  -7.504333e+01
   1.277399e+01  -8.901385e+01
   4.410888e+01   2.578730e+01
   2.371468e+01   8.409314e+01
   5.570772e+01   7.634784e+01
   5.271216e+01  -2.318364e+01
   7.671475e+01  -1.773848e+01
   4.625709e+01   4.629993e+01
  -1.532719e+01   1.798916e+02
  -1.101200e+02   1.893814e+02
  -1.429638e+02   6.547617e+01
  -1.356353e+02  -8.308110e+01
  -5.457752e+01  -9.957578e+01
   1.214775e+02   1.718454e+01
   6.347728e+01   4.279092e+01
  -7.858779e+01   8.038867e+00
  -1.334855e+02  -7.106896e+01
  -4.789805e+01  -1.321746e+02
   1.550686e+02  -1.281850e+02
   1.657118e+02   2.780520e+01
   2.280260e+02   6.151720e+01
   7.620661e+01   8.019040e+01
  -4.157798e+01   8.980112e+01
  -7.659957e+01  -1.075979e+01
   7.259195e+01  -4.448658e+01
   1.227351e+02   2.171981e+01
   7.675475e+01   1.365510e+02
  -9.297444e+01   1.925590e+02
  -1.996255e+02   3.785000e+01
  -1.288540e+02  -1.050930e+02
   4.646427e+00  -2.223303e+02
   6.659614e+01  -1.339005e+02
   9.490153e+01  -4.468514e+00
   1.117858e+02   1.001128e+02
   9.294035e+00   1.553689e+02
  -2.954167e+01   3.653466e+01
  -1.132318e+02  -4.324898e+01
  -5.825854e+01  -3.797206e+01
   4.638649e+01   8.783333e+00
  -2.493554e+00  -1.506989e+01
  -7.216773e+01  -9.660695e+01
  -7.022823e+01  -7.019904e+01
   2.593502e+01  -6.359650e+01
   1.512924e+02  -2.192258e+00
   1.458802e+02   1.017282e+02
  -3.520795e+01   6.309404e+01
  -6.870581e+01  -5.196482e+00
  -1.296701e+02  -2.867015e-01
  -1.836959e+01  -3.547231e+01
   2.218763e+01  -1.608829e+01
  -9.521362e-01   4.512500e+00
  -9.907945e+00   2.203361e+01
   9.129584e+00  -2.675001e+01
   1.343184e+02   3.712866e+01
   9.730177e+01   3.274851e+01
  -4.540267e+01   7.833345e+01
  -1.421204e+02   1.084970e+02
  -2.185468e+02  -2.395067e+01
  -1.322626e+02  -5.077643e+01
  -4.170371e+01  -1.996469e+02
   3.729806e+01  -1.662468e+02
   1.612499e+02  -3.111808e+01
   1.237395e+02   5.102353e+01
  -2.863295e+00   9.108778e+01
   6.988394e-03   1.962786e+01
  -1.336874e+01  -1.788468e+01
   2.219910e+01   6.286620e+01
   1.309120e+01   6.908114e+01
  -2.164033e+01   9.576682e+01
  -9.284058e+01  -2.462533e+01
  -5.967070e+01  -1.626249e+02
   2.352598e+00  -7.288324e+01
   7.162893e+01  -5.724887e+01
   1.196124e+02   1.089675e+02
   2.664364e+01   1.677409e+02
  -4.906129e+01   6.213992e+00
  -1.145190e+02   1.046095e+00
  -4.734009e+01  -7.873835e+01
   8.266461e+01  -5.345146e+01
   6.872724e+01  -7.189885e+01
  -3.192795e+01  -1.239328e+01
  -7.905926e+01   4.291956e+01
  -8.144300e+00   1.687015e+01
   5.771147e+01  -3.691263e+01
   1.424165e+02  -5.105446e+01
   6.230712e+01   6.461352e+01
   4.497568e+00   9.164647e+01
  -8.780610e+01   6.181277e+01
  -4.105684e+01   7.289088e+00
  -1.973282e+01  -7.400181e+01
   4.668187e+01  -3.124565e+01
   1.099329e+01   2.135045e+01
   6.508602e+01   8.276289e+01
  -5.367998e+01   4.801671e+01
  -4.186962e+01   2.646881e+01
  -5.465974e+01  -4.631303e+01
  -3.353334e+01   2.258360e+01
   3.513249e+00  -4.339564e+00
  -5.771067e+01   6.757584e+00
   1.768210e+01  -4.855880e+01
   3.429440e+01  -5.480079e+01
   3.872048e+01   2.366877e+01
  -3.038041e+01   4.392175e+01
   3.296338e+01   4.812354e+01
  -2.507753e+01   4.890399e+01
  -7.347251e+01  -4.558136e+01
   6.139497e+00  -6.120513e+01
   2.377820e+01  -2.492730e+01
   6.932635e+01   5.283397e+01
   4.780498e+01   7.555231e+01
  -4.858135e+01   9.852473e+01
  -7.325799e+01   2.978345e+01
   7.737161e-01   1.587760e+01
   4.449381e+01   3.942491e+00
   4.436571e+01   4.922763e+01
  -1.650366e+01   4.106706e+01
  -1.071223e+02   5.652663e+00
