
 $NMID
 id='ANONYMOUS ', fmtdat='(2E16.6)'
 volume=1.0
 tramp=1.0
 $END
  -4.688763e+03  -5.815944e+01
  -2.616602e+03  -2.856433e+03
   8.667954e+02  -2.879556e+03
   2.302359e+03  -8.785173e+02
   9.511938e+02   8.301887e+02
  -7.650796e+02   6.282030e+02
  -9.535216e+02  -5.307225e+02
   6.582960e+01  -1.220371e+03
   9.018570e+02  -8.091698e+02
   1.011909e+03   1.545119e+02
   4.519676e+02   9.197570e+02
  -2.908365e+02   9.566341e+02
  -7.019858e+02   7.280633e+01
  -4.122650e+02  -8.015748e+02
   2.723221e+02  -7.556695e+02
   6.127022e+02   4.930384e+01
   2.594807e+02   7.183797e+02
  -3.461013e+02   6.702333e+02
  -5.992153e+02   1.445075e+01
  -4.104438e+02  -4.032988e+02
   5.104219e+01  -5.017220e+02
   2.504724e+02  -2.759810e+02
   2.463942e+02  -1.149904e+01
  -9.954202e+01   1.054128e+02
  -3.663825e+02  -8.226296e+01
  -2.286837e+02  -4.276055e+02
   4.384806e+02  -4.724995e+02
   8.708104e+02   8.839907e+01
   4.586844e+02   6.042878e+02
  -4.108449e+02   5.754613e+02
  -7.930283e+02  -7.244505e+01
  -3.681974e+02  -5.191771e+02
   3.007094e+02  -5.190472e+02
   6.268239e+02  -2.157185e+02
   4.077481e+02   2.309739e+02
   1.843930e+01   4.710755e+02
  -1.922573e+02   2.961764e+02
  -2.257082e+02  -2.745835e+02
   2.065825e+02  -4.677124e+02
   5.246316e+02  -1.604402e+01
   3.015454e+02   6.942639e+02
  -3.730039e+02   7.748002e+02
  -6.375847e+02   2.792747e+01
  -2.426428e+02  -5.847235e+02
   3.435439e+02  -3.481817e+02
   4.307772e+02   3.726739e+02
  -6.562664e+01   6.035952e+02
  -5.407826e+02   1.419067e+02
  -6.455672e+02  -4.488893e+02
  -1.345649e+02  -6.259292e+02
   3.924398e+02  -3.516831e+02
   6.518021e+02   9.720443e+01
   4.633284e+02   4.102432e+02
  -1.760056e+02   3.692875e+02
  -5.138416e+02   1.100353e+02
  -2.361042e+02  -1.922680e+02
   1.263110e+02  -9.820855e+01
   1.916509e+02   8.570392e+01
  -1.457099e+02   2.298121e+02
  -3.971990e+02  -6.000345e+01
  -1.232072e+02  -3.034071e+02
   1.728137e+02  -2.602240e+02
   3.462416e+02  -6.659864e+01
   1.918718e+02   9.483927e+01
  -3.059543e+01   2.022136e+02
  -1.595513e+02   3.052021e+02
  -3.733189e+02   2.649495e+02
  -3.186309e+02  -1.130839e+02
  -9.960296e+01  -3.907099e+02
   1.688680e+02  -4.084745e+02
   2.122538e+02  -1.413631e+02
  -2.759752e+01   6.138479e+01
   1.862565e+00  -6.047427e+01
   1.481214e+02  -1.498250e+02
   2.860131e+02   4.614383e+01
   1.767537e+02   2.546095e+02
  -8.200200e+01   2.703003e+02
  -2.119377e+02   3.354580e+01
  -1.555873e+02  -2.380531e+02
   3.886152e+01  -3.045150e+02
   2.847668e+02  -1.440854e+02
   4.296558e+02   1.854155e+02
   2.423547e+02   3.894658e+02
  -7.244062e+01   3.242337e+02
  -2.601535e+02   1.062935e+02
  -1.399214e+02   3.709565e+01
  -1.116824e+02   3.382354e+01
  -2.613913e+02   8.491606e+01
  -4.146439e+02  -6.402698e+01
  -3.241985e+02  -3.148413e+02
   8.962451e+00  -4.533278e+02
   3.889823e+02  -4.223540e+02
   4.981969e+02  -2.339826e+02
   3.344380e+02   9.336019e+01
   4.168153e+01   3.140480e+02
  -1.635598e+02   2.697220e+02
  -1.714885e+02   2.915140e+01
   8.245721e+01  -1.234443e+02
   2.132672e+02  -2.594953e+01
   7.333807e+01   1.349149e+02
  -1.380541e+02   2.380201e+02
  -2.046443e+02  -1.050799e+02
  -5.965262e+00  -2.141241e+02
   2.473878e+02  -5.687743e+01
   1.697513e+02   2.540813e+02
  -6.347836e+01   3.840231e+02
  -2.581862e+02   1.865644e+02
  -3.078199e+02   1.401864e+01
  -2.391548e+02  -2.332480e+02
  -8.194124e+01  -3.098592e+02
   1.343661e+02  -1.917562e+02
   2.035165e+02  -2.592168e+01
   7.613031e+01   8.011363e+01
  -7.604592e+01  -1.001670e+01
  -8.798330e+01  -1.533348e+02
   8.344960e+01  -6.547472e+01
   1.914556e+02   1.306540e+00
   1.121589e+02   2.593424e+01
  -7.968605e+01   6.540459e+01
  -8.393926e+01  -4.290414e+01
   7.698294e+01  -1.214479e+02
   2.775155e+02   1.958622e+01
   2.863469e+02   1.451133e+02
  -2.309773e+01   2.842352e+02
  -1.935875e+02   2.974702e+02
  -2.431565e+02   1.098339e+02
  -1.561767e+02  -4.861907e+01
   3.232366e+01  -1.613402e+02
   1.535894e+02  -1.585422e+00
   3.904824e+01   1.192887e+02
  -2.116239e+02   6.957356e+01
  -2.100272e+02  -8.144167e+01
  -5.661986e+01  -2.525375e+02
   9.719953e+01  -1.480759e+02
   1.951911e+02  -1.210979e+01
   1.044076e+02   3.461784e+01
  -3.045742e+00   3.071448e+01
  -3.522005e+00  -1.284423e+02
   8.200768e+01  -1.127715e+02
   1.692700e+02  -4.104410e+01
   1.030439e+02   1.002022e+02
   2.054008e+01   2.283593e+02
  -1.742003e+02   1.554107e+02
  -2.114319e+02  -3.303262e+01
  -7.183903e+01  -1.335752e+02
   6.778334e+01  -1.322854e+02
   1.075425e+02  -5.866580e+01
   5.638369e+01   3.068324e+01
  -2.392928e+01   4.227932e+01
  -2.756114e+01  -1.772283e+01
   8.379425e+01  -3.481310e+01
   6.191912e+01   4.990884e+01
  -2.807656e+01   1.508447e+02
  -1.199697e+02   1.925355e+02
  -1.930213e+02  -1.925862e+00
  -2.033996e+02  -1.323790e+02
  -9.646433e+01  -2.383879e+02
   6.006948e+01  -1.792915e+02
   1.688620e+02  -5.176991e+01
   7.145382e+01   4.683392e+01
   5.566703e+01  -2.731945e+01
   7.198914e+01  -1.452273e+01
   7.294865e+01  -3.953511e+01
   2.320804e+01   3.950600e+01
  -2.266116e+01   6.178776e+01
  -1.275231e+02   2.098352e+01
  -7.251612e+01  -5.870915e+01
  -2.970817e+01  -8.530634e+01
   1.352261e+02  -1.202388e+02
   2.274493e+02   5.603238e+01
   9.055250e+01   2.038981e+02
  -1.445742e+02   2.134920e+02
  -2.968235e+02   1.233778e+02
  -2.360382e+02  -9.838701e+01
  -1.722272e+02  -1.793364e+02
  -2.001028e+01  -1.913375e+02
   8.115777e+01  -1.086695e+02
   7.974390e+01  -9.752958e+01
   7.285139e+01  -6.990894e+01
   9.890420e+01  -1.071159e+02
   7.416966e+01   2.413981e+01
   1.454339e+02   1.501578e+02
   3.761698e+01   2.308249e+02
  -7.932526e+01   2.115485e+02
  -1.054556e+02   5.389078e+01
  -1.503078e+02  -8.900560e+01
  -4.412153e+00  -1.454570e+02
   7.494348e+01  -1.283461e+02
   4.492002e+01   1.037906e+01
   3.162301e+01   1.354695e+01
   3.493169e+01   6.041782e+01
   5.073325e+01   7.586357e+00
   9.870294e+01   4.962941e+01
   5.438554e+01   3.751975e+01
  -3.168848e+00   4.084956e+01
  -1.057095e+02   3.537754e+00
  -2.220390e+02  -6.099501e+01
  -4.435759e+01  -8.814798e+01
   1.144372e+02  -6.909491e+01
   2.010409e+02  -5.553697e+00
   5.202349e+01   6.826425e+01
  -5.466442e+01   1.502743e+01
  -9.681698e+01  -6.902654e+01
   1.277919e+01  -6.024007e+01
   4.656382e+01  -4.088048e+01
   5.588071e+01  -9.009428e-01
   4.997267e+01   1.025587e+02
   6.760556e+01   3.623506e+00
   3.075163e+01  -3.232065e+01
   9.939503e+00   3.670474e+01
   4.531125e+01   8.109227e+01
  -3.722818e+01   1.952059e+02
  -1.537540e+02   1.501728e+02
  -1.320250e+02   2.546385e+01
  -1.010809e+02  -9.561851e+01
  -3.853520e+01  -7.304609e+01
   1.047148e+02  -7.692461e+01
   9.121412e+01   8.504193e+00
  -1.075552e+02  -7.968989e+00
  -1.481585e+02  -3.319790e+01
  -7.624393e+01  -1.142659e+02
   7.248271e+01  -1.050729e+02
   1.974103e+02  -1.132597e+01
   2.110261e+02   4.258649e+00
   4.215150e+01   7.556079e+01
  -5.672461e+01   4.900776e+01
  -5.511375e+01   1.378662e+00
   1.004402e+02  -9.090593e+00
   6.320217e+01  -3.915576e+00
   3.934476e+01   1.111853e+02
  -9.119997e+01   1.730108e+02
  -1.109644e+02   6.999155e+01
  -1.631662e+02  -1.039533e+02
  -2.122572e+01  -2.519763e+02
   1.068168e+02  -1.701376e+02
   1.198778e+02   7.184563e+01
   3.320572e+01   1.290494e+02
  -1.610022e+01   1.224267e+02
  -5.644821e+01   7.500430e+01
  -7.636640e+01  -5.966661e+00
  -6.213739e+01  -3.647782e+01
  -4.975201e+01   5.574746e+00
   3.579605e+01   1.050063e+01
  -3.428248e+01  -7.946008e+01
  -8.509959e+01  -1.215995e+02
   1.654674e+01  -6.552023e+01
   1.644489e+02   8.507136e+01
   1.558980e+02   5.529929e+01
   1.632977e+01   5.409521e+01
  -1.197590e+02  -1.065642e+01
  -7.956103e+01   5.428443e+01
  -1.679627e+01  -4.864210e+01
   1.025615e+01   8.101511e+00
  -5.658227e+01   1.507417e+01
   1.860945e+01  -7.314322e+00
   3.190695e+01  -2.191836e+01
   1.013959e+02   1.030944e+01
   6.332167e+01   2.892376e+01
   1.059090e+01   9.735624e+01
  -1.341989e+02   1.444643e+02
  -1.893127e+02   7.239027e+01
  -1.516347e+02  -3.773191e+01
  -4.047476e+01  -1.785926e+02
   6.093892e+01  -1.174364e+02
   1.138026e+02  -6.211583e+01
   1.277316e+02   4.380861e+01
  -5.726419e+01   9.322059e+01
   8.599424e+00   7.033227e+01
   3.091852e+01  -1.983459e-02
  -1.248983e+01   4.251397e+01
   3.071008e+01   9.773090e+01
  -7.718344e+01   5.616505e+01
  -9.691046e+00  -1.146105e+01
  -1.107414e+02  -1.017190e+02
   2.064509e+01  -6.830830e+01
   1.597023e+02  -2.929873e+01
   4.752232e+01   1.239888e+02
   9.852740e+00   7.192444e+01
  -1.043196e+02   3.454749e+01
  -9.877702e+01  -5.824129e+01
  -1.814612e+01  -2.777913e+01
  -3.523934e+00  -7.605731e+01
   6.664621e+01  -1.402871e+01
  -5.858612e+01  -3.338352e+01
  -7.627658e+01   4.295700e+01
  -4.105106e+01  -4.238315e+01
   7.526001e+01  -6.508339e+01
   1.589383e+02  -7.556566e+01
   6.356159e+01   2.390138e+01
  -7.026179e+01   5.026723e+01
  -1.340942e+02   5.797473e+01
  -7.526366e+01   1.716582e+01
   2.313680e+00  -7.439989e+01
   1.505663e+00  -2.391892e+01
   3.657132e+01   5.436106e+00
   3.451984e+01   6.136840e+01
   4.439619e+01   4.312837e+01
  -4.976640e+01   1.513864e+01
  -1.040841e+02  -3.851524e+01
   3.709468e+01   1.984568e+01
  -2.983138e+01  -1.808496e-01
   3.634903e+00  -5.852884e-01
   5.675154e+01  -2.889973e+01
   2.603395e+01  -7.665583e+01
  -2.206538e+01   4.210904e+00
  -8.828153e+00   1.054727e+02
   8.691195e+00   4.732787e+01
  -3.794806e+00   3.200108e+01
  -9.616066e+01  -2.439006e+01
  -1.212202e+01  -1.981951e+01
   3.001955e+01  -6.692203e+01
   1.279799e+02   3.631100e+01
   4.671057e+01   1.107512e+01
   1.434927e+01   7.804450e+01
  -1.349665e+01   2.617759e+01
   3.001282e+01   4.122173e+01
   7.090837e+01  -2.551965e+01
   4.932807e+01   1.852934e+00
  -6.346680e+01   8.490990e+01
  -9.272420e+01   1.709837e+01
