
 $NMID
 id='ANONYMOUS ', fmtdat='(2E16.6)'
 volume=1.0
 tramp=1.0
 $END
   4.719745e+03  -9.511438e+01
   2.751589e+03   2.845714e+03
  -8.987453e+02   3.002697e+03
  -2.335676e+03   8.371001e+02
  -9.481074e+02  -9.016786e+02
   8.710472e+02  -6.417632e+02
   1.053092e+03   4.614182e+02
  -1.994429e+01   1.225532e+03
  -9.225545e+02   9.205714e+02
  -1.045836e+03  -1.494443e+02
  -4.931202e+02  -9.920499e+02
   2.580488e+02  -9.798742e+02
   7.439746e+02  -1.018644e+02
   4.819827e+02   8.408101e+02
  -3.019500e+02   8.883910e+02
  -6.669883e+02  -2.198960e+01
  -2.947486e+02  -7.443432e+02
   3.652915e+02  -6.525375e+02
   6.237351e+02  -6.141489e+01
   3.513132e+02   4.133593e+02
   5.890667e+00   4.901641e+02
  -2.740180e+02   2.736961e+02
  -2.792554e+02   5.628136e+01
   9.512734e+01  -1.336549e+02
   4.560813e+02   3.114640e+01
   2.893197e+02   4.718226e+02
  -4.597006e+02   4.244951e+02
  -9.430043e+02  -4.737575e+01
  -5.258485e+02  -6.024572e+02
   4.136979e+02  -5.893838e+02
   8.371585e+02  -1.343674e+01
   3.560181e+02   5.150816e+02
  -2.318132e+02   5.899557e+02
  -5.974290e+02   1.916722e+02
  -4.564437e+02  -2.802249e+02
  -1.201254e+02  -4.707898e+02
   2.640283e+02  -3.217326e+02
   2.162753e+02   2.694110e+02
  -1.305224e+02   4.973032e+02
  -5.281916e+02  -1.011203e+01
  -2.791865e+02  -7.824931e+02
   3.732114e+02  -7.957454e+02
   6.875593e+02   7.440507e+00
   2.725033e+02   5.971068e+02
  -3.449269e+02   4.278271e+02
  -4.787592e+02  -3.309249e+02
   5.950305e+01  -6.330837e+02
   6.025099e+02  -1.855936e+02
   6.454480e+02   4.174408e+02
   1.916083e+02   6.332358e+02
  -4.139316e+02   4.097084e+02
  -6.634599e+02  -8.875274e+01
  -4.118733e+02  -4.161265e+02
   1.697520e+02  -4.272731e+02
   4.927092e+02  -6.591878e+01
   2.591817e+02   2.612365e+02
  -1.970828e+02   1.104629e+02
  -1.358524e+02  -1.852667e+02
   2.247510e+02  -2.119639e+02
   3.671818e+02   6.695404e+01
   2.152550e+02   3.294579e+02
  -2.212403e+02   2.535706e+02
  -3.317154e+02   8.244098e+01
  -1.747210e+02  -4.509092e+01
   5.920293e+01  -2.007212e+02
   2.183132e+02  -3.112798e+02
   3.662264e+02  -1.773609e+02
   3.313194e+02   1.210711e+02
   7.017532e+01   4.823593e+02
  -1.646113e+02   3.957701e+02
  -1.323832e+02   8.579605e+01
  -6.817856e+01  -4.539478e+01
  -5.388004e+01   8.398094e+01
  -2.282039e+02   1.629644e+02
  -2.549104e+02  -6.922374e+01
  -2.482448e+02  -3.238285e+02
   7.177757e+01  -2.495648e+02
   2.740630e+02   1.647910e+01
   2.106252e+02   2.625702e+02
   5.683744e+01   2.648195e+02
  -3.385531e+02   1.110128e+02
  -4.145908e+02  -1.079100e+02
  -2.033126e+02  -3.892966e+02
   1.531630e+02  -3.034055e+02
   2.478120e+02  -1.298365e+02
   1.492049e+02   3.839444e+01
   1.140126e+02   2.518655e+00
   2.649698e+02  -6.404552e+01
   3.887005e+02   3.187400e+01
   3.575526e+02   2.155368e+02
   2.448637e+01   4.164931e+02
  -3.122084e+02   3.835137e+02
  -4.811671e+02   1.995863e+02
  -3.411357e+02  -5.105588e+01
  -6.784892e+01  -3.093748e+02
   1.293952e+02  -3.064931e+02
   1.068320e+02  -2.443046e+01
  -8.346427e+01   1.612176e+02
  -1.962839e+02   4.596773e+01
  -8.649392e+01  -2.245504e+02
   1.601086e+02  -2.013142e+02
   2.100071e+02   6.662634e+01
  -3.831109e+01   2.303683e+02
  -1.751112e+02   2.777118e+01
  -1.374876e+02  -2.559156e+02
   3.625870e+00  -3.261262e+02
   2.788824e+02  -1.764404e+02
   2.854200e+02   1.138874e+02
   2.689639e+02   1.950188e+02
   1.215404e+02   2.480997e+02
  -1.086861e+02   1.644198e+02
  -1.725264e+02  -1.175857e+01
  -6.056351e+01  -2.047060e+01
   1.159743e+02   2.196475e+01
   3.740079e+01   8.784223e+01
  -1.529103e+02   1.182846e+02
  -1.675960e+02   4.116366e+00
  -5.878951e+01  -3.675576e+01
   5.846870e+01  -1.942856e+01
   8.855651e+01   8.523993e+01
  -7.897690e+01   5.263603e+01
  -3.049296e+02   5.976778e+01
  -2.665070e+02  -1.264100e+02
  -6.153922e+01  -2.350899e+02
   1.935008e+02  -2.074806e+02
   2.791558e+02  -1.145451e+02
   1.987181e+02   5.124683e+01
  -5.111927e+01   1.634693e+02
  -2.757289e+01   1.595049e+01
   8.806277e+00  -1.061323e+02
   1.919305e+02  -1.229206e+02
   2.731671e+02   9.312725e+01
   6.198982e+01   2.038328e+02
  -4.256436e+01   1.643496e+02
  -1.608340e+02   1.734851e+01
  -7.268714e+01  -5.453888e+01
   7.181487e+01  -3.283197e+01
   4.503928e+01   8.040710e+01
  -5.897458e+01   9.774487e+01
  -2.190257e+02  -4.750450e+00
  -1.513987e+02  -1.328090e+02
  -9.638097e+01  -2.243713e+02
   1.703112e+02  -1.242133e+02
   1.673627e+02   1.880751e+00
   7.982688e+01   1.699592e+02
  -9.096342e+01   1.392040e+02
  -5.656572e+01   9.196816e+01
  -3.875725e+01  -2.276298e+01
   5.518816e-01   8.778863e+00
  -4.865888e+01  -3.952686e+01
  -5.109050e+01  -2.523486e+01
  -1.064893e+02  -6.309851e+01
  -7.143146e+00  -1.548764e+02
   1.396873e+02  -1.890588e+02
   2.736810e+02  -2.500685e+01
   2.032575e+02   1.164666e+02
   6.494784e+00   2.601968e+02
  -9.662073e+01   1.048420e+02
  -1.321869e+02   1.357455e+01
  -2.789537e+01  -1.138214e+02
  -9.454386e+00  -4.005527e+01
  -5.950098e+01  -2.040105e+01
  -9.714112e+01  -5.769126e+01
   2.421162e+00  -5.737076e+01
   9.188394e+00  -1.019626e+02
   1.241638e+02  -4.163473e+01
   9.468818e+01   7.746894e+01
  -4.641325e+01   1.596164e+02
  -2.148543e+02   6.026771e+01
  -1.222603e+02  -5.673108e+01
  -1.362765e+02  -1.782998e+02
   6.656310e+01  -2.474179e+02
   2.907602e+02  -6.312671e+01
   3.275088e+02   1.321662e+02
   1.022383e+02   1.582279e+02
  -3.315151e+00   1.696005e+02
  -8.121486e+01   1.243353e+02
  -4.073420e+01   5.759817e+01
  -4.983907e+01   8.843607e+01
  -1.271075e+02   8.037675e+01
  -9.874730e+01  -6.208745e+01
  -1.339482e+02  -1.514970e+02
  -8.638092e+01  -2.465652e+02
   1.033756e+02  -1.346170e+02
   1.536837e+02  -5.871484e+01
   2.030027e+02   1.284187e+02
   1.578340e+01   9.855694e+01
  -3.528989e+01   6.922333e+01
  -5.962622e+01  -4.926428e+00
  -3.341269e+01  -5.718007e+01
   5.122843e+00  -1.777869e+01
  -4.722321e+01  -5.269130e+01
  -5.810540e+01  -1.849994e+01
  -8.499324e+01  -8.503517e+01
   9.054369e+01  -3.852004e+01
   1.258211e+02  -1.013031e+01
   1.889565e+02   1.061044e+02
   2.608589e+00   9.794457e+01
  -1.401071e+02   2.074798e+01
  -1.889570e+02  -3.728260e+00
  -4.829997e+01  -2.695502e+01
   6.577246e+01  -3.391498e+00
   8.401920e+01   3.778589e+01
   7.739501e+01   9.693063e+01
  -6.884374e+01   5.621965e+01
  -3.385257e+01   1.332072e+00
  -4.713637e+01  -1.076236e+02
  -3.695304e+01  -6.853098e+01
  -5.004895e+01   3.999085e+01
  -6.528532e+01  -3.930793e+01
  -2.556049e+01  -9.186585e+01
   4.743596e+01  -1.284459e+02
   8.020773e+01  -1.298846e+02
   1.509163e+02  -3.528593e+01
   1.173045e+02   8.714569e+01
   3.866217e+00   1.122548e+02
  -8.010835e+01   4.431282e+01
  -6.953025e+01  -1.616290e+01
   5.473698e+01  -1.790365e+01
   1.290135e+02   6.004908e+00
   8.599888e+01   1.373220e+02
  -6.957176e+01   1.349649e+02
  -1.681930e+02   6.131587e+01
  -1.876494e+02  -6.367528e+01
  -5.985395e+01  -1.225869e+02
   9.779450e+01  -5.271389e+01
   5.666229e+01  -7.497085e+01
  -5.994857e+01   3.356093e+01
  -7.587300e+01  -4.054581e+01
  -6.277016e+01  -1.711836e+02
   1.112342e+02  -1.312905e+02
   1.803025e+02  -3.626164e+01
   1.555457e+02   1.374640e+02
   2.636264e+00   2.523858e+02
  -1.235634e+02   1.331286e+02
  -1.030332e+02  -6.720908e+00
  -1.209203e+02  -9.851702e+01
  -8.315036e+01  -9.163909e+01
   5.640255e+01  -3.771918e+01
   7.664237e+01  -1.414578e+01
   8.031482e+01   1.368363e+01
  -2.991020e+01  -6.050238e+01
   3.024649e+01   5.574022e+00
   5.687620e+01   6.420513e+01
   6.874141e+01   1.026779e+02
   1.150737e+01   3.474269e+01
  -1.671386e+02  -5.739997e+01
  -1.144003e+02  -3.098157e+01
   3.371467e+01  -1.113428e+01
   1.508428e+02  -9.225028e+00
   9.695342e+01  -2.705050e+01
   1.139530e+01  -4.016853e+00
  -3.676518e+01   5.664326e+01
  -2.088850e+01  -1.470083e+01
   1.315817e+01  -2.901128e+00
   2.217206e+01  -1.946160e+01
  -1.241563e+02   8.358433e+00
  -1.003792e+02  -1.354215e+01
   7.213335e+01  -1.028794e+02
   1.361531e+02  -1.072074e+02
   1.940609e+02  -3.190566e+01
   1.712637e+02   2.425719e+01
   5.007841e+01   2.220855e+02
  -3.634778e+01   1.454711e+02
  -1.251492e+02   4.229744e+01
  -1.281195e+02  -1.044460e+01
  -2.135552e+01  -5.591245e+01
  -1.640458e+01  -1.345908e+01
  -2.770751e+01  -1.052976e+01
   6.296320e+00  -3.319349e+01
  -1.601944e+01  -6.492183e+01
   4.832418e+01  -6.668566e+01
   6.255763e+01   2.676395e+01
   5.395477e+01   1.262573e+02
  -2.253630e+01   1.369712e+02
  -3.457778e+01  -1.783151e+01
  -7.293242e+01  -6.506469e+01
  -2.838145e+01  -1.034387e+02
   9.344557e+01  -4.477023e+01
   9.638245e+01  -1.833524e+01
   2.578383e+01   3.060803e+01
  -6.085444e+01   5.758380e+01
  -1.013143e+02   4.907993e+01
   5.984664e+01  -2.289028e+01
   8.744477e+01  -2.182728e+01
   3.934603e+01   2.319396e+01
  -8.811170e+01   6.679245e+01
  -7.725439e+01   1.951186e+01
  -4.123766e+01  -4.382462e+00
   1.983126e+01  -5.378922e+01
   7.076110e+01  -7.957257e+00
   5.340239e+01  -2.621108e+01
   1.617458e+01   4.965458e+01
  -3.372013e+01   6.119609e+01
  -1.207741e+00   8.503951e+00
  -5.612655e+00  -2.047382e+01
   2.183606e+01  -1.443312e+01
   1.757382e+01   2.195096e+01
   2.472421e+01   1.513985e+01
   4.369629e+01  -2.702201e+00
   1.643427e+01  -5.103395e+01
   2.476716e+01   2.910290e+00
  -5.452504e+01  -2.889263e-01
  -3.859438e+01   1.066259e+01
  -1.717504e+01   1.655259e+01
   2.280397e+01  -3.212155e+01
  -2.601958e+01  -7.268328e+01
   2.802882e+01  -1.821496e+01
   8.901940e+01   1.002570e+02
   2.435333e+01   2.848470e+01
  -5.654233e+01   7.745535e+01
  -4.500078e+01  -1.018658e+01
  -9.720567e+01  -2.874579e+01
  -3.091332e+00  -4.252982e+01
   8.905432e+01  -2.074794e+01
   4.296150e+01  -3.113948e+01
  -5.598363e+01   3.930820e+01
  -8.982761e+00  -3.456374e+00
  -1.633351e+01  -7.862242e+01
   1.130313e+02  -7.251291e+01
