
 $NMID
 id='ANONYMOUS ', fmtdat='(2E16.6)'
 volume=1.0
 tramp=1.0
 $END
  -4.607988e+03   1.833111e+01
  -2.660229e+03  -2.849832e+03
   8.601716e+02  -2.927877e+03
   2.267489e+03  -7.849982e+02
   9.282077e+02   8.328207e+02
  -7.370073e+02   6.105939e+02
  -1.001718e+03  -5.408024e+02
   1.037249e+01  -1.177066e+03
   9.250267e+02  -8.298606e+02
   1.013924e+03   1.310016e+02
   4.238954e+02   9.192092e+02
  -2.938085e+02   9.334208e+02
  -7.024180e+02   1.402260e+02
  -4.461925e+02  -7.855750e+02
   2.351501e+02  -7.547350e+02
   6.659391e+02   1.179054e+01
   2.589334e+02   7.236385e+02
  -4.074130e+02   6.429809e+02
  -5.815635e+02   4.126477e+01
  -3.873932e+02  -3.897414e+02
  -3.901796e+00  -4.735875e+02
   2.851419e+02  -2.353714e+02
   2.449839e+02  -4.590461e+01
  -1.358104e+02   1.268335e+02
  -4.613856e+02  -9.551283e+01
  -2.285067e+02  -4.383164e+02
   4.831869e+02  -4.571982e+02
   9.318648e+02   9.041496e+01
   4.369617e+02   5.607803e+02
  -3.819449e+02   5.947645e+02
  -8.410658e+02   7.686314e+00
  -3.575326e+02  -5.866112e+02
   2.892159e+02  -5.345013e+02
   6.118643e+02  -2.643693e+02
   4.595997e+02   3.044862e+02
   4.587716e+01   5.169283e+02
  -2.907666e+02   2.587157e+02
  -2.681012e+02  -2.530390e+02
   1.323170e+02  -5.400121e+02
   5.017715e+02   5.424447e+01
   2.653379e+02   7.221311e+02
  -2.855644e+02   7.469628e+02
  -6.648012e+02  -3.173014e+01
  -3.135554e+02  -5.689101e+02
   2.823723e+02  -3.180867e+02
   3.895909e+02   3.243612e+02
  -7.218689e+01   6.222654e+02
  -5.746922e+02   1.720764e+02
  -6.001532e+02  -4.485451e+02
  -1.738236e+02  -6.197349e+02
   4.146662e+02  -4.049795e+02
   6.475384e+02   6.147158e+01
   4.215438e+02   4.814325e+02
  -1.863930e+02   3.482275e+02
  -5.387611e+02   7.155591e+01
  -2.697483e+02  -2.510317e+02
   1.580491e+02  -1.461265e+02
   1.702551e+02   1.518857e+02
  -2.015813e+02   1.806047e+02
  -4.288168e+02  -8.254168e+01
  -1.334371e+02  -3.707003e+02
   1.784334e+02  -2.926721e+02
   3.440308e+02  -7.000002e+01
   1.411133e+02   1.017400e+02
  -3.279591e+01   2.749214e+02
  -1.956239e+02   3.394666e+02
  -2.872463e+02   2.448571e+02
  -2.531759e+02  -1.375160e+02
  -7.417000e+01  -4.193103e+02
   1.307267e+02  -3.865674e+02
   1.568272e+02  -1.407771e+02
   2.340954e+01   8.438983e+00
  -4.809543e+01  -1.263160e+02
   2.285823e+02  -1.198781e+02
   2.553932e+02   2.668752e+01
   1.871403e+02   3.114572e+02
  -9.984870e+01   2.962116e+02
  -2.625086e+02   6.323535e+01
  -2.427812e+02  -2.452037e+02
  -4.566520e+01  -3.042000e+02
   2.653970e+02  -1.762271e+02
   3.849193e+02   1.381588e+02
   1.680811e+02   3.922029e+02
  -1.299384e+02   2.197964e+02
  -2.367490e+02   1.539221e+02
  -1.483370e+02   3.072887e+01
  -5.954240e+01   2.637969e+01
  -2.239111e+02   1.286411e+02
  -3.703602e+02  -6.920924e+01
  -3.504244e+02  -2.991752e+02
  -3.360004e-01  -4.230953e+02
   3.090092e+02  -3.724042e+02
   4.757221e+02  -2.118748e+02
   3.189596e+02   1.899102e+01
   8.813767e+01   3.622697e+02
  -1.420336e+02   2.800110e+02
  -3.369339e+01  -2.161357e+01
   9.879162e+01  -1.621717e+02
   2.054105e+02  -6.554726e+00
   6.050941e+01   2.286287e+02
  -1.525882e+02   1.666598e+02
  -1.984046e+02  -5.790941e+01
  -2.323259e+01  -1.626128e+02
   2.043978e+02  -3.165357e+01
   1.899932e+02   1.805489e+02
   4.066073e+00   3.809798e+02
  -1.951916e+02   1.877369e+02
  -3.660390e+02  -2.632931e+01
  -2.462395e+02  -2.264977e+02
  -1.163608e+02  -2.294777e+02
   9.327533e+01  -1.720374e+02
   2.171141e+02  -2.654575e+01
   3.373192e+01   2.155450e+01
  -3.114071e+01  -4.543414e+01
  -7.532231e+01  -1.607087e+02
   1.274706e+02  -8.149718e+01
   1.766561e+02  -8.955360e+00
   3.858016e+01   4.351393e+01
  -9.921351e+01   5.015648e+01
  -8.892550e+01  -7.872439e+01
   1.145462e+02  -3.841884e+01
   2.617611e+02  -2.528751e+01
   2.780561e+02   1.183803e+02
   3.622144e+01   2.988663e+02
  -1.576548e+02   2.980558e+02
  -2.941915e+02   9.421033e+01
  -1.656325e+02  -4.181117e+01
   2.563590e+01  -1.389373e+02
   1.086484e+02  -5.975782e+01
  -3.720723e+01   1.490258e+02
  -1.624165e+02   8.451517e+01
  -2.138473e+02  -6.083045e+01
  -4.736161e+01  -1.551953e+02
   7.966921e+01  -1.945212e+02
   1.091847e+02  -2.813364e+01
   7.610544e+01   2.684112e+01
  -7.331380e-01  -2.216733e+01
  -1.119599e+01  -1.131487e+02
   1.417795e+02  -1.386768e+02
   1.534594e+02  -5.594743e+01
   2.258672e+02   7.712268e+01
   6.617977e+01   2.115727e+02
  -1.398239e+02   1.737363e+02
  -2.140986e+02  -4.032992e+01
  -1.038131e+02  -1.610633e+02
   1.363374e+02  -1.317860e+02
   5.860362e+01  -3.334815e+01
   9.642231e+00   1.211481e+01
   5.891677e+00   3.926287e+01
   4.230248e+00  -3.227966e+00
   5.781417e+01   1.438214e+01
   1.209821e+02   5.399864e+01
   2.332530e+01   1.621718e+02
  -9.343134e+01   1.359355e+02
  -2.205508e+02   3.581562e+01
  -2.151565e+02  -1.574312e+02
  -7.425710e+01  -2.056467e+02
   1.125625e+02  -1.316879e+02
   1.531816e+02  -2.997015e+01
   8.227877e+01   4.196593e+01
   2.764063e+01   7.625057e+01
   9.516817e+01  -1.999291e+01
   6.928542e+01  -7.662854e+01
   3.017767e+01   4.345194e+01
  -4.312237e+01   5.774760e+01
  -1.225022e+02   6.268160e+01
  -1.103487e+02  -9.231962e+00
  -8.956024e+00  -6.910141e+01
   9.298789e+01  -6.752178e+01
   2.083900e+02   7.840752e+01
   1.178966e+02   1.906660e+02
  -1.170063e+02   2.117438e+02
  -2.446590e+02   3.396447e+01
  -2.671232e+02  -9.306704e+01
  -1.484332e+02  -1.397689e+02
   2.831844e+01  -1.307095e+02
   7.099473e+01  -6.525266e+01
   9.355992e+01  -6.182072e+01
   2.521572e+01  -6.480501e+01
   8.684720e+01  -6.005727e+01
   1.212014e+02   1.506308e+01
   1.170648e+02   1.262100e+02
   1.785473e+01   2.476514e+02
  -4.332613e+01   1.813759e+02
  -1.991638e+02   1.383342e+01
  -1.354795e+02  -1.770606e+02
   5.038518e+01  -2.188254e+02
   4.152705e+01  -1.634487e+02
   9.622497e+01  -2.852631e+00
   2.522068e+01   7.083590e+01
   1.030656e+01   1.797381e+01
   2.662250e+01  -2.513854e+00
   1.074121e+02   8.573517e+01
   1.975945e+01   4.164805e+01
  -7.788660e+01   4.566352e+01
  -1.659305e+02   2.629668e+00
  -1.476646e+02  -3.861951e+01
  -5.814459e+01  -3.360133e+01
   1.149692e+02  -8.901514e+01
   1.352612e+02   3.507575e-02
   6.097778e+01   1.142264e+01
  -8.651537e+01   4.045253e+01
  -1.031190e+02  -8.159478e+00
  -3.943413e+01  -1.028989e+02
   3.753123e+01  -9.129062e+01
   4.830090e+01   1.398709e+01
   4.928065e+01   9.686784e+01
   5.008747e+01   6.565852e+01
   9.353107e+01  -6.748146e+00
   8.756423e+01   3.364331e+01
   2.130836e+01   1.028818e+02
  -1.085377e+00   1.886814e+02
  -1.095050e+02   6.954079e+01
  -1.451578e+02   3.060836e+01
  -1.288857e+02  -1.633981e+02
   1.019827e+01  -1.525401e+02
   6.887207e+01  -8.237000e+01
   7.280287e+01   2.793895e+01
  -4.049121e+01   4.757760e+00
  -1.447724e+02  -2.598920e+01
  -5.744616e+01  -1.519076e+02
   4.221127e+01  -7.995925e+01
   1.846604e+02  -4.221990e+01
   1.378753e+02   4.426986e+01
   4.802441e+00   5.899478e+01
  -5.710927e+01   1.047700e+02
  -2.330919e+01   8.966982e+00
   4.751169e+01  -4.259417e+01
   3.866628e+01   4.775368e+00
   1.561997e+01   1.444527e+02
  -1.020998e+02   1.537786e+02
  -1.786093e+02   7.834363e+01
  -1.365699e+02  -1.236735e+02
  -4.031858e+00  -2.291815e+02
   9.548551e+01  -1.117347e+02
   1.098678e+02  -5.954039e+00
   8.448908e+01   9.438560e+01
   1.786247e+01   9.185314e+01
  -3.951081e+01   6.047713e+00
  -7.474406e+01  -4.695879e+00
   2.801751e+00   2.286990e+00
  -3.469037e+01   8.228540e+00
  -2.387991e+01  -5.983350e+01
  -6.399691e+01  -4.991548e+01
  -5.119049e+01  -1.385216e+02
   3.370815e+01  -7.714395e+01
   1.564582e+02   2.562943e+01
   1.083104e+02   9.247666e+01
   3.608678e+01   5.682683e+01
  -9.422720e+01  -2.377631e+01
  -1.108065e+02   4.452698e+01
   3.328088e+01  -4.682856e+01
   7.371971e+01  -2.758771e+01
  -4.118961e+01  -7.770340e+00
  -3.100851e+01  -9.167745e+00
  -1.526569e+01  -4.590617e+00
   7.145942e+01  -4.855471e+00
   4.417171e+01   4.962505e+01
   7.179706e+00   7.529967e+01
  -9.108399e+01   8.544510e+01
  -1.826476e+02   2.479049e+01
  -1.348360e+02  -6.691371e+01
  -4.610761e+01  -1.418746e+02
   1.296189e+02  -1.336359e+02
   7.672591e+01  -3.290125e+01
   9.194373e+01   6.946656e+01
   2.322440e+01  -2.028486e+01
   1.758071e+01   7.334791e+00
  -1.388793e+01   5.959762e-01
   6.424261e+01   4.597165e+01
   4.346185e+01   1.031724e+02
  -3.307536e+01   5.516437e+01
  -1.073202e+02  -1.815415e+01
  -1.012521e+02  -1.136382e+02
   5.629397e+00  -1.595505e+02
   1.133823e+02  -3.001749e+01
   1.190439e+02   4.645210e+01
   7.775719e+01   1.091859e+02
  -5.450717e+01   4.639107e+01
  -1.006882e+02  -2.856205e+01
   3.010416e+01  -7.116417e+01
   3.550822e+01  -6.870731e+01
   3.531084e+01  -3.454087e+01
   8.555257e+00  -1.948834e+01
  -6.055449e+01  -3.149249e+00
  -7.973339e+00  -2.321843e+01
   7.652941e+01  -8.464906e+01
   1.092937e+02  -4.949086e+01
   7.092524e+01  -1.294133e+01
  -3.732285e+01   5.616699e+01
  -4.870703e+01   7.418267e+01
  -2.270614e+01   2.278187e+01
  -1.125098e+01  -7.355585e+01
   2.466445e+01  -4.125185e+01
   2.464986e+01   1.388882e+01
   6.025060e+01   4.488226e+01
  -3.300593e+01   6.002159e+01
  -1.327382e+01  -5.746651e+01
  -8.309163e+01  -4.603636e+01
   2.389935e+01  -2.232938e+00
   2.927209e+01   1.038315e+01
   2.078570e+01  -1.111556e+01
   1.268676e+00  -6.341313e+00
   2.987049e+01  -6.331242e+01
   3.071759e+01   6.101167e+00
   1.755404e+01   6.818877e+01
   2.311045e+01   4.826868e+01
  -5.297542e+01   6.087746e+01
  -7.447374e+01  -3.623171e+00
  -3.156668e+01  -6.851389e+01
   6.929962e+01  -4.551884e+01
   3.442872e+01   5.824874e+01
   1.414253e+01   6.254885e+01
  -2.853298e+01  -2.499721e+01
  -1.048838e+02  -1.741243e+01
  -1.142260e+01   4.050017e+01
   9.177233e+01   2.862739e+01
   2.109425e+01  -8.200542e+00
  -3.093891e+01   1.133370e+02
  -5.964948e+01   2.105336e+01
