
 $NMID
 id='ANONYMOUS ', fmtdat='(2E16.6)'
 volume=1.0
 tramp=1.0
 $END
   3.842064e+03   9.525254e+01
   2.149913e+03   2.395797e+03
  -7.359165e+02   2.360128e+03
  -1.900113e+03   6.659377e+02
  -7.533730e+02  -6.631986e+02
   6.358016e+02  -4.821858e+02
   7.812347e+02   4.385481e+02
  -2.310632e+01   9.837098e+02
  -8.042496e+02   7.313295e+02
  -8.595851e+02  -1.520928e+02
  -3.856832e+02  -8.281001e+02
   2.817069e+02  -8.150198e+02
   6.083354e+02  -5.550593e+01
   3.421189e+02   6.635189e+02
  -2.184113e+02   6.968230e+02
  -5.711696e+02  -2.668306e+01
  -2.293982e+02  -6.094117e+02
   3.309589e+02  -5.117520e+02
   5.140988e+02  -2.309084e+01
   3.232376e+02   3.172770e+02
   3.671594e+01   3.603394e+02
  -1.824649e+02   1.983777e+02
  -2.120135e+02  -3.676774e+01
   9.599194e+01  -7.901621e+01
   4.164070e+02   4.950507e+01
   2.198916e+02   3.806382e+02
  -4.434807e+02   3.761609e+02
  -7.670108e+02  -8.367433e+01
  -3.699666e+02  -5.167316e+02
   3.474383e+02  -4.452200e+02
   6.398369e+02   1.529612e+01
   3.144004e+02   3.891448e+02
  -2.672846e+02   4.724271e+02
  -5.435102e+02   1.436920e+02
  -3.619331e+02  -2.738475e+02
  -4.991675e+01  -4.718411e+02
   2.270124e+02  -2.145071e+02
   1.616687e+02   1.994185e+02
  -1.450232e+02   3.928861e+02
  -4.365955e+02  -3.707500e+01
  -2.071632e+02  -6.396701e+02
   3.672076e+02  -6.652550e+02
   5.063626e+02   1.983189e+00
   3.006402e+02   5.136599e+02
  -2.855998e+02   3.034292e+02
  -3.230013e+02  -2.309112e+02
   3.648009e+01  -5.036003e+02
   4.734801e+02  -1.011714e+02
   5.066653e+02   3.489132e+02
   1.884677e+02   5.017431e+02
  -3.223176e+02   3.035293e+02
  -5.848606e+02  -1.485863e+02
  -3.162075e+02  -3.624654e+02
   1.657062e+02  -4.060600e+02
   4.601319e+02  -1.281440e+01
   2.014924e+02   2.087645e+02
  -1.250614e+02   6.676805e+01
  -1.301997e+02  -1.776536e+02
   1.311437e+02  -1.608617e+02
   3.546474e+02   1.283122e+02
   1.442557e+02   2.830640e+02
  -1.831480e+02   2.236155e+02
  -2.764938e+02   5.860962e+01
  -1.603264e+02  -1.092537e+02
  -1.632624e+01  -1.788860e+02
   1.423516e+02  -2.607688e+02
   2.911819e+02  -1.773292e+02
   2.747628e+02   1.176271e+02
   4.187375e+01   3.818169e+02
  -1.390252e+02   3.423947e+02
  -1.640821e+02   2.181556e+01
  -1.712503e+01   5.329813e+01
  -4.769310e+01   4.034085e+00
  -1.386561e+02   1.366510e+02
  -2.901609e+02  -1.916505e+01
  -1.171867e+02  -2.012185e+02
   5.001973e+01  -2.139350e+02
   2.068624e+02  -6.737916e+01
   1.802981e+02   1.915595e+02
   3.630927e+01   2.957515e+02
  -2.462128e+02   1.198201e+02
  -3.334562e+02  -2.008518e+02
  -8.382192e+01  -2.891185e+02
   7.721671e+01  -2.820676e+02
   1.747599e+02  -8.963978e+01
   1.657771e+02   1.891654e+01
   8.782401e+01  -1.735336e+01
   1.471271e+02   4.998061e+00
   3.344926e+02   3.444956e+01
   2.516605e+02   2.270086e+02
   2.178608e+01   3.782651e+02
  -2.661278e+02   3.282685e+02
  -4.112036e+02   1.382421e+02
  -3.288883e+02  -6.012601e+01
  -3.421779e+01  -2.190018e+02
   8.459706e+01  -2.573094e+02
   1.124835e+02  -6.193686e+00
  -1.034924e+02   7.410412e+01
  -1.614265e+02  -6.549639e+01
  -2.060967e+01  -1.687334e+02
   1.830382e+02  -1.584902e+02
   1.696258e+02   2.196028e+01
  -4.708444e+00   1.968084e+02
  -1.973298e+02   1.153981e+01
  -1.167873e+02  -1.583526e+02
  -2.979885e+01  -3.522403e+02
   1.902057e+02  -1.626161e+02
   2.608730e+02  -1.947492e+01
   2.539845e+02   1.927280e+02
   6.725143e+01   2.429895e+02
  -1.449899e+02   9.546977e+01
  -1.227160e+02  -3.508981e+00
  -1.132376e+01  -6.061656e+01
   7.195955e+01   5.603747e+01
   3.496748e+01   8.047567e+01
  -9.614054e+01   1.067941e+02
  -1.408601e+02  -1.126743e+01
  -5.770407e+01  -6.194742e+01
   6.787507e+01  -3.311176e+01
   4.229203e+01   4.860702e+01
  -1.072011e+02   8.439186e+01
  -2.338741e+02  -1.005623e+01
  -1.892195e+02  -1.040435e+02
  -7.612755e+01  -2.139218e+02
   1.880293e+02  -2.007975e+02
   2.335614e+02  -8.388855e+01
   1.734998e+02   3.658521e+01
   1.721996e+01   1.683024e+02
  -7.169886e+01   1.622466e+01
   1.133143e+01  -1.018484e+02
   1.663551e+02  -6.321978e+01
   1.296730e+02   6.742861e+01
   3.947476e+01   1.701887e+02
  -8.548379e+01   1.446852e+02
  -1.770218e+02   8.610873e+01
  -5.889207e+01  -1.776402e+01
   2.585394e+01  -6.306037e+00
   2.794499e+01   6.236909e+01
  -3.873812e+01   6.809484e+01
  -1.500918e+02   3.749419e+01
  -2.349257e+02  -1.445686e+02
   6.190867e+00  -2.184782e+02
   1.676601e+02  -1.104374e+02
   1.674341e+02  -5.942918e-01
   5.288318e+01   1.524269e+02
  -8.413807e+00   1.758870e+02
  -2.848671e+01   5.617293e+00
  -3.843157e+01   2.492211e+01
  -5.955308e+01  -9.254279e+00
  -9.843990e+00  -2.272959e+00
  -1.867293e+01   3.354962e+01
  -6.240460e+01  -8.701418e+01
   2.344071e+01  -1.002839e+02
   9.448728e+01  -1.423392e+02
   2.375490e+02  -2.559192e+01
   1.939903e+02   1.051972e+02
   2.067913e+01   2.327790e+02
  -1.344972e+02   1.819492e+02
  -1.447849e+02   4.136787e+01
  -3.801547e+01  -8.370780e+01
   1.360809e+01  -1.206290e+01
  -7.512543e+01   3.708488e+01
  -5.654655e+01  -1.056332e+00
  -4.262113e+01  -3.380685e+01
   2.772042e+01  -7.345600e+01
   7.254504e+01  -1.515782e+01
   8.709559e+01  -9.002122e+00
  -8.792076e+00   9.631420e+01
  -9.070942e+01   1.074104e+02
  -1.575765e+02  -1.503426e+01
  -8.839741e+01  -1.143053e+02
   5.496376e+01  -2.146815e+02
   1.818512e+02  -4.501297e+01
   2.826427e+02   9.610714e+01
   1.248709e+02   1.254318e+02
  -1.907351e+01   1.712825e+02
  -3.831764e+01   5.200950e+01
  -3.076817e+01   1.396255e+01
  -7.698396e+01   8.940488e+01
  -3.877976e+01   2.372726e+01
  -1.270385e+02  -3.495265e+01
  -1.023128e+02  -1.438808e+02
   2.436682e+00  -2.326117e+02
   6.267007e+01  -1.711625e+02
   1.069832e+02   1.532562e+01
   1.229752e+02   9.192527e+01
   4.338983e+01   1.547873e+02
  -8.355901e+01  -9.955216e-01
  -4.662923e+01  -9.665615e+00
   2.530235e+01  -1.073299e+02
   6.386534e+01   8.722904e+00
  -1.536415e+01   2.102743e+01
  -1.203243e+01  -3.438583e+01
  -1.970416e+01  -6.786860e+01
   2.543112e+01  -7.043233e+01
   9.440666e+01   1.556291e+01
   1.322678e+02   3.033955e+01
   3.425181e+00   5.483181e+01
  -6.056048e+01   8.814322e+01
  -1.616165e+02   3.062402e+01
  -4.282826e+01  -6.144098e+01
   8.927661e+01  -3.717476e+01
   6.285354e+01   1.370117e+01
  -1.341538e+01   3.812286e+01
  -3.820008e+01   5.982454e+01
  -2.728029e+01  -4.830616e+00
  -2.058609e+01  -4.408537e+01
  -3.315893e+01  -3.945773e+01
  -8.035840e+01   3.561579e+01
  -9.038389e+01  -8.162076e+01
  -4.597555e+01  -1.062784e+02
   5.083397e+01  -1.113674e+02
   9.438364e+01  -1.405310e+02
   1.496883e+02  -1.832829e+01
   9.397810e+01   8.376516e+01
  -1.264953e+01   5.911367e+01
  -4.355145e+01   8.591842e+01
  -4.905429e+00   1.514226e+01
   8.007316e+01  -4.323070e+01
   1.340787e+02  -3.716606e+00
   3.923889e+01   8.225448e+01
  -2.924426e+01   1.045168e+02
  -1.110862e+02   1.557407e+01
  -1.424468e+02  -2.959225e+01
  -3.069934e+01  -6.079111e+01
   6.308457e+00  -2.035762e+01
   6.830911e+01   7.706712e+00
  -1.315083e+01   2.682042e+01
  -1.212227e+02  -2.290135e+01
  -6.579311e+00  -1.447949e+02
   9.120409e+01  -7.537217e+01
   1.261287e+02  -9.629237e+00
   1.093972e+02   1.216286e+02
   2.712077e+00   1.701370e+02
  -9.260431e+00   8.780681e+01
  -1.106491e+02  -2.964226e+01
  -1.032775e+02  -1.006869e+02
   1.101279e+00  -1.031309e+02
   3.257394e+01  -4.692634e+01
   4.805660e+01   2.903468e+01
   3.286890e+01   2.720078e+01
   3.743698e+01  -6.094194e+01
  -9.818579e+00  -3.291643e+01
   1.276262e+01   1.399011e+02
   3.849216e+01   5.994229e+01
  -1.565945e+01  -2.224820e+01
  -1.434926e+02   5.169703e+00
  -1.177409e+02  -1.250721e+02
  -7.686048e+01   2.756127e+01
   8.944533e+01  -8.066476e+01
   1.007331e+02   5.191417e+00
  -7.232723e-01   4.676460e+01
  -6.081475e+01  -1.133167e+00
   9.519059e+00   3.660319e+01
   4.458413e+01   2.286998e+01
  -3.178282e+01  -2.812576e+01
  -4.470643e+01  -4.780322e+01
  -7.833815e+01  -2.958815e+01
  -8.584784e+00  -1.065430e+02
   1.326460e+02  -5.818831e+01
   1.675041e+02  -5.011269e+01
   1.432706e+02   7.677926e+01
   8.537725e+01   1.339055e+02
  -4.829915e+01   1.086059e+02
  -1.419068e+02   2.524822e+01
  -7.709477e+01  -5.000813e+01
   2.261614e+01  -9.675022e+01
   1.830412e+01  -3.145082e+01
   1.229583e+01  -6.973483e+00
  -6.557539e+01  -8.426437e+01
  -3.728235e+01  -1.007664e+02
   8.073628e+01  -3.093132e+01
   6.959679e+01   4.354087e+01
   7.236539e+01   1.034482e+02
  -7.665853e+00   5.458682e+01
  -1.025225e+02   3.785504e+01
  -5.164991e+01  -5.057321e+01
  -2.509438e+01  -9.756029e+01
   7.146704e+01  -1.754416e+01
   8.780886e+01  -2.636037e+01
   5.387953e+01   3.956828e+01
  -6.286175e+01   7.356050e-01
  -6.738394e+01   5.807043e+01
  -1.110959e+01  -3.072547e+01
   5.516408e+01  -5.351602e+01
  -3.054083e+01  -7.225128e+00
  -4.008243e+01   1.955211e+01
  -9.688703e+01   9.161504e+00
  -2.209726e+01  -3.903578e+00
   5.402555e+00  -4.167991e+01
  -2.047197e+00  -6.718024e+01
   4.499004e+01   2.563438e+01
   6.631987e+01   3.815446e+01
   3.018391e+00   6.599471e+01
  -1.836003e+01  -6.068424e+01
   2.253751e+01  -4.983153e+01
  -7.075134e+00  -2.817973e+01
   4.626897e+01  -4.429266e+01
  -1.299667e+01   5.157335e+01
   5.214314e+01  -5.206767e-01
   2.030306e+01  -1.344220e+01
   2.323994e+01  -4.031608e+01
   2.142793e+01   1.771983e+01
  -4.599251e+01   2.689777e+01
  -5.162137e+01   5.350170e+01
  -1.318327e+01  -4.411981e+01
  -2.085105e+01  -6.601871e+01
  -5.792827e+00   3.555214e+00
   5.938247e+01   9.013681e+00
   2.281847e+01   3.058831e+01
  -3.132643e+01   2.086741e+01
  -8.149888e+01  -7.405091e+00
  -6.719320e+01  -3.844700e+01
   2.201153e+01  -3.082861e+01
   7.160934e+01  -6.185296e+01
   3.900734e+01  -4.742822e+00
  -5.019189e+01  -1.910309e+01
  -5.044103e+01  -5.592198e+01
   5.446885e+01   5.888985e+00
   5.587517e+01  -3.364676e+01
