
 $NMID
 id='ANONYMOUS ', fmtdat='(2E16.6)'
 volume=1.0
 tramp=1.0
 $END
  -3.752787e+03  -4.023627e+01
  -2.112236e+03  -2.322693e+03
   7.508867e+02  -2.353941e+03
   1.867156e+03  -7.355596e+02
   8.272863e+02   7.092077e+02
  -6.132499e+02   4.850980e+02
  -7.979854e+02  -3.983496e+02
  -6.404612e+00  -9.418348e+02
   7.764368e+02  -6.174858e+02
   7.769249e+02   1.301722e+02
   4.254138e+02   7.895985e+02
  -2.208181e+02   8.000054e+02
  -6.138342e+02   7.800666e+01
  -3.053985e+02  -6.527340e+02
   2.695559e+02  -6.935484e+02
   5.062274e+02   3.151878e+01
   2.317968e+02   6.064935e+02
  -3.127519e+02   5.575408e+02
  -5.436154e+02   8.271562e+01
  -2.860049e+02  -2.938703e+02
  -1.275460e+01  -3.468162e+02
   2.466862e+02  -1.664549e+02
   1.766425e+02  -3.956633e+01
  -9.027059e+01   1.087109e+02
  -3.761333e+02  -5.927651e+01
  -2.177630e+02  -3.645096e+02
   3.487733e+02  -3.480714e+02
   7.386119e+02   6.091714e+01
   4.043344e+02   4.939811e+02
  -3.512704e+02   4.487159e+02
  -5.756535e+02  -6.614924e+01
  -2.956716e+02  -4.352976e+02
   2.726700e+02  -4.693478e+02
   4.690843e+02  -1.266852e+02
   3.787309e+02   2.176112e+02
   1.074244e+02   3.949832e+02
  -1.375267e+02   1.868249e+02
  -2.067867e+02  -2.418022e+02
   1.661428e+02  -3.549465e+02
   4.129046e+02  -1.863640e+01
   2.258736e+02   5.222333e+02
  -2.548172e+02   6.074753e+02
  -5.760987e+02  -1.204207e+02
  -2.234237e+02  -4.796566e+02
   2.810931e+02  -3.207868e+02
   3.164688e+02   2.748750e+02
  -1.016771e+02   4.627872e+02
  -4.693913e+02   1.643864e+02
  -5.263272e+02  -3.558125e+02
  -1.244778e+02  -5.232621e+02
   3.515243e+02  -3.123477e+02
   5.464058e+02   1.009622e+02
   3.351949e+02   3.589494e+02
  -1.627987e+02   2.485066e+02
  -4.102818e+02   2.074929e+01
  -1.998069e+02  -1.629003e+02
   1.467909e+02  -6.351062e+01
   1.353869e+02   1.714258e+02
  -1.416596e+02   1.191291e+02
  -2.243880e+02  -8.901046e+01
  -1.649621e+02  -2.884750e+02
   1.811826e+02  -2.078946e+02
   2.325566e+02  -2.856465e+01
   1.623559e+02   9.692292e+01
   5.424367e-01   1.914918e+02
  -1.554936e+02   3.090471e+02
  -2.738590e+02   2.572647e+02
  -2.421185e+02  -1.144633e+02
  -1.143752e+02  -3.675156e+02
   9.510760e+01  -3.627017e+02
   1.382202e+02  -8.238972e+01
  -3.394788e+01   2.479534e+01
   3.339304e+01  -7.847184e+01
   1.449400e+02  -8.469259e+01
   2.388105e+02  -7.780343e-01
   1.343710e+02   2.252352e+02
   2.095087e+01   2.186522e+02
  -2.631762e+02   5.914673e+01
  -1.607180e+02  -2.142566e+02
   2.960544e+01  -2.625786e+02
   2.149604e+02  -1.102516e+02
   3.040072e+02   1.097618e+02
   1.314389e+02   3.043132e+02
  -6.717169e+01   2.552122e+02
  -1.597405e+02   8.749589e+01
  -1.689678e+02   1.169354e+01
  -9.597826e+01   2.124208e+01
  -1.876326e+02   7.003009e+01
  -3.705969e+02  -3.449393e+01
  -2.837306e+02  -2.319238e+02
   2.608625e-01  -4.167785e+02
   2.758932e+02  -3.656494e+02
   4.772521e+02  -1.311156e+02
   2.749974e+02   5.387104e+01
   3.088708e+01   2.604752e+02
  -1.133967e+02   2.123382e+02
  -7.784843e+01   2.690684e+01
   8.799435e+01  -1.128747e+02
   2.086176e+02   1.684471e+01
   4.504280e+01   1.913327e+02
  -1.774461e+02   1.289237e+02
  -1.721790e+02  -6.064655e+01
  -3.734945e-01  -1.440210e+02
   1.459800e+02  -8.021171e+01
   1.365022e+02   1.869105e+02
   1.927762e+01   2.871465e+02
  -1.595801e+02   1.831115e+02
  -2.490511e+02  -9.212947e+01
  -1.680191e+02  -1.802310e+02
  -1.033818e+02  -2.090166e+02
   6.963181e+01  -1.225554e+02
   1.105708e+02  -2.885902e+01
   4.805666e+01   4.210853e+01
  -1.322666e+02  -1.930735e+01
  -1.632861e+01  -9.294202e+01
   9.454394e+01  -9.669178e+01
   1.929836e+02   3.860283e+01
   4.178682e+01   3.475243e+01
  -3.256710e+01  -2.044686e+00
  -6.887360e+01  -5.711455e+01
   9.934536e+01  -3.102316e+01
   2.386663e+02  -2.555475e+01
   2.591044e+02   1.615181e+02
   2.772244e+01   2.514526e+02
  -1.576170e+02   1.877458e+02
  -2.474124e+02   1.492015e+02
  -1.840908e+02  -3.452749e+01
   1.639526e+01  -5.206738e+01
   1.007188e+02   5.054112e+00
   4.298162e+00   3.992697e+01
  -1.460485e+02   1.044173e+02
  -1.542623e+02  -1.545936e+01
  -1.209800e+02  -1.481645e+02
   9.024170e+01  -1.216665e+02
   1.428255e+02   9.768729e+00
   5.049933e+01   5.818900e+01
   1.372918e+01   2.926229e+01
  -5.067320e+00  -1.131986e+02
   9.533657e+01  -1.437321e+02
   1.444901e+02  -1.195856e+01
   1.298030e+02   1.277001e+02
   5.604151e+00   1.982726e+02
  -1.220987e+02   1.907788e+02
  -1.587865e+02  -1.277481e+01
  -8.228367e+01  -1.150987e+02
   3.389531e+01  -1.088620e+02
   4.620667e+01  -5.610332e+01
   1.854416e+01  -1.015065e+01
  -3.375040e+01   1.370335e+01
  -2.846553e+01  -1.405803e+01
   1.427453e+01  -1.948747e+01
   8.657352e+01   4.357261e+00
  -1.460631e+01   1.365405e+02
  -9.679851e+01   1.313223e+02
  -1.604896e+02   1.875091e+01
  -1.488204e+02  -1.632620e+02
  -8.301934e+00  -1.942709e+02
   8.117662e+01  -2.046998e+02
   1.198056e+02  -8.787596e+01
   8.176582e+01   7.037077e+01
   1.961450e+01   3.688227e+01
   4.917180e+01  -1.031741e+01
   1.725780e+01  -3.853784e+01
   4.956418e+01   4.257594e+01
  -2.174266e+00   8.859087e+01
  -6.053614e+01   4.189197e+01
  -1.047667e+02  -1.188660e+01
   1.664334e+01  -1.034920e+02
   1.544043e+02  -9.162635e+01
   1.275897e+02   6.423956e+01
   1.177061e+02   1.385841e+02
  -1.028176e+02   1.781909e+02
  -2.729716e+02   3.305964e+01
  -2.488906e+02  -4.602107e+01
  -7.687673e+01  -1.328953e+02
   5.881912e+01  -7.905155e+01
   2.586238e+01  -7.287457e+01
   5.585643e+01  -6.755889e+01
   3.555816e+01  -1.268526e+02
   8.475577e+01  -1.934970e+01
   1.037349e+02   1.002735e+01
   1.442152e+02   1.528203e+02
   4.067489e+01   2.096956e+02
  -7.237546e+01   1.635255e+02
  -1.345810e+02   6.638727e+01
  -9.375086e+01  -9.687803e+01
   4.353638e+00  -1.546208e+02
   8.292008e+01  -1.181329e+02
   3.734204e+01  -2.958586e+00
   1.497642e+01   1.832761e+01
  -4.552130e+01   2.858125e+01
  -1.454012e+00   1.887303e+01
   1.372379e+02   3.197020e+01
   1.108175e+01   7.954495e+01
  -1.162314e+01   4.057181e+01
  -1.765714e+02   2.327967e+01
  -8.093467e+01  -2.586410e+01
  -3.932568e+01  -6.480556e+01
   1.118786e+02  -7.207385e+01
   1.136562e+02  -1.953608e+01
   2.195233e+00   4.691653e+01
  -2.119479e+01   5.896752e+01
  -2.736735e+01  -2.674712e+01
  -3.105422e+01  -4.122931e+01
   3.810232e+01  -1.731653e+01
   6.879577e+01   2.133436e+01
  -4.102711e+00   9.014856e+01
   9.271505e+01   3.537174e+01
   3.320133e+01   3.290280e+01
   4.187248e+01   2.022562e+01
   2.401206e+01   9.825930e+01
  -2.263892e+01   1.210116e+02
  -7.245078e+01   1.401496e+02
  -1.677466e+02  -6.175786e+00
  -1.154252e+02  -6.956099e+01
  -4.818679e+01  -6.505881e+01
   1.124928e+02  -9.308218e+01
   5.571032e+01   1.014314e+01
  -4.069576e+01   1.608941e+01
  -7.671581e+01  -4.422828e+01
  -5.686452e+00  -9.400343e+01
   9.328115e+01  -1.580399e+02
   1.503890e+02  -6.620045e+00
   1.408761e+02   2.631248e+01
  -8.929317e+00   7.902704e+01
  -9.876083e+01   5.670120e+01
  -4.557483e-01   2.988089e+01
   2.172515e+01   5.904740e+00
   4.543091e+01  -2.497931e+01
   5.250755e+01   6.447371e+01
  -3.111052e+01   1.096396e+02
  -1.443717e+02   4.147702e+01
  -1.056788e+02  -7.992277e+01
  -6.114448e+01  -2.389449e+02
   4.289671e+01  -1.178465e+02
   9.753262e+01   4.213847e+01
   5.887379e+01   6.908996e+01
  -5.380162e+00   7.286255e+01
  -3.037449e+01  -8.726004e+00
  -4.934264e+01  -1.156291e+01
  -5.888155e+00  -1.489233e+01
   5.121844e+00   9.071694e+01
  -1.799299e+01  -1.596349e+01
  -4.447913e+01  -1.218386e+01
  -5.943331e+01  -8.079879e+01
   4.565174e+01  -3.397843e+01
   1.206564e+02   8.117901e+01
   1.288583e+02   8.706333e+01
   7.382204e+01   1.416050e+01
  -6.938072e+01  -1.310749e+01
  -7.809594e+01  -7.784720e+00
   6.967383e-01   8.292641e+00
  -9.290221e+00  -3.197114e+01
   1.498743e+01  -4.966866e+01
  -6.643528e+01   6.738497e+01
  -3.113820e+01  -3.429510e+01
   4.842667e+01   3.534967e+01
   6.097567e+01  -1.499572e+01
   1.630979e+00   5.427958e+01
  -1.277120e+02   1.014919e+02
  -1.678577e+02   4.487403e+01
  -1.064528e+02  -5.238847e+01
  -2.307036e+01  -1.043135e+02
   7.601877e+01  -1.518571e+02
   1.000569e+02  -4.288674e+01
   9.361432e+01   5.779582e+00
  -3.586754e+01   2.095939e+01
  -2.019299e+01  -5.267825e+01
   4.990573e+01  -1.065034e+01
   3.834640e+01   8.826420e+01
   4.424306e+01   5.531598e+01
  -2.188571e+01   4.299347e+01
  -2.605977e+00  -6.522125e+01
  -3.154827e+00  -1.417074e+02
   1.051872e+02  -1.082206e+02
   6.725228e+01  -1.045596e+01
   7.782804e+01   2.153894e+01
   3.405362e+01   1.124487e+02
  -8.186110e+01   3.018562e+01
  -3.102067e+01  -4.786110e+01
  -2.233559e+01  -7.888151e+01
   1.873203e+01  -5.158399e+01
   1.645522e+01  -9.063651e+01
  -9.689436e-01  -1.618398e+01
  -7.224599e+01   2.608219e+01
   1.376248e+01  -3.851471e+01
   5.593466e+01  -2.727720e+01
   1.152208e+02  -1.454794e+01
   4.982397e+01   8.970595e+01
  -1.929222e+00   4.426245e+01
  -3.507219e+01   9.628180e+01
  -2.238745e+01   4.917308e-01
  -3.945605e+01  -1.087556e+01
   7.601641e+00  -4.362583e+01
   1.157790e+01   8.256401e+01
  -1.943280e+01  -1.396085e+01
  -2.596695e+01   7.053348e+01
  -1.892956e+01   4.445297e+00
  -2.505678e+01  -5.165661e+01
   6.240525e+01   1.996886e+01
   6.667336e+01  -2.132626e+01
   2.297572e+01  -1.506119e+01
  -2.454330e+01  -7.006151e+01
  -4.151513e+01  -4.828201e+01
   3.333746e+01  -2.647620e+01
   2.168495e+01   4.104568e+01
   1.224296e+01   2.933339e+01
  -1.008437e+02   2.572558e+01
  -5.547558e+01  -4.240878e+00
  -5.735777e+01  -9.196145e+01
   1.113615e+02  -5.508084e+00
   7.252088e+01   4.088401e+01
   6.630456e+01  -8.688483e+00
  -3.104466e+01   2.619617e+01
  -1.508443e+01  -2.313372e+01
  -2.862136e+01   3.041728e+01
   1.319712e+01   2.440656e+01
   6.476094e+01   7.154039e+01
   1.587321e+00   1.625483e+01
  -3.952522e+01   3.249874e+01
