
 $NMID
 id='ANONYMOUS ', fmtdat='(2E16.6)'
 volume=1.0
 tramp=1.0
 $END
   3.402547e+03  -2.513468e+01
   1.945938e+03   2.134069e+03
  -6.408328e+02   2.204652e+03
  -1.720535e+03   6.254160e+02
  -7.308299e+02  -6.126841e+02
   5.079898e+02  -4.631925e+02
   7.495474e+02   3.623381e+02
  -1.749200e-01   8.778301e+02
  -6.787584e+02   6.032725e+02
  -7.755904e+02  -9.480537e+01
  -3.378991e+02  -7.118256e+02
   2.515636e+02  -7.487150e+02
   5.669756e+02  -9.689772e+01
   3.147161e+02   5.553480e+02
  -2.411093e+02   6.031419e+02
  -4.920882e+02  -1.772387e+01
  -2.030644e+02  -5.451852e+02
   2.814465e+02  -4.707454e+02
   4.589192e+02  -4.566845e+01
   2.686074e+02   3.334464e+02
  -1.512592e+01   3.840676e+02
  -2.165305e+02   1.997480e+02
  -1.715441e+02   5.127143e+01
   1.213479e+02  -8.762367e+01
   3.437135e+02   7.312275e+01
   1.711904e+02   3.387422e+02
  -3.574816e+02   3.259490e+02
  -6.771409e+02  -2.834285e+01
  -3.483026e+02  -4.257158e+02
   3.246293e+02  -3.516492e+02
   6.102290e+02   4.727652e+01
   3.041332e+02   3.302620e+02
  -2.469607e+02   4.537632e+02
  -5.287217e+02   7.833792e+01
  -3.233985e+02  -1.701686e+02
  -5.441479e+01  -3.547144e+02
   1.303657e+02  -2.419257e+02
   1.594113e+02   1.942282e+02
  -1.505185e+02   4.083655e+02
  -4.108647e+02   1.722662e+01
  -2.145130e+02  -5.614029e+02
   2.292749e+02  -5.348269e+02
   4.572542e+02  -4.592911e+01
   1.778520e+02   4.477131e+02
  -1.734906e+02   2.602867e+02
  -3.033751e+02  -2.892015e+02
   1.028750e+01  -3.975826e+02
   4.843478e+02  -1.171409e+02
   4.831668e+02   3.862550e+02
   9.791691e+01   4.472162e+02
  -2.977785e+02   3.228379e+02
  -4.950872e+02  -6.221525e+01
  -2.615235e+02  -3.521667e+02
   1.347021e+02  -3.174883e+02
   3.751755e+02  -5.134035e+01
   2.205911e+02   1.807907e+02
  -1.197637e+02   6.947358e+01
  -1.180401e+02  -1.220319e+02
   1.322460e+02  -1.596184e+02
   3.033005e+02   9.309331e+01
   4.123284e+01   2.716396e+02
  -1.994692e+02   1.833665e+02
  -2.538560e+02   3.958392e+01
  -1.605139e+02  -8.008763e+01
   3.908441e+00  -1.468327e+02
   1.446461e+02  -2.235523e+02
   2.469157e+02  -1.170231e+02
   2.182159e+02   6.859841e+01
   6.127055e+01   3.561671e+02
  -8.293192e+01   2.919190e+02
  -1.262254e+02   3.993873e+01
  -5.126992e+01  -3.609644e+01
   1.729724e+01   1.044314e+02
  -1.429976e+02   6.907579e+01
  -2.232527e+02  -2.875992e+00
  -1.347634e+02  -1.957065e+02
   5.236166e+01  -2.284488e+02
   1.433572e+02   2.336990e+01
   1.123884e+02   1.942378e+02
  -2.892494e+01   2.340013e+02
  -1.926833e+02   8.102218e+01
  -2.954284e+02  -1.193469e+02
  -2.061146e+02  -2.560438e+02
   1.504863e+01  -2.699032e+02
   2.140710e+02  -1.246308e+02
   1.595218e+02   2.660864e+01
   7.108101e+01  -1.577239e+01
   1.523349e+02  -1.103649e+02
   3.038460e+02   1.219156e+02
   2.748540e+02   2.492631e+02
   2.247530e+01   3.136286e+02
  -2.717071e+02   3.239206e+02
  -3.412812e+02   1.512965e+02
  -3.010103e+02  -1.191793e+02
  -4.031009e+01  -2.449255e+02
   1.489576e+02  -1.829031e+02
   7.008466e+01  -2.174421e+01
  -9.009191e+01   6.456978e+01
  -2.015455e+02   2.096123e+01
  -3.973661e+01  -1.606450e+02
   1.215188e+02  -1.747394e+02
   1.399451e+02   1.132879e+01
  -4.518113e+01   1.249230e+02
  -1.052294e+02  -1.241802e+01
  -1.668136e+02  -1.855801e+02
   5.011493e+01  -2.512258e+02
   1.574526e+02  -1.058231e+02
   2.206527e+02   9.124268e+01
   2.341700e+02   2.225879e+02
   5.561785e+01   2.397891e+02
  -5.904270e+01   1.050693e+02
  -1.818522e+02   6.193672e+01
  -2.608896e+01  -1.142499e+01
   3.242606e+01   4.694375e+01
  -2.591456e+01   1.150929e+02
  -8.229193e+01   4.842461e+01
  -1.563868e+02   1.216317e+01
  -2.651907e+01  -5.067341e+01
   3.224332e+01  -2.805464e+01
   4.474537e+01   6.785133e+01
  -1.188621e+02   6.593114e+01
  -2.200195e+02   5.355431e+01
  -1.903372e+02  -1.470869e+02
  -4.500200e+01  -2.272378e+02
   1.382514e+02  -2.279867e+02
   2.093348e+02  -1.325748e+02
   1.522209e+02   3.854670e+01
  -2.230867e+01   4.721242e+01
  -6.051770e+01   3.051648e+01
   1.711025e+00  -5.196346e+01
   1.381067e+02  -1.124285e+01
   1.716947e+02   4.903844e+01
   2.662193e+01   1.878613e+02
  -6.237325e+01   1.470250e+02
  -5.460197e+01   8.017828e+01
  -5.193641e+01  -1.357157e+01
   5.996347e+00  -6.323254e+01
   2.789525e+01   6.565849e+00
  -3.742751e+01   1.119028e+02
  -1.409589e+02  -2.855803e+01
  -1.359495e+02  -8.081589e+01
   1.301618e+01  -1.558530e+02
   1.396982e+02  -1.441009e+02
   1.812728e+02  -1.917568e+01
   3.748286e+01   1.107626e+02
  -1.963313e+01   6.328539e+01
  -2.654259e+00   4.365138e+01
   2.203955e+01  -3.403910e+01
   9.920560e+00  -4.199266e+00
   6.969970e+00   2.706270e+01
  -5.381538e+01  -9.513742e+00
  -3.606135e+01  -6.141386e+01
  -3.565463e+01  -1.258771e+02
   1.164150e+02  -1.006056e+02
   2.237766e+02  -3.942722e+01
   1.490158e+02   9.271201e+01
  -3.349143e+01   2.394946e+02
  -6.933698e+01   1.399894e+02
  -1.241202e+02   1.373576e+00
  -7.941767e+01  -4.131652e+01
   6.439052e+00  -1.900313e+01
  -2.077358e+01   4.211269e+01
  -5.435522e+01  -9.947769e+01
  -3.480167e+01  -1.383818e+01
   1.374765e+01  -4.367902e+01
   7.949715e+01  -2.501784e+01
   8.703918e+01   6.463709e+01
  -3.663683e+01   1.038552e+02
  -5.176090e+01   8.636427e+01
  -1.128307e+02  -4.645234e+01
  -1.626843e+02  -1.623614e+02
   1.430795e+02  -2.239982e+02
   1.853300e+02  -2.868890e+01
   2.145496e+02   8.049137e+01
   9.643218e+01   1.250802e+02
  -3.939162e+01   9.902684e+01
  -1.015779e+02   9.605125e+01
  -7.765222e+01   9.342502e+01
  -9.417950e+00  -1.437740e+00
  -1.006656e+02   7.195080e+00
  -1.457759e+02  -1.988622e+01
  -4.433627e+01  -1.467399e+02
   2.262508e+01  -2.121840e+02
   1.072168e+02  -1.202883e+02
   8.377198e+01   2.939548e+00
   1.038321e+02   4.935069e+01
   2.671419e+01   1.517635e+02
  -6.709005e+01   6.239543e+01
  -6.120412e+01  -1.676573e+01
   2.842809e+01  -4.206233e+01
  -3.996372e+01  -2.210983e+00
  -4.096252e+01  -5.022654e+01
  -8.870129e+01  -1.390532e+01
  -3.283393e+01  -2.224828e+01
   4.251225e+01  -7.350063e+01
   1.224798e+02  -3.955770e+01
   9.059925e+01   9.938056e+01
   2.712845e+01   7.016594e+01
  -1.102437e+02   4.903635e+01
  -9.811819e+01   3.604881e+01
  -8.665452e+01  -6.078869e+01
   9.573957e+01  -4.757636e+01
  -1.535531e-01   1.226591e+01
   1.673144e+01   2.334365e+01
  -5.965261e+01   4.640379e+01
  -6.779085e+01   2.168529e+01
  -3.343825e+01  -9.068017e+01
  -3.653676e+01  -6.583112e+01
  -7.170108e+01  -2.427243e+01
  -1.908778e+01  -1.491098e+00
  -3.640606e+01  -3.160887e+01
   5.525301e+01  -1.515468e+02
   8.472435e+01  -1.354372e+02
   8.391556e+01   4.606838e+00
   8.305319e+01   7.846705e+01
  -2.636247e+01   1.063870e+02
  -7.934263e+01   2.114000e+01
  -4.270993e+01  -3.863345e+01
   3.445786e+01   8.412774e+00
   9.468979e+01  -1.501435e+01
   9.536029e+01   7.634844e+01
  -2.940561e+01   6.432603e+01
  -1.576146e+02   4.371109e+01
  -7.739960e+01  -2.210083e+01
  -2.535977e+01  -5.430628e+01
   4.975519e+01  -4.485696e+01
   5.077558e+01  -4.366221e+01
  -6.041651e+01  -1.140862e+01
  -6.305031e+01  -1.401702e+01
  -3.604140e+01  -9.436664e+01
   5.674693e+01  -8.633076e+01
   1.014019e+02  -6.440572e+01
   6.393091e+01   7.569208e+01
   1.879681e+01   1.280821e+02
  -3.398176e+01   1.172785e+02
  -3.208256e+01   2.264851e+01
  -6.333436e+01  -1.103817e+02
   5.809408e+00  -1.339650e+02
   1.454025e+01  -7.555145e+00
   5.072676e+01   1.654098e+01
   1.535405e+01   4.821575e+01
  -2.552837e+01   1.097069e+00
  -1.899468e+00   1.615290e+01
   2.673987e+01   3.139771e+01
   7.902727e+00   1.362481e+01
  -6.133191e+01   3.197836e+01
  -9.996558e+01  -2.222880e+01
  -8.576131e+01  -2.743228e+01
  -4.001064e+01  -5.431747e+01
   8.736026e+01   3.556546e+01
   7.299671e+01  -3.114226e+01
   1.850858e+01  -1.554955e+01
  -5.821693e+01  -7.373563e+01
   1.205510e+01   6.734590e+01
   2.636033e+01  -4.127356e+01
  -4.553275e+01   3.380723e-01
  -1.131944e+02  -6.216351e+00
  -6.344730e+01   2.845835e+01
  -1.394429e+01  -8.986443e+01
   8.433110e+01  -8.814035e+01
   1.574176e+02   7.816318e+00
   1.390010e+02   4.389612e+01
   5.333539e+01   1.092614e+02
  -4.443868e+01   6.290278e+01
  -6.472272e+01  -2.355001e+01
  -6.526266e+01  -6.907606e+01
  -6.934152e+00  -5.893141e+01
  -1.106871e+01   1.015989e+01
   1.217733e+01  -1.241115e+01
  -6.538486e+00  -1.238111e+01
  -1.227297e+01  -6.808404e+01
   2.486769e+01  -2.877809e+01
   2.817598e+00  -2.298207e+01
   1.038172e+02   6.026150e+01
   3.724866e+00   1.194253e+02
  -3.308336e+01   1.833618e+01
  -1.070641e+02  -7.247271e+01
  -3.189544e+01  -7.484164e+01
   4.512359e+01  -1.213962e+01
   6.989701e+01   2.997163e+01
   7.885006e+01   4.297760e+01
   4.895339e+00   4.816934e+01
   4.575204e+01   4.748583e+00
   1.186192e+01   2.068862e+00
   5.954114e+01   6.718730e+00
   4.825731e-01   1.975340e+01
  -6.907827e+01   2.982062e+01
  -2.521137e+01   5.353939e+01
  -3.353047e+01  -3.516419e+01
   1.503061e+00  -6.686802e+01
   4.608104e+01  -4.915532e+01
   7.267885e+01  -2.891293e+01
  -3.957547e+01   5.822640e+01
  -3.405869e+01   6.687084e+01
  -3.922306e+01  -7.172331e+00
   3.152001e+01  -2.889238e+01
  -6.029366e+00  -6.373038e+01
   2.448348e+01   1.604306e+01
   5.903552e+01   2.891275e+01
   9.235505e+00  -2.640538e+01
   2.423181e+01   3.543147e+01
   2.211427e+01   3.491836e+01
   3.921994e+00   3.500475e+01
   2.125363e+01   6.055164e+00
  -7.529558e+00   6.486336e+01
   2.800984e+01  -7.463865e+01
  -1.613088e+01  -5.344045e+01
   7.062084e+01  -5.620491e+01
   3.239971e+01   5.074205e+01
   5.087942e+01   9.222734e+01
  -6.858422e+01   1.854714e+01
  -6.541946e+01  -5.253998e+01
  -3.389571e+01   3.712841e-01
   2.833718e+01  -4.250588e+01
   4.515698e+01  -1.622814e+01
   3.358743e+01  -6.179593e+01
  -5.636483e+01   4.676453e+00
  -1.375276e+01  -6.077337e+01
   3.180365e+01  -3.429416e+01
   7.122030e+01  -1.514182e+01
