
 $NMID
 id='ANONYMOUS ', fmtdat='(2E16.6)'
 volume=1.0
 tramp=1.0
 $END
  -3.543418e+03  -9.834172e+00
  -2.007386e+03  -2.074189e+03
   6.680533e+02  -2.239732e+03
   1.759246e+03  -7.124051e+02
   7.261826e+02   6.154830e+02
  -6.092324e+02   4.448630e+02
  -7.746631e+02  -3.892389e+02
   5.729578e+01  -8.902293e+02
   6.781839e+02  -6.691566e+02
   7.844243e+02   1.154446e+02
   3.399914e+02   7.400920e+02
  -2.192067e+02   6.801141e+02
  -5.799320e+02   7.622902e+01
  -2.778888e+02  -6.074426e+02
   2.824717e+02  -6.101520e+02
   5.030867e+02   1.700081e+01
   1.984011e+02   5.626712e+02
  -2.825481e+02   4.483534e+02
  -4.805304e+02   3.454221e+01
  -2.950281e+02  -3.408286e+02
   2.262777e+01  -3.308569e+02
   1.809599e+02  -1.657725e+02
   1.402191e+02   9.930200e+00
  -5.931952e+01   6.923967e+01
  -3.379304e+02  -9.285770e+01
  -1.485755e+02  -2.991653e+02
   3.625375e+02  -3.317490e+02
   6.934234e+02   2.988112e+00
   3.467379e+02   4.791616e+02
  -3.916018e+02   3.805497e+02
  -6.560561e+02  -2.766095e+01
  -3.394221e+02  -4.026031e+02
   2.222036e+02  -4.096868e+02
   4.805541e+02  -2.438803e+02
   3.110068e+02   2.021228e+02
   8.929966e+01   3.859835e+02
  -2.218126e+02   1.947748e+02
  -1.472816e+02  -2.039712e+02
   1.005657e+02  -3.536981e+02
   3.305494e+02   1.108314e+01
   1.756866e+02   5.167655e+02
  -2.694221e+02   5.233310e+02
  -5.345877e+02   1.067673e+01
  -2.745219e+02  -4.684906e+02
   2.526584e+02  -2.508839e+02
   3.321068e+02   2.331693e+02
  -3.676846e+01   4.020258e+02
  -4.471364e+02   8.735390e+01
  -5.022279e+02  -3.044166e+02
  -1.441791e+02  -4.917795e+02
   2.875691e+02  -2.823140e+02
   5.599277e+02   5.117668e+00
   2.715047e+02   3.347895e+02
  -1.608699e+02   3.037096e+02
  -3.466795e+02   3.794677e+01
  -1.814461e+02  -1.784196e+02
   1.061978e+02  -6.178540e+01
   1.171231e+02   1.390236e+02
  -8.073035e+01   1.705208e+02
  -2.848764e+02  -4.589040e+01
  -1.231224e+02  -2.699411e+02
   1.634673e+02  -1.976097e+02
   2.058718e+02  -6.889286e+01
   2.155675e+02   1.194392e+02
  -5.229646e+01   1.250150e+02
  -1.524026e+02   2.820024e+02
  -2.665113e+02   1.127418e+02
  -2.299525e+02  -7.275140e+01
  -6.977040e+01  -4.236220e+02
   1.024232e+02  -2.852295e+02
   4.063420e+01  -6.910321e+01
   2.932119e+01  -1.065084e+01
   3.493992e+01  -8.889976e+01
   1.529303e+02  -6.943087e+01
   2.687054e+02   7.901089e+01
   1.387977e+02   1.764171e+02
  -2.080125e+01   2.122279e+02
  -2.667742e+02  -9.218835e+00
  -1.800881e+02  -1.866374e+02
  -5.478597e+00  -2.949953e+02
   2.227517e+02  -9.725874e+01
   2.772569e+02   1.250193e+02
   1.532911e+02   3.458275e+02
  -8.202547e+01   1.758982e+02
  -2.209098e+02   6.265537e+01
  -1.159920e+02  -1.334049e+01
  -4.288997e+01   7.268131e+00
  -1.684921e+02   4.279358e+01
  -3.464073e+02  -9.222335e+01
  -2.818737e+02  -2.207660e+02
  -9.090161e+00  -3.500306e+02
   2.748892e+02  -3.091226e+02
   3.565208e+02  -1.407960e+02
   2.434740e+02   5.887592e+01
   6.100587e+01   2.644353e+02
  -5.210494e+01   1.566721e+02
  -1.135660e+02   4.388572e+01
   1.001222e+02  -1.232872e+02
   1.454159e+02  -2.556414e+01
   7.400518e+01   1.272641e+02
  -1.219337e+02   1.954847e+02
  -2.006651e+02  -6.584822e+01
  -1.908323e+01  -1.766864e+02
   1.441695e+02  -3.455110e+00
   1.071756e+02   1.946087e+02
  -2.787981e+00   2.709356e+02
  -2.356516e+02   1.597069e+02
  -2.382643e+02  -8.396763e+01
  -1.997694e+02  -1.781874e+02
  -9.664505e+01  -2.321237e+02
   1.602869e+02  -1.381291e+02
   1.845805e+02   1.181886e+01
   6.787739e+01   7.331709e+01
  -2.380719e+01  -5.930877e+01
  -4.396111e+01  -1.058575e+02
   1.394108e+02  -5.805975e+01
   1.401304e+02  -6.110604e+01
   4.096041e+01   6.718410e+01
  -2.605518e+01   1.514890e+01
  -9.400115e+01  -2.284914e+01
   1.157249e+02  -4.588619e+01
   2.584368e+02  -8.383178e+01
   1.587583e+02   8.604267e+01
   5.241658e+01   2.153332e+02
  -1.381909e+02   2.210373e+02
  -2.120157e+02   1.697244e+02
  -7.495839e+01  -6.299354e+01
  -1.496303e+01  -1.219922e+02
   9.029919e+01  -3.285226e+01
  -3.042563e+01   7.073573e+01
  -1.507736e+02   7.466381e+01
  -1.572850e+02  -5.900352e+01
  -3.049308e+01  -1.352556e+02
   9.086402e+01  -1.326671e+02
   8.409277e+01  -2.372436e+01
   2.565977e+01   4.691060e+01
  -1.692222e+01  -5.438165e+01
   5.361901e+00  -3.841082e+01
   5.689578e+01  -3.107967e+01
   1.467819e+02  -5.336929e+01
   1.254762e+02   2.272756e+01
   9.106009e+01   1.766275e+02
  -1.199419e+02   1.823972e+02
  -1.337116e+02  -1.789368e+01
  -4.912466e+01  -5.287649e+01
   6.362001e+01  -8.859188e+01
   6.917063e+01   2.106922e+01
   2.372527e+01  -4.379613e+00
  -2.261233e+01   1.410700e+01
  -2.521784e+00   4.004241e+01
   6.236817e+01   4.238335e+01
   6.137822e+01  -4.331874e+00
  -9.872555e+00   8.004411e+01
  -1.669209e+02   1.471776e+02
  -2.008741e+02   3.022121e+01
  -1.834626e+02  -1.139790e+02
  -9.898264e+01  -1.518832e+02
   7.540505e+01  -1.449129e+02
   9.621276e+01  -3.404442e+01
   2.092586e+01   6.676925e+01
   4.727779e+01   5.669719e+01
   4.453432e+01  -1.577375e+01
   9.336223e+01  -5.522412e+00
   6.495862e+01   5.048112e+01
  -2.869917e+01   7.286515e+01
  -7.001702e+01   8.355368e+00
  -1.003650e+02  -7.456802e+01
   3.200438e+01  -8.721271e+01
   6.326048e+01  -5.062166e+01
   1.533347e+02   4.740214e+01
   5.726685e+01   1.699515e+02
  -8.744631e+01   1.317312e+02
  -2.036932e+02   1.347678e+02
  -2.171345e+02  -8.239723e+01
  -3.287053e+01  -1.684925e+02
   1.172988e+01  -1.368863e+02
   9.337000e+01  -2.839278e+01
   6.541204e+01  -2.469652e+01
   9.624175e+01  -7.794746e+01
   9.943054e+01  -7.427936e+01
   9.462778e+01   1.898869e+01
   5.667025e+01   1.560467e+02
   1.204915e+01   1.329029e+02
  -9.391317e+01   1.180396e+02
  -1.552791e+02   1.492957e+01
  -1.426105e+02  -6.705423e+01
  -3.289627e+01  -1.308549e+02
   4.277886e+01  -1.055707e+02
   1.115054e+02  -5.554797e+01
   1.430174e+01   2.072992e+01
   1.641290e+01   3.860374e+01
   3.601206e+01  -2.286225e+01
   5.010842e+01   6.693102e+01
   2.708010e+01   7.507309e+01
  -4.084491e+01   3.875876e+01
  -8.681666e+01  -3.679273e+01
  -9.174447e+01  -7.625103e+01
  -2.552513e+01  -4.734374e+01
   7.756695e+01  -6.176068e+01
   6.226904e+01  -4.923747e+01
   7.246079e+01   1.159473e+02
  -6.960541e+01   4.430327e+01
  -7.558291e+01  -2.006576e+01
  -1.094930e+01  -6.734166e+01
   7.070775e+01  -3.836926e+01
   2.451254e+01   2.826338e+01
   5.547267e+01   2.401572e+01
   3.855854e+01   4.425994e+01
   3.387243e+01  -2.951360e+01
   1.173157e+02  -2.425923e+01
   4.084738e+01   7.431291e+01
  -2.332228e+01   1.764155e+02
  -9.442555e+01   1.684203e+02
  -1.623837e+02   4.118528e+01
  -1.397430e+02  -7.919223e+01
  -6.220392e+01  -3.617667e+01
   1.976730e+01  -7.846321e+01
   5.537279e+01  -6.073000e+00
  -3.953821e+01  -7.237801e+01
  -1.081719e+02  -1.138233e+01
  -5.487073e+01  -8.501512e+01
   9.783313e+00  -1.497830e+02
   1.947818e+02  -2.700154e+01
   1.014535e+02   1.035399e+01
   4.814621e+01   4.069024e+01
  -4.635426e+01   2.897828e+01
  -2.502444e+01  -4.080822e+01
   2.381504e+01   4.396090e+01
   9.393227e+01  -2.539189e+00
   1.052854e+01   8.857766e+01
  -5.345587e+01   8.748515e+01
  -1.303065e+02   4.724569e+01
  -9.746118e+01  -4.509581e+01
  -5.383890e+01  -1.987960e+02
   1.020173e+02  -1.360724e+02
   1.180052e+02   1.611423e+01
   6.393657e+01   4.977593e+01
   6.411988e-01   1.188241e+02
   2.025605e+01   2.403282e+01
  -4.179005e+01   8.689632e+00
   3.490906e+01   1.051386e+01
   4.423533e+01  -1.981272e+01
   6.320462e+00  -4.524846e+01
  -6.960983e+01  -4.940172e+01
  -5.067793e+01  -1.198816e+02
   6.979328e+01  -2.796932e+01
   1.178229e+02   5.274133e+01
   6.491822e+01   4.238226e+01
   3.268280e+01   1.986941e+01
  -6.697503e+01   5.695834e+01
  -1.127600e+02   6.031437e+01
  -5.757658e+01   2.247764e+01
   1.251740e+01   1.485379e+01
   3.763394e+01  -3.097790e+01
  -3.468777e+01   3.643390e+01
  -3.436774e+01   5.404730e+01
   3.728203e+01  -3.491615e+01
   3.451225e+01   3.510111e+01
   1.964795e+01   5.240352e+01
  -6.835902e+01   8.545238e+01
  -1.213118e+02   5.777718e+01
  -8.326425e+01  -4.747992e+01
  -6.286373e+01  -1.118515e+02
   8.370301e+01  -1.219475e+02
   8.690738e+01   1.103126e+01
   5.905390e+01   2.933231e+01
   5.663904e+01  -1.530106e+01
  -1.175558e+01  -1.591286e+00
  -5.251967e+01  -2.798406e+01
  -2.867166e+01   1.530431e+01
   2.179307e+01   6.791642e+01
   8.757133e-01   4.441582e+01
  -5.650520e+01  -1.579030e+01
  -4.904469e+00  -7.694037e+01
   1.445912e+01  -9.159437e+01
   7.856201e+01  -3.786789e+01
   7.098624e+01   2.830933e+01
  -9.794378e+00   1.942447e+01
  -3.168789e+01   9.588255e+00
  -8.632952e+01  -4.156438e-01
   1.888113e+01  -3.111150e+01
  -2.747638e+01  -3.252760e+01
   6.227114e+01  -5.210156e+01
  -2.594589e+01  -1.777054e+01
  -4.072217e+01   3.949648e+01
   1.190837e+01   1.688717e+00
   4.445651e+01  -2.690617e+01
   1.019096e+02  -3.561717e+01
   5.333722e+01   5.280842e+01
   1.289115e+01   7.212624e+01
  -3.980319e+01   4.739593e+01
  -1.301053e+01   1.123363e+01
  -1.240850e+01  -3.539834e+01
  -4.580453e+00   3.062000e+01
   3.656651e+01   4.455054e+01
   2.531534e+01   1.677641e+01
  -1.753412e+01   3.032014e+01
  -4.669237e+01   4.637188e+00
  -4.063938e+01  -2.973464e+01
   1.220536e+01   1.436457e+01
  -2.968796e+01  -1.900662e+01
   1.573129e+01  -1.211916e+00
   4.383233e+00  -5.261711e+01
   2.641835e+01  -3.054017e+01
   5.157471e+01   7.279503e+01
  -2.007019e+01   4.010747e+01
   8.636329e-02   3.656901e+01
  -5.482983e+01   5.783885e+01
  -2.075377e+00  -9.968148e+01
   1.340331e+01  -4.259112e+01
   1.091270e+01  -9.341283e+01
   6.043308e+01   1.812021e+01
   7.537595e+01   5.929023e+01
  -8.396860e+00   1.027236e+01
  -2.626349e+01  -4.041436e+01
   2.841155e+01   2.542916e+01
  -2.849849e+01  -7.659831e+00
   1.154433e+01   8.301179e+01
  -6.629569e+01   2.550526e+01
  -8.718447e+01   8.839447e+00
