
 $NMID
 id='ANONYMOUS ', fmtdat='(2E16.6)'
 volume=1.0
 tramp=1.0
 $END
   3.884695e+03  -1.578504e+01
   2.230147e+03   2.413114e+03
  -7.205403e+02   2.434439e+03
  -1.905735e+03   7.022186e+02
  -7.887567e+02  -6.758393e+02
   6.569145e+02  -5.515831e+02
   8.332940e+02   4.537469e+02
   6.648878e+00   9.951892e+02
  -7.925303e+02   7.302370e+02
  -8.460582e+02  -1.398921e+02
  -3.880819e+02  -7.920943e+02
   2.586998e+02  -8.326186e+02
   5.737778e+02  -8.750764e+01
   3.041118e+02   6.815682e+02
  -2.336279e+02   6.395990e+02
  -5.404069e+02  -5.920586e+01
  -2.193817e+02  -6.495833e+02
   2.935466e+02  -5.373143e+02
   5.061833e+02  -6.073566e+01
   2.779740e+02   3.479884e+02
  -4.555821e+00   3.441499e+02
  -1.887735e+02   2.086545e+02
  -2.154429e+02   7.435066e+01
   1.529941e+02  -5.881025e+01
   3.731203e+02   6.863691e+01
   2.444204e+02   3.860559e+02
  -4.022872e+02   4.399745e+02
  -8.027873e+02  -1.252702e+02
  -3.734883e+02  -4.863019e+02
   4.011806e+02  -4.090717e+02
   6.927642e+02   1.219980e+01
   3.710937e+02   4.409351e+02
  -2.606234e+02   5.067161e+02
  -4.684952e+02   1.663564e+02
  -3.947066e+02  -2.271670e+02
  -7.779185e+01  -3.859468e+02
   1.986836e+02  -2.424718e+02
   1.752873e+02   2.099098e+02
  -1.448394e+02   4.190018e+02
  -4.291621e+02  -1.722963e+01
  -2.275296e+02  -6.592569e+02
   2.478078e+02  -6.742603e+02
   5.650540e+02   4.001993e+01
   2.685964e+02   5.686381e+02
  -2.597799e+02   3.446328e+02
  -3.267920e+02  -3.444900e+02
   7.126222e+01  -5.517735e+02
   5.192866e+02  -1.403687e+02
   5.276826e+02   3.530965e+02
   1.724631e+02   5.146333e+02
  -3.169656e+02   3.476662e+02
  -6.007828e+02  -3.396322e+01
  -3.778898e+02  -3.521465e+02
   1.434545e+02  -2.581924e+02
   4.301267e+02  -8.602255e-01
   2.040739e+02   1.828144e+02
  -8.611983e+01   1.179634e+02
  -1.715802e+02  -1.204702e+02
   1.670163e+02  -1.285060e+02
   2.662078e+02   7.454666e+01
   1.511430e+02   2.802458e+02
  -2.178130e+02   2.014974e+02
  -2.559186e+02   6.674762e+01
  -1.289907e+02  -8.469074e+01
   5.761213e+01  -1.602899e+02
   1.677424e+02  -2.802665e+02
   3.093277e+02  -1.565480e+02
   2.266725e+02   7.280752e+01
   9.317750e+01   4.118724e+02
  -6.720328e+01   3.619862e+02
  -1.425190e+02   8.079231e+01
  -2.751026e+00   6.060290e+00
  -3.056676e+01   8.859110e+01
  -1.471884e+02   1.570469e+02
  -2.358362e+02  -5.986911e+01
  -1.715535e+02  -2.315581e+02
   7.006030e+01  -2.323942e+02
   1.946181e+02  -2.210430e+01
   1.369605e+02   1.430879e+02
  -1.248153e+01   2.542992e+02
  -2.456911e+02   9.627766e+01
  -3.218871e+02  -1.079382e+02
  -1.850515e+02  -3.061235e+02
   8.567150e+01  -3.044607e+02
   1.839677e+02  -1.454181e+02
   1.864733e+02  -1.527703e+01
   7.255830e+01   1.972719e+01
   1.612332e+02  -5.657482e+01
   3.841164e+02   2.169232e+01
   2.791585e+02   2.106681e+02
   3.699388e+01   3.619386e+02
  -3.223382e+02   3.850023e+02
  -4.339427e+02   2.347385e+02
  -2.133992e+02  -6.867841e+01
  -2.497166e+01  -2.451090e+02
   3.462526e+01  -1.974004e+02
   8.383359e+01  -1.205538e+02
  -8.691899e+01   1.050717e+02
  -1.827606e+02  -9.178202e+00
  -8.687876e+01  -1.667696e+02
   1.714232e+02  -1.165999e+02
   2.004404e+02   3.741659e+01
   6.881265e+00   2.021209e+02
  -1.799211e+02  -2.375203e+01
  -1.561563e+02  -2.237597e+02
   4.957184e+01  -3.288955e+02
   2.367602e+02  -1.158021e+02
   2.635487e+02   4.263862e+01
   2.697532e+02   1.917501e+02
   9.226122e+01   3.015800e+02
  -8.378423e+01   1.991495e+02
  -1.310367e+02  -2.166118e+01
  -1.018398e+02  -7.493113e+01
   1.147561e+01   9.316440e-01
   5.511935e+01   9.418007e+01
  -8.533604e+01   6.670127e+01
  -1.358611e+02  -1.264989e+01
  -4.918838e+01  -8.728371e+01
   7.455495e+01  -1.192803e+01
   9.785680e+01   7.501711e+01
  -9.190405e+01   4.706714e+01
  -2.314386e+02   2.193423e+01
  -1.611238e+02  -8.479839e+01
  -8.158851e+01  -1.648356e+02
   1.207051e+02  -1.800801e+02
   2.862978e+02  -1.095535e+02
   1.161956e+02   4.414896e+01
  -2.191904e+01   1.028579e+02
  -1.116456e+02  -1.058217e+01
   1.568845e+01  -1.014223e+02
   1.824470e+02  -8.585468e+01
   1.838746e+02   4.833319e+01
   7.790449e+01   1.355123e+02
  -5.705849e+01   1.843399e+02
  -1.716331e+02   5.183998e+01
  -5.448713e+01  -4.063263e+01
   3.181033e+00  -4.117941e+01
   3.166159e+01   1.276071e+00
  -1.587784e+01   9.954802e+01
  -2.532895e+02   7.777731e+01
  -1.798627e+02  -1.308390e+02
   3.997802e+01  -1.478983e+02
   1.790706e+02  -1.727737e+02
   2.048230e+02  -2.558302e+01
   8.420362e+01   9.222103e+01
  -7.615188e+00   1.320243e+02
  -8.223415e+01   4.556345e+01
  -4.385026e+01  -3.312671e+01
   3.912115e+01  -2.450166e+01
   3.094575e+01   3.155136e+01
  -4.408248e+01  -6.812510e+00
  -5.100797e+01  -6.550281e+01
  -5.943459e+01  -1.319479e+02
   4.796115e+01  -1.407700e+02
   2.108718e+02  -2.872297e+00
   1.023114e+02   9.124811e+01
   1.302229e+01   2.189014e+02
  -1.334549e+02   1.261263e+02
  -1.300974e+02  -1.187889e+01
  -4.630026e+01  -7.350899e+01
  -2.422414e+00  -4.150174e+01
  -8.225532e+01   4.604960e+01
  -6.549591e+01   2.280510e+00
  -3.648944e+01  -5.464046e+01
   6.208292e+01  -7.196541e+01
   5.957349e+01  -6.877979e+01
   1.131631e+02   1.561164e+01
  -1.435856e+01   5.541099e+01
  -9.322471e+01   1.882211e+00
  -1.876794e+02  -8.242910e+01
  -1.112058e+02  -2.021406e+02
   8.566425e+01  -2.072252e+02
   2.275548e+02  -5.868811e+01
   1.857893e+02   1.084592e+02
   1.153468e+02   1.185040e+02
   3.034920e+01   9.797723e+01
  -1.134750e+02   4.507392e+01
  -4.813274e+01   5.655167e+01
  -8.978357e+01   4.317271e+01
  -2.992588e+01   6.895476e+01
  -1.076623e+02   2.608160e+01
  -1.629605e+02  -1.845694e+02
   6.467327e+00  -2.134672e+02
   1.004167e+02  -1.543811e+02
   1.345665e+02  -1.857747e+01
   6.130280e+01   6.867343e+01
   6.452317e+01   1.430711e+02
  -2.270405e+01   6.478762e+01
  -3.715899e+01  -1.610898e+01
   1.511648e+01  -3.155714e+01
  -1.370785e+01  -4.006343e+01
  -5.565712e+01  -1.128940e+01
  -2.972389e+01  -1.592597e+01
  -3.249194e+01  -5.625970e+01
   5.365643e+01  -2.454725e+01
   8.262971e+01   6.813394e+01
   8.291934e+01   1.320706e+01
  -4.992894e+01   8.244289e+01
  -7.224714e+00   4.147199e+01
  -1.107015e+02  -2.742087e+01
  -3.121683e+01  -7.125301e+01
   1.912726e+01  -4.034904e+01
   2.980570e+01   1.810717e+01
   2.306500e+01   3.922410e+01
  -8.215673e+01   4.977668e+01
  -4.665197e+01   2.847056e+01
  -1.599204e+01  -5.149226e+01
  -9.631013e+01  -1.228455e+01
  -2.185038e+01   1.669628e+01
  -5.027388e+01   1.128346e+01
  -2.050405e+01  -6.608853e+01
  -2.302728e+00  -1.523089e+02
   1.206138e+02  -1.134227e+02
   1.434487e+02  -1.329362e+01
   1.272145e+02   8.343314e+01
  -1.675055e+01   1.046632e+02
  -7.796200e+01   7.793672e+01
  -7.028324e+01   3.373823e+01
   2.110824e+01  -4.887244e+01
   1.786558e+02   2.022197e+01
   7.917536e+01   1.390660e+02
  -2.399428e+01   1.486397e+02
  -1.331977e+02   4.906685e+01
  -1.522602e+02  -7.544219e+01
  -3.574206e+01  -3.905639e+01
   2.455178e+01  -8.712931e+01
  -2.282195e+01  -3.362289e+01
  -8.357259e+01  -4.758366e+00
  -5.578957e+01  -3.542929e+01
  -1.071540e+02  -1.076743e+02
   8.089307e+01  -1.608425e+02
   2.133895e+02  -2.575089e+01
   1.180863e+02   5.942784e+01
   4.473926e+01   1.698087e+02
  -6.563571e+01   1.229386e+02
  -7.465226e+01   1.769743e+01
  -6.598637e+01  -1.129269e+02
  -5.741016e-01  -1.162966e+02
  -3.623062e+00  -2.407487e+01
   5.081773e+01   1.777744e+01
   2.678284e+01   1.456525e+01
  -4.875194e+00   1.806616e+01
   2.546582e+01   3.916689e+01
   1.169321e+02   1.311484e+02
   9.106893e+01   8.863785e+01
  -6.137294e+01   3.410196e+00
  -8.557915e+01  -2.162334e+01
  -1.312186e+02  -2.554300e+01
   2.605950e+01  -7.209675e+01
   1.033287e+02  -5.386801e+01
   1.141459e+02   1.024289e+01
  -2.680139e+01  -4.722743e+01
  -6.725096e+01   7.847628e+01
  -8.453764e+01  -4.811362e+01
  -1.354639e+01   4.634458e+01
  -1.024763e+01  -1.386537e+01
  -5.689556e+01   3.679992e+01
  -6.206430e+01  -4.801913e+00
   2.167331e+01  -9.284583e+01
   1.221478e+02  -4.487763e+01
   1.330231e+02  -5.661281e+01
   1.632833e+02   2.015424e+01
   1.030571e+00   1.252262e+02
  -6.635382e+01   1.295318e+02
  -8.676467e+01   3.993680e+01
  -5.344522e+01  -2.128199e+01
   1.966253e+01  -4.930975e+01
   6.574237e+01   1.147644e+00
   1.511259e+01   4.669645e+00
  -3.483067e+01  -4.387672e+01
  -2.740072e+01  -6.650953e+01
  -6.167674e+00  -4.804533e+01
   7.289879e+01   5.476761e+01
   8.048367e+01   3.217193e+01
  -2.109646e+01   3.838930e+01
  -7.310301e+01   1.932597e+01
  -1.018386e+02  -7.012802e+01
  -4.430742e+01  -5.388060e+01
   3.368366e+01  -2.762035e+01
   9.872381e+01  -3.185591e+00
   2.123659e+01   4.750710e+01
  -8.366851e+01   3.844118e+01
  -4.778015e+01   7.063403e+01
   3.874110e+01   3.727918e+01
   9.775142e+01   2.717483e+01
   1.123807e+01   6.080510e+00
  -9.919365e+01   5.546005e+01
  -6.731337e+01   2.935711e+01
  -6.781002e+01   5.748443e+01
   4.644514e+01  -5.692045e+01
   8.751245e-01  -3.091709e+01
   2.858782e+01  -2.209908e+01
  -3.210119e+01   2.736072e+01
  -9.596862e+01   7.092501e+01
  -1.477541e+01  -5.681437e+01
  -5.427536e+01  -6.184181e+01
  -4.055924e+01  -4.177838e+01
   7.551699e+01   1.485141e+00
  -1.046911e+01  -1.214612e+01
   3.203341e+01  -1.228359e+01
   8.333661e+00  -2.603400e+01
   2.099339e+01   2.616784e+01
   2.204226e+01   2.190425e+01
  -3.136013e+01   1.700348e+01
  -4.813391e+01  -5.049118e+01
  -1.973125e+01  -2.110957e+01
   3.958834e+01  -6.122528e+01
   2.931468e+01   3.024209e+01
   3.290727e+01  -1.778157e+01
   1.201246e+01   5.130872e+01
  -6.190832e+01  -3.975528e+00
  -6.733951e+01  -2.106468e+01
  -7.306991e+01  -3.314097e+01
  -4.928486e+01  -5.603219e+01
   7.121651e+00  -5.317183e+01
   5.466974e+01  -1.948584e+00
  -4.525762e+01  -3.427025e-01
  -2.004953e+01   1.577720e+01
   7.797373e+01  -4.779734e+01
   1.652827e+01  -4.347801e+01
