
 $NMID
 id='ANONYMOUS ', fmtdat='(2E16.6)'
 volume=1.0
 tramp=1.0
 $END
  -4.387818e+03  -4.907066e+01
  -2.477574e+03  -2.663853e+03
   8.087362e+02  -2.819311e+03
   2.166923e+03  -8.156299e+02
   8.916825e+02   7.619620e+02
  -7.549179e+02   6.151906e+02
  -8.613759e+02  -4.751481e+02
   3.558600e+01  -1.089350e+03
   8.790241e+02  -7.989990e+02
   9.533464e+02   1.438186e+02
   4.496621e+02   9.230162e+02
  -3.084987e+02   8.556149e+02
  -6.667710e+02   1.249248e+02
  -3.918540e+02  -8.166020e+02
   2.900111e+02  -7.475375e+02
   6.606364e+02   2.108032e+01
   2.503240e+02   6.860054e+02
  -3.511382e+02   6.679045e+02
  -5.754982e+02   5.753601e+01
  -3.689513e+02  -4.040880e+02
   2.493562e+01  -3.990426e+02
   2.548075e+02  -2.597791e+02
   2.685909e+02   5.677404e+01
  -1.070689e+02   1.007860e+02
  -4.291245e+02  -8.015248e+01
  -2.093101e+02  -4.310959e+02
   4.879011e+02  -3.731175e+02
   8.811507e+02   7.074721e+01
   4.522448e+02   5.476107e+02
  -3.811240e+02   5.207363e+02
  -8.170921e+02  -7.794404e+01
  -3.738324e+02  -4.839946e+02
   2.624518e+02  -5.226567e+02
   5.595049e+02  -1.899539e+02
   4.651653e+02   2.410145e+02
   7.696382e+01   5.099114e+02
  -2.223856e+02   2.782182e+02
  -1.673981e+02  -2.621354e+02
   1.891790e+02  -4.364718e+02
   4.765097e+02   5.122372e+01
   2.376835e+02   7.050152e+02
  -3.054450e+02   7.151102e+02
  -5.519513e+02  -4.195152e+01
  -3.007881e+02  -5.992394e+02
   2.737956e+02  -3.007507e+02
   4.420743e+02   2.966763e+02
  -7.093269e+01   5.218554e+02
  -5.612569e+02   1.659556e+02
  -5.889442e+02  -4.685266e+02
  -1.613996e+02  -5.473895e+02
   3.626043e+02  -2.884856e+02
   5.773485e+02   8.306953e+01
   3.449227e+02   3.943414e+02
  -2.306212e+02   3.477089e+02
  -4.627290e+02   6.334614e+01
  -2.230785e+02  -2.011355e+02
   1.077027e+02  -1.224029e+02
   1.526384e+02   1.686413e+02
  -1.615777e+02   2.235620e+02
  -3.601555e+02  -6.008875e+01
  -1.157100e+02  -3.243647e+02
   2.140644e+02  -2.564041e+02
   2.940940e+02  -7.548482e+01
   1.517840e+02   1.113311e+02
  -1.657554e+01   2.707100e+02
  -1.998990e+02   3.328996e+02
  -2.677074e+02   2.073986e+02
  -2.670763e+02  -1.367511e+02
  -9.216659e+01  -4.137689e+02
   1.506617e+02  -3.815664e+02
   1.663567e+02  -1.155389e+02
   1.087807e+01   4.272680e+01
   4.785784e+01   9.897134e+00
   1.835609e+02  -1.614122e+02
   3.161942e+02   8.535264e+01
   1.688880e+02   2.545398e+02
  -2.286100e+01   2.781106e+02
  -2.335060e+02   2.578123e+01
  -2.104505e+02  -2.360527e+02
   7.855299e+00  -3.515539e+02
   2.432987e+02  -9.149751e+01
   3.519614e+02   1.850932e+02
   2.310889e+02   3.480243e+02
  -8.442206e+01   2.978280e+02
  -2.832187e+02   7.801028e+01
  -1.451448e+02  -2.084599e+01
  -6.137743e+01   6.343911e+01
  -2.009833e+02   8.393823e+01
  -4.129220e+02  -4.679137e+01
  -3.122637e+02  -2.380624e+02
   8.279112e+00  -4.552089e+02
   3.458410e+02  -3.704678e+02
   4.303184e+02  -1.843481e+02
   3.661236e+02   6.108486e+01
   1.000310e+02   3.064609e+02
  -1.105378e+02   1.809476e+02
  -7.538104e+01   2.940413e+01
   1.240517e+02  -6.033264e+01
   2.022103e+02  -2.914383e+01
   7.775092e+01   2.673408e+02
  -1.686134e+02   1.728843e+02
  -1.345146e+02  -5.810257e+01
   4.067464e+01  -1.923078e+02
   2.002445e+02  -1.617428e+00
   1.443201e+02   1.881705e+02
  -1.128670e+01   3.513882e+02
  -1.839120e+02   2.360314e+02
  -3.131484e+02  -9.515138e+01
  -2.223947e+02  -2.217542e+02
  -6.819639e+01  -2.378570e+02
   1.392451e+02  -2.038150e+02
   1.874257e+02  -4.293681e+01
   9.370525e+01   1.088078e+01
  -1.085484e+02  -5.244554e+01
  -4.209591e+01  -1.909770e+02
   1.241162e+02  -6.635817e+01
   1.347972e+02  -2.704636e+01
   3.165506e+01   1.100994e+02
  -1.302999e+02   2.793827e+01
  -8.647807e+01  -2.345737e+01
   8.612558e+01  -7.312375e+01
   2.862056e+02  -1.463929e+01
   2.883669e+02   1.496418e+02
   2.690246e+01   2.246381e+02
  -1.882569e+02   2.377212e+02
  -3.148523e+02   1.010945e+02
  -1.913864e+02  -1.033557e+02
  -2.543301e+01  -5.070413e+01
   7.864375e+01  -1.837640e+01
  -1.594309e+01   1.183429e+02
  -1.983455e+02   7.763865e+01
  -2.424198e+02  -1.111576e+02
  -6.012403e+01  -1.800279e+02
   3.251690e+01  -1.480801e+02
   1.789157e+02  -7.201151e+01
   1.059897e+02   4.758073e+01
  -9.154713e+00   2.015690e+01
  -6.598783e+00  -1.920306e+01
   6.379162e+01  -1.286831e+02
   2.427485e+02  -3.979747e+01
   2.301997e+02   1.014841e+02
   2.032329e+01   2.456297e+02
  -1.142623e+02   1.587993e+02
  -1.961116e+02  -1.742335e+01
  -6.029861e+01  -9.081618e+01
   5.686123e+01  -1.191410e+02
   1.295642e+02  -3.994801e+01
   3.167730e+00   4.355850e+00
   2.771695e+01   2.882111e+00
   1.835369e+01   3.998994e+00
   5.049633e+01   3.361916e+01
   5.174285e+01   4.853282e+01
  -1.737351e+01   1.566240e+02
  -1.377709e+02   1.461503e+02
  -2.516322e+02   1.125259e+01
  -2.039168e+02  -1.532074e+02
  -3.272761e+01  -2.210291e+02
   8.863939e+01  -1.400299e+02
   1.400609e+02   1.851310e+01
   7.926374e+01   1.323873e+02
   4.884126e+01   7.476467e+01
   7.712488e+01   8.425127e+00
   1.012293e+02   5.243176e+01
   5.217882e+01   3.425014e+01
  -2.922500e+01   8.640201e+01
  -8.035178e+01   5.304799e+01
  -8.360213e+01  -9.521026e+00
  -5.433690e+00  -9.081648e+01
   1.593537e+02  -1.141493e+02
   1.875695e+02   5.505232e+01
   7.051479e+01   2.046239e+02
  -1.305661e+02   2.937307e+02
  -2.662269e+02   1.153607e+02
  -2.927665e+02  -1.025785e+02
  -8.732237e+01  -1.535146e+02
   6.480454e+01  -1.408202e+02
   6.489396e+01  -7.887649e+01
   1.058264e+02  -7.527154e+01
   4.431477e+01  -9.221248e+01
   7.341983e+01  -1.146144e+02
   1.398742e+02   6.162646e+01
   1.372506e+02   1.204099e+02
   2.309041e+01   2.335269e+02
  -7.938494e+01   2.141771e+02
  -1.407823e+02   5.112396e+01
  -1.551848e+02  -1.528615e+02
   8.484083e+00  -1.424790e+02
   5.343199e+01  -1.085017e+02
   9.936157e+01   5.186898e+01
   1.031558e+00   7.954533e+01
  -1.235492e+00   6.635568e+00
   8.433859e+00   5.810258e+01
   3.550210e+01   3.733259e+01
   7.698419e+01   4.319604e+01
  -4.596770e+01   2.395082e+01
  -1.385376e+02   2.889450e+01
  -1.493499e+02  -3.649518e+01
  -5.766198e+01  -7.518937e+01
   1.217126e+02  -8.851945e+01
   1.721843e+02  -2.618458e+01
   4.360276e+01   4.463403e+01
  -1.232109e+02   6.368856e+01
  -8.504132e+01   7.744027e+00
  -5.919842e+00  -8.579296e+01
   2.251462e+01  -4.310525e+01
   8.409823e+01   3.801075e+01
   9.181364e+01   4.610743e+01
   1.757875e+01   1.890980e+01
   7.959598e+01  -1.447340e+01
   7.668431e+01   2.160865e+01
   2.614053e+01   5.406750e+01
   2.909871e+01   1.339194e+02
  -1.432506e+02   1.369871e+02
  -1.760795e+02   6.797537e+01
  -1.502773e+02  -9.322542e+01
  -1.961055e+01  -1.426248e+02
   1.103660e+02  -7.128287e+01
   6.009731e+01  -1.386841e+01
  -8.631868e+01   4.755712e+01
  -1.395282e+02  -7.259166e+01
  -1.145892e+02  -9.488283e+01
   1.061559e+02  -1.487531e+02
   2.171344e+02  -5.826031e+01
   1.541846e+02   1.054020e+01
  -2.263553e+00   5.617912e+01
  -8.389775e+01   4.695752e+01
  -3.515852e+01   5.410779e+01
   7.028288e+01  -7.819137e+01
   1.190394e+02  -3.326848e+00
   2.015837e+01   9.353359e+01
  -9.183529e+01   1.439199e+02
  -2.016377e+02   3.759075e+01
  -5.351724e+01  -5.702720e+01
   5.922624e+00  -1.733034e+02
   1.232899e+02  -1.748696e+02
   6.739109e+01   1.957170e+01
   5.187037e+01   1.017954e+02
   3.915419e+00   7.833185e+00
  -4.738350e+01   7.976315e+01
  -8.464095e+01   6.537369e+00
   3.353466e+01  -5.634398e+01
  -6.344864e+01   5.144497e+01
   1.977637e+01   7.331493e+00
  -3.823773e+01  -5.124760e-02
  -1.147479e+01  -8.948569e+01
   5.140632e+01  -3.595338e+01
   1.743174e+02   5.949348e+01
   1.169246e+02   5.946477e+01
   2.446077e+01   4.241566e+01
  -8.808249e+01  -6.038371e+01
  -9.449986e+01  -2.562123e+01
  -2.371533e+01  -2.392478e+01
   5.050119e+01  -2.373747e+01
  -1.326436e+01  -1.486589e+01
  -1.194273e+01  -2.567474e+00
   1.765544e+01   3.198451e+01
   7.111049e+01  -2.293383e+01
   7.366430e+01  -1.008295e+01
  -2.508803e+01   4.433089e+01
  -1.453927e+02   8.827597e+01
  -1.969448e+02   3.072058e+01
  -1.098659e+02  -7.482212e+01
  -1.877825e+01  -1.906128e+02
   1.261507e+02  -7.779867e+01
   1.678460e+02  -7.378654e+01
   7.825388e+01   1.911734e+01
   2.905058e+01   4.849568e+01
   1.543214e+01   1.658439e+01
  -8.078944e+00  -2.012643e+01
   3.581345e+01   2.292400e+01
   3.906454e+01   1.044305e+02
   6.700559e+00   4.791242e+01
  -9.182358e+01  -2.376808e+01
  -9.214844e+01  -1.039294e+02
  -2.946576e+01  -1.025729e+02
   9.779444e+01  -1.605453e+01
   6.462234e+01   5.736700e+01
   5.118822e+01   1.361067e+02
  -7.327714e+01   9.021538e+01
  -1.263284e+02  -1.236290e+00
  -5.963893e+01  -4.027625e+01
   4.981376e+01  -8.424992e+01
  -1.423826e+01  -9.277339e+00
   3.114607e+00  -1.895741e+00
  -6.251993e+01   1.363133e+01
   1.861383e+01   2.740963e+00
   7.536978e+01  -6.492761e+01
   1.145010e+02  -4.002445e+00
   3.158277e+01   2.186283e+01
  -1.558818e+01   6.918614e+01
  -2.837191e+01   4.791503e+01
  -3.934106e+01  -5.835266e-01
   4.956332e+01  -1.016631e+02
   7.454432e+01  -8.609345e+01
   2.664757e+01   4.601568e+01
  -2.328564e+01   4.892286e+01
  -9.178913e+00   2.869209e+01
  -5.100627e+01  -1.290297e+01
  -1.942250e+01   1.542428e+01
  -2.001290e+01   3.955438e+01
   2.403972e+00   2.273948e+01
   2.704374e+00  -1.523067e+01
   2.117997e+00  -7.709404e+01
   1.977490e+01   1.576397e+01
   8.779541e+01  -2.276959e+01
   6.635273e+00   3.952634e+01
  -2.992933e+01   1.564977e+01
  -3.253071e+01  -1.751826e+01
  -1.082325e+01  -4.094432e+01
  -5.469112e+01  -5.099696e+01
   7.067820e+01  -2.349669e+01
   7.643051e+01   6.413994e+01
   2.934471e+00   6.372865e+01
  -4.011751e+01  -2.047058e+01
  -1.210279e+02   4.009564e+01
  -4.530716e+01  -6.102122e+01
   6.596660e+01  -6.033206e+01
   1.175888e+01   2.249992e+01
  -4.549158e+01   9.674101e+01
  -6.983561e+01   3.425076e+01
