
 $NMID
 id='ANONYMOUS ', fmtdat='(2E16.6)'
 volume=1.0
 tramp=1.0
 $END
   4.647848e+03   3.673549e+01
   2.621245e+03   2.913728e+03
  -1.013153e+03   2.938400e+03
  -2.368084e+03   8.090748e+02
  -9.682887e+02  -8.333907e+02
   8.835176e+02  -6.169324e+02
   1.042595e+03   5.721566e+02
  -3.041374e+01   1.265444e+03
  -9.174654e+02   8.276815e+02
  -1.047450e+03  -9.131273e+01
  -4.761363e+02  -1.017896e+03
   2.445159e+02  -9.699248e+02
   7.738325e+02  -7.453724e+01
   4.041517e+02   7.915375e+02
  -3.256206e+02   8.449635e+02
  -7.016019e+02  -5.420960e+01
  -2.953000e+02  -8.413234e+02
   3.834497e+02  -6.889346e+02
   6.171656e+02  -1.000034e+02
   4.238111e+02   3.803987e+02
  -7.479460e+01   4.736527e+02
  -2.847670e+02   2.485303e+02
  -2.204408e+02   9.285656e+00
   7.302425e+01  -1.108986e+02
   4.488623e+02   8.360765e+01
   2.891809e+02   4.035448e+02
  -4.932694e+02   4.639791e+02
  -9.686749e+02  -7.355399e+01
  -4.939799e+02  -5.946491e+02
   3.940794e+02  -5.487035e+02
   8.434948e+02   8.881261e+00
   3.742847e+02   5.178443e+02
  -2.831953e+02   5.883864e+02
  -5.886761e+02   2.059961e+02
  -4.249435e+02  -2.156188e+02
  -4.267843e+01  -5.462920e+02
   2.674928e+02  -3.484129e+02
   2.140664e+02   2.743297e+02
  -1.883528e+02   4.440621e+02
  -4.910442e+02  -1.350189e+00
  -2.899661e+02  -7.038860e+02
   3.411423e+02  -7.671653e+02
   7.429471e+02   3.707496e+01
   2.831415e+02   5.816041e+02
  -3.629257e+02   3.814399e+02
  -4.481917e+02  -3.666669e+02
   5.849897e+01  -6.589473e+02
   6.002303e+02  -1.567621e+02
   6.037181e+02   4.602276e+02
   1.783970e+02   6.633310e+02
  -4.386977e+02   3.956363e+02
  -6.424443e+02  -9.248716e+01
  -3.901432e+02  -4.011034e+02
   1.386852e+02  -3.464652e+02
   4.064118e+02  -8.231575e+01
   2.669229e+02   1.999284e+02
  -1.257442e+02   1.520515e+02
  -2.357912e+02  -1.618269e+02
   1.739126e+02  -1.944638e+02
   3.493817e+02   1.012606e+02
   1.282822e+02   3.371150e+02
  -1.636256e+02   2.836067e+02
  -3.574287e+02   5.928860e+01
  -1.943350e+02  -6.601968e+01
   5.528898e+01  -2.283247e+02
   2.508560e+02  -3.039489e+02
   3.583704e+02  -2.211491e+02
   3.019579e+02   1.494026e+02
   6.942832e+01   5.049439e+02
  -1.288214e+02   3.859878e+02
  -5.787941e+01   6.398886e+01
  -3.267490e+01  -5.120632e+01
  -9.964334e+00   1.108562e+02
  -2.050455e+02   1.743074e+02
  -3.652345e+02  -5.617219e+01
  -2.226140e+02  -2.611161e+02
   9.611992e+01  -2.708325e+02
   2.892404e+02  -6.321277e+00
   2.167296e+02   2.242614e+02
  -3.926524e+01   2.667352e+02
  -2.344232e+02   1.850046e+02
  -4.004923e+02  -1.517200e+02
  -2.102236e+02  -3.605982e+02
   9.999491e+01  -3.374287e+02
   2.300005e+02  -1.484961e+02
   2.253890e+02   3.349876e+01
   7.697157e+01  -6.378776e+01
   1.826586e+02  -1.104364e+02
   4.339509e+02   3.017053e+01
   3.637355e+02   2.757242e+02
   1.959911e+01   4.016982e+02
  -3.219495e+02   4.452741e+02
  -5.117441e+02   1.833882e+02
  -3.600744e+02  -6.079778e+01
  -8.579973e+00  -3.188469e+02
   1.753486e+02  -2.680247e+02
   7.814586e+01   5.297959e+00
  -8.513923e+01   1.130846e+02
  -2.201187e+02   1.606562e+01
  -5.147555e+01  -2.151301e+02
   1.252295e+02  -1.470409e+02
   2.379619e+02   8.702502e+01
  -2.595392e+01   2.793301e+02
  -2.002902e+02   5.787335e+01
  -1.821393e+02  -2.476536e+02
   2.616632e+01  -3.433024e+02
   2.643634e+02  -2.371027e+02
   2.773649e+02   5.256710e+01
   2.728598e+02   2.151258e+02
   7.663193e+01   2.962689e+02
  -1.492048e+02   2.253343e+02
  -1.560465e+02  -7.006434e+00
  -5.894868e+01  -1.576604e+01
   5.616661e+01   5.363884e+01
   6.844640e+01   8.310007e+01
  -1.439242e+02   8.305510e+01
  -1.512772e+02  -3.209211e+01
  -2.174732e+01  -9.165648e+01
   7.831650e+01  -2.410377e-01
   6.537653e+01   5.350621e+01
  -1.899669e+02   1.247359e+02
  -2.756552e+02   1.477293e+01
  -2.501749e+02  -1.450710e+02
  -7.687365e+01  -2.849362e+02
   2.201672e+02  -2.634978e+02
   3.222299e+02  -1.775898e+02
   1.720907e+02   3.529945e+01
  -5.201812e+01   1.007821e+02
  -5.494711e+01  -1.265550e+01
   6.627045e+01  -1.139513e+02
   1.939853e+02  -5.945879e+01
   2.270723e+02   6.273228e+01
   5.089472e+01   2.050248e+02
  -1.233817e+02   1.269129e+02
  -1.066906e+02   3.277396e+01
  -6.485127e+01  -5.466096e+01
  -9.804108e+00   1.247472e+01
  -4.909720e+01   8.365998e+01
  -5.307664e+01   1.112171e+02
  -2.271754e+02   6.996847e+01
  -1.829591e+02  -1.457395e+02
  -2.891204e+01  -2.105570e+02
   1.861710e+02  -1.916582e+02
   1.554835e+02  -8.394771e+01
   9.036333e+01   1.174447e+02
  -8.609241e+01   1.533171e+02
  -4.015245e+01  -4.710293e+00
  -6.588076e+01  -6.769219e+01
   4.603670e+01  -3.887449e+01
   3.344923e+01  -8.049074e+01
  -4.825241e+01  -2.713708e+01
  -7.066197e+01  -5.967562e+01
  -2.309196e+00  -1.546608e+02
   1.260106e+02  -1.569939e+02
   2.534303e+02  -5.348673e+01
   2.462682e+02   1.268927e+02
   1.429069e+01   2.234587e+02
  -1.147884e+02   1.610153e+02
  -1.702864e+02   4.157572e+01
  -5.999157e+01  -8.952369e+01
  -1.152607e+01  -3.797116e+01
   1.642686e+01   5.171414e+01
  -7.256911e+01   1.027558e+01
  -4.187063e+01  -5.985759e+01
   3.939319e+01  -1.233961e+02
   8.292420e+01  -4.775489e+01
   2.775393e+01   8.996632e+00
  -1.919049e+00   1.196571e+02
  -1.616485e+02   9.013927e+01
  -1.744429e+02  -4.364880e+01
  -1.287085e+02  -1.625697e+02
   9.591718e+01  -2.756907e+02
   2.425510e+02  -8.981243e+01
   2.788456e+02   9.211982e+01
   9.619237e+01   1.438728e+02
  -6.005955e+01   1.863616e+02
  -8.762158e+01   9.029469e+01
  -7.625745e+01   7.862888e+01
  -3.038947e+01   1.144519e+02
  -6.552940e+01   6.709609e+01
  -1.108722e+02  -5.880493e+01
  -1.256158e+02  -1.489696e+02
  -5.586716e+01  -2.119045e+02
   6.447765e+01  -1.756449e+02
   1.967348e+02  -9.377538e+01
   1.507293e+02   1.518896e+02
  -5.883157e+01   1.617369e+02
  -3.089707e+01   3.462292e+01
  -8.647283e+01   5.183048e+01
  -1.548232e+01  -6.488266e+01
   9.459763e+01  -4.703386e+01
  -7.266691e+01  -3.280486e+01
  -8.367192e+01   3.455985e+01
  -7.391862e+01  -6.086029e+01
   5.205913e+01  -3.557876e+01
   1.222170e+02  -6.130147e+00
   9.481344e+01   7.497078e+01
  -6.996338e+01   8.166373e+01
  -1.137976e+02   8.512398e+01
  -1.171354e+02  -2.688235e+01
  -5.406564e+01  -2.560753e+01
   3.872243e+01  -3.910843e+01
   7.614161e+01  -5.342474e-01
   8.823557e+00   5.003917e+01
  -6.300481e+01   7.542598e+01
  -5.582350e+01  -1.385439e+01
  -6.774246e+01  -3.872008e+01
   6.165744e+00  -2.347919e+01
  -7.153231e+01   2.638526e+01
  -5.335061e+01  -6.139958e+01
  -5.241506e+01  -8.352795e+01
   2.072134e+01  -1.229401e+02
   9.399562e+01  -1.254327e+02
   1.530904e+02  -5.238202e+01
   1.140242e+02   7.180911e+01
   2.921120e+01   1.213562e+02
  -1.128188e+02   7.434222e+01
  -6.946582e+01   1.342099e+01
   5.127790e+01  -2.861352e+01
   1.322101e+02   1.863313e+01
   1.996332e+01   1.434390e+02
  -1.209202e+02   7.551619e+01
  -1.875778e+02   8.332837e+01
  -1.850007e+02  -3.575687e+01
  -4.201081e+00  -6.726416e+01
   2.958324e+00  -6.291604e+01
   5.550388e+01  -5.315156e+01
  -3.673342e+01   6.531620e+01
  -1.029646e+02  -3.080426e+01
  -4.122934e+01  -8.548899e+01
   9.635008e+01  -1.262912e+02
   1.264458e+02  -2.090207e+01
   8.657954e+01   1.104941e+02
  -2.762460e+01   2.192053e+02
  -9.062063e+01   1.664278e+02
  -8.588590e+01  -2.320023e+01
  -5.201616e+00  -1.534738e+02
  -4.417213e+01  -8.555360e+01
   5.538299e+01  -6.911514e+01
   8.518979e+01   1.285480e+01
   1.565680e+01   7.620423e+00
   8.243033e+00  -3.636127e+01
   3.738467e+01   4.509966e+00
   9.695241e+00   1.606378e+02
   2.937633e+01   1.252325e+02
  -3.028579e+01   4.763560e+01
  -1.583899e+02  -4.274087e+01
  -1.441699e+02  -9.461480e+01
  -2.284475e+00  -3.833074e+01
   1.270553e+02  -2.322173e+01
   9.223283e+01   9.866144e+00
   2.790684e+01  -2.911069e+01
  -5.314175e+01   5.305340e+01
   1.894450e+01   3.783864e+01
   7.183983e+01  -1.039663e+01
  -1.798293e+01   2.473522e+01
  -1.079291e+02  -3.200984e+01
  -6.104468e+01   2.167693e+01
   1.038086e+01  -1.206614e+02
   9.381329e+01  -8.986228e+01
   1.582634e+02  -6.187667e+01
   1.526148e+02   2.206325e+01
   3.256991e+01   1.969048e+02
  -1.210325e+02   1.951047e+02
  -5.013674e+01   7.054441e+01
  -7.051312e+01   2.566382e+01
  -2.912086e+01  -3.061321e+01
  -1.648830e+01   6.154914e+00
  -2.395946e+01  -3.109188e+01
  -6.876176e+01  -7.145489e+01
   4.440373e+00  -1.167736e+02
   6.866520e+01  -4.771901e+01
   8.596413e+01  -1.554503e+01
   9.076137e+01   1.467707e+02
  -5.583065e+01   1.421298e+02
  -9.191080e+01   7.816049e+01
  -9.290263e+01  -9.397508e+01
  -2.663025e+01  -8.330083e+01
   7.651651e+01  -5.631315e+00
   9.172147e+01   1.296471e+01
   5.446465e+01   5.454220e+01
   2.015746e+01   7.596647e+01
  -2.314377e-01   1.090224e+02
   5.067482e+01  -5.934961e+01
   7.043453e+01  -2.465701e+01
   4.867556e+01   1.442384e+01
  -1.245525e+02   1.096783e+02
  -1.197317e+02   6.390036e+01
  -5.369995e+01  -1.044226e+01
   2.895202e+01  -1.195244e+02
   5.320999e+01  -6.192185e+01
   3.778847e+01  -5.284699e+01
   3.202943e+01   4.322512e+01
  -2.888247e+01   8.466162e+01
  -4.329308e+00  -2.379417e+01
  -3.547936e+01  -6.721928e+01
   1.386576e+00  -2.143996e+01
   7.026027e+01   1.171560e+01
   1.682062e+01  -8.324153e+00
   3.873387e+01   1.259351e+01
  -3.293634e+01  -2.666593e+01
   4.127862e+00   6.955733e+00
  -1.462128e+01   1.066801e+02
  -8.026530e+00   2.415190e+01
   5.074893e-01   1.568143e+00
  -1.879302e+01  -6.588007e+01
   2.744064e+01  -9.088970e+01
   5.203550e+01  -1.940524e+01
   1.975600e+01   6.717450e+01
  -1.084982e+01   4.832205e+01
  -4.497026e+01   5.057383e+01
  -1.324003e+02  -5.588705e+00
  -8.901222e+01  -9.470079e+01
   4.743072e+01   2.523122e+01
   9.992167e+01  -2.382087e+00
   2.657593e+01  -8.672007e+01
  -3.965542e+01  -3.888121e+01
  -3.747988e+01  -9.204269e-01
   2.845869e+01  -8.404501e+00
   9.614098e+01  -5.329845e+01
