
 $NMID
 id='ANONYMOUS ', fmtdat='(2E16.6)'
 volume=1.0
 tramp=1.0
 $END
   4.126795e+03   3.983430e+01
   2.368109e+03   2.507127e+03
  -7.826428e+02   2.600268e+03
  -2.063809e+03   7.123882e+02
  -8.367534e+02  -7.987951e+02
   6.870917e+02  -5.834215e+02
   9.167543e+02   4.706274e+02
  -7.076255e+01   1.080921e+03
  -8.268559e+02   7.224285e+02
  -8.500783e+02  -8.638231e+01
  -3.993508e+02  -8.273166e+02
   2.533293e+02  -8.244308e+02
   6.796077e+02  -8.252302e+01
   3.393151e+02   7.004516e+02
  -3.022837e+02   7.426975e+02
  -6.037587e+02  -9.683741e+01
  -2.147395e+02  -6.630354e+02
   3.015299e+02  -5.937546e+02
   5.580394e+02  -3.783687e+01
   3.615595e+02   3.567801e+02
   2.445478e+01   4.267885e+02
  -2.279053e+02   1.886389e+02
  -2.361619e+02  -4.331643e+01
   8.190295e+01  -1.388745e+02
   4.195163e+02   5.900450e+01
   2.257970e+02   3.811011e+02
  -3.894747e+02   4.583047e+02
  -7.498588e+02  -2.929739e+01
  -4.126744e+02  -5.264117e+02
   3.759031e+02  -5.361947e+02
   6.849221e+02   5.162671e+01
   3.411650e+02   5.066770e+02
  -2.839453e+02   4.832696e+02
  -5.440339e+02   2.008671e+02
  -4.331442e+02  -2.099467e+02
  -1.041442e+02  -4.356066e+02
   2.100489e+02  -2.787989e+02
   1.824604e+02   2.401681e+02
  -1.508777e+02   4.258121e+02
  -4.846925e+02   3.549196e+01
  -2.363824e+02  -5.974767e+02
   2.949656e+02  -6.800752e+02
   6.573985e+02   2.831319e+01
   2.747248e+02   5.373149e+02
  -3.467492e+02   3.383929e+02
  -3.542797e+02  -3.374927e+02
   4.271808e+01  -5.910645e+02
   5.194871e+02  -8.911936e+01
   5.522491e+02   3.499672e+02
   1.407243e+02   5.663361e+02
  -3.565709e+02   3.460059e+02
  -6.062348e+02  -5.182706e+01
  -3.809908e+02  -3.655266e+02
   1.633703e+02  -3.378690e+02
   4.418532e+02  -4.172320e+01
   1.922398e+02   2.437693e+02
  -1.496246e+02   1.441528e+02
  -1.843862e+02  -1.629197e+02
   1.807138e+02  -2.167120e+02
   3.251080e+02   7.035868e+01
   1.156079e+02   2.504418e+02
  -2.452365e+02   2.304332e+02
  -2.962239e+02   4.879668e+01
  -1.426481e+02  -5.941587e+01
  -2.096990e+01  -1.889861e+02
   2.224807e+02  -2.730792e+02
   2.787747e+02  -1.988211e+02
   2.831442e+02   1.505015e+02
   9.466520e+01   4.406028e+02
  -1.422215e+02   2.915257e+02
  -9.462415e+01   1.279381e+02
  -1.895684e+01  -3.671678e+01
  -2.438218e+01   4.058185e+01
  -1.190258e+02   1.812711e+02
  -2.636234e+02  -6.316445e+01
  -1.891040e+02  -2.481019e+02
   2.068859e+01  -2.714749e+02
   1.869747e+02   1.179310e+01
   1.756996e+02   2.428573e+02
  -1.198784e+01   3.038101e+02
  -2.209890e+02   1.295887e+02
  -3.413602e+02  -1.263777e+02
  -1.430800e+02  -3.664357e+02
   6.962857e+01  -2.542810e+02
   2.392794e+02  -6.157772e+01
   1.290609e+02   3.199436e+01
   5.060663e+01  -1.325340e+01
   2.440036e+02  -1.342981e+02
   3.361150e+02   4.464789e+01
   2.701780e+02   2.789953e+02
  -3.878085e+01   3.806355e+02
  -2.866171e+02   4.181539e+02
  -4.424794e+02   2.358600e+02
  -2.184033e+02  -7.726426e+01
  -8.074982e+01  -2.898151e+02
   1.545414e+02  -2.805446e+02
   1.181020e+02   2.512183e+01
  -1.278976e+02   1.515369e+02
  -2.045126e+02   1.383849e+01
  -9.055436e+01  -2.012283e+02
   1.805774e+02  -2.061024e+02
   1.414589e+02   8.098031e+01
  -1.872716e+01   1.938103e+02
  -2.295689e+02   9.939895e+00
  -1.916008e+02  -2.294931e+02
   3.479921e+01  -3.497975e+02
   2.382109e+02  -2.254968e+02
   2.878442e+02   9.067885e+00
   2.268904e+02   2.244215e+02
   1.008614e+02   2.568582e+02
  -1.160398e+02   9.591992e+01
  -1.347487e+02   9.224736e+00
  -3.611091e+01  -5.416077e+01
   3.624524e+01   1.084582e+02
   5.007347e+01   9.085681e+01
  -1.204554e+02   7.809408e+01
  -1.832808e+02  -9.825660e+00
  -6.364664e+01  -7.706086e+01
   4.602047e+01  -5.411907e+01
  -4.618426e+01   6.546757e+01
  -1.004290e+02   4.244564e+01
  -2.504604e+02   3.229713e+01
  -2.350718e+02  -1.132507e+02
  -1.129759e+02  -2.473997e+02
   1.471243e+02  -2.086011e+02
   2.095320e+02  -1.109731e+02
   1.466187e+02   5.572822e+01
  -6.006368e+01   1.449754e+02
  -8.382716e+01   7.660161e+01
   1.086221e+01  -8.743747e+01
   1.805886e+02  -4.465241e+01
   1.468231e+02   1.752170e+01
   7.866124e+01   2.005340e+02
  -1.075622e+02   2.086720e+02
  -1.105340e+02   5.824630e+01
  -9.528849e+01  -3.702537e+01
  -3.129878e+01   1.480641e+01
   7.479401e+01   2.179593e+01
  -5.316638e+01   9.919037e+01
  -1.702612e+02   2.075795e+01
  -1.628917e+02  -1.066718e+02
  -4.821051e+01  -1.488439e+02
   1.101853e+02  -1.476352e+02
   1.519099e+02  -1.010548e+01
   1.164528e+02   9.373522e+01
   7.433607e+00   1.085327e+02
  -1.138705e+02   3.583821e+01
  -5.892529e+01  -4.970356e+01
   7.821015e+00  -7.439328e+01
  -2.003423e+01   3.973176e+00
  -3.152412e+01  -3.646024e+01
  -4.061468e+01  -3.400315e+01
  -9.452340e+00  -1.389476e+02
   1.161662e+02  -1.339657e+02
   2.520413e+02  -3.365285e+01
   1.727733e+02   1.217098e+02
  -2.129333e+00   1.545065e+02
  -1.330095e+02   1.391162e+02
  -1.728744e+02  -3.917185e+01
  -5.918086e+01  -8.875978e+01
  -3.293954e+01  -6.075831e+01
  -3.456133e+01   3.146900e+01
  -6.220958e+01  -1.141932e+01
  -1.864522e+01  -7.296009e+01
   3.663007e+01  -7.399565e+01
   8.682658e+01  -1.411730e+01
   4.016217e+01   3.646192e+01
   4.989937e+01   1.097829e+02
  -9.433019e+01   5.725926e+01
  -1.503018e+02  -8.235463e+00
  -1.525062e+02  -1.789263e+02
   9.306869e+01  -1.506752e+02
   2.068024e+02  -7.293851e+01
   2.251672e+02   8.987139e+01
   1.212196e+02   1.127611e+02
  -5.752582e+01   1.423506e+02
  -9.563578e+01   5.554916e+01
  -7.939294e+01   1.679298e+01
  -1.160047e+02   9.291103e+01
  -8.578269e+01   1.503329e+01
  -1.073136e+02  -3.063506e+01
  -9.213971e+01  -7.097434e+01
  -2.890159e+01  -1.651671e+02
   5.921199e+01  -1.734188e+02
   1.514011e+02   3.834346e+01
   8.262915e+01   9.898681e+01
   7.475801e+01   1.581286e+02
  -4.358338e+01   1.494837e+02
  -6.821341e+01  -1.981064e+01
   1.284371e+01  -7.682044e+01
   3.935033e+01  -1.453541e+01
  -2.468651e+01  -6.613521e+01
  -6.093875e+01  -7.323478e+00
  -6.459880e+00  -4.211611e+01
   3.508834e+01  -6.917027e+01
   1.447154e+02  -3.320211e+01
   1.835655e+02  -4.353524e+00
  -6.964608e-01   8.818115e+01
  -1.730863e+02   1.150118e+02
  -1.064885e+02  -7.218068e+00
  -7.840765e+01  -3.436880e+01
   2.345246e+01  -5.084359e+01
   5.999659e+01   2.562651e+01
   2.083484e+01   4.654747e+01
  -7.206673e+01   7.407481e+01
  -8.374102e+01  -1.203978e+01
  -1.461842e+01  -2.868113e+01
  -8.628981e+01  -6.037468e+01
  -5.974034e+01   4.119459e+01
  -1.165162e+02   1.459424e+01
   3.467265e+00  -7.435464e+01
   5.275365e+01  -1.507991e+02
   7.302535e+01  -9.940795e+01
   1.816435e+02   6.185967e+00
   8.173144e+01   6.561958e+01
  -3.469729e+01   9.516946e+01
  -1.425140e+02   5.096331e+01
  -9.041925e+01  -4.337577e+01
   6.470179e+01   2.311720e+01
   1.115002e+02   1.206439e+01
   5.351688e+01   1.602374e+02
  -1.229087e+01   3.516043e+01
  -2.036584e+02   5.247615e+01
  -1.248771e+02  -1.003885e+01
   1.319274e+01  -9.006332e+01
   7.096157e+01  -7.037538e+01
   9.575931e+01  -3.087201e+01
  -6.220383e+00   5.739020e+01
  -9.699801e+01  -2.924796e+01
  -2.115039e+01  -1.226140e+02
   5.268787e+01  -1.242663e+02
   1.451268e+02  -4.996119e+01
   1.270979e+02   7.853736e+01
  -1.434633e+01   1.523208e+02
  -1.095380e+02   1.013641e+02
  -8.432901e+01  -4.230165e-01
  -1.491642e+01  -1.089036e+02
   8.959858e+00  -1.051727e+02
   4.405306e+01  -4.968156e+01
   5.292064e+01  -4.991229e+00
   7.059899e+01  -5.345146e+00
   3.002795e+01  -2.691174e+01
  -6.209078e+01  -2.447185e+00
   7.414626e+01   7.837721e+01
   2.248619e+01   7.622185e+01
  -3.425328e+01   2.616460e+00
  -8.420409e+01  -3.681977e+01
  -1.735585e+02  -7.175673e+01
  -1.744550e+01  -8.060908e+01
   5.570968e+01  -2.304094e+01
   3.650889e+01  -1.005748e+02
   1.118412e+01   2.689724e+01
  -3.591835e+01   6.315520e+01
  -2.096677e+00  -2.225410e+01
   7.164049e+00  -8.544780e-01
  -3.760052e+01   1.355707e+01
  -1.010348e+02  -2.328150e+01
  -1.139094e+02  -2.963142e+01
  -5.024995e+01  -1.099212e+02
   1.201673e+02  -1.407895e+02
   1.493579e+02  -1.963322e+01
   8.155273e+01   1.100345e+02
   2.462562e+01   1.046234e+02
  -1.468071e+01   7.402719e+01
  -1.459555e+02   2.948227e+01
  -6.493210e+01  -2.647505e+00
  -5.180769e+01  -3.327169e+01
   2.843131e+00  -1.152420e+01
   1.634963e+01   9.575780e+00
  -3.106118e+01  -5.290171e+01
   2.905279e+01  -6.412177e+01
   7.569783e+01  -4.986214e+01
   1.204406e+02   2.527084e+01
   4.183242e+01   9.310279e+01
   1.494614e+00   1.089423e+02
  -4.825224e+01   3.478428e+00
  -8.385012e+01  -4.955474e+01
  -6.179817e+01  -7.660410e+01
   8.331910e+01  -7.454839e+01
   7.891135e+01  -7.240454e+00
   2.480335e+01   6.513348e+01
   4.363174e+00   2.960273e+01
  -5.088685e+01   2.212668e+01
   4.805383e+01  -3.785443e+01
   3.258113e+00  -5.916053e+01
   1.988451e+01   6.604804e+01
  -7.212634e+01   7.483325e+01
  -1.140309e+02   8.559714e+01
  -8.878320e+01  -3.265232e+01
   1.196218e+01  -1.187332e+02
   7.480389e+01  -1.157404e+02
   2.341321e+01   2.844539e+01
  -2.982427e+01   1.424706e+02
  -4.606098e+01   5.629946e+01
  -3.188319e+01  -4.220198e+01
  -4.166409e+01  -5.474803e+00
   4.240830e+00   2.168701e-01
   1.397001e+01  -3.582585e+01
   3.505870e+01   1.125302e+01
  -1.973450e+01   7.604896e+00
  -3.879054e+00   3.912457e+01
  -4.317596e+01   3.084730e+01
  -2.810450e+01   6.084171e+01
   5.594589e+00   3.174004e+01
  -6.262369e+01   4.853593e+01
  -4.426588e+01  -2.092815e+01
  -7.729046e+00  -1.723771e+01
   2.931286e+01   3.133553e+01
   6.190713e+01  -2.370015e+01
  -5.616951e+01   8.526817e+01
  -2.392331e+01   1.286885e+01
  -7.105794e+01  -2.014217e+01
  -1.482746e+01  -8.784332e+01
   5.615514e+01  -1.781575e+01
   4.410764e+01   7.115851e+01
   4.020494e+01  -2.983752e+01
  -6.698644e+01   6.162126e-01
  -1.936925e+01  -2.040699e+01
   4.350344e+01  -2.122664e+01
   7.752299e+01  -9.766691e+00
