
 $NMID
 id='ANONYMOUS ', fmtdat='(2E16.6)'
 volume=1.0
 tramp=1.0
 $END
  -3.397582e+03   4.544687e+01
  -1.932776e+03  -2.010683e+03
   6.642718e+02  -2.132055e+03
   1.673131e+03  -6.055180e+02
   6.431177e+02   6.671452e+02
  -5.976775e+02   4.627742e+02
  -7.233204e+02  -4.273610e+02
   1.772188e+01  -8.905078e+02
   6.555852e+02  -5.653545e+02
   6.930554e+02   1.336786e+02
   2.967900e+02   6.508448e+02
  -2.041009e+02   6.475832e+02
  -5.086409e+02   8.735622e+01
  -3.567087e+02  -5.487920e+02
   2.607689e+02  -5.709494e+02
   5.281466e+02   3.707746e+01
   2.425943e+02   5.483576e+02
  -2.745445e+02   4.459992e+02
  -4.533312e+02   2.138086e+01
  -2.971483e+02  -2.712829e+02
  -4.599226e+01  -3.021026e+02
   1.726864e+02  -2.309274e+02
   1.922562e+02  -2.446410e+01
  -9.529961e+01   7.370654e+01
  -2.765513e+02  -6.513557e+01
  -1.859346e+02  -3.401868e+02
   3.641227e+02  -3.740108e+02
   6.890612e+02   8.633572e+01
   3.275264e+02   4.636711e+02
  -3.521814e+02   3.607146e+02
  -5.760006e+02  -3.364125e+01
  -2.634097e+02  -3.104955e+02
   1.841296e+02  -3.820463e+02
   4.258148e+02  -1.632418e+02
   3.317208e+02   2.347089e+02
  -2.694966e+01   3.655399e+02
  -1.962991e+02   1.811000e+02
  -1.563105e+02  -2.090685e+02
   1.383111e+02  -3.293562e+02
   4.172335e+02  -8.007807e+00
   1.997402e+02   5.119855e+02
  -2.025838e+02   5.482625e+02
  -4.661303e+02  -2.484390e+01
  -1.571993e+02  -4.670678e+02
   2.744728e+02  -2.703857e+02
   3.046387e+02   2.237708e+02
  -5.124897e+01   3.561361e+02
  -3.969252e+02   9.103781e+01
  -4.679470e+02  -3.081700e+02
  -1.529833e+02  -4.838437e+02
   2.836065e+02  -2.801958e+02
   4.382879e+02   5.855059e+00
   2.606074e+02   3.052952e+02
  -1.779476e+02   2.552295e+02
  -3.607815e+02   5.948855e+01
  -1.497995e+02  -2.147410e+02
   7.750727e+01  -9.227380e+01
   1.422075e+02   6.382199e+01
  -8.187521e+01   1.162217e+02
  -2.773962e+02  -3.180895e+01
  -8.980049e+01  -2.247266e+02
   2.069865e+02  -1.830503e+02
   2.364626e+02  -2.229798e+01
   6.901147e+01   9.517278e+01
  -1.498412e+01   1.590559e+02
  -1.357830e+02   2.743938e+02
  -2.801423e+02   1.792100e+02
  -1.955442e+02  -1.159678e+02
  -8.679741e+01  -3.551740e+02
   9.887769e+01  -2.887508e+02
   1.391227e+02  -1.000178e+02
  -1.177412e+01   2.907496e+01
   6.307762e+00  -5.019555e+01
   1.554146e+02  -9.367212e+01
   2.627270e+02  -1.829284e+01
   1.559111e+02   1.827415e+02
  -3.426759e+01   2.368171e+02
  -1.364670e+02   4.054188e+00
  -1.592959e+02  -1.679197e+02
  -3.422447e+00  -2.493409e+02
   1.883214e+02  -6.153781e+01
   3.035559e+02   1.200366e+02
   1.167055e+02   3.022194e+02
  -4.927284e+01   2.658518e+02
  -2.020507e+02   8.618297e+01
  -1.162989e+02  -3.209123e+01
  -6.232905e+01   4.642486e+01
  -1.915066e+02   1.603924e+01
  -2.844865e+02  -2.804028e+01
  -2.363799e+02  -2.291543e+02
  -5.374019e+01  -3.364728e+02
   2.404844e+02  -3.023687e+02
   3.239872e+02  -1.970615e+02
   2.533252e+02   6.769217e+01
  -6.929196e+00   2.283516e+02
  -1.491010e+02   1.954391e+02
  -8.885988e+01   4.359761e+01
   1.034657e+02  -1.237496e+02
   1.725992e+02   3.403744e+01
   7.821661e+01   1.705266e+02
  -1.062854e+02   1.641842e+02
  -1.666748e+02  -6.461027e+01
  -2.533569e+01  -1.507738e+02
   1.476804e+02  -2.888290e+01
   1.281962e+02   2.121837e+02
  -2.712285e+01   2.799410e+02
  -1.551358e+02   1.621523e+02
  -1.984689e+02  -1.432233e+02
  -1.835132e+02  -1.079539e+02
  -2.955480e+01  -2.293237e+02
   9.397589e+01  -1.766307e+02
   1.289665e+02  -3.423016e+01
   3.986137e+01  -1.433849e+00
  -6.996205e+01   1.989897e+00
  -2.576378e+01  -8.864315e+01
   1.137657e+02  -7.101082e+01
   1.620042e+02   2.112789e+01
   3.942636e+01   4.763647e+01
  -5.697093e+01   4.468162e+01
  -6.770698e+01  -6.486494e+01
   6.749970e+01   1.577697e+01
   1.932451e+02  -2.525711e+00
   1.516328e+02   1.412657e+02
   4.239700e+01   2.230392e+02
  -1.597448e+02   1.923844e+02
  -2.149250e+02   1.238937e+02
  -1.712643e+02   3.992685e+00
   4.100074e+01  -6.563850e+01
   8.075367e+01  -2.275773e+01
  -3.530971e+01   1.134327e+02
  -1.433033e+02   4.064149e+01
  -1.155144e+02  -7.224255e+01
  -7.444118e+01  -1.493322e+02
   9.342870e+01  -1.106076e+02
   1.246583e+02  -2.692547e+01
   1.370925e+01   2.240385e+01
  -2.825893e+01  -1.168352e+01
  -6.061424e+01  -4.242745e+01
   4.175949e+01  -4.556070e+01
   1.418164e+02  -3.227131e+00
   9.949154e+01   1.071249e+02
  -4.373619e+00   1.061612e+02
  -1.120046e+02   6.103587e+01
  -1.338721e+02  -2.542467e+01
  -3.224760e+01  -5.095140e+01
   1.281047e+02  -1.380241e+02
   1.068338e+02  -4.463028e+01
   2.154990e+01   5.378780e+01
  -2.594360e+01   1.129541e+01
  -1.392201e+01   4.164267e+01
   8.473525e+01  -4.132959e+00
   9.217327e+01   6.867993e+01
   1.116922e+01   1.052423e+02
  -3.894645e+01   1.097484e+02
  -1.511461e+02   5.962385e+01
  -8.650412e+01  -9.407118e+01
  -1.558322e+01  -1.793331e+02
   7.768381e+01  -9.543400e+01
   1.243525e+02  -1.118756e+01
   7.658250e+01  -2.708567e+01
   1.272850e+01   4.871202e+01
   7.001780e+01  -4.035739e+01
   3.882553e+01  -1.374638e+00
  -1.938285e+00   1.848651e+01
   3.502947e+01   2.131107e+01
  -7.941504e+01   6.302561e+01
  -1.100961e+02  -7.766209e-01
   1.375885e+01  -1.200412e+02
   1.110523e+02  -5.859131e+01
   1.496159e+02   2.950380e+01
   6.794449e+01   1.140440e+02
  -1.134563e+02   1.212313e+02
  -1.509644e+02   6.896070e+01
  -1.899549e+02  -2.497462e+01
  -8.430181e+01  -1.305862e+02
   1.989087e+01  -1.417808e+02
   7.048615e+01  -1.657402e+01
   1.189991e+02  -7.221506e+01
  -3.399826e+00  -8.212174e+01
   1.087905e+02  -9.255723e+01
   3.031232e+01   1.707889e+01
   1.089449e+02   1.078419e+02
   1.560848e+01   2.172863e+02
  -5.322037e+01   1.737626e+02
  -7.975068e+01  -6.932346e+00
  -6.818062e+01  -6.048516e+01
  -3.610488e+01  -1.159073e+02
   3.293571e+01  -1.302268e+02
   5.457734e+01   1.363537e+01
   3.724528e+01   1.736083e+01
  -2.504637e+01   6.100820e+01
   9.858108e+00  -3.813045e+01
   8.394721e+01  -1.353790e+01
   2.694625e+01   6.241450e+01
  -4.049660e+01   1.232038e+01
  -1.677889e+02  -8.091343e-01
  -5.812881e+01  -1.231802e+01
  -2.540215e+01  -6.086749e+01
   1.045042e+02  -5.514917e+01
   8.420920e+01   9.260481e+00
   6.555318e+01   5.271014e+01
  -4.702241e+01  -1.421140e+01
  -2.370968e+01   1.441022e+01
  -2.704777e+01  -4.140498e+01
   3.512593e+01  -1.215909e+01
   6.019161e+01   4.681654e+01
   5.200324e+01   1.190355e+02
   1.341316e+01  -1.415208e+01
   9.469376e+01  -1.739904e+01
   1.067338e+01  -7.122524e+01
  -9.006297e+00   5.673020e+01
  -7.655894e+00   8.295185e+01
  -9.495988e+01   1.001235e+02
  -5.203557e+01   3.044376e+00
  -4.149583e+01  -3.260262e+01
  -5.234949e+01  -7.998733e+01
   9.648457e+01  -5.921229e+01
   4.845472e+01   1.820982e+01
  -4.254886e+01   3.637209e+01
  -1.176339e+02  -7.472842e+01
  -6.758248e+01  -6.244292e+01
   6.066681e+01  -1.250891e+02
   1.454217e+02  -3.501897e+01
   8.010234e+01   7.854986e+01
   1.360673e+01   4.752028e+01
  -1.052555e+02   7.102690e+01
   1.918041e+01   3.494023e+01
   4.618342e+01   2.411797e+01
   7.639385e+01   7.517718e+00
   1.555108e+01   1.050355e+02
  -8.568010e+01   1.411009e+02
  -9.067133e+01   1.119848e+01
  -9.169944e+01  -1.010276e+02
  -1.710049e+00  -1.557040e+02
   6.172118e+01  -1.000155e+02
   6.970876e+01   1.559741e+01
   7.874693e+01   6.962567e+01
   2.751209e+01   1.062172e+02
  -2.104571e+01   4.350023e+01
  -2.860909e+01  -3.275323e+01
   3.281996e+01  -1.014139e+01
   3.562907e+01   2.869182e+01
   2.889345e+00  -8.805319e+00
  -5.926642e+01  -6.858762e+01
  -2.792631e+01  -8.113649e+01
  -5.407482e+00  -4.357192e+01
   1.038258e+02   1.812700e+01
   8.504170e+01   2.268107e+01
   2.312197e+01  -1.305941e+01
  -6.996164e+01   2.227461e+01
  -7.005640e+01   6.355101e+01
  -5.801307e+00  -3.813737e+00
   7.049130e+01  -2.923302e+01
   1.790977e+01  -2.647661e+01
  -2.970580e+01   1.937889e+01
  -2.100900e+01   6.557031e+01
   9.586180e+01  -6.872205e+00
   5.955269e+01   4.363532e+01
  -1.326445e+01   9.822995e+01
  -7.243188e+01   7.626269e+01
  -1.070985e+02   6.116665e+01
  -1.170834e+02  -4.535563e+01
  -3.210046e+01  -1.765544e+02
   3.713441e+01  -1.020281e+02
   9.295421e+01  -3.843423e+01
   1.385287e+02  -9.647655e+00
   2.514747e+01   3.571487e+00
   7.900481e+01   1.241275e+01
   4.751022e+00  -8.913328e+00
   6.423510e+01   6.356137e+01
   1.809153e+01   7.408285e+01
   1.302437e+01   5.624019e+01
  -4.460501e+01  -1.420838e+01
  -7.689944e+01  -6.976910e+01
   4.274877e+01  -5.357467e+01
   6.317758e+01  -2.581556e+00
   6.042873e+01   5.207524e+01
  -2.705596e+01   9.135385e+01
  -3.984763e+01   6.076006e+01
  -7.273742e+01   2.571694e+01
  -5.650630e+01  -3.671964e+01
   4.892306e+01  -6.785854e+01
  -1.749665e+01  -4.533892e+01
  -1.005489e+01  -2.197302e+01
  -4.919499e+01  -3.387914e+01
   1.229993e+01  -3.134128e+01
   3.739965e+01  -3.633188e+01
   5.448833e+01  -1.719893e+01
   8.458504e+01  -9.815070e+00
  -3.764599e+01   4.647019e+01
  -1.416850e+01   4.943662e+00
   4.894506e+00  -8.732358e+00
   1.202946e+00  -2.402563e+01
   5.037907e+01  -3.182944e+01
   4.575558e+01   7.745587e+01
   4.039238e+01   4.286196e+01
   4.946631e+00   2.228938e+00
  -3.488850e+01   4.703995e+01
  -5.861727e+01   3.105810e+00
  -2.802903e+01  -1.069241e+01
  -7.675237e+01   1.421983e+00
   1.727735e+01   4.121027e+01
  -1.319941e+01  -1.668688e+01
   7.072471e+01  -3.838305e+01
  -2.032410e+01   2.502584e+01
   7.180781e+01   5.680938e+01
  -3.756115e+00   2.548645e+01
  -2.597229e+01   2.137170e+01
  -9.456681e+01  -8.004939e+00
  -3.807817e+01  -3.773844e+00
  -1.520948e+01  -2.130393e+01
   9.378807e+01   1.232794e+01
   5.821423e+01   2.751156e+00
  -6.089793e+01   3.075676e+01
  -4.163592e+01  -3.571808e+00
   1.351473e+01  -1.151786e+01
   1.683820e+01  -1.667878e+01
  -1.732047e+01   8.911870e+00
  -5.363730e+01  -1.508056e+01
  -5.122397e+01   2.199585e+01
