
 $NMID
 id='ANONYMOUS ', fmtdat='(2E16.6)'
 volume=1.0
 tramp=1.0
 $END
   2.666911e+03   1.075891e+01
   1.469439e+03   1.545738e+03
  -5.295427e+02   1.662314e+03
  -1.274013e+03   4.319901e+02
  -5.435242e+02  -4.473628e+02
   4.586588e+02  -4.032179e+02
   5.504136e+02   2.833854e+02
  -4.938982e+01   6.591642e+02
  -5.503102e+02   4.633917e+02
  -5.594246e+02  -8.345491e+01
  -2.393712e+02  -5.011101e+02
   1.544576e+02  -5.136310e+02
   3.823458e+02  -2.999011e+01
   2.333921e+02   3.897622e+02
  -1.568690e+02   4.290721e+02
  -3.944279e+02  -2.318983e+01
  -1.822905e+02  -4.008025e+02
   1.863021e+02  -3.615905e+02
   3.458770e+02   9.958379e+00
   2.721407e+02   2.188556e+02
   2.275097e+01   2.654753e+02
  -1.773550e+02   1.050391e+02
  -1.928872e+02   1.890057e+01
   1.204456e+01  -1.309776e+02
   2.291223e+02  -1.450858e+01
   1.922600e+02   2.521019e+02
  -2.365420e+02   1.795449e+02
  -5.216915e+02  -2.334497e+01
  -2.834504e+02  -3.028590e+02
   2.618565e+02  -3.208155e+02
   4.808813e+02   1.736146e+01
   2.749428e+02   2.693930e+02
  -1.403982e+02   2.676537e+02
  -3.332255e+02   1.022462e+02
  -2.426103e+02  -1.332910e+02
  -7.640827e-01  -3.458820e+02
   1.858560e+02  -1.954996e+02
   8.789702e+01   5.632345e+01
  -9.649969e+01   2.826741e+02
  -2.665476e+02   4.297531e+01
  -1.595102e+02  -4.080214e+02
   1.849634e+02  -3.773587e+02
   3.145992e+02  -6.627084e+01
   1.600105e+02   3.755989e+02
  -1.713631e+02   1.565327e+02
  -2.172607e+02  -2.081857e+02
   4.405646e+01  -3.211869e+02
   3.212649e+02  -8.831804e+01
   3.162454e+02   2.414472e+02
   7.858854e+01   3.452370e+02
  -2.145830e+02   2.229029e+02
  -3.570261e+02  -5.594459e+01
  -2.020510e+02  -2.498358e+02
   1.062508e+02  -2.655327e+02
   2.212876e+02  -3.365096e+01
   1.156655e+02   1.631602e+02
  -1.033255e+02   4.971391e+01
  -8.945278e+01  -1.506271e+02
   1.068002e+02  -1.005321e+02
   2.081307e+02   7.374166e+00
   7.885323e+01   1.763868e+02
  -1.175041e+02   1.585681e+02
  -1.483011e+02   6.187869e+01
  -1.100062e+02  -3.338819e+01
   3.415985e+01  -1.233061e+02
   9.783606e+01  -1.241320e+02
   2.061013e+02  -9.800649e+01
   1.659205e+02   4.317030e+01
   3.746708e+01   2.450690e+02
  -6.201438e+01   2.473263e+02
  -8.063949e+01   7.314754e+01
   7.480809e+00   5.396050e+01
  -3.567834e+01   7.160599e+01
  -9.043367e+01   9.512385e+01
  -1.411980e+02  -3.012052e+01
  -5.050486e+01  -1.688736e+02
   3.666653e+01  -1.915462e+02
   5.508844e+01  -8.309812e-01
   1.314174e+02   1.112346e+02
  -2.499012e+01   1.466991e+02
  -1.442425e+02   1.069668e+02
  -1.844878e+02  -1.356925e+02
  -1.307317e+02  -2.220638e+02
   1.042610e+02  -1.701924e+02
   1.661592e+02  -5.589316e+01
   4.921787e+01   6.856478e+00
  -2.437851e+00  -1.970893e+01
   1.325247e+02   2.958641e+01
   2.587317e+02   5.269168e+01
   1.559248e+02   1.416279e+02
   8.795453e+00   2.649341e+02
  -2.228538e+02   2.598204e+02
  -2.875109e+02   8.289670e+01
  -1.683821e+02  -5.347572e+01
  -5.440414e+01  -1.883856e+02
   5.220229e+01  -1.246391e+02
   8.781834e+01  -4.302116e+01
  -3.960503e+01   9.699435e+01
  -1.510050e+02  -1.454386e+01
  -5.683266e+01  -1.353141e+02
   1.209965e+02  -7.690048e+01
   1.064620e+02  -2.351488e+01
   7.245748e+01   1.274089e+02
  -1.288228e+02  -9.011361e-01
  -8.027829e+01  -7.510202e+01
   3.225592e+01  -1.935517e+02
   9.134401e+01  -1.219534e+02
   1.927966e+02   2.293824e+01
   1.885269e+02   1.394623e+02
   4.957842e+01   8.806717e+01
  -5.611800e+01   8.388964e+01
  -8.594622e+01   4.943557e+01
   1.435866e+01  -5.671927e+01
   4.679735e+01   7.617178e+01
   9.143867e+00   6.310458e+01
  -1.314742e+02   8.022188e+01
  -1.222344e+02  -4.410378e+01
  -6.983882e+00  -8.375048e+01
   9.020344e+01  -8.814328e+00
   2.002871e+01  -2.239222e+00
  -8.027796e+01   5.679558e+01
  -1.691389e+02  -2.242145e+01
  -1.934294e+02  -6.949005e+01
  -4.946769e+01  -1.576690e+02
   1.113724e+02  -1.981181e+02
   1.616129e+02  -7.057357e+01
   1.007966e+02   3.864786e+01
  -2.438612e+01   2.763173e+00
  -7.808955e+01   5.471909e+01
   6.000613e+01  -1.051830e+02
   1.412233e+02  -2.851196e+01
   1.160409e+02   7.182661e+01
   6.131323e+01   1.168862e+02
  -6.639514e+01   7.037946e+01
  -8.208170e+01   7.301419e+01
  -6.889385e+00  -6.927138e+01
   2.889754e+01   4.810370e+01
   6.824119e+01   3.283838e+01
  -3.983371e+01   5.348664e+01
  -5.684321e+01   1.912318e+01
  -1.278280e+02  -7.537878e+01
  -2.361940e+01  -1.543369e+02
   7.457866e+01  -4.932027e+01
   1.495593e+02   1.647414e+01
   4.699117e+01   5.270607e+01
  -5.556525e+01   1.075025e+02
  -9.512075e+01   5.630370e+01
  -3.162029e+00  -1.450383e+00
   6.744182e+01   1.645352e+01
  -1.280623e+01  -9.930652e+00
  -3.911873e+01  -7.118923e+00
   3.410551e+01  -1.936862e+01
  -5.661275e+01  -2.220548e+01
   5.837792e+01  -1.106867e+02
   1.344455e+02  -2.909053e+01
   9.543741e+01   1.043636e+02
   2.379386e+01   1.294351e+02
  -8.776511e+01   3.832439e+01
  -7.795078e+01   1.948941e+01
   1.058035e+01  -3.142783e+01
  -3.885222e+01  -1.093357e+01
  -2.889370e+01  -3.530100e+01
  -6.952205e+01  -2.940274e+01
  -8.938689e+00  -1.371157e+01
   1.679125e+01  -3.435594e+01
   6.312476e+01  -2.776153e+01
   9.926479e+01   2.835126e+01
   2.994150e+00   5.226823e+01
  -6.605277e+01   1.447487e+01
  -9.275696e+01  -4.670702e+00
  -5.067685e+01  -1.117685e+02
   2.708699e+01  -1.264134e+02
   1.700998e+02  -8.968954e+01
   1.668699e+02   9.274045e+01
   5.634940e+01   9.631628e+01
  -7.933899e+00   6.305261e+01
  -1.081293e+02   9.261677e+01
  -5.459038e+01   2.560999e+01
  -3.788121e+01   5.006133e+01
  -2.181181e+01   2.090766e+01
  -7.599008e+01  -3.458645e+01
  -7.908687e+01  -9.618413e+01
   5.554506e+00  -1.487866e+02
   4.665564e+01  -1.074885e+02
   7.733606e+01  -2.553563e+01
   3.564403e+01   1.365566e+02
   1.742875e+01   9.960553e+01
  -4.255370e+01  -1.149637e+01
   1.444967e+01   4.410481e+01
  -1.588605e+00  -2.580589e+01
  -2.236872e+01  -1.653962e+00
  -2.829795e+01  -1.242820e+01
  -3.766108e+01   2.651496e-01
   2.800663e+00  -8.192992e+01
  -1.028796e+00  -3.840783e+01
   1.016534e+02   1.639691e+01
   6.583907e+01  -6.758989e-01
   2.704138e+01   8.048422e+01
  -6.911499e+01   3.668053e+01
  -1.129359e+02   5.861953e+00
  -2.052374e+01  -3.151117e+01
   2.953391e+01   4.255173e+01
   5.755014e+01   2.624072e+01
   2.035521e+01   9.367758e+01
   1.388438e+00   1.340105e+01
  -2.504077e+01  -6.439754e+00
   2.624040e+01  -5.957875e+01
  -2.073429e+01  -5.006033e+01
  -4.666193e+01  -9.778742e+00
  -2.598993e+00  -2.565054e+01
  -5.437358e+00  -3.478037e+01
   6.884673e+01  -6.803802e+01
   4.049289e+01  -8.159825e+01
   7.241745e+01  -3.127483e+01
   6.970589e+01   7.331285e+01
   4.700701e+01   4.780880e+01
  -5.971014e+01   3.486596e+01
  -1.319308e+01   4.110412e+01
  -2.296447e+01  -5.529395e+00
   9.724520e+01   2.808345e+01
   1.767113e+01   6.981887e+01
  -2.669033e+01   5.573519e+01
  -6.585021e+01   1.806586e+00
  -8.908406e+01   2.952982e+01
  -2.932404e+01  -3.800276e+01
   2.761271e+01  -4.657737e+01
   2.334350e+01   1.146681e+01
  -3.396717e+00   2.370928e+01
  -1.742520e+01   2.548630e-01
   7.444001e+00  -7.235514e+01
   5.061976e+01  -1.314077e+02
   1.276350e+02  -9.649418e+01
   7.421192e+01   2.510920e+01
  -1.644017e+01   1.473493e+02
   1.115049e+01   7.984161e+01
  -8.936564e+01  -2.119890e+01
  -8.681237e+01  -7.314636e+01
  -4.653185e+01  -7.390385e+01
  -3.982897e+00  -5.538734e+01
   9.779243e+00   5.637342e+00
  -6.308403e+00   2.262359e+01
  -9.108738e+00   2.823464e+01
   2.439331e+00  -3.822477e+01
   6.092357e+01   1.781428e+01
   2.865583e+01   4.534138e+01
   7.266984e+00   2.552925e+01
  -9.401172e+01   5.533777e+00
  -9.054472e+01  -5.080409e+01
   3.354689e+01  -5.588634e+00
   9.065319e+01  -5.394564e+00
   3.675128e+01  -2.593482e+01
  -2.232037e+01  -2.137908e+01
   3.094314e+01   3.539380e+01
  -7.897701e+00   2.870718e+01
  -4.027988e+01  -2.856893e+01
  -1.708130e+01   2.651061e+00
   1.294482e+01   4.056409e+01
  -8.387767e+01  -1.353140e+01
   7.133778e+00   5.615745e+00
   1.124587e+02  -4.153379e+01
   9.026931e+01  -2.919106e+01
   8.158967e+01   7.014650e+01
   7.865361e+01   5.916573e+01
  -5.214656e+01   6.008167e+01
  -7.586996e+01   5.775026e+01
  -1.622881e+01   1.223418e+01
   4.260872e+01   1.047180e+01
  -2.349100e+01  -6.561896e+01
  -4.300354e+01   3.888689e+01
  -3.834120e+01  -3.375465e+01
  -1.690353e+01  -5.681834e+01
  -3.164223e+00  -6.453012e+01
   4.091651e+01   5.551930e+01
   8.402985e+01   4.874158e+01
   9.643459e+00   2.715912e+01
  -1.575132e+01  -2.292217e+01
   2.533457e+01  -1.201638e+02
  -2.421437e+01  -8.741758e+01
   1.972304e+01   2.734057e+01
   5.497425e+01  -1.032420e+01
   3.506859e+01   2.743761e+01
  -2.287339e+01  -1.339249e-01
  -5.371431e+01   5.019877e+01
   3.039448e+01   4.241956e+01
  -3.674820e+01  -2.935739e+00
  -4.149736e+01   4.237330e+01
  -5.509174e+01   2.978407e+01
  -2.131468e+01   4.380688e+01
  -6.182986e+01   1.481436e+01
   4.703198e+01  -2.866080e+01
   5.679623e+01  -7.332435e+01
   2.520028e+01   3.019241e+01
  -2.611778e+01   2.061966e+01
  -1.512213e+01   3.273192e+01
  -1.897673e+01  -3.691785e+01
  -4.101716e+01  -4.069487e+01
  -1.348883e+01  -6.055498e+01
   2.909369e+00   2.925163e+00
  -2.509948e+01   4.554911e+01
   1.291507e+01  -2.666252e+01
  -1.673550e+01   6.644564e+00
  -1.030418e+01   3.896849e+01
  -4.177587e+01   3.439897e+01
  -2.931611e+01   9.511194e+00
  -5.796170e+01   1.638987e+01
   2.126809e+01  -1.186331e+01
   2.069947e+01  -7.278030e+01
   5.321316e-01   1.333775e+01
  -1.386501e+01   8.038697e+00
   9.202025e+00   1.624452e+01
  -1.257050e+01   1.069521e+01
  -5.797327e+01   3.341930e+01
   2.125462e+00  -8.577444e+00
   2.591377e+01  -5.117848e+00
   4.994822e+01  -2.215669e+01
   3.116606e+01   3.799174e+00
  -1.327849e+01  -4.785165e+01
  -4.718407e+00  -7.722420e+01
   4.029551e+01   3.377865e+01
   8.586750e+01  -3.717408e+01
