
 $NMID
 id='ANONYMOUS ', fmtdat='(2E16.6)'
 volume=1.0
 tramp=1.0
 $END
   4.347547e+03   1.123189e+01
   2.508422e+03   2.652445e+03
  -7.834581e+02   2.828411e+03
  -2.181672e+03   8.745363e+02
  -9.840618e+02  -7.422912e+02
   6.648402e+02  -6.397474e+02
   8.974631e+02   4.664303e+02
  -7.616419e+01   1.092091e+03
  -8.762361e+02   7.629895e+02
  -9.625099e+02  -1.190495e+02
  -4.426589e+02  -8.474718e+02
   3.111766e+02  -8.928780e+02
   6.929117e+02  -1.200535e+02
   3.615545e+02   7.517589e+02
  -2.850812e+02   7.700662e+02
  -6.566185e+02  -1.513323e+01
  -2.590032e+02  -7.329095e+02
   3.051028e+02  -6.457490e+02
   5.690087e+02  -1.044066e+02
   3.944714e+02   3.806013e+02
   3.851926e+01   4.496330e+02
  -2.689493e+02   2.302427e+02
  -2.037009e+02   1.538731e+01
   1.239685e+02  -1.602584e+02
   4.175258e+02   1.303949e+02
   1.719649e+02   4.592105e+02
  -4.330766e+02   4.099593e+02
  -8.789129e+02  -7.387757e+01
  -4.480790e+02  -5.807701e+02
   3.731168e+02  -5.553363e+02
   7.819347e+02   2.719451e+01
   3.748577e+02   5.098841e+02
  -2.670651e+02   5.280150e+02
  -5.346872e+02   2.465994e+02
  -4.509703e+02  -2.238982e+02
  -2.152713e+01  -4.825735e+02
   1.950762e+02  -2.690662e+02
   1.363181e+02   2.229668e+02
  -1.416392e+02   4.637206e+02
  -4.803293e+02   4.297155e+01
  -2.528011e+02  -7.014382e+02
   3.203960e+02  -7.850294e+02
   6.138353e+02  -1.066449e+01
   2.418178e+02   5.853202e+02
  -2.896062e+02   2.427321e+02
  -4.243933e+02  -3.189053e+02
   9.508053e+01  -5.576437e+02
   5.384660e+02  -1.268668e+02
   5.980897e+02   3.841395e+02
   1.815335e+02   5.914206e+02
  -3.592178e+02   3.694258e+02
  -6.408317e+02  -9.205050e+01
  -3.448253e+02  -4.538734e+02
   1.491263e+02  -4.125913e+02
   4.461595e+02  -9.970935e+01
   2.651427e+02   2.108154e+02
  -1.282122e+02   9.784570e+01
  -1.236262e+02  -1.873867e+02
   2.109164e+02  -1.941441e+02
   3.764085e+02   7.212567e+01
   1.213727e+02   2.963608e+02
  -1.440451e+02   2.664571e+02
  -3.586320e+02   6.501031e+01
  -2.177797e+02  -1.116526e+02
   7.423355e+00  -2.073933e+02
   2.409714e+02  -3.738285e+02
   3.351872e+02  -1.693142e+02
   2.673286e+02   1.561335e+02
   1.101428e+02   4.480572e+02
  -1.313884e+02   4.270364e+02
  -1.291686e+02   1.478107e+02
  -2.172145e+01  -1.417580e+01
  -2.824868e+00   6.822056e+01
  -2.057078e+02   1.707467e+02
  -2.717095e+02  -5.714386e+01
  -1.741928e+02  -2.716080e+02
   1.068465e+02  -2.482759e+02
   2.197234e+02  -3.384159e+01
   2.698839e+02   2.110087e+02
   7.241593e+00   3.040615e+02
  -2.357258e+02   9.990942e+01
  -3.135163e+02  -1.278744e+02
  -1.681691e+02  -3.982978e+02
   2.923755e+00  -3.279436e+02
   2.279720e+02  -1.595467e+02
   1.649893e+02   5.967929e+01
   1.131862e+02   1.323233e+01
   1.720769e+02  -4.423320e+01
   3.711848e+02   9.488257e+01
   3.212784e+02   3.362011e+02
  -5.816329e+01   4.503621e+02
  -3.824884e+02   4.172976e+02
  -5.227489e+02   1.821444e+02
  -3.444675e+02  -1.413095e+02
  -2.200054e+01  -2.861702e+02
   1.577149e+02  -2.983688e+02
   9.025652e+01  -6.037562e+01
  -9.195804e+01   7.953392e+01
  -1.768166e+02  -3.446844e+01
  -2.250638e+01  -2.099858e+02
   2.264483e+02  -1.450027e+02
   1.922189e+02   6.469487e+01
   2.024500e+01   2.315659e+02
  -2.061017e+02  -6.627752e+00
  -1.979699e+02  -1.778715e+02
   3.849876e+01  -3.517410e+02
   2.306739e+02  -1.455292e+02
   3.168730e+02   6.293922e+01
   3.226408e+02   2.709106e+02
   1.403965e+02   3.178050e+02
  -8.490112e+01   1.661843e+02
  -2.075233e+02   7.780956e+01
  -5.236733e+01  -7.022059e+01
   3.070632e+01   2.164614e+00
   3.077146e+01   8.014628e+01
  -1.302467e+02   1.079712e+02
  -1.769563e+02   2.019430e+01
  -7.691403e+01  -1.319611e+02
   3.862479e+01   1.067398e+01
   5.276220e+01   7.762783e+01
  -1.130610e+02   1.131764e+02
  -3.022369e+02   1.840140e+01
  -2.025719e+02  -8.987018e+01
  -2.008292e+01  -2.548191e+02
   1.695942e+02  -2.310820e+02
   2.584568e+02  -1.367238e+02
   1.333921e+02   1.086211e+02
  -4.804480e+01   9.835358e+01
  -4.831514e+01   1.758357e+01
   1.190631e+01  -1.054634e+02
   1.988046e+02  -5.915153e+01
   2.141881e+02   1.127481e+02
   8.277135e+01   2.432990e+02
  -5.316919e+01   1.502759e+02
  -1.228644e+02   2.438999e+01
  -1.160481e+02  -9.306586e+01
   6.792661e+01  -2.136473e+01
   3.388512e+01   3.209230e+01
  -2.954020e+01   9.993775e+01
  -1.900807e+02   2.570214e+01
  -2.071167e+02  -9.166826e+01
  -4.932649e+01  -1.964714e+02
   1.184079e+02  -1.798163e+02
   2.185900e+02  -2.952410e+01
   3.329063e+01   1.268646e+02
  -7.464099e+01   1.093678e+02
  -1.037284e+02   2.092136e+01
  -4.552739e+01  -6.065556e+00
   3.019002e+01  -1.167469e+01
  -8.674984e+00   2.187512e+00
  -5.668799e+01   3.431097e+01
  -8.247134e+01  -7.146090e+01
  -4.200154e+01  -1.602683e+02
   1.218229e+02  -1.619167e+02
   2.660184e+02  -2.738480e+01
   1.939590e+02   1.721097e+02
   7.850264e+01   2.115906e+02
  -8.997826e+01   1.641924e+02
  -1.395067e+02   7.771615e+00
  -8.815550e+01  -6.191475e+01
  -2.406101e+01  -1.103126e+01
  -2.659144e+01   1.778435e+01
  -9.220382e+01  -1.774535e+01
  -5.899058e+01  -3.215412e+01
   2.044958e+00  -9.709631e+01
   9.662629e+01  -6.489185e-01
   6.591192e+01   6.356705e+00
   3.032708e+01   1.126445e+02
  -1.608516e+02   9.324590e+01
  -1.609881e+02  -1.867978e+01
  -8.124006e+01  -2.316259e+02
   6.808745e+01  -1.679107e+02
   2.747775e+02  -1.099324e+02
   2.584319e+02   4.218666e+01
   1.538981e+02   2.033097e+02
   7.350273e+00   1.446964e+02
  -1.278818e+02   1.042399e+02
  -4.284313e+01   3.959360e+01
  -8.378560e+01   8.876651e+01
  -4.901461e+01   8.928524e+01
  -6.639323e+01   2.913892e+00
  -1.224113e+02  -1.796599e+02
   1.163291e+01  -2.259745e+02
   1.156141e+02  -2.194986e+02
   2.343180e+02   6.773098e+00
   1.861645e+02   1.190545e+02
  -7.789685e+00   1.686303e+02
  -7.212500e+01   8.091471e+01
  -2.913913e+01   8.478105e+00
   4.742477e+00  -6.040709e+01
   2.256266e+01  -7.375671e+01
  -7.964162e+01  -1.315257e+01
  -6.715355e+01  -6.593270e+01
  -7.356927e+01  -6.589230e+01
  -9.407619e+00   1.643268e+01
   1.261968e+02  -1.939462e+01
   1.706162e+02   8.685303e+00
   4.358831e+01   3.516616e+01
  -5.667613e+01   6.989306e+01
  -2.143268e+02   1.084189e+01
  -6.526889e+01  -6.782467e+01
  -2.531228e-01  -9.278944e+01
   6.247171e+01   5.583497e+01
   6.056900e+01   4.535943e+01
   1.622019e+01   1.028197e+02
  -7.012990e+01   2.792884e+01
  -3.773449e+01  -1.927337e+00
  -1.947351e+01  -4.642663e+01
  -3.606695e+01   5.533789e+00
  -8.393917e+01  -3.696317e+01
  -5.348421e+01  -1.006629e+02
  -2.689464e+01  -1.545568e+02
   1.270559e+02  -1.268677e+02
   1.511432e+02  -1.590391e+01
   1.233233e+02   1.001331e+02
   3.536019e+00   2.357592e+01
   7.946466e+00   4.000909e+01
  -4.636663e+01  -1.300815e+01
   9.733359e+01   1.380537e+00
   1.608568e+02   3.401927e+01
   1.805927e+01   1.484097e+02
  -9.911332e+01   1.050991e+02
  -1.579587e+02   8.895385e+01
  -1.774873e+02   7.050668e+00
  -8.158341e+01  -6.227568e+01
   6.123997e+01  -6.794396e+01
   4.445428e+01  -2.543585e+01
  -2.643064e+01   1.273381e+01
  -1.140599e+02  -6.376567e+01
  -1.153605e+01  -1.259236e+02
   1.014459e+02  -1.361627e+02
   1.670045e+02  -5.869248e+01
   1.464148e+02   8.766751e+01
  -1.020469e+01   1.803827e+02
  -8.209510e+01   1.421606e+02
  -6.713092e+01  -1.017815e+01
  -6.045411e+01  -8.256862e+01
   1.786002e+00  -1.108172e+02
   2.267930e+01  -1.217055e+01
   4.100418e+01  -1.204535e+00
  -1.390224e+01  -1.255941e+00
  -5.244879e+01  -3.013427e+01
   7.542869e+00   5.079957e+01
   3.073828e+01   1.033464e+02
   3.130960e+01   1.107263e+02
  -5.402389e+01   9.040285e+01
  -1.120575e+02  -7.504422e+01
  -1.259146e+02  -9.461907e+01
  -1.539643e+01  -8.424316e+00
   1.130300e+02   3.968328e+00
   7.416677e+01   3.775284e+01
   9.648318e-01   3.289065e+01
  -5.412961e+00  -6.737038e+00
  -2.953444e+01   1.879878e+01
   1.268237e+01   2.563906e+01
  -1.644278e+01  -5.644949e+01
  -1.159802e+02  -4.615163e+01
  -3.867893e+01  -1.226516e+01
   9.985821e+00  -4.254743e+01
   1.436465e+02  -1.517495e+02
   1.135064e+02  -6.763324e+01
   9.759377e+01   1.031521e+02
   1.743493e+01   1.943815e+02
  -9.282200e+01   1.047193e+02
  -1.109303e+02   3.107179e+01
  -7.932943e+01  -1.914375e+01
   1.154499e+01  -5.405192e+01
   1.050249e+01   4.982197e+00
  -3.567984e+01  -3.658257e+01
  -9.814399e+01  -5.853983e+01
   3.996409e+00  -1.247454e+02
   3.145875e+01  -7.916332e+01
   6.989027e+01  -4.084598e+01
   2.897592e+01   9.288295e+01
   2.765528e+01   1.457422e+02
  -7.060837e+01  -3.617152e+00
  -5.219818e+01  -9.292948e+01
  -7.236798e+01  -1.102315e+02
   3.305419e+01  -5.390320e+01
   6.154041e+01   2.822177e+01
   5.627986e+01   5.119018e+01
  -1.299848e+01   6.535448e+01
  -4.695462e+01   7.261525e+01
   4.165371e+01   3.646493e+00
   8.493810e+01   2.420045e+01
   9.185824e+01   6.891077e+01
  -8.258668e+01   5.339746e+01
  -9.555169e+01   4.036839e+01
  -6.778781e+01  -1.448374e+01
   2.880597e+01  -1.065845e+02
   1.699412e-01  -5.390602e+01
   1.207765e+01  -1.472714e+01
  -3.741293e+01   7.151908e+01
  -1.962501e+01   9.420659e+00
  -5.502708e+01  -2.786306e+01
  -2.952779e+01  -4.888382e+01
  -3.318178e+00  -3.441291e+01
   1.465837e+01  -3.784997e+01
   7.925279e+01   2.241979e+00
   3.257555e+01   1.152075e+01
  -3.222354e+00   1.510324e+01
   3.405198e+01   5.333410e+01
   2.508891e+01   6.815162e+01
  -4.214037e+01   1.845508e+01
  -7.132184e+00   5.508939e+00
   1.239439e+01  -3.400039e+01
   1.180215e+01  -8.383791e+01
   3.867598e+01   4.839766e+01
   6.039672e+01   9.482746e+01
  -2.265405e+01  -4.225836e+01
  -7.516558e+01   4.664676e+01
  -7.992859e+01   6.168613e-01
  -3.151355e+01  -3.510151e+01
   4.894445e+01  -2.315972e+01
   2.542474e+01  -3.761719e+01
   2.780097e+01  -1.701443e+01
  -3.882223e+01  -9.357718e+01
  -9.542743e+01   6.288439e+00
   3.369559e+01   1.477327e+00
   4.063310e+01  -8.204267e+01
