
 $NMID
 id='ANONYMOUS ', fmtdat='(2E16.6)'
 volume=1.0
 tramp=1.0
 $END
   4.503499e+03  -7.361907e+01
   2.682673e+03   2.770574e+03
  -8.403330e+02   2.881438e+03
  -2.237171e+03   8.600352e+02
  -9.766820e+02  -7.764218e+02
   7.132771e+02  -6.920961e+02
   9.372025e+02   5.283973e+02
   1.999875e+01   1.126882e+03
  -9.153639e+02   7.680343e+02
  -1.041532e+03  -1.433732e+02
  -4.455949e+02  -9.329567e+02
   3.185248e+02  -9.086750e+02
   6.654435e+02  -1.338785e+02
   4.053158e+02   7.425622e+02
  -3.012350e+02   7.885908e+02
  -6.464080e+02   5.899384e+00
  -2.812778e+02  -7.711476e+02
   3.909136e+02  -7.032103e+02
   6.755849e+02  -7.115331e+01
   4.007506e+02   3.791379e+02
  -1.981078e+01   4.556251e+02
  -2.290436e+02   3.091095e+02
  -2.533015e+02  -1.894324e+01
   8.365711e+01  -6.355665e+01
   3.962412e+02   8.661067e+01
   2.364826e+02   4.302326e+02
  -4.600332e+02   4.552823e+02
  -9.197015e+02  -4.036790e+01
  -4.763201e+02  -5.647817e+02
   3.875222e+02  -4.903712e+02
   8.117020e+02   6.338004e+01
   3.752637e+02   5.014332e+02
  -2.748536e+02   5.271267e+02
  -5.399616e+02   2.032858e+02
  -4.364360e+02  -2.501213e+02
  -3.237685e+00  -5.247609e+02
   2.171797e+02  -3.011784e+02
   2.043813e+02   2.037121e+02
  -1.766568e+02   5.119232e+02
  -4.655413e+02   2.716636e+00
  -2.924017e+02  -6.913388e+02
   3.023251e+02  -7.902116e+02
   6.303792e+02  -3.444297e+00
   3.236195e+02   5.927995e+02
  -3.328783e+02   3.412300e+02
  -4.272436e+02  -3.491737e+02
   7.805842e+01  -6.206314e+02
   5.626024e+02  -1.365709e+02
   5.761979e+02   4.648515e+02
   1.520564e+02   5.961122e+02
  -3.718285e+02   3.749429e+02
  -6.795214e+02  -6.764848e+01
  -3.355077e+02  -3.598333e+02
   2.190725e+02  -3.525734e+02
   4.512578e+02  -2.309597e+01
   2.689498e+02   2.179509e+02
  -8.033318e+01   1.120504e+02
  -1.724207e+02  -2.008579e+02
   1.905646e+02  -1.834646e+02
   4.103223e+02   6.560524e+01
   1.367248e+02   3.387248e+02
  -2.294625e+02   2.574705e+02
  -2.943277e+02   1.113252e+02
  -1.280410e+02  -7.188504e+01
   3.248625e+01  -2.166613e+02
   2.307322e+02  -2.942918e+02
   3.460137e+02  -2.013515e+02
   2.473141e+02   1.367528e+02
   3.829052e+01   4.121810e+02
  -1.165545e+02   3.737708e+02
  -1.297821e+02   1.430826e+02
  -3.145041e+01  -1.507236e+01
  -1.392680e+00   7.754924e+01
  -1.906946e+02   1.461576e+02
  -2.717074e+02   2.147882e+01
  -1.963306e+02  -2.816917e+02
   5.326658e+01  -2.567406e+02
   2.601977e+02  -2.372298e+01
   2.459991e+02   2.505200e+02
   1.290015e+01   3.347142e+02
  -2.358373e+02   1.776896e+02
  -3.612620e+02  -1.478788e+02
  -1.739175e+02  -3.585612e+02
   1.524852e+02  -3.580118e+02
   2.612866e+02  -1.573378e+02
   1.989486e+02   9.208063e+01
   6.790704e+01  -5.035053e+00
   2.609389e+02  -2.884832e+01
   4.267095e+02   7.522052e+01
   2.406847e+02   2.705566e+02
   2.055622e+01   5.049104e+02
  -3.734968e+02   4.386769e+02
  -5.078847e+02   1.963246e+02
  -3.755632e+02  -1.110977e+02
  -7.201155e+01  -2.599748e+02
   1.740574e+02  -2.454341e+02
   1.171634e+02  -3.360647e+01
  -1.032684e+02   1.082983e+02
  -2.180581e+02  -9.948839e+00
  -6.190223e+01  -2.273555e+02
   1.630379e+02  -1.655778e+02
   2.226404e+02   3.887643e+01
   3.464542e+00   1.831615e+02
  -2.325537e+02   7.658450e+01
  -1.480261e+02  -2.473307e+02
   4.077738e+01  -3.563566e+02
   2.071450e+02  -1.345607e+02
   3.208468e+02   8.860060e+01
   3.448180e+02   2.462006e+02
   8.194100e+01   2.300899e+02
  -1.469377e+02   1.526386e+02
  -2.164526e+02   2.882711e+01
  -5.177193e+01  -7.265422e+01
   6.180612e+01   1.587877e+01
   9.976551e+00   1.441528e+02
  -1.389165e+02   1.201234e+02
  -1.536490e+02  -2.967433e+01
  -5.942870e+01  -8.110041e+01
   1.025900e+02  -7.858120e+00
   7.233586e+01   2.225995e+01
  -9.390679e+01   8.097696e+01
  -2.691213e+02   1.964142e+01
  -2.778224e+02  -8.437478e+01
  -6.283985e+01  -2.541686e+02
   2.333283e+02  -2.796820e+02
   2.824311e+02  -1.272631e+02
   2.073582e+02   8.422339e+01
  -2.955572e+01   9.803180e+01
  -1.022602e+02   5.388383e+01
   2.576560e+01  -1.249506e+02
   1.930566e+02  -7.422070e+01
   2.145933e+02   1.224574e+02
   9.638915e+01   2.368962e+02
  -1.474211e+02   1.615020e+02
  -1.633183e+02   1.991396e+01
  -1.072047e+02  -2.628555e+01
   2.257210e+01   2.934339e+01
   5.019504e+01   1.285141e+02
  -8.323294e+00   1.021216e+02
  -1.953103e+02   5.527401e+01
  -2.188640e+02  -9.821876e+01
  -1.236294e+01  -2.227773e+02
   1.623099e+02  -2.227566e+02
   1.685016e+02   2.193185e+01
   6.949859e+01   8.863738e+01
  -6.879587e+01   9.625568e+01
  -9.140013e+01   7.310394e+01
   7.294022e+01  -1.512075e+01
   1.516816e+01   5.325165e+01
  -2.009808e+01  -1.476285e+01
  -5.368313e+01   1.928310e+01
  -8.219070e+01  -1.405543e+02
  -2.916741e+01  -1.601416e+02
   1.042931e+02  -1.255492e+02
   1.987691e+02   4.514709e-01
   2.035247e+02   8.923235e+01
   6.775670e+01   2.226958e+02
  -1.077301e+02   1.939376e+02
  -5.312104e+01   4.881055e+01
  -8.727355e+01  -3.589492e+01
  -2.267590e+01   1.832147e+01
  -5.259200e+01   1.151169e+01
  -6.212196e+01  -2.267108e+01
  -4.256381e+01  -4.158218e+01
   1.539945e+00  -1.063924e+02
   1.382786e+02  -2.479163e+01
   4.488986e+01  -1.397931e+01
  -6.287976e+01   1.477266e+02
  -1.807334e+02   9.229639e+01
  -1.450960e+02  -6.665791e+01
  -9.414677e+01  -2.385751e+02
   7.705171e+01  -2.111270e+02
   2.890675e+02  -8.813532e+01
   3.069041e+02   1.198354e+02
   5.001106e+01   1.423159e+02
  -6.792070e+00   1.575465e+02
  -1.183200e+02   4.971003e+01
  -6.923270e+01   1.035186e+02
  -1.111377e+02   9.553208e+01
  -4.999231e+01   1.050789e+02
  -1.318992e+02  -1.567955e+01
  -9.505527e+01  -2.155459e+02
  -4.393252e+01  -2.060839e+02
   1.123645e+02  -1.775308e+02
   1.590353e+02  -1.102420e+01
   9.133179e+01   7.684516e+01
   4.267356e+01   1.553111e+02
  -8.614786e+01   7.259097e+01
  -4.082837e+01   4.799054e+01
  -1.372840e+01  -4.328342e+01
   7.080337e+01  -3.842253e+01
  -5.576589e+01  -1.376800e+01
  -1.071612e+02   2.852736e+01
  -1.567248e+01   3.231553e+00
   1.007161e+02  -7.428531e+01
   1.680675e+02  -1.426025e+01
   1.225264e+02   1.781566e+01
   1.439416e+01   7.131997e+01
  -7.264848e+01   9.534613e+01
  -1.006022e+02  -1.713157e+01
  -1.609262e+01  -1.341671e+01
   1.038650e+02  -4.130880e+01
   8.925027e+01   3.198743e+01
  -6.439808e+01   5.290176e+01
  -1.937799e+01   7.092760e+01
  -5.857316e+01   6.082990e+01
  -1.245197e+01  -3.684722e+00
  -9.474268e+01   1.240294e+01
  -1.165213e+02   4.423132e+01
  -8.023720e+01  -2.210409e+01
  -1.296414e+00  -6.654516e+01
   1.096565e+01  -1.018538e+02
   8.521150e+01  -1.015302e+02
   1.773331e+02  -3.665457e+01
   1.338464e+02   3.920741e+01
   5.715558e+01   1.050291e+02
  -6.960433e+01   1.873449e+01
  -6.818030e+01  -6.590339e+01
   6.899763e+01  -6.078945e+00
   1.564785e+02   6.802968e+01
   9.933776e+01   9.898701e+01
  -8.708595e+01   1.046508e+02
  -1.989577e+02   7.071872e+01
  -2.074787e+02  -4.520213e+01
  -7.494591e+01  -7.482402e+01
  -7.538871e+00  -8.127181e+01
   8.256998e+00   2.362788e+01
   1.785602e+00   1.816297e+01
  -6.324967e+01  -3.060372e+00
  -2.086332e+01  -1.431492e+02
   1.056416e+02  -1.717452e+02
   1.207610e+02  -8.555887e+01
   1.728443e+02   6.747854e+01
   2.400224e+01   2.153437e+02
  -9.625193e+01   1.107692e+02
  -9.977406e+01  -1.081762e+00
  -7.787119e+01  -1.180874e+02
   8.328070e+00  -7.780935e+01
   8.121981e+01  -9.330770e-01
   4.001169e+01   7.204839e+01
   8.303318e+01  -8.187234e+00
   5.014536e+00  -5.900127e+01
   3.743295e+00   1.442694e+00
   1.228649e+02   8.541278e+01
   1.014676e+02   1.012037e+02
  -7.523157e+01   8.562483e+01
  -1.320403e+02  -6.106926e+01
  -1.609262e+02  -5.968941e+01
   1.298891e+01  -3.748527e+01
   1.019978e+02  -7.208786e+01
   1.296653e+02   6.803214e+00
   1.028413e+01   2.367235e+01
   1.659025e+01   1.848584e+00
   1.179983e+00   2.447592e+01
   4.270276e+01  -7.179594e+01
  -3.525011e+01  -1.434818e+01
  -9.247577e+01  -2.125352e+01
  -1.450108e+02  -9.519503e+00
   1.159934e+01  -5.620661e+01
   1.416984e+02  -1.145361e+02
   1.659576e+02  -1.836940e+01
   9.981252e+01   1.145229e+02
   5.570277e+01   1.838926e+02
  -1.210708e+02   1.047359e+02
  -6.392174e+01   9.562460e+01
  -5.867214e+01  -2.975146e+01
   4.089987e+01  -2.097231e+01
  -9.452921e+00  -1.138621e+01
  -3.112251e+01   2.717598e+01
  -7.647167e+01  -3.505146e+01
  -1.147532e+01  -4.532727e+01
   4.126520e+01  -1.228259e+02
   1.056465e+01   3.864147e+01
   9.383725e+01   1.519876e+02
   1.857304e+01   9.284397e+01
  -1.217013e+02   1.123389e+01
  -1.288731e+02  -8.483074e+01
  -9.311582e+01  -1.143586e+02
   4.627873e+01  -6.241647e+01
   8.806608e+01   3.580196e+01
   9.353770e+01   4.264132e+01
   4.481568e+01   2.885215e+01
  -4.009737e+01   5.440418e+00
   1.711037e+01  -4.194340e+00
   1.067218e+02   1.994924e+01
  -2.829632e+00   4.211029e+01
  -8.673063e+01   3.595111e+01
  -1.263493e+02   7.437371e+01
  -9.632498e+00   1.507454e+01
   5.598467e+01  -1.168122e+02
   7.592034e+01  -1.010993e+02
   6.366571e+00   1.423145e+01
   1.739225e+01   3.062604e+01
  -7.224689e+00   5.790509e+01
  -9.381063e+01   4.294891e+00
  -3.813191e+01  -7.762428e+01
  -4.145286e+01  -4.356690e+01
   3.845699e+01   1.244007e+01
   3.867622e+01   7.820412e+00
  -3.318988e+01  -1.453286e+01
   1.231660e+01  -1.475305e+01
  -1.400184e+00  -3.088277e+01
   2.909866e+01   4.670931e+01
  -5.385056e+01   5.286702e+01
  -4.377581e+01   4.614846e+01
   4.850836e+01  -7.076439e+01
   5.366106e-01  -7.857621e+01
   5.432037e+01  -4.300093e+01
   6.626816e+01   7.775349e+01
   1.792410e+01   4.823793e+01
  -2.197952e+01   7.234354e+01
  -9.927861e+01   1.204229e+01
  -7.823720e+01  -1.037558e+02
   3.359441e+01  -2.415157e+01
   3.988010e+01  -2.601614e+01
   1.584723e+01   2.360002e+00
  -3.104909e+01   2.434923e+01
  -3.766445e+01  -2.546353e+01
  -1.027392e+00  -4.299595e+01
   8.871864e+01  -3.392891e+01
