
 $NMID
 id='ANONYMOUS ', fmtdat='(2E16.6)'
 volume=1.0
 tramp=1.0
 $END
   4.466703e+03   1.164624e+01
   2.599376e+03   2.618054e+03
  -6.628842e+02   2.768954e+03
  -2.081263e+03   1.014458e+03
  -1.087849e+03  -5.823661e+02
   5.356683e+02  -5.583017e+02
   8.274870e+02   4.558833e+02
   3.825265e+01   1.065608e+03
  -7.829434e+02   7.654079e+02
  -9.443560e+02  -5.320876e+01
  -4.891598e+02  -8.846010e+02
   2.386216e+02  -9.750844e+02
   6.143434e+02  -1.600616e+02
   3.982832e+02   6.979323e+02
  -2.091216e+02   7.441410e+02
  -6.287893e+02   4.485658e+00
  -2.694419e+02  -6.953617e+02
   3.523823e+02  -6.444428e+02
   6.064994e+02  -8.037769e+01
   4.515711e+02   3.435612e+02
   6.117715e+01   4.415105e+02
  -2.495474e+02   2.105964e+02
  -2.312985e+02   7.727626e+00
   1.672960e+02  -1.066034e+02
   3.731387e+02   1.497952e+02
   1.480346e+02   4.577167e+02
  -5.202677e+02   4.120290e+02
  -9.076503e+02  -1.256167e+02
  -3.933420e+02  -5.656447e+02
   4.022045e+02  -4.484814e+02
   7.300655e+02   6.395205e+01
   3.523318e+02   4.980348e+02
  -2.556477e+02   5.725705e+02
  -6.464157e+02   2.168152e+02
  -4.070097e+02  -1.918825e+02
  -5.778848e+01  -5.138775e+02
   1.181551e+02  -2.388653e+02
   1.595612e+02   2.119345e+02
  -2.318127e+02   4.037625e+02
  -3.956675e+02  -6.650221e+01
  -2.440396e+02  -6.929017e+02
   2.569432e+02  -7.403614e+02
   5.847156e+02  -1.024012e+01
   2.264364e+02   5.716265e+02
  -2.953928e+02   3.625368e+02
  -3.524007e+02  -2.760797e+02
   9.979562e+01  -5.525313e+02
   5.960611e+02  -8.355978e+01
   6.009525e+02   4.531970e+02
   1.583645e+02   6.794509e+02
  -4.063541e+02   2.871815e+02
  -6.776410e+02  -9.400907e+01
  -4.043699e+02  -3.880238e+02
   1.216270e+02  -3.905012e+02
   4.440151e+02  -9.456998e+01
   2.300502e+02   1.605293e+02
  -9.349403e+01   1.255897e+02
  -1.344662e+02  -1.222363e+02
   1.146340e+02  -1.609385e+02
   3.501181e+02   1.003245e+02
   1.273584e+02   2.726393e+02
  -2.030033e+02   2.428618e+02
  -3.470697e+02   5.953263e+01
  -2.752996e+02  -9.427597e+01
   4.589877e+01  -3.117079e+02
   2.622660e+02  -3.606776e+02
   3.921755e+02  -1.923120e+02
   2.770513e+02   1.255249e+02
   8.453884e+01   4.089694e+02
  -9.900127e+01   3.500545e+02
  -1.160371e+02   1.471525e+02
  -7.995930e+01   1.326966e+01
  -1.048217e+02   9.489559e+01
  -1.860333e+02   1.433887e+02
  -2.604906e+02  -9.112343e+01
  -1.668755e+02  -2.316127e+02
   6.633064e+01  -2.924766e+02
   2.836092e+02  -6.398727e+00
   2.173657e+02   3.131281e+02
  -4.680454e+01   2.869992e+02
  -2.496916e+02   1.406251e+02
  -3.851583e+02  -1.943032e+02
  -2.033792e+02  -3.913468e+02
   9.441051e+01  -3.986458e+02
   2.413437e+02  -9.493506e+01
   1.711334e+02  -8.505725e+01
   1.012887e+02  -3.080309e+01
   2.100334e+02  -5.753058e+01
   4.154636e+02   8.970030e+01
   3.776217e+02   2.931087e+02
   3.134792e+01   4.392833e+02
  -3.780105e+02   4.160900e+02
  -4.960799e+02   1.605769e+02
  -3.299760e+02  -1.070256e+02
  -7.099758e+01  -3.143607e+02
   1.539963e+02  -2.843584e+02
   7.918389e+01   6.330242e+00
  -8.959629e+01   8.601016e+01
  -2.331267e+02  -1.759353e+01
  -6.913551e+01  -1.685923e+02
   1.905498e+02  -1.423772e+02
   2.266124e+02   3.274971e+01
  -8.605122e+00   2.281271e+02
  -2.067646e+02   4.796954e+00
  -1.659866e+02  -2.059791e+02
   2.249650e+01  -3.977614e+02
   2.309640e+02  -1.531466e+02
   3.882756e+02   1.109514e+02
   2.600049e+02   2.026486e+02
   8.685029e+01   3.301307e+02
  -1.453869e+02   1.475300e+02
  -2.118251e+02  -2.614126e+01
  -6.788802e+00  -2.137554e+01
   7.492755e+01   3.156532e+01
   3.802267e+01   1.571240e+02
  -1.111984e+02   6.430973e+01
  -2.177493e+02   8.560981e+00
  -8.895396e+01  -2.525568e+01
   6.906224e+01  -1.525781e+01
   5.238351e+01   7.573529e+01
  -1.381304e+02   1.334637e+02
  -2.865235e+02  -1.908309e+01
  -2.891377e+02  -1.894395e+02
  -1.408178e+01  -2.391903e+02
   1.620995e+02  -2.500167e+02
   3.143518e+02  -1.135857e+02
   1.919398e+02   4.235832e+01
  -3.694181e+01   8.686261e+01
  -9.347265e+01  -3.354921e+01
   1.946377e+01  -8.266301e+01
   1.942609e+02  -6.409086e+01
   2.337308e+02   1.089794e+02
   1.062532e+02   1.833548e+02
  -9.225555e+01   1.669814e+02
  -1.039751e+02   4.264866e+01
  -5.416811e+01  -4.560275e+01
   5.281490e+01   6.649036e+01
  -5.134110e+01   1.078213e+02
  -9.108915e+01   1.521424e+02
  -2.378714e+02  -6.541054e+00
  -2.307655e+02  -1.047762e+02
  -3.212991e+01  -2.503741e+02
   1.517620e+02  -2.181969e+02
   2.016481e+02   1.433936e+01
   7.682518e+01   8.521630e+01
  -9.024657e+01   1.334897e+02
  -1.358475e+02   3.329934e+01
   1.868755e+01  -3.904790e+01
   1.167564e+01  -2.670035e+01
   2.085424e+01   3.278271e+01
  -9.366078e+01   4.749556e+01
  -9.093696e+01  -6.569655e+01
  -8.666781e+00  -1.729336e+02
   1.697565e+02  -1.288035e+02
   2.320261e+02  -1.239992e+00
   2.064419e+02   1.989388e+02
   4.227378e+01   2.110077e+02
  -1.526837e+02   1.476049e+02
  -1.285551e+02   2.192466e+00
  -3.870200e+01  -5.325422e+01
  -5.499012e+01  -4.296174e+00
  -5.317115e+01  -3.197834e+01
  -7.045908e+01   8.363936e-02
  -6.635103e+01  -3.663781e+01
   5.451679e+01  -9.468175e+01
   1.259650e+02  -8.854402e+01
   1.210367e+02  -6.540057e+00
  -4.068343e+00   1.355558e+02
  -1.698148e+02   1.251058e+02
  -2.092511e+02   2.700397e+01
  -7.550006e+01  -1.895144e+02
   1.315918e+02  -2.628849e+02
   3.443333e+02  -9.861746e+01
   2.530368e+02   5.424661e+01
   1.132564e+02   1.815366e+02
  -9.137387e+01   1.394170e+02
  -7.501579e+01   1.131337e+02
  -1.028089e+02   7.772128e+01
  -3.288413e+01   7.212028e+01
  -1.000513e+02   8.051152e+01
  -1.090217e+02  -9.585158e+01
  -1.634939e+02  -1.658394e+02
  -6.493598e+01  -2.525152e+02
   1.168615e+02  -2.014847e+02
   1.732710e+02  -9.368711e+00
   1.421678e+02   1.226682e+02
   2.562222e+01   1.654149e+02
  -5.111134e+01   8.788657e+01
  -1.066026e+02   5.710936e+00
   2.848379e+01  -1.503481e+00
  -5.850958e+01  -2.732733e+01
  -4.971567e+01  -3.686854e+01
  -6.607761e+01  -4.700138e+01
  -1.033039e+02  -5.652525e+01
   7.091399e+01  -7.960772e+01
   1.960869e+02  -1.314299e+01
   1.289407e+02   3.492447e+01
  -6.065673e+01   1.031067e+02
  -1.243242e+02   8.810600e+01
  -1.739565e+02   1.800899e+01
  -4.937555e+01  -4.533142e+01
   1.027014e+02  -2.066301e+01
   3.287191e+01   8.119599e+00
   3.093834e+01   5.028885e+01
  -4.770374e+01   7.612324e+01
  -2.140990e+01   1.641805e+00
  -1.262809e+01  -3.855864e+01
  -9.839929e+00  -4.275920e+01
  -5.750926e+01   2.399921e+01
  -7.437668e+01  -5.851244e+00
  -1.868426e+01  -5.167858e+01
   5.421036e+01  -1.446302e+02
   1.324261e+02  -1.462847e+02
   1.576011e+02   7.562844e+00
   1.877708e+02   1.195950e+02
  -2.556338e+01   1.291681e+02
  -6.020031e+01   2.996948e+01
  -4.398746e+01  -5.121224e+01
   6.656565e+01  -3.465759e+01
   1.685216e+02   5.141481e+01
   1.001137e+02   8.182911e+01
  -1.219046e+02   1.217754e+02
  -2.134369e+02   2.064097e+01
  -2.019930e+02  -2.917580e+01
  -7.906412e+00  -8.895259e+01
   9.390133e+01  -1.260222e+02
   2.693154e+01   1.016782e+01
  -2.695705e+01   1.668834e+01
  -1.218646e+02  -6.932781e+00
  -8.081617e+01  -1.249354e+02
   1.537004e+02  -1.516833e+02
   2.156437e+02  -6.088352e+01
   1.131584e+02   6.045887e+01
   3.299250e+01   2.196127e+02
  -1.143154e+02   1.205617e+02
  -7.131909e+01  -4.464861e+01
  -4.301470e+01  -1.039344e+02
  -5.948110e+01  -1.437894e+02
   5.706568e+01   1.024839e+01
   5.076239e+01   3.050802e+01
   3.552716e+01  -2.236875e+01
   4.425465e+01  -2.054731e+01
   1.585102e+01   5.928538e+01
   5.267930e+01   9.493020e+01
   5.383543e+01   1.018408e+02
  -1.009199e+02   1.005982e+02
  -1.487088e+02  -9.454660e+01
  -1.406026e+02  -7.870754e+01
  -1.426917e+01  -2.803024e+01
   5.556087e+01  -7.311924e+01
   5.889824e+01   2.573988e+01
   1.776455e+01   2.256446e+01
  -7.199483e+01  -1.996692e+01
   1.566736e+01   9.020796e+00
  -1.636311e+01   4.688298e+00
   1.994820e+01  -4.364107e+01
  -6.587580e+01  -4.689525e-01
  -9.409479e+01  -2.800981e+01
  -7.236152e+00  -9.991354e+01
   9.850218e+01  -1.170651e+02
   2.184158e+02  -7.422580e+01
   9.199629e+01   8.802878e+01
  -4.049170e+00   1.817594e+02
  -9.956059e+01   1.621131e+02
  -1.174010e+02   1.020446e+02
  -5.988884e+01   1.173045e+01
  -3.519022e+01   8.086637e+00
   1.177500e+01   1.108735e+01
   2.280382e+01  -2.192985e+01
  -8.967540e+01  -2.989976e+01
  -1.593383e+01  -1.434797e+02
   5.000765e+00  -7.263545e+01
   1.131234e+02   7.181057e+01
   7.817613e+01   1.119495e+02
   2.215629e+01   1.141944e+02
  -7.177821e+01   4.133316e+01
  -1.428700e+02  -1.386191e+02
  -1.662856e+01  -1.069160e+02
   1.362664e+02  -5.791464e+01
   1.328590e+02  -1.551868e+00
   5.389762e+01   1.055233e+01
  -6.760307e+01   2.313534e+01
  -6.143902e+01   6.806300e+01
   3.722125e+01   4.092131e+00
   1.155924e+02  -4.044969e+01
   4.899421e+01   6.765929e+01
  -6.529636e+01   3.729428e+01
  -8.655321e+01   1.111635e+02
  -2.623475e+01   1.096567e+01
   5.794172e+01  -8.895722e+01
   7.769954e+01  -8.824672e+01
   2.402260e+01  -1.409360e+01
   2.828036e+01   6.927845e+01
  -1.026103e+02   5.976722e+01
  -3.688424e+01   1.924908e+01
  -9.983173e+01  -5.687095e+01
   3.791129e+01  -7.469426e+01
  -1.767294e+01  -1.466702e+01
   1.799632e+01   3.819927e+01
  -1.254822e+01   8.421656e-01
  -9.148168e+00  -1.011548e+01
   1.780366e+01  -1.119824e+01
   1.710008e+01   5.839698e+01
   4.355907e+01   8.816440e+01
  -2.833437e+01  -1.094495e+01
   4.699245e+01   2.987991e+00
   9.345013e+00  -7.069776e+01
   2.357586e+00  -6.095061e+01
   8.668182e+01   1.006205e+02
  -2.938208e+00   9.462989e+01
  -7.901598e+00   4.892950e+01
  -8.715905e+01  -1.863708e+01
  -5.305108e+01  -8.586824e+01
   4.213131e+01  -7.392836e+01
   5.084604e+01   3.855585e+00
   5.806744e+01   8.980921e+00
  -4.054602e+01  -3.324041e+01
  -1.990606e+01  -8.119031e+01
   3.022749e+01  -2.387774e+01
   9.586033e+01  -1.959389e+01
