
 $NMID
 id='ANONYMOUS ', fmtdat='(2E16.6)'
 volume=1.0
 tramp=1.0
 $END
  -4.552119e+03  -1.091935e+02
  -2.588730e+03  -2.829713e+03
   8.356987e+02  -2.886393e+03
   2.210270e+03  -8.848537e+02
   9.957782e+02   6.802665e+02
  -6.985883e+02   5.450873e+02
  -8.869296e+02  -4.944746e+02
   7.311035e+01  -1.110223e+03
   8.836798e+02  -8.599566e+02
   1.021764e+03   1.184291e+02
   4.389128e+02   9.204747e+02
  -2.849296e+02   9.570680e+02
  -6.630338e+02   1.273796e+02
  -3.481696e+02  -7.651415e+02
   2.870740e+02  -7.565160e+02
   6.935735e+02   1.563875e+01
   3.007831e+02   7.598494e+02
  -3.255112e+02   6.906988e+02
  -5.984989e+02   1.125827e+02
  -4.059282e+02  -3.830370e+02
  -1.575978e+01  -4.811474e+02
   3.015506e+02  -3.195956e+02
   2.639464e+02  -3.993162e+01
  -1.631991e+02   9.137347e+01
  -4.552243e+02  -1.337802e+02
  -1.550855e+02  -5.551363e+02
   5.201141e+02  -5.172871e+02
   8.759291e+02   4.892092e+01
   4.527723e+02   6.146563e+02
  -4.298069e+02   4.963132e+02
  -8.097008e+02  -5.162310e+01
  -3.604308e+02  -5.227035e+02
   3.103927e+02  -5.206730e+02
   6.332373e+02  -2.540546e+02
   4.561732e+02   2.806542e+02
   4.439933e+01   4.579366e+02
  -1.839303e+02   2.887636e+02
  -1.547853e+02  -1.813973e+02
   2.200695e+02  -3.964885e+02
   4.288610e+02  -5.907731e+00
   2.323603e+02   7.198790e+02
  -3.803135e+02   7.446595e+02
  -6.751818e+02  -9.813852e+00
  -2.293321e+02  -5.993052e+02
   3.315531e+02  -3.122995e+02
   3.861635e+02   3.209794e+02
  -7.057590e+01   5.685775e+02
  -5.938158e+02   1.127539e+02
  -6.000018e+02  -4.718903e+02
  -1.978537e+02  -6.272733e+02
   3.777723e+02  -3.489678e+02
   6.449508e+02   5.542548e+01
   3.646219e+02   4.560000e+02
  -1.998201e+02   3.697166e+02
  -5.013154e+02   1.678986e+01
  -2.415531e+02  -1.803603e+02
   1.272664e+02  -5.828211e+01
   1.484341e+02   1.645831e+02
  -1.555373e+02   1.795072e+02
  -3.596124e+02  -7.694133e+01
  -1.570688e+02  -3.485542e+02
   2.294708e+02  -2.485244e+02
   3.969503e+02  -3.471101e+01
   1.849719e+02   1.018625e+02
  -1.329627e+01   2.287852e+02
  -2.285927e+02   3.236768e+02
  -3.278493e+02   1.793994e+02
  -2.975007e+02  -1.681743e+02
  -6.755817e+01  -4.718980e+02
   1.557848e+02  -4.061168e+02
   1.099886e+02  -9.719483e+01
   1.823889e+01   3.712533e+01
   9.703741e+01  -5.090557e+01
   1.910236e+02  -1.700106e+02
   2.856877e+02   8.238978e+01
   1.465187e+02   3.305351e+02
  -1.103839e+02   2.133580e+02
  -2.181909e+02  -4.375658e+01
  -2.118546e+02  -2.806085e+02
   4.536433e+01  -2.542406e+02
   2.387221e+02  -1.045596e+02
   3.899226e+02   1.842653e+02
   1.338860e+02   3.460089e+02
  -1.221243e+02   3.243153e+02
  -1.952336e+02   1.337299e+02
  -1.156300e+02   1.781467e+01
  -6.231432e+01   5.779890e+01
  -2.000493e+02   8.852145e+01
  -4.063021e+02  -6.378127e+01
  -3.401195e+02  -3.033273e+02
   4.777424e+01  -4.670605e+02
   3.929490e+02  -4.152863e+02
   5.422722e+02  -1.771465e+02
   3.078467e+02   1.414521e+02
   4.289326e+01   2.873263e+02
  -1.451244e+02   2.839075e+02
  -1.097736e+02   3.568059e+01
   1.286825e+02  -1.156075e+02
   2.287689e+02  -1.725425e+01
   1.462755e+00   1.785849e+02
  -1.221107e+02   1.522578e+02
  -1.608829e+02  -5.132946e+01
   4.789866e+01  -2.185538e+02
   2.064567e+02  -4.229925e+01
   1.835542e+02   2.422524e+02
  -6.354588e+01   3.258134e+02
  -2.586479e+02   2.851019e+02
  -2.234661e+02  -6.524430e+01
  -3.016515e+02  -2.148594e+02
  -6.997405e+01  -2.846104e+02
   9.422005e+01  -1.902513e+02
   2.195120e+02  -1.856381e+01
   6.063081e+01   1.836335e+01
  -9.903358e+01  -4.861761e+00
  -7.077421e+01  -1.151556e+02
   1.090887e+02  -9.378144e+01
   2.176501e+02   1.396148e+01
   6.427848e+01   7.704941e+01
  -5.579431e+01   7.727271e+00
  -4.786030e+01  -7.785561e+01
   1.348286e+02  -1.066005e+02
   2.617204e+02   3.067859e+01
   2.808036e+02   1.612266e+02
   1.001124e+02   2.573855e+02
  -1.919400e+02   2.153933e+02
  -3.475939e+02   1.448869e+02
  -1.449571e+02  -9.961947e+01
   3.824638e+01  -1.332113e+02
   1.481553e+02  -3.953396e+01
  -8.716476e+01   1.196600e+02
  -2.295653e+02   3.876499e+01
  -2.227908e+02  -1.354350e+02
  -5.360941e+01  -2.171830e+02
   1.256367e+02  -1.263907e+02
   1.973507e+02  -4.712044e+01
   6.497975e+01   7.549655e+01
  -1.628000e+01  -2.344543e+00
  -1.855924e+01  -1.090463e+02
   4.378494e+01  -1.419809e+02
   1.679806e+02  -2.107057e+01
   1.787622e+02   1.446738e+02
  -3.879404e+00   2.221971e+02
  -1.498987e+02   1.932196e+02
  -1.925793e+02   1.000149e+01
  -5.588660e+01  -1.148037e+02
   1.007324e+02  -1.088044e+02
   1.357293e+02  -6.414042e+01
   7.183819e+01   3.438582e+01
   1.000539e+01   5.698747e+01
   3.876196e+01   1.651969e+01
   7.291922e+01  -1.917294e+01
   7.542580e+01   4.768526e+01
  -3.304258e+01   1.605761e+02
  -1.141595e+02   1.310246e+02
  -2.127037e+02   4.408106e+01
  -2.063835e+02  -1.761267e+02
  -3.972169e+01  -2.651962e+02
   1.181097e+02  -1.775068e+02
   1.822741e+02  -4.852352e+01
   8.050484e+01   5.528336e+01
   1.729073e+00   8.164780e+01
   8.845411e+01   4.514769e+00
   4.523569e+01  -4.770259e+01
   2.349351e+01   5.951011e+01
  -3.902668e+00   6.722668e+01
  -9.493135e+01   2.047178e+01
  -4.741614e+01  -2.106072e+01
   3.345798e+00  -7.586503e+01
   1.193394e+02  -9.692199e+01
   1.201606e+02   4.842480e+01
   5.903681e+01   2.212434e+02
  -9.272695e+01   2.360962e+02
  -2.450464e+02   8.069321e+01
  -2.800316e+02  -9.878198e+01
  -1.353425e+02  -1.495114e+02
   3.484526e+01  -1.414470e+02
   1.000507e+02  -6.226020e+01
   1.109841e+02  -8.751219e+01
   4.761289e+01  -1.011585e+02
   1.321531e+02  -1.102627e+02
   1.639930e+02   2.077187e+01
   1.169143e+02   1.599841e+02
   2.811711e+00   2.463950e+02
  -1.070982e+02   1.743785e+02
  -1.745777e+02  -2.054175e+01
  -1.351196e+02  -1.238666e+02
   6.751670e+00  -1.872451e+02
   7.774214e+01  -4.104584e+00
   6.118448e+01   2.069289e+01
   1.686032e+01   7.910716e+01
  -2.160116e+01  -2.286859e+01
   4.463814e+01   5.607943e+00
   1.026714e+02   3.871323e+01
   6.170481e+01   4.770777e+01
  -8.427293e+01   4.075014e+01
  -1.306328e+02  -2.196394e+01
  -1.438753e+02  -6.188992e+01
  -3.382908e+01  -1.088044e+02
   1.506612e+02  -8.297542e+01
   1.586634e+02  -3.097665e+01
   5.143554e+01   4.737535e+01
  -5.056153e+01   6.561633e+01
  -4.472053e+01  -2.512997e+01
   6.214309e+01  -1.458878e+02
   4.294489e+01  -6.962267e+01
   4.514610e+01  -3.559944e+01
  -3.870910e-01   8.135128e+01
   4.620083e+01   7.207781e+01
   6.005140e+01   1.190638e+01
   7.810616e+01   2.048810e+01
   4.950646e+01   1.300859e+02
  -4.822747e+01   1.716486e+02
  -7.204345e+01   9.266778e+01
  -1.525492e+02   1.818711e+01
  -6.642032e+01  -1.127302e+02
  -2.974346e+01  -1.758993e+02
   1.065982e+02  -4.304106e+01
   1.238018e+02   4.037715e+01
  -1.086374e+02   1.426688e+00
  -7.871540e+01  -6.155443e+01
  -9.358338e+01  -1.138223e+02
   7.605910e+01  -1.410174e+02
   1.723327e+02  -7.991156e+01
   1.517536e+02   3.506792e+01
   3.025637e+01   6.844351e+01
  -9.437298e+01   9.325057e+01
  -6.487627e+01  -1.838384e+01
   2.395888e+00  -3.501709e+01
   1.020840e+02   9.669598e+00
   1.254902e+01   1.678817e+02
  -6.934825e+01   1.800248e+02
  -1.689072e+02   4.930108e+01
  -1.014144e+02  -3.079802e+01
  -1.297915e+01  -2.069421e+02
   9.070165e+01  -1.648554e+02
   8.849475e+01   2.741907e+01
   6.388062e+01   1.350002e+02
  -1.502717e+00   1.423600e+02
  -4.306382e+01  -1.227559e+01
  -5.462029e+01  -4.108070e+01
  -3.150725e+01   7.910209e+00
  -1.687385e+00   1.106567e+01
  -6.393488e+01   3.871408e+01
  -3.449645e+01  -8.346528e+01
  -4.123120e+01  -1.151819e+02
   8.499216e+01  -8.066041e+00
   1.522326e+02   3.838808e+01
   1.483350e+02   9.523015e+01
   2.160057e+01   9.813097e+01
  -1.585692e+02   5.876485e+01
  -8.270948e+01  -3.211786e+00
  -1.515627e+00  -1.021228e+01
  -1.039343e+01  -2.012736e+01
  -3.951683e+01   8.211451e+01
  -4.184151e+01  -1.916815e-01
   2.403397e+01   1.257167e+01
   8.612300e+01   3.706885e+01
   1.245619e+02   6.289019e+01
  -1.038150e+01   5.795024e+01
  -1.421028e+02   1.091610e+02
  -2.716587e+02   5.253332e+01
  -1.588002e+02  -9.070441e+01
  -4.279345e+01  -1.606197e+02
   7.975851e+01  -1.305944e+02
   8.541742e+01  -6.199626e+01
   8.614573e+01  -1.399086e+01
   4.180934e+01   5.160799e+01
  -5.376281e+00  -3.279848e+01
   5.634225e+01   4.552968e+01
   7.557929e+01   1.213268e+02
   3.768204e+01   1.008885e+02
  -8.136685e+01   5.898083e+01
  -1.072796e+02  -4.128876e+01
  -8.411072e+01  -1.157289e+02
   1.085336e+01  -1.374050e+02
   5.798758e+01   6.998158e+00
   1.042882e+02   8.127899e+01
   8.250848e+00   1.017471e+02
  -6.024364e+01   8.343358e+01
  -1.059677e+02  -3.211564e+01
  -7.135077e+01  -4.413990e+01
   6.636720e+01  -4.814489e+01
   4.852963e+01   3.461450e+00
  -5.245105e+01   9.899235e+00
  -5.653155e+01   6.094499e+01
  -2.113052e+01  -8.905337e+00
   5.356418e+01  -9.213299e+01
   9.302185e+01  -3.582950e+01
   9.525655e+01   4.100150e+01
  -3.763426e+01   1.314779e+02
  -4.008304e+01   1.272612e+02
  -3.534796e+01  -2.607430e+01
  -4.349240e+01  -9.519549e+01
   2.388419e+01  -3.459104e+01
   5.496080e+01   9.533192e+00
   3.281191e+01   8.458034e+01
  -3.958936e+01   3.721388e+01
  -3.335391e+01   2.253663e+01
  -6.403280e+01  -1.010123e+01
  -2.641911e+01  -4.038138e+00
  -3.581992e+01   7.557242e+01
   2.352493e+00  -8.760004e+01
   2.635396e+01  -9.275324e+01
   2.095198e+01  -4.223265e+01
   5.533267e+01   3.636385e+01
   4.870516e+01   1.130438e+01
   4.388334e+01   5.463230e+01
  -5.023517e+01   7.735241e+00
  -1.021379e+02  -5.314752e+01
  -3.152025e+01  -5.990657e+01
   5.738319e+01  -5.934675e+01
   1.123613e+02  -5.543743e+01
   7.020955e+01   3.742613e+01
  -4.608733e+01   4.993638e+01
  -7.188404e+01   7.155060e+01
  -3.399225e+01  -4.142475e+00
   1.084620e+02  -1.190866e+01
   4.561821e+01  -1.384311e+01
  -1.135236e+01   2.246242e+01
  -1.046191e+02   3.848279e+01
