
 $NMID
 id='ANONYMOUS ', fmtdat='(2E16.6)'
 volume=1.0
 tramp=1.0
 $END
   4.442142e+03   1.659377e+01
   2.658754e+03   2.636586e+03
  -7.024673e+02   2.865383e+03
  -2.153418e+03   9.826549e+02
  -1.027411e+03  -5.671159e+02
   5.761531e+02  -5.188971e+02
   8.992056e+02   4.563682e+02
   3.906221e+01   1.069669e+03
  -8.472436e+02   7.870771e+02
  -9.750967e+02  -3.767355e+01
  -4.386356e+02  -8.763248e+02
   1.802681e+02  -9.688388e+02
   6.906900e+02  -1.169816e+02
   4.123955e+02   7.068318e+02
  -2.447567e+02   7.577023e+02
  -5.944711e+02   3.074895e+01
  -2.816240e+02  -6.879276e+02
   3.428569e+02  -6.726436e+02
   6.089554e+02  -9.590232e+01
   4.414207e+02   3.602290e+02
  -5.033702e+00   4.147039e+02
  -2.725255e+02   2.650729e+02
  -1.903580e+02   6.434249e+01
   1.578030e+02  -6.400338e+01
   4.052995e+02   1.901517e+02
   1.916431e+02   4.641135e+02
  -4.644580e+02   3.633615e+02
  -8.749332e+02  -7.805997e+01
  -4.517932e+02  -6.130480e+02
   3.704832e+02  -4.877389e+02
   7.683249e+02   3.911539e+01
   3.438317e+02   5.580000e+02
  -2.682227e+02   5.437740e+02
  -5.920307e+02   2.276597e+02
  -4.085095e+02  -2.123602e+02
  -1.225615e+02  -4.650806e+02
   1.608406e+02  -3.585297e+02
   1.281291e+02   2.406502e+02
  -2.022963e+02   4.318539e+02
  -4.544114e+02  -4.678884e+01
  -2.064674e+02  -6.673886e+02
   3.273753e+02  -7.656772e+02
   5.956568e+02  -3.953701e+01
   2.381572e+02   5.447288e+02
  -2.889278e+02   3.000990e+02
  -3.986155e+02  -3.395006e+02
   6.757759e+01  -5.470453e+02
   5.216060e+02  -1.232398e+02
   6.723793e+02   4.001832e+02
   1.821948e+02   5.759381e+02
  -4.205637e+02   3.181331e+02
  -6.431235e+02  -6.062672e+01
  -3.704475e+02  -3.762487e+02
   1.299879e+02  -3.898611e+02
   4.498573e+02  -6.455904e+01
   2.844246e+02   1.897087e+02
  -1.237927e+02   1.067689e+02
  -1.259212e+02  -1.940209e+02
   1.657354e+02  -1.564662e+02
   4.028331e+02   1.193790e+02
   2.234100e+02   3.523472e+02
  -2.703097e+02   2.516782e+02
  -4.142530e+02   7.734775e+01
  -2.252077e+02  -7.322686e+01
   1.659510e+01  -2.187614e+02
   2.250801e+02  -3.770173e+02
   4.073898e+02  -2.532285e+02
   2.840270e+02   1.654430e+02
   1.097586e+02   4.817553e+02
  -1.250283e+02   4.000415e+02
  -1.072370e+02   1.056737e+02
  -5.180492e+01   5.783843e+01
  -8.249271e+01   1.130123e+02
  -2.038741e+02   1.250894e+02
  -2.737914e+02  -3.939660e+01
  -2.027314e+02  -2.926400e+02
   4.157597e+01  -3.169310e+02
   1.958472e+02  -3.078118e+01
   1.811633e+02   2.601179e+02
  -1.261181e+01   3.146205e+02
  -2.949382e+02   1.236455e+02
  -4.156366e+02  -2.389545e+02
  -2.082043e+02  -4.163025e+02
   1.167096e+02  -3.129366e+02
   2.354158e+02  -1.129741e+02
   1.895523e+02  -3.162071e+01
   1.100341e+02  -1.908896e+01
   2.641598e+02  -6.283505e+01
   4.375292e+02   3.247894e+01
   3.534030e+02   3.037963e+02
   2.078641e+01   4.903072e+02
  -3.644062e+02   4.339914e+02
  -4.899201e+02   1.808366e+02
  -3.463454e+02  -6.788463e+01
  -6.363302e+01  -2.992227e+02
   1.194138e+02  -3.144665e+02
   7.647212e+01   1.707403e+01
  -1.500970e+02   4.113513e+01
  -2.008394e+02   3.324372e+00
  -4.455352e+01  -2.192725e+02
   1.369737e+02  -2.005988e+02
   1.678483e+02   1.169708e+02
  -1.417517e+01   1.460128e+02
  -1.488425e+02   3.980614e+01
  -1.989185e+02  -2.616202e+02
   2.354130e+01  -4.048108e+02
   2.373679e+02  -1.731279e+02
   2.881890e+02   1.111043e+02
   2.999013e+02   2.650138e+02
   7.395860e+01   3.031287e+02
  -1.610889e+02   1.915272e+02
  -1.614602e+02   6.716899e+01
  -5.625951e+01  -5.484535e+01
   5.771024e+01   6.568175e+01
   2.001766e+00   1.522278e+02
  -1.185575e+02   6.610233e+01
  -2.144622e+02  -3.281049e+01
  -1.975576e+00  -1.049087e+02
   1.169361e+02  -5.493135e+01
   7.476905e+01   8.955400e+01
  -1.547163e+02   7.151366e+01
  -3.262659e+02   3.272795e+01
  -2.819126e+02  -1.537219e+02
  -5.007246e+01  -2.500639e+02
   8.262908e+01  -2.697578e+02
   2.829434e+02  -1.464389e+02
   1.863901e+02   7.109262e+01
  -2.014461e+01   1.373695e+02
  -5.735924e+01  -2.094488e-01
   6.847208e+01  -9.485413e+01
   1.499694e+02  -4.782029e+01
   2.096467e+02   6.850476e+01
   7.551508e+01   1.971055e+02
  -8.903534e+01   1.670345e+02
  -1.512546e+02   3.282557e+01
  -7.760974e+01  -1.211553e+01
   9.893064e+00  -4.203783e+01
   5.028363e+01   8.316470e+01
  -1.402612e+02   1.347675e+02
  -2.241434e+02   1.518365e+01
  -1.909130e+02  -1.471410e+02
  -2.839702e+01  -2.733312e+02
   1.713342e+02  -1.909957e+02
   1.844469e+02  -3.242131e+01
   5.627239e+01   1.224577e+02
  -3.785068e+01   1.329204e+02
  -1.712615e+02   6.986639e+01
  -2.488934e+01  -1.674606e+01
  -3.252647e+00  -2.467153e+01
  -3.323902e+01   3.020291e+01
  -9.355422e+01   2.025358e+01
  -7.442491e+01  -9.439906e+01
  -3.453237e+01  -2.151347e+02
   9.936088e+01  -1.330204e+02
   2.736110e+02  -4.123233e+01
   1.813501e+02   1.487462e+02
   7.215312e+01   2.167480e+02
  -1.416512e+02   1.820458e+02
  -1.518903e+02   7.927822e+01
  -1.060793e+02  -5.415729e+01
  -1.528635e+01  -2.882493e+01
  -7.593440e+01  -5.930675e+00
  -1.339888e+02   4.882746e+00
  -2.707002e+01  -8.154740e+01
   4.377578e+01  -6.541672e+01
   9.039006e+01  -4.555252e+01
   5.795810e+01   6.375789e+01
  -5.804202e+00   1.337014e+02
  -1.026485e+02   9.369354e+01
  -2.524986e+02  -7.241460e+01
  -1.078168e+02  -2.342582e+02
   1.346885e+02  -2.418799e+02
   2.910634e+02  -8.225670e+01
   2.572067e+02   7.402127e+01
   1.043609e+02   1.878789e+02
  -8.900674e+01   1.588500e+02
  -6.905686e+01   6.008180e+01
  -8.201234e+01   8.904471e+01
  -1.257669e+02   1.024149e+02
  -4.417106e+01   1.135987e+02
  -1.098759e+02  -4.345145e+01
  -1.431790e+02  -1.868125e+02
  -3.300562e+01  -2.162822e+02
   1.141981e+02  -1.722245e+02
   2.027789e+02  -2.717272e+01
   1.074752e+02   9.700484e+01
   6.659995e+00   1.494992e+02
  -4.582567e+01   1.350778e+02
  -9.088591e+01  -2.005446e+01
   2.144407e+01  -3.694025e+01
   9.515456e-03  -7.274503e+01
  -5.205635e+01  -2.715160e+01
  -1.145466e+02  -8.719822e+00
  -6.800124e+01  -3.293673e+01
   7.279541e+01  -2.321886e+01
   1.392584e+02  -4.130290e+01
   1.471415e+02   1.160876e+01
   1.756204e+01   5.582255e+01
  -1.023952e+02   1.112243e+02
  -1.991829e+02   3.519492e+01
  -5.889870e+01  -7.712379e+01
   6.783884e+01  -6.507540e+01
   4.291535e+01   2.610862e+01
  -5.132901e+00   8.738941e+01
  -4.596244e+01   8.565543e+01
  -8.715999e+01  -2.292210e+00
  -3.360406e+01  -4.782058e+01
  -6.359908e+01   7.408596e+00
  -2.364489e+01  -3.153054e+01
  -5.704175e+01  -4.878322e+01
   1.720378e+01  -5.780205e+01
   3.103427e+01  -1.225062e+02
   1.243656e+02  -1.843704e+02
   1.514827e+02  -3.138675e+01
   1.569516e+02   6.723868e+01
   8.715473e+01   1.667103e+02
  -9.017155e+01   6.423522e+01
  -5.625626e+01  -2.350735e+01
   1.388439e+02  -2.155454e+01
   1.326250e+02  -1.222776e+01
   9.239537e+01   1.159628e+02
  -9.684111e+01   1.589136e+02
  -1.870746e+02   3.283862e+01
  -1.822256e+02  -2.525159e+01
  -4.824655e+01  -3.162644e+01
   3.740741e+01  -7.550900e+01
   5.686293e+01   5.684672e+00
  -2.037466e+01   4.965862e+01
  -1.317495e+02  -4.514809e+01
   1.483120e+01  -1.654496e+02
   1.326739e+02  -1.459744e+02
   1.751162e+02  -6.509943e+01
   1.590875e+02   8.965230e+01
   1.332209e+01   2.434502e+02
  -7.721592e+01   1.246733e+02
  -1.321368e+02   1.308757e+01
  -1.316212e+01  -1.318003e+02
   1.292480e+01  -1.076769e+02
   2.542520e+01  -2.505181e+01
   4.331515e+01   5.030396e+01
   7.619373e-01  -3.181378e+01
   2.409194e+01  -3.528575e+01
   2.702222e+00  -1.023243e+01
   9.506738e+01   7.365393e+01
   7.144595e+01   4.512198e+01
  -6.234697e+01   3.549943e+01
  -1.649034e+02  -2.479675e+01
  -1.233655e+02  -4.352189e+01
  -3.678833e+01  -5.704015e+01
   3.923068e+01   1.701733e+01
   6.794698e+01  -1.422741e+01
   3.236230e+01   2.373686e+01
   4.258695e+01   4.274320e+01
   2.590323e+01   1.292628e+01
   1.514849e+01   3.555094e+01
   1.348644e+01  -1.397785e+00
  -4.228463e+01   7.431519e+00
  -1.014451e+02  -4.872889e+01
   4.066482e+01  -7.118441e+01
   1.296254e+02  -1.575804e+02
   2.060104e+02  -7.064120e+00
   1.527767e+02   8.597812e+01
   1.767464e+01   1.737597e+02
  -1.081468e+02   1.284118e+02
  -1.452863e+02  -9.710079e+00
  -4.980956e+01  -4.085098e+01
  -4.553680e+01  -3.727716e+01
  -3.812669e+01  -4.535859e+01
   3.263403e+01  -3.701858e-01
  -5.582388e+00  -1.874682e+01
   7.497312e+00  -6.176733e+01
   1.089156e+01  -6.633967e+01
   9.740844e+01  -3.377659e+01
   1.510924e+02   1.086329e+02
   2.339395e+01   1.173221e+02
  -1.099729e+02   2.528883e+00
  -1.442949e+02  -9.205639e+01
  -1.509251e+01  -1.358161e+02
   1.046321e+02  -1.049838e+02
   1.133161e+02   4.332567e+01
   4.890628e+01   7.639404e+01
   2.002062e+01   1.369085e+02
   4.107452e+01   2.874833e+01
   3.827127e+01   5.765607e+01
   2.400024e+01  -2.543750e+01
  -1.919815e+00   2.082395e+01
  -7.248272e+01   3.817633e+01
  -1.552669e+02   8.421303e+01
  -9.696338e+01  -8.635118e+00
  -2.161275e+01  -1.120750e+02
   9.635006e+01  -1.437016e+02
   4.773686e+01  -1.896568e+01
   2.272569e+01   4.423225e+01
  -2.234511e+01   3.694586e+01
  -7.377209e+01  -3.104873e+01
  -5.578981e+01   8.521571e+00
   1.502863e+01  -6.862345e+01
   3.975113e+01  -9.994206e+00
   3.780382e+01   5.333129e+01
   2.224311e+01   1.570058e+01
   3.164380e+01  -2.198913e+01
  -4.089455e+01   1.026848e+01
  -5.206939e+00   5.988689e+01
  -4.662644e+01   5.656986e+01
   2.239705e+01  -2.622065e+00
  -1.134456e+01  -5.799485e+01
   4.250048e+01  -5.593464e+01
   1.065236e+02  -6.882621e+01
   4.069221e+01   1.272471e+01
   7.041298e-01   5.729077e+01
  -9.055067e+01   6.330022e+01
  -1.059720e+02   4.201931e+01
  -6.923205e+01  -4.872953e+01
  -1.407310e+01  -4.680049e+01
   7.300446e+01  -5.916539e+01
   3.781157e+00   2.050228e+01
  -2.918753e+01   5.619095e+00
  -9.025152e+01  -7.215932e+00
   1.470818e+01  -2.153291e+01
   4.155797e+01  -5.514547e+01
