
 $NMID
 id='ANONYMOUS ', fmtdat='(2E16.6)'
 volume=1.0
 tramp=1.0
 $END
  -4.257503e+03   1.251931e+01
  -2.449631e+03  -2.621381e+03
   7.329764e+02  -2.739407e+03
   2.050838e+03  -8.488412e+02
   9.562704e+02   6.637949e+02
  -6.417040e+02   5.162813e+02
  -8.555026e+02  -4.657198e+02
   1.081460e+00  -9.856302e+02
   8.333470e+02  -7.702426e+02
   8.910693e+02   1.147704e+02
   4.175224e+02   8.328733e+02
  -2.116260e+02   9.037048e+02
  -6.495423e+02   1.126630e+02
  -3.558929e+02  -6.950711e+02
   2.732872e+02  -7.371521e+02
   5.921561e+02   1.267682e+01
   2.554980e+02   6.738300e+02
  -2.636490e+02   6.023908e+02
  -5.597199e+02   1.340951e+02
  -3.728519e+02  -3.426447e+02
  -2.208279e+01  -4.216223e+02
   2.574571e+02  -2.897341e+02
   2.161042e+02  -3.341365e+01
  -1.172583e+02   1.050703e+02
  -3.815368e+02  -9.198504e+01
  -1.512445e+02  -3.592761e+02
   4.553809e+02  -4.378162e+02
   8.717900e+02   4.419438e+01
   4.035391e+02   5.586638e+02
  -3.916341e+02   5.103396e+02
  -6.904539e+02  -2.087065e+01
  -3.687900e+02  -4.410047e+02
   3.176751e+02  -5.269860e+02
   5.322369e+02  -1.782861e+02
   3.754279e+02   2.603970e+02
   8.667027e+01   4.501923e+02
  -1.945886e+02   2.935296e+02
  -2.032975e+02  -2.580784e+02
   1.788431e+02  -4.208696e+02
   4.409729e+02   6.140733e+00
   2.298279e+02   7.390208e+02
  -3.225864e+02   6.937523e+02
  -5.897869e+02   1.833024e+01
  -2.328797e+02  -5.450964e+02
   3.377774e+02  -3.308238e+02
   3.921593e+02   3.351915e+02
  -8.332905e+01   4.887615e+02
  -5.580279e+02   1.193514e+02
  -5.694784e+02  -4.001343e+02
  -1.239907e+02  -5.714347e+02
   3.908179e+02  -3.728754e+02
   6.257559e+02   2.269275e+01
   3.362077e+02   3.388252e+02
  -1.629036e+02   3.794564e+02
  -4.187473e+02   3.906438e+01
  -2.701333e+02  -1.896097e+02
   6.551322e+01  -1.414892e+02
   1.855165e+02   1.761072e+02
  -1.932095e+02   1.489228e+02
  -3.750356e+02  -3.478166e+01
  -9.545369e+01  -2.755754e+02
   2.223365e+02  -3.160905e+02
   2.975003e+02  -6.436213e+01
   1.905109e+02   1.429317e+02
   1.166614e+01   1.753127e+02
  -1.604425e+02   2.963112e+02
  -3.285081e+02   1.844126e+02
  -2.917122e+02  -1.288031e+02
  -6.526610e+01  -4.593392e+02
   8.592133e+01  -3.929432e+02
   1.073993e+02  -1.243926e+02
   1.536705e+00   4.033418e+01
   1.345038e+01  -1.085535e+02
   2.083789e+02  -1.440780e+02
   2.675958e+02   6.504944e+01
   1.795535e+02   2.374767e+02
  -3.590842e+01   2.417211e+02
  -2.705227e+02   3.350217e+00
  -1.692355e+02  -2.192835e+02
   4.306289e+01  -2.737829e+02
   2.055723e+02  -7.942914e+01
   3.469723e+02   1.423585e+02
   2.113911e+02   3.079597e+02
  -1.276769e+02   3.404172e+02
  -2.253403e+02   1.379437e+02
  -1.719563e+02  -2.178636e+01
  -6.115264e+01   4.472099e+01
  -2.395881e+02   4.887836e+01
  -3.721072e+02  -4.812338e+01
  -3.124287e+02  -3.013801e+02
   1.179669e+01  -4.363872e+02
   3.533468e+02  -4.169440e+02
   4.936934e+02  -1.820575e+02
   3.175591e+02   7.969287e+01
   3.849375e+01   2.646077e+02
  -8.942313e+01   2.065762e+02
  -4.271919e+01  -2.707838e+01
   1.031525e+02  -1.032490e+02
   1.757019e+02   1.333087e+01
   7.313973e+01   1.882493e+02
  -2.127153e+02   2.020326e+02
  -1.693627e+02  -4.523122e+01
  -3.756620e+00  -1.811945e+02
   1.738249e+02  -1.586448e+01
   1.652155e+02   2.741413e+02
  -1.421402e+01   4.149901e+02
  -2.327928e+02   2.230880e+02
  -3.251114e+02  -5.452849e+01
  -2.186631e+02  -2.196882e+02
  -1.053375e+02  -2.171292e+02
   6.971653e+01  -1.638139e+02
   1.665435e+02   2.034199e+01
   3.936562e+01   6.080299e+01
  -5.336751e+01  -3.163455e+01
  -7.043708e+01  -1.277078e+02
   9.905406e+01  -9.388960e+01
   2.012059e+02   3.422247e+01
   9.553137e+01   1.139964e+02
  -1.229479e+02  -1.798698e+01
  -7.442975e+01  -3.329119e+01
   1.254582e+02  -9.298051e+01
   2.687496e+02  -1.317763e+01
   2.396463e+02   1.750230e+02
   6.894864e+01   2.628539e+02
  -1.737254e+02   2.465602e+02
  -2.751498e+02   9.181541e+01
  -2.056993e+02  -7.622701e+01
   2.346121e+01  -9.099096e+01
   1.168605e+02   2.916900e+01
  -5.969147e+01   1.134285e+02
  -1.719138e+02   4.548690e+01
  -2.529116e+02  -9.043449e+01
  -6.441613e+01  -2.240166e+02
   9.033099e+01  -1.489320e+02
   1.187605e+02  -2.109840e+01
   1.131962e+02   1.693841e+01
   9.727289e+00  -6.728406e+01
  -7.986189e+01  -8.440793e+01
   8.031195e+01  -1.158959e+02
   2.474106e+02  -5.729071e+01
   1.596906e+02   1.432692e+02
  -4.895993e+01   2.084446e+02
  -2.112279e+02   1.835077e+02
  -2.195021e+02   5.072981e+01
  -3.365155e+01  -9.565449e+01
   4.466053e+01  -1.606422e+02
   9.369835e+01  -8.998258e+01
   5.554240e+01   2.918104e+01
   2.742457e+00  -2.607793e+01
  -2.808038e+01   4.920997e+01
   5.605252e+01   1.146435e+01
   1.265683e+02   8.598719e+01
   5.024686e+01   1.671526e+02
  -9.697802e+01   1.219452e+02
  -2.040527e+02   3.078065e+01
  -1.989515e+02  -1.209240e+02
  -1.714570e+01  -2.200233e+02
   7.279348e+01  -1.225586e+02
   1.580020e+02  -5.995180e+01
   4.799396e+01   1.139395e+02
   5.406783e+01   8.952286e+01
   4.373756e+01  -3.478677e+01
   9.401079e+01  -8.469244e-01
   2.638132e+01   1.391498e+01
  -3.117104e+00   1.441362e+02
  -1.179463e+02   7.593568e+01
  -1.180543e+02  -3.242183e+01
   4.554842e+01  -1.069349e+02
   1.140853e+02  -9.959838e+01
   1.623449e+02   3.953710e+01
   5.909712e+01   2.898181e+02
  -8.699873e+01   1.612577e+02
  -2.929698e+02   8.281268e+01
  -2.481648e+02  -1.009603e+02
  -1.208289e+02  -1.583955e+02
  -2.583607e+01  -1.606425e+02
   9.505629e+01  -8.674107e+01
   1.143882e+02  -5.663286e+01
   6.960520e+01  -1.356149e+02
   8.286705e+01  -7.128315e+01
   1.239214e+02   3.561815e+01
   1.003874e+02   1.081099e+02
  -1.593692e+00   2.261372e+02
  -1.444611e+02   1.703889e+02
  -1.500627e+02   2.145289e+00
  -1.220094e+02  -1.338768e+02
  -8.406561e+01  -8.561608e+01
   8.742212e+01  -6.183964e+01
   5.671186e+01   8.904678e-01
  -7.140572e+01   7.519130e+01
   2.014079e+01   1.102194e+01
  -5.395413e-01   2.649243e+01
   1.242285e+02   1.054548e+01
   2.051497e+01   5.704292e+01
  -5.068582e+01   5.100160e+01
  -1.972224e+02  -6.541783e+00
  -1.233971e+02  -3.672440e+01
  -7.333256e+01  -6.284830e+01
   1.286824e+02  -9.629861e+01
   1.368348e+02  -2.465074e+01
  -1.438503e+00  -5.903033e+00
  -8.317956e+01   2.052308e+01
  -6.043105e+01  -5.502709e+00
  -8.109600e+00  -1.014892e+02
   6.034589e+01  -9.862800e+01
   5.784088e+01   3.712161e+00
   7.030804e+01   6.214642e+01
   5.305074e+01   9.536963e+01
   8.259317e+01  -3.393456e+01
   7.415076e+01   2.550260e+00
   6.540956e+01   1.202648e+02
  -2.514746e+01   1.301674e+02
  -1.175027e+02   2.336908e+02
  -1.338028e+02   5.035429e+01
  -1.290114e+02  -9.700546e+01
  -4.498135e+01  -1.635211e+02
   8.559118e+01  -1.964638e+01
   3.109122e+01  -1.531427e+01
  -8.153552e+01   4.238452e+01
  -1.114942e+02  -7.338568e+01
  -1.494226e+02  -9.798448e+01
   7.928856e+01  -1.028618e+02
   1.599178e+02  -4.299880e+00
   1.332662e+02   3.863717e+01
   6.269573e+01   6.940150e+01
  -8.521650e+01   9.273578e+01
  -6.540481e+01  -1.008716e+00
   1.680066e+01   3.179337e+01
   6.586007e+01  -4.891906e+00
   3.527929e+01   1.418720e+02
  -1.079613e+02   1.518323e+02
  -1.877366e+02   7.008739e+01
  -1.172736e+02  -1.054111e+02
  -3.507253e+01  -2.085456e+02
   8.942211e+01  -2.136608e+02
   6.403745e+01   2.756676e+01
   4.428994e+01   8.622229e+01
  -1.009452e+01   7.281905e+01
  -6.432129e+01   5.258163e+01
  -7.947679e+01  -1.309215e+00
  -1.405848e+01  -7.598096e+01
  -1.530422e+01   4.543658e+01
   3.737662e+00  -1.557077e+01
  -3.741301e+01  -7.260134e+01
  -1.241595e+02  -8.598550e+01
   9.305941e+01  -5.602707e+01
   1.566219e+02   7.973764e+01
   1.604234e+02   6.057041e+01
  -1.562723e+01  -4.423708e-01
  -1.158338e+02  -1.208461e+01
  -6.915427e+01   2.784104e+01
  -3.900495e+01  -4.316717e+00
   3.898237e+01  -1.500186e+01
   7.473461e+00  -2.253709e+01
  -9.049240e+00   1.907630e+01
   6.637891e+00  -3.447755e+01
   6.439592e+01   1.103474e+00
   9.230115e+01   6.000654e+01
   2.909972e+01   9.817256e+01
  -1.244061e+02   1.286494e+02
  -2.117678e+02   7.255776e+01
  -1.119613e+02  -3.631473e+01
  -5.043604e+01  -1.203359e+02
   7.928721e+01  -1.620641e+02
   1.312391e+02  -1.150134e+02
   7.056901e+01   2.235759e+01
  -7.843231e-01  -3.512660e+01
  -2.226624e+00   2.927498e+01
   2.155942e+01   7.933111e+00
   1.369588e+01   3.368237e+01
   6.688627e+01   7.960437e+01
  -1.525029e+01   3.424546e+01
  -1.211172e+02  -3.293780e+01
  -8.298694e+01  -1.626746e+02
  -5.910973e+00  -1.548771e+02
   1.356171e+02   1.233431e+01
   5.269605e+01   5.286870e+01
   2.206482e+01   9.538886e+01
  -5.910093e+01   9.146981e+01
  -9.088761e+01   5.523988e+00
  -4.862121e+01  -1.243233e+02
  -1.010902e+01   2.285116e+01
   1.381082e+01  -1.876829e+01
  -6.786816e+01  -5.038603e+00
  -6.126028e+01  -4.101163e+01
  -2.883085e+01   1.190776e+01
   1.158842e+02  -6.299681e+01
   9.535208e+01  -6.968609e+01
   1.846774e+01   4.051392e+01
  -3.525825e+01   1.147029e+02
  -6.711550e+01   9.073364e+01
  -9.174990e+01   1.358675e+01
   2.727633e+01  -8.834686e+01
   1.742493e-02  -6.986542e+01
   4.275671e+01   2.781510e+01
   2.725411e+01   3.321381e+01
  -2.455860e+00   4.819370e+01
   1.542543e+01   1.953854e+01
   3.419236e+01   1.847421e+01
  -4.149839e+01  -1.653172e-01
   6.688300e+00   3.729492e+01
   5.179367e+00  -3.163242e+01
  -1.344423e+01  -2.335219e+01
  -3.855396e+01  -6.277514e+01
   1.946956e+01  -2.457171e+01
  -1.752731e+01   1.063819e+02
  -2.826717e+01   1.040125e+02
  -4.208934e+01   4.898970e+00
  -2.288406e+01  -6.096367e+01
  -4.492946e+01  -8.353495e+01
   7.973317e+01   3.895047e+01
   9.459893e+01   5.127836e+01
   1.158972e+01   4.851271e+01
   7.808095e-01   5.994429e+01
  -9.358462e+01   9.648880e+00
  -3.623668e+01  -1.662022e+00
   4.740901e+01  -1.396588e+01
   6.592529e+00   6.253595e+00
  -2.966987e+01   1.224872e+01
  -1.042828e+02   3.153235e+01
