
 $NMID
 id='ANONYMOUS ', fmtdat='(2E16.6)'
 volume=1.0
 tramp=1.0
 $END
  -2.609008e+03   2.285513e+01
  -1.800857e+03  -1.258709e+03
  -1.859763e+02  -1.705896e+03
   9.529542e+02  -1.200702e+03
   8.063614e+02  -3.961917e+02
   1.608083e+02   1.883025e+02
  -2.767961e+02  -4.107934e+01
  -4.597785e+01  -3.463893e+02
   3.301602e+02  -4.515109e+02
   4.849695e+02  -1.596852e+02
   4.083835e+02   4.152957e+02
   1.182222e+02   5.353557e+02
  -2.114915e+02   1.564775e+02
  -1.699730e+02  -3.175789e+02
   6.298629e+01  -4.553302e+02
   3.393626e+02  -6.724484e+01
   2.759278e+02   3.671431e+02
  -7.259959e+01   5.261769e+02
  -3.491204e+02   2.978823e+02
  -4.260149e+02  -8.983277e+01
  -1.790310e+02  -3.202395e+02
   1.191973e+02  -2.195650e+02
   7.501450e+01  -8.001956e+01
  -1.581080e+02  -1.474202e+02
  -1.626280e+02  -2.115443e+02
   4.889201e+01  -2.767572e+02
   3.563048e+02  -1.239380e+02
   4.678260e+02   1.748957e+02
   1.101241e+02   2.520548e+02
  -2.649786e+02   1.577086e+02
  -3.881309e+02  -1.696332e+02
  -1.829385e+02  -2.423817e+02
   1.926318e+02  -2.937191e+02
   3.226783e+02  -9.373045e+01
   2.741990e+02   1.173310e+02
   9.206989e+01   2.126204e+02
  -9.572186e+00   1.482987e+02
   5.015768e+01  -4.495477e+01
   1.962507e+02  -1.736547e+02
   1.593816e+02   1.853059e+02
   3.444762e+00   3.781646e+02
  -1.803734e+02   3.864023e+02
  -3.022356e+02  -5.083705e+01
  -1.294997e+02  -2.256191e+02
   8.976281e+01  -9.134390e+01
   1.728035e+02   2.226797e+02
  -1.187646e+02   3.288986e+02
  -3.830157e+02   2.353057e+01
  -3.931180e+02  -3.074702e+02
  -1.662120e+02  -4.057158e+02
   2.390304e+02  -1.878316e+02
   4.758411e+02   6.908018e+01
   2.645626e+02   1.888323e+02
  -1.156200e+01   1.532147e+02
  -2.581387e+02   1.124891e+02
  -2.479240e+02   2.197510e+01
  -6.584951e+01   3.453152e+01
   3.243742e+01   6.186943e+01
  -6.974665e+01   4.463832e+01
  -1.834726e+02  -1.723347e+01
  -9.752813e+01  -1.213662e+02
   8.907974e+01  -2.256181e+02
   2.188275e+02  -1.667058e+02
   2.202453e+02   9.630134e+01
   7.892133e+01   3.287501e+02
  -2.518122e+02   3.490791e+02
  -3.178848e+02   1.238705e+02
  -2.370676e+02  -1.303680e+02
  -4.759127e+01  -3.179240e+02
  -8.379401e+00  -2.509796e+02
   8.827235e+01  -1.810967e+02
  -3.334043e+01  -6.866982e+01
   1.105734e+02  -9.240144e+01
   2.344811e+02  -1.002761e+02
   2.363774e+02   1.158190e+02
   1.494047e+01   2.522216e+02
  -7.385078e+01   1.163296e+02
  -9.064254e+01  -1.314407e+01
  -1.246978e+02  -1.750936e+02
   2.778301e+00  -2.626112e+02
   1.960242e+02  -7.639978e+00
   2.690913e+02   1.795762e+02
   1.904943e+02   2.145497e+02
  -4.231524e+01   1.795179e+02
  -1.361458e+02   1.604579e+02
  -1.965669e+02   3.721106e+01
  -1.253503e+02   5.112971e+01
  -2.827770e+02  -1.292150e+00
  -3.191277e+02  -9.005887e+01
  -2.456944e+02  -2.896442e+02
   1.446141e+01  -3.706520e+02
   3.145566e+02  -3.059684e+02
   3.896920e+02  -1.652281e+02
   2.767618e+02   1.130632e+02
   1.870012e+01   2.031721e+02
  -2.605227e+01   1.778608e+02
  -4.315391e+01   4.321018e+01
   8.720391e+01  -8.878972e+00
   1.112880e+02   3.468133e+01
  -6.122564e+00   1.089042e+02
  -4.296030e+01   8.327592e+01
  -8.911982e+01  -1.771679e+01
   4.094792e+01  -1.370579e+02
   1.346683e+02  -2.057078e+01
   1.226573e+02   2.524695e+02
  -1.985357e+01   3.390705e+02
  -1.866267e+02   1.710955e+02
  -3.340877e+02  -1.018703e+02
  -2.487854e+02  -2.609078e+02
  -6.719387e+01  -2.537279e+02
   7.665865e+01  -1.117026e+02
   1.179619e+02  -6.626716e+01
   2.165225e+01   1.421946e+01
  -4.015207e+01  -8.615138e+01
  -7.573064e+00  -7.754819e+01
   1.170833e+02  -2.880853e+01
   1.212948e+02   6.816530e+00
   2.757106e+01   7.958650e+01
  -5.416606e+01  -1.780033e+01
  -1.662444e+01  -1.008746e+02
   1.292973e+02  -9.295235e+01
   2.744780e+02   5.736130e+01
   2.576918e+02   1.770813e+02
   1.027267e+01   2.126980e+02
  -1.668445e+02   1.772217e+02
  -1.950592e+02   9.560502e+01
  -9.421032e+01  -1.164071e+00
   3.062351e+01  -3.471432e+01
   4.373335e+01   4.343076e+01
  -1.602605e+01   9.384043e+01
  -1.500453e+02   8.650636e+00
  -1.200095e+02  -1.419480e+02
  -5.994837e+01  -1.509777e+02
   7.159299e+01  -1.555107e+02
   1.959968e+02  -2.340129e+01
   6.385288e+01   1.394987e+01
  -3.554270e+01  -5.717088e+01
   8.459394e+00  -1.253034e+02
   8.998892e+01  -1.139859e+02
   1.891061e+02  -8.195955e+01
   1.341227e+02   1.466671e+02
   4.006647e+00   1.205714e+02
  -1.938432e+02   1.050656e+02
  -1.719082e+02   1.047419e+01
  -5.772377e+01  -9.673322e+01
   2.268529e+01  -9.518375e+01
   7.269713e+01  -5.373338e+01
  -1.372000e+01   5.141052e+01
  -8.752323e+00  -3.047391e+01
  -6.752423e+01  -2.303129e+01
   1.007831e+02  -3.037442e+01
   8.410513e+01   8.329197e+01
   1.509603e+01   1.769763e+02
  -7.197591e+01   1.507149e+02
  -2.343418e+02   1.528797e+01
  -1.355916e+02  -1.788843e+02
  -3.302841e+00  -2.146215e+02
   3.343725e+01  -1.497129e+02
   1.132974e+02  -4.608158e+01
   8.858008e+01   4.933819e+01
   4.215328e+01   4.513203e+01
   1.500780e+01   3.229714e+01
   7.755762e+01   4.204584e+01
   9.034639e+01   5.344926e+01
   2.385881e+01   7.152674e+01
  -1.308634e+02   6.584446e+01
  -1.279726e+02  -2.431989e+01
  -2.824923e+00  -9.739927e+01
   1.417504e+02  -7.585546e+01
   1.421484e+02   8.626529e+01
   6.676492e+01   1.508960e+02
  -1.427286e+02   2.282988e+02
  -2.408320e+02   6.098071e+01
  -1.870463e+02  -1.283430e+02
  -3.915561e+01  -9.909698e+01
   1.747282e+00  -1.100988e+02
   6.698300e+01  -8.916450e+01
   4.725214e+01  -4.534471e+01
   6.231343e+01  -7.489629e+01
   8.044178e+01  -1.296971e+02
   1.368101e+02   4.041374e+01
   9.500195e+01   9.280681e+01
  -3.293996e+01   1.536670e+02
  -8.285897e+01   1.786584e+02
  -1.204334e+02  -1.444063e+01
  -9.466793e+01  -1.403387e+02
   1.456676e+01  -2.156384e+02
   1.017765e+02  -4.496033e+01
   2.707189e+01   3.488669e+01
   1.653175e+01   7.054708e+01
  -2.628405e+01   1.285823e+01
   1.693981e+01   1.301227e+01
   8.345824e+01   4.421957e+01
   5.123841e+01   3.569440e+01
  -1.526077e+02   9.755257e+01
  -1.213394e+02   1.831543e+01
  -1.502898e+02  -8.415905e+01
   2.114347e+01  -6.606093e+01
   1.113342e+02  -3.288597e+01
   1.515209e+02   2.214677e+01
  -2.611796e+00   8.520332e+01
  -3.791513e+01   2.945063e+01
  -1.250513e+02   2.434749e+01
  -1.087773e+01  -8.164517e+01
   6.195711e+01  -8.839464e+01
   1.281459e+02  -1.260378e+01
   3.298968e+01   3.057900e+01
   6.574955e+01   4.710743e+01
   7.871159e+01  -7.746999e+00
   4.343604e+01   1.118106e+00
   2.129909e+01   1.021566e+02
  -4.740187e+01   1.551481e+02
  -8.836345e+01   1.070761e+02
  -1.812379e+02   1.241475e+01
  -1.336322e+02  -6.284247e+01
   3.240236e+01  -1.109591e+02
   4.505679e+01  -6.838676e+01
   4.735041e+01   5.899379e+01
  -4.651193e+01  -4.352256e+00
  -1.172887e+02  -5.511295e+01
   4.541335e+00  -7.647817e+01
   6.589115e+01  -1.507494e+02
   1.728536e+02  -5.466864e+01
   1.459374e+02   8.336803e+01
   5.571609e+01   1.119052e+02
  -8.740260e+01   6.036474e+01
  -1.016871e+02  -5.497182e+01
  -4.942044e+00   4.332738e+00
   8.162213e+01   1.760713e+01
   8.996536e+01   1.131277e+02
  -7.609442e+01   1.516393e+02
  -9.712513e+01   3.451694e+01
  -1.219702e+02  -1.149198e+02
  -7.313126e+01  -1.332139e+02
   8.784142e+01  -1.480320e+02
   8.887660e+01   1.634699e+01
   4.487676e+01   8.187678e+01
  -2.055951e+01   1.516690e+02
  -1.717946e+01  -3.310605e+01
  -4.705954e+00  -3.909694e+00
   1.379677e+01  -1.626480e+01
   1.112257e+01   5.279734e+01
  -1.092220e+01  -2.679207e+01
  -3.816298e+01  -3.838333e+01
  -2.114061e+01  -1.130573e+02
   1.736680e+01  -1.814782e+01
   7.016757e+01   7.274501e+01
   1.168244e+02   2.549432e+01
   3.118978e+01   4.772898e+01
  -6.411447e+01   3.906259e+01
  -4.561429e+01  -3.523168e+01
   1.571389e+01  -2.769396e+01
   2.068025e+01  -4.750870e+01
   1.260270e+01   1.066519e+00
  -8.635154e+00  -3.982129e+01
   1.338207e+01  -5.405275e+01
   3.952535e+01   3.570943e+01
   7.301600e+01   1.638180e+01
   4.807299e+01   4.684616e+01
  -8.419591e+01   1.022665e+02
  -1.816628e+02   1.090596e+02
  -1.574989e+02  -4.020015e+01
  -2.007369e+00  -1.095900e+02
   7.438814e+01  -1.796725e+02
   8.487480e+01  -3.535989e+01
   9.961587e+01  -5.626456e+01
   6.946012e+01   6.322923e-01
  -4.992866e+01   2.716789e+01
   8.097915e+01   4.519313e+01
  -2.822426e+01   9.814120e+00
   1.929371e+01   9.038341e+01
  -1.451768e+01   8.878105e+01
  -6.220986e+01  -1.035690e+01
  -7.696663e+01  -1.133886e+02
  -9.184338e+00  -8.770945e+01
   9.941057e+01  -1.527316e+01
   1.032651e+02   2.071337e+01
   2.569724e+01   9.283515e+01
  -2.511847e+01   2.645271e+01
  -3.674504e+01  -1.576978e+01
  -8.109748e+01  -4.419561e+00
   1.412912e+01  -3.870129e+01
   1.278194e+01  -8.957383e+01
  -5.609064e+01   3.643954e+01
  -4.580599e+01   5.787430e+00
   6.780158e+00  -1.944701e+01
   1.227189e+02  -6.955693e+01
   1.234028e+02  -3.122827e+01
   9.953799e+01   4.203754e+01
  -2.837936e+01   9.835175e+01
  -4.822256e+01   7.462183e+01
   6.910664e+00  -6.117252e+00
   2.295320e+01  -7.004754e+01
   8.205577e+01  -4.336435e+01
   2.294047e+01  -5.900549e+00
  -2.076965e+01   5.117236e+01
  -7.117569e-01   2.835675e+01
  -2.087718e+01   2.864289e+01
  -3.366918e+01  -1.917888e+01
  -7.610734e+00   1.136831e+00
  -5.893402e-01  -1.960719e+01
   6.818905e+01   2.885501e+00
  -8.777189e+00   1.344419e+01
  -7.890719e+01  -7.791055e+01
  -3.272025e+01   3.132494e+01
   4.534071e+01  -3.743342e+00
  -1.190441e+01   3.890746e+01
  -5.868618e+01   9.966262e+00
  -7.041275e+01   1.470250e+01
   1.987894e+01  -3.039513e+01
   6.116858e+01  -5.417418e+01
   6.762153e+01   7.164316e+01
   4.658866e+01   2.509117e+01
  -2.919300e+01   3.291301e+01
  -7.438968e+01   2.908133e+01
  -5.732407e+01   3.321764e+00
   3.866459e+01  -5.733520e+00
   2.008173e+01   2.391194e+00
   4.215355e+01   4.517558e+01
  -6.716933e+01   2.539069e+01
