
 $NMID
 id='ANONYMOUS ', fmtdat='(2E16.6)'
 volume=1.0
 tramp=1.0
 $END
   2.989068e+03  -8.672191e+01
   2.009196e+03   1.445348e+03
   1.012968e+02   1.954920e+03
  -1.133062e+03   1.216264e+03
  -8.826199e+02   2.220540e+02
  -6.391517e+01  -2.050342e+02
   3.336661e+02   3.115964e+01
   7.901867e+01   5.138106e+02
  -3.569694e+02   6.188896e+02
  -5.857739e+02   1.214164e+02
  -4.313169e+02  -4.424551e+02
  -2.726497e+01  -6.286880e+02
   2.772700e+02  -1.300982e+02
   2.894032e+02   3.854826e+02
  -1.052731e+02   5.219813e+02
  -3.785919e+02   7.409857e+01
  -3.241314e+02  -3.808014e+02
   8.356272e+01  -6.163772e+02
   4.371435e+02  -2.304330e+02
   4.241023e+02   1.444950e+02
   1.189458e+02   3.392905e+02
  -9.909752e+01   2.354487e+02
  -6.883457e+01   1.079469e+02
   1.727451e+02   8.722223e+01
   2.883152e+02   2.340760e+02
  -3.239043e+00   3.554086e+02
  -4.118329e+02   1.442222e+02
  -5.442663e+02  -2.009032e+02
  -1.931425e+02  -3.550360e+02
   2.862297e+02  -2.086843e+02
   5.089658e+02   1.449132e+02
   1.292998e+02   3.393807e+02
  -2.283489e+02   3.082184e+02
  -3.847071e+02   1.442631e+02
  -3.302512e+02  -9.390563e+01
  -6.794799e+01  -2.520612e+02
   5.197423e+01  -1.884923e+02
  -4.314758e+01   9.865140e+01
  -1.540013e+02   1.288095e+02
  -1.171150e+02  -1.006397e+02
  -6.790884e+01  -4.499565e+02
   2.029298e+02  -3.707006e+02
   3.296718e+02  -3.266712e+01
   1.474153e+02   2.901313e+02
  -1.613210e+02   1.199542e+02
  -2.128249e+02  -2.502627e+02
   8.566615e+01  -3.904916e+02
   3.945967e+02  -8.856651e+01
   4.976439e+02   2.919964e+02
   1.775805e+02   4.389668e+02
  -2.678624e+02   2.675440e+02
  -4.895867e+02  -1.044049e+01
  -3.664381e+02  -1.667928e+02
   3.970661e+01  -2.165719e+02
   2.836648e+02  -7.979017e+01
   2.589537e+02   4.654916e+01
   3.767527e+01  -5.452340e+00
  -5.593533e+01  -6.580500e+01
   4.253233e+01  -3.037461e+01
   2.810187e+02   1.665335e+01
   9.339903e+01   1.288438e+02
  -1.443585e+02   2.179566e+02
  -3.069116e+02   1.401376e+02
  -2.502942e+02  -9.394407e+01
   2.922567e+01  -2.833884e+02
   2.618627e+02  -3.455992e+02
   2.960626e+02  -1.955726e+02
   2.298409e+02   2.034206e+02
   2.193378e+01   3.357200e+02
   3.739088e+00   3.165946e+02
  -9.368749e+00   1.699386e+02
  -8.071057e+00   8.615437e+01
  -6.942539e+01   5.385513e+01
  -2.707617e+02   7.983464e+01
  -1.992936e+02  -8.882027e+01
  -1.453944e+02  -2.198455e+02
   8.361181e+01  -1.875996e+02
   1.704537e+02   7.674871e+01
   1.069644e+02   2.285005e+02
  -3.378308e+01   2.459417e+02
  -1.886438e+02   1.893594e+01
  -2.967019e+02  -1.687054e+02
  -1.827303e+02  -2.407071e+02
   1.450132e+01  -2.566084e+02
   1.490818e+02  -1.715689e+02
   1.396907e+02  -9.720413e+01
   1.639565e+02  -7.598475e+01
   2.392664e+02  -3.918195e+01
   3.650245e+02   1.162170e+02
   3.289764e+02   2.673570e+02
  -2.030550e+01   4.172826e+02
  -3.672973e+02   3.627660e+02
  -4.659455e+02   1.894442e+02
  -2.733395e+02  -1.212694e+02
  -5.796102e+01  -2.102346e+02
   1.028643e+02  -1.947809e+02
   2.668656e+01  -3.513555e+01
  -8.406098e+01   4.824961e+01
  -1.373739e+02  -3.208685e+01
  -1.352829e+01  -1.730970e+02
   8.526667e+01  -1.180134e+02
   1.465224e+02   5.605990e+01
  -1.921893e+01   1.033436e+02
  -1.307008e+02  -6.744132e+01
  -1.647898e+02  -1.822137e+02
  -2.464393e+01  -2.702502e+02
   2.678782e+02  -2.079697e+02
   3.207645e+02   6.228593e+01
   2.770587e+02   2.369390e+02
   6.227690e+01   2.414807e+02
  -1.262766e+02   1.937625e+02
  -1.178662e+02   6.404197e+00
  -2.901655e+01  -1.322662e+01
   3.231683e+01   6.430660e+01
  -2.027920e+01   9.145298e+01
  -7.454777e+01  -2.812183e+00
  -8.625897e+01  -5.335960e+01
  -8.316543e+01  -1.218619e+02
   1.011609e+02  -4.288580e+01
   6.562841e+00   1.087984e+02
  -1.210006e+02   5.569240e+01
  -2.409685e+02   9.480802e+00
  -1.949347e+02  -1.676372e+02
  -8.267170e+00  -2.715819e+02
   2.254835e+02  -2.403613e+02
   2.243445e+02  -1.170236e+02
   1.370320e+02   3.955168e+01
  -3.834243e+01   1.286221e+02
  -5.425537e+01  -4.153919e+01
   2.285324e+01  -1.099238e+02
   1.580288e+02  -3.162802e+01
   2.168179e+02   8.695972e+01
   9.555216e+01   1.937513e+02
  -1.065189e+02   1.444221e+02
  -9.563540e+01   2.190842e+01
  -2.268122e+01  -5.658591e+00
   1.205416e+01   1.735712e+00
   6.542272e+00   8.042384e+01
  -1.033609e+02   1.414066e+02
  -1.800761e+02   1.257630e+01
  -2.039853e+02  -1.591807e+02
   2.193784e+01  -1.841581e+02
   1.406125e+02  -8.826203e+01
   1.433535e+02  -4.623317e+00
   6.726600e+01   5.435635e+01
  -7.340258e+01   1.097565e+02
  -6.717217e+01   3.875062e+01
  -1.730140e+01   2.708461e+00
   1.072213e+02  -1.065284e+01
  -5.070231e+01   1.144630e+02
  -4.851843e+01   1.345179e+01
  -5.923929e+01  -9.482968e+01
  -3.756938e+01  -1.451185e+02
   1.650663e+02  -1.600075e+02
   2.187948e+02  -5.603994e+01
   1.864573e+02   1.018438e+02
   4.885526e+00   1.609234e+02
  -1.056666e+02   1.939968e+02
  -1.481105e+02   2.941934e+01
  -8.527220e+01  -4.763667e+01
  -3.595039e+01  -2.959790e+01
  -2.413355e+01   3.242981e+01
  -4.662438e+01  -3.180979e+01
  -5.614663e+01  -5.901718e+01
   5.152862e+01  -9.342400e+01
   1.331284e+02  -1.073163e+02
   7.547416e+01   5.769917e+01
   1.246709e+01   1.106812e+02
  -1.412782e+02   7.881806e+01
  -1.940645e+02  -3.075584e+01
  -4.849629e+01  -2.427366e+02
   1.119441e+02  -2.012357e+02
   2.424491e+02  -8.630337e+01
   1.962351e+02   1.002908e+02
   1.180330e+02   1.670704e+02
  -2.665659e+01   1.755879e+02
  -8.637529e+01   7.104500e+01
  -9.527075e+01   5.923691e+01
  -7.215293e+01   5.603154e+01
  -8.001766e+01   5.593359e+01
  -1.152678e+02   1.774569e+00
  -1.341629e+02  -1.324734e+02
  -5.602054e+00  -2.077142e+02
   1.223988e+02  -1.608929e+02
   1.838662e+02  -1.349432e+01
   1.417968e+02   1.209520e+02
  -1.495082e+01   1.887938e+02
  -4.431534e+01   8.018893e+01
  -1.040258e+02   2.539750e+01
  -3.729136e+01  -1.041899e+02
   4.324461e+01  -5.837904e+01
  -4.575945e+01  -1.180140e+01
  -8.923108e+00  -4.639022e+01
  -2.112171e+01  -6.554842e+00
   2.791456e+01  -4.394170e+01
   1.848446e+02   4.115836e+01
   1.289594e+02   1.134533e+01
  -1.737356e+01   1.004076e+02
  -1.048258e+02   6.686913e+01
  -1.239164e+02   5.195134e-01
  -4.367901e+01  -7.705882e+01
   7.291712e+01  -8.194816e+01
   5.300875e+01  -1.269718e+01
   3.088150e+01   9.132194e+01
  -6.899880e+01   4.827418e+01
  -4.611423e+01  -3.936716e+01
  -1.113975e+02  -4.710505e+01
  -7.584296e+01  -1.495464e+01
  -4.212373e+01  -4.689370e+01
  -2.014375e+00  -1.263852e+01
  -6.870342e+01  -8.623189e+01
   2.359270e+01  -1.814694e+02
   1.561162e+02  -1.084220e+02
   1.447652e+02  -1.335713e+01
   1.521212e+02   7.025094e+01
  -7.532997e+00   8.581265e+01
  -1.264229e+02   1.029213e+02
  -5.288612e+01  -2.333112e+01
   8.930231e+01   2.215644e+01
   1.018477e+02   3.671838e+00
   1.036574e+02   1.064624e+02
  -1.072911e+02   9.115830e+01
  -1.710536e+02   5.351197e+01
  -1.346726e+02   1.791059e+01
  -1.380662e+01  -2.678393e+01
   4.121587e+01  -5.725526e+01
   4.015570e-01   1.462340e+01
  -1.393731e+01  -9.006076e-01
  -8.241195e+01   1.067811e+01
  -7.009337e+01  -1.098064e+02
   7.482193e+01  -1.483199e+02
   1.613271e+02  -4.051911e+01
   8.899354e+01   8.329624e+01
   3.452759e+01   1.320098e+02
  -9.261482e+01   1.552910e+02
  -1.271208e+02   5.637875e+01
  -1.017010e+01  -9.170876e+01
   3.407305e+00  -1.079790e+02
   8.368406e+01  -5.198810e+01
   5.060316e+01   3.136921e+00
  -2.264210e+01  -3.236805e+01
  -3.988887e+01  -4.321093e+01
   3.820159e+01   2.861343e+01
   1.032447e+02   7.061528e+01
   3.981287e+01   9.512276e+01
  -6.545454e+01   6.338264e+01
  -9.373678e+01  -1.320811e+01
  -1.285648e+02  -1.742821e+01
  -5.560498e+01  -5.649372e+01
   7.396007e+01  -4.743133e+01
   5.812569e+01   1.739306e+01
   5.487771e+01   1.393193e+01
   6.933446e+00  -8.377221e+00
  -1.478738e+01  -8.590995e+00
  -1.348625e+01   4.737598e+01
   1.474319e+01  -4.859372e+01
  -5.409206e+01   4.968385e+01
  -5.358058e+01  -1.832750e+01
   1.043509e+01  -5.342159e+01
   1.168701e+02  -1.104703e+02
   1.342106e+02  -5.982288e+01
   1.264322e+02   5.953309e+01
  -2.590704e+01   1.715873e+02
  -4.981523e+01   1.644121e+02
  -8.810714e+01   7.910715e+01
  -4.485015e+01  -1.089151e+01
  -7.355172e+01  -1.962207e+01
  -4.651452e+01  -1.544260e+01
  -5.473705e+00  -9.317220e+00
  -2.726646e+01  -4.243180e+01
  -6.264237e+01  -8.981539e+01
   2.171016e+01  -3.932655e+01
   1.015243e+02  -1.792029e+01
   3.652273e+01   1.029435e+02
   8.678862e+01   1.400400e+02
  -6.127470e+01   3.377987e+01
  -8.496280e+01  -6.352398e+01
  -5.755180e+01  -1.110249e+02
   9.749716e+01  -2.938369e+01
   8.871883e+01   5.919442e+01
   7.579537e+01   4.864012e+01
  -6.650520e+01   4.061863e+01
  -5.433851e+01   4.242100e+01
   1.715706e+01   2.980978e+01
   4.834771e+01  -3.078167e+01
  -2.101979e+01   5.115817e+01
  -5.109966e+01   7.993770e+01
  -1.134925e+02   5.899292e+01
  -8.982580e+01  -3.471201e+01
   4.843838e+01  -1.337944e+02
   7.090736e+01  -1.040730e+02
   1.572938e+01  -3.074860e+01
   3.682171e+01   2.529042e+01
  -7.581821e+01   4.485779e+01
  -1.538825e+01  -3.270990e+00
  -3.017865e+01  -7.233443e+01
   4.565502e+01  -5.896175e+01
   6.334030e+01  -2.030063e+01
  -9.666232e+00   3.306781e+01
   1.614168e+01  -1.096019e+02
  -2.803701e+01  -2.382876e+01
  -3.236175e+01   1.201849e+01
   1.502980e+01   6.906252e+01
  -1.735168e+01   4.457315e+01
  -4.530924e+01   5.601336e+00
  -2.030469e+01  -8.619090e+01
  -5.235404e+01  -4.075326e+01
   4.659518e+01  -4.400329e+01
   7.308934e+01   1.912871e+01
   9.215806e+00   3.379907e+01
  -2.746315e+01   2.428722e+01
  -8.306226e+01  -2.920291e+01
  -3.057816e+01  -4.633526e+01
   4.639135e+01   3.565816e+00
   2.963922e+01  -3.985760e+01
  -3.940510e+01  -5.975075e+01
  -9.034236e-01   1.303779e+01
  -2.837833e+01   3.146467e+01
  -1.284061e+01  -1.195360e+01
   5.779773e+01   1.180056e+01
