
 $NMID
 id='ANONYMOUS ', fmtdat='(2E16.6)'
 volume=1.0
 tramp=1.0
 $END
   3.104551e+03   4.508882e-01
   2.009765e+03   1.558799e+03
  -4.607352e+01   1.952974e+03
  -1.180912e+03   1.147589e+03
  -8.851905e+02   1.366923e+02
  -2.882209e+01  -2.052119e+02
   3.604095e+02   8.002028e+01
   3.744225e+01   5.359419e+02
  -4.097861e+02   5.412054e+02
  -6.401555e+02   9.060385e+01
  -3.997067e+02  -5.016076e+02
   1.339305e+01  -5.756899e+02
   3.007255e+02  -1.826833e+02
   2.592840e+02   3.613072e+02
  -9.096007e+01   5.483674e+02
  -3.374282e+02   8.883072e+01
  -3.004540e+02  -4.918550e+02
   6.752016e+01  -6.547878e+02
   4.895512e+02  -2.907907e+02
   3.788316e+02   2.023572e+02
   1.002642e+02   3.150991e+02
  -1.672145e+02   2.374710e+02
  -5.931675e+01   7.991393e+01
   1.444136e+02   5.935760e+01
   2.823854e+02   2.807593e+02
   3.591387e+01   3.860010e+02
  -3.938955e+02   1.435542e+02
  -5.308725e+02  -1.329075e+02
  -2.054946e+02  -3.579223e+02
   3.091561e+02  -2.200579e+02
   4.621838e+02   1.066653e+02
   1.653679e+02   3.058208e+02
  -2.533881e+02   3.419717e+02
  -4.333381e+02   1.344312e+02
  -3.257403e+02  -1.694921e+02
  -3.130794e+01  -3.115388e+02
   7.069643e+01  -1.301968e+02
  -5.936695e+01   8.105257e+01
  -1.328877e+02   1.720959e+02
  -2.153800e+02  -1.335908e+02
  -7.615727e+00  -4.467468e+02
   1.449501e+02  -4.285757e+02
   3.782598e+02  -6.259373e+01
   1.077386e+02   2.664799e+02
  -1.736561e+02   1.146435e+02
  -1.223761e+02  -2.699922e+02
   5.280285e+01  -3.623263e+02
   4.192194e+02  -2.378629e+01
   4.683365e+02   2.987464e+02
   1.344905e+02   5.438640e+02
  -2.607104e+02   2.784763e+02
  -5.149579e+02  -2.503904e+01
  -3.284149e+02  -2.441692e+02
   8.797695e+01  -2.555135e+02
   2.655785e+02  -1.018827e+02
   1.461798e+02  -6.233560e+00
   1.699276e+01  -1.212310e+00
  -1.061369e+01  -8.331973e+01
   8.757003e+01   9.438902e+00
   1.996703e+02   8.084678e+01
   6.547984e+01   1.679400e+02
  -1.290717e+02   2.365847e+02
  -3.039365e+02   1.097242e+02
  -2.428408e+02  -8.163233e+01
  -1.235854e+01  -3.149724e+02
   2.725674e+02  -3.511887e+02
   2.953948e+02  -1.621028e+02
   2.123917e+02   1.845882e+02
   9.241972e+01   3.248086e+02
  -6.172113e+01   2.823025e+02
  -2.264344e+01   1.688677e+02
  -7.431213e+01   9.434441e+01
  -1.334025e+02   1.414501e+02
  -2.095952e+02   1.003879e+02
  -2.807580e+02  -1.424766e+02
  -9.185576e+01  -2.713546e+02
   9.836593e+01  -1.547630e+02
   2.267088e+02  -3.492271e+01
   8.533067e+01   2.037261e+02
  -3.816350e+01   2.151238e+02
  -1.852429e+02   1.079439e+02
  -2.604891e+02  -1.971435e+02
  -1.414725e+02  -2.916706e+02
   8.863370e+01  -2.547503e+02
   1.442580e+02  -1.002518e+02
   1.857028e+02  -1.181681e+02
   1.760578e+02  -6.904719e+01
   2.519985e+02  -4.262238e+01
   4.082075e+02   5.311504e+01
   3.240776e+02   3.060896e+02
  -2.112143e+01   3.942825e+02
  -3.706098e+02   3.245464e+02
  -4.530960e+02   1.385957e+02
  -2.457498e+02  -9.564750e+01
  -1.891906e+00  -2.740689e+02
   9.337940e+01  -2.102103e+02
   4.005449e+01  -4.209042e+01
  -1.141461e+02   4.432645e+01
  -1.078614e+02  -4.737013e+01
   7.904271e+00  -1.135687e+02
   1.455291e+02  -6.804568e+01
   9.593852e+01   8.288577e-01
  -3.664396e+01   1.532671e+02
  -1.428493e+02  -1.172598e+01
  -1.181013e+02  -2.213436e+02
   6.861502e+01  -3.077826e+02
   2.356863e+02  -2.129230e+02
   3.104571e+02   3.958974e+01
   2.382538e+02   2.461328e+02
   5.975789e+01   2.385975e+02
  -9.214015e+01   1.056627e+02
  -1.357560e+02   3.209467e+01
  -1.773584e+01   3.598693e+01
   1.421555e+01   6.886311e+01
  -1.763236e+01   1.299695e+02
  -1.295107e+02  -1.278460e+01
  -1.562379e+02  -6.719838e+01
  -3.595200e+01  -6.133281e+01
   1.171785e+02   9.303225e+00
   1.134957e+01   1.287195e+02
  -1.554935e+02   7.756895e+01
  -3.171066e+02  -2.256576e+00
  -2.191116e+02  -1.286320e+02
   1.597811e+01  -2.543531e+02
   2.052803e+02  -1.767052e+02
   2.698888e+02  -6.640446e+01
   1.535433e+02   9.583125e+01
  -2.088352e+01   1.058812e+02
  -2.702515e+01  -1.937042e+01
   4.975964e+01  -5.303072e+01
   1.949567e+02  -1.563807e+01
   1.571871e+02   4.192356e+01
   7.348296e+01   1.972122e+02
  -9.593717e+01   9.098624e+01
  -1.455020e+02  -1.015044e+01
  -2.766643e+01  -4.811484e+01
   5.798940e+01   1.388829e+01
  -2.422705e+01   6.087482e+01
  -5.713296e+01   8.306077e+01
  -2.144490e+02   1.507520e+01
  -2.068538e+02  -1.373168e+02
   2.751318e+01  -1.776588e+02
   1.864646e+02  -9.618926e+01
   1.379613e+02  -3.717796e+01
   3.668319e+01   9.944091e+01
  -2.937362e+01   6.786681e+01
  -4.281873e+01   2.760151e+01
  -8.991510e-01  -2.668426e+01
   2.757652e+01  -1.798389e+01
  -1.139955e+01   1.724843e+01
  -9.005660e+01   3.210202e+01
  -9.866360e+01  -5.216630e+01
  -1.108879e+01  -1.788507e+02
   1.281002e+02  -1.142738e+02
   1.905017e+02  -2.731757e+01
   1.295827e+02   1.474226e+02
   6.881623e+01   2.329842e+02
  -1.054454e+02   1.510600e+02
  -1.469434e+02   3.328879e+01
  -9.067245e+01  -5.763505e+01
  -7.278944e+00  -4.941125e+01
  -1.302294e+02  -3.013254e+01
  -4.140392e+01   1.958616e+01
  -5.141457e+01  -2.185219e+01
   1.844461e+01  -8.052395e+01
   1.211302e+02  -6.071786e+01
   1.105203e+02   1.485780e+01
  -3.327676e+01   1.583068e+02
  -1.776537e+02   9.216339e+01
  -2.087872e+02  -3.873659e+00
  -9.047813e+01  -2.455819e+02
   9.797546e+01  -2.283683e+02
   2.584818e+02  -1.098633e+02
   2.012287e+02   9.883729e+01
   6.897534e+01   1.029196e+02
  -1.354670e+01   1.780334e+02
  -6.059589e+01   8.854795e+01
  -4.483014e+01   1.185501e+01
  -1.079240e+01   1.379849e+02
  -1.073630e+02   1.263721e+02
  -1.614322e+02   1.462088e+01
  -9.964594e+01  -1.466091e+02
  -4.249312e+01  -1.969955e+02
   1.254899e+02  -1.797812e+02
   1.419175e+02  -7.175056e-01
   1.740163e+02   7.719348e+01
   2.582596e+01   1.525440e+02
  -1.183339e+02   5.497768e+01
  -8.769287e+01  -9.786922e+00
  -4.158847e+01  -3.095884e+01
  -1.266862e+01  -6.058735e+01
   2.185595e+00   2.455400e+01
  -7.689601e+01  -3.939882e+01
  -8.114708e+01  -2.750855e+01
   9.274267e+01  -4.346024e+01
   1.742394e+02   3.419787e+01
   1.006051e+02   7.126914e+01
  -5.284078e+01   1.054392e+02
  -1.487738e+02   1.343483e+02
  -1.133406e+02  -1.616597e+01
  -1.926005e+01  -3.303314e+01
   6.942859e+01   8.737682e+00
   8.117631e+01   2.595252e+01
  -2.598791e+01   8.934550e+01
  -2.883017e+01   3.657997e+01
  -7.350336e+01   2.399423e+01
  -4.227577e+01  -4.811068e+01
  -4.175433e+01  -2.821390e+01
  -3.999101e+01   1.482362e+01
  -5.482495e+01   1.353776e+01
  -1.298367e+01  -3.857513e+01
   2.150369e+01  -1.089840e+02
   1.759713e+02  -8.756321e+01
   1.709629e+02  -4.948216e+00
   1.713013e+02   1.036806e+02
   8.155643e+00   1.024330e+02
  -8.759978e+01   4.340628e+01
  -1.530028e+01  -5.202625e+01
   6.308294e+01  -1.228764e+01
   1.346642e+02   6.338234e+01
   9.247318e+01   1.078240e+02
  -6.792292e+01   8.107353e+01
  -1.695396e+02   6.003194e+01
  -1.325798e+02  -5.879857e+01
  -4.170324e+00  -5.566642e+01
   6.995155e+01  -8.448699e+01
   7.610891e+01   5.609854e+01
  -7.263218e+01   4.067392e+01
  -1.348577e+02  -2.673335e+01
  -2.702028e+01  -1.261211e+02
   5.118159e+01  -1.419029e+02
   1.642839e+02  -1.316838e+02
   1.396588e+02   4.920737e+01
   5.011026e+01   1.813750e+02
  -9.337089e+01   1.410008e+02
  -1.120444e+02  -2.100315e+01
  -1.086701e+02  -8.573774e+01
   6.242866e+01  -1.218867e+02
   8.869330e+01  -6.270140e+01
   7.017350e+01   2.836359e+01
   5.243086e+01   1.474750e+01
  -1.417509e+01  -6.896297e+01
  -2.840672e+01  -1.293592e+01
   5.590388e+01   7.452394e+01
   3.668606e+01   6.009567e+01
  -4.233322e+01   1.274480e+01
  -8.993884e+01  -2.262139e+01
  -1.453884e+02  -4.421939e+01
   1.507937e+01  -4.263562e+01
   7.918215e+01  -2.797024e+01
   1.073456e+02   3.063047e+01
   2.447637e+01  -5.715692e+01
  -3.526579e+01   6.758418e+01
  -8.501573e+00  -2.274797e+01
   3.108855e+01  -2.797873e+01
   6.575757e+00   5.040691e+01
  -9.500001e+01   3.480040e+01
  -1.732658e+02   2.200473e+01
  -2.320831e+01  -1.225718e+02
   7.322826e+01  -9.804468e+01
   1.381979e+02  -1.071098e+02
   1.512738e+02  -1.673081e+01
   5.468481e+01   1.790095e+02
  -1.149419e+02   1.276389e+02
  -1.206685e+02   4.867286e+01
  -1.330344e+02  -2.942525e+01
  -4.802705e+00  -3.456505e+01
   3.515303e+00  -2.000715e+01
  -1.702004e+01  -5.149140e+01
  -5.333502e+01  -9.120838e+01
  -9.918164e+00  -1.168912e+02
   6.252342e+01  -2.673693e+01
   3.078384e+01   8.421918e+01
   4.851322e+01   1.196760e+02
   4.515144e+01   1.001237e+02
  -6.490225e+01   3.456283e+01
  -1.530736e+02  -4.404686e+01
  -4.846473e+01  -1.020167e+02
   5.099286e+01  -4.378126e+01
   1.039957e+02  -2.406990e+01
   5.821377e+01   9.433231e+01
  -7.531568e+00   8.677522e+01
  -3.308423e+01   2.655902e+01
   2.388468e+01   5.066974e+01
   6.198822e+01   1.524337e+01
   1.240849e+00  -2.180762e+01
  -1.109871e+02   5.167928e+01
  -8.371051e+01   6.714729e+01
  -1.065988e+02   9.087957e+00
   2.347724e+01  -1.056885e+02
   6.179941e+01  -2.404027e+01
   6.721885e+01  -2.898442e+00
   7.155323e+00   4.281610e+01
   5.764416e-02   6.360122e+01
  -3.140767e+01  -2.682756e+01
  -4.647935e+01  -6.183094e+01
   1.331298e+01  -3.936681e+01
   6.608104e+01   1.878212e+01
   4.958772e+01   4.384481e+01
   8.080403e+01  -1.049270e+01
  -2.598088e+00  -4.379816e+00
  -1.228696e+01  -3.346569e+01
   8.266191e+00   2.544716e+01
  -1.509563e+01   3.378356e+01
   1.301898e+01   6.545276e+01
  -4.158123e+01  -9.952098e+01
   1.810120e+01  -1.132019e+02
   1.653421e+01  -2.618003e+01
   2.413046e+01  -3.729213e+01
  -9.713497e+00   6.515960e+01
  -1.042560e+02   3.317072e+01
  -1.989188e+01  -2.741777e+01
  -6.430095e+00  -7.457547e+01
   1.417500e+01  -2.272665e+00
   9.076604e+01  -4.018756e+01
   4.310530e+01  -1.821260e+01
  -4.283864e+01   3.376144e+01
  -1.570239e+00   1.509371e+00
   2.266170e+01  -2.804682e+01
   1.134858e+02  -2.426238e+01
