
 $NMID
 id='ANONYMOUS ', fmtdat='(2E16.6)'
 volume=1.0
 tramp=1.0
 $END
  -2.962472e+03   5.225749e+01
  -1.972840e+03  -1.479808e+03
  -4.879927e+01  -1.909709e+03
   1.114020e+03  -1.229986e+03
   8.732679e+02  -2.576713e+02
   2.237546e+01   2.006097e+02
  -3.402170e+02  -4.795659e+01
  -6.712030e+01  -4.389160e+02
   3.988998e+02  -5.151174e+02
   6.038859e+02  -1.111740e+02
   3.828305e+02   4.460604e+02
   1.037624e+01   5.888732e+02
  -3.052946e+02   2.073975e+02
  -2.482209e+02  -3.734044e+02
   6.089860e+01  -5.130101e+02
   3.824953e+02  -6.492645e+01
   2.804434e+02   4.454379e+02
  -7.296778e+01   6.039645e+02
  -4.112542e+02   2.631090e+02
  -4.341134e+02  -1.481414e+02
  -1.243279e+02  -3.668877e+02
   1.153369e+02  -2.348307e+02
   1.514872e+01  -6.543994e+01
  -1.601725e+02  -7.927030e+01
  -2.339505e+02  -2.659002e+02
  -1.408497e+00  -3.233124e+02
   4.152141e+02  -1.458723e+02
   5.494021e+02   1.696702e+02
   2.272460e+02   2.807309e+02
  -2.564223e+02   1.274388e+02
  -4.779284e+02  -1.861004e+02
  -1.714779e+02  -3.394741e+02
   2.260112e+02  -3.434554e+02
   4.331616e+02  -1.181774e+02
   2.636489e+02   1.368394e+02
   9.345966e+01   2.784943e+02
  -1.412000e+01   1.591574e+02
   5.428257e+01  -1.126441e+01
   2.000471e+02  -1.425826e+02
   2.050333e+02   6.572457e+01
   2.908505e+01   4.858372e+02
  -2.014030e+02   3.915035e+02
  -3.076591e+02  -2.072912e+01
  -1.529111e+02  -2.950100e+02
   1.237114e+02  -1.465564e+02
   1.478619e+02   2.338840e+02
  -1.111988e+02   3.587574e+02
  -4.498494e+02   6.228343e+01
  -4.265114e+02  -3.510391e+02
  -1.831289e+02  -4.832821e+02
   2.500426e+02  -2.496006e+02
   4.758720e+02   7.810649e+01
   3.374410e+02   2.338833e+02
  -2.390320e+01   2.579374e+02
  -2.694858e+02   6.674142e+01
  -2.209339e+02  -8.408566e+00
  -3.209435e+01   2.630849e+01
   8.204516e+01   8.474630e+00
  -1.205569e+02   6.499346e+01
  -1.514786e+02  -1.653814e+01
  -1.260392e+02  -1.329100e+02
   1.567283e+02  -2.362276e+02
   2.728202e+02  -6.468403e+01
   2.324718e+02   1.359751e+02
  -4.214808e+01   3.666061e+02
  -2.682876e+02   3.266514e+02
  -3.439185e+02   1.549945e+02
  -2.200391e+02  -1.697056e+02
   2.501625e+01  -3.375960e+02
   2.955176e+01  -3.172851e+02
   1.013970e+01  -2.087527e+02
   2.282637e+01  -1.230955e+02
   1.479397e+02  -1.941265e+02
   2.264889e+02  -6.665217e+01
   1.544550e+02   6.123875e+01
   1.136265e+02   2.276698e+02
  -1.175231e+02   2.016381e+02
  -1.601388e+02  -2.070674e+01
  -8.346096e+01  -2.357714e+02
   4.018312e+01  -2.498549e+02
   2.310702e+02  -1.161917e+02
   2.474926e+02   2.131452e+02
   1.496717e+02   3.035479e+02
  -3.700610e+01   2.860757e+02
  -1.108077e+02   1.150353e+02
  -1.168047e+02   6.134237e+01
  -1.001773e+02   6.158456e+01
  -2.668919e+02   5.136960e+01
  -3.891889e+02  -6.616610e+01
  -2.559082e+02  -2.976670e+02
   4.165928e+01  -3.842621e+02
   2.980284e+02  -4.082854e+02
   4.428991e+02  -1.409883e+02
   3.058087e+02   1.153093e+02
  -1.518509e+01   2.792550e+02
  -9.927332e+01   2.196659e+02
   3.383862e+01   2.276394e+01
   1.132604e+02  -2.473795e+01
   1.541082e+02  -1.714258e+01
  -5.222801e+01   1.609778e+02
  -8.609891e+01   7.108283e+01
  -7.063285e+01  -2.630120e+01
   4.906671e+01  -4.470597e+01
   1.193193e+02   2.100573e+01
   1.680114e+02   1.881524e+02
  -3.779509e+01   3.357584e+02
  -1.930796e+02   2.304250e+02
  -3.165183e+02  -1.129524e+02
  -2.782537e+02  -2.360952e+02
  -9.432464e+01  -2.545245e+02
   1.648044e+02  -1.005623e+02
   1.555539e+02   1.363264e+01
   2.530909e+01  -4.739098e+00
  -8.073674e+01  -9.930427e+01
   5.608139e+00  -1.180337e+02
   1.124612e+02  -5.457161e+01
   1.343549e+02   6.452096e+01
   3.760077e+01   7.209087e+01
  -7.824339e+01  -3.361827e+01
  -6.731237e+00  -1.266158e+02
   1.455948e+02  -1.015349e+02
   2.735629e+02   1.181016e+01
   2.437240e+02   1.781480e+02
   6.277757e+01   2.556723e+02
  -1.674779e+02   2.369881e+02
  -2.149021e+02   1.039847e+02
  -5.020249e+01  -4.719163e+01
   1.086346e+00  -3.579254e+01
   5.023302e+01  -2.929747e+01
  -2.427412e+01   5.900364e+01
  -1.521296e+02   2.699838e+01
  -2.245846e+02  -6.162326e+01
  -2.773874e+01  -1.584193e+02
   1.360810e+02  -1.785217e+02
   1.241455e+02   3.192000e+01
   4.399604e+01   3.674299e+01
  -2.552687e+01  -2.479723e+01
  -9.491753e+00  -9.812090e+01
   1.508145e+02  -9.415054e+01
   2.025310e+02  -2.088425e+01
   1.830437e+02   7.088019e+01
  -3.568554e+01   2.149646e+02
  -1.342384e+02   1.295712e+02
  -1.305783e+02   7.130566e+01
   3.900811e+00  -9.357364e+01
   3.368584e+01  -7.881270e+01
   2.256471e+01   8.526655e+00
   1.840557e+01   6.351624e+00
  -5.113653e+01  -1.774283e+01
   2.945847e+00  -1.808002e+01
   8.964446e+01  -4.784826e+01
   7.545627e+01   6.815470e+01
   4.709177e+01   1.649193e+02
  -1.119926e+02   1.514560e+02
  -2.217776e+02   4.350378e+00
  -1.312066e+02  -1.041796e+02
  -3.472205e+01  -1.687701e+02
   1.050299e+02  -1.737397e+02
   1.392600e+02  -1.601538e+01
   1.207162e+02  -8.483148e+00
   5.262708e+01  -3.419422e+00
   7.218928e+01  -7.998260e+00
   7.905409e+01   7.152340e+01
   4.398330e+01   5.660801e+01
  -1.053880e+01   1.297902e+02
  -1.109078e+02   4.611181e+01
  -1.040089e+02  -3.356265e+01
  -1.157322e+01  -1.578207e+02
   1.674425e+02  -5.510246e+01
   2.287927e+02   6.303270e+01
   1.291300e+02   1.933945e+02
  -1.200951e+02   1.240453e+02
  -2.630539e+02   6.818279e+01
  -2.397827e+02  -7.608737e+01
  -6.572066e+01  -1.648876e+02
  -3.282601e+01  -1.260313e+02
   6.313420e+01  -7.614536e+01
   6.731398e+01  -5.914992e+01
   5.071215e+01  -9.831257e+01
   1.245621e+02  -1.133853e+02
   1.031142e+02   6.448106e+00
   1.081302e+02   1.479756e+02
   4.330846e+01   1.980117e+02
  -9.619190e+01   1.768366e+02
  -1.658485e+02   2.254853e+01
  -8.694567e+01  -9.987260e+01
   5.970039e+00  -8.452509e+01
   1.016673e+02  -2.928002e+01
   6.161985e+01  -1.597524e+01
   8.081983e+00   1.396065e+01
  -1.819026e+01   3.285793e+01
   1.886452e+01  -5.067244e+01
   1.054460e+02   1.183561e+01
   2.935250e+01   8.091532e+00
  -5.724504e+01   1.328030e+01
  -1.980137e+02   2.486661e+01
  -1.240802e+02  -6.103215e+01
   3.065785e+01  -1.131976e+02
   1.944876e+02  -8.127367e+01
   1.424958e+02  -3.974347e+01
   1.999638e+01   7.615589e+01
  -1.028110e+02   1.400258e+01
  -5.892883e+01  -3.332983e+01
  -5.319398e+01  -7.028834e+01
   1.123400e+01  -9.610259e+01
   6.935985e+01  -2.804840e+01
   3.126030e+00   2.070759e+01
   7.125015e+01   5.695192e+01
   9.108630e+01  -2.095664e+01
   8.314276e+01  -4.877583e+00
   7.021021e+01   6.532615e+01
  -3.434258e+01   1.274327e+02
  -1.511050e+02   1.627275e+02
  -1.533883e+02   6.723698e+01
  -1.411697e+02  -8.233285e+01
  -7.722489e+00  -1.544586e+02
   9.907657e+01  -7.452254e+01
  -3.075015e+00   4.042173e+01
  -7.088261e+01  -1.308089e+01
  -1.225247e+02  -1.013728e+02
  -9.020808e+01  -6.581366e+01
   7.500822e+01  -1.161540e+02
   1.911664e+02  -1.064641e+02
   2.053751e+02   1.947413e+01
   6.833212e+01   1.025261e+02
  -9.072821e+01   4.517318e+01
  -5.690331e+01   3.567889e+01
   6.346930e+01  -3.164675e+01
   9.772926e+01   7.845458e+01
   7.208235e+01   9.722436e+01
  -5.558644e+01   1.538262e+02
  -1.486133e+02   3.452718e+01
  -1.210451e+02  -9.065082e+01
   4.953231e+01  -2.279078e+02
   1.136190e+02  -1.519907e+02
   1.092892e+02   2.014589e+01
   6.810911e+01   1.195506e+02
  -5.827109e+01   7.214134e+01
  -3.797283e+01   1.422732e+01
   4.156376e+00  -3.687995e+01
  -3.023127e+01   7.692239e-01
  -2.527219e+00   1.949284e+01
   2.276966e+01  -1.227579e+01
  -3.043592e+01  -9.588162e+01
  -6.238278e+00  -1.282294e+02
   8.411831e+01  -9.780527e+01
   1.348824e+02   3.638637e+01
   9.444993e+01  -3.830175e+01
  -6.163104e+01   2.022965e+01
  -1.042362e+02   3.019316e+01
  -7.590388e+01   2.499499e+01
  -6.017853e+01  -1.718058e+01
   3.089440e+01  -3.199672e+01
   2.812742e+01   2.065014e+00
   2.952571e+01   1.524866e+01
   3.934779e+00  -4.336268e+00
   8.359571e+01   3.090052e+00
   1.098538e+02   1.928247e+01
   5.211253e+01   1.236967e+02
  -7.141257e+01   8.631977e+01
  -1.318195e+02   4.277990e+01
  -1.147960e+02  -3.993355e+01
  -2.507039e+00  -1.386053e+02
   8.427479e+01  -1.235645e+02
   1.081077e+02  -5.851075e+01
   4.236125e+01   6.254635e+01
  -1.453648e+01   5.060303e+01
  -4.079220e+01   2.247991e+01
   4.923158e+01   1.383027e+01
   2.347506e+01   8.194573e+01
   3.126550e+01   3.720115e+01
   7.950676e+00   8.169700e+01
  -8.092724e+01   1.372653e+00
  -1.113642e+02  -1.213562e+02
  -1.060725e+02  -1.303790e+02
   4.201245e+01   4.527916e+00
   8.370457e+01   4.797409e+01
   7.125826e+01   1.006169e+02
  -2.718415e-01   9.165797e+01
  -1.068239e+02  -7.366721e+01
  -4.353135e+01  -4.213900e+01
   7.572342e+01  -9.711825e+01
   9.291702e+00  -4.831053e+00
  -2.162161e+01   6.822257e+01
  -6.983358e+01  -2.198558e+01
  -2.671976e+01  -6.968743e+00
   5.726826e+01  -9.978488e+01
   1.558412e+02  -3.206723e+01
   7.462491e+01   1.709686e+01
  -4.115233e+01   1.008788e+02
  -6.225933e+01   8.100003e+01
  -5.095790e+01   1.597579e+01
   2.381813e+00  -5.404526e+01
   4.158669e+01  -5.596341e+01
   9.288801e+00   2.135941e+01
   9.346123e+00   5.133675e+01
   4.136325e+01  -8.199519e-01
  -3.608971e+01  -2.504143e+01
  -4.579136e+00  -7.342549e+00
  -7.050014e+01   1.737164e+00
   9.167819e+00  -1.106988e+00
  -1.070995e+00   6.949734e+01
   1.284090e+01  -2.641984e+00
  -6.452512e+01  -3.945235e+01
  -5.152445e-01   1.014237e+01
   2.286335e+01  -6.089705e+00
   2.141825e+01  -5.032479e+00
   4.270954e+00   7.651443e+00
  -6.120588e+01  -6.437580e+01
  -8.995562e+01  -7.241930e+01
   3.732150e+01  -3.540777e+01
   1.355091e+02   4.494172e+01
   5.988137e+01   7.338779e+01
  -6.875268e+00   8.084865e+01
  -1.154664e+02   6.314139e+01
  -5.884285e+01   1.630334e+01
   5.184432e+00  -1.202165e+01
   8.248593e+01  -8.983970e+00
  -9.075082e+00   2.270131e+01
  -6.641857e+01   1.364912e+01
