
 $NMID
 id='ANONYMOUS ', fmtdat='(2E16.6)'
 volume=1.0
 tramp=1.0
 $END
  -3.124446e+03  -7.397688e+00
  -2.046915e+03  -1.677178e+03
   1.149565e+02  -2.015619e+03
   1.367737e+03  -1.063426e+03
   9.150736e+02  -8.907319e+00
  -1.022047e+02   2.361164e+02
  -4.502135e+02  -1.204596e+02
  -6.639716e+01  -6.050534e+02
   4.854777e+02  -5.965139e+02
   7.198880e+02  -7.932558e+01
   3.942115e+02   5.761726e+02
   1.039350e+01   6.455364e+02
  -3.727478e+02   2.015006e+02
  -2.576434e+02  -3.930885e+02
   1.050850e+02  -5.154584e+02
   3.864523e+02  -6.645043e+01
   2.442964e+02   5.096831e+02
  -1.347377e+02   6.013223e+02
  -4.852400e+02   2.267205e+02
  -3.834486e+02  -2.221303e+02
  -1.079046e+02  -3.391532e+02
   1.315432e+02  -2.337604e+02
   1.070669e+02  -6.327735e+01
  -1.440831e+02   6.662747e+00
  -2.595606e+02  -2.025905e+02
  -3.122427e+01  -3.544743e+02
   4.027858e+02  -1.713769e+02
   6.221096e+02   1.858399e+02
   2.558253e+02   3.690421e+02
  -2.726654e+02   1.988953e+02
  -4.733872e+02  -7.965405e+01
  -2.477614e+02  -3.278663e+02
   2.702340e+02  -3.338237e+02
   4.769962e+02  -9.930511e+01
   3.189145e+02   1.667049e+02
   1.023590e+02   2.954782e+02
  -1.052917e+02   1.473367e+02
   3.402262e+01  -1.616234e+02
   2.060975e+02  -2.149807e+02
   2.348562e+02   6.791402e+01
   2.926944e+01   4.824880e+02
  -2.780221e+02   4.671589e+02
  -2.993224e+02  -2.543379e+01
  -1.234107e+02  -3.900549e+02
   1.421257e+02  -1.806668e+02
   1.735779e+02   2.053596e+02
  -8.859869e+01   3.819101e+02
  -4.128423e+02   6.146105e+01
  -4.367484e+02  -3.124542e+02
  -1.648985e+02  -4.292602e+02
   2.694027e+02  -2.352711e+02
   4.467038e+02   7.570973e+01
   4.023394e+02   2.203928e+02
  -6.952059e+01   2.619894e+02
  -3.242977e+02   8.507674e+01
  -2.628908e+02  -8.528068e+01
   3.138071e+01  -3.847878e+01
   4.823050e+01   4.950425e+01
  -1.108127e+02   6.412573e+01
  -1.841908e+02  -7.160430e+01
  -1.345391e+02  -2.569813e+02
   1.183188e+02  -1.843597e+02
   3.361767e+02  -1.243498e+02
   1.777222e+02   8.702836e+01
  -2.952510e+01   3.081359e+02
  -2.241556e+02   3.437175e+02
  -2.823499e+02   1.718539e+02
  -2.592943e+02  -1.287293e+02
  -5.326811e+01  -2.716667e+02
  -1.517667e+00  -3.816501e+02
   3.488528e+01  -1.674978e+02
   2.525288e+01  -8.503685e+01
   6.706477e+01  -1.175735e+02
   2.280490e+02  -9.045601e+01
   2.160595e+02   1.570696e+02
   7.156855e+01   2.537224e+02
  -9.185582e+01   1.787403e+02
  -1.564286e+02  -5.402722e+01
  -1.847504e+02  -1.966390e+02
   1.827362e+00  -2.133757e+02
   1.423277e+02  -6.949756e+01
   2.789621e+02   1.439976e+02
   1.692333e+02   2.498563e+02
  -4.024049e+01   3.140191e+02
  -1.810375e+02   1.385740e+02
  -1.362413e+02   8.234470e+01
  -1.253684e+02   2.763526e+01
  -2.348887e+02   3.147786e+01
  -3.332502e+02  -7.210073e+01
  -2.565876e+02  -3.052343e+02
   1.341302e+01  -4.189350e+02
   3.291687e+02  -3.989894e+02
   4.178933e+02  -1.415044e+02
   3.232129e+02   7.366643e+01
   3.229851e+01   1.945721e+02
  -7.657945e+01   1.860528e+02
  -2.470850e+01   7.511720e+01
   1.287412e+02  -5.341738e+01
   1.494462e+02   2.049477e+01
   5.150804e+01   2.085173e+02
  -7.237449e+01   8.114857e+01
  -1.307518e+02  -8.063253e+01
   5.984466e+01  -1.282309e+02
   1.523537e+02   2.167936e+01
   1.073156e+02   1.639482e+02
   4.811376e+00   3.052890e+02
  -1.932004e+02   1.949341e+02
  -3.152888e+02  -9.781703e+01
  -2.586845e+02  -1.864393e+02
  -9.681658e+01  -2.557519e+02
   1.223171e+02  -9.544587e+01
   1.257542e+02  -4.629594e+01
   7.418943e+01   2.148086e+01
  -5.932339e+01  -4.810928e+01
  -3.462600e+01  -3.600090e+01
   8.957328e+01  -5.580373e+01
   1.484745e+02   5.113976e+01
   3.123064e+01   1.647045e+00
  -3.664264e+01   3.994647e+01
  -7.002303e+01  -5.023279e+00
   1.550685e+02  -7.341212e+01
   3.021573e+02   4.340171e+01
   2.758825e+02   2.050105e+02
   3.797124e+01   2.473830e+02
  -1.783412e+02   1.937691e+02
  -2.009979e+02   1.450316e+02
  -1.400737e+02  -8.130558e+01
   5.192322e+01  -4.132936e+01
   1.983922e+01  -1.220901e+01
  -5.479225e+00   3.834479e+01
  -1.660058e+02  -2.063712e+00
  -1.779278e+02  -9.773557e+01
  -7.514001e+01  -1.501886e+02
   7.611340e+01  -6.137227e+01
   9.962489e+01   5.272087e+00
   4.213020e+01   3.947901e+01
  -2.859042e+00  -7.520067e+01
  -4.325427e+01  -7.532678e+01
   7.728192e+01  -1.312176e+02
   2.209829e+02  -3.042956e+01
   1.850234e+02   9.803500e+01
   1.283890e+01   2.096820e+02
  -1.283827e+02   1.190048e+02
  -1.797163e+02  -8.690331e+00
  -9.392260e+01  -6.894805e+01
   6.233686e+01  -7.453402e+01
   7.470654e+01   1.586444e+01
  -4.494200e+01   5.452680e-01
  -5.100924e+01   5.440539e+01
   2.223266e+01  -6.043739e+01
   5.787098e+01  -1.318172e+01
   1.137863e+02   6.120948e+01
  -6.370937e+01   1.240635e+02
  -1.451720e+02   1.069226e+02
  -2.224975e+02   6.489083e+01
  -1.487285e+02  -7.857554e+01
  -8.116880e+01  -1.905805e+02
   7.801828e+01  -1.921237e+02
   8.804048e+01  -4.769124e+01
   3.446855e+01   5.819460e+00
   3.760468e+01   7.595861e+01
   1.425636e+01  -9.058716e+01
   9.333063e+01   3.312708e+01
   1.022141e+02   2.690780e+01
  -4.981639e+01   8.270604e+01
  -1.739831e+02   2.783461e+01
  -8.589983e+01  -1.587127e+01
  -5.664929e+00  -1.262893e+02
   1.137379e+02  -9.144804e+01
   1.450566e+02   7.940026e+01
   9.615544e+01   1.870338e+02
  -1.552828e+02   2.560262e+02
  -2.198124e+02   5.796349e+01
  -2.075668e+02  -9.227534e+01
  -1.254100e+02  -1.338411e+02
   6.262651e+01  -1.403497e+02
   4.371628e+01  -1.015497e+02
   1.381291e+02  -6.561135e+01
   1.236435e+01  -6.197747e+01
   1.306603e+02  -1.190252e+02
   1.554413e+02  -4.950075e+01
   1.251039e+02   1.215724e+02
   2.618912e+01   2.386550e+02
  -6.426730e+01   1.900792e+02
  -1.509699e+02   3.173122e+01
  -7.513507e+01  -7.899900e+01
   6.759871e+00  -1.293647e+02
   7.060153e+01  -7.640263e+01
   9.872776e+01  -3.280755e+01
  -2.103876e+00   6.925674e+01
   4.007776e+01   2.444814e+01
   7.754213e+01   5.277213e+01
   1.064801e+02  -8.479012e+00
   5.016019e+01   6.157516e+01
  -4.830075e+01   1.166313e+01
  -1.754375e+02  -2.247819e+01
  -1.159940e+02  -6.545614e+01
  -8.452953e+00  -1.164599e+02
   1.802704e+02  -7.418349e+01
   1.089099e+02   3.898060e+00
   1.770718e+01   3.282969e+01
  -6.823963e+01  -3.482429e+00
  -8.868534e+01  -7.389991e+00
  -1.601583e+00  -3.057611e+01
  -4.340586e+00  -1.129407e+02
   1.145200e+02  -1.022739e+00
   3.873914e+00   5.954220e+01
   7.306280e+01   4.491406e+01
   1.283802e+01  -1.519238e+01
   5.891235e+01   5.066748e+01
   5.761529e+01   7.027329e+01
  -8.267285e+00   1.784501e+02
  -1.832751e+02   1.383282e+02
  -1.660436e+02  -8.263823e-01
  -5.782702e+01  -1.538625e+02
   4.773306e+01  -1.116355e+02
   9.847434e+01  -3.558894e+01
   4.209581e+01   1.813894e+01
  -4.544895e+01   4.127632e+01
  -7.879961e+01  -1.908233e+01
  -6.899322e+01  -8.772389e+01
   5.451162e+01  -1.247629e+02
   1.080427e+02  -8.171942e+01
   1.015698e+02   1.230584e+01
   4.106518e+01   8.094328e+01
  -3.793483e+00   5.353931e+01
  -4.177223e+01  -1.798103e+01
   3.027400e+01  -2.645170e+01
   9.430257e+01   2.606177e+01
  -3.575574e+00   3.445955e+01
  -1.062012e+01   1.217237e+02
  -1.170494e+02   2.019113e+01
  -9.444373e+01  -1.194247e+02
  -6.563251e+01  -1.276547e+02
   1.046747e+02  -8.836795e+01
   1.687432e+02  -3.753412e+01
   6.224277e+01   7.154021e+01
  -2.677934e+01   1.425247e+02
  -5.904948e+01   3.154161e+01
  -2.747974e+01   4.748679e+01
   2.568350e+00  -3.988982e+01
  -5.932038e+01  -4.704700e+01
  -7.017610e+01  -9.496375e+00
  -1.661308e+01  -5.927284e+01
  -2.108602e+01  -1.787717e+02
   4.876698e+01   1.436033e+01
   1.549299e+02   5.020555e-01
   7.826106e+01   1.005958e+02
   3.212499e+00   5.409391e+01
  -1.274094e+02   9.155028e+00
  -6.832380e+01  -3.095843e+01
  -3.433386e+01   4.947720e+01
   9.888170e+01  -6.456733e+01
   3.428078e-01   4.108956e+01
   1.282189e+01  -2.124716e+00
  -3.977061e+00   2.385394e+01
   8.633565e+01   3.471737e+01
   6.410690e+01   1.571038e+01
   2.618917e+01   7.590679e+01
  -1.106638e+02   1.714055e+02
  -1.718859e+02   6.137592e+01
  -1.685850e+02  -3.510340e+01
  -4.847577e+01  -1.408184e+02
   3.048543e+01  -1.257471e+02
   1.248653e+02  -6.765076e+01
   1.181600e+02  -1.750657e+01
   2.047894e+01   5.955461e+01
   1.908945e+01  -1.085393e+01
  -4.356202e+00   4.106577e+01
   1.495616e+01   4.613006e+01
   6.352108e+01   7.331427e+01
  -4.084195e+01   6.706992e+01
  -8.584080e+01  -2.599630e+01
  -7.661009e+01  -1.071252e+02
   1.610009e+01  -9.627667e+01
   1.189097e+02  -1.370200e+01
   7.652618e+01   6.537708e+01
   7.205698e+01   1.209765e+02
  -1.128042e+02   5.031732e+01
  -8.933915e+01  -1.126290e+01
  -5.238192e+01  -6.301944e+00
   5.074508e+01  -7.405675e+01
   9.053521e+01  -7.203279e+00
   2.841953e+01  -1.639809e+01
  -3.388638e+01   2.186858e+01
   1.716420e+01  -2.503248e+01
   6.133431e+01  -5.440518e+01
   7.480969e+01  -7.872337e+01
   9.945302e+01   3.121459e+01
   6.557073e+00   8.127192e+01
  -4.646971e+01   3.342079e+01
  -5.982789e+01   1.391065e+01
   1.765872e+01  -1.504789e+01
   3.590947e+01  -4.588365e+01
   6.826601e+00   4.608444e+01
   2.687104e+01   7.238474e+01
  -2.554281e+01  -1.599536e+01
  -4.896146e+01  -4.825523e+01
  -2.124170e+01   1.983332e+01
  -1.230661e+01   2.594691e+01
  -1.132200e+01   1.981185e+01
  -1.646723e+01   6.626256e+00
  -1.389842e+01   1.265434e+01
   3.261928e+01  -6.288214e+01
   2.805309e+01   6.852859e+00
   1.187055e+01   1.087680e+01
   7.873649e+00   8.460912e+01
  -8.985141e+01   3.906492e+01
  -5.999242e+01  -1.556630e+01
  -1.814088e+01  -5.866390e+01
   1.967989e+01  -3.951944e+01
   8.653496e+01  -1.976779e+01
   7.239201e+01   6.983970e+01
  -1.317437e+01   5.055908e+01
  -2.362455e+01   8.887045e+01
   4.684776e-01   1.840711e+01
   1.422861e+01  -6.715632e+00
   1.199700e+01   4.772679e+01
  -8.256977e+01   1.089834e+02
  -6.641217e+01   3.274882e+01
