
 $NMID
 id='ANONYMOUS ', fmtdat='(2E16.6)'
 volume=1.0
 tramp=1.0
 $END
  -2.660104e+03   3.835150e+01
  -1.796435e+03  -1.415082e+03
   6.769164e+00  -1.751270e+03
   1.067967e+03  -9.512649e+02
   7.910199e+02  -1.073655e+02
   1.035161e+01   1.783080e+02
  -3.358343e+02  -7.116144e+01
  -9.812099e+01  -5.346676e+02
   3.940872e+02  -4.895523e+02
   5.572718e+02  -1.085339e+02
   3.594465e+02   3.763813e+02
   1.600167e+01   6.205769e+02
  -3.266689e+02   1.611660e+02
  -1.913493e+02  -3.312985e+02
   1.344164e+02  -4.466409e+02
   3.277730e+02  -9.171026e+01
   2.350917e+02   3.597813e+02
  -4.775624e+01   5.399475e+02
  -3.377256e+02   2.307985e+02
  -3.234580e+02  -1.861766e+02
  -7.071404e+01  -2.408557e+02
   1.321271e+02  -2.270995e+02
   6.405443e+01  -5.215732e+01
  -1.729253e+02  -8.892799e+01
  -2.721407e+02  -1.642351e+02
  -5.186396e+01  -2.729068e+02
   3.618678e+02  -1.193722e+02
   4.859905e+02   1.429548e+02
   1.822499e+02   3.076063e+02
  -2.187872e+02   1.998554e+02
  -3.935124e+02  -1.474741e+01
  -1.579333e+02  -3.283651e+02
   2.053598e+02  -2.653738e+02
   3.218088e+02  -1.485851e+02
   2.294529e+02   1.096046e+02
   6.090233e+01   2.468377e+02
  -2.020335e+01   1.906545e+02
   2.908425e+01  -7.914422e+01
   8.860961e+01  -1.276674e+02
   2.058011e+02   8.770779e+01
   8.787865e+01   4.153065e+02
  -1.607487e+02   3.370959e+02
  -2.594212e+02   6.175741e+00
  -9.077725e+01  -2.741374e+02
   1.935203e+02  -1.344149e+02
   2.514834e+02   1.640781e+02
  -6.193834e+01   3.194459e+02
  -3.849351e+02   2.618350e+01
  -3.601594e+02  -2.756230e+02
  -8.888662e+01  -3.586516e+02
   2.898532e+02  -1.765512e+02
   4.581372e+02   5.928637e+01
   3.074068e+02   2.184537e+02
  -5.390125e+01   1.682198e+02
  -2.417409e+02   1.075450e+02
  -1.597852e+02  -2.224926e+00
   2.660148e+00  -2.840197e+01
   3.085360e+01   4.589576e+01
  -7.909432e+01   5.854141e+01
  -1.404884e+02  -5.952966e+01
  -1.095069e+02  -1.188248e+02
   1.539267e+02  -2.031218e+02
   2.601184e+02  -4.990529e+01
   1.895743e+02   1.432787e+02
  -2.210933e+01   2.711317e+02
  -2.346180e+02   2.505323e+02
  -2.812919e+02   1.287641e+02
  -1.821297e+02  -1.218405e+02
  -9.814089e+01  -2.836723e+02
   4.267388e+01  -2.062508e+02
  -1.008069e+01  -1.013155e+02
   4.266129e+01  -4.693194e+01
   1.051665e+02  -9.680067e+01
   2.011096e+02  -3.885466e+01
   1.902508e+02   9.061978e+01
   6.065096e+01   2.195205e+02
  -7.165077e+01   9.968269e+01
  -1.300335e+02  -3.050766e+01
  -1.379884e+02  -2.143319e+02
   5.216555e+01  -1.456166e+02
   1.820836e+02  -7.559843e+01
   2.789621e+02   1.508943e+02
   1.287800e+02   2.734274e+02
  -1.598754e+01   2.237782e+02
  -1.471440e+02   1.090623e+02
  -1.641678e+02   7.054703e+01
  -1.423114e+02   2.785599e+01
  -2.075406e+02   5.012478e+01
  -2.775125e+02  -9.612724e+01
  -2.325111e+02  -2.423492e+02
   4.948106e+01  -3.157968e+02
   2.791853e+02  -3.131909e+02
   3.679833e+02  -1.326320e+02
   2.298798e+02   7.765274e+01
  -1.523236e+01   2.398816e+02
  -6.091868e+01   1.964014e+02
  -1.384630e+01   1.762978e+01
   1.041467e+02  -7.051426e+01
   8.855388e+01   4.189433e+01
   8.047481e+01   1.247109e+02
  -1.378001e+02   8.635644e+01
  -1.100148e+02  -8.674073e+01
   5.370252e+01  -1.592950e+02
   1.117420e+02  -3.339297e+01
   1.194343e+02   1.527943e+02
   1.248135e+01   2.450998e+02
  -1.760669e+02   1.526627e+02
  -2.511505e+02  -2.371976e+01
  -2.260656e+02  -2.031938e+02
  -8.949403e+01  -2.079776e+02
   6.252629e+01  -1.240656e+02
   1.433810e+02   2.181138e+01
   1.082073e+01   1.731103e+01
  -2.846968e+01  -4.524899e+01
  -9.559186e+00  -7.180403e+01
   1.249678e+02  -2.973740e+01
   9.831000e+01  -2.239852e+01
   4.029916e+01   9.077638e+01
  -4.065676e+01   2.246788e+01
  -5.790980e+01  -1.055838e+02
   9.343243e+01  -2.242581e+01
   2.136928e+02   6.673468e+00
   2.046559e+02   1.481456e+02
   4.393515e+00   2.093345e+02
  -1.454741e+02   1.721050e+02
  -1.950750e+02   8.576249e+01
  -1.136281e+02  -5.364276e+01
   3.438005e+00  -3.200359e+01
   7.063666e+01   1.262945e+01
   1.177276e+01   6.042139e+01
  -1.654824e+02  -1.745178e+01
  -1.196247e+02  -5.379518e+01
  -4.780384e+01  -1.341945e+02
   9.209629e+01  -7.711620e+01
   8.195670e+01  -7.028952e+00
  -1.875437e+01   4.226736e+01
   2.170143e+01  -1.678351e+00
  -4.899782e+00  -8.586470e+01
   2.566726e+01  -1.287777e+02
   1.973669e+02   5.421408e+00
   1.538053e+02   9.445860e+01
   1.182351e+01   1.861785e+02
  -8.968653e+01   1.278556e+02
  -1.221549e+02  -4.238604e+01
  -2.850454e+01  -1.107060e+02
   2.085986e+01  -5.654149e+01
   2.863446e+01  -7.277396e+00
   2.650621e+01   3.190841e+00
  -1.977138e+01   5.107068e+00
   6.833248e+00  -3.128017e+01
   9.794903e+01   1.559133e+01
   1.023826e+02   7.659839e+01
   2.364038e+01   1.129414e+02
  -1.085434e+02   1.024004e+02
  -1.665935e+02   4.666191e+01
  -1.533373e+02  -1.474695e+02
  -8.846355e+01  -2.385482e+02
   9.832856e+01  -1.163671e+02
   7.571097e+01  -1.525867e+01
   3.098359e+01  -1.102542e+01
   6.277149e+00   7.176010e+01
   2.677685e+01   1.321500e+01
   9.162824e+01  -1.267693e+01
   1.529568e+01   7.064432e+01
  -3.150785e+01   6.705368e+01
  -6.892406e+01   4.555720e+01
  -1.303397e+02   5.045789e+00
  -3.482072e+01  -9.833794e+01
   5.713252e+01  -8.065616e+01
   1.576023e+02   4.291599e+01
   8.151085e+01   1.587718e+02
  -1.341300e+02   1.975346e+02
  -2.265855e+02   1.208127e+02
  -1.832215e+02  -2.379760e+01
  -5.668411e+01  -1.511226e+02
   1.902805e+00  -1.947148e+01
   3.906370e+01  -8.866348e+01
   8.183968e+01  -2.220022e+01
   7.308687e+01  -7.891342e+01
   6.112472e+01  -8.468549e+01
   8.589135e+01  -1.514255e+01
   8.971465e+01   1.590757e+02
  -1.218781e+01   1.364063e+02
  -1.352838e+02   1.602356e+02
  -1.233679e+02   3.107997e+01
  -1.012273e+02  -8.347407e+01
  -5.111694e+01  -1.014650e+02
   7.679958e+01  -9.172292e+01
   2.776714e+01   2.034708e+01
  -2.274891e+01   3.650801e+01
  -5.944526e+00  -9.160403e+00
   1.374312e+01   7.501812e+01
   7.779736e+01  -1.252855e+01
   3.252850e+01  -2.260311e+00
  -1.039710e+02   1.143407e+01
  -1.436042e+02  -3.795261e+01
  -1.048756e+02  -8.970746e+01
  -4.115430e+01  -1.631668e+02
   1.013967e+02  -2.486623e+01
   7.760445e+01   3.663808e+01
   2.148309e+01   2.993423e+01
  -1.645593e+01  -1.234781e+00
  -9.546155e+01  -2.737212e+01
   4.356161e+00  -6.499609e+01
   6.209045e+01  -2.280896e+01
  -2.395642e+01  -2.398077e+01
   4.778491e+01   4.926555e+01
   9.664474e+01   5.329819e+01
   9.459175e+01  -3.824848e+01
  -1.698447e+01  -3.346179e+00
   1.896068e+01   3.363007e+01
  -8.116161e-01   1.390640e+02
  -1.292173e+02   8.530130e+01
  -1.725577e+02   1.047907e+02
  -1.111527e+02  -3.672382e+01
  -3.710411e+00  -1.132396e+02
   4.924974e+01  -5.003028e+01
   1.460057e+01   5.413851e+01
   8.346045e+00   2.226597e+01
  -1.235163e+02   3.615929e+01
  -9.383400e+01  -4.855136e+01
   3.701310e+01  -1.371451e+02
   1.630942e+02  -5.193087e+01
   1.245097e+02   4.454951e+01
   2.959992e+01   6.147486e+01
  -7.858433e+01   7.237607e+00
  -7.876507e+01   1.438821e+01
   3.386144e+00  -1.725878e+01
   9.946228e+01  -2.160839e+01
   4.076398e+01   9.787865e+01
  -4.971453e+01   1.547968e+02
  -1.338038e+02   6.828478e+01
  -1.012492e+02  -9.019041e+01
  -4.225611e+01  -1.764973e+02
   9.537127e+01  -1.050281e+02
   5.541832e+01   4.835678e+00
   2.285256e+01   1.293415e+02
  -2.881904e+01   9.717709e+01
  -5.068773e+01   6.798407e+00
  -6.578113e+01  -2.210121e+01
  -2.928975e+00  -1.247193e+01
  -1.994206e+01   7.005393e+01
   1.343610e+01  -3.875072e+01
  -4.405525e+01  -1.029523e+02
  -1.906701e+00  -2.348536e+01
   2.866420e+01  -2.560046e+01
   9.854769e+01   3.107180e+01
   8.941734e+01   8.864596e+01
   4.495022e+01   2.692587e+01
  -2.780550e+01   5.291155e+01
  -1.118575e+02  -2.469275e+01
   1.006952e+01  -3.736803e+01
   5.415638e+01  -3.005661e+01
   4.743179e+01   3.307194e+01
   2.470790e+01  -4.116816e+01
  -2.247689e+01   1.423276e+01
   7.279830e+00  -1.643045e+01
   8.867014e+01   4.578357e+01
   3.901828e+01   2.880079e+01
  -4.726610e+01   9.743820e+01
  -1.381628e+02   1.153121e+01
  -5.778060e+01  -5.440207e+01
   3.641453e-02  -1.812961e+02
   1.181982e+02  -1.385733e+02
   8.495019e+01  -7.564076e+01
   1.975564e+01   5.460985e+01
   1.659977e+01   5.268216e+01
   4.155768e+01  -3.869922e+01
   5.060787e+00  -2.077197e+01
   4.167323e+01   6.061725e+01
   1.207693e+01  -2.056656e+01
   2.062229e+01   6.136606e+01
  -8.927702e+01  -3.241955e+01
  -2.664822e+01  -8.373868e+01
   1.036825e+01  -1.170179e+02
   4.186513e+01  -1.290010e+01
   6.248181e+01   7.092237e+01
   5.429237e+01   7.133279e+01
  -4.482919e+01   4.552069e+01
  -6.666186e+01  -7.197919e+00
  -4.137897e+01  -8.249471e+01
   1.857593e+01  -9.301573e+01
   8.045587e+01  -3.544857e+01
  -5.123496e+00   1.246954e+01
  -5.684145e+01  -2.468682e+01
  -2.592844e+01  -1.454170e+00
   3.539229e+01  -3.451933e+01
   1.115302e+02  -1.146932e+01
   5.700512e+01  -1.573450e+01
  -6.601995e+00   4.540553e+01
  -3.211800e+01   8.627647e+01
  -5.170932e+00   3.153370e+01
  -2.437117e+01  -5.235597e+01
  -8.792898e+00  -6.477157e+01
   8.026338e+01   2.622653e+01
   1.681706e+01   6.512320e+01
   7.391703e+00  -1.246052e+01
  -3.287897e+01  -7.898296e-01
  -5.681492e+01  -5.355675e+01
   5.047669e+00  -1.274209e+01
   2.262855e+01   1.710486e+00
  -1.004595e+01   5.994356e+01
  -5.229630e+01  -4.548931e+01
  -8.914420e-01  -5.272435e+01
   1.534600e+01   2.105762e+01
  -2.329846e+00  -1.193697e+01
   3.472538e+01   6.520900e+00
  -5.179599e+01   3.092262e+01
   4.951448e+00  -1.927816e+01
  -2.508781e+01  -3.346941e+01
   3.433819e+01  -1.421079e+01
   8.514771e+01  -1.990659e+01
  -8.513644e+00   1.247346e+02
  -2.356484e+01   5.155542e+01
  -6.871448e+01   1.860358e+01
  -2.592715e+01   1.043041e+01
   6.456900e+01  -1.489609e+01
   5.631805e+01   6.877936e+01
  -1.546234e+01  -5.003906e+00
  -1.748491e+01   6.350555e+01
