
 $NMID
 id='ANONYMOUS ', fmtdat='(2E16.6)'
 volume=1.0
 tramp=1.0
 $END
   2.672336e+03   2.913880e+01
   1.644497e+03   1.425821e+03
  -1.402522e+02   1.669136e+03
  -1.094173e+03   9.271199e+02
  -7.243533e+02   8.003545e+01
   5.198839e+01  -2.012606e+02
   3.075746e+02   1.227992e+02
   5.663424e+01   5.708786e+02
  -4.034343e+02   4.498344e+02
  -5.198738e+02   5.954122e+01
  -3.304433e+02  -4.359901e+02
  -4.893773e+01  -5.677839e+02
   3.042175e+02  -1.209314e+02
   1.879078e+02   3.676709e+02
  -1.035761e+02   4.562362e+02
  -3.559327e+02   9.288821e+01
  -1.954164e+02  -3.918864e+02
   1.262528e+02  -4.533467e+02
   3.639911e+02  -1.810256e+02
   3.519484e+02   1.793247e+02
   1.255653e+02   2.572408e+02
  -1.524696e+02   1.736433e+02
  -7.235281e+01  -1.783957e+01
   2.080401e+02   1.045258e+02
   2.386052e+02   2.266162e+02
  -7.300746e-01   3.482693e+02
  -3.773121e+02   1.926462e+02
  -5.282158e+02  -1.661811e+02
  -1.558694e+02  -2.746384e+02
   2.767273e+02  -2.262394e+02
   3.912903e+02   1.085068e+02
   1.686532e+02   3.228550e+02
  -2.283477e+02   3.046750e+02
  -3.661059e+02   1.931195e+02
  -2.127844e+02  -1.337291e+02
  -1.010199e+01  -2.715031e+02
   2.659646e+01  -1.473555e+02
  -5.140501e+01   1.152469e+02
  -8.762621e+01   1.795152e+02
  -1.710465e+02  -7.301457e+01
  -2.338861e+01  -3.895207e+02
   2.311643e+02  -3.749701e+02
   3.089449e+02  -1.091628e+01
   1.038015e+02   2.376567e+02
  -1.142159e+02   6.352558e+01
  -2.086979e+02  -1.848322e+02
   1.122637e+02  -3.066217e+02
   3.484173e+02  -6.565632e+01
   3.457127e+02   2.676985e+02
   1.448918e+02   4.149905e+02
  -2.781880e+02   2.160521e+02
  -3.751754e+02  -9.618419e+01
  -2.935315e+02  -2.297238e+02
   4.729929e+01  -2.055542e+02
   2.280307e+02  -5.242407e+01
   1.684159e+02   8.042443e+01
  -2.577548e+01  -1.884113e+01
  -8.285070e+01  -1.270426e+01
   6.164807e+01  -8.076592e+01
   1.585996e+02   8.621498e+01
   1.032971e+02   1.623666e+02
  -1.778949e+02   1.737384e+02
  -2.556597e+02   9.285800e+01
  -1.430805e+02  -6.128922e+01
  -9.876436e+00  -2.201846e+02
   2.202467e+02  -2.938012e+02
   2.736383e+02  -1.387345e+02
   1.885447e+02   1.017318e+02
   4.761151e+01   2.478758e+02
  -4.980684e+01   1.976800e+02
  -2.041782e+00   1.251911e+02
  -1.436127e+01   8.410072e+01
  -7.563169e+01   3.407598e+00
  -2.026743e+02   6.523881e+01
  -2.109924e+02  -7.509387e+01
  -1.540153e+01  -1.787639e+02
   7.645103e+01  -1.419933e+02
   1.514712e+02   3.141078e+01
   7.983129e+01   2.183581e+02
  -6.602760e+00   1.738977e+02
  -1.827944e+02   6.610254e+01
  -2.681578e+02  -1.490744e+02
  -1.317412e+02  -2.722023e+02
   8.204366e+01  -2.322825e+02
   1.718759e+02  -1.377358e+02
   1.175710e+02  -6.243767e+01
   9.326838e+01  -6.865410e+01
   2.006027e+02  -1.803867e+01
   2.933097e+02   5.479403e+01
   2.486382e+02   2.655567e+02
   1.748013e+01   3.384459e+02
  -2.595674e+02   2.968709e+02
  -3.385699e+02   1.737012e+02
  -2.572991e+02  -1.484278e+02
  -6.263449e+00  -1.909833e+02
   1.153637e+02  -1.869229e+02
   1.224123e+01  -5.894058e+01
  -8.365427e+01   2.777088e+01
  -8.983926e+01   1.843131e+01
  -4.832047e+01  -7.165168e+01
   1.282894e+02  -1.073506e+02
   9.008077e+01   2.348238e+01
  -4.566708e+01   7.611042e+01
  -1.239324e+02  -2.920565e+01
  -9.660161e+01  -1.632953e+02
  -2.411120e+01  -2.371774e+02
   2.076417e+02  -1.940159e+02
   2.684630e+02   3.049767e+01
   2.248048e+02   1.959993e+02
   6.264029e+01   2.536380e+02
  -1.270240e+02   1.770277e+02
  -9.417010e+01  -2.474115e+01
  -3.269305e+00  -2.889662e+01
   4.654714e+01   4.525094e+01
   1.574600e+01   1.082072e+02
  -7.434084e+01   2.402777e+01
  -1.438521e+02  -5.867957e+00
  -6.161550e+00  -5.050706e+01
   1.604628e+01   1.846274e+01
   1.421599e+01   8.330864e+01
  -1.559025e+02   1.732092e+01
  -2.379601e+02   1.325210e+00
  -1.572216e+02  -1.149199e+02
  -1.021789e+01  -1.602250e+02
   1.945081e+02  -2.129107e+02
   2.242639e+02  -5.452675e+01
   7.062304e+01  -1.803622e+01
  -2.826196e+01   5.632121e+01
  -7.839922e+01  -6.120034e+00
   2.042469e+01  -1.468264e+00
   1.281163e+02  -1.030562e+02
   1.743235e+02   1.149040e+02
   1.437478e+01   1.590097e+02
  -7.930454e+01   1.317857e+02
  -7.223659e+01   3.309729e+01
  -3.417337e+01  -3.286125e+01
   3.418819e+01   1.569436e+01
   4.363652e+01   8.572484e+00
  -6.996414e+01   8.175111e+01
  -1.803854e+02   1.807636e+00
  -1.389950e+02  -7.993615e+01
  -2.704328e+01  -1.870435e+02
   8.304109e+01  -1.678349e+02
   1.520578e+02   5.241966e+00
   3.090983e+01   1.121977e+02
  -1.113230e+01   5.244993e+01
  -4.040576e+01   1.794524e+01
   1.195795e+00   5.129014e+00
   3.816207e+01  -6.077497e+01
  -4.730408e+01  -1.350196e+01
   1.192675e+01  -2.904113e+01
  -3.237969e+01  -7.287895e+01
   1.238814e+01  -1.262958e+02
   1.599779e+02  -1.255175e+02
   1.564898e+02   1.576497e+01
   1.737411e+02   8.991278e+01
   2.854520e+01   1.483475e+02
  -1.177920e+02   1.736825e+02
  -8.295808e+01   4.544596e+01
  -1.075893e+02  -5.651527e+01
   1.562344e+01  -2.210517e+01
  -5.274578e+00   4.165223e+01
  -7.740043e+01   4.022170e+01
  -8.354797e+01   5.334501e+00
   6.237110e+01  -2.301675e+01
   4.070372e+01  -2.726576e+01
   8.105408e+01   9.012939e+01
  -5.085089e+00   1.036015e+02
  -1.653453e+02   1.001352e+02
  -1.753111e+02  -6.967512e+01
  -4.186053e+01  -1.746806e+02
   9.708089e+01  -1.970938e+02
   2.387939e+02  -6.496238e+01
   2.251453e+02   8.785677e+01
   5.498235e+01   1.322755e+02
  -9.193269e+00   9.781075e+01
  -3.768217e+01   5.035307e+01
  -8.347281e+01   5.460532e+01
  -7.881997e+01   7.489296e+01
  -8.851802e+01   3.968429e+01
  -8.579512e+01  -6.852541e+01
  -1.330097e+02  -1.464613e+02
  -4.577593e+01  -2.167397e+02
   1.150927e+02  -1.310957e+02
   1.042963e+02   1.561295e+01
   7.873988e+01   6.898426e+01
  -3.037772e-02   1.117587e+02
  -1.748741e+01   7.998779e+01
  -6.362562e+01  -3.296386e+01
  -2.894238e+01  -1.414465e+01
  -3.899409e+00  -1.906951e+01
  -6.932680e+01  -5.530941e+01
  -8.907804e+01   4.555906e+01
  -4.426702e+01  -2.968655e+00
   2.682376e+01  -7.206948e+01
   1.416690e+02   1.227979e+01
   1.232266e+02   5.837484e+01
  -2.033780e+01   9.658576e+01
  -1.185274e+02   4.953177e+01
  -7.416118e+01  -1.327665e+01
  -3.764093e+01  -4.221234e+01
   4.606721e+01  -7.977130e+01
  -3.426263e+00   5.698684e+01
   2.879590e+01   2.874966e+01
  -5.472814e+01   5.378736e+01
  -3.576920e+01  -4.346515e+01
  -4.636322e+01  -2.340355e+01
  -3.741038e+01   4.766231e+00
  -1.177651e-01   1.720533e+01
  -9.077602e+01   5.193667e+01
  -5.338012e+01  -6.119544e+00
   7.707352e+01  -1.010342e+02
   1.031608e+02  -1.410430e+02
   1.248476e+02   5.591554e+00
   8.615699e+01   3.548324e+01
   6.483858e+00   1.233672e+02
  -3.416987e+01   1.283718e+02
  -9.058245e+01   8.482457e+00
   4.456859e+01  -5.187946e+01
   1.477668e+02   7.747712e+01
   7.716125e+01   5.889221e+01
  -2.918225e+01   8.456624e+01
  -1.363811e+02   4.358873e+01
  -1.015377e+02   4.445884e+00
  -4.652799e+01  -7.551005e+01
   7.637433e+01  -1.030914e+02
   2.030570e+01  -2.298235e+01
  -5.880203e+01   6.030718e+01
  -2.540538e+01  -2.371051e+01
   4.376083e+00  -9.682059e+01
   5.105753e+01  -1.294669e+02
   9.606788e+01  -9.042326e+01
   1.020290e+02   8.136990e+01
   2.269593e+01   1.076276e+02
  -5.576157e+01   1.164383e+02
  -8.117430e+01   3.664289e+01
  -5.928588e+01  -1.557825e+02
  -4.881718e+00  -1.020888e+02
   5.969107e+01   1.745830e+01
   3.833847e+01   4.975674e+01
  -3.371097e+00  -7.034741e+00
  -3.922626e+01  -2.689207e+01
   1.249935e+01   3.802953e+00
   5.018399e+01   9.963237e+01
   1.846777e+01   6.701283e+01
  -5.713133e+01   4.580707e+01
  -8.296767e+01  -1.685990e+01
  -1.161474e+02  -1.783495e+01
  -1.143805e+01  -3.364355e+01
   8.643939e+01  -1.506498e+01
   1.183111e+02   1.995033e+01
   3.008715e+01  -5.151721e+00
  -3.079982e+01  -3.546114e+01
   3.919170e+01   4.605250e+01
   6.308060e+01   2.306408e+01
  -5.709804e+01   7.927748e+00
  -5.250942e+01  -5.065959e+01
  -1.020270e+02  -2.070543e+01
   2.461171e+01  -3.081434e+01
   7.578660e+01  -9.719525e+01
   1.084312e+02  -4.697479e+01
   1.886808e+02   4.193271e+01
   2.918827e+01   1.323635e+02
  -4.802103e+01   1.271063e+02
  -9.187117e+01   3.502950e+01
  -1.009977e+02  -1.413992e+01
  -3.696160e+01  -6.847912e+01
   1.381510e+01  -4.755555e+00
   4.646764e+01  -2.884099e+01
  -1.083456e+01   7.164831e+00
   2.660501e+01  -2.223614e+01
   4.592149e+01  -8.679634e+01
  -1.199196e+01  -4.385077e+01
   6.488323e+01   2.977353e+01
   3.881292e+01   4.768550e+01
  -6.419703e+01  -7.259155e+00
  -5.455593e+01  -6.611992e+01
  -4.303753e+01  -9.467105e+01
   8.137515e+01  -4.311844e+01
   4.005047e+01   3.866048e+01
   4.853852e+01   4.731635e+01
   1.587353e+01   1.087469e+02
   6.576004e+00   2.126325e+01
   4.143033e+00   1.404920e+01
   9.853718e+01  -1.264704e+01
   2.896561e+01  -3.584114e+01
  -4.529392e+01   6.446297e+01
  -7.098217e+01   6.165202e+01
   1.261634e+01   1.511662e+01
   5.788687e+01  -9.245781e+01
   6.645402e+01  -1.000214e+02
   2.909826e+01   9.041632e+00
  -7.050177e+00   6.499691e+01
   2.866086e+00   3.856412e+01
  -9.819135e+01  -1.591568e+00
   2.053214e+01  -2.021800e+01
   7.391908e+00  -8.801927e+01
   3.389217e+01  -4.715826e+01
   3.853556e+01   2.603405e+01
   2.378584e+01  -4.150246e+01
   9.126701e+00  -3.750577e+01
   1.008671e+01  -1.918554e+01
   4.294382e+01   4.875489e+01
  -2.135582e+01   7.024893e+01
  -3.006585e+01   2.991788e+00
  -5.029771e+01  -9.222749e+00
  -5.316122e+01  -5.994755e+01
   7.626091e+01   1.205709e+01
   4.119319e+01   2.388079e+01
   1.133440e+01   7.795944e+01
  -8.332414e+01   6.997432e+01
  -8.395613e+01  -8.588782e+00
  -2.782337e+01  -6.083298e+01
   1.005107e+01  -5.042474e+01
   6.344925e+01  -9.187595e+00
   1.851389e+01   1.324166e+01
  -5.969428e+01   2.060886e+01
  -4.291272e+01   2.088887e+01
  -1.969775e+01  -4.227276e+01
   5.482429e+01  -7.270161e+01
