
 $NMID
 id='ANONYMOUS ', fmtdat='(2E16.6)'
 volume=1.0
 tramp=1.0
 $END
  -2.761728e+03  -5.497358e+00
  -1.782770e+03  -1.372416e+03
   1.116221e+01  -1.810023e+03
   1.065304e+03  -1.013116e+03
   8.412402e+02  -6.370670e+01
   1.915530e+01   1.573439e+02
  -3.743384e+02  -1.071120e+02
  -3.419166e+01  -4.980343e+02
   3.781239e+02  -4.953266e+02
   5.853237e+02  -7.982600e+01
   4.178067e+02   4.267537e+02
   1.256765e+01   5.307192e+02
  -2.413180e+02   2.200082e+02
  -2.506659e+02  -3.351198e+02
   1.139291e+02  -4.392549e+02
   3.606023e+02  -3.759062e+01
   2.017934e+02   4.182565e+02
  -9.891032e+01   5.235582e+02
  -3.926243e+02   1.856342e+02
  -3.448491e+02  -1.632489e+02
  -1.499836e+02  -2.932398e+02
   9.885685e+01  -1.946291e+02
   2.778748e+01  -4.358617e+01
  -1.217832e+02  -5.624220e+01
  -2.188053e+02  -1.502696e+02
  -9.513093e+00  -2.746207e+02
   3.695419e+02  -1.510591e+02
   4.975263e+02   1.172977e+02
   2.200036e+02   3.161734e+02
  -2.479607e+02   1.911536e+02
  -4.472400e+02  -1.228298e+02
  -2.242021e+02  -3.019111e+02
   2.408296e+02  -2.684085e+02
   4.184625e+02  -6.249641e+01
   3.184704e+02   1.634665e+02
   1.192272e+02   2.687618e+02
  -8.172176e+01   1.237419e+02
   2.260046e+01  -9.545623e+01
   1.802684e+02  -1.467500e+02
   1.515486e+02   1.244029e+02
   4.212684e+01   3.805243e+02
  -2.344184e+02   4.430383e+02
  -2.973188e+02  -5.327228e+01
  -1.126695e+02  -2.892698e+02
   1.803388e+02  -1.449287e+02
   2.435090e+02   2.206447e+02
  -1.170413e+02   3.100084e+02
  -3.773708e+02   5.133042e+01
  -3.664801e+02  -2.423876e+02
  -1.346938e+02  -4.364374e+02
   3.073017e+02  -2.238621e+02
   4.509614e+02   3.539743e+01
   2.892405e+02   2.578225e+02
  -4.869518e+01   1.584093e+02
  -2.313874e+02   4.870195e+01
  -1.261424e+02   3.841061e+00
   1.294174e+01  -3.366145e+01
   5.941231e+01   4.882550e+01
  -6.400020e+01   6.259962e+01
  -1.567596e+02  -2.460237e+01
  -9.009189e+01  -1.815025e+02
   1.219942e+02  -1.945859e+02
   2.147032e+02  -9.443774e+01
   1.689919e+02   1.473105e+02
   2.812959e+01   2.738135e+02
  -2.020410e+02   3.528064e+02
  -2.483254e+02   8.227094e+01
  -1.742493e+02  -1.531941e+02
  -1.017928e+02  -3.090482e+02
   2.542007e+01  -3.102965e+02
   7.975348e+01  -1.185986e+02
   1.312344e+01  -8.085098e+01
   7.329258e+01  -1.489799e+02
   2.173730e+02  -6.947650e+01
   1.801144e+02   1.003883e+02
   1.112885e+02   1.856885e+02
  -7.220580e+01   1.399467e+02
  -1.958615e+02   2.808261e+01
  -1.428646e+02  -2.164438e+02
   4.835977e+01  -1.984904e+02
   2.185479e+02  -7.992437e+01
   2.495678e+02   1.875612e+02
   7.464371e+01   2.081735e+02
  -9.369202e+01   2.479705e+02
  -1.439377e+02   1.805908e+02
  -6.325174e+01   2.476119e+01
  -1.005583e+02   2.448200e+01
  -2.133606e+02   6.810422e+01
  -2.840455e+02   6.272799e+00
  -2.861469e+02  -2.119688e+02
   2.144442e+01  -3.773886e+02
   2.861942e+02  -3.401941e+02
   4.053098e+02  -1.151091e+02
   1.979075e+02   8.137455e+01
   2.244784e+01   2.136831e+02
  -5.246598e+01   1.994561e+02
   1.849063e+01   5.286950e+01
   7.812468e+01  -4.738349e+01
   1.166013e+02   6.518705e+01
   7.375554e+00   1.481496e+02
  -7.832071e+01   1.409652e+02
  -1.125227e+02  -7.286087e+01
  -4.036979e+01  -9.559857e+01
   1.079710e+02   6.216202e+00
   1.151937e+02   1.550197e+02
  -4.775116e+01   2.232670e+02
  -2.167116e+02   1.900271e+02
  -2.844680e+02  -8.333579e+01
  -2.876591e+02  -1.919757e+02
  -1.104199e+02  -2.261320e+02
   1.703279e+02  -1.112922e+02
   1.173855e+02  -3.867630e+00
   1.207286e+01  -7.265743e+00
  -5.346389e+01  -5.849283e+01
  -4.697769e+00  -9.059115e+01
   1.188099e+02  -4.980116e+01
   1.705729e+02   9.264608e+00
   7.521612e+01   1.697444e+01
  -9.491381e+01  -6.975356e+01
  -3.979159e+01  -6.256230e+01
   1.252211e+02  -5.739859e+01
   2.490959e+02  -2.499011e+00
   2.297952e+02   1.433472e+02
   5.366724e+01   2.284641e+02
  -1.460088e+02   2.012055e+02
  -1.587455e+02   8.016938e+01
  -7.595058e+01  -3.019579e+00
   5.905461e+01  -2.824647e+01
   3.170538e+01  -1.588742e+01
  -3.911875e+01   6.160001e+01
  -1.317653e+02  -2.725989e+01
  -1.459261e+02  -1.209928e+02
  -9.211866e+01  -1.366291e+02
   5.040233e+01  -8.999236e+01
   1.178944e+02  -5.619486e+01
   2.325713e+01   4.960925e+01
  -6.753301e+01  -3.886872e+00
  -5.936758e+01  -5.114702e+01
   4.283148e+01  -1.367981e+02
   1.649386e+02   7.778955e+00
   8.132985e+01   1.518045e+02
   9.303443e+01   1.927294e+02
  -1.060985e+02   1.562501e+02
  -1.330593e+02  -1.236064e+01
  -1.126085e+02  -4.636578e+01
   2.003163e+01  -4.846847e+01
   4.693390e+01  -3.407430e+01
   3.335162e+01  -2.009196e+00
  -1.215790e+01  -1.403806e+01
   1.960557e+01  -3.065185e+01
   7.202306e+01   1.355750e+01
   5.578524e+01   6.133204e+01
  -2.728345e+01   1.518815e+02
  -1.279600e+02   1.618040e+02
  -1.812291e+02   2.046622e+01
  -1.643348e+02  -8.787930e+01
  -5.732009e+01  -2.031364e+02
   9.705915e+01  -1.358832e+02
   1.261434e+02  -4.411891e+00
   9.345905e+00   6.867141e+01
   3.626756e+01   8.074910e+01
   3.755211e+01  -6.670452e+01
  -8.136222e+00  -2.838381e+01
   6.110951e+01   4.835169e+01
  -5.193164e+01   7.377420e+01
  -9.023323e+01   6.918690e+01
  -4.751571e+01  -4.315231e+01
   1.731288e+01  -1.638678e+02
   9.401762e+01  -8.104323e+01
   1.978601e+02   3.288147e+01
   1.207759e+02   1.850236e+02
  -7.715100e+01   1.442711e+02
  -1.675880e+02   8.234086e+01
  -2.266056e+02  -9.979395e+01
  -1.029237e+02  -1.498193e+02
  -2.304402e+01  -6.918794e+01
   8.599234e+01  -7.661901e+01
   7.089852e+01  -5.426958e+01
   3.959877e+00  -9.668037e+01
   1.044209e+02  -7.089656e+01
   1.341571e+02   9.001904e+00
   7.542613e+01   1.140713e+02
  -4.915889e+01   1.501752e+02
  -8.057628e+01   1.902841e+02
  -1.424166e+02  -5.290418e-02
  -7.824511e+01  -8.169914e+01
   2.883704e+00  -1.306952e+02
   4.388800e+01  -8.384742e+01
   6.417650e+01   8.167357e+00
  -2.671221e+01   2.104723e+01
  -3.269482e+01   2.047609e+01
   7.497388e+01   3.328798e+00
   5.875031e+01  -3.167883e+00
   3.870668e+01  -6.897314e+00
  -2.972871e+01   8.048931e-01
  -1.071404e+02  -3.161329e+01
  -7.369830e+01  -3.174937e+01
   2.783462e+01  -7.449948e+01
   1.661215e+02  -7.148000e+01
   1.673590e+02  -4.386683e+01
   7.469115e+01   5.939848e+01
  -3.621863e+01   1.147535e+02
  -7.834724e+01   2.534927e+00
  -6.853436e+01  -6.312941e+01
   5.833475e+01  -6.424579e+01
   3.760067e+01  -3.446897e+01
   2.885119e+01   3.474121e+01
   2.134848e+01   8.310811e+00
   8.984124e+01   3.449759e+01
   2.963458e+01   1.891781e-01
   9.584951e+01   2.919046e+01
   2.761666e+00   1.390381e+02
  -1.447588e+02   1.236041e+02
  -1.464784e+02   4.284911e+00
  -1.303220e+02  -5.601252e+01
  -6.298837e+01  -1.624962e+02
   2.477512e+01  -6.158076e+01
   3.541470e+01  -3.152582e+01
  -3.248135e+01   1.330624e+00
  -7.733215e+01  -4.887531e+01
  -6.974084e+01  -9.876747e+01
   9.548700e+01  -1.001695e+02
   1.373032e+02  -7.357831e+01
   1.514778e+02   3.714495e+01
   8.319477e+01   8.868155e+01
  -4.028582e+01   5.353933e+01
  -7.743410e+01  -6.563741e+00
   1.309037e+01  -4.718553e+00
   9.510345e+01   4.099051e+01
   4.410038e+01   1.213241e+02
  -8.664541e+01   1.099718e+02
  -8.538309e+01   9.320300e+01
  -1.180487e+02  -1.252527e+02
  -5.436087e+01  -1.437094e+02
   5.014441e+01  -6.646406e+01
   6.989394e+01   2.390171e+01
   7.751791e+01   1.402400e+02
   2.140607e+01   8.967954e+00
  -8.565180e+01   3.795067e+01
  -6.062631e+01   4.143199e+00
   1.195434e+01   1.349907e+01
  -8.502150e+01   6.739354e+01
  -4.627558e+01  -2.306747e+00
  -7.018782e+01  -1.254142e+02
   5.782387e+01  -1.335693e+02
  -1.271987e+00  -9.444875e+00
   1.204966e+02   5.851260e+01
   6.321428e+01   6.352638e+01
  -1.760874e+00   6.696240e+01
  -7.308597e+01  -1.096093e-01
  -6.782215e+01   2.510503e+01
   2.353989e+01   7.792096e+00
  -2.512824e+01   8.562283e+00
  -3.836872e+01   2.754918e+01
  -3.076375e+01  -9.390910e-01
   5.208158e+01   4.669136e+01
   4.742580e+01   2.828059e+01
   9.092839e+01   3.937417e+01
  -2.982113e+00   8.212014e+01
  -1.115802e+02   9.806453e+01
  -1.502454e+02   8.612783e+00
  -1.045214e+02  -7.930490e+01
  -4.248424e+01  -1.596008e+02
   6.803083e+01  -1.499817e+02
   4.200746e+01  -3.673870e+01
   4.674146e+01   4.855443e+01
   6.071023e+01   1.715413e+01
   1.018739e+01   2.492666e+01
   1.015401e+01  -1.891766e+01
   8.497356e+00   6.798851e+01
   4.215466e+00   6.546462e+01
   1.944229e+01   8.199011e+01
  -9.803062e+01  -2.250413e+01
  -3.474322e+01  -7.679938e+01
  -2.236990e+01  -9.994568e+01
   7.174782e+01   2.417979e+00
   1.050688e+02   6.550064e+00
   5.807199e+01   1.002044e+02
  -3.506288e+01   8.574233e+01
  -9.816961e+01   8.908098e+00
  -5.428852e+01  -4.316113e+01
   1.857206e+01  -4.937995e+01
   3.684647e+01  -5.053436e+01
   4.609913e+01   4.304010e+01
  -9.880737e+01   3.875367e+01
  -5.909545e+01  -5.510344e+01
   1.996723e+01  -4.920188e+01
   1.049739e+02  -1.033774e+02
   6.946958e+01   8.199588e+00
  -1.641227e+01   3.200812e+01
  -5.280852e+01   7.628497e+01
  -2.295323e+01   8.738969e+00
  -3.466634e+01  -3.748437e+01
   4.477932e+01  -4.751203e+00
   6.965775e+01  -2.070604e+01
   2.776961e+01   2.289264e+01
   8.269799e+00   7.728502e+01
  -1.410339e+01  -4.091985e+00
  -5.431658e+01   1.866706e+01
  -1.844842e+01   3.516574e+00
   2.282326e+01  -3.926504e+01
   1.982218e+01  -2.463009e+01
   9.688092e+00  -2.266109e+01
   2.600006e+01  -2.544766e+01
   9.529168e+00   1.155026e+01
   6.443212e+01   6.425036e+01
  -5.831890e+00   2.623721e+01
  -2.757116e+01   2.970548e+01
  -7.269970e+01   1.068964e+01
  -6.810098e+01  -1.178039e+01
   8.814773e+01  -4.063301e+01
   5.047104e+01   3.128161e+01
   4.158018e+01   2.838494e+01
  -1.925057e+00   4.910904e+01
  -4.849055e+01  -3.100069e+01
  -4.275659e+01  -1.747536e+01
   9.560612e+01  -1.278199e+01
  -4.867915e+00  -4.580556e+01
  -4.237092e+01   6.016774e+01
  -7.334050e+01  -3.264381e+01
