
 $NMID
 id='ANONYMOUS ', fmtdat='(2E16.6)'
 volume=1.0
 tramp=1.0
 $END
  -1.800269e+03   6.851442e+01
  -1.368930e+03  -7.633314e+02
  -2.546661e+02  -1.199404e+03
   5.787089e+02  -9.087616e+02
   6.660525e+02  -2.858761e+02
   1.912892e+02   1.035168e+02
  -1.527616e+02   1.390026e+01
  -9.696391e+01  -2.420652e+02
   2.453525e+02  -3.797830e+02
   3.663267e+02  -1.495138e+02
   3.697191e+02   2.273139e+02
   9.481223e+01   3.776560e+02
  -1.134334e+02   1.877948e+02
  -8.681619e+01  -1.620174e+02
  -7.774239e+00  -2.976015e+02
   2.607776e+02  -4.014780e+01
   1.629805e+02   2.848714e+02
   8.404346e+00   4.375862e+02
  -2.736284e+02   2.492683e+02
  -2.980117e+02  -1.216893e+02
  -1.038115e+02  -2.350012e+02
   3.118849e+01  -1.708993e+02
  -4.778222e+01  -6.115755e+01
  -1.424174e+02  -1.024389e+02
  -1.120661e+02  -1.696070e+02
   5.521954e+01  -2.127511e+02
   2.728273e+02  -6.154561e+01
   3.533222e+02   9.173682e+01
   7.136348e+01   1.910988e+02
  -1.718614e+02   2.787169e+01
  -2.851936e+02  -9.404654e+01
  -1.304215e+02  -1.964041e+02
   1.128847e+02  -1.446415e+02
   2.624299e+02  -1.170936e+02
   2.640938e+02   6.380056e+01
   1.059156e+02   1.692869e+02
   5.253929e+01   8.353865e+01
   4.610581e+01  -4.069775e+01
   9.792661e+01   4.762769e+00
   6.902251e+01   1.140458e+02
  -2.609009e+01   3.267058e+02
  -1.019037e+02   2.143165e+02
  -2.559768e+02   1.784018e+01
  -1.958422e+01  -1.574133e+02
   6.173570e+01  -8.307745e+01
   7.037361e+01   1.387750e+02
  -8.600401e+01   1.284588e+02
  -3.028224e+02   2.189151e+01
  -2.800598e+02  -2.022263e+02
  -1.175862e+02  -2.832437e+02
   1.549380e+02  -1.814109e+02
   3.040056e+02  -1.054902e+01
   1.999510e+02   1.056551e+02
  -1.064653e+01   1.424422e+02
  -1.905331e+02   1.281770e+02
  -1.762623e+02   5.515611e+01
   4.920167e+01   4.150900e+01
   5.855399e+01  -4.772351e+01
  -4.676240e+01   2.095578e+01
  -7.811999e+01  -1.112603e+01
  -1.025878e+02  -8.945414e+01
   7.289994e+01  -1.646813e+02
   2.537872e+02  -7.271892e+01
   1.766745e+02   5.816251e+01
   1.486342e+00   1.820144e+02
  -2.128859e+02   2.216821e+02
  -2.734596e+02   1.108082e+02
  -1.396851e+02  -1.011309e+02
  -2.897409e+01  -2.189145e+02
   1.333481e+00  -1.696622e+02
  -1.661566e+00  -1.395002e+02
   2.347239e+01  -1.359362e+02
   1.306007e+02  -7.448886e+01
   1.659526e+02  -6.265655e+01
   1.465402e+02   9.241125e+01
   4.871583e+01   1.559728e+02
   1.617628e+01   1.621436e+02
  -1.233547e+02  -2.242748e+01
  -4.738687e+01  -2.090249e+02
   5.542803e+01  -1.635980e+02
   1.647631e+02  -1.415900e+01
   1.506250e+02   1.119927e+02
   9.657107e+01   1.320037e+02
  -3.197866e+01   2.089633e+02
  -1.167184e+02   1.022188e+02
  -1.288002e+02   6.924511e+01
  -1.019693e+02   1.744490e+01
  -2.023190e+02  -2.212232e+01
  -2.864814e+02  -4.424848e+01
  -2.091699e+02  -1.698124e+02
   6.291595e+01  -2.370318e+02
   2.859491e+02  -2.867090e+02
   3.020923e+02  -1.148566e+02
   1.947584e+02   5.260141e+01
  -5.298425e+00   1.513316e+02
  -5.118782e+01   1.377744e+02
   1.395956e+01  -1.677628e+01
   4.014133e+01   1.118206e+01
   7.884990e+01   7.052027e+01
   1.899095e+01   9.052060e+01
  -5.741777e+01   5.581327e+01
  -6.840914e+01   2.628601e+01
   6.068781e+01  -8.869746e+01
   1.212794e+02  -1.745252e+01
   4.272091e+01   1.495849e+02
   2.524439e+01   2.227345e+02
  -1.511337e+02   1.139815e+02
  -2.044978e+02  -3.703550e+01
  -2.201258e+02  -2.137609e+02
   4.526884e+01  -1.878211e+02
   7.750103e+01  -6.779939e+01
   6.888242e+01   4.802486e+01
   3.888350e+01  -1.318295e+01
  -1.857146e+01  -5.596220e+01
  -6.636456e+00  -6.525829e+01
   8.871107e+01  -6.786740e+01
   6.291603e+01   5.821992e+01
  -3.924908e+00  -1.041180e+01
  -6.047372e+01  -3.029180e+01
   2.346010e+00  -7.982551e+01
   9.024526e+01  -1.032959e+02
   1.756362e+02  -4.833616e+01
   1.575872e+02   1.173493e+02
  -7.491838e+00   2.175928e+02
  -1.315894e+02   1.962498e+02
  -1.259335e+02   2.176451e+01
  -5.050501e+01  -6.693493e+01
   2.046385e+01  -4.989343e+01
   1.976858e+01   5.850100e+01
  -4.489262e+01   2.432011e+00
  -6.610636e+01   6.158130e+01
  -1.231267e+02  -2.095630e+01
  -2.368477e+01  -1.005373e+02
  -9.918228e+00  -1.217241e+02
   7.102648e+01   1.894939e+00
   4.032852e+01   5.432262e+00
  -8.385699e+00  -5.446676e+01
  -6.327893e-01  -4.072903e+01
   2.535691e+01  -7.656252e+01
   1.376430e+02   2.493336e+01
   1.407314e+02   1.223256e+02
   3.368759e+00   9.305717e+01
  -4.560520e+01   1.358650e+02
  -1.070635e+02  -1.665075e+01
  -9.145292e+01  -9.183923e+01
   4.265387e+01  -2.916439e+01
   5.486099e+01  -6.042392e+01
  -3.382756e+01   3.061303e+01
  -1.346907e+01  -7.342975e+00
  -2.664625e+01  -2.149881e+01
   3.979704e+01  -2.230546e+01
   8.923804e+01   2.658260e+01
   2.614828e+01   1.167896e+02
  -1.193523e+02   1.116762e+02
  -1.582625e+02  -2.609084e+01
  -8.275151e+01  -6.881055e+01
  -9.077180e+00  -1.201907e+02
   3.052516e+01  -1.094181e+02
   1.010871e+02  -7.246543e+01
   8.674332e+01   2.039220e+01
   1.930589e+01   3.107951e+01
   2.943363e+01   1.627969e+01
   6.273862e+01  -3.269536e+01
   6.327747e+01   4.315340e+00
  -1.349187e+01   1.086919e+02
  -8.295333e+01   1.544910e+00
  -2.081296e+01   4.398504e+01
   3.398392e+01  -1.332460e+02
   9.343256e+01  -7.115509e+01
   6.166382e+01   9.734486e+00
  -3.621439e+01   1.280706e+02
  -6.347652e+01   1.382491e+02
  -1.759690e+02   5.612891e+01
  -1.972170e+02  -1.743741e+01
  -7.039635e+01  -1.147691e+02
  -9.785685e+00  -8.653475e+01
   8.634397e+01  -1.906785e+01
  -1.938571e+01  -6.902106e+01
   5.388639e+01  -3.715892e+01
   5.270089e+01  -3.391843e+01
   1.078029e+02  -1.650389e+01
   7.303659e+01   3.933426e+01
  -6.753747e+00   1.267419e+02
  -8.439545e+01   7.268230e+01
  -9.240181e+01   5.847874e+00
  -8.616417e+01  -3.904810e+01
   2.326347e+01  -1.086378e+02
   6.423502e+01   2.911646e+00
   4.398751e+01  -4.789867e+00
   4.001805e+01   4.086788e+00
   1.508768e+01   4.932089e+01
   2.407147e+01   3.260675e+01
   3.558986e+01   6.240845e+01
   6.467997e+01   5.649062e+01
  -7.599854e+01   1.723226e+01
  -9.654713e+01   3.895493e+01
  -4.906382e+01  -4.745857e+01
  -5.645883e+00  -4.978430e+01
   1.098798e+02  -4.777630e+01
   6.802472e+01  -4.680205e+01
   7.176239e+01   1.146933e+01
  -4.089223e+01   4.447886e+01
  -7.048228e+01   2.845388e+01
  -1.071873e+01  -3.949802e+01
   3.002970e+01  -6.451606e+01
   3.676425e+01  -5.377997e+00
   7.478488e+01  -1.389538e+01
   5.229346e+01   2.699905e+01
   1.752727e+01   1.809069e+01
   1.924442e+01  -3.824006e+01
   4.764227e+01   6.865534e+01
  -2.405044e+01   8.379735e+01
  -3.901612e+01   1.225121e+02
  -1.230375e+02   6.071066e+01
  -7.074454e+01  -4.146331e+01
   1.576151e-01  -1.317645e+02
   5.555482e+01  -6.479175e+01
   2.574513e+01   5.240400e+00
  -1.462700e+01  -1.127904e+01
  -8.928729e+01   2.490617e+01
  -7.849782e+01  -5.632637e+01
   1.224836e+01  -9.238637e+01
   1.242441e+02  -5.212641e+01
   1.311547e+02   2.419053e+01
   2.544682e+01   3.387242e+01
   2.859342e+01   3.091967e+01
  -1.733726e+01  -2.917681e+01
   2.437027e+01  -2.874654e+01
   5.528122e+01  -5.310708e+00
   4.836781e+01   6.390707e+01
  -8.861927e+01   1.306281e+02
  -8.508133e+01   3.827599e+01
  -9.683092e+01  -7.671327e+01
   3.459437e+01  -1.623758e+02
   1.107601e+02  -8.788442e+01
   2.498475e+01  -2.875421e+01
   6.207223e+01   7.156513e+01
  -2.841889e+01   2.964314e+01
  -4.368693e+01   3.762049e+01
  -3.189473e+01  -4.345431e+01
  -1.393530e+01  -7.175189e+00
  -1.513495e+01  -1.674832e+01
  -3.591073e+01  -1.855028e+01
  -1.365405e+01  -1.913716e+01
  -2.804080e+01  -4.247150e+01
   1.913656e+01  -2.859276e+01
   1.358270e+02   5.335260e+01
   7.126879e+01   4.279574e+01
   1.554549e+01   5.990453e+01
  -4.572623e+01   7.799264e+01
  -1.524487e+01   3.421848e+01
  -3.042197e+01   4.705356e+01
  -2.417382e+00   3.644190e+01
  -1.530610e+01   2.804457e+00
  -1.326679e+01  -2.269162e+00
  -1.252429e+01  -2.186633e+01
   6.423362e+01  -4.163784e+01
   1.823505e+01   8.017928e+01
   9.043121e+00   2.970294e+01
  -8.516747e+01   5.897356e+01
  -1.088174e+02   5.813177e+01
  -7.787832e+01  -2.266426e+01
  -2.998859e+01  -1.216942e+02
   8.396500e+01  -9.938104e+01
   2.709069e+01  -8.892592e+01
   1.278213e+02   1.226808e+01
   2.397606e+01   1.041569e+00
  -2.150758e+01  -1.517355e+01
   3.847323e+01   9.706895e+00
  -1.076466e+01   2.323622e+01
  -6.821604e+01   1.163108e+02
  -4.174936e+01   2.969297e+01
  -2.164583e+01  -6.984550e+01
  -2.616218e+01  -6.790724e+01
   1.643427e+01  -6.210478e+01
   6.187050e+01  -1.870224e+01
   5.686630e+01   3.719310e+01
   5.374894e+01   6.027620e+01
  -8.497068e+01   1.599943e+01
  -9.398748e+01  -3.084995e+01
   1.961617e+00  -2.157053e+01
   4.601569e+01  -8.154718e+01
  -9.632170e+00   4.225364e+01
  -1.248762e+01  -6.521343e+00
  -9.877813e+01  -1.580909e+01
  -3.434575e+01   1.878777e+01
   2.784022e+01  -2.850286e+01
   1.829494e+00   3.377979e+01
   5.687351e+01   3.788984e+01
   2.822472e+01   3.034578e+01
   6.673705e-01   2.949796e+01
  -9.144779e+00  -2.039732e+00
   7.729872e+00  -5.215685e+00
  -2.164311e+01  -6.900276e+01
  -3.787836e+01  -1.007784e+01
  -6.320458e+00   9.965091e+00
   5.623100e+00   3.460327e+01
  -3.360148e+01   1.332452e+01
  -6.094002e+01  -6.005921e+01
  -4.742929e+01   4.312627e+01
  -2.617137e+01   1.429078e+01
  -9.935055e+00  -1.851312e+01
  -7.099560e+01  -4.161626e+01
  -5.254979e+01  -2.229887e+01
   2.273076e+01  -2.592680e+01
   3.731561e+01   2.624813e+01
   4.236356e+01   4.971059e+01
   3.132601e+01   4.251677e+01
  -1.248951e+02  -1.948085e+01
   2.142954e+01  -7.715127e+01
   3.456895e+01  -2.544577e+01
   7.253347e+01   4.174629e+01
   2.378842e+01   1.742229e+01
  -3.580307e+01   5.437731e+01
   1.764722e+00   4.536985e+01
  -5.679627e+00   1.748209e+01
  -6.613236e+00  -3.359371e+01
   2.393430e+01  -1.175040e+00
   2.136997e+01   4.735085e+00
  -8.878471e+01  -2.950168e+01
