
 $NMID
 id='ANONYMOUS ', fmtdat='(2E16.6)'
 volume=1.0
 tramp=1.0
 $END
  -1.581051e+03  -3.028452e+01
  -1.223411e+03  -6.108956e+02
  -2.904764e+02  -1.035826e+03
   4.501339e+02  -8.115048e+02
   6.066838e+02  -3.923295e+02
   2.459085e+02  -4.607360e+01
  -4.185524e+01   4.899342e+00
  -9.917219e+01  -1.694764e+02
   1.740201e+02  -3.435569e+02
   3.021922e+02  -1.563110e+02
   3.026144e+02   1.604168e+02
   7.015459e+01   2.937585e+02
  -1.520045e+02   1.700288e+02
  -1.118440e+02  -1.232257e+02
   2.557122e+01  -2.632109e+02
   1.708536e+02  -1.195441e+02
   1.911931e+02   2.108135e+02
   1.644970e+01   3.954968e+02
  -2.199990e+02   2.325980e+02
  -2.525491e+02  -1.130463e+02
  -1.657680e+02  -1.346817e+02
  -2.658672e+01  -2.038625e+02
   1.308368e+01  -5.348051e+01
  -1.169679e+02  -1.749573e+02
  -1.279393e+02  -2.338341e+02
   9.386089e+01  -1.969645e+02
   2.910914e+02   7.257919e+00
   2.568401e+02   1.397902e+02
   1.056404e+02   1.861597e+02
  -1.582411e+02   5.698636e+01
  -1.944519e+02  -1.253680e+02
  -9.556862e+01  -1.815325e+02
   1.796909e+02  -1.623335e+02
   2.733041e+02   1.063017e+01
   1.844029e+02   5.639544e+01
   5.575875e+01   1.461971e+02
   6.749328e+01   9.134811e+01
   6.329467e+01  -3.396736e+00
   1.271554e+02  -2.198103e+01
   6.235507e+01   1.612107e+02
  -1.132595e+01   2.662449e+02
  -1.134332e+02   1.690211e+02
  -9.092087e+01   3.478446e+01
  -2.036912e+01  -1.342734e+02
   1.887062e+01  -8.082213e+01
   8.218405e+01   9.191483e+01
  -8.196557e+01   1.864455e+02
  -3.160715e+02   3.200666e+01
  -2.431954e+02  -2.384309e+02
  -8.506023e+01  -2.611747e+02
   1.395515e+02  -1.121270e+02
   3.042188e+02   2.305927e+01
   2.160410e+02   1.037123e+02
   5.869679e+01   7.051387e+01
  -1.329198e+02   7.678257e+01
  -1.089657e+02  -1.059707e+00
  -6.790151e+01   3.087256e+01
   5.915513e+00  -7.436099e+01
  -3.532189e+01  -1.303080e+01
  -9.947520e+01  -5.150817e+00
  -7.671273e+01  -1.036738e+02
   5.950124e+01  -1.861506e+02
   2.404042e+02  -6.556643e+01
   1.232771e+02   9.217409e+01
  -8.934973e+00   2.606938e+02
  -1.949939e+02   1.500264e+02
  -1.981611e+02   7.181508e+01
  -1.783059e+02  -6.959277e+01
  -4.142867e+01  -1.935449e+02
   5.914083e-02  -1.114814e+02
   1.845901e+01  -1.251641e+02
   3.193242e+01  -1.458683e+02
   1.646664e+02  -9.061887e+01
   1.782786e+02   2.893548e+00
   1.022118e+02   7.633658e+01
   2.734329e+01   1.635512e+02
  -1.112390e+02   3.986069e+01
  -9.976868e+01  -2.710376e+01
  -3.033317e+01  -1.560850e+02
   6.845698e+01  -1.025780e+02
   1.946272e+02   1.045250e+01
   1.778466e+02   9.033878e+01
   1.064906e+02   1.440784e+02
   3.577471e+01   9.630691e+01
  -9.170261e+01   1.199490e+02
  -9.334545e+01   5.239270e+01
  -1.046100e+02   6.538201e+01
  -2.078839e+02   4.114293e+01
  -2.903593e+02  -8.746685e+01
  -2.022799e+02  -2.160097e+02
   1.682692e+01  -2.138129e+02
   2.349700e+02  -2.184716e+02
   2.860470e+02  -9.192580e+01
   1.285661e+02   6.649695e+01
   1.918680e+01   1.509182e+02
  -3.116387e+01   1.216335e+02
   2.986194e+01   4.702612e+01
   7.166489e+01  -5.529723e+00
   1.255118e+00   2.121048e+01
   2.327948e+01   4.141781e+01
  -2.857890e+01   9.312077e+01
  -8.732328e+01  -1.192177e+00
   3.958286e+01  -8.349423e+01
   1.060969e+02   6.027014e+01
   6.306710e+01   1.426694e+02
  -2.835318e+01   1.907919e+02
  -1.756000e+02   9.112779e+01
  -2.514497e+02  -2.816005e+01
  -1.609389e+02  -1.872548e+02
  -3.641164e+01  -2.024917e+02
   6.576188e+01  -9.845610e+01
   8.451428e+01  -2.825802e+01
  -4.466402e+01   2.105952e+00
  -1.130987e+01  -5.213804e+01
  -1.013933e+01  -1.810926e+01
   3.486030e+01  -9.606806e+00
   9.527917e+01   6.321627e+01
  -2.387884e+00   2.819177e+01
  -2.657391e+01  -9.437975e+00
  -1.832941e+01  -8.034973e+01
   4.084501e+01  -1.046968e+02
   1.776438e+02   1.942163e+01
   1.760158e+02   1.247806e+02
   1.496918e+01   1.392554e+02
  -1.359709e+02   1.322363e+02
  -1.727214e+02   2.269964e+01
  -7.553885e+01   8.777579e+00
   2.375479e+00  -4.708161e+01
   3.230969e+01   5.979583e+01
  -4.935121e+01   2.877265e+01
  -6.946733e+01   2.802423e+01
  -1.163580e+02  -9.814429e+01
  -4.122607e+01  -8.427006e+01
   1.045714e+02  -3.640727e+01
   1.121367e+02  -2.912246e+01
   3.641141e+01  -2.525501e+01
   6.191264e+00  -6.491654e+01
  -2.751531e+01  -5.857134e+01
   7.311504e+01  -4.150521e+01
   1.273016e+02  -1.157208e+01
   1.128353e+02   8.224169e+01
  -4.693353e+00   7.539080e+01
  -6.804825e+01   7.288903e+01
  -9.207517e+01   1.701262e+01
   4.916445e+01  -1.058088e+02
   8.656227e+01  -1.357343e+01
   5.144931e+01  -4.953873e+01
  -9.723728e+00  -1.730663e+01
  -8.770756e+00  -5.383543e+00
  -5.228260e+01   2.339981e+01
   1.038622e+02  -3.387242e+01
   1.972897e+01   8.893365e+01
   6.966607e+00   1.031773e+02
  -1.063353e+02   1.291881e+02
  -1.443969e+02  -2.020171e+01
  -1.163508e+02  -9.398222e+01
   1.296077e+01  -1.593835e+02
   4.924937e+01  -7.316337e+01
   6.836461e+01   2.631157e+01
   4.146112e+01   1.171565e+01
   2.505739e+01   5.321697e+01
   1.797664e+00  -6.708921e+01
   1.030516e+02   5.982214e+00
   4.763392e+01  -2.265132e+01
   5.994543e+00   3.991359e+01
  -5.930569e+01   9.793596e+01
  -7.602509e+01  -6.506424e+01
   1.049483e+01  -7.879557e+01
   1.306741e+02  -7.866964e+01
   1.334148e+02   6.552062e+01
   2.692762e+01   8.982104e+01
  -6.573292e+01   1.159142e+02
  -1.774368e+02   4.296114e+01
  -1.329911e+02  -1.058382e+02
  -6.565954e+01  -7.744263e+01
   4.807474e+01  -7.069545e+01
   6.826402e+00  -3.164352e+01
   3.123364e+01  -6.563372e+00
   4.771389e+01  -7.050323e+01
   4.460962e+01  -2.354269e+01
   9.419749e+01  -4.753661e+00
   9.481843e+01   8.981975e+01
   5.315754e+00   8.620374e+01
  -7.111848e+01   1.387608e+02
  -1.814696e+02   9.517334e+00
  -4.768660e+01  -1.265565e+02
  -4.609773e+01  -9.562150e+01
   7.724913e+01  -2.943412e+01
   6.468910e+01   8.317523e+01
  -3.803848e+01   3.183871e+01
  -3.334960e+01   4.939123e+01
  -1.321865e+01  -7.064947e+00
   9.311411e+01  -2.823302e+01
   5.350804e+01   4.596106e+01
  -3.274003e+01   4.005087e+01
  -1.463650e+02  -3.156938e+01
  -1.063830e+02  -6.689212e+01
  -1.811885e+01  -6.858190e+01
   1.076230e+02  -6.604071e+01
   8.188445e+01   7.107514e+00
   2.657569e+01   6.765966e+01
   2.534550e+01   4.909852e+01
  -4.823227e+01  -3.274844e+01
   6.418875e+00  -5.109061e+01
   3.661175e+01  -9.466795e+00
   4.525913e+01   2.431338e+01
  -1.471354e+01  -4.270126e+01
   1.516985e+00  -3.064676e+01
   3.029410e+01  -1.914424e+01
   5.938895e+01  -3.648529e+01
   7.405725e+01   5.118272e+01
  -1.178540e+01   4.583612e+01
  -7.671914e+01   8.797810e+01
  -9.566770e+01   2.282490e+00
  -9.588288e+01  -6.108875e+01
  -3.589536e+01  -5.550426e+01
   4.331792e+01  -7.463644e+01
   6.302335e+01  -8.476976e+00
   8.614186e+00   6.410915e+00
  -1.207350e+02  -4.342420e+01
  -4.585052e+01  -2.357254e+01
   1.467254e+01  -9.113896e+01
   1.285053e+02  -3.787352e+01
   9.254627e+01   3.644829e+00
   5.812196e+01   4.553907e+01
  -5.005058e+01   1.065984e+01
  -5.796946e+01  -1.360653e+01
  -1.204016e+01  -4.218608e+00
   1.030439e+02   9.818330e+00
   7.849588e+01   1.123987e+02
  -4.082519e+01   3.446803e+01
  -9.448753e+01   1.040944e+02
  -1.257699e+02  -4.338306e+01
   4.993704e+01  -1.059677e+02
   6.636384e+01  -8.185903e+01
   7.825835e+01  -1.341929e+01
   7.133669e+01   9.654609e+01
  -3.397683e+01   8.508696e+01
  -1.182321e-01  -2.609041e+01
  -5.758353e+01  -7.464939e+00
   1.583192e+01  -9.635845e+00
   6.420818e+01  -4.338478e-01
  -6.235408e+00  -7.448332e+01
  -2.572298e+01  -6.166961e+01
   2.106094e+01  -1.351769e+01
  -3.692267e+01  -1.248498e+00
   5.925776e+01  -1.826307e+00
   3.795817e+01   8.068816e+01
   4.675584e+01   5.904693e+01
  -9.008078e+01  -1.262532e+00
  -4.769281e+01   2.976316e+01
  -1.408683e+01   2.107555e+01
  -1.141189e+01   5.384391e+01
   1.668369e+01   2.064299e+01
   1.047549e+01  -1.001457e+01
  -4.927765e+01  -1.797745e+00
  -1.867551e+00  -7.356444e+01
   6.029897e+01  -1.288316e+01
   5.430808e+01   5.495722e+01
  -4.389379e+01   2.135822e+01
  -1.054164e+02   1.816468e-01
  -1.431066e+02  -5.358795e+01
   4.345002e-01  -4.842870e+01
   2.075473e+01  -1.116572e+02
   1.411247e+02  -2.266981e+01
   4.190446e+01  -3.969370e+01
   4.551195e+01   3.204697e+01
  -3.087873e+01   5.261478e+00
   8.706505e+00  -1.541924e+01
   1.114346e+01   4.854218e+00
   1.172717e+01   4.920846e+01
   6.263075e+00   8.816458e+01
  -7.522222e+01  -2.531793e+01
  -1.224642e+01  -1.144344e+02
  -2.680259e+01  -4.846144e+01
   3.726398e+01  -4.883981e+01
   1.188678e+02   2.232649e+01
   4.961174e+01   8.074549e+01
  -9.584024e+01   2.808676e+01
  -8.533654e+01  -6.768168e+00
   2.176220e+00  -3.921252e+01
  -3.733451e+00  -4.302925e+01
   2.178595e+01   2.619078e+01
  -3.903135e+01  -1.594051e+01
  -3.911007e+01   1.041562e+01
  -9.507388e+01  -1.516922e+01
   4.548266e+01  -3.112222e+01
   7.093468e+01  -7.153268e+01
   1.691253e+01   7.857827e-01
  -2.174048e+01   1.215305e+01
  -6.371375e+01   5.991841e+01
  -4.784597e+01  -3.160982e+00
   9.695030e+00   2.995857e+00
  -6.667886e+00  -3.123604e+01
   3.626701e+01  -1.497354e+01
   2.551889e+01   4.692321e+01
  -1.617762e+01  -2.597323e+01
  -6.265322e+01   1.048433e+01
  -1.560782e+01  -1.139686e+01
  -1.121683e+01  -1.529256e+01
  -7.215168e+01   1.661034e+01
  -3.010613e+01   2.033723e+01
   4.775778e+01  -5.914517e+01
  -2.731178e+01   1.874565e+00
   6.034859e+00  -2.267701e+01
   2.793184e+01   2.193089e+01
   2.458256e+01   2.254886e+01
  -1.908838e+01  -2.509795e+00
  -1.420749e+02  -4.535002e+01
  -5.076039e+01  -4.451410e+01
   8.183288e+01  -4.737975e+01
   3.246049e+01   1.115997e+01
   2.004035e+01  -1.881097e+00
  -6.549445e+01   1.751840e+01
   4.687362e+01   1.431050e+01
  -2.431812e+01  -5.883661e+01
  -2.908361e+00   2.100410e+01
   7.306486e+00   8.066435e+00
   2.983881e-01   4.037890e+01
   5.294248e+01   1.456630e+01
