
 $NMID
 id='ANONYMOUS ', fmtdat='(2E16.6)'
 volume=1.0
 tramp=1.0
 $END
  -2.299429e+07  -3.140955e+05
  -1.508576e+07  -1.126543e+07
   4.497170e+05  -1.462650e+07
   1.014120e+07  -9.272543e+06
   8.234848e+06  -6.000207e+05
   3.458296e+05   4.121741e+06
  -4.641088e+06   1.865322e+06
  -3.333052e+06  -3.742714e+06
   1.231662e+06  -6.179048e+06
   4.324052e+06  -2.672236e+06
   3.669814e+06   3.005767e+06
   4.235305e+05   4.783232e+06
  -2.223872e+06   1.000264e+06
  -1.728108e+06  -3.933323e+06
   1.398248e+06  -4.602750e+06
   3.841991e+06  -3.476586e+05
   2.777061e+06   4.553330e+06
  -1.133588e+06   5.699924e+06
  -4.439706e+06   2.677532e+06
  -4.489278e+06  -1.369206e+06
  -1.917655e+06  -3.275276e+06
   3.500908e+05  -2.614413e+06
   2.091809e+05  -1.424711e+06
  -1.527576e+06  -1.685043e+06
  -1.996411e+06  -3.171692e+06
   5.882987e+05  -3.823388e+06
   4.576690e+06  -2.175057e+06
   6.143958e+06   8.714686e+05
   3.385382e+06   2.928315e+06
  -1.244112e+06   2.526189e+06
  -3.339786e+06   3.501579e+05
  -1.290589e+06  -1.623176e+06
   2.195080e+06  -1.762957e+06
   3.417174e+06   1.225357e+05
   1.637642e+06   2.556745e+06
  -8.059326e+05   3.314924e+06
  -1.585062e+06   1.479845e+06
  -6.335401e+05  -1.160867e+06
   4.733962e+05  -1.667952e+06
   4.533781e+05   5.576217e+05
  -6.411065e+05   2.694645e+06
  -1.714750e+06   1.837594e+06
  -1.580290e+06  -1.207889e+06
   7.461517e+02  -2.762856e+06
   1.808465e+06  -8.466814e+05
   1.953064e+06   2.402488e+06
  -2.673417e+05   3.379034e+06
  -3.226475e+06   1.101303e+06
  -4.159405e+06  -2.118215e+06
  -1.875325e+06  -3.469141e+06
   1.814319e+06  -2.229387e+06
   3.696697e+06   1.608856e+05
   2.299353e+06   1.713036e+06
  -7.047840e+05   1.453456e+06
  -2.323542e+06   7.873925e+03
  -1.328217e+06  -1.058956e+06
   6.987940e+05  -7.375325e+05
   1.347653e+06   4.444331e+05
   7.494521e+04   1.073858e+06
  -1.356688e+06   4.436939e+05
  -1.027505e+06  -7.470610e+05
   9.068295e+05  -1.221234e+06
   2.345516e+06  -3.431029e+05
   1.499455e+06   1.419373e+06
  -1.209161e+06   2.819060e+06
  -3.573693e+06   2.595842e+06
  -3.794411e+06   4.820845e+05
  -2.091692e+06  -2.254720e+06
  -1.743862e+05  -3.694653e+06
   6.434095e+05  -3.108713e+06
   5.678385e+05  -1.668358e+06
   6.648114e+05  -9.391088e+05
   1.438983e+06  -9.712812e+05
   2.296246e+06  -5.014030e+05
   2.269053e+06   1.028460e+06
   1.030479e+06   2.412777e+06
  -7.617341e+05   2.045270e+06
  -1.905999e+06  -6.122872e+04
  -1.500201e+06  -2.116733e+06
   2.902559e+05  -2.360592e+06
   2.151010e+06  -7.150083e+05
   2.602659e+06   1.354043e+06
   1.378508e+06   2.342523e+06
  -2.880478e+05   1.966372e+06
  -1.016372e+06   1.102504e+06
  -8.209978e+05   6.977861e+05
  -9.372241e+05   8.104240e+05
  -2.059655e+06   6.853467e+05
  -3.193052e+06  -3.193418e+05
  -2.660121e+06  -1.950354e+06
  -1.555874e+05  -3.167017e+06
   2.600783e+06  -2.983275e+06
   3.456455e+06  -1.319351e+06
   1.951206e+06   7.891091e+05
  -2.900864e+05   1.877688e+06
  -1.237098e+06   1.273139e+06
  -3.864462e+05  -1.955160e+05
   9.929247e+05  -9.282260e+05
   1.365757e+06  -2.389789e+05
   4.832218e+05   8.598765e+05
  -5.632384e+05   8.785600e+05
  -6.174655e+05  -2.540529e+05
   3.851032e+05  -9.898548e+05
   1.433568e+06  -2.723093e+04
   1.394213e+06   2.003248e+06
  -2.936751e+04   3.098922e+06
  -2.008380e+06   2.024286e+06
  -3.133096e+06  -4.257776e+05
  -2.500250e+06  -2.307088e+06
  -5.675572e+05  -2.410934e+06
   1.121300e+06  -1.195256e+06
   1.341367e+06  -6.792413e+04
   3.907533e+05   4.006811e+04
  -2.925246e+05  -5.825012e+05
   2.161171e+05  -9.365004e+05
   1.278900e+06  -4.384589e+05
   1.494344e+06   4.966337e+05
   4.100010e+05   9.561926e+05
  -8.658248e+05   5.159200e+05
  -8.715062e+05  -3.348207e+05
   5.460538e+05  -6.940575e+05
   1.963825e+06  -9.744877e+04
   1.816335e+06   1.065417e+06
   2.530338e+04   1.854344e+06
  -1.874565e+06   1.542841e+06
  -2.246190e+06   2.871414e+05
  -9.398206e+05  -8.984800e+05
   6.491480e+05  -1.018886e+06
   1.035410e+06  -1.073704e+05
   5.258833e+04   7.459014e+05
  -1.156379e+06   5.413789e+05
  -1.375628e+06  -5.223099e+05
  -4.458972e+05  -1.285139e+06
   7.144155e+05  -9.559314e+05
   1.050470e+06   2.398991e+04
   3.604747e+05   5.448894e+05
  -5.213353e+05   7.966393e+04
  -5.334983e+05  -8.008554e+05
   5.047849e+05  -1.089298e+06
   1.603955e+06  -3.580547e+05
   1.570863e+06   8.675172e+05
   2.976254e+05   1.609993e+06
  -1.070872e+06   1.294980e+06
  -1.337008e+06   2.374005e+05
  -4.731163e+05  -6.483061e+05
   4.801419e+05  -6.856822e+05
   6.058695e+05  -5.074204e+04
  -6.282914e+03   4.714978e+05
  -5.393895e+05   3.576610e+05
  -3.991186e+05  -1.037590e+05
   2.011601e+05  -2.013758e+05
   5.034016e+05   3.207825e+05
  -1.076195e+04   9.054437e+05
  -1.039449e+06   7.537044e+05
  -1.650256e+06  -2.988134e+05
  -1.151183e+06  -1.531527e+06
   1.789012e+05  -1.968375e+06
   1.314598e+06  -1.264569e+06
   1.490204e+06  -6.207258e+03
   8.963107e+05   8.476144e+05
   3.185025e+05   8.415393e+05
   2.123702e+05   3.729587e+05
   2.990411e+05   1.747758e+05
   4.384857e+04   4.770212e+05
  -6.334703e+05   7.560273e+05
  -1.196335e+06   3.690996e+05
  -9.883096e+05  -6.142076e+05
   1.020485e+05  -1.336489e+06
   1.395402e+06  -9.804346e+05
   1.867025e+06   3.520513e+05
   1.006577e+06   1.645542e+06
  -6.515508e+05   1.879321e+06
  -1.914929e+06   9.368018e+05
  -1.959049e+06  -3.583704e+05
  -1.000278e+06  -1.063932e+06
   3.809323e+04  -9.581412e+05
   4.547053e+05  -5.929157e+05
   3.230724e+05  -5.776504e+05
   2.121320e+05  -8.836021e+05
   4.933505e+05  -9.080639e+05
   9.523393e+05  -2.125961e+05
   1.027998e+06   8.844264e+05
   4.184602e+05   1.528249e+06
  -5.259127e+05   1.148771e+06
  -1.046471e+06   2.849661e+04
  -6.938796e+05  -9.521591e+05
   1.900500e+05  -1.104234e+06
   7.868879e+05  -4.719451e+05
   6.313137e+05   3.306749e+05
   5.833772e+04   7.332539e+05
  -2.310750e+05   6.536303e+05
   1.186858e+04   4.143576e+05
   3.079523e+05   3.141138e+05
   2.203280e+04   3.251549e+05
  -8.500276e+05   1.918742e+05
  -1.552357e+06  -2.288496e+05
  -1.290244e+06  -7.645312e+05
  -8.952885e+04  -1.055305e+06
   1.129243e+06  -8.677467e+05
   1.414726e+06  -3.081410e+05
   7.129929e+05   2.333358e+05
  -1.444018e+05   3.781162e+05
  -3.658955e+05   9.328072e+04
   2.673513e+04  -2.382361e+05
   4.088249e+05  -1.747861e+05
   3.641726e+05   2.797148e+05
   7.729308e+04   6.144422e+05
  -3.970297e+04   3.917610e+05
   1.250925e+05  -1.589449e+05
   3.195679e+05  -3.362946e+05
   2.432381e+05   1.738523e+05
  -1.782873e+05   8.311537e+05
  -7.198417e+05   8.273990e+05
  -9.500416e+05   5.442441e+04
  -5.363511e+05  -7.412537e+05
   3.384281e+05  -7.982083e+05
   9.279708e+05  -1.474776e+05
   5.660787e+05   5.032253e+05
  -5.361770e+05   5.422507e+05
  -1.331096e+06  -1.699903e+04
  -9.668558e+05  -6.686198e+05
   2.765335e+05  -8.959465e+05
   1.244019e+06  -5.493610e+05
   1.103705e+06   7.100443e+04
   1.682551e+05   4.447364e+05
  -5.114069e+05   2.722896e+05
  -2.700920e+05  -2.008517e+05
   5.304035e+05  -3.585876e+05
   9.410635e+05   1.627628e+05
   4.237346e+05   1.003124e+06
  -6.176066e+05   1.323052e+06
  -1.268141e+06   6.209949e+05
  -1.003829e+06  -6.715074e+05
  -1.298811e+05  -1.485023e+06
   6.180169e+05  -1.109115e+06
   7.754122e+05   7.881800e+04
   4.186594e+05   9.663528e+05
  -9.046558e+04   8.459349e+05
  -4.304918e+05   1.062257e+05
  -4.480817e+05  -3.300273e+05
  -2.107091e+05  -1.405357e+05
  -1.067726e+04   1.025689e+05
  -1.134383e+05  -1.868147e+05
  -3.649540e+05  -7.686697e+05
  -2.410660e+05  -9.016199e+05
   4.780283e+05  -3.356454e+05
   1.215667e+06   3.966200e+05
   1.127056e+06   6.967430e+05
   1.558266e+05   5.530544e+05
  -7.781948e+05   3.229817e+05
  -8.349301e+05   1.681253e+05
  -2.292995e+05   8.133020e+02
   1.513917e+05  -1.735849e+05
  -5.873386e+04  -2.143678e+05
  -3.104909e+05  -1.346057e+05
  -1.568777e+03  -1.143646e+05
   6.448721e+05  -1.433955e+05
   8.385275e+05   5.515284e+04
   1.999328e+05   5.513258e+05
  -7.942170e+05   8.837596e+05
  -1.328807e+06   5.161528e+05
  -1.020374e+06  -4.274799e+05
  -1.604092e+05  -1.163605e+06
   6.222757e+05  -1.072872e+06
   8.594445e+05  -3.540118e+05
   5.409134e+05   2.535487e+05
   6.163562e+04   2.912960e+05
  -1.382353e+05  -4.010520e+03
   3.728005e+04  -7.591028e+04
   2.813485e+05   2.768966e+05
   2.233164e+05   6.613772e+05
  -1.769346e+05   5.281872e+05
  -5.678475e+05  -1.734946e+05
  -5.262758e+05  -8.466215e+05
   2.566393e+04  -8.282821e+05
   6.685976e+05  -9.968979e+04
   7.954901e+05   6.851271e+05
   2.030259e+05   8.859620e+05
  -6.059816e+05   4.704420e+05
  -8.629045e+05  -1.082356e+05
  -3.702056e+05  -4.479358e+05
   2.396429e+05  -4.656764e+05
   2.440956e+05  -2.733287e+05
  -2.780389e+05  -4.413089e+04
  -5.484535e+05   5.333203e+03
  -8.579039e+04  -2.374595e+05
   6.843050e+05  -5.449107e+05
   9.675958e+05  -4.725019e+05
   5.382977e+05   9.709615e+04
  -1.028439e+05   6.723813e+05
  -3.974274e+05   6.525217e+05
  -2.703793e+05   6.739769e+04
   8.338131e+03  -4.214008e+05
   2.174975e+05  -3.058482e+05
   2.858432e+05   1.961212e+05
   1.826001e+05   4.765826e+05
  -6.983897e+04   2.818962e+05
  -3.128032e+05  -7.525556e+04
  -3.562560e+05  -1.893622e+05
  -1.946277e+05  -4.016954e+04
  -9.615166e+03   6.759733e+04
   6.684785e+04  -7.568355e+04
   9.525698e+04  -3.302478e+05
   1.883461e+05  -3.668807e+05
   3.055526e+05  -4.281021e+04
   2.697344e+05   3.993017e+05
  -1.085512e+04   5.382000e+05
  -3.732592e+05   2.108920e+05
  -4.855305e+05  -2.875793e+05
  -1.565864e+05  -4.986619e+05
   3.992740e+05  -2.748208e+05
   6.727029e+05   1.124799e+05
   3.591517e+05   3.190627e+05
  -2.469847e+05   2.658589e+05
  -5.042189e+05   1.065006e+05
  -1.491788e+05  -1.315637e+03
   3.576265e+05   9.658346e+03
   3.578755e+05   1.391716e+05
  -2.061447e+05   2.775572e+05
  -7.115053e+05   1.982043e+05
