
 $NMID
 id='ANONYMOUS ', fmtdat='(2E16.6)'
 volume=1.0
 tramp=1.0
 $END
   2.761679e+07  -4.307265e+05
   1.861893e+07   1.278464e+07
   1.692412e+05   1.752613e+07
  -1.178073e+07   1.172890e+07
  -9.985457e+06   1.246502e+06
  -6.788774e+05  -4.965391e+06
   5.558563e+06  -2.564994e+06
   4.287582e+06   4.366869e+06
  -1.178617e+06   7.630206e+06
  -5.130106e+06   3.489023e+06
  -4.567740e+06  -3.512132e+06
  -6.815090e+05  -5.814277e+06
   2.673177e+06  -1.270350e+06
   2.252425e+06   4.779315e+06
  -1.512804e+06   5.708375e+06
  -4.647454e+06   6.137227e+05
  -3.562262e+06  -5.397994e+06
   1.131921e+06  -6.947141e+06
   5.257005e+06  -3.391919e+06
   5.442377e+06   1.518492e+06
   2.366128e+06   3.874343e+06
  -3.645038e+05   3.086053e+06
  -1.276224e+05   1.651784e+06
   2.047713e+06   2.019624e+06
   2.604975e+06   3.900184e+06
  -6.265109e+05   4.752502e+06
  -5.579871e+06   2.790120e+06
  -7.552036e+06  -9.090974e+05
  -4.198307e+06  -3.480493e+06
   1.496386e+06  -3.101758e+06
   4.117096e+06  -4.837452e+05
   1.618567e+06   2.014493e+06
  -2.711386e+06   2.279754e+06
  -4.274821e+06  -5.840052e+04
  -2.099291e+06  -3.148642e+06
   9.304329e+05  -4.120196e+06
   1.906974e+06  -1.823611e+06
   7.503311e+05   1.443313e+06
  -5.888453e+05   2.026091e+06
  -5.670211e+05  -7.453337e+05
   7.342847e+05  -3.369525e+06
   2.045455e+06  -2.325568e+06
   1.980919e+06   1.389391e+06
   1.647636e+05   3.339424e+06
  -2.072841e+06   1.116082e+06
  -2.423970e+06  -2.784444e+06
   1.640918e+05  -4.061970e+06
   3.847908e+06  -1.445101e+06
   5.158392e+06   2.420443e+06
   2.447835e+06   4.171481e+06
  -2.130120e+06   2.816343e+06
  -4.551559e+06  -3.596792e+04
  -2.910244e+06  -1.999585e+06
   7.767931e+05  -1.809496e+06
   2.823256e+06  -1.172814e+05
   1.669431e+06   1.222157e+06
  -8.127648e+05   9.226202e+05
  -1.677154e+06  -4.896114e+05
  -1.672927e+05  -1.336860e+06
   1.641777e+06  -6.588546e+05
   1.350650e+06   8.211239e+05
  -9.801490e+05   1.533738e+06
  -2.820455e+06   5.565126e+05
  -1.890064e+06  -1.638985e+06
   1.385700e+06  -3.471589e+06
   4.304255e+06  -3.280098e+06
   4.623285e+06  -6.936089e+05
   2.602887e+06   2.698427e+06
   3.225097e+05   4.508324e+06
  -6.579894e+05   3.835073e+06
  -6.169091e+05   2.104038e+06
  -8.102444e+05   1.219656e+06
  -1.794345e+06   1.249636e+06
  -2.849280e+06   6.606946e+05
  -2.831556e+06  -1.235298e+06
  -1.329563e+06  -2.970781e+06
   8.990160e+05  -2.558223e+06
   2.375840e+06   2.102228e+04
   1.926217e+06   2.577143e+06
  -2.888970e+05   2.921674e+06
  -2.625991e+06   9.334256e+05
  -3.221745e+06  -1.594584e+06
  -1.739641e+06  -2.817748e+06
   2.946725e+05  -2.386016e+06
   1.186334e+06  -1.359313e+06
   9.554923e+05  -8.836529e+05
   1.111364e+06  -1.041926e+06
   2.508551e+06  -9.260105e+05
   3.940876e+06   2.758100e+05
   3.343654e+06   2.307180e+06
   3.006523e+05   3.897254e+06
  -3.109072e+06   3.763007e+06
  -4.222852e+06   1.730480e+06
  -2.426341e+06  -9.231403e+05
   3.128040e+05  -2.327916e+06
   1.494930e+06  -1.601711e+06
   4.804694e+05   2.337469e+05
  -1.197549e+06   1.173858e+06
  -1.670720e+06   3.384094e+05
  -6.163444e+05  -1.039995e+06
   6.702130e+05  -1.101797e+06
   7.798580e+05   2.911948e+05
  -4.263217e+05   1.250268e+06
  -1.768272e+06   1.190960e+05
  -1.820287e+06  -2.398877e+06
  -1.111197e+05  -3.840102e+06
   2.394535e+06  -2.606180e+06
   3.898592e+06   3.951136e+05
   3.186035e+06   2.767017e+06
   7.878509e+05   2.966999e+06
  -1.347585e+06   1.512843e+06
  -1.654907e+06   1.248240e+05
  -4.832576e+05  -3.631163e+04
   3.806795e+05   7.079586e+05
  -2.305773e+05   1.157804e+06
  -1.553779e+06   5.836768e+05
  -1.855712e+06  -5.541390e+05
  -5.420619e+05  -1.159349e+06
   1.048035e+06  -6.677151e+05
   1.091914e+06   3.829647e+05
  -6.462406e+05   8.847389e+05
  -2.427960e+06   1.984377e+05
  -2.291569e+06  -1.253380e+06
  -1.010721e+05  -2.297074e+06
   2.261836e+06  -1.974188e+06
   2.762159e+06  -4.324283e+05
   1.188686e+06   1.072278e+06
  -7.626827e+05   1.272287e+06
  -1.265678e+06   1.663820e+05
  -8.641441e+04  -9.136136e+05
   1.405856e+06  -7.051441e+05
   1.714674e+06   5.940591e+05
   5.998791e+05   1.569163e+06
  -8.435146e+05   1.209921e+06
  -1.298609e+06   1.399822e+04
  -4.691228e+05  -6.572786e+05
   6.361907e+05  -1.172659e+05
   6.829893e+05   9.682651e+05
  -5.875317e+05   1.358664e+06
  -1.966145e+06   4.928780e+05
  -1.964692e+06  -1.017975e+06
  -4.212120e+05  -1.973982e+06
   1.274125e+06  -1.632969e+06
   1.639656e+06  -3.406965e+05
   6.081892e+05   7.820169e+05
  -5.673990e+05   8.635580e+05
  -7.490462e+05   8.240975e+04
  -1.079150e+04  -5.885792e+05
   6.591119e+05  -4.657986e+05
   5.065540e+05   1.172589e+05
  -2.364263e+05   2.651441e+05
  -6.356579e+05  -3.711395e+05
  -2.298420e+04  -1.116120e+06
   1.254486e+06  -9.663230e+05
   2.045238e+06   3.117275e+05
   1.470949e+06   1.849427e+06
  -1.545186e+05   2.435170e+06
  -1.580003e+06   1.609082e+06
  -1.843296e+06   6.155635e+04
  -1.141625e+06  -1.020524e+06
  -4.229124e+05  -1.039099e+06
  -2.679437e+05  -4.596683e+05
  -3.676309e+05  -2.022972e+05
  -6.948328e+04  -5.820838e+05
   7.535883e+05  -9.555115e+05
   1.465054e+06  -4.995577e+05
   1.245261e+06   7.260956e+05
  -7.766561e+04   1.658542e+06
  -1.689242e+06   1.260908e+06
  -2.317522e+06  -3.702180e+05
  -1.300833e+06  -1.994839e+06
   7.345833e+05  -2.340018e+06
   2.326390e+06  -1.224522e+06
   2.431852e+06   3.699423e+05
   1.278366e+06   1.278905e+06
  -1.052470e+04   1.190820e+06
  -5.465659e+05   7.531018e+05
  -3.884603e+05   7.218888e+05
  -2.361621e+05   1.090860e+06
  -5.760303e+05   1.132373e+06
  -1.164419e+06   2.930168e+05
  -1.296268e+06  -1.056909e+06
  -5.666796e+05  -1.871370e+06
   6.110061e+05  -1.434618e+06
   1.290566e+06  -7.149280e+04
   8.897900e+05   1.148471e+06
  -1.926796e+05   1.368320e+06
  -9.498331e+05   6.144165e+05
  -7.897933e+05  -3.782693e+05
  -1.027218e+05  -8.982456e+05
   2.558273e+05  -8.155357e+05
  -3.135802e+04  -5.138713e+05
  -3.889679e+05  -3.786744e+05
  -3.716022e+04  -4.009985e+05
   1.039629e+06  -2.663955e+05
   1.919114e+06   2.283845e+05
   1.617331e+06   8.971904e+05
   1.505912e+05   1.295584e+06
  -1.358367e+06   1.107120e+06
  -1.733009e+06   4.310794e+05
  -8.894015e+05  -2.579307e+05
   1.628297e+05  -4.686105e+05
   4.467672e+05  -1.299426e+05
  -2.657514e+04   2.910594e+05
  -5.003309e+05   2.281259e+05
  -4.578733e+05  -3.329224e+05
  -1.113462e+05  -7.563780e+05
   4.010047e+04  -4.846196e+05
  -1.497253e+05   2.033442e+05
  -3.867042e+05   4.291477e+05
  -3.067993e+05  -2.059366e+05
   1.944770e+05  -1.032721e+06
   8.600918e+05  -1.043896e+06
   1.164699e+06  -9.619851e+04
   6.811024e+05   8.963424e+05
  -3.905754e+05   9.917481e+05
  -1.136502e+06   2.087557e+05
  -7.143287e+05  -6.033013e+05
   6.421926e+05  -6.878960e+05
   1.644912e+06  -2.602966e+04
   1.221344e+06   7.917054e+05
  -3.069615e+05   1.118710e+06
  -1.518078e+06   7.257727e+05
  -1.368446e+06  -4.756144e+04
  -2.247630e+05  -5.443142e+05
   6.214425e+05  -3.552699e+05
   3.385465e+05   2.372501e+05
  -6.444319e+05   4.577126e+05
  -1.165784e+06  -1.728901e+05
  -5.518614e+05  -1.225038e+06
   7.228565e+05  -1.650806e+06
   1.546230e+06  -8.050020e+05
   1.260541e+06   7.970443e+05
   2.087739e+05   1.829235e+06
  -7.261342e+05   1.391622e+06
  -9.605897e+05  -6.875982e+04
  -5.517619e+05  -1.178508e+06
   7.993212e+04  -1.049412e+06
   5.267400e+05  -1.470739e+05
   5.666764e+05   3.932785e+05
   2.677024e+05   1.676514e+05
   8.646616e+03  -1.279786e+05
   1.419124e+05   2.243720e+05
   4.742903e+05   9.355095e+05
   3.311057e+05   1.105685e+06
  -5.745969e+05   4.310745e+05
  -1.514103e+06  -4.493560e+05
  -1.417613e+06  -8.227805e+05
  -2.111305e+05  -6.766840e+05
   9.527893e+05  -4.237989e+05
   1.026116e+06  -2.362307e+05
   2.804832e+05  -1.061579e+04
  -1.822822e+05   2.188125e+05
   8.310729e+04   2.646942e+05
   3.913665e+05   1.582669e+05
   4.134699e+03   1.412394e+05
  -7.952028e+05   1.963434e+05
  -1.035972e+06  -4.180006e+04
  -2.590214e+05  -6.728057e+05
   9.547602e+05  -1.113888e+06
   1.620032e+06  -6.775355e+05
   1.268067e+06   4.961737e+05
   2.342746e+05   1.431202e+06
  -7.317886e+05   1.342896e+06
  -1.048758e+06   4.621537e+05
  -6.761483e+05  -2.974793e+05
  -8.384056e+04  -3.572819e+05
   1.739474e+05   2.931042e+03
  -4.242035e+04   9.758084e+04
  -3.580496e+05  -3.314375e+05
  -2.986322e+05  -8.088770e+05
   2.019046e+05  -6.565984e+05
   7.069143e+05   1.982955e+05
   6.744059e+05   1.030008e+06
  -9.004928e+03   1.022209e+06
  -8.238453e+05   1.409161e+05
  -1.002341e+06  -8.229457e+05
  -2.767398e+05  -1.086290e+06
   7.329701e+05  -5.972922e+05
   1.066338e+06   1.066309e+05
   4.692774e+05   5.380970e+05
  -2.802223e+05   5.789772e+05
  -2.892666e+05   3.444846e+05
   3.477817e+05   4.690378e+04
   6.774225e+05  -2.373084e+04
   1.124074e+05   2.895202e+05
  -8.267376e+05   6.949710e+05
  -1.175853e+06   6.169987e+05
  -6.641139e+05  -9.958108e+04
   1.053871e+05  -8.316051e+05
   4.662711e+05  -8.167452e+05
   3.279766e+05  -8.962375e+04
   1.477342e+03   5.215331e+05
  -2.590480e+05   3.825481e+05
  -3.590822e+05  -2.357690e+05
  -2.401951e+05  -5.822479e+05
   7.777422e+04  -3.472827e+05
   3.881905e+05   8.409215e+04
   4.447103e+05   2.200019e+05
   2.414939e+05   4.139364e+04
   1.111128e+04  -8.127688e+04
  -8.020697e+04   1.004516e+05
  -1.111871e+05   4.123152e+05
  -2.264081e+05   4.551560e+05
  -3.773091e+05   5.703895e+04
  -3.414737e+05  -4.874484e+05
   1.498113e+03  -6.646677e+05
   4.552579e+05  -2.706366e+05
   6.061965e+05   3.411773e+05
   2.076058e+05   6.114170e+05
  -4.828833e+05   3.515022e+05
  -8.317566e+05  -1.184823e+05
  -4.524689e+05  -3.821804e+05
   2.961108e+05  -3.336608e+05
   6.177647e+05  -1.448094e+05
   1.816843e+05  -2.777721e+03
  -4.448240e+05  -3.050076e+03
  -4.472088e+05  -1.637121e+05
   2.482821e+05  -3.510099e+05
   8.760485e+05  -2.670693e+05
