
 $NMID
 id='ANONYMOUS ', fmtdat='(2E16.6)'
 volume=1.0
 tramp=1.0
 $END
  -4.033159e+07  -1.784927e+06
  -2.402203e+07  -2.365303e+07
   4.555241e+06  -2.623437e+07
   1.914604e+07  -1.204846e+07
   1.248826e+07   2.870388e+06
  -1.398091e+06   6.725141e+06
  -7.349203e+06   6.114998e+05
  -3.313313e+06  -6.782154e+06
   3.626246e+06  -8.182368e+06
   7.148168e+06  -2.536315e+06
   5.447766e+06   4.949814e+06
   4.622903e+05   7.110077e+06
  -3.392166e+06   1.784373e+06
  -2.312938e+06  -5.204142e+06
   2.667126e+06  -5.996136e+06
   6.004336e+06   4.841675e+05
   3.620592e+06   7.646711e+06
  -2.676716e+06   8.942678e+06
  -7.592688e+06   4.144996e+06
  -7.746644e+06  -2.153484e+06
  -3.958647e+06  -5.739954e+06
   2.645818e+05  -5.567505e+06
   1.599073e+06  -3.419893e+06
  -3.040913e+05  -2.159049e+06
  -2.003365e+06  -3.151495e+06
   3.084802e+05  -4.589719e+06
   5.704459e+06  -3.423429e+06
   8.613154e+06   5.700056e+05
   5.377064e+06   4.045417e+06
  -9.336442e+05   4.061684e+06
  -4.129425e+06   1.334809e+06
  -2.082624e+06  -1.243070e+06
   1.808671e+06  -1.786967e+06
   3.486487e+06  -1.984487e+05
   2.180006e+06   2.484934e+06
  -3.220438e+05   4.140347e+06
  -2.025332e+06   2.676498e+06
  -1.865493e+06  -1.033898e+06
  -2.698712e+05  -2.857412e+06
   7.883400e+05  -3.796469e+05
  -2.943714e+05   3.055796e+06
  -2.288667e+06   2.280086e+06
  -2.081014e+06  -2.254360e+06
   1.165450e+06  -4.461806e+06
   4.223885e+06  -7.959792e+05
   3.355843e+06   4.795840e+06
  -1.223738e+06   5.951397e+06
  -5.517102e+06   1.627938e+06
  -5.846072e+06  -3.516775e+06
  -2.038879e+06  -5.041854e+06
   2.794020e+06  -2.692100e+06
   4.837128e+06   8.128444e+05
   2.607993e+06   2.707101e+06
  -1.568467e+06   1.899799e+06
  -3.549684e+06  -4.845732e+05
  -1.700964e+06  -1.944505e+06
   1.265954e+06  -1.067235e+06
   1.687025e+06   7.721412e+05
  -4.885144e+05   1.104702e+06
  -1.917900e+06  -4.565938e+05
  -3.657362e+05  -1.899267e+06
   2.618035e+06  -1.509798e+06
   3.836144e+06   4.470285e+05
   1.942711e+06   2.725589e+06
  -1.739105e+06   4.230529e+06
  -4.796458e+06   3.865490e+06
  -5.417944e+06   9.832520e+05
  -3.407700e+06  -3.079995e+06
  -4.145184e+05  -5.317002e+06
   1.316721e+06  -4.204922e+06
   1.117263e+06  -1.666809e+06
   4.825368e+05  -6.071791e+05
   1.030894e+06  -1.207827e+06
   2.416244e+06  -1.173168e+06
   2.916788e+06   6.639473e+05
   1.647248e+06   2.626781e+06
  -5.444347e+05   2.449723e+06
  -2.070832e+06   7.087794e+04
  -1.822365e+06  -2.427654e+06
   2.287413e+05  -2.980803e+06
   2.781612e+06  -1.197924e+06
   3.793283e+06   1.570816e+06
   2.295205e+06   3.371390e+06
  -3.305759e+05   3.217377e+06
  -1.767217e+06   1.881187e+06
  -1.546810e+06   9.180802e+05
  -1.438572e+06   8.411433e+05
  -2.725771e+06   6.749791e+05
  -4.141062e+06  -5.873887e+05
  -3.381157e+06  -2.612513e+06
  -1.406626e+05  -4.051420e+06
   3.278152e+06  -3.810516e+06
   4.318626e+06  -1.841690e+06
   2.571734e+06   7.825568e+05
  -1.040671e+05   2.349100e+06
  -1.400345e+06   1.759418e+06
  -5.334380e+05  -1.700517e+05
   1.202589e+06  -1.235855e+06
   1.816365e+06  -3.213498e+05
   7.295880e+05   1.162237e+06
  -6.449789e+05   1.121024e+06
  -6.334734e+05  -3.402914e+05
   7.120546e+05  -9.914880e+05
   1.769060e+06   5.324723e+05
   1.229022e+06   2.887894e+06
  -6.926109e+05   3.624584e+06
  -2.733927e+06   1.901917e+06
  -3.631425e+06  -9.127819e+05
  -2.772650e+06  -2.825265e+06
  -6.087706e+05  -2.853475e+06
   1.349406e+06  -1.490126e+06
   1.654208e+06  -1.390018e+05
   4.928875e+05   5.321691e+04
  -3.613947e+05  -7.475867e+05
   3.496588e+05  -1.247213e+06
   1.751940e+06  -5.411455e+05
   1.940400e+06   7.637892e+05
   4.431330e+05   1.303305e+06
  -1.135192e+06   6.120106e+05
  -1.014568e+06  -4.350621e+05
   7.430093e+05  -7.175747e+05
   2.334386e+06   6.302503e+04
   2.054789e+06   1.337869e+06
  -8.350114e+04   2.173524e+06
  -2.344689e+06   1.813675e+06
  -2.813960e+06   3.074501e+05
  -1.186987e+06  -1.206292e+06
   8.875414e+05  -1.373000e+06
   1.426092e+06  -1.349478e+05
   1.110345e+05   1.015385e+06
  -1.498504e+06   6.972447e+05
  -1.724704e+06  -7.269882e+05
  -4.527881e+05  -1.635321e+06
   9.872439e+05  -1.095615e+06
   1.289242e+06   1.607022e+05
   3.570783e+05   7.283598e+05
  -7.213587e+05   7.491738e+04
  -6.996063e+05  -1.038119e+06
   6.192574e+05  -1.401891e+06
   2.029625e+06  -4.842117e+05
   2.007809e+06   1.092905e+06
   3.647381e+05   2.060396e+06
  -1.407433e+06   1.629071e+06
  -1.708480e+06   2.446117e+05
  -5.483016e+05  -8.467920e+05
   6.371732e+05  -8.368841e+05
   7.153597e+05  -7.012275e+04
  -4.491298e+04   4.931109e+05
  -5.906455e+05   3.567824e+05
  -3.448704e+05  -8.428797e+04
   3.196808e+05  -1.005568e+05
   5.678877e+05   5.166434e+05
  -1.054994e+05   1.152262e+06
  -1.346649e+06   9.172338e+05
  -2.082588e+06  -4.060555e+05
  -1.449134e+06  -1.951475e+06
   2.362482e+05  -2.461600e+06
   1.646837e+06  -1.510351e+06
   1.794982e+06   5.506854e+04
   1.013606e+06   9.919702e+05
   3.765463e+05   8.847004e+05
   3.671936e+05   3.735705e+05
   4.798280e+05   2.737499e+05
   5.933875e+04   6.724604e+05
  -8.353510e+05   9.214872e+05
  -1.477845e+06   3.995124e+05
  -1.159090e+06  -7.484001e+05
   1.798773e+05  -1.581802e+06
   1.744492e+06  -1.159107e+06
   2.308635e+06   4.705703e+05
   1.200539e+06   2.093110e+06
  -9.200179e+05   2.361674e+06
  -2.478278e+06   1.098241e+06
  -2.413256e+06  -5.547437e+05
  -1.123334e+06  -1.339000e+06
   1.124810e+05  -1.089960e+06
   4.883177e+05  -6.514094e+05
   2.713968e+05  -7.541624e+05
   2.138211e+05  -1.207183e+06
   6.596589e+05  -1.204354e+06
   1.249098e+06  -2.788021e+05
   1.313011e+06   1.113558e+06
   5.316122e+05   1.923810e+06
  -6.560637e+05   1.446407e+06
  -1.308172e+06   1.298273e+04
  -8.395269e+05  -1.242981e+06
   3.150182e+05  -1.389853e+06
   1.064532e+06  -5.005835e+05
   7.895200e+05   5.453598e+05
  -2.419226e+04   9.842854e+05
  -4.017920e+05   7.958474e+05
  -2.754866e+04   4.736164e+05
   4.081521e+05   3.744848e+05
   4.038861e+04   3.997556e+05
  -1.106914e+06   2.184541e+05
  -2.003784e+06  -3.240575e+05
  -1.618318e+06  -1.007336e+06
  -3.576531e+04  -1.374583e+06
   1.508636e+06  -1.102261e+06
   1.808098e+06  -3.278633e+05
   8.630633e+05   3.854523e+05
  -2.238523e+05   5.134975e+05
  -4.811567e+05   7.622123e+04
   1.339897e+04  -3.552077e+05
   4.878761e+05  -2.360253e+05
   4.675501e+05   3.529648e+05
   1.631006e+05   7.607074e+05
   1.143976e+04   4.947866e+05
   1.450257e+05  -1.538535e+05
   3.451893e+05  -3.709817e+05
   2.915988e+05   2.235571e+05
  -1.904562e+05   1.024178e+06
  -9.112661e+05   1.052025e+06
  -1.277808e+06   1.040605e+05
  -7.520596e+05  -9.386364e+05
   4.333849e+05  -1.066326e+06
   1.219246e+06  -2.435361e+05
   7.233016e+05   6.137528e+05
  -6.922557e+05   6.641939e+05
  -1.638981e+06  -6.167076e+04
  -1.120477e+06  -8.524231e+05
   4.111652e+05  -1.061088e+06
   1.536363e+06  -5.917764e+05
   1.319429e+06   1.367655e+05
   1.763441e+05   5.394590e+05
  -6.483188e+05   3.072772e+05
  -3.590845e+05  -2.765053e+05
   6.381767e+05  -4.863967e+05
   1.193996e+06   1.546529e+05
   5.965305e+05   1.239805e+06
  -7.048508e+05   1.694643e+06
  -1.560562e+06   8.298932e+05
  -1.265363e+06  -8.151495e+05
  -1.757092e+05  -1.844855e+06
   7.673640e+05  -1.353021e+06
   9.532735e+05   1.385815e+05
   4.797559e+05   1.209587e+06
  -1.650097e+05   1.020584e+06
  -5.525500e+05   1.080177e+05
  -5.207299e+05  -3.982050e+05
  -2.199794e+05  -1.563032e+05
  -2.967786e+04   1.122594e+05
  -2.046636e+05  -2.714881e+05
  -4.807100e+05  -9.770588e+05
  -2.479882e+05  -1.111468e+06
   6.597805e+05  -4.036293e+05
   1.511081e+06   4.915587e+05
   1.357304e+06   8.640525e+05
   1.881115e+05   7.012571e+05
  -9.268456e+05   4.152241e+05
  -1.024366e+06   1.962382e+05
  -3.224675e+05  -2.964593e+04
   1.717008e+05  -2.242350e+05
  -2.235992e+04  -2.352067e+05
  -3.345817e+05  -1.296447e+05
  -2.620166e+04  -1.414519e+05
   7.461733e+05  -2.120999e+05
   1.060113e+06   4.520787e+04
   3.395072e+05   7.065118e+05
  -9.358062e+05   1.154464e+06
  -1.704012e+06   6.981901e+05
  -1.357557e+06  -4.995675e+05
  -2.360791e+05  -1.448777e+06
   7.864250e+05  -1.368961e+06
   1.078194e+06  -4.921202e+05
   6.753878e+05   2.788509e+05
   1.056585e+05   3.676276e+05
  -1.262835e+05   3.489142e+04
   6.111582e+04  -5.497527e+04
   3.274218e+05   3.593139e+05
   2.640644e+05   8.256185e+05
  -2.054127e+05   6.782298e+05
  -7.066716e+05  -1.712671e+05
  -7.075793e+05  -1.020921e+06
  -3.969591e+04  -1.050915e+06
   8.082438e+05  -1.900077e+05
   1.028847e+06   8.006713e+05
   3.022741e+05   1.114666e+06
  -7.482106e+05   6.396839e+05
  -1.112483e+06  -1.104065e+05
  -4.990607e+05  -5.969207e+05
   3.018695e+05  -6.372946e+05
   3.486186e+05  -3.549030e+05
  -3.011173e+05  -2.886598e+04
  -6.752895e+05   2.316822e+04
  -1.271702e+05  -3.076417e+05
   8.509976e+05  -6.855663e+05
   1.247560e+06  -5.643912e+05
   7.231599e+05   1.580093e+05
  -1.173284e+05   8.652876e+05
  -5.351420e+05   8.409728e+05
  -3.906578e+05   1.204005e+05
  -2.334909e+04  -5.102486e+05
   2.611033e+05  -4.145258e+05
   3.619210e+05   1.973639e+05
   2.432629e+05   5.941357e+05
  -7.451172e+04   3.965167e+05
  -3.971652e+05  -7.032413e+04
  -4.632372e+05  -2.649361e+05
  -2.431019e+05  -7.566576e+04
   9.033551e+03   1.218594e+05
   7.804564e+04  -2.311005e+04
   5.003601e+04  -3.916983e+05
   1.459369e+05  -5.192865e+05
   3.605253e+05  -1.425734e+05
   4.085209e+05   4.477405e+05
   7.539355e+04   6.743177e+05
  -4.436497e+05   2.947328e+05
  -6.464095e+05  -3.250164e+05
  -2.293648e+05  -6.066095e+05
   5.106032e+05  -3.572389e+05
   8.746182e+05   1.114850e+05
   4.697681e+05   3.943837e+05
  -3.081084e+05   3.719542e+05
  -6.465398e+05   1.829538e+05
  -2.233599e+05   5.375067e+03
   4.020921e+05  -3.419662e+04
   4.357804e+05   1.165413e+05
  -2.111139e+05   3.246424e+05
  -8.229193e+05   2.676553e+05
