
 $NMID
 id='ANONYMOUS ', fmtdat='(2E16.6)'
 volume=1.0
 tramp=1.0
 $END
  -4.855520e+07   9.901797e+05
  -3.045357e+07  -2.729209e+07
   4.021350e+06  -3.214764e+07
   2.242093e+07  -1.522644e+07
   1.499213e+07   3.308794e+06
  -1.526472e+06   8.150462e+06
  -8.677367e+06   7.452145e+05
  -4.000892e+06  -7.990732e+06
   4.077902e+06  -9.585777e+06
   8.344048e+06  -3.163457e+06
   6.729045e+06   5.423326e+06
   1.065279e+06   8.207333e+06
  -3.776682e+06   2.428213e+06
  -2.969204e+06  -5.676761e+06
   2.831712e+06  -6.956187e+06
   7.132223e+06   3.469579e+05
   4.704341e+06   8.855955e+06
  -2.657083e+06   1.077571e+07
  -8.756317e+06   5.506099e+06
  -9.455672e+06  -1.871586e+06
  -5.379816e+06  -6.523538e+06
  -2.880842e+05  -6.904912e+06
   1.845006e+06  -4.510295e+06
   8.697052e+03  -2.523486e+06
  -2.215693e+06  -3.168448e+06
  -6.427887e+04  -5.027306e+06
   6.056157e+06  -4.376470e+06
   9.838710e+06  -1.525420e+05
   6.607990e+06   4.160153e+06
  -5.001879e+05   4.782776e+06
  -4.394010e+06   2.018607e+06
  -2.469239e+06  -9.608176e+05
   1.631158e+06  -1.901276e+06
   3.594477e+06  -5.006765e+05
   2.590925e+06   2.392370e+06
   1.411222e+05   4.583097e+06
  -2.027551e+06   3.380086e+06
  -2.449514e+06  -8.085933e+05
  -8.121447e+05  -3.325775e+06
   8.426021e+05  -8.181382e+05
   3.967251e+03   3.280430e+06
  -2.444946e+06   2.687766e+06
  -2.545592e+06  -2.582177e+06
   1.292378e+06  -5.411156e+06
   5.256887e+06  -1.207530e+06
   4.430622e+06   5.593967e+06
  -1.139830e+06   7.272929e+06
  -6.461521e+06   2.335611e+06
  -6.971023e+06  -3.755535e+06
  -2.542867e+06  -5.706033e+06
   3.089040e+06  -3.177370e+06
   5.528471e+06   7.575916e+05
   3.041706e+06   3.019611e+06
  -1.800936e+06   2.280453e+06
  -4.194109e+06  -4.044659e+05
  -2.079301e+06  -2.219823e+06
   1.432951e+06  -1.333417e+06
   1.938340e+06   8.049291e+05
  -6.547345e+05   1.217520e+06
  -2.288960e+06  -6.710461e+05
  -3.145941e+05  -2.430685e+06
   3.264600e+06  -1.936670e+06
   4.630589e+06   4.530842e+05
   2.423335e+06   3.191269e+06
  -1.684806e+06   5.055209e+06
  -5.147540e+06   4.827582e+06
  -6.144917e+06   1.607979e+06
  -4.251929e+06  -3.229461e+06
  -9.202475e+05  -6.083739e+06
   1.317597e+06  -4.896865e+06
   1.286005e+06  -1.837644e+06
   4.386428e+05  -5.198328e+05
   8.440664e+05  -1.352385e+06
   2.434333e+06  -1.584791e+06
   3.258753e+06   3.586648e+05
   2.078689e+06   2.661425e+06
  -3.233901e+05   2.687263e+06
  -2.179882e+06   2.370774e+05
  -2.145670e+06  -2.507235e+06
   1.382844e+04  -3.320015e+06
   3.014567e+06  -1.611262e+06
   4.473885e+06   1.422180e+06
   2.980015e+06   3.694597e+06
  -9.464902e+04   3.832397e+06
  -1.963273e+06   2.399566e+06
  -1.822706e+06   1.174235e+06
  -1.642710e+06   9.929756e+05
  -3.046524e+06   8.758808e+05
  -4.700215e+06  -4.392956e+05
  -3.955307e+06  -2.738112e+06
  -4.045328e+05  -4.523619e+06
   3.403196e+06  -4.469214e+06
   4.665289e+06  -2.383885e+06
   2.930933e+06   6.272842e+05
   1.162729e+05   2.594794e+06
  -1.378173e+06   2.087521e+06
  -6.081044e+05  -1.216449e+05
   1.234925e+06  -1.465515e+06
   2.019983e+06  -4.902708e+05
   9.292751e+05   1.254976e+06
  -6.141578e+05   1.285150e+06
  -6.748327e+05  -3.499262e+05
   8.142177e+05  -1.078164e+06
   2.023977e+06   6.606196e+05
   1.415412e+06   3.283334e+06
  -7.541771e+05   4.036824e+06
  -3.026822e+06   2.108941e+06
  -4.035186e+06  -9.164532e+05
  -3.152939e+06  -2.965173e+06
  -8.182012e+05  -3.088717e+06
   1.388345e+06  -1.740077e+06
   1.818358e+06  -2.797665e+05
   5.537149e+05   2.601130e+04
  -4.468562e+05  -8.113051e+05
   3.279546e+05  -1.431766e+06
   1.954060e+06  -7.192925e+05
   2.229713e+06   7.585484e+05
   5.606134e+05   1.447557e+06
  -1.233269e+06   7.383894e+05
  -1.122835e+06  -4.280557e+05
   8.141916e+05  -7.952231e+05
   2.571969e+06  -6.716711e+03
   2.298192e+06   1.373519e+06
  -1.354772e+03   2.380952e+06
  -2.495895e+06   2.127940e+06
  -3.109886e+06   5.087283e+05
  -1.406236e+06  -1.284173e+06
   9.103653e+05  -1.615866e+06
   1.611932e+06  -2.534052e+05
   2.078424e+05   1.138112e+06
  -1.631052e+06   8.778523e+05
  -1.965381e+06  -7.171619e+05
  -5.781314e+05  -1.798257e+06
   1.056717e+06  -1.252641e+06
   1.437063e+06   1.355773e+05
   4.144099e+05   7.994358e+05
  -8.166448e+05   1.180886e+05
  -8.487783e+05  -1.121286e+06
   5.985693e+05  -1.606037e+06
   2.231097e+06  -6.759592e+05
   2.313566e+06   1.087397e+06
   5.377330e+05   2.279822e+06
  -1.477381e+06   1.907534e+06
  -1.894439e+06   3.716504e+05
  -6.527830e+05  -9.128462e+05
   6.624349e+05  -9.620755e+05
   7.701523e+05  -1.241662e+05
  -4.100278e+04   5.172185e+05
  -6.133650e+05   3.939645e+05
  -3.329063e+05  -7.042033e+04
   3.855930e+05  -8.707330e+04
   6.542145e+05   5.831807e+05
  -7.404637e+04   1.303270e+06
  -1.458175e+06   1.100427e+06
  -2.349810e+06  -3.295318e+05
  -1.740516e+06  -2.088748e+06
   1.075384e+05  -2.752303e+06
   1.736454e+06  -1.762939e+06
   1.980760e+06  -3.226451e+04
   1.155697e+06   1.019926e+06
   4.627626e+05   9.063152e+05
   4.619537e+05   3.574264e+05
   5.895877e+05   2.885204e+05
   1.147280e+05   7.728852e+05
  -8.886584e+05   1.076559e+06
  -1.621446e+06   5.169742e+05
  -1.314408e+06  -7.608218e+05
   1.228000e+05  -1.748383e+06
   1.873457e+06  -1.378589e+06
   2.591464e+06   3.888423e+05
   1.449808e+06   2.264944e+06
  -9.063963e+05   2.691793e+06
  -2.714642e+06   1.359219e+06
  -2.710486e+06  -4.973057e+05
  -1.293314e+06  -1.423937e+06
   8.155643e+04  -1.186141e+06
   4.794561e+05  -7.221235e+05
   2.080015e+05  -8.596072e+05
   1.370794e+05  -1.386566e+06
   6.654267e+05  -1.405933e+06
   1.388549e+06  -3.974497e+05
   1.540083e+06   1.154223e+06
   7.175784e+05   2.107196e+06
  -6.347116e+05   1.652009e+06
  -1.452677e+06   9.042898e+04
  -1.005058e+06  -1.346161e+06
   2.861189e+05  -1.571245e+06
   1.181686e+06  -5.981493e+05
   9.184990e+05   6.000704e+05
   6.508184e+03   1.122648e+06
  -4.346576e+05   9.074759e+05
  -1.557591e+04   5.145458e+05
   4.865291e+05   3.839376e+05
   7.505494e+04   4.408842e+05
  -1.234232e+06   3.091106e+05
  -2.273285e+06  -2.429685e+05
  -1.867432e+06  -1.033845e+06
  -1.030872e+05  -1.546647e+06
   1.638509e+06  -1.331111e+06
   2.003272e+06  -4.632680e+05
   9.774322e+05   4.052625e+05
  -2.290872e+05   6.012463e+05
  -5.403453e+05   1.030469e+05
  -1.818018e+04  -4.164333e+05
   5.187183e+05  -3.015366e+05
   5.485935e+05   3.622972e+05
   2.543889e+05   8.312042e+05
   6.637963e+04   5.489102e+05
   1.501779e+05  -1.654950e+05
   3.449671e+05  -4.147983e+05
   3.352350e+05   2.359053e+05
  -1.371998e+05   1.147591e+06
  -9.518199e+05   1.234410e+06
  -1.445401e+06   2.112518e+05
  -9.249157e+05  -9.978953e+05
   4.151867e+05  -1.237792e+06
   1.359215e+06  -3.721101e+05
   8.495966e+05   6.299543e+05
  -7.347271e+05   7.802709e+05
  -1.820232e+06   2.348975e+04
  -1.272390e+06  -8.847150e+05
   4.131630e+05  -1.189829e+06
   1.667706e+06  -7.245106e+05
   1.457202e+06   8.583672e+04
   2.185926e+05   5.839193e+05
  -7.046965e+05   3.717997e+05
  -4.242132e+05  -2.923033e+05
   6.688098e+05  -5.933918e+05
   1.341517e+06   7.813834e+04
   7.656404e+05   1.332848e+06
  -6.492226e+05   1.941867e+06
  -1.671058e+06   1.042296e+06
  -1.463317e+06  -8.151778e+05
  -3.198469e+05  -2.035956e+06
   7.649803e+05  -1.542889e+06
   1.064942e+06   1.070994e+05
   5.961395e+05   1.316296e+06
  -1.376416e+05   1.133796e+06
  -6.135125e+05   1.465982e+05
  -5.900118e+05  -4.058724e+05
  -2.382303e+05  -1.541108e+05
  -3.144075e+04   1.216289e+05
  -2.678279e+05  -3.000624e+05
  -6.064935e+05  -1.059776e+06
  -3.286911e+05  -1.215239e+06
   7.293833e+05  -4.876267e+05
   1.708902e+06   4.471746e+05
   1.547218e+06   8.720038e+05
   2.525884e+05   7.718244e+05
  -9.875790e+05   5.248414e+05
  -1.120245e+06   2.790705e+05
  -3.742121e+05  -2.184489e+04
   1.694595e+05  -2.624859e+05
  -2.181255e+04  -2.505500e+05
  -3.603229e+05  -1.114044e+05
  -4.583190e+04  -1.547851e+05
   7.945813e+05  -2.934661e+05
   1.184984e+06  -2.642224e+04
   4.548504e+05   7.671419e+05
  -9.442793e+05   1.359853e+06
  -1.863012e+06   9.065069e+05
  -1.569943e+06  -4.530558e+05
  -3.686481e+05  -1.593024e+06
   7.887659e+05  -1.583335e+06
   1.167695e+06  -6.339052e+05
   7.674490e+05   2.539050e+05
   1.506179e+05   4.025713e+05
  -1.210023e+05   5.930536e+04
   7.080722e+04  -5.151070e+04
   3.789219e+05   3.839867e+05
   3.409807e+05   9.007810e+05
  -1.786792e+05   7.724444e+05
  -7.937568e+05  -1.293198e+05
  -8.685691e+05  -1.074529e+06
  -1.378702e+05  -1.168886e+06
   8.745500e+05  -2.857990e+05
   1.206385e+06   8.029159e+05
   4.256306e+05   1.221139e+06
  -7.860534e+05   7.777312e+05
  -1.255556e+06  -4.140557e+04
  -6.069748e+05  -6.438802e+05
   2.943659e+05  -7.474517e+05
   3.797860e+05  -4.223296e+05
  -3.200553e+05  -4.188023e+03
  -7.457437e+05   7.487355e+04
  -1.687596e+05  -3.373279e+05
   9.001513e+05  -8.188475e+05
   1.364671e+06  -7.001794e+05
   8.330827e+05   1.401930e+05
  -6.959765e+04   9.780633e+05
  -5.533481e+05   9.798504e+05
  -4.443425e+05   1.734208e+05
  -7.055205e+04  -5.592882e+05
   2.589819e+05  -4.890715e+05
   4.157354e+05   1.790938e+05
   3.142347e+05   6.440374e+05
  -5.147353e+04   4.609614e+05
  -4.475941e+05  -4.390284e+04
  -5.392751e+05  -2.739043e+05
  -2.759813e+05  -7.726527e+04
   2.622149e+04   1.474369e+05
   8.531153e+04  -5.478951e+03
   6.581144e+03  -4.293803e+05
   9.538195e+04  -6.057250e+05
   3.815807e+05  -2.127548e+05
   5.070174e+05   4.512655e+05
   1.589113e+05   7.431158e+05
  -4.654416e+05   3.668508e+05
  -7.529195e+05  -3.064979e+05
  -3.055975e+05  -6.530904e+05
   5.485200e+05  -4.354312e+05
   9.908545e+05   5.630846e+04
   5.550356e+05   4.059682e+05
  -3.170719e+05   4.473609e+05
  -7.111771e+05   2.634048e+05
  -2.608528e+05   2.426567e+04
   4.274194e+05  -7.896984e+04
   4.862015e+05   8.124756e+04
  -1.978302e+05   3.652577e+05
  -8.735537e+05   3.560593e+05
