
 $NMID
 id='ANONYMOUS ', fmtdat='(2E16.6)'
 volume=1.0
 tramp=1.0
 $END
  -5.285940e+07   2.501181e+04
  -3.185526e+07  -3.232457e+07
   6.695806e+06  -3.558016e+07
   2.563425e+07  -1.409251e+07
   1.551257e+07   6.129616e+06
  -2.902146e+06   8.734022e+06
  -9.215122e+06  -8.553457e+05
  -2.851372e+06  -9.063211e+06
   5.584402e+06  -8.986592e+06
   9.031395e+06  -2.101274e+06
   6.673157e+06   5.835974e+06
   8.269944e+05   8.206139e+06
  -3.813175e+06   2.584738e+06
  -2.607199e+06  -5.269920e+06
   3.444150e+06  -6.356313e+06
   7.426030e+06   1.125277e+06
   4.299484e+06   9.577344e+06
  -3.456187e+06   1.115290e+07
  -9.494195e+06   5.593584e+06
  -1.016830e+07  -1.963585e+06
  -6.146407e+06  -7.064043e+06
  -5.638455e+05  -8.035571e+06
   2.652493e+06  -5.537217e+06
   1.466885e+06  -2.515562e+06
  -1.291190e+06  -2.217842e+06
  -2.457880e+05  -4.174006e+06
   5.308742e+06  -4.260403e+06
   9.345941e+06  -4.423219e+05
   6.718311e+06   3.982774e+06
   1.115798e+05   4.850235e+06
  -3.713599e+06   2.407922e+06
  -2.412251e+06  -1.527170e+05
   7.348072e+05  -1.104934e+06
   2.426043e+06  -5.172527e+05
   2.213874e+06   1.531651e+06
   5.970065e+05   3.914212e+06
  -1.780642e+06   3.637610e+06
  -2.994967e+06  -2.403820e+05
  -1.487921e+06  -3.470093e+06
   7.864168e+05  -1.662691e+06
   2.988709e+05   2.522328e+06
  -2.352219e+06   2.292329e+06
  -2.363527e+06  -2.963246e+06
   2.147771e+06  -5.755195e+06
   6.387930e+06  -9.774092e+05
   4.784874e+06   6.447741e+06
  -1.724774e+06   7.975872e+06
  -6.982493e+06   2.300709e+06
  -6.690411e+06  -4.154192e+06
  -1.902498e+06  -5.735152e+06
   3.267641e+06  -2.691020e+06
   5.100835e+06   1.322493e+06
   2.438139e+06   3.261514e+06
  -2.217515e+06   2.119542e+06
  -4.292969e+06  -8.023882e+05
  -1.891436e+06  -2.529136e+06
   1.605982e+06  -1.309084e+06
   1.708720e+06   9.449439e+05
  -1.147346e+06   9.255883e+05
  -2.330529e+06  -1.497308e+06
   4.458284e+05  -3.113219e+06
   4.210275e+06  -1.812932e+06
   4.967558e+06   1.153249e+06
   2.238200e+06   3.684996e+06
  -1.714840e+06   5.035898e+06
  -4.846914e+06   4.675909e+06
  -5.963683e+06   1.666075e+06
  -4.364270e+06  -3.059686e+06
  -9.112834e+05  -5.935484e+06
   1.689300e+06  -4.611961e+06
   1.598289e+06  -1.278962e+06
   1.887334e+05   9.714122e+04
   1.190589e+05  -1.035722e+06
   1.702178e+06  -1.715893e+06
   2.815110e+06  -1.393243e+05
   1.991891e+06   1.995731e+06
  -2.223380e+04   2.183507e+06
  -1.617228e+06   2.228000e+05
  -1.723017e+06  -2.073989e+06
  -1.332325e+04  -2.909991e+06
   2.718955e+06  -1.602026e+06
   4.329026e+06   1.186056e+06
   3.072277e+06   3.621328e+06
  -4.966906e+04   4.013849e+06
  -2.146099e+06   2.563564e+06
  -2.080660e+06   1.099050e+06
  -1.730311e+06   7.140921e+05
  -2.856929e+06   5.409037e+05
  -4.266982e+06  -6.671356e+05
  -3.461774e+06  -2.660972e+06
  -1.870249e+05  -4.064471e+06
   3.127181e+06  -3.889667e+06
   4.126369e+06  -2.118518e+06
   2.631086e+06   4.359480e+05
   2.506398e+05   2.235976e+06
  -1.111674e+06   1.911710e+06
  -5.577098e+05  -4.898204e+04
   1.078098e+06  -1.303962e+06
   1.870664e+06  -4.066998e+05
   8.989105e+05   1.179583e+06
  -5.158894e+05   1.115016e+06
  -4.583643e+05  -3.666627e+05
   9.846452e+05  -7.373498e+05
   1.818585e+06   1.139782e+06
   7.535021e+05   3.333366e+06
  -1.389446e+06   3.398264e+06
  -3.006778e+06   1.245119e+06
  -3.321594e+06  -1.297114e+06
  -2.360603e+06  -2.694043e+06
  -5.132265e+05  -2.606805e+06
   1.223309e+06  -1.473540e+06
   1.573259e+06  -2.370413e+05
   4.891708e+05   3.997313e+04
  -3.651512e+05  -7.407024e+05
   3.877719e+05  -1.320966e+06
   1.865423e+06  -5.881570e+05
   2.012209e+06   8.421612e+05
   4.030322e+05   1.384545e+06
  -1.150506e+06   5.850639e+05
  -9.029460e+05  -4.351287e+05
   8.168139e+05  -5.478879e+05
   2.177854e+06   2.543615e+05
   1.784016e+06   1.312164e+06
  -1.961486e+05   1.977238e+06
  -2.268861e+06   1.689487e+06
  -2.752110e+06   3.106124e+05
  -1.217572e+06  -1.234857e+06
   8.943176e+05  -1.485568e+06
   1.531954e+06  -1.964432e+05
   2.000406e+05   1.065762e+06
  -1.496281e+06   7.450003e+05
  -1.714435e+06  -7.494861e+05
  -3.663949e+05  -1.631152e+06
   1.057811e+06  -9.918752e+05
   1.250615e+06   2.784118e+05
   2.627341e+05   7.645133e+05
  -7.826688e+05   6.365280e+04
  -7.408810e+05  -1.037537e+06
   5.596422e+05  -1.421862e+06
   1.992438e+06  -5.592515e+05
   2.034234e+06   1.023380e+06
   4.041748e+05   2.055870e+06
  -1.408229e+06   1.646810e+06
  -1.709482e+06   2.316453e+05
  -5.124522e+05  -8.538374e+05
   6.423026e+05  -8.084202e+05
   6.371645e+05  -8.527497e+04
  -1.016540e+05   3.709166e+05
  -4.908176e+05   2.317053e+05
  -1.459243e+05  -5.773042e+04
   4.266331e+05   5.738071e+04
   5.216573e+05   6.436615e+05
  -1.821945e+05   1.174260e+06
  -1.357956e+06   9.067794e+05
  -2.072687e+06  -3.853352e+05
  -1.477838e+06  -1.914126e+06
   1.861064e+05  -2.411915e+06
   1.586595e+06  -1.432730e+06
   1.686872e+06   9.448909e+04
   8.804933e+05   8.834523e+05
   3.367402e+05   6.638012e+05
   4.712143e+05   2.307552e+05
   6.108033e+05   3.046376e+05
   9.347581e+04   7.498216e+05
  -8.543467e+05   9.055437e+05
  -1.433991e+06   3.481389e+05
  -1.062034e+06  -7.027233e+05
   2.197025e+05  -1.461124e+06
   1.695796e+06  -1.094727e+06
   2.243419e+06   4.494777e+05
   1.157118e+06   2.069108e+06
  -9.664205e+05   2.358273e+06
  -2.504593e+06   1.058566e+06
  -2.344531e+06  -6.151102e+05
  -9.804175e+05  -1.312191e+06
   1.796902e+05  -9.513590e+05
   3.842572e+05  -5.278209e+05
   8.597295e+04  -7.561056e+05
   1.001450e+05  -1.294200e+06
   6.519909e+05  -1.279991e+06
   1.278379e+06  -3.274479e+05
   1.341323e+06   1.059998e+06
   5.758295e+05   1.878288e+06
  -6.022360e+05   1.437482e+06
  -1.278450e+06   1.581282e+04
  -8.234799e+05  -1.260336e+06
   3.645016e+05  -1.388108e+06
   1.137926e+06  -4.215327e+05
   8.067331e+05   6.704337e+05
  -1.040346e+05   1.058371e+06
  -5.114034e+05   7.796522e+05
  -7.253947e+04   4.168807e+05
   4.341318e+05   3.318160e+05
   6.361377e+04   3.818661e+05
  -1.134497e+06   2.222672e+05
  -2.048404e+06  -3.053885e+05
  -1.618536e+06  -1.007035e+06
   1.606392e+04  -1.418578e+06
   1.559581e+06  -1.147293e+06
   1.812357e+06  -3.016263e+05
   8.325069e+05   4.713254e+05
  -2.513783e+05   5.630478e+05
  -5.039748e+05   4.194882e+04
  -3.046159e+04  -4.147905e+05
   4.402692e+05  -2.627989e+05
   4.825428e+05   3.344486e+05
   2.576930e+05   7.205403e+05
   9.757989e+04   4.790013e+05
   1.332524e+05  -9.962712e+04
   2.742930e+05  -3.013567e+05
   2.773853e+05   2.258662e+05
  -1.280859e+05   9.859423e+05
  -8.802362e+05   1.071564e+06
  -1.349926e+06   1.863344e+05
  -8.559909e+05  -9.021513e+05
   4.004939e+05  -1.135793e+06
   1.247610e+06  -3.476100e+05
   7.386220e+05   5.613099e+05
  -6.884473e+05   6.538637e+05
  -1.580297e+06  -7.187397e+04
  -1.013791e+06  -8.403599e+05
   4.637580e+05  -9.883160e+05
   1.480297e+06  -4.991201e+05
   1.228116e+06   1.695754e+05
   1.417744e+05   5.083691e+05
  -6.411729e+05   2.765311e+05
  -3.854005e+05  -2.885553e+05
   5.765784e+05  -5.306839e+05
   1.182482e+06   6.228732e+04
   6.896322e+05   1.168987e+06
  -5.601837e+05   1.710428e+06
  -1.465831e+06   9.096707e+05
  -1.265322e+06  -7.340050e+05
  -2.315277e+05  -1.782248e+06
   7.158522e+05  -1.299836e+06
   9.218746e+05   1.633252e+05
   4.449929e+05   1.179217e+06
  -2.061142e+05   9.639462e+05
  -5.587714e+05   8.978006e+04
  -4.677958e+05  -3.661013e+05
  -1.623363e+05  -1.308039e+05
  -4.771812e+04   9.359965e+04
  -2.873754e+05  -2.963180e+05
  -5.246160e+05  -9.577671e+05
  -2.025345e+05  -1.067990e+06
   7.115429e+05  -4.002850e+05
   1.476741e+06   4.393153e+05
   1.283813e+06   8.107132e+05
   1.942839e+05   6.941671e+05
  -8.385044e+05   4.354076e+05
  -9.750075e+05   1.966828e+05
  -3.639507e+05  -5.268992e+04
   1.391991e+05  -2.291784e+05
   3.819002e+04  -1.981346e+05
  -2.592295e+05  -8.146531e+04
  -5.672561e+04  -1.326633e+05
   6.472461e+05  -2.549982e+05
   1.046985e+06  -1.101638e+04
   4.588641e+05   6.891250e+05
  -8.096554e+05   1.201108e+06
  -1.691022e+06   7.935598e+05
  -1.432045e+06  -4.006626e+05
  -3.076629e+05  -1.397508e+06
   7.421265e+05  -1.391282e+06
   1.039361e+06  -5.662673e+05
   6.593816e+05   2.115250e+05
   1.459812e+05   3.567358e+05
  -6.078216e+04   7.769631e+04
   8.219579e+04  -9.286550e+03
   3.008498e+05   3.631124e+05
   2.583950e+05   8.007157e+05
  -1.628705e+05   6.854603e+05
  -6.826385e+05  -9.650657e+04
  -7.690199e+05  -9.269689e+05
  -1.531403e+05  -1.032559e+06
   7.411845e+05  -2.797983e+05
   1.057317e+06   6.843522e+05
   3.819288e+05   1.082848e+06
  -6.965854e+05   7.039212e+05
  -1.126587e+06  -4.628611e+04
  -5.507383e+05  -6.107718e+05
   2.748604e+05  -6.964636e+05
   3.827330e+05  -3.765833e+05
  -2.353421e+05   4.473270e+03
  -6.447100e+05   5.715738e+04
  -1.575279e+05  -3.077580e+05
   8.085493e+05  -6.948348e+05
   1.254586e+06  -5.554762e+05
   7.764039e+05   1.732187e+05
  -7.609372e+04   8.760505e+05
  -5.447511e+05   8.708341e+05
  -4.370765e+05   1.787587e+05
  -7.360446e+04  -4.730012e+05
   2.273559e+05  -4.487331e+05
   3.569171e+05   1.256284e+05
   2.698915e+05   5.703811e+05
  -4.109843e+04   4.405154e+05
  -3.933177e+05  -2.941823e+04
  -4.846506e+05  -2.787534e+05
  -2.430648e+05  -9.864491e+04
   4.260947e+04   1.606743e+05
   7.979709e+04   6.263656e+04
  -4.072963e+04  -3.477607e+05
   1.262472e+04  -5.704145e+05
   3.092486e+05  -2.524328e+05
   4.883187e+05   3.544726e+05
   1.976821e+05   6.453664e+05
  -3.939966e+05   3.328175e+05
  -6.819115e+05  -2.544756e+05
  -2.766428e+05  -5.620039e+05
   5.021995e+05  -3.795595e+05
   8.933302e+05   4.770796e+04
   4.927373e+05   3.653150e+05
  -2.850189e+05   4.183211e+05
  -6.388081e+05   2.570949e+05
  -2.615474e+05   2.517931e+04
   3.301165e+05  -9.198199e+04
   4.054295e+05   3.539086e+04
  -1.453322e+05   2.878365e+05
  -7.137103e+05   2.952672e+05
