
 $NMID
 id='ANONYMOUS ', fmtdat='(2E16.6)'
 volume=1.0
 tramp=1.0
 $END
  -5.390290e+07   2.294456e+06
  -3.419801e+07  -3.171512e+07
   5.188380e+06  -3.684283e+07
   2.586691e+07  -1.562025e+07
   1.644883e+07   5.707560e+06
  -2.598382e+06   9.206033e+06
  -9.674316e+06  -5.188397e+05
  -3.340540e+06  -9.337526e+06
   5.532746e+06  -9.554455e+06
   9.309685e+06  -2.509879e+06
   7.021028e+06   5.749244e+06
   1.075449e+06   8.355630e+06
  -3.769613e+06   2.744437e+06
  -2.722282e+06  -5.339146e+06
   3.430091e+06  -6.660700e+06
   7.718973e+06   8.843357e+05
   4.768337e+06   9.687049e+06
  -3.132439e+06   1.157885e+07
  -9.478648e+06   6.088880e+06
  -1.041074e+07  -1.577805e+06
  -6.549515e+06  -6.868478e+06
  -1.007812e+06  -8.106464e+06
   2.356554e+06  -5.854818e+06
   1.429289e+06  -2.863050e+06
  -1.196271e+06  -2.379421e+06
  -2.139842e+05  -4.195183e+06
   5.288444e+06  -4.341913e+06
   9.425369e+06  -6.277337e+05
   6.906807e+06   3.831871e+06
   2.696048e+05   4.811652e+06
  -3.626283e+06   2.430921e+06
  -2.307048e+06  -9.051745e+04
   8.530174e+05  -9.755000e+05
   2.439879e+06  -3.833476e+05
   2.136868e+06   1.556372e+06
   6.019372e+05   3.874891e+06
  -1.657396e+06   3.705618e+06
  -2.951682e+06  -5.520180e+04
  -1.641601e+06  -3.361186e+06
   5.986075e+05  -1.706620e+06
   2.398863e+05   2.495905e+06
  -2.396296e+06   2.376654e+06
  -2.553627e+06  -2.977857e+06
   1.961865e+06  -6.063510e+06
   6.510371e+06  -1.376479e+06
   5.199156e+06   6.355960e+06
  -1.404266e+06   8.261135e+06
  -7.038389e+06   2.628174e+06
  -6.984250e+06  -4.084726e+06
  -2.096360e+06  -5.888755e+06
   3.331544e+06  -2.855834e+06
   5.318594e+06   1.279155e+06
   2.611116e+06   3.353874e+06
  -2.221580e+06   2.290207e+06
  -4.455397e+06  -6.766391e+05
  -2.049298e+06  -2.549678e+06
   1.598160e+06  -1.406054e+06
   1.786608e+06   9.527410e+05
  -1.193771e+06   1.059153e+06
  -2.558739e+06  -1.451854e+06
   2.458804e+05  -3.315407e+06
   4.254034e+06  -2.130508e+06
   5.208581e+06   9.741412e+05
   2.466770e+06   3.717252e+06
  -1.603967e+06   5.171590e+06
  -4.818890e+06   4.833929e+06
  -6.001328e+06   1.829498e+06
  -4.491468e+06  -2.963965e+06
  -1.068103e+06  -6.005712e+06
   1.638412e+06  -4.799953e+06
   1.690448e+06  -1.399442e+06
   3.057506e+05   1.409072e+05
   1.458498e+05  -9.224401e+05
   1.652840e+06  -1.658669e+06
   2.762617e+06  -1.435355e+05
   1.958950e+06   1.981998e+06
  -4.917310e+04   2.160510e+06
  -1.634616e+06   1.705841e+05
  -1.727939e+06  -2.130946e+06
  -2.264785e+04  -2.947978e+06
   2.716193e+06  -1.651364e+06
   4.388447e+06   1.106709e+06
   3.212108e+06   3.575243e+06
   9.669041e+04   4.073182e+06
  -2.079811e+06   2.700246e+06
  -2.098889e+06   1.222222e+06
  -1.789328e+06   7.885922e+05
  -2.947008e+06   5.935471e+05
  -4.392933e+06  -6.374950e+05
  -3.575633e+06  -2.694742e+06
  -2.204279e+05  -4.160589e+06
   3.170613e+06  -3.986641e+06
   4.177028e+06  -2.170257e+06
   2.648705e+06   4.208378e+05
   2.540914e+05   2.237594e+06
  -1.104504e+06   1.924707e+06
  -5.539013e+05  -4.177166e+04
   1.086066e+06  -1.325350e+06
   1.902131e+06  -4.389482e+05
   9.328370e+05   1.177103e+06
  -5.213857e+05   1.128133e+06
  -4.765582e+05  -3.982315e+05
   1.042014e+06  -8.045241e+05
   1.964266e+06   1.147497e+06
   8.642689e+05   3.485382e+06
  -1.434756e+06   3.602417e+06
  -3.175632e+06   1.340860e+06
  -3.476236e+06  -1.355172e+06
  -2.421092e+06  -2.811703e+06
  -5.062430e+05  -2.686122e+06
   1.248452e+06  -1.500563e+06
   1.597970e+06  -2.412662e+05
   5.004060e+05   3.827578e+04
  -3.783605e+05  -7.562474e+05
   3.770230e+05  -1.362531e+06
   1.901127e+06  -6.331839e+05
   2.081129e+06   8.379602e+05
   4.361613e+05   1.422151e+06
  -1.178622e+06   6.101210e+05
  -9.283242e+05  -4.562155e+05
   8.597816e+05  -5.776864e+05
   2.264416e+06   2.706832e+05
   1.834785e+06   1.375516e+06
  -2.178759e+05   2.046764e+06
  -2.335084e+06   1.736642e+06
  -2.820699e+06   3.277709e+05
  -1.262000e+06  -1.253418e+06
   8.895390e+05  -1.530671e+06
   1.560205e+06  -2.284632e+05
   2.202578e+05   1.077468e+06
  -1.521823e+06   7.737209e+05
  -1.766856e+06  -7.582445e+05
  -3.869436e+05  -1.683433e+06
   1.093107e+06  -1.035796e+06
   1.302275e+06   2.817823e+05
   2.809213e+05   7.955221e+05
  -8.025736e+05   7.927772e+04
  -7.652870e+05  -1.052569e+06
   5.622696e+05  -1.451864e+06
   2.028348e+06  -5.800221e+05
   2.082224e+06   1.032613e+06
   4.273858e+05   2.099944e+06
  -1.430614e+06   1.698809e+06
  -1.754098e+06   2.498764e+05
  -5.333145e+05  -8.771515e+05
   6.567702e+05  -8.343507e+05
   6.503238e+05  -8.057625e+04
  -1.201512e+05   3.889415e+05
  -5.205757e+05   2.252909e+05
  -1.457736e+05  -8.848793e+04
   4.621068e+05   4.017724e+04
   5.583998e+05   6.642802e+05
  -1.764047e+05   1.217380e+06
  -1.388992e+06   9.402590e+05
  -2.125297e+06  -3.837582e+05
  -1.522353e+06  -1.949720e+06
   1.828030e+05  -2.467998e+06
   1.629952e+06  -1.471479e+06
   1.737576e+06   1.019266e+05
   8.936335e+05   9.211516e+05
   3.170164e+05   6.859016e+05
   4.630677e+05   2.188732e+05
   6.325125e+05   2.892021e+05
   1.117054e+05   7.636712e+05
  -8.737184e+05   9.373180e+05
  -1.477218e+06   3.590961e+05
  -1.087219e+06  -7.297642e+05
   2.347293e+05  -1.506819e+06
   1.742799e+06  -1.126195e+06
   2.301050e+06   4.569104e+05
   1.196539e+06   2.121337e+06
  -9.763582e+05   2.431814e+06
  -2.567840e+06   1.106069e+06
  -2.418127e+06  -6.255831e+05
  -1.010817e+06  -1.360920e+06
   1.985841e+05  -9.875289e+05
   4.096583e+05  -5.287577e+05
   8.366676e+04  -7.483929e+05
   8.161914e+04  -1.310944e+06
   6.490887e+05  -1.315853e+06
   1.301732e+06  -3.484176e+05
   1.374578e+06   1.074469e+06
   5.958958e+05   1.916307e+06
  -6.097652e+05   1.470293e+06
  -1.310677e+06   2.015251e+04
  -8.553403e+05  -1.289602e+06
   3.649283e+05  -1.433472e+06
   1.175845e+06  -4.509021e+05
   8.502405e+05   6.794985e+05
  -8.864362e+04   1.097804e+06
  -5.214850e+05   8.191795e+05
  -7.981016e+04   4.349625e+05
   4.410970e+05   3.341739e+05
   6.480393e+04   3.881696e+05
  -1.161851e+06   2.391781e+05
  -2.100193e+06  -2.939350e+05
  -1.666447e+06  -1.022573e+06
   7.425499e+02  -1.462372e+06
   1.585369e+06  -1.194018e+06
   1.860765e+06  -3.219330e+05
   8.696950e+05   4.821058e+05
  -2.468776e+05   5.830425e+05
  -5.217299e+05   4.969860e+04
  -4.244503e+04  -4.189164e+05
   4.464473e+05  -2.655539e+05
   4.945849e+05   3.379364e+05
   2.627365e+05   7.239459e+05
   1.005733e+05   4.781720e+05
   1.442833e+05  -1.015024e+05
   2.900407e+05  -3.003916e+05
   2.860504e+05   2.324624e+05
  -1.314801e+05   1.003216e+06
  -8.935851e+05   1.099727e+06
  -1.371029e+06   2.095756e+05
  -8.778277e+05  -9.049154e+05
   3.936070e+05  -1.162411e+06
   1.262243e+06  -3.682122e+05
   7.535681e+05   5.690899e+05
  -7.036052e+05   6.747147e+05
  -1.623398e+06  -7.217801e+04
  -1.044012e+06  -8.713965e+05
   4.799886e+05  -1.024907e+06
   1.529187e+06  -5.135731e+05
   1.265998e+06   1.794284e+05
   1.442503e+05   5.257359e+05
  -6.603105e+05   2.868171e+05
  -3.986941e+05  -2.894835e+05
   5.817294e+05  -5.386628e+05
   1.199688e+06   5.840781e+04
   7.040814e+05   1.181264e+06
  -5.618933e+05   1.736858e+06
  -1.486519e+06   9.284097e+05
  -1.290878e+06  -7.451440e+05
  -2.395742e+05  -1.818878e+06
   7.340036e+05  -1.330629e+06
   9.504028e+05   1.661823e+05
   4.595960e+05   1.211928e+06
  -2.134202e+05   9.961495e+05
  -5.751388e+05   9.648891e+04
  -4.775741e+05  -3.803903e+05
  -1.637777e+05  -1.415631e+05
  -5.093836e+04   9.906734e+04
  -2.999027e+05  -2.899080e+05
  -5.412687e+05  -9.726547e+05
  -2.085123e+05  -1.100915e+06
   7.275196e+05  -4.227161e+05
   1.510120e+06   4.463515e+05
   1.314597e+06   8.343274e+05
   2.026102e+05   7.099955e+05
  -8.547994e+05   4.390455e+05
  -9.990104e+05   2.007544e+05
  -3.768710e+05  -4.562158e+04
   1.406609e+05  -2.312766e+05
   4.304700e+04  -2.125596e+05
  -2.595876e+05  -9.315135e+04
  -5.748048e+04  -1.312561e+05
   6.564416e+05  -2.510043e+05
   1.065637e+06  -1.580746e+04
   4.720278e+05   6.865891e+05
  -8.164954e+05   1.218627e+06
  -1.715633e+06   8.225279e+05
  -1.456795e+06  -3.914104e+05
  -3.167215e+05  -1.421344e+06
   7.493708e+05  -1.425239e+06
   1.051873e+06  -5.813820e+05
   6.678430e+05   2.154354e+05
   1.501535e+05   3.590972e+05
  -5.588111e+04   7.030595e+04
   9.083944e+04  -1.328605e+04
   3.115060e+05   3.743962e+05
   2.664926e+05   8.204925e+05
  -1.617342e+05   6.977974e+05
  -6.898999e+05  -9.841522e+04
  -7.807676e+05  -9.372352e+05
  -1.606117e+05  -1.041665e+06
   7.456366e+05  -2.816533e+05
   1.071883e+06   6.915109e+05
   3.937271e+05   1.096839e+06
  -7.009158e+05   7.187080e+05
  -1.146475e+06  -3.855080e+04
  -5.705242e+05  -6.154105e+05
   2.690472e+05  -7.118786e+05
   3.868297e+05  -3.934870e+05
  -2.368841e+05  -3.601330e+03
  -6.561529e+05   5.810030e+04
  -1.634311e+05  -3.102968e+05
   8.237368e+05  -7.116756e+05
   1.284579e+06  -5.788539e+05
   7.995099e+05   1.648981e+05
  -7.102485e+04   8.930520e+05
  -5.488359e+05   8.980177e+05
  -4.385423e+05   1.926490e+05
  -7.289655e+04  -4.775800e+05
   2.255445e+05  -4.566926e+05
   3.565182e+05   1.276238e+05
   2.769090e+05   5.795772e+05
  -3.308800e+04   4.470831e+05
  -3.976899e+05  -2.837185e+04
  -5.008331e+05  -2.796413e+05
  -2.533153e+05  -9.954709e+04
   5.022698e+04   1.594772e+05
   9.471330e+04   6.313287e+04
  -3.724987e+04  -3.434211e+05
   2.397572e+03  -5.655936e+05
   2.998346e+05  -2.530283e+05
   4.892862e+05   3.492496e+05
   2.021849e+05   6.430682e+05
  -3.966984e+05   3.365201e+05
  -6.906858e+05  -2.518290e+05
  -2.806386e+05  -5.680236e+05
   5.095128e+05  -3.911986e+05
   9.072645e+05   4.078976e+04
   5.034249e+05   3.683398e+05
  -2.830076e+05   4.273635e+05
  -6.428432e+05   2.664069e+05
  -2.651259e+05   3.300284e+04
   3.298562e+05  -8.578491e+04
   4.044092e+05   3.839873e+04
  -1.528085e+05   2.867398e+05
  -7.265918e+05   2.914563e+05
