
 $NMID
 id='ANONYMOUS ', fmtdat='(2E16.6)'
 volume=1.0
 tramp=1.0
 $END
  -6.102013e+07   3.974715e+05
  -3.693720e+07  -3.799909e+07
   8.081263e+06  -4.159820e+07
   3.010450e+07  -1.571980e+07
   1.790337e+07   7.975242e+06
  -3.741182e+06   1.018331e+07
  -1.070826e+07  -1.569013e+06
  -2.830379e+06  -1.071062e+07
   6.930925e+06  -9.950665e+06
   1.049428e+07  -1.990107e+06
   7.499429e+06   6.659858e+06
   8.658209e+05   9.171073e+06
  -4.231547e+06   2.984504e+06
  -2.724361e+06  -5.710391e+06
   4.152579e+06  -6.900634e+06
   8.511781e+06   1.534335e+06
   4.748354e+06   1.103265e+07
  -4.112579e+06   1.272457e+07
  -1.088486e+07   6.420881e+06
  -1.169015e+07  -2.088544e+06
  -7.311898e+06  -7.999863e+06
  -9.360187e+05  -9.444677e+06
   3.175242e+06  -6.757898e+06
   2.292767e+06  -2.983176e+06
  -9.141037e+05  -2.137741e+06
  -2.808393e+05  -4.237246e+06
   5.562014e+06  -4.638410e+06
   1.015388e+07  -6.247794e+05
   7.543671e+06   4.302510e+06
   4.463330e+05   5.363476e+06
  -3.762724e+06   2.806509e+06
  -2.567679e+06   2.112883e+05
   4.928516e+05  -7.637042e+05
   2.162254e+06  -4.615501e+05
   2.205083e+06   1.343881e+06
   8.221009e+05   4.001822e+06
  -1.820278e+06   4.158311e+06
  -3.526828e+06   7.682787e+04
  -2.008691e+06  -3.846288e+06
   7.417464e+05  -2.240170e+06
   3.946523e+05   2.426608e+06
  -2.613430e+06   2.376652e+06
  -2.614315e+06  -3.485341e+06
   2.713113e+06  -6.685860e+06
   7.662165e+06  -1.153366e+06
   5.633649e+06   7.510271e+06
  -2.064027e+06   9.291982e+06
  -8.014186e+06   2.649479e+06
  -7.399181e+06  -4.808705e+06
  -1.862957e+06  -6.470977e+06
   3.765088e+06  -2.816701e+06
   5.563350e+06   1.753476e+06
   2.490297e+06   3.802954e+06
  -2.666620e+06   2.351389e+06
  -4.881611e+06  -1.038571e+06
  -2.075498e+06  -2.970704e+06
   1.862788e+06  -1.477859e+06
   1.821615e+06   1.133303e+06
  -1.532418e+06   9.614820e+05
  -2.722049e+06  -2.029309e+06
   7.476199e+05  -3.874350e+06
   5.131916e+06  -2.098885e+06
   5.782349e+06   1.539028e+06
   2.489788e+06   4.344322e+06
  -1.899763e+06   5.620156e+06
  -5.257881e+06   5.137093e+06
  -6.550078e+06   1.897531e+06
  -4.915805e+06  -3.295017e+06
  -1.030004e+06  -6.545528e+06
   2.059911e+06  -5.065553e+06
   1.984097e+06  -1.216965e+06
   1.704427e+05   4.190437e+05
  -1.679275e+05  -9.238688e+05
   1.535387e+06  -1.895545e+06
   2.873920e+06  -3.482150e+05
   2.113952e+06   1.916223e+06
   6.857064e+04   2.166437e+06
  -1.543114e+06   1.858830e+05
  -1.687581e+06  -2.150985e+06
   2.830151e+03  -3.051688e+06
   2.886227e+06  -1.763378e+06
   4.739108e+06   1.205014e+06
   3.480932e+06   3.975254e+06
   1.018903e+04   4.554302e+06
  -2.443380e+06   2.968176e+06
  -2.441920e+06   1.233365e+06
  -1.998614e+06   6.879277e+05
  -3.134187e+06   4.425281e+05
  -4.588467e+06  -8.756381e+05
  -3.638746e+06  -2.969531e+06
  -7.782263e+04  -4.344308e+06
   3.405268e+06  -4.055051e+06
   4.371255e+06  -2.200573e+06
   2.775184e+06   4.170720e+05
   3.124824e+05   2.309913e+06
  -1.125233e+06   2.026146e+06
  -5.898395e+05  -2.260569e+04
   1.140243e+06  -1.366701e+06
   2.023032e+06  -4.090374e+05
   9.864594e+05   1.277614e+06
  -5.416733e+05   1.156134e+06
  -4.142941e+05  -4.381444e+05
   1.211224e+06  -6.896329e+05
   1.994313e+06   1.505308e+06
   5.600761e+05   3.812385e+06
  -1.896201e+06   3.576979e+06
  -3.436897e+06   1.005514e+06
  -3.427520e+06  -1.685771e+06
  -2.251580e+06  -2.957973e+06
  -3.904720e+05  -2.717346e+06
   1.310881e+06  -1.508217e+06
   1.645062e+06  -2.255109e+05
   5.177995e+05   5.548761e+04
  -3.652270e+05  -8.002951e+05
   4.649784e+05  -1.430169e+06
   2.049981e+06  -5.956093e+05
   2.157106e+06   9.902396e+05
   3.777262e+05   1.529218e+06
  -1.257734e+06   5.778743e+05
  -9.073522e+05  -5.083503e+05
   9.381355e+05  -5.006338e+05
   2.278178e+06   4.384400e+05
   1.751951e+06   1.484771e+06
  -3.445052e+05   2.042056e+06
  -2.466427e+06   1.667989e+06
  -2.924841e+06   2.294358e+05
  -1.272276e+06  -1.368474e+06
   9.956478e+05  -1.599398e+06
   1.676172e+06  -1.928575e+05
   2.173089e+05   1.153864e+06
  -1.616699e+06   7.620457e+05
  -1.803532e+06  -8.694483e+05
  -3.012056e+05  -1.763549e+06
   1.203665e+06  -9.917882e+05
   1.325897e+06   3.900845e+05
   2.233386e+05   8.512197e+05
  -8.620511e+05   4.536080e+04
  -7.711858e+05  -1.126690e+06
   6.202721e+05  -1.498334e+06
   2.121988e+06  -5.524137e+05
   2.137417e+06   1.132786e+06
   3.746791e+05   2.202097e+06
  -1.558895e+06   1.716036e+06
  -1.835574e+06   1.826937e+05
  -5.051117e+05  -9.372656e+05
   7.192665e+05  -8.314452e+05
   6.523223e+05  -6.576721e+04
  -1.566058e+05   3.527393e+05
  -5.080971e+05   1.711656e+05
  -7.464847e+04  -7.968253e+04
   5.124099e+05   1.239171e+05
   5.312471e+05   7.588488e+05
  -2.619866e+05   1.263848e+06
  -1.485938e+06   9.175783e+05
  -2.192081e+06  -4.764009e+05
  -1.517068e+06  -2.076332e+06
   2.695974e+05  -2.542817e+06
   1.730068e+06  -1.437144e+06
   1.760872e+06   1.880567e+05
   8.447792e+05   9.489901e+05
   2.937774e+05   6.412597e+05
   5.167242e+05   1.956527e+05
   6.944411e+05   3.419465e+05
   9.557643e+04   8.281643e+05
  -9.523826e+05   9.320239e+05
  -1.531089e+06   2.961861e+05
  -1.065409e+06  -7.810063e+05
   3.152814e+05  -1.509761e+06
   1.836512e+06  -1.078439e+06
   2.350797e+06   5.574397e+05
   1.143803e+06   2.244368e+06
  -1.131050e+06   2.487769e+06
  -2.724710e+06   1.031100e+06
  -2.462402e+06  -7.693086e+05
  -9.433754e+05  -1.441978e+06
   2.672398e+05  -9.647224e+05
   4.039511e+05  -4.902724e+05
   4.736259e+04  -7.821328e+05
   9.819425e+04  -1.397119e+06
   7.283515e+05  -1.371358e+06
   1.381038e+06  -3.271443e+05
   1.399053e+06   1.154124e+06
   5.606996e+05   2.002066e+06
  -6.733004e+05   1.503535e+06
  -1.353530e+06  -2.983359e+04
  -8.313130e+05  -1.382162e+06
   4.561455e+05  -1.474270e+06
   1.266558e+06  -3.894848e+05
   8.594588e+05   7.887297e+05
  -1.689354e+05   1.163694e+06
  -6.162033e+05   8.216413e+05
  -1.158869e+05   4.265804e+05
   4.560744e+05   3.499354e+05
   6.096566e+04   3.999320e+05
  -1.228244e+06   2.023524e+05
  -2.189679e+06  -3.845718e+05
  -1.692367e+06  -1.130643e+06
   8.029920e+04  -1.536310e+06
   1.717862e+06  -1.193650e+06
   1.949700e+06  -2.496856e+05
   8.712631e+05   5.680806e+05
  -2.921878e+05   6.141806e+05
  -5.520443e+05   1.701929e+04
  -4.159235e+04  -4.607365e+05
   4.580143e+05  -2.690928e+05
   5.065953e+05   3.651404e+05
   2.804447e+05   7.512235e+05
   1.179688e+05   4.981451e+05
   1.478180e+05  -7.955975e+04
   2.846170e+05  -2.770589e+05
   2.826217e+05   2.528935e+05
  -1.521451e+05   1.025085e+06
  -9.620366e+05   1.116283e+06
  -1.463733e+06   1.919580e+05
  -9.167535e+05  -9.657881e+05
   4.458567e+05  -1.220214e+06
   1.341357e+06  -3.701933e+05
   7.679788e+05   6.031436e+05
  -7.573933e+05   6.694064e+05
  -1.663101e+06  -1.429089e+05
  -1.010810e+06  -9.406691e+05
   5.581811e+05  -1.017453e+06
   1.587314e+06  -4.392545e+05
   1.274273e+06   2.472032e+05
   1.168045e+05   5.399767e+05
  -6.949518e+05   2.605198e+05
  -4.128197e+05  -3.225197e+05
   6.049529e+05  -5.555140e+05
   1.244100e+06   7.402311e+04
   7.217876e+05   1.233377e+06
  -6.009186e+05   1.794126e+06
  -1.550617e+06   9.381837e+05
  -1.314841e+06  -7.969274e+05
  -1.983160e+05  -1.879693e+06
   7.963334e+05  -1.335898e+06
   9.693013e+05   2.195009e+05
   4.171246e+05   1.266654e+06
  -2.756930e+05   1.005253e+06
  -6.038555e+05   7.040712e+04
  -4.626752e+05  -4.012380e+05
  -1.439948e+05  -1.426404e+05
  -6.330809e+04   9.348809e+04
  -3.305791e+05  -3.253408e+05
  -5.408161e+05  -1.027735e+06
  -1.566775e+05  -1.136135e+06
   7.931563e+05  -4.076174e+05
   1.541427e+06   5.047697e+05
   1.307702e+06   8.988043e+05
   1.845952e+05   7.440697e+05
  -8.743123e+05   4.321761e+05
  -1.028714e+06   1.700988e+05
  -4.049477e+05  -7.246382e+04
   1.437728e+05  -2.376716e+05
   7.506723e+04  -2.036294e+05
  -2.395197e+05  -8.695588e+04
  -6.638896e+04  -1.363409e+05
   6.570325e+05  -2.536106e+05
   1.105840e+06   5.004043e+03
   5.084966e+05   7.301424e+05
  -8.526563e+05   1.255756e+06
  -1.815635e+06   8.223680e+05
  -1.530139e+06  -4.310634e+05
  -3.003284e+05  -1.473997e+06
   8.208708e+05  -1.461816e+06
   1.105011e+06  -5.912887e+05
   6.819854e+05   2.251758e+05
   1.572860e+05   3.766143e+05
  -3.762639e+04   8.885080e+04
   1.015493e+05   7.540219e+03
   2.989329e+05   4.025785e+05
   2.428726e+05   8.547747e+05
  -1.806338e+05   7.234365e+05
  -7.069733e+05  -1.014269e+05
  -8.001528e+05  -9.730967e+05
  -1.679638e+05  -1.086501e+06
   7.645360e+05  -2.983741e+05
   1.101011e+06   7.199087e+05
   3.959520e+05   1.147137e+06
  -7.405487e+05   7.447605e+05
  -1.198026e+06  -6.269573e+04
  -5.876301e+05  -6.696897e+05
   2.999994e+05  -7.525577e+05
   4.315687e+05  -4.009950e+05
  -2.225115e+05   9.310762e+02
  -6.742826e+05   4.757581e+04
  -1.687916e+05  -3.302055e+05
   8.699402e+05  -7.117012e+05
   1.361921e+06  -5.467414e+05
   8.444246e+05   2.110247e+05
  -9.484967e+04   9.312763e+05
  -6.115600e+05   9.227990e+05
  -4.828910e+05   2.031659e+05
  -7.637605e+04  -4.871697e+05
   2.413462e+05  -4.796363e+05
   3.658119e+05   1.201710e+05
   2.752724e+05   6.058760e+05
  -4.121633e+04   4.810904e+05
  -4.122696e+05  -3.016838e+04
  -5.172880e+05  -3.168860e+05
  -2.587707e+05  -1.223743e+05
   5.728988e+04   1.833868e+05
   9.417872e+04   1.015995e+05
  -6.007593e+04  -3.449009e+05
  -2.303450e+04  -6.111331e+05
   3.060715e+05  -2.935891e+05
   5.273146e+05   3.504525e+05
   2.308814e+05   6.696950e+05
  -4.086991e+05   3.496645e+05
  -7.235103e+05  -2.644107e+05
  -2.879629e+05  -5.867759e+05
   5.431994e+05  -3.949389e+05
   9.508601e+05   5.568718e+04
   5.182133e+05   3.932342e+05
  -3.043396e+05   4.511256e+05
  -6.786919e+05   2.790737e+05
  -2.919297e+05   2.986219e+04
   3.214036e+05  -9.960690e+04
   4.101338e+05   2.511567e+04
  -1.449063e+05   2.802744e+05
  -7.275509e+05   2.872882e+05
