
 $NMID
 id='ANONYMOUS ', fmtdat='(2E16.6)'
 volume=1.0
 tramp=1.0
 $END
   4.075660e+07   1.118173e+06
   2.486309e+07   2.348261e+07
  -4.033590e+06   2.670667e+07
  -1.928018e+07   1.265104e+07
  -1.289956e+07  -2.673696e+06
   1.242434e+06  -6.915797e+06
   7.530628e+06  -7.807261e+05
   3.532858e+06   6.884756e+06
  -3.594811e+06   8.443080e+06
  -7.273662e+06   2.718227e+06
  -5.597788e+06  -4.944991e+06
  -5.503082e+05  -7.209990e+06
   3.391360e+06  -1.848570e+06
   2.357015e+06   5.267820e+06
  -2.681086e+06   6.145965e+06
  -6.135859e+06  -3.987815e+05
  -3.793035e+06  -7.729861e+06
   2.596385e+06  -9.138400e+06
   7.640756e+06  -4.319015e+06
   7.857206e+06   2.060362e+06
   4.080672e+06   5.704331e+06
  -1.328151e+05   5.586311e+06
  -1.479379e+06   3.522946e+06
   3.592225e+05   2.322191e+06
   1.982629e+06   3.287241e+06
  -3.637598e+05   4.647240e+06
  -5.769495e+06   3.434785e+06
  -8.693777e+06  -5.592470e+05
  -5.451969e+06  -4.030988e+06
   9.059761e+05  -4.049038e+06
   4.130265e+06  -1.315064e+06
   2.039526e+06   1.258065e+06
  -1.906219e+06   1.759065e+06
  -3.555552e+06   1.230362e+05
  -2.168151e+06  -2.559710e+06
   3.572409e+05  -4.181537e+06
   2.015464e+06  -2.706627e+06
   1.840270e+06   9.918167e+05
   2.959059e+05   2.821889e+06
  -7.204957e+05   3.616970e+05
   3.507258e+05  -3.086028e+06
   2.339356e+06  -2.325068e+06
   2.164291e+06   2.266318e+06
  -1.089590e+06   4.579898e+06
  -4.251055e+06   9.383982e+05
  -3.486134e+06  -4.766501e+06
   1.123071e+06  -6.050503e+06
   5.554551e+06  -1.725911e+06
   5.972727e+06   3.530015e+06
   2.115858e+06   5.139130e+06
  -2.838655e+06   2.773172e+06
  -4.956813e+06  -8.047888e+05
  -2.705707e+06  -2.762088e+06
   1.558691e+06  -1.977327e+06
   3.620636e+06   4.343782e+05
   1.777106e+06   1.953247e+06
  -1.258909e+06   1.104549e+06
  -1.732222e+06  -7.783827e+05
   4.883096e+05  -1.169668e+06
   2.010375e+06   4.145933e+05
   4.689390e+05   1.956423e+06
  -2.618129e+06   1.627875e+06
  -3.937116e+06  -3.756963e+05
  -2.033426e+06  -2.747486e+06
   1.736587e+06  -4.299550e+06
   4.855677e+06  -3.924575e+06
   5.479136e+06  -1.013738e+06
   3.453165e+06   3.089456e+06
   4.477922e+05   5.383716e+06
  -1.313425e+06   4.309747e+06
  -1.161823e+06   1.746150e+06
  -5.546159e+05   6.178288e+05
  -1.089689e+06   1.169787e+06
  -2.443188e+06   1.127469e+06
  -2.917470e+06  -7.059656e+05
  -1.627175e+06  -2.666047e+06
   5.801616e+05  -2.464924e+06
   2.104236e+06  -4.056385e+04
   1.833270e+06   2.484785e+06
  -2.426176e+05   3.022539e+06
  -2.810499e+06   1.207548e+06
  -3.832365e+06  -1.579739e+06
  -2.339739e+06  -3.390192e+06
   2.967158e+05  -3.252136e+06
   1.759289e+06  -1.929916e+06
   1.563402e+06  -9.649491e+05
   1.474503e+06  -8.746581e+05
   2.787477e+06  -6.902996e+05
   4.224340e+06   6.023021e+05
   3.444224e+06   2.667493e+06
   1.340755e+05   4.127310e+06
  -3.349953e+06   3.865505e+06
  -4.393543e+06   1.852659e+06
  -2.597037e+06  -8.014616e+05
   1.224363e+05  -2.372046e+06
   1.422240e+06  -1.773462e+06
   5.337262e+05   1.687740e+05
  -1.221870e+06   1.246485e+06
  -1.840759e+06   3.303794e+05
  -7.416719e+05  -1.170166e+06
   6.540707e+05  -1.134094e+06
   6.449793e+05   3.530321e+05
  -7.353664e+05   1.025835e+06
  -1.833309e+06  -5.340399e+05
  -1.281969e+06  -2.968298e+06
   7.130712e+05  -3.741791e+06
   2.827709e+06  -1.962545e+06
   3.734246e+06   9.512686e+05
   2.823892e+06   2.915429e+06
   6.013299e+05   2.921896e+06
  -1.383857e+06   1.510556e+06
  -1.683779e+06   1.339622e+05
  -5.031780e+05  -5.472425e+04
   3.654373e+05   7.604835e+05
  -3.521532e+05   1.268373e+06
  -1.777971e+06   5.543991e+05
  -1.977326e+06  -7.713848e+05
  -4.574627e+05  -1.323731e+06
   1.152763e+06  -6.202588e+05
   1.028901e+06   4.491085e+05
  -7.699356e+05   7.309189e+05
  -2.391888e+06  -8.046295e+04
  -2.092029e+06  -1.386302e+06
   1.010442e+05  -2.224328e+06
   2.402577e+06  -1.840778e+06
   2.870206e+06  -3.056398e+05
   1.211029e+06   1.227160e+06
  -8.970134e+05   1.396336e+06
  -1.446542e+06   1.434535e+05
  -1.141871e+05  -1.025325e+06
   1.522839e+06  -7.061575e+05
   1.756782e+06   7.422422e+05
   4.617400e+05   1.670410e+06
  -1.009202e+06   1.120866e+06
  -1.318364e+06  -1.629840e+05
  -3.669295e+05  -7.423519e+05
   7.302869e+05  -7.424377e+04
   7.039595e+05   1.057286e+06
  -6.379544e+05   1.419817e+06
  -2.066233e+06   4.814550e+05
  -2.038326e+06  -1.119430e+06
  -3.664228e+05  -2.098300e+06
   1.435740e+06  -1.658250e+06
   1.742671e+06  -2.496724e+05
   5.607951e+05   8.621361e+05
  -6.485001e+05   8.511102e+05
  -7.259684e+05   6.778164e+04
   5.457738e+04  -5.027324e+05
   6.103138e+05  -3.541297e+05
   3.493118e+05   9.968321e+04
  -3.368245e+05   1.075745e+05
  -5.857216e+05  -5.328429e+05
   1.109958e+05  -1.180409e+06
   1.378450e+06  -9.314034e+05
   2.121596e+06   4.222964e+05
   1.469403e+06   1.993674e+06
  -2.500352e+05   2.508304e+06
  -1.687272e+06   1.535433e+06
  -1.835209e+06  -6.441523e+04
  -1.030595e+06  -1.022862e+06
  -3.734642e+05  -9.099097e+05
  -3.655023e+05  -3.804347e+05
  -4.880576e+05  -2.757173e+05
  -6.055764e+04  -6.862033e+05
   8.587174e+05  -9.401151e+05
   1.515664e+06  -3.993132e+05
   1.180072e+06   7.767707e+05
  -1.962874e+05   1.618770e+06
  -1.789477e+06   1.174195e+06
  -2.353309e+06  -4.919908e+05
  -1.216533e+06  -2.140017e+06
   9.445212e+05  -2.406402e+06
   2.530764e+06  -1.114567e+06
   2.462799e+06   5.734696e+05
   1.143210e+06   1.374517e+06
  -1.228882e+05   1.116122e+06
  -5.073337e+05   6.599618e+05
  -2.814304e+05   7.596820e+05
  -2.182641e+05   1.224082e+06
  -6.718542e+05   1.225179e+06
  -1.271487e+06   2.817625e+05
  -1.332783e+06  -1.138202e+06
  -5.341329e+05  -1.961091e+06
   6.733933e+05  -1.470205e+06
   1.333033e+06  -8.366012e+03
   8.528713e+05   1.269708e+06
  -3.243069e+05   1.418113e+06
  -1.088785e+06   5.114065e+05
  -8.082393e+05  -5.562010e+05
   2.357800e+04  -1.005815e+06
   4.111910e+05  -8.144114e+05
   3.046976e+04  -4.852658e+05
  -4.138813e+05  -3.837669e+05
  -3.869192e+04  -4.084538e+05
   1.130287e+06  -2.202583e+05
   2.041933e+06   3.363771e+05
   1.646752e+06   1.032460e+06
   3.401647e+04   1.402097e+06
  -1.539036e+06   1.120082e+06
  -1.844848e+06   3.300814e+05
  -8.821113e+05  -3.949498e+05
   2.278276e+05  -5.235795e+05
   4.923578e+05  -7.746143e+04
  -1.288426e+04   3.614327e+05
  -4.986895e+05   2.388716e+05
  -4.762180e+05  -3.611092e+05
  -1.622087e+05  -7.744890e+05
  -8.999015e+03  -5.020148e+05
  -1.513836e+05   1.569575e+05
  -3.573883e+05   3.744333e+05
  -2.963374e+05  -2.318768e+05
   2.016019e+05  -1.043466e+06
   9.341503e+05  -1.067516e+06
   1.300151e+06  -1.016241e+05
   7.610029e+05   9.573442e+05
  -4.439725e+05   1.084119e+06
  -1.241023e+06   2.442533e+05
  -7.344378e+05  -6.285063e+05
   7.085788e+05  -6.759951e+05
   1.673377e+06   6.930862e+04
   1.141721e+06   8.771194e+05
  -4.247029e+05   1.084537e+06
  -1.573131e+06   5.983319e+05
  -1.347552e+06  -1.464545e+05
  -1.775707e+05  -5.522007e+05
   6.626549e+05  -3.113041e+05
   3.646869e+05   2.817275e+05
  -6.516317e+05   4.907959e+05
  -1.213788e+06  -1.631268e+05
  -6.010182e+05  -1.263893e+06
   7.248993e+05  -1.721549e+06
   1.592723e+06  -8.383835e+05
   1.286169e+06   8.358841e+05
   1.715255e+05   1.881517e+06
  -7.890709e+05   1.376965e+06
  -9.730418e+05  -1.451527e+05
  -4.846630e+05  -1.236621e+06
   1.731435e+05  -1.041641e+06
   5.642318e+05  -1.080782e+05
   5.289167e+05   4.098459e+05
   2.232501e+05   1.618480e+05
   3.064066e+04  -1.152481e+05
   2.074543e+05   2.747083e+05
   4.861740e+05   9.964420e+05
   2.490329e+05   1.135646e+06
  -6.733701e+05   4.111823e+05
  -1.538518e+06  -5.072277e+05
  -1.381050e+06  -8.881239e+05
  -1.893186e+05  -7.160513e+05
   9.471831e+05  -4.180970e+05
   1.045993e+06  -1.954964e+05
   3.291729e+05   2.990058e+04
  -1.756099e+05   2.273482e+05
   2.190024e+04   2.425377e+05
   3.398395e+05   1.364298e+05
   2.499394e+04   1.435766e+05
  -7.616905e+05   2.102784e+05
  -1.079232e+06  -5.064753e+04
  -3.421249e+05  -7.182792e+05
   9.577596e+05  -1.170319e+06
   1.737341e+06  -7.055094e+05
   1.379572e+06   5.126506e+05
   2.340357e+05   1.477031e+06
  -8.065950e+05   1.392161e+06
  -1.099709e+06   4.960941e+05
  -6.857823e+05  -2.881412e+05
  -1.053045e+05  -3.741336e+05
   1.284699e+05  -3.258380e+04
  -6.369160e+04   5.691323e+04
  -3.329302e+05  -3.682995e+05
  -2.656812e+05  -8.428837e+05
   2.117079e+05  -6.891480e+05
   7.176907e+05   1.784508e+05
   7.148322e+05   1.042179e+06
   3.574501e+04   1.068562e+06
  -8.228096e+05   1.885874e+05
  -1.043309e+06  -8.199842e+05
  -3.031786e+05  -1.135916e+06
   7.639381e+05  -6.479893e+05
   1.132312e+06   1.165827e+05
   5.065894e+05   6.089119e+05
  -3.088556e+05   6.473245e+05
  -3.555939e+05   3.610527e+05
   3.071634e+05   3.235184e+04
   6.883833e+05  -2.014270e+04
   1.284529e+05   3.134845e+05
  -8.701411e+05   6.952961e+05
  -1.274155e+06   5.720687e+05
  -7.369706e+05  -1.616410e+05
   1.222876e+05  -8.808391e+05
   5.474379e+05  -8.560594e+05
   3.968567e+05  -1.222535e+05
   2.073048e+04   5.195906e+05
  -2.671334e+05   4.207483e+05
  -3.667072e+05  -2.033385e+05
  -2.453179e+05  -6.062720e+05
   7.636663e+04  -4.028149e+05
   4.036932e+05   7.340730e+04
   4.717749e+05   2.707857e+05
   2.484362e+05   7.765912e+04
  -9.474689e+03  -1.229103e+05
  -8.201505e+04   2.428069e+04
  -5.436552e+04   3.972150e+05
  -1.503166e+05   5.249586e+05
  -3.656043e+05   1.418620e+05
  -4.119440e+05  -4.566046e+05
  -7.277852e+04  -6.849438e+05
   4.529352e+05  -2.974703e+05
   6.559836e+05   3.333589e+05
   2.302038e+05   6.186378e+05
  -5.214507e+05   3.622294e+05
  -8.896661e+05  -1.166430e+05
  -4.767992e+05  -4.033003e+05
   3.142120e+05  -3.772400e+05
   6.578483e+05  -1.837695e+05
   2.270029e+05  -5.849627e+03
  -4.090349e+05   3.108364e+04
  -4.420448e+05  -1.216364e+05
   2.178336e+05  -3.288618e+05
   8.402844e+05  -2.671945e+05
