
 $NMID
 id='ANONYMOUS ', fmtdat='(2E16.6)'
 volume=1.0
 tramp=1.0
 $END
   4.987760e+07  -2.360476e+06
   3.177423e+07   2.891358e+07
  -4.469989e+06   3.394638e+07
  -2.365129e+07   1.477531e+07
  -1.522363e+07  -4.891655e+06
   2.227678e+06  -8.489860e+06
   8.913408e+06   2.367699e+05
   3.288296e+06   8.524549e+06
  -4.889915e+06   8.993662e+06
  -8.561132e+06   2.517515e+06
  -6.600849e+06  -5.292392e+06
  -1.087095e+06  -7.817250e+06
   3.525740e+06  -2.568971e+06
   2.658536e+06   5.031664e+06
  -3.058336e+06   6.317926e+06
  -7.158495e+06  -6.911945e+05
  -4.543972e+06  -8.930986e+06
   2.777929e+06  -1.077566e+07
   8.751815e+06  -5.708943e+06
   9.663786e+06   1.446617e+06
   6.041722e+06   6.369317e+06
   8.884953e+05   7.451534e+06
  -2.121013e+06   5.312261e+06
  -1.117749e+06   2.609245e+06
   1.321257e+06   2.304198e+06
   2.493186e+05   4.064109e+06
  -5.033483e+06   4.163136e+06
  -8.923343e+06   6.306160e+05
  -6.494595e+06  -3.587236e+06
  -1.882577e+05  -4.538746e+06
   3.508245e+06  -2.284975e+06
   2.219742e+06   1.835201e+05
  -8.757364e+05   1.084063e+06
  -2.451479e+06   4.380031e+05
  -2.113307e+06  -1.546480e+06
  -5.588710e+05  -3.748924e+06
   1.582359e+06  -3.460337e+06
   2.722571e+06   1.474352e+05
   1.454568e+06   3.161542e+06
  -6.076592e+05   1.488229e+06
  -2.413732e+05  -2.463155e+06
   2.223255e+06  -2.303761e+06
   2.415634e+06   2.714536e+06
  -1.703587e+06   5.601957e+06
  -5.925508e+06   1.297670e+06
  -4.816014e+06  -5.830564e+06
   1.224702e+06  -7.624487e+06
   6.509928e+06  -2.482475e+06
   6.591892e+06   3.716953e+06
   2.089571e+06   5.469673e+06
  -3.055696e+06   2.756184e+06
  -5.024039e+06  -1.065057e+06
  -2.538100e+06  -3.062563e+06
   2.004976e+06  -2.159945e+06
   4.147014e+06   5.594527e+05
   1.944396e+06   2.326774e+06
  -1.466566e+06   1.322046e+06
  -1.705486e+06  -8.513707e+05
   1.028758e+06  -1.014206e+06
   2.356175e+06   1.233444e+06
  -1.431565e+05   2.972963e+06
  -3.837075e+06   1.987395e+06
  -4.802700e+06  -8.036404e+05
  -2.332930e+06  -3.391171e+06
   1.467631e+06  -4.859217e+06
   4.522963e+06  -4.599116e+06
   5.645048e+06  -1.753096e+06
   4.222778e+06   2.783078e+06
   1.045913e+06   5.645790e+06
  -1.440547e+06   4.529027e+06
  -1.501182e+06   1.381559e+06
  -2.862705e+05  -3.048421e+04
  -2.139962e+05   9.521720e+05
  -1.650682e+06   1.589869e+06
  -2.681660e+06   1.066391e+05
  -1.899398e+06  -1.936790e+06
   4.785341e+04  -2.115480e+06
   1.611600e+06  -2.034498e+05
   1.717663e+06   2.026251e+06
   5.754261e+04   2.824467e+06
  -2.579299e+06   1.582617e+06
  -4.155716e+06  -1.037371e+06
  -3.023848e+06  -3.349306e+06
  -9.770306e+04  -3.795537e+06
   1.917568e+06  -2.510269e+06
   1.919608e+06  -1.154042e+06
   1.644541e+06  -7.844704e+05
   2.767527e+06  -6.326115e+05
   4.171254e+06   5.142906e+05
   3.442983e+06   2.488229e+06
   2.884582e+05   3.952871e+06
  -2.955205e+06   3.855134e+06
  -3.965164e+06   2.128014e+06
  -2.539921e+06  -3.894585e+05
  -2.528661e+05  -2.155642e+06
   1.052851e+06  -1.851238e+06
   5.315375e+05   4.413381e+04
  -1.024163e+06   1.281631e+06
  -1.798563e+06   4.428406e+05
  -8.903334e+05  -1.108153e+06
   4.877426e+05  -1.091034e+06
   4.799449e+05   3.565436e+05
  -9.292281e+05   8.000834e+05
  -1.851522e+06  -9.845023e+05
  -9.221089e+05  -3.218651e+06
   1.198384e+06  -3.440965e+06
   2.923768e+06  -1.399395e+06
   3.346467e+06   1.155971e+06
   2.413848e+06   2.615622e+06
   5.610889e+05   2.566543e+06
  -1.169823e+06   1.461292e+06
  -1.529166e+06   2.552669e+05
  -4.776404e+05  -2.751131e+04
   3.751428e+05   7.125648e+05
  -3.307597e+05   1.292862e+06
  -1.784781e+06   6.288860e+05
  -1.983331e+06  -7.499174e+05
  -4.433117e+05  -1.332199e+06
   1.105571e+06  -6.063428e+05
   9.051084e+05   4.089843e+05
  -7.878052e+05   5.825738e+05
  -2.166086e+06  -1.801897e+05
  -1.805373e+06  -1.258165e+06
   1.413985e+05  -1.966887e+06
   2.186654e+06  -1.717487e+06
   2.682636e+06  -3.722028e+05
   1.220208e+06   1.164676e+06
  -8.204652e+05   1.460233e+06
  -1.470288e+06   2.357339e+05
  -2.181482e+05  -1.019517e+06
   1.434486e+06  -7.613343e+05
   1.695433e+06   6.820406e+05
   4.121292e+05   1.588554e+06
  -1.004655e+06   1.014930e+06
  -1.241908e+06  -2.261040e+05
  -2.918503e+05  -7.416236e+05
   7.543576e+05  -8.971285e+04
   7.448942e+05   9.878650e+05
  -5.128615e+05   1.393499e+06
  -1.925517e+06   5.867084e+05
  -2.002057e+06  -9.488216e+05
  -4.449500e+05  -1.990862e+06
   1.326672e+06  -1.642363e+06
   1.661885e+06  -2.745486e+05
   5.283908e+05   8.205561e+05
  -6.056427e+05   8.096766e+05
  -6.267020e+05   9.225454e+04
   9.300501e+04  -3.834597e+05
   4.950244e+05  -2.450306e+05
   1.649547e+05   7.304710e+04
  -4.189723e+05  -1.643193e+04
  -5.428045e+05  -6.028445e+05
   1.350803e+05  -1.154328e+06
   1.299536e+06  -9.231741e+05
   2.031093e+06   3.231557e+05
   1.486306e+06   1.828669e+06
  -1.263550e+05   2.358908e+06
  -1.522356e+06   1.444604e+06
  -1.664307e+06  -5.091108e+04
  -8.896245e+05  -8.624685e+05
  -3.322343e+05  -6.685526e+05
  -4.408910e+05  -2.206383e+05
  -5.907552e+05  -2.657006e+05
  -1.138181e+05  -7.167824e+05
   8.082672e+05  -9.099213e+05
   1.399246e+06  -3.802912e+05
   1.062460e+06   6.711235e+05
  -1.808184e+05   1.449093e+06
  -1.635949e+06   1.116791e+06
  -2.206022e+06  -3.860217e+05
  -1.187518e+06  -1.993045e+06
   8.732200e+05  -2.330245e+06
   2.413950e+06  -1.107294e+06
   2.316603e+06   5.347956e+05
   1.006713e+06   1.268566e+06
  -1.532908e+05   9.551592e+05
  -3.837020e+05   5.310495e+05
  -8.551762e+04   7.234232e+05
  -6.865268e+04   1.244569e+06
  -5.954171e+05   1.256237e+06
  -1.230042e+06   3.507125e+05
  -1.328769e+06  -1.001302e+06
  -6.032596e+05  -1.817688e+06
   5.554677e+05  -1.414557e+06
   1.249511e+06  -4.723697e+04
   8.405936e+05   1.205962e+06
  -3.119792e+05   1.368005e+06
  -1.096171e+06   4.577550e+05
  -8.135310e+05  -6.154181e+05
   5.681354e+04  -1.032857e+06
   4.657507e+05  -7.854523e+05
   5.878859e+04  -4.192060e+05
  -4.256428e+05  -3.149257e+05
  -6.796703e+04  -3.710144e+05
   1.096874e+06  -2.493120e+05
   1.998988e+06   2.409838e+05
   1.605561e+06   9.382862e+05
   3.271092e+04   1.382800e+06
  -1.479790e+06   1.159924e+06
  -1.760894e+06   3.468782e+05
  -8.356129e+05  -4.292351e+05
   2.223861e+05  -5.522942e+05
   4.905776e+05  -6.060765e+04
   4.070593e+04   3.929782e+05
  -4.258632e+05   2.611219e+05
  -4.764284e+05  -3.140988e+05
  -2.560610e+05  -6.926688e+05
  -9.645354e+04  -4.591121e+05
  -1.334166e+05   1.063049e+05
  -2.738845e+05   3.034960e+05
  -2.783751e+05  -2.139988e+05
   1.093096e+05  -9.643848e+05
   8.317005e+05  -1.063623e+06
   1.295730e+06  -2.141841e+05
   8.434661e+05   8.522967e+05
  -3.579791e+05   1.107290e+06
  -1.195123e+06   3.625943e+05
  -7.292922e+05  -5.324817e+05
   6.550667e+05  -6.573151e+05
   1.551175e+06   3.102973e+04
   1.023343e+06   8.026987e+05
  -4.254129e+05   9.897411e+05
  -1.444823e+06   5.332640e+05
  -1.216084e+06  -1.359514e+05
  -1.535593e+05  -4.986109e+05
   6.211847e+05  -2.901306e+05
   3.814220e+05   2.672176e+05
  -5.515813e+05   5.224858e+05
  -1.148354e+06  -4.086482e+04
  -6.869520e+05  -1.121985e+06
   5.160773e+05  -1.669113e+06
   1.409597e+06  -9.092754e+05
   1.247092e+06   6.913427e+05
   2.620773e+05   1.734742e+06
  -6.736555e+05   1.289126e+06
  -9.093431e+05  -1.340201e+05
  -4.674675e+05  -1.144556e+06
   1.747744e+05  -9.558494e+05
   5.432454e+05  -1.053083e+05
   4.697147e+05   3.527083e+05
   1.666008e+05   1.310557e+05
   4.335964e+04  -9.636786e+04
   2.803616e+05   2.712138e+05
   5.306345e+05   9.184073e+05
   2.283040e+05   1.045067e+06
  -6.770788e+05   4.144029e+05
  -1.451809e+06  -3.976083e+05
  -1.278349e+06  -7.685015e+05
  -2.068949e+05  -6.720916e+05
   8.149421e+05  -4.374725e+05
   9.514596e+05  -2.139833e+05
   3.533148e+05   3.528308e+04
  -1.330036e+05   2.239731e+05
  -2.768119e+04   2.038914e+05
   2.599753e+05   8.463148e+04
   5.439725e+04   1.263116e+05
  -6.326414e+05   2.526406e+05
  -1.017547e+06   3.117222e+04
  -4.502727e+05  -6.516690e+05
   7.683407e+05  -1.177024e+06
   1.621179e+06  -8.070946e+05
   1.390132e+06   3.576452e+05
   3.249121e+05   1.354746e+06
  -6.896043e+05   1.370458e+06
  -9.967451e+05   5.680795e+05
  -6.449679e+05  -1.979516e+05
  -1.461695e+05  -3.418371e+05
   6.147460e+04  -6.670480e+04
  -8.122175e+04   1.855360e+04
  -3.067086e+05  -3.477555e+05
  -2.722126e+05  -7.772989e+05
   1.447656e+05  -6.683572e+05
   6.648635e+05   8.666970e+04
   7.597199e+05   8.892775e+05
   1.621128e+05   9.954686e+05
  -7.157565e+05   2.764900e+05
  -1.036449e+06  -6.503865e+05
  -3.895047e+05  -1.042835e+06
   6.611189e+05  -6.932504e+05
   1.092830e+06   2.122637e+04
   5.485014e+05   5.747294e+05
  -2.475235e+05   6.771882e+05
  -3.570922e+05   3.777960e+05
   2.345786e+05  -1.199420e+03
   6.280453e+05  -6.649210e+04
   1.583012e+05   2.933290e+05
  -7.740399e+05   6.948260e+05
  -1.208354e+06   5.773463e+05
  -7.567250e+05  -1.415922e+05
   5.453950e+04  -8.516462e+05
   5.040164e+05  -8.612200e+05
   4.109303e+05  -1.830158e+05
   7.539742e+04   4.595793e+05
  -2.107958e+05   4.368155e+05
  -3.460692e+05  -1.219363e+05
  -2.734344e+05  -5.495804e+05
   2.849330e+04  -4.226050e+05
   3.813926e+05   2.328744e+04
   4.787692e+05   2.552488e+05
   2.416613e+05   8.685379e+04
  -4.510507e+04  -1.480279e+05
  -8.650578e+04  -4.843567e+04
   3.450457e+04   3.357105e+05
  -8.641453e+03   5.392674e+05
  -2.917115e+05   2.370125e+05
  -4.683736e+05  -3.370125e+05
  -1.930783e+05  -6.172572e+05
   3.780282e+05  -3.264732e+05
   6.617015e+05   2.352563e+05
   2.755346e+05   5.420099e+05
  -4.786361e+05   3.803392e+05
  -8.648686e+05  -2.847540e+04
  -4.852022e+05  -3.444960e+05
   2.655064e+05  -4.081410e+05
   6.107148e+05  -2.584523e+05
   2.481415e+05  -3.247720e+04
  -3.232356e+05   8.564050e+04
  -3.931809e+05  -3.583854e+04
   1.449359e+05  -2.835395e+05
   6.988632e+05  -2.947838e+05
