
 $NMID
 id='ANONYMOUS ', fmtdat='(2E16.6)'
 volume=1.0
 tramp=1.0
 $END
   1.326251e+07  -1.265367e+04
   9.004137e+06   5.614683e+06
   4.492149e+05   8.135049e+06
  -5.384961e+06   6.144723e+06
  -4.952001e+06   1.249863e+06
  -6.117064e+05  -2.385379e+06
   2.732922e+06  -1.662107e+06
   2.439953e+06   2.008148e+06
  -2.915300e+05   4.064585e+06
  -2.495046e+06   2.006389e+06
  -2.333724e+06  -1.780214e+06
  -3.406855e+05  -3.029662e+06
   1.413740e+06  -5.783583e+05
   1.234866e+06   2.622873e+06
  -6.677360e+05   3.098630e+06
  -2.320986e+06   4.627984e+05
  -1.876932e+06  -2.642376e+06
   4.627933e+05  -3.469627e+06
   2.574940e+06  -1.654671e+06
   2.621686e+06   8.523551e+05
   9.653931e+05   1.931647e+06
  -3.453379e+05   1.317963e+06
   8.110337e+04   5.501535e+05
   1.431030e+06   1.003043e+06
   1.609090e+06   2.263375e+06
  -3.808985e+05   2.707522e+06
  -3.134158e+06   1.467596e+06
  -4.080187e+06  -6.091846e+05
  -2.132425e+06  -1.922230e+06
   9.893371e+05  -1.620248e+06
   2.363361e+06  -1.351119e+05
   8.795010e+05   1.284064e+06
  -1.639803e+06   1.412711e+06
  -2.535331e+06  -2.643763e+04
  -1.192331e+06  -1.867818e+06
   6.234531e+05  -2.325303e+06
   1.087563e+06  -8.661359e+05
   2.518919e+05   9.388172e+05
  -5.163072e+05   1.045678e+06
  -3.414737e+05  -6.123914e+05
   4.602621e+05  -1.962779e+06
   1.094810e+06  -1.300293e+06
   1.046689e+06   6.407895e+05
   2.574300e+05   1.621835e+06
  -7.913498e+05   5.733651e+05
  -1.112399e+06  -1.274718e+06
   9.956903e+02  -1.916175e+06
   1.887233e+06  -7.064652e+05
   2.728880e+06   1.197830e+06
   1.402859e+06   2.166407e+06
  -1.076097e+06   1.566080e+06
  -2.463213e+06   9.805493e+04
  -1.637226e+06  -9.855382e+05
   3.201662e+05  -9.571362e+05
   1.434865e+06  -1.242162e+05
   8.863680e+05   5.723513e+05
  -3.954974e+05   4.717059e+05
  -9.225223e+05  -2.307107e+05
  -2.077687e+05  -7.552683e+05
   8.189483e+05  -5.354843e+05
   8.610469e+05   2.378603e+05
  -2.779103e+05   7.840983e+05
  -1.357379e+06   4.295078e+05
  -9.958404e+05  -7.359856e+05
   7.441077e+05  -1.797708e+06
   2.342950e+06  -1.719238e+06
   2.464620e+06  -3.098932e+05
   1.307590e+06   1.480628e+06
   1.295187e+05   2.391031e+06
  -2.746265e+05   2.047360e+06
  -2.345199e+05   1.216564e+06
  -4.656192e+05   7.963716e+05
  -1.118047e+06   7.518274e+05
  -1.690787e+06   3.205583e+05
  -1.607113e+06  -7.813390e+05
  -7.171192e+05  -1.736826e+06
   5.551201e+05  -1.473431e+06
   1.390266e+06   8.590346e+03
   1.109090e+06   1.463247e+06
  -1.721593e+05   1.631794e+06
  -1.458694e+06   4.748559e+05
  -1.712423e+06  -9.203948e+05
  -8.563878e+05  -1.508954e+06
   1.973793e+05  -1.193487e+06
   5.888024e+05  -6.444128e+05
   4.325546e+05  -4.593335e+05
   5.527634e+05  -6.026546e+05
   1.352429e+06  -5.569483e+05
   2.156690e+06   1.005786e+05
   1.854449e+06   1.233023e+06
   1.967615e+05   2.147599e+06
  -1.704274e+06   2.098359e+06
  -2.349241e+06   9.542363e+05
  -1.344232e+06  -5.450919e+05
   2.067013e+05  -1.313037e+06
   8.609819e+05  -8.765076e+05
   2.661414e+05   1.478115e+05
  -6.734886e+05   6.515287e+05
  -9.144521e+05   1.857826e+05
  -3.214710e+05  -5.707591e+05
   3.847000e+05  -6.170961e+05
   4.637361e+05   1.497168e+05
  -1.778168e+05   7.340884e+05
  -9.618154e+05   1.806292e+05
  -1.099214e+06  -1.228261e+06
  -2.130166e+05  -2.145141e+06
   1.242993e+06  -1.563825e+06
   2.198274e+06   1.132698e+05
   1.852191e+06   1.511040e+06
   4.827142e+05   1.668179e+06
  -7.483400e+05   8.519938e+05
  -9.259266e+05   6.909818e+04
  -2.670663e+05  -1.793101e+04
   2.170084e+05   3.896584e+05
  -1.120044e+05   6.309349e+05
  -8.369739e+05   3.279498e+05
  -1.018690e+06  -2.794350e+05
  -3.141424e+05  -6.249129e+05
   5.734001e+05  -3.842354e+05
   6.280641e+05   2.013739e+05
  -3.331717e+05   5.248264e+05
  -1.362678e+06   1.689541e+05
  -1.323255e+06  -6.696533e+05
  -9.972377e+04  -1.298383e+06
   1.240432e+06  -1.133573e+06
   1.530874e+06  -2.649388e+05
   6.600981e+05   5.777157e+05
  -4.112130e+05   6.915240e+05
  -6.819646e+05   9.082850e+04
  -4.054671e+04  -4.987182e+05
   7.722932e+05  -3.955432e+05
   9.546208e+05   3.091116e+05
   3.590974e+05   8.616397e+05
  -4.437345e+05   6.919160e+05
  -7.232819e+05   3.762385e+04
  -2.795931e+05  -3.545498e+05
   3.429641e+05  -7.425603e+04
   3.833985e+05   5.288680e+05
  -3.190584e+05   7.559042e+05
  -1.087976e+06   2.821126e+05
  -1.092329e+06  -5.537630e+05
  -2.455530e+05  -1.087450e+06
   6.884620e+05  -9.107474e+05
   9.017277e+05  -2.041626e+05
   3.475399e+05   4.265457e+05
  -3.061911e+05   4.875365e+05
  -4.276453e+05   4.971719e+04
  -2.302385e+04  -3.468751e+05
   3.750117e+05  -2.875319e+05
   3.154700e+05   6.127185e+04
  -1.070566e+05   1.747706e+05
  -3.608487e+05  -1.752398e+05
  -3.773916e+04  -6.106679e+05
   6.795597e+05  -5.483824e+05
   1.134071e+06   1.537210e+05
   8.267553e+05   1.012019e+06
  -6.887251e+04   1.353958e+06
  -8.656245e+05   9.163520e+05
  -1.033388e+06   5.905331e+04
  -6.612007e+05  -5.681948e+05
  -2.507772e+05  -6.040132e+05
  -1.363451e+05  -2.740702e+05
  -1.836495e+05  -1.026361e+05
  -3.908630e+04  -3.066231e+05
   4.009550e+05  -5.368471e+05
   8.081502e+05  -3.008614e+05
   7.104884e+05   3.921954e+05
  -1.695501e+04   9.344149e+05
  -9.253506e+05   7.249411e+05
  -1.293651e+06  -1.826094e+05
  -7.462944e+05  -1.091807e+06
   3.741138e+05  -1.300402e+06
   1.267880e+06  -7.060026e+05
   1.357216e+06   1.700896e+05
   7.416544e+05   6.972053e+05
   1.772888e+04   6.797184e+05
  -3.101559e+05   4.418502e+05
  -2.372404e+05   4.030804e+05
  -1.386071e+05   5.909113e+05
  -3.085489e+05   6.185007e+05
  -6.355146e+05   1.653581e+05
  -7.220612e+05  -5.793920e+05
  -3.247751e+05  -1.035357e+06
   3.319141e+05  -8.001669e+05
   7.172632e+05  -5.210768e+04
   5.057907e+05   6.224484e+05
  -8.454729e+04   7.576824e+05
  -5.062255e+05   3.616056e+05
  -4.369110e+05  -1.803476e+05
  -7.880853e+04  -4.826662e+05
   1.150697e+05  -4.556144e+05
  -2.959430e+04  -2.925964e+05
  -2.140280e+05  -2.113739e+05
  -2.108062e+04  -2.231841e+05
   5.659494e+05  -1.572668e+05
   1.054112e+06   1.086345e+05
   9.023070e+05   4.785312e+05
   1.052002e+05   7.071451e+05
  -7.304349e+05   6.181998e+05
  -9.520316e+05   2.596508e+05
  -4.988345e+05  -1.196900e+05
   8.046142e+04  -2.521816e+05
   2.413213e+05  -8.198849e+04
  -1.886446e+04   1.503234e+05
  -2.810764e+05   1.257671e+05
  -2.529868e+05  -1.819978e+05
  -5.338780e+04  -4.222094e+05
   3.145887e+04  -2.702537e+05
  -8.200283e+04   1.225238e+05
  -2.202409e+05   2.528510e+05
  -1.742336e+05  -1.087838e+05
   1.057056e+05  -5.775986e+05
   4.680418e+05  -5.826382e+05
   6.298740e+05  -5.296788e+04
   3.685447e+05   4.930471e+05
  -2.102239e+05   5.401369e+05
  -6.199655e+05   1.100972e+05
  -3.975879e+05  -3.340226e+05
   3.479202e+05  -3.876128e+05
   9.167417e+05  -3.266183e+04
   6.993476e+05   4.262489e+05
  -1.492602e+05   6.321370e+05
  -8.394516e+05   4.311554e+05
  -7.707665e+05  -6.828138e+03
  -1.352538e+05  -3.033119e+05
   3.409352e+05  -2.076190e+05
   1.854635e+05   1.256583e+05
  -3.609616e+05   2.523264e+05
  -6.472366e+05  -9.839158e+04
  -3.019371e+05  -6.819216e+05
   4.057371e+05  -9.155239e+05
   8.603596e+05  -4.465650e+05
   7.033483e+05   4.403375e+05
   1.244708e+05   1.017296e+06
  -3.950112e+05   7.839326e+05
  -5.360984e+05  -2.399214e+04
  -3.225072e+05  -6.498688e+05
   2.655680e+04  -5.898587e+05
   2.883789e+05  -9.005561e+04
   3.256995e+05   2.166271e+05
   1.590880e+05   9.434731e+04
   7.569755e+02  -7.379224e+04
   6.736452e+04   1.180099e+05
   2.641867e+05   5.146854e+05
   2.012319e+05   6.144775e+05
  -3.044195e+05   2.446468e+05
  -8.457233e+05  -2.412896e+05
  -8.026706e+05  -4.485899e+05
  -1.225525e+05  -3.722607e+05
   5.357574e+05  -2.399114e+05
   5.719600e+05  -1.407174e+05
   1.479390e+05  -1.280255e+04
  -1.038710e+05   1.215832e+05
   5.822992e+04   1.513598e+05
   2.300160e+05   9.132136e+04
  -9.077869e+02   7.922619e+04
  -4.528049e+05   1.093261e+05
  -5.743379e+05  -2.149715e+04
  -1.303794e+05  -3.710112e+05
   5.360611e+05  -6.164813e+05
   8.889320e+05  -3.749790e+05
   6.922683e+05   2.765806e+05
   1.321446e+05   7.954906e+05
  -3.969424e+05   7.449931e+05
  -5.799815e+05   2.539221e+05
  -3.788265e+05  -1.680731e+05
  -4.362476e+04  -1.980004e+05
   1.065219e+05   7.001338e+03
  -1.912276e+04   6.192653e+04
  -2.055927e+05  -1.787052e+05
  -1.742244e+05  -4.477363e+05
   1.116916e+05  -3.634636e+05
   3.961600e+05   1.144798e+05
   3.725230e+05   5.769291e+05
  -1.323107e+04   5.669378e+05
  -4.639506e+05   7.114450e+04
  -5.564586e+05  -4.629167e+05
  -1.507188e+05  -6.015069e+05
   4.064558e+05  -3.264555e+05
   5.870540e+05   5.812688e+04
   2.564181e+05   2.895404e+05
  -1.526026e+05   3.128320e+05
  -1.504702e+05   1.900690e+05
   2.028314e+05   2.821251e+04
   3.783885e+05  -1.447652e+04
   6.005832e+04   1.583631e+05
  -4.561099e+05   3.903941e+05
  -6.416331e+05   3.542016e+05
  -3.589244e+05  -4.537695e+04
   5.637859e+04  -4.581369e+05
   2.471970e+05  -4.507628e+05
   1.720905e+05  -4.355933e+04
  -2.261206e+03   2.936155e+05
  -1.442918e+05   2.080029e+05
  -2.009942e+05  -1.381855e+05
  -1.341105e+05  -3.226188e+05
   4.456536e+04  -1.850834e+05
   2.155761e+05   4.917632e+04
   2.443114e+05   1.145198e+05
   1.338040e+05   1.659530e+04
   1.053866e+04  -3.846919e+04
  -4.342381e+04   7.033658e+04
  -7.225698e+04   2.354732e+05
  -1.418967e+05   2.444433e+05
  -2.154853e+05   1.701667e+04
  -1.798706e+05  -2.804134e+05
   1.418827e+04  -3.709289e+05
   2.563742e+05  -1.475648e+05
   3.319006e+05   1.933524e+05
   1.129850e+05   3.423420e+05
  -2.640975e+05   1.953479e+05
  -4.569388e+05  -6.710724e+04
  -2.497996e+05  -2.109434e+05
   1.636005e+05  -1.795187e+05
   3.404254e+05  -7.402287e+04
   9.380673e+04  -2.646295e+02
  -2.572136e+05  -6.992211e+03
  -2.531204e+05  -9.935924e+04
   1.445130e+05  -2.020600e+05
   4.986558e+05  -1.512941e+05
