
 $NMID
 id='ANONYMOUS ', fmtdat='(2E16.6)'
 volume=1.0
 tramp=1.0
 $END
  -1.867309e+07  -5.893437e+04
  -1.032979e+07  -1.257807e+07
   3.896187e+06  -1.277644e+07
   9.710255e+06  -3.478728e+06
   4.753804e+06   3.948083e+06
  -2.056890e+06   3.654885e+06
  -3.520211e+06  -7.464599e+05
  -6.170831e+05  -3.525867e+06
   2.363437e+06  -2.895657e+06
   3.332972e+06  -2.164156e+05
   2.297342e+06   2.451376e+06
  -2.387049e+04   3.104668e+06
  -1.864278e+06   1.042405e+06
  -1.327565e+06  -1.650905e+06
   1.024282e+06  -1.861118e+06
   2.316210e+06   7.099597e+05
   9.336180e+05   3.163130e+06
  -1.677751e+06   3.151829e+06
  -3.308677e+06   1.187978e+06
  -3.302719e+06  -1.062806e+06
  -2.021614e+06  -2.707650e+06
   4.487302e+04  -3.205222e+06
   1.723789e+06  -2.081682e+06
   1.551495e+06  -1.841496e+05
  -7.278327e+04   4.532446e+05
  -6.867703e+05  -7.560286e+05
   9.800902e+05  -1.809858e+06
   2.959417e+06  -8.366350e+05
   2.698742e+06   1.286863e+06
   5.215434e+05   2.348477e+06
  -1.195872e+06   1.733120e+06
  -1.309513e+06   5.381208e+05
  -6.074365e+05  -3.045988e+05
   5.562212e+04  -5.361769e+05
   4.649183e+05   2.410243e+04
   2.628739e+05   1.028781e+06
  -7.269263e+05   1.172095e+06
  -1.498130e+06  -1.967038e+05
  -8.821633e+05  -1.561475e+06
   4.231005e+05  -1.089019e+06
   5.784899e+05   4.150380e+05
  -4.658412e+05   4.596235e+05
  -6.447008e+05  -1.220509e+06
   9.978985e+05  -1.975881e+06
   2.552715e+06  -1.532166e+05
   1.842175e+06   2.356080e+06
  -5.693050e+05   2.731106e+06
  -2.261291e+06   8.596823e+05
  -1.950691e+06  -1.069623e+06
  -3.894827e+05  -1.520861e+06
   1.025433e+06  -7.050024e+05
   1.355576e+06   4.979126e+05
   3.714042e+05   1.256526e+06
  -1.133515e+06   8.935219e+05
  -1.639190e+06  -4.016932e+05
  -5.667515e+05  -1.255359e+06
   7.007077e+05  -6.718476e+05
   5.320568e+05   4.015666e+05
  -6.026953e+05   2.940924e+05
  -7.911163e+05  -8.907491e+05
   4.996567e+05  -1.412044e+06
   1.723825e+06  -4.801303e+05
   1.558137e+06   7.990542e+05
   4.740993e+05   1.324740e+06
  -4.776501e+05   1.333552e+06
  -1.121196e+06   1.239639e+06
  -1.584663e+06   5.904692e+05
  -1.402350e+06  -7.944942e+05
  -3.077138e+05  -1.760425e+06
   7.776259e+05  -1.192540e+06
   7.112046e+05   1.829783e+05
  -2.342504e+05   6.462772e+05
  -7.100588e+05  -1.724230e+05
  -1.269200e+05  -9.683412e+05
   7.357822e+05  -7.093284e+05
   9.358678e+05   1.650023e+05
   4.015705e+05   6.468610e+05
  -3.109781e+05   3.822554e+05
  -6.267766e+05  -2.834931e+05
  -2.231850e+05  -8.036060e+05
   7.083088e+05  -6.965612e+05
   1.356396e+06   1.328467e+05
   9.975737e+05   1.079864e+06
  -6.397365e+04   1.306711e+06
  -7.817574e+05   7.299537e+05
  -6.971736e+05   1.096838e+05
  -4.095993e+05   8.924720e+02
  -5.416157e+05   1.159755e+05
  -8.575226e+05  -5.255069e+04
  -7.682757e+05  -4.910440e+05
  -2.074170e+05  -8.577715e+05
   4.226819e+05  -9.637637e+05
   8.011049e+05  -7.308076e+05
   7.931772e+05  -1.122414e+05
   3.622810e+05   5.707282e+05
  -2.084339e+05   6.658398e+05
  -3.390655e+05   3.921204e+04
   1.421182e+05  -5.135118e+05
   6.047552e+05  -2.653970e+05
   4.200005e+05   3.797836e+05
  -1.115470e+05   4.923751e+05
  -2.167033e+05   3.091808e+04
   1.647542e+05  -1.537124e+05
   3.385467e+05   3.072730e+05
  -3.450924e+04   7.571650e+05
  -4.951670e+05   5.618107e+05
  -5.894039e+05  -1.945969e+04
  -4.583920e+05  -3.839374e+05
  -3.567905e+05  -4.305099e+05
  -1.727104e+05  -3.989740e+05
   1.770727e+05  -3.122134e+05
   3.582821e+05  -9.712035e+04
   1.171827e+05   3.553179e+04
  -1.742891e+05  -1.431663e+05
   1.588729e+03  -3.978310e+05
   4.889384e+05  -2.914256e+05
   6.418333e+05   1.477390e+05
   2.450365e+05   4.490340e+05
  -2.311206e+05   3.592951e+05
  -3.110412e+05   9.255186e+04
  -3.599022e+04  -7.383378e+04
   2.562038e+05  -8.028995e+04
   3.178743e+05   5.832217e+04
   7.522319e+04   3.016299e+05
  -3.507584e+05   4.204196e+05
  -6.007060e+05   1.557116e+05
  -3.547877e+05  -3.269031e+05
   2.068480e+05  -4.876886e+05
   4.882162e+05  -1.116327e+05
   1.847484e+05   3.409056e+05
  -3.246274e+05   3.230310e+05
  -4.671436e+05  -9.874170e+04
  -1.507875e+05  -4.047018e+05
   2.439476e+05  -3.070968e+05
   3.674617e+05   9.416565e+03
   1.820391e+05   2.254065e+05
  -1.222836e+05   1.927211e+05
  -2.754126e+05  -4.376251e+04
  -9.324504e+04  -2.865286e+05
   2.958062e+05  -2.707477e+05
   4.743378e+05   7.110578e+04
   1.909563e+05   4.348828e+05
  -2.809253e+05   4.350583e+05
  -4.496222e+05   7.345249e+04
  -2.061916e+05  -2.691983e+05
   1.122081e+05  -3.106216e+05
   2.149194e+05  -1.340374e+05
   1.463776e+05   4.072112e+04
   6.706219e+04   1.296758e+05
   1.685850e+04   1.529597e+05
  -1.678360e+04   1.278210e+05
  -1.871024e+04   1.017780e+05
  -4.106261e+04   1.377364e+05
  -1.845064e+05   1.676420e+05
  -3.745916e+05   1.883645e+04
  -3.531284e+05  -2.984318e+05
  -3.755143e+04  -4.923833e+05
   2.902347e+05  -3.389029e+05
   3.322749e+05  -1.083602e+03
   1.616546e+05   1.813376e+05
   5.946708e+04   1.253181e+05
   9.084860e+04   3.094349e+04
   8.500428e+04   4.061627e+04
  -3.124854e+04   8.939662e+04
  -1.356771e+05   8.505003e+04
  -1.409471e+05   3.186464e+04
  -8.902284e+04  -5.320611e+04
   9.629003e+03  -1.634184e+05
   2.005395e+05  -1.965144e+05
   3.831310e+05  -1.226006e+04
   3.117158e+05   3.184526e+05
  -6.668277e+04   4.891014e+05
  -4.463601e+05   3.097750e+05
  -4.967152e+05  -3.634447e+04
  -2.517744e+05  -2.240979e+05
  -1.588289e+04  -1.829066e+05
   3.246138e+04  -1.153996e+05
  -1.631687e+04  -1.765110e+05
  -3.877722e+03  -2.908486e+05
   1.101314e+05  -2.899665e+05
   2.550210e+05  -1.105567e+05
   3.168629e+05   1.618822e+05
   2.016730e+05   3.589367e+05
  -5.836170e+04   3.323766e+05
  -2.633027e+05   8.177778e+04
  -2.226039e+05  -1.998882e+05
   1.141348e+04  -2.832632e+05
   1.883580e+05  -1.312073e+05
   1.573560e+05   8.243949e+04
   2.063788e+04   1.846356e+05
  -3.973922e+04   1.622927e+05
   1.052474e+04   1.026251e+05
   5.729424e+04   6.490915e+04
  -7.558860e+03   5.322963e+04
  -1.814150e+05   4.583508e+04
  -3.453589e+05   5.076930e+02
  -3.344904e+05  -1.146720e+05
  -8.827110e+04  -2.476148e+05
   2.304216e+05  -2.736140e+05
   3.513615e+05  -1.411318e+05
   1.937319e+05   3.509156e+04
  -2.991193e+04   9.418336e+04
  -7.721808e+04   1.915870e+04
   3.803998e+04  -5.703159e+04
   1.214954e+05  -2.440321e+04
   8.477929e+04   8.474004e+04
   1.753505e+04   1.524672e+05
   3.615354e+03   1.065186e+05
   1.584800e+04  -1.092849e+04
   1.227309e+04  -7.869867e+04
   4.432754e+03  -1.102400e+04
  -1.355789e+04   1.348460e+05
  -8.456011e+04   1.904602e+05
  -1.736065e+05   6.292377e+04
  -1.459308e+05  -1.322977e+05
   4.158756e+04  -1.895604e+05
   2.096115e+05  -5.689097e+04
   1.427054e+05   1.085916e+05
  -1.227518e+05   1.358793e+05
  -3.123884e+05   1.750449e+04
  -2.251843e+05  -1.286416e+05
   5.328222e+04  -1.974649e+05
   2.663385e+05  -1.541575e+05
   2.490166e+05  -2.591368e+04
   5.710135e+04   9.625804e+04
  -1.093420e+05   9.977067e+04
  -8.856229e+04  -2.269775e+04
   9.220072e+04  -1.151862e+05
   2.297571e+05  -1.631886e+04
   1.471623e+05   2.204689e+05
  -1.057864e+05   3.455265e+05
  -2.967235e+05   1.869784e+05
  -2.632765e+05  -1.433671e+05
  -6.756902e+04  -3.573345e+05
   1.137595e+05  -2.807356e+05
   1.789171e+05  -1.068349e+04
   1.373815e+05   2.010300e+05
   3.382940e+04   1.981188e+05
  -7.757801e+04   5.269737e+04
  -1.226535e+05  -4.500072e+04
  -7.033988e+04  -1.498649e+04
  -3.212388e+03   3.250632e+04
  -3.214388e+04  -3.420406e+04
  -1.228812e+05  -1.732374e+05
  -1.036295e+05  -2.181238e+05
   9.909317e+04  -1.029981e+05
   3.117500e+05   5.666810e+04
   2.958336e+05   1.292228e+05
   4.799381e+04   1.182942e+05
  -1.825807e+05   9.554153e+04
  -1.912459e+05   6.844846e+04
  -4.469004e+04   6.622121e+03
   4.091020e+04  -5.514696e+04
  -1.430111e+04  -5.148634e+04
  -7.777204e+04  -6.909369e+03
  -9.027905e+03  -9.917910e+03
   1.430793e+05  -5.522133e+04
   1.974316e+05  -2.485318e+04
   6.034536e+04   1.229149e+05
  -1.668731e+05   2.418967e+05
  -2.995345e+05   1.630201e+05
  -2.471798e+05  -7.862150e+04
  -6.944720e+04  -2.704433e+05
   1.040550e+05  -2.620728e+05
   1.763845e+05  -1.076317e+05
   1.313168e+05   2.990375e+04
   2.992677e+04   5.421475e+04
  -3.184064e+04   2.120967e+03
   1.478571e+02  -2.093415e+04
   7.880106e+04   4.504814e+04
   9.251641e+04   1.421255e+05
  -1.134461e+04   1.406928e+05
  -1.473398e+05  -9.396464e+03
  -1.662660e+05  -1.864824e+05
  -1.954968e+04  -2.091991e+05
   1.687710e+05  -4.513166e+04
   2.160245e+05   1.483523e+05
   6.981885e+04   2.067463e+05
  -1.311466e+05   1.227774e+05
  -1.992637e+05   1.685983e+03
  -9.669030e+04  -7.892789e+04
   3.086864e+04  -1.052541e+05
   3.029417e+04  -7.786469e+04
  -7.641262e+04  -1.467822e+04
  -1.254556e+05   1.440495e+04
  -2.041424e+04  -5.173334e+04
   1.465618e+05  -1.547434e+05
   2.101582e+05  -1.503924e+05
   1.250651e+05   4.700089e+03
  -5.589304e+03   1.658537e+05
  -7.031126e+04   1.633665e+05
  -5.439615e+04   1.355939e+04
  -4.346907e+03  -1.046555e+05
   4.500146e+04  -7.140512e+04
   7.377428e+04   4.717212e+04
   5.610371e+04   1.075359e+05
  -1.158755e+04   6.310940e+04
  -7.996380e+04  -1.037084e+04
  -9.053021e+04  -3.080026e+04
  -4.618382e+04  -2.134905e+03
  -2.163264e+03   1.055183e+04
   1.118797e+04  -3.095806e+04
   1.930051e+04  -8.991247e+04
   4.987128e+04  -9.173683e+04
   8.235978e+04  -7.928364e+03
   7.059280e+04   1.000765e+05
   4.583212e+02   1.331447e+05
  -8.621834e+04   5.697167e+04
  -1.175988e+05  -5.888340e+04
  -4.877934e+04  -1.134815e+05
   8.187974e+04  -7.412920e+04
   1.588236e+05   7.957265e+03
   9.528769e+04   6.487750e+04
  -5.236933e+04   6.980073e+04
  -1.223875e+05   3.638373e+04
  -3.460396e+04  -3.627366e+03
   9.869881e+04  -1.270745e+04
   1.021675e+05   2.870806e+04
  -4.367353e+04   8.489588e+04
  -1.774727e+05   7.589885e+04
