
 $NMID
 id='ANONYMOUS ', fmtdat='(2E16.6)'
 volume=1.0
 tramp=1.0
 $END
   1.591413e+07   1.270534e+06
   9.801085e+06   8.276163e+06
  -9.426672e+05   9.908492e+06
  -7.224764e+06   6.020546e+06
  -5.587551e+06   2.399702e+05
  -1.036919e+05  -2.833398e+06
   3.239247e+06  -1.238174e+06
   2.244980e+06   2.636440e+06
  -9.527143e+05   4.295888e+06
  -3.053116e+06   1.761284e+06
  -2.472611e+06  -2.264809e+06
  -1.194312e+05  -3.420942e+06
   1.668126e+06  -6.131673e+05
   1.176414e+06   2.877213e+06
  -1.054272e+06   3.224004e+06
  -2.649098e+06   1.420752e+05
  -1.764761e+06  -3.232031e+06
   9.893579e+05  -3.872820e+06
   3.185554e+06  -1.633198e+06
   3.049815e+06   1.202025e+06
   1.123766e+06   2.416672e+06
  -4.680497e+05   1.782878e+06
  -2.479096e+05   8.558878e+05
   1.103593e+06   1.101573e+06
   1.445076e+06   2.275309e+06
  -4.726947e+05   2.755724e+06
  -3.350613e+06   1.473102e+06
  -4.400141e+06  -7.951512e+05
  -2.329468e+06  -2.235744e+06
   1.020718e+06  -1.839128e+06
   2.489820e+06  -1.940252e+05
   9.572913e+05   1.244757e+06
  -1.603993e+06   1.314582e+06
  -2.493211e+06  -1.059154e+05
  -1.147613e+06  -1.900897e+06
   6.909175e+05  -2.401343e+06
   1.230352e+06  -9.771694e+05
   4.211865e+05   9.547148e+05
  -4.537402e+05   1.229708e+06
  -3.791077e+05  -4.582739e+05
   4.976177e+05  -1.961964e+06
   1.244209e+06  -1.270560e+06
   1.058562e+06   8.821427e+05
  -6.063245e+04   1.875753e+06
  -1.217289e+06   4.683069e+05
  -1.224655e+06  -1.735666e+06
   3.018853e+05  -2.290568e+06
   2.276674e+06  -6.414382e+05
   2.865371e+06   1.576348e+06
   1.254231e+06   2.460912e+06
  -1.316832e+06   1.541251e+06
  -2.603032e+06  -1.679572e+05
  -1.581059e+06  -1.246276e+06
   5.345418e+05  -1.003448e+06
   1.629411e+06   6.044259e+04
   8.926169e+05   7.876271e+05
  -5.208573e+05   5.036375e+05
  -9.510706e+05  -3.434115e+05
  -6.478258e+04  -7.597320e+05
   9.200444e+05  -3.162324e+05
   7.046719e+05   4.751969e+05
  -6.090328e+05   7.739839e+05
  -1.589165e+06   1.775092e+05
  -9.798044e+05  -1.006342e+06
   9.476120e+05  -1.935396e+06
   2.616247e+06  -1.730698e+06
   2.707764e+06  -2.158567e+05
   1.401687e+06   1.686925e+06
   3.009136e+02   2.630549e+06
  -5.279241e+05   2.162453e+06
  -4.027474e+05   1.154581e+06
  -4.630472e+05   6.807204e+05
  -1.055290e+06   7.127871e+05
  -1.688491e+06   3.422544e+05
  -1.645252e+06  -7.872153e+05
  -7.193743e+05  -1.782584e+06
   5.860447e+05  -1.494373e+06
   1.395873e+06   5.294437e+04
   1.066123e+06   1.548898e+06
  -2.533939e+05   1.700668e+06
  -1.572442e+06   4.618136e+05
  -1.826027e+06  -1.053526e+06
  -8.879197e+05  -1.719312e+06
   2.962996e+05  -1.368297e+06
   7.578221e+05  -7.081962e+05
   5.751762e+05  -4.386930e+05
   6.545793e+05  -5.492505e+05
   1.457165e+06  -4.574036e+05
   2.248841e+06   2.752393e+05
   1.850556e+06   1.427837e+06
   6.090190e+04   2.255578e+06
  -1.901543e+06   2.084136e+06
  -2.502073e+06   8.794860e+05
  -1.396866e+06  -6.142861e+05
   2.447150e+05  -1.359495e+06
   9.310153e+05  -8.970855e+05
   2.884664e+05   1.560122e+05
  -7.316532e+05   6.573752e+05
  -9.897775e+05   1.458921e+05
  -3.276881e+05  -6.355976e+05
   4.298918e+05  -6.356786e+05
   4.567041e+05   1.787854e+05
  -2.595886e+05   7.084674e+05
  -9.928183e+05   3.561270e+04
  -9.642861e+05  -1.399950e+06
   2.681177e+04  -2.184227e+06
   1.414951e+06  -1.426597e+06
   2.212715e+06   3.233944e+05
   1.763271e+06   1.670401e+06
   3.812858e+05   1.730089e+06
  -8.219583e+05   8.353158e+05
  -9.658725e+05   2.168064e+04
  -2.780930e+05  -3.846112e+04
   2.040196e+05   4.203053e+05
  -1.659839e+05   6.637821e+05
  -9.179545e+05   2.912918e+05
  -1.059858e+06  -3.769861e+05
  -2.832147e+05  -6.921548e+05
   6.251442e+05  -3.687085e+05
   6.327419e+05   2.395451e+05
  -3.748509e+05   4.945899e+05
  -1.391623e+06   6.563541e+04
  -1.292395e+06  -7.677970e+05
  -8.902962e+03  -1.323677e+06
   1.353968e+06  -1.080527e+06
   1.608504e+06  -1.709732e+05
   6.538657e+05   6.598462e+05
  -4.861860e+05   7.146694e+05
  -7.432918e+05   5.194018e+04
  -2.337871e+04  -5.395716e+05
   8.359464e+05  -3.712172e+05
   9.760104e+05   3.913134e+05
   3.045651e+05   9.239376e+05
  -5.189981e+05   6.785298e+05
  -7.530729e+05  -2.383358e+04
  -2.601538e+05  -3.941855e+05
   3.664824e+05  -5.903608e+04
   3.720910e+05   5.697591e+05
  -3.689472e+05   7.672650e+05
  -1.144921e+06   2.329792e+05
  -1.105596e+06  -6.416482e+05
  -1.866586e+05  -1.152303e+06
   7.847459e+05  -9.054539e+05
   9.600081e+05  -1.458952e+05
   3.323137e+05   4.749553e+05
  -3.527192e+05   4.903659e+05
  -4.450757e+05   3.293631e+04
  -7.053324e+03  -3.426733e+05
   3.833460e+05  -2.651641e+05
   2.972543e+05   6.512437e+04
  -1.244895e+05   1.423483e+05
  -3.434587e+05  -2.214031e+05
   1.712506e+04  -6.315450e+05
   7.435349e+05  -5.171496e+05
   1.165633e+06   2.355670e+05
   7.935147e+05   1.105977e+06
  -1.594864e+05   1.400540e+06
  -9.565666e+05   8.857074e+05
  -1.064731e+06  -1.431526e+04
  -6.335648e+05  -6.220530e+05
  -2.202726e+05  -6.184328e+05
  -1.400012e+05  -2.816926e+05
  -1.955443e+05  -1.287839e+05
  -1.518376e+04  -3.292266e+05
   4.570450e+05  -5.198650e+05
   8.468446e+05  -2.456328e+05
   6.922845e+05   4.463063e+05
  -8.515318e+04   9.465886e+05
  -9.996523e+05   6.779212e+05
  -1.321240e+06  -2.747769e+05
  -6.959301e+05  -1.180714e+06
   4.835432e+05  -1.323731e+06
   1.369740e+06  -6.404496e+05
   1.390373e+06   2.767801e+05
   7.072446e+05   7.687458e+05
  -3.100517e+04   6.883914e+05
  -3.348870e+05   4.267877e+05
  -2.523532e+05   4.116129e+05
  -1.766429e+05   6.220880e+05
  -3.681195e+05   6.323047e+05
  -6.791716e+05   1.322520e+05
  -7.169968e+05  -6.481523e+05
  -2.736797e+05  -1.096758e+06
   3.940023e+05  -8.119396e+05
   7.470817e+05  -7.487837e+03
   4.808392e+05   6.833385e+05
  -1.463909e+05   7.800283e+05
  -5.565490e+05   3.287277e+05
  -4.374780e+05  -2.328417e+05
  -3.573003e+04  -5.118166e+05
   1.622369e+05  -4.590509e+05
  -7.708029e+03  -2.990379e+05
  -2.101242e+05  -2.319297e+05
  -7.518945e+03  -2.313107e+05
   6.013399e+05  -1.206965e+05
   1.090866e+06   1.875897e+05
   9.038338e+05   5.596468e+05
   5.432474e+04   7.442094e+05
  -8.090060e+05   5.947216e+05
  -1.008525e+06   2.010815e+05
  -5.043264e+05  -1.668977e+05
   1.067839e+05  -2.600129e+05
   2.569930e+05  -6.281261e+04
  -3.102918e+04   1.626915e+05
  -2.995551e+05   1.136153e+05
  -2.516943e+05  -2.078564e+05
  -3.517748e+04  -4.433265e+05
   4.273207e+04  -2.815128e+05
  -9.004079e+04   1.147492e+05
  -2.336654e+05   2.424176e+05
  -1.679364e+05  -1.224894e+05
   1.433152e+05  -5.873467e+05
   5.218868e+05  -5.733574e+05
   6.655584e+05  -1.627411e+04
   3.592036e+05   5.377410e+05
  -2.557641e+05   5.537853e+05
  -6.589089e+05   7.880350e+04
  -3.927228e+05  -3.713623e+05
   3.890922e+05  -3.766889e+05
   9.486518e+05   3.094652e+04
   6.850096e+05   4.870148e+05
  -2.031095e+05   6.355377e+05
  -8.928693e+05   3.807894e+05
  -7.891893e+05  -6.068389e+04
  -1.171591e+05  -3.200277e+05
   3.667134e+05  -1.900408e+05
   1.869146e+05   1.449181e+05
  -3.874373e+05   2.442482e+05
  -6.683755e+05  -1.371285e+05
  -2.783363e+05  -7.268082e+05
   4.732394e+05  -9.310298e+05
   9.209146e+05  -4.148037e+05
   7.033942e+05   5.005964e+05
   6.461607e+04   1.062872e+06
  -4.590005e+05   7.834903e+05
  -5.507744e+05  -6.378509e+04
  -2.873145e+05  -6.927876e+05
   6.927707e+04  -6.033288e+05
   3.044860e+05  -7.184724e+04
   3.195776e+05   2.416168e+05
   1.550508e+05   1.035862e+05
   7.194412e+03  -7.455617e+04
   6.853178e+04   1.329442e+05
   2.438471e+05   5.536819e+05
   1.641065e+05   6.473158e+05
  -3.383213e+05   2.305820e+05
  -8.612741e+05  -3.042465e+05
  -7.977768e+05  -5.147574e+05
  -1.013791e+05  -3.946329e+05
   5.665765e+05  -2.166755e+05
   5.994537e+05  -1.078977e+05
   1.570812e+05   1.305029e+03
  -1.142388e+05   1.214625e+05
   4.506587e+04   1.554190e+05
   2.271869e+05   1.023698e+05
  -2.987407e+03   8.160422e+04
  -4.701610e+05   8.987469e+04
  -5.961576e+05  -5.638210e+04
  -1.211949e+05  -3.981129e+05
   5.909080e+05  -6.129487e+05
   9.531990e+05  -3.362843e+05
   7.107027e+05   3.307528e+05
   8.964405e+04   8.340706e+05
  -4.614632e+05   7.492232e+05
  -6.190853e+05   2.312520e+05
  -3.826605e+05  -1.935131e+05
  -3.598429e+04  -2.086641e+05
   1.055907e+05   7.970124e+03
  -2.396287e+04   5.773363e+04
  -1.983620e+05  -1.987757e+05
  -1.509079e+05  -4.743954e+05
   1.371161e+05  -3.728319e+05
   4.047784e+05   1.378894e+05
   3.570602e+05   6.195220e+05
  -4.216737e+04   5.919968e+05
  -4.853108e+05   5.266314e+04
  -5.535110e+05  -5.111149e+05
  -1.226277e+05  -6.362738e+05
   4.434431e+05  -3.183306e+05
   6.094521e+05   9.648407e+04
   2.499254e+05   3.216667e+05
  -1.800321e+05   3.202874e+05
  -1.728732e+05   1.877256e+05
   2.044275e+05   3.844874e+04
   3.924408e+05   7.497779e+03
   5.363384e+04   1.700471e+05
  -4.980217e+05   3.762542e+05
  -6.918810e+05   3.218132e+05
  -3.739131e+05  -7.632746e+04
   8.770144e+04  -4.750783e+05
   2.908899e+05  -4.530825e+05
   1.884906e+05  -3.601214e+04
  -1.714197e+04   3.037820e+05
  -1.631163e+05   2.101731e+05
  -2.016542e+05  -1.512892e+05
  -1.199147e+05  -3.436209e+05
   5.835389e+04  -1.945075e+05
   2.221180e+05   6.240168e+04
   2.472249e+05   1.384231e+05
   1.367945e+05   2.890388e+04
   1.222811e+04  -4.407606e+04
  -4.643605e+04   6.227352e+04
  -8.151661e+04   2.397334e+05
  -1.550917e+05   2.545921e+05
  -2.255924e+05   1.455258e+04
  -1.784227e+05  -2.993998e+05
   2.881377e+04  -3.872300e+05
   2.739794e+05  -1.406731e+05
   3.372314e+05   2.195510e+05
   9.934129e+04   3.614715e+05
  -2.881938e+05   1.865210e+05
  -4.743386e+05  -9.695285e+04
  -2.480766e+05  -2.351227e+05
   1.826248e+05  -1.803649e+05
   3.618258e+05  -6.001301e+04
   1.020391e+05   6.598903e+03
  -2.630912e+05  -1.654398e+04
  -2.573293e+05  -1.124181e+05
   1.567161e+05  -1.997445e+05
   5.203907e+05  -1.296282e+05
