
 $NMID
 id='ANONYMOUS ', fmtdat='(2E16.6)'
 volume=1.0
 tramp=1.0
 $END
   5.882005e+07   5.568483e+05
   3.478593e+07   3.718676e+07
  -8.556044e+06   3.982143e+07
  -2.907816e+07   1.452587e+07
  -1.687642e+07  -7.958907e+06
   3.786956e+06  -9.641491e+06
   1.013222e+07   1.700811e+06
   2.488918e+06   1.023565e+07
  -6.721490e+06   9.339345e+06
  -1.001883e+07   1.730202e+06
  -7.130412e+06  -6.470954e+06
  -7.675602e+05  -8.811328e+06
   4.114995e+06  -2.849392e+06
   2.623659e+06   5.460054e+06
  -3.994134e+06   6.526064e+06
  -8.106854e+06  -1.595204e+06
  -4.402928e+06  -1.063536e+07
   4.116554e+06  -1.214936e+07
   1.056337e+07  -6.030734e+06
   1.126237e+07   2.175129e+06
   6.955114e+06   7.864025e+06
   7.158671e+05   9.177249e+06
  -3.253336e+06   6.429536e+06
  -2.278418e+06   2.684540e+06
   9.477356e+05   1.921012e+06
   3.518303e+05   4.074949e+06
  -5.347101e+06   4.517747e+06
  -9.802195e+06   6.061842e+05
  -7.264367e+06  -4.199427e+06
  -4.095672e+05  -5.244747e+06
   3.664604e+06  -2.774612e+06
   2.569261e+06  -2.227437e+05
  -3.525407e+05   8.114215e+05
  -2.046417e+06   5.711672e+05
  -2.205407e+06  -1.233075e+06
  -8.627929e+05  -3.891229e+06
   1.802078e+06  -4.032996e+06
   3.485349e+06  -6.556767e+03
   1.917191e+06   3.803831e+06
  -8.278763e+05   2.189861e+06
  -4.657830e+05  -2.348456e+06
   2.482191e+06  -2.269808e+06
   2.444090e+06   3.365760e+06
  -2.727770e+06   6.332830e+06
  -7.400827e+06   9.184672e+05
  -5.289077e+06  -7.343270e+06
   2.152724e+06  -8.892545e+06
   7.751295e+06  -2.437262e+06
   7.039080e+06   4.660190e+06
   1.726953e+06   6.169819e+06
  -3.592951e+06   2.650620e+06
  -5.265129e+06  -1.693500e+06
  -2.324417e+06  -3.615538e+06
   2.578969e+06  -2.192446e+06
   4.651535e+06   1.057448e+06
   1.936793e+06   2.863197e+06
  -1.806885e+06   1.390069e+06
  -1.722609e+06  -1.080714e+06
   1.464689e+06  -8.469961e+05
   2.511661e+06   2.006398e+06
  -8.535573e+05   3.660373e+06
  -4.975669e+06   1.871390e+06
  -5.488495e+06  -1.584653e+06
  -2.305012e+06  -4.196194e+06
   1.864846e+06  -5.397606e+06
   5.069155e+06  -4.945638e+06
   6.322488e+06  -1.809736e+06
   4.738681e+06   3.213015e+06
   9.678379e+05   6.305620e+06
  -1.995701e+06   4.812008e+06
  -1.863290e+06   1.102646e+06
  -7.898467e+04  -3.965590e+05
   2.192598e+05   9.665259e+05
  -1.480938e+06   1.908232e+06
  -2.814436e+06   3.876902e+05
  -2.100615e+06  -1.825359e+06
  -1.232155e+05  -2.105429e+06
   1.465877e+06  -2.360150e+05
   1.648680e+06   2.016798e+06
   2.782950e+04   2.928305e+06
  -2.779926e+06   1.715249e+06
  -4.580604e+06  -1.165377e+06
  -3.339865e+06  -3.860101e+06
   3.940521e+04  -4.399122e+06
   2.398865e+06  -2.827640e+06
   2.360447e+06  -1.139003e+06
   1.899480e+06  -6.295195e+05
   2.975239e+06  -4.169689e+05
   4.371889e+06   8.292130e+05
   3.477948e+06   2.822125e+06
   9.433800e+04   4.143069e+06
  -3.227196e+06   3.896877e+06
  -4.174073e+06   2.146905e+06
  -2.682887e+06  -3.768092e+05
  -3.339342e+05  -2.230436e+06
   1.066321e+06  -1.970258e+06
   5.748777e+05   1.684812e+04
  -1.082192e+06   1.322205e+06
  -1.935987e+06   3.960099e+05
  -9.500173e+05  -1.230631e+06
   5.052051e+05  -1.115905e+06
   3.864718e+05   3.993490e+05
  -1.136435e+06   6.239640e+05
  -1.846764e+06  -1.455342e+06
  -4.856005e+05  -3.598652e+06
   1.795624e+06  -3.334887e+06
   3.213148e+06  -9.183540e+05
   3.220155e+06   1.573968e+06
   2.154409e+06   2.759416e+06
   4.055896e+05   2.566556e+06
  -1.234708e+06   1.454806e+06
  -1.572340e+06   2.345639e+05
  -4.945013e+05  -4.951167e+04
   3.522120e+05   7.609514e+05
  -4.459397e+05   1.363545e+06
  -1.959657e+06   5.665415e+05
  -2.053789e+06  -9.445882e+05
  -3.560104e+05  -1.454288e+06
   1.193892e+06  -5.529705e+05
   8.620087e+05   4.694353e+05
  -8.774938e+05   4.670556e+05
  -2.146534e+06  -3.991595e+05
  -1.667192e+06  -1.377844e+06
   3.035859e+05  -1.927253e+06
   2.326078e+06  -1.602565e+06
   2.782561e+06  -2.380912e+05
   1.216045e+06   1.302018e+06
  -9.531351e+05   1.531597e+06
  -1.606185e+06   1.826346e+05
  -2.103224e+05  -1.109337e+06
   1.541520e+06  -7.351002e+05
   1.718956e+06   8.201808e+05
   2.913516e+05   1.669424e+06
  -1.134604e+06   9.382566e+05
  -1.250941e+06  -3.669830e+05
  -2.084482e+05  -8.019132e+05
   8.229364e+05  -4.018886e+04
   7.417483e+05   1.074450e+06
  -5.837890e+05   1.437457e+06
  -2.025257e+06   5.428871e+05
  -2.049455e+06  -1.069252e+06
  -3.688719e+05  -2.099750e+06
   1.479003e+06  -1.642099e+06
   1.746036e+06  -1.814521e+05
   4.826633e+05   8.871258e+05
  -6.790308e+05   7.932210e+05
  -6.193423e+05   7.372971e+04
   1.378269e+05  -3.262526e+05
   4.667787e+05  -1.704419e+05
   6.621292e+04   5.444511e+04
  -4.770601e+05  -1.327351e+05
  -4.949658e+05  -7.207729e+05
   2.489259e+05  -1.198327e+06
   1.410630e+06  -8.794985e+05
   2.092105e+06   4.418335e+05
   1.459665e+06   1.972277e+06
  -2.380442e+05   2.426324e+06
  -1.630936e+06   1.379556e+06
  -1.669459e+06  -1.617358e+05
  -8.143223e+05  -8.817640e+05
  -3.035194e+05  -5.959051e+05
  -5.120620e+05  -1.884253e+05
  -6.656207e+05  -3.370355e+05
  -8.875007e+04  -7.951156e+05
   9.017966e+05  -8.898071e+05
   1.450043e+06  -2.919234e+05
   1.019357e+06   7.269835e+05
  -2.824859e+05   1.430603e+06
  -1.735837e+06   1.038276e+06
  -2.241391e+06  -5.125973e+05
  -1.100460e+06  -2.127390e+06
   1.067762e+06  -2.370189e+06
   2.587915e+06  -9.902297e+05
   2.340004e+06   7.172493e+05
   9.017674e+05   1.353661e+06
  -2.389877e+05   9.074971e+05
  -3.656074e+05   4.741993e+05
  -3.389852e+04   7.641089e+05
  -9.118144e+04   1.346414e+06
  -6.948837e+05   1.313526e+06
  -1.320193e+06   3.169826e+05
  -1.344553e+06  -1.093624e+06
  -5.496583e+05  -1.907118e+06
   6.314026e+05  -1.440323e+06
   1.288542e+06   1.922275e+04
   7.957465e+05   1.312010e+06
  -4.297474e+05   1.401354e+06
  -1.199889e+06   3.659903e+05
  -8.104415e+05  -7.544711e+05
   1.664836e+05  -1.104399e+06
   5.863222e+05  -7.737725e+05
   1.046887e+05  -3.998687e+05
  -4.415177e+05  -3.319194e+05
  -6.283434e+04  -3.822184e+05
   1.170588e+06  -1.958936e+05
   2.091475e+06   3.598572e+05
   1.617393e+06   1.069306e+06
  -7.616968e+04   1.460609e+06
  -1.637738e+06   1.141730e+06
  -1.853631e+06   2.451145e+05
  -8.225518e+05  -5.378369e+05
   2.816603e+05  -5.857581e+05
   5.233021e+05  -1.501884e+04
   3.774474e+04   4.455723e+05
  -4.355205e+05   2.643557e+05
  -4.866908e+05  -3.460982e+05
  -2.787573e+05  -7.219756e+05
  -1.199556e+05  -4.819134e+05
  -1.344132e+05   7.538135e+04
  -2.598489e+05   2.694949e+05
  -2.697818e+05  -2.381962e+05
   1.334738e+05  -9.819123e+05
   9.119288e+05  -1.071954e+06
   1.404979e+06  -1.860178e+05
   8.859759e+05   9.246553e+05
  -4.246424e+05   1.170767e+06
  -1.287703e+06   3.605080e+05
  -7.402506e+05  -5.702252e+05
   7.171310e+05  -6.410527e+05
   1.581243e+06   1.229793e+05
   9.638132e+05   8.800891e+05
  -5.219015e+05   9.633161e+05
  -1.498238e+06   4.273849e+05
  -1.207756e+06  -2.218482e+05
  -1.153707e+05  -5.090203e+05
   6.574529e+05  -2.507077e+05
   3.946630e+05   3.085767e+05
  -5.755589e+05   5.400914e+05
  -1.194272e+06  -5.967846e+04
  -7.043588e+05  -1.177877e+06
   5.594955e+05  -1.726970e+06
   1.476610e+06  -9.137469e+05
   1.264229e+06   7.495270e+05
   2.062594e+05   1.792453e+06
  -7.448275e+05   1.279050e+06
  -9.205122e+05  -2.025435e+05
  -4.047279e+05  -1.199895e+06
   2.541377e+05  -9.523406e+05
   5.734119e+05  -6.845779e+04
   4.435387e+05   3.734246e+05
   1.378754e+05   1.283859e+05
   5.879981e+04  -8.669390e+04
   3.175157e+05   3.177858e+05
   5.237009e+05   9.800983e+05
   1.567871e+05   1.075095e+06
  -7.556048e+05   3.865783e+05
  -1.474358e+06  -4.680491e+05
  -1.251953e+06  -8.404784e+05
  -1.802768e+05  -7.082362e+05
   8.290059e+05  -4.254328e+05
   9.770440e+05  -1.717355e+05
   3.855793e+05   7.230259e+04
  -1.349482e+05   2.304878e+05
  -6.947277e+04   1.865997e+05
   2.301652e+05   7.210054e+04
   6.611478e+04   1.323026e+05
  -6.247221e+05   2.564143e+05
  -1.058523e+06   4.064641e+03
  -4.946810e+05  -7.043911e+05
   8.056453e+05  -1.214772e+06
   1.734737e+06  -7.971575e+05
   1.472699e+06   4.067182e+05
   3.011321e+05   1.407643e+06
  -7.755138e+05   1.401721e+06
  -1.055659e+06   5.754984e+05
  -6.567848e+05  -2.068388e+05
  -1.544275e+05  -3.616475e+05
   3.688320e+04  -9.325342e+04
  -9.311348e+04  -1.080403e+04
  -2.850944e+05  -3.796390e+05
  -2.375189e+05  -8.115303e+05
   1.676743e+05  -6.945568e+05
   6.803922e+05   8.775231e+04
   7.787394e+05   9.253831e+05
   1.717328e+05   1.044758e+06
  -7.329736e+05   2.983337e+05
  -1.064970e+06  -6.784942e+05
  -3.891064e+05  -1.097493e+06
   7.061760e+05  -7.208244e+05
   1.148557e+06   5.281778e+04
   5.637464e+05   6.410310e+05
  -2.870641e+05   7.235833e+05
  -4.129693e+05   3.815179e+05
   2.123847e+05  -9.965821e+03
   6.441609e+05  -5.298918e+04
   1.636322e+05   3.168025e+05
  -8.244964e+05   6.865946e+05
  -1.294247e+06   5.259717e+05
  -8.061424e+05  -2.031269e+05
   8.536124e+04  -8.921326e+05
   5.817202e+05  -8.821889e+05
   4.669137e+05  -1.936691e+05
   8.091990e+04   4.671080e+05
  -2.296316e+05   4.628785e+05
  -3.559712e+05  -1.091472e+05
  -2.685475e+05  -5.775053e+05
   3.999003e+04  -4.637287e+05
   3.967789e+05   2.468220e+04
   4.937587e+05   3.022334e+05
   2.447556e+05   1.163739e+05
  -5.299793e+04  -1.794898e+05
  -8.167989e+04  -1.002666e+05
   6.715993e+04   3.354309e+05
   2.545082e+04   5.976024e+05
  -2.989488e+05   2.909872e+05
  -5.167202e+05  -3.353173e+05
  -2.312461e+05  -6.478377e+05
   3.893481e+05  -3.415967e+05
   6.990302e+05   2.490092e+05
   2.835439e+05   5.604152e+05
  -5.174915e+05   3.805363e+05
  -9.132320e+05  -4.776325e+04
  -4.993558e+05  -3.732407e+05
   2.914743e+05  -4.354558e+05
   6.522977e+05  -2.729477e+05
   2.815720e+05  -2.683313e+04
  -3.083563e+05   1.060525e+05
  -3.975773e+05  -1.548579e+04
   1.302174e+05  -2.726152e+05
   6.897316e+05  -2.891163e+05
