
 $NMID
 id='ANONYMOUS ', fmtdat='(2E16.6)'
 volume=1.0
 tramp=1.0
 $END
  -2.789246e+07   1.318330e+06
  -1.946364e+07  -1.293774e+07
  -4.840572e+05  -1.820486e+07
   1.215871e+07  -1.193947e+07
   1.033233e+07  -8.993963e+05
   5.694164e+05   5.192596e+06
  -5.782240e+06   2.366129e+06
  -4.212630e+06  -4.617604e+06
   1.451814e+06  -7.617773e+06
   5.284452e+06  -3.387999e+06
   4.557640e+06   3.462350e+06
   6.834129e+05   5.706986e+06
  -2.572252e+06   1.303654e+06
  -2.108628e+06  -4.627731e+06
   1.634815e+06  -5.584443e+06
   4.720776e+06  -5.587932e+05
   3.588129e+06   5.432159e+06
  -1.108498e+06   7.001320e+06
  -5.210873e+06   3.513477e+06
  -5.471591e+06  -1.311212e+06
  -2.587345e+06  -3.713971e+06
   6.737375e+04  -3.171247e+06
   6.915806e+04  -1.947058e+06
  -1.749399e+06  -2.210583e+06
  -2.240171e+06  -3.768898e+06
   6.814199e+05  -4.452074e+06
   5.295674e+06  -2.624193e+06
   7.232144e+06   8.415145e+05
   4.120417e+06   3.296753e+06
  -1.301067e+06   2.943059e+06
  -3.814578e+06   4.647753e+05
  -1.443509e+06  -1.809070e+06
   2.599594e+06  -1.944078e+06
   3.952503e+06   2.198315e+05
   1.856056e+06   2.959276e+06
  -9.011683e+05   3.823648e+06
  -1.748904e+06   1.801609e+06
  -7.447970e+05  -1.196819e+06
   4.023111e+05  -1.886552e+06
   3.976733e+05   5.761206e+05
  -7.632848e+05   3.101587e+06
  -2.024688e+06   2.200495e+06
  -1.982666e+06  -1.436755e+06
  -1.021856e+05  -3.473035e+06
   2.258493e+06  -1.273399e+06
   2.613387e+06   2.781645e+06
  -9.632522e+04   4.197669e+06
  -3.838825e+06   1.538399e+06
  -5.077221e+06  -2.429090e+06
  -2.319741e+06  -4.163338e+06
   2.168071e+06  -2.712858e+06
   4.463374e+06   1.672431e+05
   2.793142e+06   2.072961e+06
  -8.435164e+05   1.819632e+06
  -2.842611e+06   8.992122e+04
  -1.663317e+06  -1.264967e+06
   8.186953e+05  -9.357486e+05
   1.624433e+06   5.267441e+05
   3.455280e+04   1.337988e+06
  -1.751549e+06   5.164460e+05
  -1.310660e+06  -1.049176e+06
   1.135065e+06  -1.654912e+06
   2.933372e+06  -5.055136e+05
   1.916262e+06   1.702346e+06
  -1.323631e+06   3.402302e+06
  -4.135392e+06   3.162431e+06
  -4.457830e+06   7.034467e+05
  -2.557122e+06  -2.552544e+06
  -3.341679e+05  -4.367998e+06
   7.206270e+05  -3.762583e+06
   7.379842e+05  -2.012816e+06
   8.434770e+05  -1.039553e+06
   1.661061e+06  -1.048184e+06
   2.613459e+06  -5.660914e+05
   2.602978e+06   1.163383e+06
   1.192082e+06   2.776602e+06
  -8.852029e+05   2.357752e+06
  -2.216695e+06  -9.934484e+04
  -1.750370e+06  -2.489756e+06
   3.196173e+05  -2.772483e+06
   2.498522e+06  -8.833232e+05
   3.089839e+06   1.503664e+06
   1.730352e+06   2.699473e+06
  -2.209190e+05   2.355360e+06
  -1.146475e+06   1.401456e+06
  -9.834659e+05   9.047586e+05
  -1.139320e+06   9.926204e+05
  -2.462378e+06   8.340520e+05
  -3.807977e+06  -3.472162e+05
  -3.181007e+06  -2.289656e+06
  -2.118213e+05  -3.752737e+06
   3.046243e+06  -3.546740e+06
   4.049138e+06  -1.586521e+06
   2.286651e+06   8.934896e+05
  -3.204171e+05   2.183541e+06
  -1.423805e+06   1.497770e+06
  -4.488368e+05  -2.184428e+05
   1.155706e+06  -1.099682e+06
   1.613527e+06  -3.057865e+05
   5.931847e+05   9.992958e+05
  -6.544737e+05   1.032976e+06
  -7.270814e+05  -3.176325e+05
   4.951046e+05  -1.192249e+06
   1.772121e+06  -1.019005e+04
   1.688545e+06   2.448978e+06
  -8.260980e+04   3.741868e+06
  -2.460128e+06   2.405268e+06
  -3.744476e+06  -5.427916e+05
  -2.942445e+06  -2.758372e+06
  -6.568638e+05  -2.852045e+06
   1.316163e+06  -1.411033e+06
   1.575529e+06  -8.720407e+04
   4.624435e+05   4.452158e+04
  -3.511069e+05  -6.881356e+05
   2.433856e+05  -1.122090e+06
   1.516477e+06  -5.458646e+05
   1.791053e+06   5.750948e+05
   5.010003e+05   1.141758e+06
  -1.027299e+06   6.194501e+05
  -1.029912e+06  -4.026458e+05
   6.658733e+05  -8.246763e+05
   2.340540e+06  -1.002270e+05
   2.142777e+06   1.279625e+06
   1.434912e+04   2.200312e+06
  -2.222473e+06   1.828002e+06
  -2.659500e+06   3.501828e+05
  -1.127326e+06  -1.058159e+06
   7.507855e+05  -1.222248e+06
   1.228276e+06  -1.509859e+05
   7.964514e+04   8.781903e+05
  -1.362776e+06   6.540388e+05
  -1.638467e+06  -6.122848e+05
  -5.328708e+05  -1.531605e+06
   8.569990e+05  -1.141514e+06
   1.258025e+06   3.221301e+04
   4.306052e+05   6.569277e+05
  -6.225609e+05   1.050741e+05
  -6.413379e+05  -9.409877e+05
   5.846474e+05  -1.290285e+06
   1.889456e+06  -4.369744e+05
   1.864051e+06   1.010614e+06
   3.668537e+05   1.903722e+06
  -1.259656e+06   1.545892e+06
  -1.586966e+06   2.907153e+05
  -5.652686e+05  -7.707275e+05
   5.681069e+05  -8.165318e+05
   7.122912e+05  -5.735114e+04
  -2.064125e+04   5.578974e+05
  -6.445479e+05   4.093536e+05
  -4.586074e+05  -1.403465e+05
   2.613529e+05  -2.418895e+05
   6.103794e+05   3.903089e+05
  -8.973464e+03   1.084087e+06
  -1.229809e+06   9.020178e+05
  -1.957152e+06  -3.426453e+05
  -1.374425e+06  -1.803495e+06
   2.007589e+05  -2.328393e+06
   1.556040e+06  -1.498517e+06
   1.766149e+06  -3.285521e+03
   1.049219e+06   1.007969e+06
   3.566171e+05   9.873788e+05
   2.449591e+05   4.206818e+05
   3.673539e+05   1.925705e+05
   6.572040e+04   5.665527e+05
  -7.495249e+05   9.022249e+05
  -1.419649e+06   4.377562e+05
  -1.165295e+06  -7.299908e+05
   1.279129e+05  -1.583155e+06
   1.652798e+06  -1.163379e+06
   2.211206e+06   4.105168e+05
   1.200762e+06   1.948587e+06
  -7.627658e+05   2.239537e+06
  -2.271569e+06   1.125866e+06
  -2.329822e+06  -4.226070e+05
  -1.182863e+06  -1.269695e+06
   5.795424e+04  -1.136195e+06
   5.427215e+05  -6.875185e+05
   3.676007e+05  -6.671720e+05
   2.287247e+05  -1.042776e+06
   5.700641e+05  -1.084938e+06
   1.124937e+06  -2.653687e+05
   1.221947e+06   1.035645e+06
   5.051864e+05   1.802700e+06
  -6.134498e+05   1.360427e+06
  -1.239394e+06   3.831251e+04
  -8.311621e+05  -1.127620e+06
   2.208006e+05  -1.317059e+06
   9.435951e+05  -5.690280e+05
   7.664019e+05   3.935461e+05
   7.784686e+04   8.830180e+05
  -2.779082e+05   7.884397e+05
   8.020519e+03   4.932363e+05
   3.643171e+05   3.651748e+05
   2.767780e+04   3.819673e+05
  -1.008474e+06   2.368234e+05
  -1.844024e+06  -2.545389e+05
  -1.536306e+06  -8.978677e+05
  -1.156566e+05  -1.259852e+06
   1.331687e+06  -1.046091e+06
   1.679715e+06  -3.747195e+05
   8.554716e+05   2.802972e+05
  -1.648337e+05   4.557068e+05
  -4.386701e+05   1.136869e+05
   2.098575e+04  -2.816372e+05
   4.782621e+05  -2.065280e+05
   4.329537e+05   3.267165e+05
   9.715698e+04   7.157194e+05
  -4.093376e+04   4.546753e+05
   1.526647e+05  -1.847884e+05
   3.801136e+05  -3.890984e+05
   2.888851e+05   2.062223e+05
  -2.063584e+05   9.779612e+05
  -8.440645e+05   9.842979e+05
  -1.121777e+06   8.417945e+04
  -6.437061e+05  -8.619234e+05
   3.862078e+05  -9.499209e+05
   1.090171e+06  -1.908549e+05
   6.703186e+05   5.883322e+05
  -6.333750e+05   6.461593e+05
  -1.577227e+06  -1.798205e+04
  -1.144168e+06  -7.977206e+05
   3.331311e+05  -1.066501e+06
   1.479169e+06  -6.488152e+05
   1.308247e+06   8.854064e+04
   1.972860e+05   5.284846e+05
  -6.078215e+05   3.241631e+05
  -3.248509e+05  -2.340875e+05
   6.181022e+05  -4.250389e+05
   1.106784e+06   1.821356e+05
   5.076164e+05   1.172662e+06
  -7.130830e+05   1.559182e+06
  -1.485910e+06   7.400819e+05
  -1.186898e+06  -7.849237e+05
  -1.609613e+05  -1.751298e+06
   7.283293e+05  -1.311520e+06
   9.214711e+05   9.299326e+04
   4.981600e+05   1.145649e+06
  -1.099803e+05   1.005502e+06
  -5.123226e+05   1.287079e+05
  -5.272779e+05  -3.922990e+05
  -2.447955e+05  -1.700602e+05
  -1.508922e+04   1.227196e+05
  -1.435858e+05  -2.131245e+05
  -4.390107e+05  -9.034510e+05
  -2.849950e+05  -1.070600e+06
   5.682524e+05  -4.072292e+05
   1.437479e+06   4.626995e+05
   1.331986e+06   8.237314e+05
   1.883430e+05   6.540049e+05
  -9.136461e+05   3.801249e+05
  -9.865120e+05   1.999480e+05
  -2.770604e+05   5.798587e+03
   1.759503e+05  -2.037910e+05
  -6.346327e+04  -2.584947e+05
  -3.594962e+05  -1.629587e+05
  -3.491947e+03  -1.316855e+05
   7.534895e+05  -1.662627e+05
   9.882884e+05   5.757816e+04
   2.462808e+05   6.384773e+05
  -9.234605e+05   1.043066e+06
  -1.561702e+06   6.260788e+05
  -1.207194e+06  -4.859147e+05
  -1.971069e+05  -1.368566e+06
   7.256493e+05  -1.273765e+06
   1.006668e+06  -4.261819e+05
   6.351362e+05   2.947497e+05
   7.638156e+04   3.400041e+05
  -1.553982e+05  -8.520067e+03
   4.999629e+04  -8.995273e+04
   3.346257e+05   3.296827e+05
   2.666213e+05   7.822562e+05
  -2.027856e+05   6.236953e+05
  -6.652787e+05  -1.999868e+05
  -6.237406e+05  -9.884066e+05
   1.985409e+04  -9.693513e+05
   7.787226e+05  -1.209449e+05
   9.375715e+05   7.972714e+05
   2.483556e+05   1.039101e+06
  -7.055287e+05   5.605541e+05
  -1.018334e+06  -1.169613e+05
  -4.469955e+05  -5.239101e+05
   2.728553e+05  -5.546864e+05
   2.872237e+05  -3.311088e+05
  -3.226781e+05  -5.575863e+04
  -6.451325e+05   8.803873e+03
  -1.052573e+05  -2.777977e+05
   8.045594e+05  -6.472709e+05
   1.146143e+06  -5.677760e+05
   6.442423e+05   1.063988e+05
  -1.136275e+05   7.946316e+05
  -4.642052e+05   7.798910e+05
  -3.166159e+05   9.044713e+04
   8.081293e+03  -4.923157e+05
   2.501355e+05  -3.627049e+05
   3.323135e+05   2.270202e+05
   2.189748e+05   5.598393e+05
  -7.402910e+04   3.338707e+05
  -3.669414e+05  -8.507858e+04
  -4.268641e+05  -2.205999e+05
  -2.337653e+05  -4.765554e+04
  -4.643108e+03   7.883431e+04
   8.837907e+04  -8.541284e+04
   1.101848e+05  -3.798914e+05
   2.073548e+05  -4.249255e+05
   3.470772e+05  -5.377195e+04
   3.172744e+05   4.575506e+05
  -5.063315e+03   6.234334e+05
  -4.342498e+05   2.496161e+05
  -5.724079e+05  -3.296975e+05
  -1.871673e+05  -5.826907e+05
   4.688305e+05  -3.292862e+05
   7.930162e+05   1.228527e+05
   4.265532e+05   3.717684e+05
  -2.846692e+05   3.174008e+05
  -5.888771e+05   1.334833e+05
  -1.771073e+05   4.877616e+03
   4.137650e+05   1.343924e+04
   4.148804e+05   1.611485e+05
  -2.428016e+05   3.213649e+05
  -8.333320e+05   2.297906e+05
