
 $NMID
 id='ANONYMOUS ', fmtdat='(2E16.6)'
 volume=1.0
 tramp=1.0
 $END
   5.192198e+07  -2.744695e+06
   3.318226e+07   3.010555e+07
  -4.610454e+06   3.543197e+07
  -2.461898e+07   1.533303e+07
  -1.580519e+07  -5.206744e+06
   2.367514e+06  -8.835598e+06
   9.251639e+06   3.353945e+05
   3.345049e+06   8.877711e+06
  -5.123816e+06   9.259131e+06
  -8.883295e+06   2.561419e+06
  -6.853104e+06  -5.447864e+06
  -1.166652e+06  -8.058983e+06
   3.619386e+06  -2.698179e+06
   2.749580e+06   5.128821e+06
  -3.165705e+06   6.485666e+06
  -7.425629e+06  -7.331587e+05
  -4.725871e+06  -9.256712e+06
   2.858218e+06  -1.118973e+07
   9.064778e+06  -5.979913e+06
   1.006585e+07   1.421239e+06
   6.371257e+06   6.583053e+06
   1.006438e+06   7.803299e+06
  -2.228895e+06   5.605951e+06
  -1.278157e+06   2.700079e+06
   1.293812e+06   2.271067e+06
   3.117758e+05   4.109544e+06
  -5.087461e+06   4.330976e+06
  -9.159135e+06   7.564340e+05
  -6.746574e+06  -3.630326e+06
  -2.943851e+05  -4.690432e+06
   3.533513e+06  -2.427985e+06
   2.288382e+06   8.892738e+04
  -8.022991e+05   1.048024e+06
  -2.409676e+06   4.784426e+05
  -2.161703e+06  -1.489597e+06
  -6.599593e+05  -3.799980e+06
   1.578680e+06  -3.615129e+06
   2.869430e+06   7.109780e+04
   1.596986e+06   3.267884e+06
  -6.118083e+05   1.627505e+06
  -3.020366e+05  -2.465783e+06
   2.266199e+06  -2.358723e+06
   2.497618e+06   2.819834e+06
  -1.800533e+06   5.830655e+06
  -6.222250e+06   1.362371e+06
  -5.054510e+06  -6.068996e+06
   1.263813e+06  -7.953763e+06
   6.755460e+06  -2.612535e+06
   6.808851e+06   3.823735e+06
   2.138818e+06   5.632214e+06
  -3.148289e+06   2.821527e+06
  -5.151352e+06  -1.113391e+06
  -2.585367e+06  -3.161925e+06
   2.092146e+06  -2.227535e+06
   4.294054e+06   5.833624e+05
   2.006977e+06   2.414825e+06
  -1.519935e+06   1.372896e+06
  -1.743834e+06  -8.774660e+05
   1.102425e+06  -1.023187e+06
   2.443819e+06   1.337795e+06
  -2.031125e+05   3.136639e+06
  -4.041572e+06   2.068345e+06
  -4.998618e+06  -8.610429e+05
  -2.417942e+06  -3.531877e+06
   1.477322e+06  -5.030039e+06
   4.601538e+06  -4.775258e+06
   5.797578e+06  -1.865447e+06
   4.397147e+06   2.821539e+06
   1.128264e+06   5.806422e+06
  -1.484833e+06   4.659384e+06
  -1.567208e+06   1.383128e+06
  -2.685569e+05  -8.876559e+04
  -1.398367e+05   9.563039e+05
  -1.618839e+06   1.670625e+06
  -2.725133e+06   1.834580e+05
  -1.970315e+06  -1.916333e+06
  -2.960318e+02  -2.133866e+06
   1.604618e+06  -2.232558e+05
   1.748438e+06   2.032474e+06
   8.718716e+04   2.874085e+06
  -2.619839e+06   1.655789e+06
  -4.286440e+06  -1.011573e+06
  -3.161317e+06  -3.425935e+06
  -1.376497e+05  -3.937763e+06
   1.978014e+06  -2.625604e+06
   1.998904e+06  -1.200575e+06
   1.700246e+06  -7.959238e+05
   2.833241e+06  -6.431474e+05
   4.268435e+06   5.180742e+05
   3.527450e+06   2.531651e+06
   3.103138e+05   4.032954e+06
  -2.990384e+06   3.948632e+06
  -4.021720e+06   2.205988e+06
  -2.595958e+06  -3.603650e+05
  -2.937434e+05  -2.187732e+06
   1.043405e+06  -1.903249e+06
   5.433469e+05   3.345186e+04
  -1.030586e+06   1.315486e+06
  -1.837360e+06   4.638950e+05
  -9.253023e+05  -1.128596e+06
   4.834613e+05  -1.112647e+06
   4.754423e+05   3.656599e+05
  -9.698412e+05   7.981009e+05
  -1.898050e+06  -1.050379e+06
  -9.118680e+05  -3.319787e+06
   1.271215e+06  -3.496791e+06
   3.003245e+06  -1.382236e+06
   3.392691e+06   1.201671e+06
   2.435766e+06   2.650689e+06
   5.717251e+05   2.596171e+06
  -1.178192e+06   1.492866e+06
  -1.551881e+06   2.733122e+05
  -4.868818e+05  -2.531849e+04
   3.849261e+05   7.253732e+05
  -3.369373e+05   1.326144e+06
  -1.828368e+06   6.507916e+05
  -2.031315e+06  -7.658133e+05
  -4.523058e+05  -1.364457e+06
   1.127849e+06  -6.188892e+05
   9.149114e+05   4.156496e+05
  -8.094347e+05   5.829949e+05
  -2.198443e+06  -1.939718e+05
  -1.823016e+06  -1.277046e+06
   1.484645e+05  -1.991051e+06
   2.219667e+06  -1.748174e+06
   2.730259e+06  -3.879985e+05
   1.250723e+06   1.186550e+06
  -8.328715e+05   1.501294e+06
  -1.507612e+06   2.501864e+05
  -2.328277e+05  -1.043290e+06
   1.460936e+06  -7.847071e+05
   1.730662e+06   6.927826e+05
   4.176273e+05   1.619040e+06
  -1.028161e+06   1.029402e+06
  -1.264341e+06  -2.373770e+05
  -2.914116e+05  -7.590316e+05
   7.751534e+05  -9.250301e+04
   7.665238e+05   1.006178e+06
  -5.143487e+05   1.425281e+06
  -1.959839e+06   6.107290e+05
  -2.047654e+06  -9.561199e+05
  -4.632674e+05  -2.029270e+06
   1.348407e+06  -1.680931e+06
   1.694309e+06  -2.840091e+05
   5.380081e+05   8.359522e+05
  -6.161636e+05   8.249709e+05
  -6.321511e+05   9.656990e+04
   9.950508e+04  -3.815925e+05
   4.968074e+05  -2.404923e+05
   1.517849e+05   7.283400e+04
  -4.373535e+05  -2.806818e+04
  -5.526398e+05  -6.242291e+05
   1.404229e+05  -1.180586e+06
   1.324136e+06  -9.453872e+05
   2.072613e+06   3.216651e+05
   1.524554e+06   1.857959e+06
  -1.174196e+05   2.402644e+06
  -1.543674e+06   1.471665e+06
  -1.688921e+06  -5.034849e+04
  -8.986155e+05  -8.679669e+05
  -3.370826e+05  -6.620187e+05
  -4.591385e+05  -2.110856e+05
  -6.151483e+05  -2.714599e+05
  -1.219340e+05  -7.376236e+05
   8.232828e+05  -9.300531e+05
   1.423152e+06  -3.883879e+05
   1.078255e+06   6.776725e+05
  -1.834446e+05   1.469227e+06
  -1.661877e+06   1.139314e+06
  -2.246614e+06  -3.853331e+05
  -1.213996e+06  -2.028073e+06
   8.879020e+05  -2.380168e+06
   2.461948e+06  -1.133821e+06
   2.359426e+06   5.439382e+05
   1.018571e+06   1.289301e+06
  -1.597006e+05   9.632993e+05
  -3.812966e+05   5.320908e+05
  -6.906579e+04   7.379190e+05
  -5.611013e+04   1.277047e+06
  -6.026610e+05   1.289955e+06
  -1.256245e+06   3.658764e+05
  -1.361045e+06  -1.012830e+06
  -6.246925e+05  -1.848645e+06
   5.578378e+05  -1.443948e+06
   1.272155e+06  -5.205198e+04
   8.600056e+05   1.229485e+06
  -3.184051e+05   1.396742e+06
  -1.123660e+06   4.638112e+05
  -8.339209e+05  -6.361836e+05
   6.142565e+04  -1.060731e+06
   4.824085e+05  -8.018408e+05
   6.281423e+04  -4.230625e+05
  -4.375049e+05  -3.160940e+05
  -7.262593e+04  -3.767282e+05
   1.120786e+06  -2.583896e+05
   2.044339e+06   2.377682e+05
   1.641179e+06   9.524007e+05
   3.318854e+04   1.414915e+06
  -1.510632e+06   1.192163e+06
  -1.796000e+06   3.570128e+05
  -8.514958e+05  -4.430126e+05
   2.273758e+05  -5.686473e+05
   5.024795e+05  -6.052538e+04
   4.699233e+04   4.058221e+05
  -4.292357e+05   2.699948e+05
  -4.883199e+05  -3.171640e+05
  -2.716528e+05  -7.019863e+05
  -1.073272e+05  -4.663874e+05
  -1.349301e+05   1.042222e+05
  -2.727192e+05   3.043059e+05
  -2.837932e+05  -2.177836e+05
   1.030386e+05  -9.810143e+05
   8.426485e+05  -1.089683e+06
   1.327655e+06  -2.301108e+05
   8.723395e+05   8.634807e+05
  -3.586697e+05   1.136957e+06
  -1.220383e+06   3.829904e+05
  -7.469464e+05  -5.363095e+05
   6.659468e+05  -6.718156e+05
   1.577647e+06   2.781631e+04
   1.037343e+06   8.150756e+05
  -4.357216e+05   1.005052e+06
  -1.467938e+06   5.403766e+05
  -1.233401e+06  -1.381153e+05
  -1.550899e+05  -5.056803e+05
   6.324351e+05  -2.951789e+05
   3.923253e+05   2.725160e+05
  -5.556978e+05   5.384854e+05
  -1.170512e+06  -3.013301e+04
  -7.122879e+05  -1.136117e+06
   5.085937e+05  -1.705446e+06
   1.426714e+06  -9.387931e+05
   1.274247e+06   6.943008e+05
   2.775329e+05   1.763407e+06
  -6.789609e+05   1.312575e+06
  -9.256142e+05  -1.361824e+05
  -4.773928e+05  -1.163882e+06
   1.792472e+05  -9.710795e+05
   5.546800e+05  -1.075623e+05
   4.756164e+05   3.558674e+05
   1.652041e+05   1.312501e+05
   4.559123e+04  -9.685040e+04
   2.942760e+05   2.777454e+05
   5.480251e+05   9.335639e+05
   2.319731e+05   1.061925e+06
  -6.941238e+05   4.248168e+05
  -1.479301e+06  -3.966933e+05
  -1.300060e+06  -7.757102e+05
  -2.137646e+05  -6.844714e+05
   8.222546e+05  -4.503689e+05
   9.657962e+05  -2.211667e+05
   3.643669e+05   3.673856e+04
  -1.321098e+05   2.291962e+05
  -3.303469e+04   2.050656e+05
   2.587644e+05   8.164440e+04
   5.856149e+04   1.279034e+05
  -6.358851e+05   2.631675e+05
  -1.036801e+06   3.984417e+04
  -4.718987e+05  -6.615293e+05
   7.690054e+05  -1.206936e+06
   1.650090e+06  -8.369041e+05
   1.425686e+06   3.515416e+05
   3.418794e+05   1.376480e+06
  -6.953606e+05   1.402330e+06
  -1.011592e+06   5.891612e+05
  -6.570883e+05  -1.941424e+05
  -1.537133e+05  -3.472847e+05
   5.660939e+04  -7.177691e+04
  -8.486090e+04   1.525864e+04
  -3.117237e+05  -3.543444e+05
  -2.795330e+05  -7.901432e+05
   1.419270e+05  -6.828588e+05
   6.762598e+05   7.994247e+04
   7.829281e+05   8.965124e+05
   1.783953e+05   1.013109e+06
  -7.231630e+05   2.919575e+05
  -1.061572e+06  -6.500039e+05
  -4.075826e+05  -1.059690e+06
   6.675838e+05  -7.148846e+05
   1.116139e+06   1.253236e+04
   5.660889e+05   5.857639e+05
  -2.478591e+05   6.968926e+05
  -3.661648e+05   3.886387e+05
   2.333811e+05  -4.677205e+03
   6.377971e+05  -7.270988e+04
   1.651362e+05   2.986828e+05
  -7.838298e+05   7.120093e+05
  -1.231778e+06   5.920873e+05
  -7.772987e+05  -1.432287e+05
   4.931478e+04  -8.698960e+05
   5.122947e+05  -8.829777e+05
   4.225729e+05  -1.933759e+05
   8.266356e+04   4.651937e+05
  -2.105917e+05   4.492558e+05
  -3.527605e+05  -1.170109e+05
  -2.829719e+05  -5.577002e+05
   2.462410e+04  -4.350355e+05
   3.887078e+05   1.898568e+04
   4.912331e+05   2.600792e+05
   2.469324e+05   8.988008e+04
  -4.959572e+04  -1.541966e+05
  -8.891611e+04  -5.670741e+04
   4.407452e+04   3.381835e+05
   4.833416e+03   5.542186e+05
  -2.919205e+05   2.522213e+05
  -4.856030e+05  -3.338428e+05
  -2.096096e+05  -6.261522e+05
   3.801590e+05  -3.374625e+05
   6.787544e+05   2.316007e+05
   2.868347e+05   5.480598e+05
  -4.863573e+05   3.915195e+05
  -8.839498e+05  -2.065578e+04
  -4.980486e+05  -3.473357e+05
   2.674129e+05  -4.212506e+05
   6.213265e+05  -2.721042e+05
   2.563467e+05  -3.582779e+04
  -3.229577e+05   9.315833e+04
  -3.982530e+05  -2.832128e+04
   1.413649e+05  -2.862246e+05
   7.024040e+05  -3.049297e+05
