
 $NMID
 id='ANONYMOUS ', fmtdat='(2E16.6)'
 volume=1.0
 tramp=1.0
 $END
  -5.839711e+07  -4.301519e+05
  -3.527012e+07  -3.552671e+07
   7.201496e+06  -3.920548e+07
   2.835542e+07  -1.595391e+07
   1.746212e+07   6.363562e+06
  -2.992933e+06   9.705351e+06
  -1.033485e+07  -6.758892e+05
  -3.424218e+06  -1.006117e+07
   6.115384e+06  -1.028570e+07
   1.010823e+07  -2.530843e+06
   7.432608e+06   6.579680e+06
   8.336824e+05   9.252162e+06
  -4.292289e+06   2.782860e+06
  -2.857575e+06  -6.123241e+06
   3.909743e+06  -7.298126e+06
   8.331977e+06   1.179526e+06
   4.828362e+06   1.071543e+07
  -3.856900e+06   1.247432e+07
  -1.059188e+07   6.169529e+06
  -1.122643e+07  -2.313008e+06
  -6.621181e+06  -7.849509e+06
  -5.099907e+05  -8.712438e+06
   2.761297e+06  -5.973344e+06
   1.282585e+06  -2.962561e+06
  -1.572359e+06  -2.901600e+06
  -3.883665e+04  -4.930027e+06
   6.296656e+06  -4.626058e+06
   1.062785e+07  -1.535211e+05
   7.408684e+06   4.656530e+06
  -1.474686e+05   5.351959e+06
  -4.367436e+06   2.427923e+06
  -2.628517e+06  -4.600722e+05
   1.188952e+06  -1.352425e+06
   3.070172e+06  -4.048682e+05
   2.488767e+06   2.044339e+06
   4.103818e+05   4.556562e+06
  -2.111832e+06   3.968079e+06
  -3.150174e+06  -4.228736e+05
  -1.424557e+06  -3.817567e+06
   8.496190e+05  -1.609032e+06
   1.181872e+05   3.029246e+06
  -2.767136e+06   2.635809e+06
  -2.684250e+06  -3.290805e+06
   2.273173e+06  -6.415871e+06
   6.918449e+06  -1.135724e+06
   5.223859e+06   7.092433e+06
  -1.892896e+06   8.805768e+06
  -7.774804e+06   2.494779e+06
  -7.559413e+06  -4.749439e+06
  -2.197922e+06  -6.558544e+06
   3.732673e+06  -3.107830e+06
   5.885699e+06   1.485528e+06
   2.870328e+06   3.704343e+06
  -2.428864e+06   2.408105e+06
  -4.813344e+06  -8.752759e+05
  -2.153534e+06  -2.803464e+06
   1.784277e+06  -1.450211e+06
   1.975188e+06   1.079568e+06
  -1.200678e+06   1.136975e+06
  -2.653831e+06  -1.500349e+06
   2.945027e+05  -3.370319e+06
   4.528757e+06  -2.074614e+06
   5.545274e+06   1.172335e+06
   2.545233e+06   4.077654e+06
  -2.031557e+06   5.651874e+06
  -5.661396e+06   5.184634e+06
  -6.801517e+06   1.717382e+06
  -4.803600e+06  -3.575323e+06
  -8.904119e+05  -6.743403e+06
   1.917087e+06  -5.274170e+06
   1.787003e+06  -1.603650e+06
   3.431853e+05  -4.937804e+04
   4.029334e+05  -1.185535e+06
   2.156612e+06  -1.777045e+06
   3.246596e+06   9.899645e+04
   2.148502e+06   2.486528e+06
  -2.114383e+05   2.560409e+06
  -1.978879e+06   1.556566e+05
  -1.961112e+06  -2.535925e+06
   9.948877e+04  -3.383042e+06
   3.176717e+06  -1.713628e+06
   4.863999e+06   1.509176e+06
   3.351419e+06   4.152981e+06
  -1.320579e+05   4.464607e+06
  -2.402494e+06   2.819216e+06
  -2.303827e+06   1.247187e+06
  -1.971474e+06   8.571395e+05
  -3.321952e+06   6.203476e+05
  -4.942313e+06  -8.276842e+05
  -3.974885e+06  -3.147123e+06
  -1.333375e+05  -4.734868e+06
   3.749078e+06  -4.448056e+06
   4.872738e+06  -2.314961e+06
   3.013272e+06   6.326632e+05
   1.560453e+05   2.607472e+06
  -1.381372e+06   2.146504e+06
  -6.256056e+05  -9.239182e+04
   1.304249e+06  -1.467725e+06
   2.159086e+06  -4.204344e+05
   9.819912e+05   1.368079e+06
  -6.467454e+05   1.272413e+06
  -5.618360e+05  -4.443186e+05
   1.117694e+06  -9.155377e+05
   2.129888e+06   1.219406e+06
   9.647083e+05   3.828180e+06
  -1.527705e+06   4.039768e+06
  -3.509869e+06   1.576325e+06
  -3.955005e+06  -1.497597e+06
  -2.796246e+06  -3.241287e+06
  -5.572312e+05  -3.114572e+06
   1.483199e+06  -1.693149e+06
   1.848369e+06  -2.218112e+05
   5.691586e+05   5.639950e+04
  -4.074079e+05  -8.708555e+05
   4.641752e+05  -1.513396e+06
   2.150963e+06  -6.439095e+05
   2.310192e+06   9.934974e+05
   4.539889e+05   1.596673e+06
  -1.348234e+06   6.583650e+05
  -1.062942e+06  -5.371321e+05
   9.658217e+05  -6.676755e+05
   2.589868e+06   3.078197e+05
   2.117595e+06   1.592337e+06
  -2.549051e+05   2.356753e+06
  -2.703056e+06   1.950969e+06
  -3.225514e+06   3.079859e+05
  -1.389797e+06  -1.447746e+06
   1.056822e+06  -1.684476e+06
   1.753770e+06  -1.942971e+05
   1.929259e+05   1.222753e+06
  -1.752802e+06   8.251923e+05
  -1.984485e+06  -8.999681e+05
  -4.157890e+05  -1.910432e+06
   1.238727e+06  -1.161354e+06
   1.463664e+06   3.234128e+05
   3.108625e+05   8.894328e+05
  -9.016240e+05   5.843407e+04
  -8.305351e+05  -1.227233e+06
   6.982388e+05  -1.639691e+06
   2.340820e+06  -5.920752e+05
   2.341539e+06   1.247151e+06
   4.231723e+05   2.401368e+06
  -1.667939e+06   1.888458e+06
  -1.992894e+06   2.441470e+05
  -5.874648e+05  -9.995291e+05
   7.629731e+05  -9.314719e+05
   7.558155e+05  -7.571415e+04
  -1.279992e+05   4.617547e+05
  -6.133417e+05   2.783990e+05
  -2.125150e+05  -9.596440e+04
   4.884774e+05   2.782608e+04
   6.214506e+05   7.364310e+05
  -2.142224e+05   1.371201e+06
  -1.601438e+06   1.038206e+06
  -2.413405e+06  -4.939294e+05
  -1.680050e+06  -2.267339e+06
   2.746837e+05  -2.817052e+06
   1.893262e+06  -1.655493e+06
   1.992250e+06   1.370716e+05
   1.035781e+06   1.076830e+06
   3.774856e+05   8.312168e+05
   5.143548e+05   3.028316e+05
   6.821399e+05   3.519863e+05
   9.580043e+04   8.603581e+05
  -1.010673e+06   1.051156e+06
  -1.698489e+06   3.917885e+05
  -1.251101e+06  -8.582655e+05
   2.815758e+05  -1.735591e+06
   2.017634e+06  -1.260127e+06
   2.624826e+06   5.754806e+05
   1.318872e+06   2.444601e+06
  -1.162405e+06   2.736498e+06
  -2.937516e+06   1.198326e+06
  -2.741261e+06  -7.512755e+05
  -1.148607e+06  -1.562825e+06
   2.215561e+05  -1.141221e+06
   4.893976e+05  -6.293675e+05
   1.549242e+05  -8.673888e+05
   1.589485e+05  -1.480160e+06
   7.795779e+05  -1.463276e+06
   1.486874e+06  -3.496053e+05
   1.534758e+06   1.270800e+06
   6.236852e+05   2.207939e+06
  -7.413848e+05   1.662780e+06
  -1.496900e+06  -8.964593e+03
  -9.409991e+05  -1.483018e+06
   4.403654e+05  -1.615722e+06
   1.324508e+06  -4.920633e+05
   9.334781e+05   7.693825e+05
  -1.190713e+05   1.222337e+06
  -5.893233e+05   9.103586e+05
  -8.615833e+04   4.991284e+05
   4.940051e+05   4.023044e+05
   6.251285e+04   4.502538e+05
  -1.322872e+06   2.408929e+05
  -2.375967e+06  -3.950175e+05
  -1.869973e+06  -1.205655e+06
   3.291731e+04  -1.648965e+06
   1.827870e+06  -1.302810e+06
   2.119573e+06  -3.237632e+05
   9.733976e+05   5.492354e+05
  -2.946139e+05   6.441017e+05
  -5.866639e+05   4.880017e+04
  -2.459370e+04  -4.701254e+05
   5.252871e+05  -2.920587e+05
   5.535642e+05   4.004720e+05
   2.671149e+05   8.476345e+05
   8.683103e+04   5.581651e+05
   1.635321e+05  -1.255683e+05
   3.466809e+05  -3.567822e+05
   3.251723e+05   2.714862e+05
  -1.827791e+05   1.155465e+06
  -1.054737e+06   1.229645e+06
  -1.561337e+06   1.793295e+05
  -9.593178e+05  -1.070711e+06
   4.911300e+05  -1.302456e+06
   1.450472e+06  -3.639461e+05
   8.458947e+05   6.777713e+05
  -8.160009e+05   7.529348e+05
  -1.855536e+06  -1.129297e+05
  -1.189903e+06  -1.007882e+06
   5.520839e+05  -1.163995e+06
   1.753899e+06  -5.717438e+05
   1.451142e+06   2.193680e+05
   1.612123e+05   6.043055e+05
  -7.564998e+05   3.159393e+05
  -4.388918e+05  -3.403520e+05
   6.932467e+05  -5.953661e+05
   1.375285e+06   1.147117e+05
   7.597062e+05   1.385459e+06
  -7.128878e+05   1.973311e+06
  -1.740612e+06   1.013234e+06
  -1.458268e+06  -8.950612e+05
  -2.234057e+05  -2.092840e+06
   8.723582e+05  -1.511610e+06
   1.080933e+06   2.044030e+05
   5.026886e+05   1.392963e+06
  -2.544148e+05   1.135093e+06
  -6.544063e+05   9.791194e+04
  -5.476462e+05  -4.462167e+05
  -1.963834e+05  -1.646438e+05
  -5.459017e+04   1.128600e+05
  -3.146673e+05  -3.413216e+05
  -5.842066e+05  -1.128192e+06
  -2.228332e+05  -1.260717e+06
   8.273568e+05  -4.575450e+05
   1.718553e+06   5.518789e+05
   1.494784e+06   9.844160e+05
   2.127293e+05   8.150198e+05
  -1.002661e+06   4.838567e+05
  -1.151314e+06   2.087097e+05
  -4.171673e+05  -6.094485e+04
   1.723066e+05  -2.615842e+05
   3.775469e+04  -2.415545e+05
  -3.133329e+05  -1.147518e+05
  -5.672478e+04  -1.565903e+05
   7.776290e+05  -2.711659e+05
   1.221295e+06   1.885304e+04
   4.979330e+05   8.089416e+05
  -9.889518e+05   1.369604e+06
  -1.984502e+06   8.753383e+05
  -1.643230e+06  -5.086520e+05
  -3.163954e+05  -1.642474e+06
   8.993463e+05  -1.603380e+06
   1.227320e+06  -6.246684e+05
   7.649799e+05   2.740329e+05
   1.546823e+05   4.193015e+05
  -8.312249e+04   7.703254e+04
   9.482361e+04  -1.974603e+04
   3.498631e+05   4.305142e+05
   2.857362e+05   9.446565e+05
  -2.112650e+05   7.923340e+05
  -7.947907e+05  -1.421836e+05
  -8.618166e+05  -1.110762e+06
  -1.360091e+05  -1.204025e+06
   8.775323e+05  -2.909355e+05
   1.208458e+06   8.390139e+05
   4.083412e+05   1.272060e+06
  -8.321483e+05   7.930772e+05
  -1.307495e+06  -8.662217e+04
  -6.220928e+05  -7.175633e+05
   3.359086e+05  -7.946515e+05
   4.460928e+05  -4.297596e+05
  -2.856893e+05  -9.035365e+03
  -7.577489e+05   4.648624e+04
  -1.724448e+05  -3.602711e+05
   9.640131e+05  -7.915640e+05
   1.473273e+06  -6.272894e+05
   8.932092e+05   2.100181e+05
  -1.122299e+05   1.016089e+06
  -6.478763e+05   1.000985e+06
  -5.007948e+05   1.920956e+05
  -6.528126e+04  -5.576523e+05
   2.781233e+05  -5.109600e+05
   4.110141e+05   1.674302e+05
   2.979021e+05   6.736802e+05
  -5.992941e+04   5.026824e+05
  -4.566131e+05  -4.983284e+04
  -5.569437e+05  -3.301021e+05
  -2.832715e+05  -1.149161e+05
   4.237873e+04   1.786783e+05
   9.677846e+04   5.758274e+04
  -2.060658e+04  -4.096594e+05
   4.823558e+04  -6.472243e+05
   3.688026e+05  -2.642719e+05
   5.420278e+05   4.359849e+05
   1.931748e+05   7.550597e+05
  -4.733874e+05   3.708047e+05
  -7.800561e+05  -3.212222e+05
  -3.005901e+05  -6.670416e+05
   5.934717e+05  -4.289344e+05
   1.034170e+06   8.355945e+04
   5.619635e+05   4.396943e+05
  -3.419717e+05   4.722567e+05
  -7.469432e+05   2.732122e+05
  -2.968150e+05   2.329186e+04
   3.973402e+05  -8.525382e+04
   4.731823e+05   6.647998e+04
  -1.900776e+05   3.361957e+05
  -8.578904e+05   3.192966e+05
