
 $NMID
 id='ANONYMOUS ', fmtdat='(2E16.6)'
 volume=1.0
 tramp=1.0
 $END
   1.848068e+04  -9.136664e+05
   2.981230e+05  -3.382885e+05
   3.324430e+05   7.272156e+04
   2.941057e+05   9.864511e+04
   1.869187e+05   3.662647e+04
  -1.687786e+04   5.706522e+04
  -1.495210e+05   1.676085e+04
  -4.604759e+04  -1.296989e+05
   1.513060e+05  -1.677700e+05
   1.545999e+05   1.206448e+04
  -5.156092e+04   1.902076e+05
  -1.900023e+05   1.255652e+05
  -8.796442e+04  -1.023850e+05
   1.136839e+05  -2.195918e+05
   1.853876e+05  -1.121958e+05
   7.592038e+04   7.819299e+04
  -9.750309e+04   1.496442e+05
  -1.937566e+05   3.547404e+04
  -1.324590e+05  -1.521395e+05
   5.238980e+04  -2.195028e+05
   1.963976e+05  -8.425560e+04
   1.457972e+05   9.900669e+04
  -3.976548e+04   8.801930e+04
  -1.245871e+05  -1.323269e+05
   1.393032e+04  -2.889026e+05
   2.287510e+05  -1.511968e+05
   2.904844e+05   1.689243e+05
   1.428510e+05   3.519442e+05
  -8.282884e+04   2.420861e+05
  -2.175996e+05  -2.296671e+04
  -1.618950e+05  -2.078474e+05
   5.567880e+04  -1.921051e+05
   2.487986e+05  -1.305786e+04
   2.043816e+05   1.852553e+05
  -5.584319e+04   2.394231e+05
  -2.388615e+05   1.036114e+05
  -1.287514e+05  -7.823100e+04
   1.152119e+05  -1.130836e+05
   1.666687e+05   1.483785e+04
  -2.367959e+04   1.338881e+05
  -1.882852e+05   1.116071e+05
  -1.407522e+05   2.947677e+03
  -3.822623e+03  -5.857407e+04
   2.460742e+04  -3.187145e+04
  -5.112959e+04   2.243033e+04
  -1.003965e+05   3.731104e+04
  -8.550338e+04  -1.428243e+04
  -5.990103e+04  -1.169700e+05
  -2.758980e+04  -1.996166e+05
   4.853298e+04  -1.694410e+05
   1.310195e+05  -2.157657e+04
   1.304462e+05   1.189166e+05
   4.257204e+04   1.265326e+05
  -3.753512e+04   2.303050e+04
  -4.449844e+04  -6.160822e+04
  -4.962577e+03  -5.207814e+04
   2.994754e+04   1.184489e+04
   3.685432e+04   6.057550e+04
   3.978622e+03   6.871085e+04
  -5.822989e+04   4.315461e+04
  -8.697663e+04   3.633858e+03
  -3.237056e+04  -1.277028e+04
   3.752979e+04   1.587267e+04
  -5.667210e+03   4.590962e+04
  -1.559522e+05   5.284598e+03
  -2.366955e+05  -1.011694e+05
  -1.238246e+05  -1.793143e+05
   7.843114e+04  -1.652098e+05
   1.727692e+05  -1.043248e+05
   1.217520e+05  -7.500736e+04
   6.317132e+04  -7.931646e+04
   9.784362e+04  -5.717997e+04
   1.671154e+05   2.173803e+04
   1.568707e+05   1.252592e+05
   4.391962e+04   1.952395e+05
  -9.288370e+04   1.801137e+05
  -1.568233e+05   6.200312e+04
  -1.042931e+05  -9.903796e+04
   2.553869e+04  -1.740679e+05
   1.278985e+05  -8.436630e+04
   1.146587e+05   9.044565e+04
   4.401288e+03   1.823209e+05
  -9.384244e+04   1.222213e+05
  -1.017064e+05   5.925899e+03
  -4.957058e+04  -4.120202e+04
  -2.119460e+04  -1.107606e+04
  -5.241093e+04   7.139357e+03
  -1.039809e+05  -4.650956e+04
  -1.074875e+05  -1.380985e+05
  -2.109303e+04  -1.844750e+05
   1.284598e+05  -1.323420e+05
   2.384717e+05  -4.128919e+03
   2.037980e+05   1.131089e+05
   3.637087e+04   1.366794e+05
  -1.167906e+05   6.636180e+04
  -1.209438e+05  -1.516502e+04
  -3.737948e+03  -3.194490e+04
   8.625300e+04   1.076469e+04
   5.937313e+04   5.225354e+04
  -2.814835e+04   5.062367e+04
  -6.804863e+04   1.045032e+04
  -2.695368e+04  -3.625232e+04
   4.051587e+04  -4.580613e+04
   6.378108e+04   1.409999e+04
   1.363129e+04   1.133672e+05
  -8.279621e+04   1.500028e+05
  -1.548341e+05   4.944920e+04
  -1.366543e+05  -1.240377e+05
  -3.288770e+04  -2.121927e+05
   7.394144e+04  -1.398677e+05
   1.041887e+05  -1.040558e+03
   6.129667e+04   6.104637e+04
   1.421971e+04   1.876827e+04
   1.287007e+04  -3.591694e+04
   4.371910e+04  -2.374067e+04
   6.057693e+04   3.724297e+04
   3.525922e+04   7.507320e+04
  -1.906598e+04   4.980745e+04
  -5.518294e+04  -1.327604e+04
  -2.880030e+04  -5.117262e+04
   4.814423e+04  -1.820153e+04
   9.709273e+04   6.644283e+04
   4.784343e+04   1.242020e+05
  -7.081852e+04   9.139764e+04
  -1.467830e+05  -7.943704e+03
  -1.067304e+05  -8.273320e+04
   1.171941e+03  -7.250810e+04
   6.610945e+04  -5.999537e+03
   3.746055e+04   4.139562e+04
  -3.449762e+04   2.705182e+04
  -6.831008e+04  -2.977859e+04
  -3.462826e+04  -7.654162e+04
   2.916022e+04  -7.159722e+04
   6.460693e+04  -1.724229e+04
   4.552581e+04   3.649004e+04
  -8.421225e+02   3.530568e+04
  -1.981586e+04  -1.707449e+04
   1.513408e+04  -5.392288e+04
   6.984475e+04  -2.039871e+04
   8.108989e+04   5.839521e+04
   2.422714e+04   1.048903e+05
  -5.780211e+04   7.689218e+04
  -9.648273e+04   6.414864e+03
  -6.373036e+04  -4.481256e+04
   5.100879e+03  -4.547018e+04
   4.760556e+04  -9.639773e+03
   3.164602e+04   2.522891e+04
  -1.766413e+04   2.804255e+04
  -4.551669e+04  -7.231700e+02
  -2.548162e+04  -2.562538e+04
   1.126299e+04  -1.251263e+04
   1.213197e+04   2.560153e+04
  -3.238582e+04   3.567507e+04
  -7.269371e+04  -1.196677e+04
  -5.450184e+04  -8.236871e+04
   1.990067e+04  -1.118836e+05
   9.326578e+04  -7.475224e+04
   1.108495e+05  -1.111361e+03
   6.865558e+04   6.026614e+04
   9.105830e+03   8.101136e+04
  -2.219963e+04   6.359433e+04
  -1.632281e+04   3.273961e+04
  -4.161390e+03   1.557679e+04
  -1.948600e+04   1.522293e+04
  -5.601269e+04   5.670883e+03
  -6.768631e+04  -3.188170e+04
  -2.073466e+04  -7.072446e+04
   5.863450e+04  -5.899334e+04
   1.015814e+05   1.461173e+04
   6.502499e+04   9.434026e+04
  -2.516052e+04   1.104686e+05
  -1.011415e+05   4.941581e+04
  -1.146994e+05  -3.869786e+04
  -6.973793e+04  -9.242924e+04
  -5.962706e+03  -8.825141e+04
   3.842852e+04  -4.785336e+04
   5.213077e+04  -1.242965e+04
   5.029254e+04  -7.172726e+03
   5.219599e+04  -1.899398e+04
   5.709712e+04  -1.055688e+04
   4.441960e+04   3.410440e+04
   1.870724e+03   8.179898e+04
  -5.047144e+04   8.157920e+04
  -7.288637e+04   2.427778e+04
  -4.535782e+04  -4.297411e+04
   1.030066e+04  -6.615735e+04
   5.004235e+04  -3.734731e+04
   4.710616e+04   7.083379e+03
   1.211241e+04   3.041186e+04
  -2.145358e+04   2.772935e+04
  -2.887337e+04   1.930431e+04
  -1.425186e+04   2.182327e+04
  -3.016236e+03   2.822597e+04
  -1.453183e+04   1.507237e+04
  -4.029011e+04  -2.752566e+04
  -4.966157e+04  -7.460150e+04
  -2.014488e+04  -8.451512e+04
   3.605650e+04  -4.372407e+04
   7.734809e+04   1.460156e+04
   6.979834e+04   4.446721e+04
   2.229731e+04   3.328412e+04
  -1.893768e+04   6.065806e+03
  -1.747146e+04  -8.711950e+03
   1.330510e+04  -3.748655e+03
   2.681870e+04   1.238399e+04
   1.806920e+03   2.753014e+04
  -2.965813e+04   2.966376e+04
  -2.421952e+04   1.414964e+04
   1.325050e+04  -4.946814e+03
   3.290071e+04  -4.249347e+03
   3.612909e+03   1.729905e+04
  -4.681276e+04   2.810041e+04
  -6.551299e+04   1.555336e+03
  -3.438716e+04  -4.237656e+04
   1.712938e+04  -5.350004e+04
   4.832967e+04  -1.271294e+04
   4.020456e+04   3.971041e+04
   1.499350e+02   4.737576e+04
  -4.456721e+04   2.838012e+02
  -5.730748e+04  -5.604164e+04
  -1.866019e+04  -6.942597e+04
   4.560349e+04  -3.053819e+04
   7.821658e+04   2.369327e+04
   4.847670e+04   4.762126e+04
  -9.653206e+03   2.758340e+04
  -3.281066e+04  -8.217793e+03
  -7.591432e+02  -1.811984e+04
   4.012562e+04   1.160609e+04
   3.075975e+04   5.246206e+04
  -3.220914e+04   6.189833e+04
  -9.001294e+04   2.465937e+04
  -8.266340e+04  -3.457935e+04
  -1.152783e+04  -7.457624e+04
   6.127341e+04  -6.902179e+04
   7.539006e+04  -2.215055e+04
   3.053596e+04   3.407718e+04
  -2.125300e+04   5.897919e+04
  -3.666000e+04   3.485991e+04
  -2.156079e+04  -1.229383e+04
  -7.663607e+03  -3.491706e+04
  -6.396547e+03  -1.696975e+04
  -3.627987e+03   5.249781e+03
   8.792023e+03  -9.427983e+03
   2.064441e+04  -4.695205e+04
   2.508968e+04  -5.000492e+04
   2.956527e+04   5.465877e+03
   3.428010e+04   7.068705e+04
   2.101058e+04   7.968788e+04
  -1.725461e+04   2.922140e+04
  -5.084545e+04  -2.188968e+04
  -4.416122e+04  -2.861122e+04
  -6.624217e+03  -7.344107e+03
   1.554785e+04   5.952243e+01
   2.687293e+03  -1.451092e+04
  -1.165288e+04  -2.275773e+04
   7.019816e+03  -4.924648e+03
   3.847383e+04   2.537274e+04
   3.170865e+04   4.129304e+04
  -2.360462e+04   3.026289e+04
  -7.715064e+04  -2.342206e+03
  -7.473672e+04  -4.142145e+04
  -1.680117e+04  -6.577253e+04
   4.768006e+04  -5.632825e+04
   7.260771e+04  -1.520802e+04
   5.121488e+04   2.728203e+04
   1.152469e+04   3.774828e+04
  -1.267620e+04   1.457216e+04
  -9.536314e+03  -9.802134e+03
   3.743673e+03  -5.026099e+03
   1.746050e+03   2.293840e+04
  -1.845199e+04   3.777205e+04
  -3.204001e+04   1.283636e+04
  -1.640093e+04  -3.625385e+04
   1.959227e+04  -6.190209e+04
   4.378685e+04  -3.216629e+04
   3.471692e+04   3.102654e+04
   6.880203e+01   6.861028e+04
  -3.473651e+04   4.541510e+04
  -4.686415e+04  -1.146653e+04
  -2.846671e+04  -4.465784e+04
   7.236677e+03  -3.183061e+04
   3.023271e+04  -4.233737e+03
   1.850812e+04   2.844900e+02
  -1.365188e+04  -1.652855e+04
  -2.409020e+04  -2.541135e+04
   8.575579e+03  -1.275857e+04
   5.314565e+04   7.697965e+03
   5.825591e+04   2.048266e+04
   1.405991e+04   2.454473e+04
  -3.490285e+04   2.153166e+04
  -4.209865e+04   7.766338e+03
  -9.671971e+03  -1.209819e+04
   2.190574e+04  -1.866220e+04
   2.346725e+04  -4.268495e+02
   2.824194e+03   2.496369e+04
  -1.465871e+04   2.816249e+04
  -1.636560e+04   4.906205e+03
  -9.231156e+03  -1.900064e+04
  -5.129039e+03  -2.119159e+04
  -6.470436e+03  -8.077109e+03
  -5.106391e+03  -8.633025e+02
   6.796134e+03  -6.394794e+03
   2.458767e+04  -1.132831e+04
   3.169015e+04  -1.635296e+03
   1.635918e+04   1.944114e+04
  -1.258655e+04   3.294175e+04
  -3.188880e+04   2.176453e+04
  -2.687543e+04  -1.035968e+04
  -4.196250e+03  -3.636728e+04
   1.836341e+04  -2.919824e+04
   2.784877e+04   7.229003e+03
   2.029795e+04   3.682475e+04
  -8.007915e+02   2.957649e+04
  -2.206573e+04  -3.153042e+03
  -2.435850e+04  -2.204772e+04
  -2.995521e+03  -7.173366e+03
   1.838843e+04   2.028517e+04
   9.763472e+03   2.663946e+04
  -2.498967e+04   4.392207e+03
  -4.433293e+04  -2.494583e+04
