
 $NMID
 id='ANONYMOUS ', fmtdat='(2E16.6)'
 volume=1.0
 tramp=1.0
 $END
  -2.640573e+07  -3.829594e+06
  -1.485368e+07  -1.506568e+07
   3.073738e+06  -1.616052e+07
   1.233515e+07  -8.682112e+06
   8.666566e+06   3.802080e+05
  -2.393111e+05   4.373644e+06
  -5.032179e+06   1.465006e+06
  -3.092225e+06  -4.304912e+06
   1.868533e+06  -6.487371e+06
   4.919284e+06  -2.408075e+06
   3.823426e+06   3.793648e+06
   4.899839e+04   5.468221e+06
  -2.701279e+06   9.522406e+05
  -1.748207e+06  -4.541191e+06
   1.864480e+06  -4.942866e+06
   4.224202e+06   8.205238e+04
   2.538828e+06   5.403750e+06
  -1.979502e+06   6.230257e+06
  -5.421746e+06   2.459528e+06
  -5.061775e+06  -2.206602e+06
  -1.792974e+06  -4.218308e+06
   9.778463e+05  -3.136984e+06
   7.445822e+05  -1.427997e+06
  -1.521344e+06  -1.609607e+06
  -2.263291e+06  -3.474265e+06
   7.324314e+05  -4.354578e+06
   5.378299e+06  -2.330025e+06
   7.058188e+06   1.372397e+06
   3.701528e+06   3.695616e+06
  -1.639953e+06   2.997601e+06
  -3.958298e+06   3.483318e+05
  -1.596282e+06  -1.914843e+06
   2.373749e+06  -2.071551e+06
   3.855833e+06   7.016733e+04
   1.909648e+06   2.914611e+06
  -9.799934e+05   3.848377e+06
  -2.022516e+06   1.657768e+06
  -8.413771e+05  -1.531257e+06
   6.968546e+05  -2.102811e+06
   7.383439e+05   6.116536e+05
  -7.166763e+05   3.092388e+06
  -2.004955e+06   1.968716e+06
  -1.579470e+06  -1.496325e+06
   4.085093e+05  -2.929668e+06
   2.154188e+06  -4.398337e+05
   1.785875e+06   3.105094e+06
  -8.673421e+05   3.724100e+06
  -3.833481e+06   8.141500e+05
  -4.456751e+06  -2.742307e+06
  -1.802775e+06  -3.957728e+06
   2.142418e+06  -2.318753e+06
   4.035060e+06   4.115164e+05
   2.380569e+06   1.998502e+06
  -9.151437e+05   1.467992e+06
  -2.555161e+06  -2.532317e+05
  -1.324811e+06  -1.296332e+06
   8.731054e+05  -7.305275e+05
   1.453189e+06   5.666791e+05
   5.333944e+04   1.067785e+06
  -1.340505e+06   3.258204e+05
  -8.517603e+05  -7.513811e+05
   1.171677e+06  -1.016639e+06
   2.528473e+06  -3.633374e+04
   1.431704e+06   1.738532e+06
  -1.637219e+06   3.127585e+06
  -4.276841e+06   2.758463e+06
  -4.418203e+06   2.804988e+05
  -2.269544e+06  -2.806163e+06
   7.973956e+04  -4.256830e+06
   9.483784e+05  -3.385635e+06
   6.427086e+05  -1.735923e+06
   6.360533e+05  -1.063468e+06
   1.596421e+06  -1.202327e+06
   2.684283e+06  -6.156914e+05
   2.652533e+06   1.212492e+06
   1.179559e+06   2.800049e+06
  -8.788886e+05   2.351963e+06
  -2.149498e+06  -6.088489e+04
  -1.651528e+06  -2.408261e+06
   4.109018e+05  -2.675198e+06
   2.518458e+06  -7.263210e+05
   2.942718e+06   1.728483e+06
   1.408662e+06   2.843732e+06
  -5.607592e+05   2.263862e+06
  -1.331279e+06   1.131167e+06
  -9.989238e+05   6.437497e+05
  -1.067241e+06   8.048107e+05
  -2.313338e+06   6.463560e+05
  -3.548252e+06  -5.263094e+05
  -2.883763e+06  -2.318727e+06
  -3.159420e+04  -3.562026e+06
   3.056396e+06  -3.256316e+06
   3.978024e+06  -1.368193e+06
   2.218863e+06   9.738464e+05
  -3.775241e+05   2.156622e+06
  -1.464445e+06   1.430138e+06
  -4.476565e+05  -2.388748e+05
   1.164175e+06  -1.020724e+06
   1.557725e+06  -1.965045e+05
   5.022866e+05   1.018492e+06
  -6.660849e+05   9.823214e+05
  -6.696976e+05  -2.793422e+05
   4.330682e+05  -1.030114e+06
   1.487523e+06   5.987583e+04
   1.370714e+06   2.221898e+06
  -1.442027e+05   3.322945e+06
  -2.214859e+06   2.105379e+06
  -3.403579e+06  -5.637821e+05
  -2.711289e+06  -2.608024e+06
  -5.746001e+05  -2.698704e+06
   1.301483e+06  -1.312791e+06
   1.521395e+06  -3.485601e+04
   4.378170e+05   6.104099e+04
  -3.026521e+05  -6.661428e+05
   3.001641e+05  -1.033170e+06
   1.463983e+06  -4.116638e+05
   1.636335e+06   6.400635e+05
   3.975920e+05   1.083164e+06
  -9.886417e+05   5.342201e+05
  -9.579285e+05  -3.930751e+05
   6.114096e+05  -7.346590e+05
   2.161891e+06  -4.782528e+04
   1.984445e+06   1.219688e+06
  -1.845161e+04   2.049966e+06
  -2.140889e+06   1.655402e+06
  -2.526021e+06   2.333939e+05
  -1.006389e+06  -1.054465e+06
   7.951047e+05  -1.112566e+06
   1.178465e+06  -5.382237e+04
   1.704750e+04   8.564944e+05
  -1.328599e+06   5.556111e+05
  -1.511623e+06  -6.452015e+05
  -4.396171e+05  -1.441228e+06
   8.241930e+05  -1.020737e+06
   1.150229e+06   7.017042e+04
   3.684493e+05   6.088683e+05
  -5.879162e+05   5.311391e+04
  -5.634435e+05  -9.296459e+05
   6.163700e+05  -1.210453e+06
   1.826261e+06  -3.391395e+05
   1.734774e+06   1.044774e+06
   2.631985e+05   1.823420e+06
  -1.260148e+06   1.401894e+06
  -1.504169e+06   2.051112e+05
  -4.973126e+05  -7.399730e+05
   5.633644e+05  -7.438003e+05
   6.814406e+05  -4.467369e+04
  -6.099316e+03   5.139758e+05
  -5.933735e+05   3.930827e+05
  -4.428199e+05  -9.441040e+04
   2.058753e+05  -1.920618e+05
   5.236680e+05   3.752888e+05
  -5.806211e+04   9.989456e+05
  -1.195395e+06   7.956520e+05
  -1.838429e+06  -4.051831e+05
  -1.229101e+06  -1.770492e+06
   2.766138e+05  -2.204068e+06
   1.510872e+06  -1.366686e+06
   1.657492e+06   3.902931e+04
   9.831567e+05   9.590057e+05
   3.615310e+05   9.417704e+05
   2.523662e+05   4.431804e+05
   3.250018e+05   2.353464e+05
   1.435515e+04   5.447667e+05
  -7.394828e+05   8.146042e+05
  -1.344428e+06   3.683521e+05
  -1.086247e+06  -7.104607e+05
   1.502075e+05  -1.480849e+06
   1.591688e+06  -1.044245e+06
   2.077315e+06   4.633621e+05
   1.057447e+06   1.878117e+06
  -8.138702e+05   2.066133e+06
  -2.178671e+06   9.573029e+05
  -2.163417e+06  -4.767137e+05
  -1.073568e+06  -1.206819e+06
   5.999246e+04  -1.053873e+06
   5.081680e+05  -6.605829e+05
   3.825013e+05  -6.688171e+05
   2.906751e+05  -1.004463e+06
   6.073602e+05  -9.982011e+05
   1.086043e+06  -1.912329e+05
   1.122881e+06   1.039993e+06
   4.106218e+05   1.737058e+06
  -6.367751e+05   1.273005e+06
  -1.172711e+06  -8.939694e+03
  -7.306638e+05  -1.094420e+06
   2.630378e+05  -1.218121e+06
   8.887298e+05  -4.767082e+05
   6.682469e+05   4.053017e+05
   1.593101e+04   8.101526e+05
  -2.879141e+05   6.997268e+05
   4.531983e+03   4.538942e+05
   3.400472e+05   3.689027e+05
   1.468487e+04   3.689309e+05
  -9.616779e+05   1.720841e+05
  -1.733023e+06  -3.329969e+05
  -1.410843e+06  -9.133657e+05
  -4.313433e+04  -1.176986e+06
   1.313345e+06  -9.128503e+05
   1.592654e+06  -2.803380e+05
   7.702002e+05   2.896815e+05
  -1.888806e+05   4.130653e+05
  -4.077755e+05   8.282367e+04
   5.054270e+04  -2.756488e+05
   4.688766e+05  -1.875666e+05
   3.992309e+05   3.314615e+05
   7.003195e+04   7.083129e+05
  -5.618597e+04   4.530417e+05
   1.360516e+05  -1.732086e+05
   3.571544e+05  -3.743426e+05
   2.642704e+05   2.025652e+05
  -2.267040e+05   9.338897e+05
  -8.455467e+05   9.015546e+05
  -1.084621e+06   7.556919e+03
  -5.780964e+05  -8.728348e+05
   4.267741e+05  -8.873171e+05
   1.066553e+06  -1.217261e+05
   6.220994e+05   5.897931e+05
  -6.221094e+05   5.836982e+05
  -1.485621e+06  -6.687785e+04
  -1.051982e+06  -7.702119e+05
   3.366137e+05  -9.783704e+05
   1.397386e+06  -5.680482e+05
   1.223475e+06   1.116707e+05
   1.736319e+05   4.977500e+05
  -5.785882e+05   2.825454e+05
  -2.919799e+05  -2.425217e+05
   6.166227e+05  -3.913563e+05
   1.064122e+06   2.190030e+05
   4.465001e+05   1.157891e+06
  -7.488258e+05   1.482401e+06
  -1.459841e+06   6.597707e+05
  -1.109730e+06  -7.937827e+05
  -9.341040e+04  -1.677180e+06
   7.291819e+05  -1.222698e+06
   8.589375e+05   1.172777e+05
   4.307504e+05   1.092915e+06
  -1.291673e+05   9.335628e+05
  -4.835178e+05   9.813704e+04
  -4.917257e+05  -3.782218e+05
  -2.328518e+05  -1.548603e+05
  -1.346936e+04   1.102230e+05
  -1.164927e+05  -2.310406e+05
  -3.795364e+05  -8.847797e+05
  -2.367889e+05  -1.010031e+06
   5.511002e+05  -3.444135e+05
   1.352487e+06   4.897580e+05
   1.239001e+06   8.141837e+05
   1.515768e+05   6.270798e+05
  -8.867068e+05   3.448405e+05
  -9.408203e+05   1.607961e+05
  -2.535997e+05  -1.796214e+04
   1.771657e+05  -1.939859e+05
  -6.159251e+04  -2.296548e+05
  -3.487804e+05  -1.484214e+05
   5.806896e+02  -1.338750e+05
   7.336597e+05  -1.525058e+05
   9.469610e+05   9.468802e+04
   2.064771e+05   6.487476e+05
  -9.335805e+05   9.800851e+05
  -1.528721e+06   5.244061e+05
  -1.144922e+06  -5.351806e+05
  -1.401714e+05  -1.322163e+06
   7.472154e+05  -1.182981e+06
   9.911782e+05  -3.681747e+05
   6.070410e+05   3.027035e+05
   5.950075e+04   3.364561e+05
  -1.608769e+05   3.431896e+03
   3.692205e+04  -7.786365e+04
   3.012155e+05   3.175199e+05
   2.253149e+05   7.486598e+05
  -2.217377e+05   5.920352e+05
  -6.418940e+05  -2.125625e+05
  -5.717223e+05  -9.803284e+05
   5.848076e+04  -9.476063e+05
   7.682886e+05  -9.766229e+04
   8.836056e+05   8.042736e+05
   1.966534e+05   1.015353e+06
  -7.101390e+05   5.118513e+05
  -9.742248e+05  -1.601591e+05
  -3.936371e+05  -5.284234e+05
   2.995826e+05  -5.179357e+05
   2.907908e+05  -2.893303e+05
  -3.136543e+05  -4.793965e+04
  -6.199296e+05  -1.132213e+04
  -8.647606e+04  -2.755225e+05
   7.908193e+05  -5.882264e+05
   1.102823e+06  -4.844441e+05
   5.970885e+05   1.433635e+05
  -1.457941e+05   7.565401e+05
  -4.799840e+05   7.120223e+05
  -3.184325e+05   5.634773e+04
   1.924041e+04  -4.799724e+05
   2.626114e+05  -3.404020e+05
   3.250438e+05   2.290250e+05
   1.887409e+05   5.460991e+05
  -9.815305e+04   3.203580e+05
  -3.546682e+05  -9.613171e+04
  -3.884566e+05  -2.324078e+05
  -2.116711e+05  -5.430569e+04
  -2.021943e+04   8.298546e+04
   6.168075e+04  -7.875004e+04
   1.099871e+05  -3.817045e+05
   2.328776e+05  -4.297668e+05
   3.636197e+05  -4.770518e+04
   3.047932e+05   4.715379e+05
  -2.660136e+04   6.248251e+05
  -4.330654e+05   2.303676e+05
  -5.456244e+05  -3.481561e+05
  -1.633322e+05  -5.730204e+05
   4.632832e+05  -2.923396e+05
   7.611276e+05   1.573973e+05
   3.943005e+05   3.767113e+05
  -2.965895e+05   2.926031e+05
  -5.833441e+05   1.006430e+05
  -1.719375e+05  -1.485432e+04
   4.089314e+05   1.101830e+04
   4.092222e+05   1.633422e+05
  -2.339957e+05   3.131677e+05
  -8.073530e+05   2.122847e+05
