
 $NMID
 id='ANONYMOUS ', fmtdat='(2E16.6)'
 volume=1.0
 tramp=1.0
 $END
   1.917104e+07  -7.421984e+04
   1.340682e+07   8.038611e+06
   9.254667e+05   1.197186e+07
  -7.999943e+06   9.217337e+06
  -7.573773e+06   1.893873e+06
  -9.916819e+05  -3.622540e+06
   4.173522e+06  -2.505093e+06
   3.688045e+06   3.060725e+06
  -5.230858e+05   6.121570e+06
  -3.779664e+06   2.992625e+06
  -3.404208e+06  -2.648243e+06
  -4.250851e+05  -4.461405e+06
   2.052405e+06  -8.066122e+05
   1.687932e+06   3.917030e+06
  -1.108621e+06   4.595623e+06
  -3.472293e+06   6.727451e+05
  -2.749817e+06  -3.930622e+06
   7.185287e+05  -5.125781e+06
   3.780048e+06  -2.406395e+06
   3.776409e+06   1.256743e+06
   1.359032e+06   2.741668e+06
  -4.381921e+05   1.815737e+06
   2.666883e+05   8.425175e+05
   2.138088e+06   1.694870e+06
   2.205518e+06   3.533002e+06
  -7.688246e+05   3.964096e+06
  -4.680220e+06   1.941464e+06
  -5.918157e+06  -1.106709e+06
  -3.016308e+06  -2.864499e+06
   1.513723e+06  -2.243777e+06
   3.430386e+06  -1.429694e+04
   1.141198e+06   1.951561e+06
  -2.586634e+06   1.944222e+06
  -3.769448e+06  -2.659594e+05
  -1.606511e+06  -2.871662e+06
   1.090825e+06  -3.372880e+06
   1.607241e+06  -1.192572e+06
   2.447599e+05   1.344796e+06
  -8.096195e+05   1.417673e+06
  -3.813691e+05  -9.654176e+05
   8.490435e+05  -2.858848e+06
   1.699600e+06  -1.870521e+06
   1.563146e+06   9.659402e+05
   4.125285e+05   2.444474e+06
  -1.125868e+06   9.481798e+05
  -1.643219e+06  -1.800664e+06
  -3.938705e+04  -2.807740e+06
   2.747403e+06  -1.015748e+06
   3.991772e+06   1.855948e+06
   2.007696e+06   3.282054e+06
  -1.666085e+06   2.297346e+06
  -3.685744e+06   4.377943e+04
  -2.428369e+06  -1.548464e+06
   4.779647e+05  -1.446203e+06
   2.131993e+06  -1.753631e+05
   1.329676e+06   8.607345e+05
  -5.750935e+05   6.953511e+05
  -1.369711e+06  -3.812708e+05
  -2.829966e+05  -1.181946e+06
   1.302135e+06  -8.150065e+05
   1.377957e+06   4.126551e+05
  -3.847871e+05   1.244932e+06
  -2.056214e+06   6.590815e+05
  -1.493960e+06  -1.102351e+06
   1.159366e+06  -2.604427e+06
   3.528183e+06  -2.399219e+06
   3.617987e+06  -3.344774e+05
   1.828705e+06   2.210089e+06
   8.735831e+04   3.507357e+06
  -4.824878e+05   3.043804e+06
  -4.345478e+05   1.846218e+06
  -8.046800e+05   1.159874e+06
  -1.748327e+06   9.883686e+05
  -2.508485e+06   3.050996e+05
  -2.280976e+06  -1.283600e+06
  -9.101809e+05  -2.607207e+06
   9.350766e+05  -2.122579e+06
   2.058652e+06   1.238183e+05
   1.540588e+06   2.244507e+06
  -3.556411e+05   2.394226e+06
  -2.162042e+06   6.075684e+05
  -2.447611e+06  -1.436321e+06
  -1.182402e+06  -2.229908e+06
   3.144535e+05  -1.721717e+06
   8.573701e+05  -9.316330e+05
   6.462078e+05  -6.885983e+05
   8.582171e+05  -8.844599e+05
   2.044233e+06  -7.576144e+05
   3.195406e+06   2.673729e+05
   2.680907e+06   1.932142e+06
   1.663328e+05   3.192753e+06
  -2.650151e+06   2.999490e+06
  -3.527188e+06   1.259644e+06
  -1.936968e+06  -8.878532e+05
   3.981115e+05  -1.912538e+06
   1.321091e+06  -1.230200e+06
   3.758880e+05   2.299468e+05
  -1.030693e+06   9.153079e+05
  -1.354478e+06   2.288372e+05
  -4.425796e+05  -8.479435e+05
   6.017507e+05  -8.854353e+05
   6.811872e+05   2.538322e+05
  -3.114173e+05   1.099002e+06
  -1.469778e+06   2.318321e+05
  -1.601347e+06  -1.903951e+06
  -1.990654e+05  -3.247410e+06
   1.970386e+06  -2.285014e+06
   3.292745e+06   3.056083e+05
   2.666622e+06   2.380854e+06
   6.060273e+05   2.516658e+06
  -1.165712e+06   1.214111e+06
  -1.374869e+06   4.319001e+04
  -3.958958e+05  -4.169226e+04
   2.978987e+05   5.880117e+05
  -1.947588e+05   9.262499e+05
  -1.249559e+06   4.445380e+05
  -1.495148e+06  -4.606283e+05
  -4.393245e+05  -9.384020e+05
   8.665367e+05  -5.360483e+05
   9.165945e+05   3.385717e+05
  -5.350847e+05   7.620198e+05
  -2.045181e+06   1.618932e+05
  -1.926547e+06  -1.089071e+06
  -6.188609e+04  -1.942568e+06
   1.914960e+06  -1.607178e+06
   2.287277e+06  -3.022208e+05
   9.489655e+05   8.894821e+05
  -6.385549e+05   9.992308e+05
  -1.007766e+06   1.040561e+05
  -3.384769e+04  -7.310055e+05
   1.161687e+06  -5.400515e+05
   1.398229e+06   5.108199e+05
   4.873926e+05   1.301424e+06
  -6.981566e+05   1.008132e+06
  -1.080270e+06   1.884377e+04
  -4.000429e+05  -5.410157e+05
   5.067741e+05  -9.022187e+04
   5.303970e+05   8.035532e+05
  -5.210325e+05   1.093836e+06
  -1.625823e+06   3.465101e+05
  -1.581020e+06  -8.860689e+05
  -2.997651e+05  -1.623855e+06
   1.071123e+06  -1.311183e+06
   1.349749e+06  -2.547281e+05
   4.950015e+05   6.505396e+05
  -4.794051e+05   7.051255e+05
  -6.345013e+05   4.650410e+04
  -6.648876e+03  -5.173370e+05
   5.816232e+05  -3.973448e+05
   4.642098e+05   1.231246e+05
  -1.789839e+05   2.607445e+05
  -5.337406e+05  -2.845502e+05
  -2.043868e+04  -9.137275e+05
   1.043093e+06  -7.731215e+05
   1.672217e+06   2.978576e+05
   1.163167e+06   1.550138e+06
  -1.852987e+05   2.003644e+06
  -1.343031e+06   1.308714e+06
  -1.542823e+06   2.323822e+04
  -9.481362e+05  -8.922789e+05
  -3.279233e+05  -9.202745e+05
  -1.764619e+05  -4.144243e+05
  -2.644080e+05  -1.576125e+05
  -4.145999e+04  -4.564707e+05
   6.308260e+05  -7.754990e+05
   1.224768e+06  -3.947215e+05
   1.031675e+06   6.351370e+05
  -8.899025e+04   1.392754e+06
  -1.423645e+06   1.018098e+06
  -1.909222e+06  -3.536441e+05
  -1.040990e+06  -1.666378e+06
   6.311181e+05  -1.907736e+06
   1.922904e+06  -9.743894e+05
   2.007740e+06   3.331927e+05
   1.061954e+06   1.084869e+06
  -1.873656e+04   1.016119e+06
  -4.953814e+05   6.352180e+05
  -3.804611e+05   5.746919e+05
  -2.384662e+05   8.607319e+05
  -4.899928e+05   8.972871e+05
  -9.490073e+05   2.081794e+05
  -1.033322e+06  -9.017360e+05
  -4.172828e+05  -1.553303e+06
   5.406827e+05  -1.164386e+06
   1.066417e+06  -3.355378e+04
   7.139556e+05   9.529555e+05
  -1.688758e+05   1.120840e+06
  -7.735714e+05   5.115147e+05
  -6.422675e+05  -2.897603e+05
  -9.332251e+04  -7.222013e+05
   1.956609e+05  -6.735396e+05
  -2.589530e+04  -4.389936e+05
  -3.032269e+05  -3.274463e+05
  -1.629291e+04  -3.331603e+05
   8.494333e+05  -2.003426e+05
   1.556123e+06   2.240242e+05
   1.309438e+06   7.639829e+05
   1.163535e+05   1.055088e+06
  -1.116909e+06   8.737030e+05
  -1.427815e+06   3.299698e+05
  -7.366158e+05  -2.056114e+05
   1.319542e+05  -3.693874e+05
   3.641557e+05  -1.088616e+05
  -3.552502e+04   2.203257e+05
  -4.254919e+05   1.690038e+05
  -3.647156e+05  -2.850625e+05
  -5.093836e+04  -6.280321e+05
   6.502216e+04  -3.964268e+05
  -1.322808e+05   1.779382e+05
  -3.470231e+05   3.597004e+05
  -2.516805e+05  -1.747961e+05
   1.964611e+05  -8.503540e+05
   7.310319e+05  -8.334265e+05
   9.331479e+05  -3.954140e+04
   5.128416e+05   7.514136e+05
  -3.430837e+05   7.857993e+05
  -9.225826e+05   1.247347e+05
  -5.682454e+05  -5.202630e+05
   5.399713e+05  -5.551247e+05
   1.364811e+06   7.757787e+03
   1.014903e+06   6.789366e+05
  -2.609296e+05   9.335445e+05
  -1.276517e+06   5.899572e+05
  -1.146588e+06  -5.894915e+04
  -1.822548e+05  -4.600121e+05
   5.188749e+05  -2.879378e+05
   2.666903e+05   1.958892e+05
  -5.504710e+05   3.487978e+05
  -9.508038e+05  -1.874801e+05
  -4.023864e+05  -1.027971e+06
   6.591808e+05  -1.328917e+06
   1.302691e+06  -6.067466e+05
   1.015179e+06   6.969600e+05
   1.210445e+05   1.516819e+06
  -6.359480e+05   1.139379e+06
  -7.956082e+05  -6.830536e+04
  -4.390682e+05  -9.853797e+05
   7.598828e+04  -8.755671e+05
   4.335279e+05  -1.162168e+05
   4.698728e+05   3.434677e+05
   2.304007e+05   1.516612e+05
   5.389910e+03  -1.105651e+05
   9.151950e+04   1.757965e+05
   3.595591e+05   7.779919e+05
   2.618328e+05   9.256388e+05
  -4.648831e+05   3.465077e+05
  -1.239534e+06  -4.104794e+05
  -1.164237e+06  -7.170488e+05
  -1.590923e+05  -5.599664e+05
   8.108632e+05  -3.209338e+05
   8.582350e+05  -1.729719e+05
   2.201917e+05  -1.184492e+04
  -1.615589e+05   1.732451e+05
   7.778760e+04   2.312308e+05
   3.355700e+05   1.531537e+05
  -7.770698e+03   1.167224e+05
  -6.794281e+05   1.306361e+05
  -8.490123e+05  -6.818974e+04
  -1.678342e+05  -5.548323e+05
   8.333531e+05  -8.775323e+05
   1.338496e+06  -5.007198e+05
   1.005981e+06   4.517104e+05
   1.452455e+05   1.187285e+06
  -6.342430e+05   1.079583e+06
  -8.744888e+05   3.385745e+05
  -5.498277e+05  -2.744988e+05
  -5.105471e+04  -2.952485e+05
   1.578634e+05   2.004054e+04
  -3.311656e+04   9.235834e+04
  -2.947679e+05  -2.782595e+05
  -2.306564e+05  -6.750148e+05
   1.880187e+05  -5.304495e+05
   5.785117e+05   1.960527e+05
   5.135953e+05   8.779606e+05
  -5.640478e+04   8.369298e+05
  -6.910953e+05   7.389305e+04
  -7.937819e+05  -7.216134e+05
  -1.849556e+05  -8.997819e+05
   6.218982e+05  -4.570412e+05
   8.652188e+05   1.226216e+05
   3.619687e+05   4.431816e+05
  -2.443023e+05   4.525012e+05
  -2.330675e+05   2.729825e+05
   3.001164e+05   5.653286e+04
   5.621344e+05   3.035913e+03
   7.896874e+04   2.378081e+05
  -7.006339e+05   5.504550e+05
  -9.731066e+05   4.875844e+05
  -5.291199e+05  -8.673266e+04
   1.114561e+05  -6.748293e+05
   3.925750e+05  -6.536714e+05
   2.552914e+05  -5.440114e+04
  -2.311106e+04   4.349435e+05
  -2.264024e+05   2.982655e+05
  -2.880346e+05  -2.188469e+05
  -1.783586e+05  -4.864625e+05
   7.663454e+04  -2.699691e+05
   3.156991e+05   8.680357e+04
   3.555468e+05   1.834452e+05
   1.983141e+05   3.208647e+04
   1.761007e+04  -5.449512e+04
  -7.115339e+04   1.037462e+05
  -1.245957e+05   3.432397e+05
  -2.264968e+05   3.490612e+05
  -3.185583e+05   8.493571e+03
  -2.456099e+05  -4.264262e+05
   4.679814e+04  -5.465295e+05
   3.892533e+05  -2.012760e+05
   4.779900e+05   3.073610e+05
   1.446362e+05   5.143474e+05
  -4.031428e+05   2.732064e+05
  -6.715435e+05  -1.278441e+05
  -3.565669e+05  -3.278154e+05
   2.524522e+05  -2.547954e+05
   5.073080e+05  -8.774378e+04
   1.378816e+05   4.311603e+03
  -3.807663e+05  -2.914939e+04
  -3.677456e+05  -1.650160e+05
   2.288718e+05  -2.898577e+05
   7.502953e+05  -1.908378e+05
