
 $NMID
 id='ANONYMOUS ', fmtdat='(2E16.6)'
 volume=1.0
 tramp=1.0
 $END
  -1.729683e+07   5.907977e+05
  -1.246466e+07  -7.509671e+06
  -8.806593e+05  -1.124060e+07
   7.506911e+06  -8.211011e+06
   6.989237e+06  -1.268156e+06
   7.894599e+05   3.380402e+06
  -3.807185e+06   1.991555e+06
  -3.124978e+06  -2.890203e+06
   7.030924e+05  -5.312007e+06
   3.452306e+06  -2.513201e+06
   3.011974e+06   2.281032e+06
   4.172394e+05   3.843259e+06
  -1.698406e+06   7.899241e+05
  -1.357898e+06  -3.253873e+06
   1.091183e+06  -3.889041e+06
   3.126286e+06  -4.970010e+05
   2.410516e+06   3.549785e+06
  -6.942381e+05   4.611929e+06
  -3.390569e+06   2.234116e+06
  -3.433586e+06  -9.708903e+05
  -1.425787e+06  -2.353050e+06
   1.439396e+05  -1.750372e+06
  -2.315471e+05  -1.047599e+06
  -1.563395e+06  -1.669795e+06
  -1.587611e+06  -2.979198e+06
   7.289727e+05  -3.201919e+06
   3.852889e+06  -1.549784e+06
   4.910996e+06   9.054109e+05
   2.599944e+06   2.335189e+06
  -1.105876e+06   1.825697e+06
  -2.696405e+06   2.388603e+04
  -8.471886e+05  -1.490706e+06
   2.131728e+06  -1.395784e+06
   3.007269e+06   3.596233e+05
   1.234319e+06   2.349456e+06
  -8.881282e+05   2.738250e+06
  -1.287212e+06   1.082065e+06
  -2.681767e+05  -9.430425e+05
   5.159205e+05  -1.141712e+06
   2.013185e+05   6.740392e+05
  -7.581622e+05   2.265426e+06
  -1.488548e+06   1.526005e+06
  -1.374786e+06  -8.988852e+05
  -2.658482e+05  -2.251877e+06
   1.187546e+06  -9.248843e+05
   1.580604e+06   1.626229e+06
   2.371626e+04   2.589317e+06
  -2.439952e+06   9.345838e+05
  -3.409899e+06  -1.679013e+06
  -1.617937e+06  -2.886064e+06
   1.494655e+06  -1.913100e+06
   3.143374e+06   8.983665e+04
   2.037019e+06   1.424562e+06
  -4.533590e+05   1.273680e+06
  -1.879601e+06   1.313496e+05
  -1.176854e+06  -7.835724e+05
   4.929104e+05  -6.159546e+05
   1.154225e+06   3.561710e+05
   1.440349e+05   1.014329e+06
  -1.217987e+06   5.762385e+05
  -1.144674e+06  -5.483248e+05
   5.044218e+05  -1.163207e+06
   1.918910e+06  -4.952453e+05
   1.321664e+06   1.055493e+06
  -9.998609e+05   2.251944e+06
  -2.994640e+06   2.016951e+06
  -3.069070e+06   2.926910e+05
  -1.584507e+06  -1.840978e+06
  -8.601255e+04  -2.983868e+06
   4.908589e+05  -2.623527e+06
   5.009072e+05  -1.548063e+06
   7.444887e+05  -8.649604e+05
   1.420372e+06  -6.888954e+05
   1.989708e+06  -1.781998e+05
   1.793924e+06   1.060197e+06
   6.825249e+05   2.100250e+06
  -7.859354e+05   1.674795e+06
  -1.641628e+06  -1.660427e+05
  -1.190796e+06  -1.870648e+06
   3.294685e+05  -1.962282e+06
   1.782914e+06  -4.956010e+05
   2.047269e+06   1.185249e+06
   1.042827e+06   1.880050e+06
  -2.229349e+05   1.514826e+06
  -7.503744e+05   8.679748e+05
  -6.222790e+05   6.183698e+05
  -7.927341e+05   7.190726e+05
  -1.758175e+06   5.619049e+05
  -2.687882e+06  -3.255559e+05
  -2.202594e+06  -1.699469e+06
  -5.210089e+04  -2.673065e+06
   2.285299e+06  -2.429282e+06
   2.947761e+06  -9.753133e+05
   1.577218e+06   7.441909e+05
  -3.498431e+05   1.546235e+06
  -1.084787e+06   9.974270e+05
  -2.968716e+05  -1.727060e+05
   8.586377e+05  -7.299727e+05
   1.125715e+06  -1.757999e+05
   3.703239e+05   6.994358e+05
  -4.932746e+05   7.133458e+05
  -5.304786e+05  -2.333491e+05
   3.315943e+05  -8.848878e+05
   1.265056e+06  -8.022575e+04
   1.255221e+06   1.718740e+06
  -1.446182e+04   2.739708e+06
  -1.786251e+06   1.797952e+06
  -2.744503e+06  -4.131826e+05
  -2.116660e+06  -2.079777e+06
  -4.098351e+05  -2.102376e+06
   9.997987e+05  -9.771418e+05
   1.139023e+06  -9.681429e+03
   3.321165e+05   4.192130e+04
  -2.294126e+05  -4.938644e+05
   1.860392e+05  -7.709921e+05
   1.057295e+06  -3.477160e+05
   1.241768e+06   4.198986e+05
   3.455250e+05   7.914941e+05
  -7.266246e+05   4.127107e+05
  -7.272344e+05  -3.096281e+05
   4.943134e+05  -5.913578e+05
   1.704166e+06  -3.250929e+04
   1.539791e+06   9.823761e+05
  -3.214815e+04   1.606547e+06
  -1.644897e+06   1.268271e+06
  -1.913219e+06   1.888291e+05
  -7.780937e+05  -7.650762e+05
   5.476003e+05  -8.297956e+05
   8.484581e+05  -7.955753e+04
   2.355973e+04   6.032386e+05
  -9.755942e+05   4.215409e+05
  -1.150306e+06  -4.640431e+05
  -3.649055e+05  -1.098794e+06
   6.156615e+05  -8.136217e+05
   8.968052e+05   2.267084e+04
   3.099397e+05   4.587475e+05
  -4.235826e+05   5.085184e+04
  -4.099851e+05  -6.863910e+05
   4.694052e+05  -8.898164e+05
   1.361949e+06  -2.393141e+05
   1.292332e+06   7.803744e+05
   2.081387e+05   1.362065e+06
  -9.285248e+05   1.069221e+06
  -1.134945e+06   1.816731e+05
  -3.965362e+05  -5.497652e+05
   4.128701e+05  -5.679375e+05
   5.116506e+05  -2.363155e+04
  -2.775752e+04   4.090801e+05
  -4.901111e+05   2.838711e+05
  -3.505679e+05  -1.271297e+05
   1.870577e+05  -1.932068e+05
   4.399655e+05   2.814018e+05
  -2.508691e+04   7.768273e+05
  -9.045703e+05   6.129214e+05
  -1.389328e+06  -3.021433e+05
  -9.276078e+05  -1.329230e+06
   2.091221e+05  -1.665071e+06
   1.156216e+06  -1.046837e+06
   1.282896e+06   3.187152e+04
   7.541690e+05   7.661122e+05
   2.407368e+05   7.566557e+05
   1.460875e+05   3.346238e+05
   2.345034e+05   1.452826e+05
   2.491414e+04   4.002137e+05
  -5.634931e+05   6.335166e+05
  -1.044769e+06   2.802944e+05
  -8.345881e+05  -5.719991e+05
   1.324546e+05  -1.156222e+06
   1.227544e+06  -7.966988e+05
   1.580624e+06   3.588320e+05
   8.111226e+05   1.425017e+06
  -5.938528e+05   1.574936e+06
  -1.641754e+06   7.516701e+05
  -1.662147e+06  -3.466627e+05
  -8.382010e+05  -9.378091e+05
   5.779652e+04  -8.334469e+05
   4.243932e+05  -4.988235e+05
   3.122589e+05  -4.656221e+05
   2.075592e+05  -7.221913e+05
   4.329788e+05  -7.463831e+05
   8.025981e+05  -1.527614e+05
   8.394987e+05   7.779944e+05
   3.066289e+05   1.304481e+06
  -4.796999e+05   9.543891e+05
  -8.868074e+05  -4.728974e+03
  -5.648322e+05  -8.209470e+05
   1.818063e+05  -9.326024e+05
   6.728395e+05  -3.943746e+05
   5.318743e+05   2.793037e+05
   4.553274e+04   6.179059e+05
  -1.994122e+05   5.551048e+05
   3.297443e+03   3.605299e+05
   2.492161e+05   2.803047e+05
   5.949845e+03   2.803482e+05
  -7.245580e+05   1.417463e+05
  -1.304373e+06  -2.366216e+05
  -1.071537e+06  -6.816092e+05
  -5.565426e+04  -8.905403e+05
   9.686724e+05  -7.008871e+05
   1.204147e+06  -2.295617e+05
   6.050202e+05   2.050725e+05
  -1.261664e+05   3.124679e+05
  -3.126135e+05   7.504611e+04
   2.975861e+04  -1.953324e+05
   3.566917e+05  -1.363520e+05
   3.018634e+05   2.473994e+05
   3.828359e+04   5.248603e+05
  -5.385569e+04   3.286476e+05
   1.167638e+05  -1.383959e+05
   2.944465e+05  -2.785308e+05
   2.026115e+05   1.608478e+05
  -1.872880e+05   7.048883e+05
  -6.392793e+05   6.754843e+05
  -7.948572e+05   9.766846e+03
  -4.193679e+05  -6.435576e+05
   3.097230e+05  -6.572721e+05
   7.831678e+05  -8.964940e+04
   4.637656e+05   4.469293e+05
  -4.692770e+05   4.485061e+05
  -1.137111e+06  -4.884187e+04
  -8.161716e+05  -5.992662e+05
   2.549736e+05  -7.658322e+05
   1.080815e+06  -4.426926e+05
   9.461563e+05   8.969842e+04
   1.337285e+05   3.863620e+05
  -4.410539e+05   2.200279e+05
  -2.188213e+05  -1.737531e+05
   4.642393e+05  -2.798565e+05
   7.886964e+05   1.747755e+05
   3.180989e+05   8.645740e+05
  -5.730667e+05   1.096959e+06
  -1.098024e+06   4.815143e+05
  -8.313073e+05  -6.034801e+05
  -6.404105e+04  -1.267504e+06
   5.605614e+05  -9.288072e+05
   6.599494e+05   8.566233e+04
   3.315823e+05   8.348416e+05
  -9.732861e+04   7.211287e+05
  -3.673629e+05   7.914233e+04
  -3.745906e+05  -2.976585e+05
  -1.792587e+05  -1.292412e+05
  -9.389067e+03   8.965571e+04
  -8.175629e+04  -1.550276e+05
  -2.831471e+05  -6.600771e+05
  -1.852372e+05  -7.753856e+05
   4.069038e+05  -2.741672e+05
   1.021686e+06   3.739434e+05
   9.438079e+05   6.282410e+05
   1.165659e+05   4.741650e+05
  -6.777626e+05   2.486568e+05
  -7.177520e+05   1.188703e+05
  -1.907405e+05  -1.334746e+03
   1.352286e+05  -1.417120e+05
  -5.070281e+04  -1.906767e+05
  -2.656530e+05  -1.317919e+05
   7.369571e+03  -9.714075e+04
   5.606550e+05  -9.518793e+04
   7.076295e+05   7.633784e+04
   1.400992e+05   4.698485e+05
  -7.081476e+05   7.178690e+05
  -1.136862e+06   3.914608e+05
  -8.416914e+05  -3.974716e+05
  -9.559515e+04  -9.939039e+05
   5.605930e+05  -8.885119e+05
   7.400318e+05  -2.662004e+05
   4.502029e+05   2.386077e+05
   3.804233e+04   2.481623e+05
  -1.234400e+05  -1.496088e+04
   3.301347e+04  -6.927040e+04
   2.336646e+05   2.427417e+05
   1.705395e+05   5.682575e+05
  -1.681372e+05   4.387910e+05
  -4.751043e+05  -1.717204e+05
  -4.124343e+05  -7.384534e+05
   5.650349e+04  -6.982096e+05
   5.729131e+05  -5.471407e+04
   6.489397e+05   6.129227e+05
   1.389406e+05   7.568908e+05
  -5.296828e+05   3.737534e+05
  -7.244740e+05  -1.216954e+05
  -2.955123e+05  -3.863142e+05
   2.173497e+05  -3.797936e+05
   2.091600e+05  -2.223580e+05
  -2.418216e+05  -4.996506e+04
  -4.677952e+05  -1.507036e+04
  -6.313319e+04  -2.028288e+05
   5.981928e+05  -4.413760e+05
   8.310674e+05  -3.764508e+05
   4.479623e+05   9.240205e+04
  -1.084925e+05   5.641761e+05
  -3.514434e+05   5.395036e+05
  -2.239587e+05   4.491242e+04
   2.482602e+04  -3.597238e+05
   1.953197e+05  -2.486653e+05
   2.356519e+05   1.820499e+05
   1.384745e+05   4.104871e+05
  -6.891462e+04   2.309101e+05
  -2.619524e+05  -7.651984e+04
  -2.947971e+05  -1.670673e+05
  -1.648402e+05  -3.633570e+04
  -1.274154e+04   5.130073e+04
   6.117272e+04  -7.233193e+04
   1.010689e+05  -2.791971e+05
   1.824652e+05  -2.956762e+05
   2.621475e+05  -1.435514e+04
   2.061362e+05   3.531738e+05
  -3.803566e+04   4.551329e+05
  -3.263661e+05   1.630432e+05
  -3.976213e+05  -2.634910e+05
  -1.125318e+05  -4.303856e+05
   3.459424e+05  -2.194671e+05
   5.626360e+05   1.197134e+05
   2.922378e+05   2.820943e+05
  -2.169316e+05   2.125797e+05
  -4.279335e+05   6.873612e+04
  -1.215704e+05  -5.420123e+03
   3.082679e+05   2.645564e+04
   3.000137e+05   1.368794e+05
  -1.901680e+05   2.314135e+05
  -6.189952e+05   1.428147e+05
