
 $NMID
 id='ANONYMOUS ', fmtdat='(2E16.6)'
 volume=1.0
 tramp=1.0
 $END
   1.475910e+07  -1.183719e+06
   1.081388e+07   5.924119e+06
   1.099242e+06   9.472632e+06
  -6.012353e+06   7.186399e+06
  -5.751959e+06   1.322003e+06
  -7.186329e+05  -2.806272e+06
   3.145600e+06  -1.808664e+06
   2.736719e+06   2.327330e+06
  -3.852560e+05   4.515521e+06
  -2.813838e+06   2.245972e+06
  -2.634648e+06  -1.839508e+06
  -4.850839e+05  -3.251819e+06
   1.450919e+06  -7.161065e+05
   1.326131e+06   2.736867e+06
  -7.374977e+05   3.355463e+06
  -2.611977e+06   5.539708e+05
  -2.187000e+06  -2.884836e+06
   3.771491e+05  -3.898742e+06
   2.753147e+06  -2.011351e+06
   2.937560e+06   6.896327e+05
   1.294232e+06   1.957350e+06
  -9.135141e+04   1.507980e+06
   1.874447e+05   8.387510e+05
   1.397430e+06   1.252953e+06
   1.544529e+06   2.388135e+06
  -4.103934e+05   2.769179e+06
  -3.202698e+06   1.559004e+06
  -4.260663e+06  -5.139090e+05
  -2.340497e+06  -1.903627e+06
   8.876960e+05  -1.669083e+06
   2.354480e+06  -1.841843e+05
   8.490822e+05   1.238052e+06
  -1.709752e+06   1.334805e+06
  -2.565068e+06  -1.075491e+05
  -1.173910e+06  -1.904997e+06
   6.140094e+05  -2.361789e+06
   1.051860e+06  -9.679945e+05
   2.858421e+05   8.290283e+05
  -3.976343e+05   1.039600e+06
  -2.440973e+05  -5.501061e+05
   4.956966e+05  -1.974053e+06
   1.166094e+06  -1.371692e+06
   1.187858e+06   7.071253e+05
   3.065231e+05   1.890654e+06
  -9.809584e+05   8.028606e+05
  -1.415316e+06  -1.343767e+06
  -1.274560e+05  -2.209439e+06
   2.041703e+06  -9.112246e+05
   2.985664e+06   1.248767e+06
   1.518146e+06   2.353333e+06
  -1.173854e+06   1.689453e+06
  -2.660897e+06   8.047914e+04
  -1.764891e+06  -1.102669e+06
   3.614418e+05  -1.086322e+06
   1.595707e+06  -1.733541e+05
   1.005821e+06   6.307805e+05
  -4.163875e+05   5.456721e+05
  -9.907051e+05  -2.544395e+05
  -1.571838e+05  -8.414900e+05
   9.865047e+05  -5.237537e+05
   9.563156e+05   4.115556e+05
  -3.868834e+05   9.852913e+05
  -1.581214e+06   4.920718e+05
  -1.152726e+06  -8.283721e+05
   7.258391e+05  -1.952628e+06
   2.418174e+06  -1.867549e+06
   2.585153e+06  -4.123934e+05
   1.443255e+06   1.484728e+06
   2.187057e+05   2.527926e+06
  -2.905611e+05   2.225554e+06
  -3.267194e+05   1.299878e+06
  -5.411538e+05   7.603007e+05
  -1.132695e+06   6.907984e+05
  -1.680617e+06   3.036254e+05
  -1.608753e+06  -7.798902e+05
  -7.189838e+05  -1.753173e+06
   5.714413e+05  -1.483592e+06
   1.414593e+06   4.029450e+04
   1.124994e+06   1.525250e+06
  -1.735444e+05   1.692049e+06
  -1.498205e+06   5.208277e+05
  -1.809093e+06  -9.017377e+05
  -9.781157e+05  -1.548078e+06
   1.235599e+05  -1.295898e+06
   5.962737e+05  -7.624461e+05
   4.865424e+05  -5.419194e+05
   6.204907e+05  -6.470412e+05
   1.449650e+06  -5.794449e+05
   2.288603e+06   1.146134e+05
   1.958539e+06   1.307209e+06
   2.008142e+05   2.260783e+06
  -1.789265e+06   2.194468e+06
  -2.442622e+06   9.988741e+05
  -1.388834e+06  -5.470933e+05
   2.056567e+05  -1.342353e+06
   8.742648e+05  -9.088952e+05
   2.709340e+05   1.416438e+05
  -6.944761e+05   6.771085e+05
  -9.586014e+05   2.060025e+05
  -3.523283e+05  -5.867856e+05
   3.939676e+05  -6.383226e+05
   4.746650e+05   1.728630e+05
  -2.304496e+05   7.741853e+05
  -1.066201e+06   1.438685e+05
  -1.153711e+06  -1.373892e+06
  -1.431428e+05  -2.304772e+06
   1.394819e+06  -1.615765e+06
   2.328114e+06   1.868597e+05
   1.904183e+06   1.628183e+06
   4.720858e+05   1.750586e+06
  -7.860264e+05   8.828993e+05
  -9.629384e+05   7.002450e+04
  -2.810300e+05  -1.910670e+04
   2.261633e+05   4.092671e+05
  -1.162144e+05   6.711921e+05
  -8.854857e+05   3.553707e+05
  -1.083145e+06  -2.954709e+05
  -3.344526e+05  -6.656608e+05
   6.047082e+05  -4.005960e+05
   6.488052e+05   2.218063e+05
  -3.739411e+05   5.404707e+05
  -1.439053e+06   1.406486e+05
  -1.366293e+06  -7.334877e+05
  -7.286017e+04  -1.362155e+06
   1.317106e+06  -1.172058e+06
   1.609726e+06  -2.677925e+05
   6.992172e+05   6.101950e+05
  -4.253998e+05   7.362429e+05
  -7.210763e+05   1.083981e+05
  -5.276094e+04  -5.198549e+05
   8.093245e+05  -4.165109e+05
   1.004936e+06   3.311051e+05
   3.690907e+05   9.151482e+05
  -4.822189e+05   7.255906e+05
  -7.677363e+05   2.676232e+04
  -2.899729e+05  -3.820164e+05
   3.636817e+05  -7.871187e+04
   4.004952e+05   5.547833e+05
  -3.356192e+05   7.883201e+05
  -1.138078e+06   2.916798e+05
  -1.143202e+06  -5.821236e+05
  -2.559575e+05  -1.142995e+06
   7.277399e+05  -9.582945e+05
   9.526356e+05  -2.120568e+05
   3.641625e+05   4.523888e+05
  -3.248589e+05   5.101454e+05
  -4.416211e+05   4.707841e+04
  -7.826683e+03  -3.576067e+05
   3.978251e+05  -2.806866e+05
   3.123021e+05   8.072364e+04
  -1.365081e+05   1.781435e+05
  -3.856215e+05  -2.025885e+05
  -3.026830e+04  -6.523573e+05
   7.223122e+05  -5.731268e+05
   1.191588e+06   1.688091e+05
   8.641880e+05   1.066514e+06
  -7.998542e+04   1.419264e+06
  -9.185468e+05   9.513069e+05
  -1.085259e+06   4.567500e+04
  -6.769901e+05  -6.052327e+05
  -2.420289e+05  -6.255313e+05
  -1.392463e+05  -2.718611e+05
  -2.048804e+05  -1.028704e+05
  -4.661481e+04  -3.283596e+05
   4.309152e+05  -5.641222e+05
   8.563795e+05  -3.028973e+05
   7.355526e+05   4.246209e+05
  -3.784342e+04   9.796551e+05
  -9.825616e+05   7.485603e+05
  -1.355664e+06  -2.048087e+05
  -7.741603e+05  -1.156092e+06
   4.055634e+05  -1.370416e+06
   1.344557e+06  -7.355408e+05
   1.428540e+06   1.960251e+05
   7.652270e+05   7.471275e+05
  -4.987735e+02   7.108980e+05
  -3.310167e+05   4.467295e+05
  -2.382097e+05   4.096985e+05
  -1.339955e+05   6.202060e+05
  -3.220945e+05   6.554397e+05
  -6.690687e+05   1.766309e+05
  -7.556414e+05  -6.083261e+05
  -3.363373e+05  -1.085764e+06
   3.504503e+05  -8.363625e+05
   7.529296e+05  -4.901207e+04
   5.290469e+05   6.608999e+05
  -9.720001e+04   8.011648e+05
  -5.464642e+05   3.773267e+05
  -4.693852e+05  -2.009417e+05
  -7.932697e+04  -5.202658e+05
   1.332783e+05  -4.855751e+05
  -2.249199e+04  -3.073867e+05
  -2.235726e+05  -2.198189e+05
  -2.099019e+04  -2.331478e+05
   5.999646e+05  -1.641668e+05
   1.112520e+06   1.173662e+05
   9.475363e+05   5.098804e+05
   1.054236e+05   7.518881e+05
  -7.738748e+05   6.534547e+05
  -1.006461e+06   2.666676e+05
  -5.283453e+05  -1.371968e+05
   8.515591e+04  -2.709741e+05
   2.591489e+05  -8.377879e+04
  -1.351201e+04   1.608160e+05
  -2.923066e+05   1.305497e+05
  -2.661810e+05  -1.911433e+05
  -5.842283e+04  -4.366346e+05
   2.913747e+04  -2.778287e+05
  -9.056172e+04   1.237591e+05
  -2.333927e+05   2.542159e+05
  -1.812986e+05  -1.183355e+05
   1.143359e+05  -6.014801e+05
   4.942041e+05  -6.094564e+05
   6.640163e+05  -6.158380e+04
   3.902413e+05   5.126869e+05
  -2.182137e+05   5.708209e+05
  -6.496881e+05   1.217558e+05
  -4.149584e+05  -3.497412e+05
   3.696495e+05  -4.057424e+05
   9.632541e+05  -2.424112e+04
   7.259127e+05   4.601654e+05
  -1.703179e+05   6.638367e+05
  -8.896916e+05   4.385754e+05
  -8.075847e+05  -2.066236e+04
  -1.360096e+05  -3.204036e+05
   3.616770e+05  -2.138455e+05
   1.970183e+05   1.324258e+05
  -3.743278e+05   2.624963e+05
  -6.741769e+05  -1.015976e+05
  -3.162724e+05  -7.089691e+05
   4.211705e+05  -9.542742e+05
   8.972874e+05  -4.655849e+05
   7.337343e+05   4.622358e+05
   1.253196e+05   1.064935e+06
  -4.208017e+05   8.166288e+05
  -5.641103e+05  -3.264187e+04
  -3.310277e+05  -6.868454e+05
   3.858060e+04  -6.193959e+05
   3.059329e+05  -9.166736e+04
   3.354864e+05   2.313136e+05
   1.608251e+05   1.019488e+05
   3.613078e+03  -7.761410e+04
   7.791839e+04   1.213178e+05
   2.773443e+05   5.395427e+05
   2.023331e+05   6.481733e+05
  -3.262711e+05   2.590039e+05
  -8.839781e+05  -2.575871e+05
  -8.343257e+05  -4.783947e+05
  -1.267437e+05  -3.923769e+05
   5.583763e+05  -2.455743e+05
   5.999786e+05  -1.416081e+05
   1.606599e+05  -1.335076e+04
  -1.072331e+05   1.259767e+05
   5.361015e+04   1.612014e+05
   2.327952e+05   9.903087e+04
  -1.460400e+02   8.081799e+04
  -4.677840e+05   1.091113e+05
  -6.003671e+05  -2.295066e+04
  -1.429092e+05  -3.829159e+05
   5.561769e+05  -6.419178e+05
   9.321301e+05  -3.960952e+05
   7.273652e+05   2.836991e+05
   1.364378e+05   8.309399e+05
  -4.185098e+05   7.814431e+05
  -6.053100e+05   2.667478e+05
  -3.924257e+05  -1.756592e+05
  -4.675246e+04  -2.054491e+05
   1.046046e+05   9.114788e+03
  -2.506073e+04   6.296961e+04
  -2.135968e+05  -1.916017e+05
  -1.786121e+05  -4.711183e+05
   1.161418e+05  -3.798429e+05
   4.098783e+05   1.189695e+05
   3.875971e+05   5.990471e+05
  -9.874857e+03   5.887210e+05
  -4.785637e+05   7.479077e+04
  -5.784918e+05  -4.806419e+05
  -1.591511e+05  -6.275199e+05
   4.225670e+05  -3.431313e+05
   6.153436e+05   5.936197e+04
   2.729248e+05   3.046135e+05
  -1.572395e+05   3.312577e+05
  -1.608546e+05   2.028022e+05
   2.068088e+05   3.250786e+04
   3.945510e+05  -1.340760e+04
   6.459374e+04   1.655014e+05
  -4.792863e+05   4.066538e+05
  -6.794204e+05   3.690806e+05
  -3.829953e+05  -4.783299e+04
   5.837292e+04  -4.807176e+05
   2.621926e+05  -4.764029e+05
   1.816057e+05  -5.209953e+04
  -2.723482e+03   3.035681e+05
  -1.487926e+05   2.188214e+05
  -2.061981e+05  -1.418256e+05
  -1.398424e+05  -3.374235e+05
   4.287515e+04  -1.960359e+05
   2.240222e+05   5.026585e+04
   2.592438e+05   1.218523e+05
   1.424009e+05   2.005951e+04
   6.441266e+03  -4.126512e+04
  -5.166464e+04   6.749761e+04
  -7.346644e+04   2.387114e+05
  -1.377593e+05   2.523221e+05
  -2.164983e+05   2.178036e+04
  -1.881053e+05  -2.846098e+05
   9.814192e+03  -3.810806e+05
   2.650479e+05  -1.537033e+05
   3.468819e+05   1.983922e+05
   1.176442e+05   3.552296e+05
  -2.775880e+05   2.053290e+05
  -4.785489e+05  -6.764460e+04
  -2.618458e+05  -2.202089e+05
   1.688210e+05  -1.902308e+05
   3.539666e+05  -8.112591e+04
   1.006239e+05  -3.676563e+03
  -2.618123e+05  -9.018227e+03
  -2.587640e+05  -1.018781e+05
   1.507467e+05  -2.051081e+05
   5.163883e+05  -1.516979e+05
