
 $NMID
 id='ANONYMOUS ', fmtdat='(2E16.6)'
 volume=1.0
 tramp=1.0
 $END
  -5.014937e+07  -1.382063e+05
  -3.042186e+07  -3.050953e+07
   6.130569e+06  -3.377776e+07
   2.440193e+07  -1.370378e+07
   1.502704e+07   5.569713e+06
  -2.611834e+06   8.393286e+06
  -8.915646e+06  -6.201574e+05
  -2.920901e+06  -8.683816e+06
   5.297395e+06  -8.816759e+06
   8.701441e+06  -2.145291e+06
   6.381513e+06   5.639252e+06
   7.176131e+05   7.923851e+06
  -3.677989e+06   2.406064e+06
  -2.447604e+06  -5.210309e+06
   3.360116e+06  -6.226464e+06
   7.151278e+06   1.024370e+06
   4.137592e+06   9.185894e+06
  -3.308148e+06   1.068834e+07
  -9.071493e+06   5.299538e+06
  -9.630719e+06  -1.946500e+06
  -5.726637e+06  -6.705466e+06
  -4.946509e+05  -7.504877e+06
   2.380743e+06  -5.189192e+06
   1.192490e+06  -2.553620e+06
  -1.268337e+06  -2.416590e+06
  -5.101314e+04  -4.145123e+06
   5.308293e+06  -3.955668e+06
   9.042977e+06  -1.834847e+05
   6.359256e+06   3.944840e+06
  -6.279127e+04   4.584431e+06
  -3.679950e+06   2.118546e+06
  -2.239152e+06  -3.291015e+05
   9.637592e+05  -1.094744e+06
   2.542346e+06  -3.342268e+05
   2.081271e+06   1.696129e+06
   3.664459e+05   3.840992e+06
  -1.781204e+06   3.400087e+06
  -2.720092e+06  -3.158717e+05
  -1.276228e+06  -3.259562e+06
   7.006196e+05  -1.432292e+06
   1.175170e+05   2.529999e+06
  -2.353473e+06   2.227703e+06
  -2.300262e+06  -2.834907e+06
   1.963241e+06  -5.528734e+06
   5.979626e+06  -1.004131e+06
   4.530047e+06   6.080429e+06
  -1.600366e+06   7.577685e+06
  -6.657347e+06   2.167685e+06
  -6.458750e+06  -4.052466e+06
  -1.858069e+06  -5.603081e+06
   3.200046e+06  -2.641818e+06
   5.017027e+06   1.292798e+06
   2.427413e+06   3.191674e+06
  -2.104560e+06   2.076315e+06
  -4.137811e+06  -7.536516e+05
  -1.846942e+06  -2.423030e+06
   1.533786e+06  -1.256487e+06
   1.683250e+06   9.324875e+05
  -1.059922e+06   9.752460e+05
  -2.297144e+06  -1.323750e+06
   2.689126e+05  -2.945056e+06
   3.920485e+06  -1.801036e+06
   4.772540e+06   1.023770e+06
   2.181235e+06   3.508265e+06
  -1.720562e+06   4.821904e+06
  -4.797928e+06   4.417270e+06
  -5.782931e+06   1.483064e+06
  -4.111682e+06  -3.023827e+06
  -7.739004e+05  -5.745436e+06
   1.656646e+06  -4.497503e+06
   1.559740e+06  -1.337787e+06
   2.902627e+05   1.352422e+04
   2.916613e+05  -9.719821e+05
   1.776085e+06  -1.522036e+06
   2.731921e+06   4.288011e+04
   1.828900e+06   2.073031e+06
  -1.595275e+05   2.153838e+06
  -1.656803e+06   1.330406e+05
  -1.652877e+06  -2.138885e+06
   7.832572e+04  -2.865428e+06
   2.689312e+06  -1.469593e+06
   4.143396e+06   1.260897e+06
   2.875405e+06   3.529444e+06
  -9.595319e+04   3.820948e+06
  -2.051810e+06   2.423091e+06
  -1.979570e+06   1.066152e+06
  -1.688345e+06   7.186247e+05
  -2.822837e+06   5.153924e+05
  -4.191321e+06  -7.114862e+05
  -3.365793e+06  -2.675358e+06
  -1.082695e+05  -4.012609e+06
   3.173776e+06  -3.763712e+06
   4.120057e+06  -1.963920e+06
   2.554218e+06   5.231101e+05
   1.460575e+05   2.200948e+06
  -1.161588e+06   1.823489e+06
  -5.359353e+05  -7.278413e+04
   1.099751e+06  -1.248357e+06
   1.838145e+06  -3.620507e+05
   8.436838e+05   1.162831e+06
  -5.466840e+05   1.083011e+06
  -4.738849e+05  -3.787873e+05
   9.634411e+05  -7.708871e+05
   1.816845e+06   1.060999e+06
   7.953109e+05   3.276412e+06
  -1.342432e+06   3.424336e+06
  -3.003524e+06   1.300840e+06
  -3.338781e+06  -1.305232e+06
  -2.338962e+06  -2.755956e+06
  -4.566836e+05  -2.629873e+06
   1.255029e+06  -1.427386e+06
   1.563142e+06  -1.861762e+05
   4.824680e+05   4.994175e+04
  -3.464820e+05  -7.381321e+05
   3.936684e+05  -1.289039e+06
   1.830564e+06  -5.507791e+05
   1.967708e+06   8.473852e+05
   3.875771e+05   1.363511e+06
  -1.144489e+06   5.625377e+05
  -8.996237e+05  -4.536195e+05
   8.194685e+05  -5.571871e+05
   2.185879e+06   2.738151e+05
   1.778131e+06   1.353248e+06
  -2.269920e+05   1.988514e+06
  -2.292029e+06   1.642397e+06
  -2.733229e+06   2.543699e+05
  -1.179695e+06  -1.233250e+06
   8.979455e+05  -1.435379e+06
   1.494983e+06  -1.677085e+05
   1.700580e+05   1.040298e+06
  -1.486513e+06   7.024136e+05
  -1.683587e+06  -7.666480e+05
  -3.472370e+05  -1.624397e+06
   1.058383e+06  -9.829953e+05
   1.244972e+06   2.807404e+05
   2.637237e+05   7.601312e+05
  -7.645044e+05   5.463654e+04
  -7.058030e+05  -1.034625e+06
   5.861010e+05  -1.385983e+06
   1.977634e+06  -5.023313e+05
   1.981799e+06   1.055039e+06
   3.573127e+05   2.035236e+06
  -1.417625e+06   1.600025e+06
  -1.693471e+06   2.023850e+05
  -4.981747e+05  -8.528583e+05
   6.487411e+05  -7.917542e+05
   6.404608e+05  -6.533498e+04
  -1.085051e+05   3.863727e+05
  -5.137510e+05   2.301500e+05
  -1.702877e+05  -7.987991e+04
   4.177932e+05   3.224273e+04
   5.214186e+05   6.304498e+05
  -1.878047e+05   1.160243e+06
  -1.357220e+06   8.743946e+05
  -2.040899e+06  -4.212864e+05
  -1.419175e+06  -1.920495e+06
   2.371994e+05  -2.383404e+06
   1.607382e+06  -1.395336e+06
   1.684769e+06   1.247760e+05
   8.671498e+05   9.150522e+05
   3.106491e+05   6.987147e+05
   4.348381e+05   2.502326e+05
   5.806543e+05   2.973869e+05
   7.973905e+04   7.289457e+05
  -8.592898e+05   8.841427e+05
  -1.434754e+06   3.226438e+05
  -1.048547e+06  -7.286770e+05
   2.467427e+05  -1.461892e+06
   1.707908e+06  -1.057561e+06
   2.217006e+06   4.921369e+05
   1.111388e+06   2.071381e+06
  -9.893078e+05   2.316647e+06
  -2.491717e+06   1.010025e+06
  -2.320504e+06  -6.444257e+05
  -9.654725e+05  -1.328255e+06
   1.945137e+05  -9.629116e+05
   4.142313e+05  -5.255437e+05
   1.261294e+05  -7.309596e+05
   1.318915e+05  -1.254969e+06
   6.616200e+05  -1.241206e+06
   1.260415e+06  -2.961165e+05
   1.298193e+06   1.076490e+06
   5.259020e+05   1.869016e+06
  -6.287192e+05   1.406697e+06
  -1.267252e+06  -9.393665e+03
  -7.950767e+05  -1.257978e+06
   3.769499e+05  -1.368915e+06
   1.126321e+06  -4.140188e+05
   7.920611e+05   6.563066e+05
  -1.036856e+05   1.038586e+06
  -5.035263e+05   7.718304e+05
  -7.622731e+04   4.224924e+05
   4.162188e+05   3.402459e+05
   5.124549e+04   3.797464e+05
  -1.120680e+06   2.011576e+05
  -2.010530e+06  -3.374905e+05
  -1.581219e+06  -1.023436e+06
   2.983765e+04  -1.398127e+06
   1.549788e+06  -1.102912e+06
   1.796882e+06  -2.706845e+05
   8.250904e+05   4.693380e+05
  -2.504371e+05   5.464921e+05
  -4.978863e+05   3.946235e+04
  -2.071027e+04  -3.985370e+05
   4.449934e+05  -2.448557e+05
   4.676267e+05   3.405664e+05
   2.249572e+05   7.157742e+05
   7.397295e+04   4.710430e+05
   1.394470e+05  -1.034978e+05
   2.924038e+05  -2.978760e+05
   2.722791e+05   2.294539e+05
  -1.566640e+05   9.734338e+05
  -8.922761e+05   1.037693e+06
  -1.320203e+06   1.527170e+05
  -8.113692e+05  -9.044730e+05
   4.156729e+05  -1.102225e+06
   1.227017e+06  -3.079170e+05
   7.139292e+05   5.743762e+05
  -6.930180e+05   6.354302e+05
  -1.569946e+06  -1.013524e+05
  -1.002309e+06  -8.578638e+05
   4.730046e+05  -9.834428e+05
   1.486724e+06  -4.771169e+05
   1.226628e+06   1.909049e+05
   1.340896e+05   5.119668e+05
  -6.414953e+05   2.660030e+05
  -3.723997e+05  -2.880247e+05
   5.850395e+05  -5.028017e+05
   1.162030e+06   9.714424e+04
   6.415900e+05   1.170892e+06
  -6.040278e+05   1.667211e+06
  -1.472672e+06   8.543255e+05
  -1.231567e+06  -7.595356e+05
  -1.846956e+05  -1.770433e+06
   7.417040e+05  -1.276069e+06
   9.145145e+05   1.761489e+05
   4.218909e+05   1.180012e+06
  -2.186123e+05   9.601059e+05
  -5.540095e+05   8.186834e+04
  -4.612484e+05  -3.786412e+05
  -1.647796e+05  -1.400277e+05
  -4.732528e+04   9.577506e+04
  -2.679960e+05  -2.880795e+05
  -4.934984e+05  -9.550958e+05
  -1.851467e+05  -1.068408e+06
   7.023998e+05  -3.872290e+05
   1.452731e+06   4.702024e+05
   1.261450e+06   8.368351e+05
   1.783105e+05   6.899821e+05
  -8.479933e+05   4.061477e+05
  -9.741974e+05   1.735781e+05
  -3.541306e+05  -5.202317e+04
   1.459656e+05  -2.209458e+05
   3.469457e+04  -2.051441e+05
  -2.624457e+05  -9.785514e+04
  -4.829042e+04  -1.312107e+05
   6.558148e+05  -2.268895e+05
   1.032457e+06   1.698130e+04
   4.220133e+05   6.829189e+05
  -8.365778e+05   1.156371e+06
  -1.679728e+06   7.391094e+05
  -1.389578e+06  -4.305137e+05
  -2.649871e+05  -1.388772e+06
   7.628382e+05  -1.355013e+06
   1.037428e+06  -5.271296e+05
   6.452150e+05   2.319832e+05
   1.309551e+05   3.537418e+05
  -6.821989e+04   6.447124e+04
   8.152146e+04  -1.610477e+04
   2.950580e+05   3.654151e+05
   2.401721e+05   7.996959e+05
  -1.788003e+05   6.700485e+05
  -6.708190e+05  -1.203449e+05
  -7.274298e+05  -9.389295e+05
  -1.148637e+05  -1.017367e+06
   7.407606e+05  -2.451533e+05
   1.020004e+06   7.100838e+05
   3.441052e+05   1.075645e+06
  -7.037744e+05   6.698999e+05
  -1.105545e+06  -7.420747e+04
  -5.265290e+05  -6.073805e+05
   2.837201e+05  -6.723671e+05
   3.780548e+05  -3.643769e+05
  -2.402006e+05  -9.374582e+03
  -6.402069e+05   3.780335e+04
  -1.456912e+05  -3.046886e+05
   8.167402e+05  -6.678728e+05
   1.248835e+06  -5.286406e+05
   7.571536e+05   1.786345e+05
  -9.593306e+04   8.596217e+05
  -5.499132e+05   8.470473e+05
  -4.238596e+05   1.634993e+05
  -5.421377e+04  -4.706520e+05
   2.351680e+05  -4.318266e+05
   3.460816e+05   1.415364e+05
   2.509368e+05   5.699570e+05
  -5.021060e+04   4.255123e+05
  -3.857125e+05  -4.237200e+04
  -4.717114e+05  -2.802740e+05
  -2.400981e+05  -9.826882e+04
   3.698794e+04   1.512385e+05
   8.361962e+04   5.027137e+04
  -1.735731e+04  -3.443848e+05
   3.882698e+04  -5.461184e+05
   3.097945e+05  -2.238297e+05
   4.575906e+05   3.670705e+05
   1.635449e+05   6.367023e+05
  -3.998714e+05   3.126357e+05
  -6.588922e+05  -2.714862e+05
  -2.531263e+05  -5.634663e+05
   5.025382e+05  -3.622183e+05
   8.743874e+05   7.108672e+04
   4.748663e+05   3.722933e+05
  -2.890540e+05   3.996658e+05
  -6.314648e+05   2.311463e+05
  -2.517280e+05   2.010873e+04
   3.343585e+05  -7.124887e+04
   3.986552e+05   5.638272e+04
  -1.611149e+05   2.826053e+05
  -7.247089e+05   2.672390e+05
