
 $NMID
 id='ANONYMOUS ', fmtdat='(2E16.6)'
 volume=1.0
 tramp=1.0
 $END
   2.130716e+07   1.051159e+05
   1.443575e+07   1.023321e+07
  -2.855737e+04   1.373582e+07
  -9.524075e+06   9.004965e+06
  -8.027947e+06   7.385934e+05
  -4.557585e+05  -3.964319e+06
   4.509437e+06  -1.860137e+06
   3.274854e+06   3.601278e+06
  -1.202212e+06   5.984654e+06
  -4.158205e+06   2.600427e+06
  -3.439135e+06  -2.836369e+06
  -3.465039e+05  -4.503865e+06
   2.059666e+06  -8.916931e+05
   1.519144e+06   3.781498e+06
  -1.414675e+06   4.405875e+06
  -3.677977e+06   3.598363e+05
  -2.651524e+06  -4.308543e+06
   1.043096e+06  -5.403756e+06
   4.139367e+06  -2.534097e+06
   4.147646e+06   1.256180e+06
   1.753339e+06   2.963466e+06
  -2.514950e+05   2.318177e+06
  -1.989177e+04   1.348361e+06
   1.532203e+06   1.794166e+06
   1.778962e+06   3.211494e+06
  -7.440710e+05   3.625636e+06
  -4.408148e+06   1.869872e+06
  -5.741921e+06  -1.013531e+06
  -3.080942e+06  -2.795819e+06
   1.251603e+06  -2.246764e+06
   3.132691e+06  -1.412035e+05
   1.076173e+06   1.618695e+06
  -2.262922e+06   1.566425e+06
  -3.298278e+06  -3.188740e+05
  -1.426427e+06  -2.539724e+06
   9.194807e+05  -3.094177e+06
   1.492620e+06  -1.316207e+06
   4.577099e+05   1.068880e+06
  -5.104999e+05   1.453387e+06
  -3.159690e+05  -6.099418e+05
   7.673333e+05  -2.542631e+06
   1.698210e+06  -1.717478e+06
   1.521736e+06   1.144700e+06
   6.173477e+04   2.660119e+06
  -1.642897e+06   9.151855e+05
  -1.855718e+06  -2.174485e+06
   1.847130e+05  -3.175195e+06
   3.008630e+06  -1.037212e+06
   3.932184e+06   2.066337e+06
   1.752948e+06   3.362908e+06
  -1.780925e+06   2.117828e+06
  -3.563734e+06  -2.200117e+05
  -2.209146e+06  -1.690416e+06
   6.599087e+05  -1.404594e+06
   2.208724e+06  -1.372926e+04
   1.278965e+06   1.000912e+06
  -6.508004e+05   6.944263e+05
  -1.288280e+06  -4.519408e+05
  -6.053131e+04  -1.084613e+06
   1.370135e+06  -4.675774e+05
   1.092978e+06   7.455632e+05
  -8.083026e+05   1.250164e+06
  -2.263211e+06   3.820726e+05
  -1.458710e+06  -1.338786e+06
   1.182988e+06  -2.635027e+06
   3.443658e+06  -2.356346e+06
   3.579257e+06  -3.619921e+05
   1.895522e+06   2.151666e+06
   8.582493e+04   3.480714e+06
  -6.548570e+05   2.974333e+06
  -5.983907e+05   1.646799e+06
  -7.374683e+05   9.001881e+05
  -1.473263e+06   8.272171e+05
  -2.213407e+06   3.244128e+05
  -2.085146e+06  -1.106015e+06
  -8.455133e+05  -2.346004e+06
   8.373636e+05  -1.904111e+06
   1.829881e+06   1.615831e+05
   1.347035e+06   2.096678e+06
  -3.660034e+05   2.235205e+06
  -2.052688e+06   5.958239e+05
  -2.399864e+06  -1.351543e+06
  -1.238297e+06  -2.214763e+06
   2.830027e+05  -1.820294e+06
   9.371161e+05  -1.029405e+06
   7.720688e+05  -6.823528e+05
   9.227108e+05  -7.792891e+05
   2.003853e+06  -6.098689e+05
   3.057122e+06   3.923831e+05
   2.494547e+06   1.945029e+06
   5.027455e+04   3.039174e+06
  -2.589437e+06   2.767237e+06
  -3.343097e+06   1.132929e+06
  -1.814757e+06  -8.261832e+05
   3.615211e+05  -1.767189e+06
   1.222381e+06  -1.152475e+06
   3.490653e+05   2.009622e+05
  -9.802616e+05   8.430361e+05
  -1.302588e+06   1.864993e+05
  -4.284296e+05  -8.215272e+05
   5.689864e+05  -8.103345e+05
   5.882914e+05   2.755650e+05
  -4.089064e+05   9.656101e+05
  -1.419188e+06   8.612269e+03
  -1.331506e+06  -1.982406e+06
   1.081434e+05  -3.035401e+06
   2.027786e+06  -1.931757e+06
   3.039263e+06   5.089992e+05
   2.338799e+06   2.326247e+06
   4.563469e+05   2.349268e+06
  -1.119115e+06   1.105112e+06
  -1.284079e+06   1.557819e+04
  -3.728640e+05  -4.978881e+04
   2.600099e+05   5.672599e+05
  -2.300777e+05   8.885651e+05
  -1.229291e+06   3.853080e+05
  -1.416099e+06  -5.123480e+05
  -3.688433e+05  -9.241068e+05
   8.460219e+05  -4.645739e+05
   8.251882e+05   3.592390e+05
  -5.603873e+05   6.601860e+05
  -1.910934e+06   2.530655e+04
  -1.718749e+06  -1.102724e+06
   4.481326e+04  -1.797138e+06
   1.859043e+06  -1.421261e+06
   2.164786e+06  -2.023637e+05
   8.741502e+05   8.843106e+05
  -6.431319e+05   9.505963e+05
  -9.838236e+05   7.712431e+04
  -2.583817e+04  -7.050734e+05
   1.120988e+06  -4.789718e+05
   1.303204e+06   5.427856e+05
   3.908756e+05   1.250395e+06
  -7.174279e+05   9.019840e+05
  -1.013532e+06  -5.349590e+04
  -3.323078e+05  -5.361034e+05
   5.012816e+05  -6.012458e+04
   4.820944e+05   7.856677e+05
  -5.234708e+05   1.024430e+06
  -1.548374e+06   2.857686e+05
  -1.473843e+06  -8.832988e+05
  -2.334205e+05  -1.550524e+06
   1.064545e+06  -1.208041e+06
   1.288315e+06  -1.888533e+05
   4.344630e+05   6.350753e+05
  -4.824305e+05   6.409330e+05
  -5.812025e+05   2.214900e+04
   3.179689e+04  -4.599984e+05
   5.445163e+05  -3.207297e+05
   3.846764e+05   1.312738e+05
  -2.105652e+05   2.024170e+05
  -4.874837e+05  -3.238630e+05
   3.386893e+04  -8.765379e+05
   1.023417e+06  -6.936566e+05
   1.574926e+06   3.403359e+05
   1.054026e+06   1.505873e+06
  -2.373180e+05   1.881886e+06
  -1.307432e+06   1.171769e+06
  -1.437220e+06  -4.510756e+04
  -8.326633e+05  -8.531382e+05
  -2.669753e+05  -8.275913e+05
  -1.795845e+05  -3.622372e+05
  -2.808059e+05  -1.675069e+05
  -3.318023e+04  -4.566448e+05
   6.329726e+05  -7.114575e+05
   1.169154e+06  -3.174218e+05
   9.335439e+05   6.308047e+05
  -1.467742e+05   1.290327e+06
  -1.379152e+06   8.981969e+05
  -1.783921e+06  -4.021228e+05
  -9.142829e+05  -1.615766e+06
   6.836438e+05  -1.786930e+06
   1.869150e+06  -8.424802e+05
   1.875266e+06   4.073431e+05
   9.296631e+05   1.062666e+06
  -7.402697e+04   9.277446e+05
  -4.673017e+05   5.519071e+05
  -3.339179e+05   5.311291e+05
  -2.279399e+05   8.303193e+05
  -4.959543e+05   8.531528e+05
  -9.160569e+05   1.750313e+05
  -9.543731e+05  -8.805140e+05
  -3.492290e+05  -1.477970e+06
   5.428315e+05  -1.082158e+06
   1.005532e+06   8.060417e+03
   6.376045e+05   9.364246e+05
  -2.155179e+05   1.057439e+06
  -7.734382e+05   4.357432e+05
  -6.041772e+05  -3.325670e+05
  -4.053141e+04  -7.093924e+05
   2.406409e+05  -6.281683e+05
   3.961188e+03  -4.023813e+05
  -2.834234e+05  -3.105878e+05
  -9.925108e+03  -3.126590e+05
   8.220281e+05  -1.603941e+05
   1.482384e+06   2.656080e+05
   1.215126e+06   7.747886e+05
   5.641256e+04   1.018420e+06
  -1.107266e+06   7.998267e+05
  -1.368871e+06   2.525928e+05
  -6.833341e+05  -2.460615e+05
   1.462921e+05  -3.594637e+05
   3.563335e+05  -8.088582e+04
  -2.893946e+04   2.241168e+05
  -3.966534e+05   1.526275e+05
  -3.400918e+05  -2.785085e+05
  -5.122577e+04  -5.870242e+05
   5.304960e+04  -3.693299e+05
  -1.293511e+05   1.499980e+05
  -3.250057e+05   3.098515e+05
  -2.300348e+05  -1.771059e+05
   2.013534e+05  -7.913755e+05
   7.182125e+05  -7.702598e+05
   9.083948e+05  -2.490547e+04
   4.874802e+05   7.232101e+05
  -3.462924e+05   7.526495e+05
  -8.885237e+05   1.127477e+05
  -5.245917e+05  -5.007426e+05
   5.321406e+05  -5.045437e+05
   1.280012e+06   6.051202e+04
   9.101203e+05   6.794234e+05
  -2.966110e+05   8.577222e+05
  -1.219414e+06   4.878330e+05
  -1.062256e+06  -1.079139e+05
  -1.464313e+05  -4.353322e+05
   5.016652e+05  -2.453156e+05
   2.527493e+05   1.995785e+05
  -5.194179e+05   3.224276e+05
  -8.926790e+05  -1.888491e+05
  -3.688262e+05  -9.718680e+05
   6.359549e+05  -1.241345e+06
   1.233415e+06  -5.493956e+05
   9.379752e+05   6.771635e+05
   7.390968e+04   1.427667e+06
  -6.323324e+05   1.043895e+06
  -7.447186e+05  -1.013730e+05
  -3.706331e+05  -9.442877e+05
   1.167090e+05  -8.134584e+05
   4.182739e+05  -8.895060e+04
   4.188384e+05   3.354598e+05
   1.970341e+05   1.460208e+05
   1.408278e+04  -9.956365e+04
   1.029820e+05   1.771429e+05
   3.241980e+05   7.468420e+05
   2.013587e+05   8.767617e+05
  -4.685902e+05   3.107733e+05
  -1.152229e+06  -4.217183e+05
  -1.058749e+06  -7.098750e+05
  -1.320901e+05  -5.359723e+05
   7.577124e+05  -2.801328e+05
   8.080873e+05  -1.323445e+05
   2.211373e+05   3.134380e+03
  -1.507547e+05   1.596032e+05
   4.886277e+04   2.124360e+05
   2.923743e+05   1.452874e+05
  -3.542158e+03   1.085230e+05
  -6.232066e+05   1.103056e+05
  -8.001793e+05  -8.130135e+04
  -1.713754e+05  -5.282683e+05
   7.894541e+05  -8.147470e+05
   1.286088e+06  -4.517760e+05
   9.589351e+05   4.390932e+05
   1.133458e+05   1.118897e+06
  -6.306146e+05   1.008002e+06
  -8.327808e+05   3.092526e+05
  -5.076068e+05  -2.631305e+05
  -4.833054e+04  -2.795677e+05
   1.312779e+05   1.331559e+04
  -4.085873e+04   7.401947e+04
  -2.622767e+05  -2.765864e+05
  -1.919212e+05  -6.430436e+05
   1.870074e+05  -4.984417e+05
   5.352745e+05   1.876935e+05
   4.713602e+05   8.271321e+05
  -5.377905e+04   7.872647e+05
  -6.403392e+05   6.883796e+04
  -7.344632e+05  -6.828220e+05
  -1.640074e+05  -8.525338e+05
   5.933870e+05  -4.285457e+05
   8.210954e+05   1.311320e+05
   3.415158e+05   4.384173e+05
  -2.416540e+05   4.370442e+05
  -2.412102e+05   2.564212e+05
   2.647251e+05   5.556003e+04
   5.254678e+05   1.447518e+04
   7.460654e+04   2.288139e+05
  -6.742461e+05   4.990835e+05
  -9.443346e+05   4.242752e+05
  -5.139612e+05  -1.061359e+05
   1.196268e+05  -6.395397e+05
   3.997901e+05  -6.144512e+05
   2.572164e+05  -5.841740e+04
  -2.431793e+04   4.018703e+05
  -2.167809e+05   2.843072e+05
  -2.639357e+05  -1.987755e+05
  -1.585727e+05  -4.621059e+05
   7.354557e+04  -2.656240e+05
   2.953975e+05   8.297493e+04
   3.367041e+05   1.912394e+05
   1.872064e+05   4.414141e+04
   9.486810e+03  -6.176213e+04
  -7.210582e+04   7.225182e+04
  -1.062524e+05   3.090134e+05
  -1.912605e+05   3.368325e+05
  -2.884276e+05   2.636832e+04
  -2.391447e+05  -3.882273e+05
   3.114677e+04  -5.090893e+05
   3.634619e+05  -1.870944e+05
   4.522426e+05   2.902491e+05
   1.311467e+05   4.816192e+05
  -3.908005e+05   2.506324e+05
  -6.381150e+05  -1.289111e+05
  -3.326577e+05  -3.166134e+05
   2.428071e+05  -2.452212e+05
   4.826812e+05  -8.478137e+04
   1.411865e+05   3.567577e+03
  -3.404915e+05  -2.629524e+04
  -3.344011e+05  -1.481506e+05
   2.101819e+05  -2.563286e+05
   6.894852e+05  -1.605361e+05
