
 $NMID
 id='ANONYMOUS ', fmtdat='(2E16.6)'
 volume=1.0
 tramp=1.0
 $END
  -5.225348e+07   1.426163e+06
  -3.269088e+07  -3.107223e+07
   5.455267e+06  -3.554434e+07
   2.519741e+07  -1.489122e+07
   1.588045e+07   5.595814e+06
  -2.570813e+06   8.875350e+06
  -9.365487e+06  -5.300246e+05
  -3.196193e+06  -9.058053e+06
   5.413454e+06  -9.266484e+06
   9.051189e+06  -2.383758e+06
   6.759918e+06   5.683204e+06
   9.391382e+05   8.165774e+06
  -3.719280e+06   2.605438e+06
  -2.608056e+06  -5.280623e+06
   3.391588e+06  -6.487209e+06
   7.482804e+06   9.217381e+05
   4.526017e+06   9.459943e+06
  -3.174468e+06   1.120642e+07
  -9.282006e+06   5.776405e+06
  -1.007187e+07  -1.702633e+06
  -6.212315e+06  -6.767513e+06
  -8.199893e+05  -7.833746e+06
   2.335743e+06  -5.579786e+06
   1.317424e+06  -2.753539e+06
  -1.218894e+06  -2.407745e+06
  -1.389431e+05  -4.169557e+06
   5.287882e+06  -4.172667e+06
   9.249937e+06  -4.477271e+05
   6.671777e+06   3.862029e+06
   1.364087e+05   4.700482e+06
  -3.637150e+06   2.291266e+06
  -2.264174e+06  -1.907938e+05
   9.121477e+05  -1.015937e+06
   2.483920e+06  -3.491930e+05
   2.102721e+06   1.618740e+06
   4.973237e+05   3.851257e+06
  -1.698466e+06   3.571139e+06
  -2.840531e+06  -1.539136e+05
  -1.491180e+06  -3.301164e+06
   6.257737e+05  -1.586015e+06
   1.800523e+05   2.505613e+06
  -2.377680e+06   2.315500e+06
  -2.455450e+06  -2.910958e+06
   1.941409e+06  -5.845761e+06
   6.275914e+06  -1.246641e+06
   4.933246e+06   6.215154e+06
  -1.458666e+06   7.971923e+06
  -6.863816e+06   2.450906e+06
  -6.768733e+06  -4.057137e+06
  -2.006554e+06  -5.767386e+06
   3.273798e+06  -2.772643e+06
   5.197576e+06   1.278339e+06
   2.542566e+06   3.285053e+06
  -2.166267e+06   2.208021e+06
  -4.323008e+06  -6.975201e+05
  -1.971490e+06  -2.491255e+06
   1.566304e+06  -1.346767e+06
   1.745612e+06   9.427635e+05
  -1.136418e+06   1.032925e+06
  -2.459972e+06  -1.387918e+06
   2.366099e+05  -3.164345e+06
   4.103108e+06  -2.010845e+06
   5.029617e+06   9.773274e+05
   2.358029e+06   3.621573e+06
  -1.642656e+06   5.021770e+06
  -4.799848e+06   4.657431e+06
  -5.899325e+06   1.688866e+06
  -4.328569e+06  -2.977176e+06
  -9.511720e+05  -5.888157e+06
   1.638651e+06  -4.676547e+06
   1.638052e+06  -1.381707e+06
   3.092889e+05   8.768791e+04
   2.131561e+05  -9.330703e+05
   1.700991e+06  -1.590650e+06
   2.740629e+06  -6.104976e+04
   1.895847e+06   2.018529e+06
  -1.003989e+05   2.152772e+06
  -1.644089e+06   1.491938e+05
  -1.693245e+06  -2.136688e+06
   2.093081e+04  -2.910939e+06
   2.700171e+06  -1.573274e+06
   4.279228e+06   1.165906e+06
   3.071364e+06   3.545337e+06
   2.491277e+04   3.960828e+06
  -2.057965e+06   2.586094e+06
  -2.044333e+06   1.162796e+06
  -1.747215e+06   7.636449e+05
  -2.896014e+06   5.634492e+05
  -4.309148e+06  -6.659836e+05
  -3.488572e+06  -2.684994e+06
  -1.741139e+05  -4.098110e+06
   3.171155e+06  -3.891781e+06
   4.150563e+06  -2.081132e+06
   2.604932e+06   4.640020e+05
   2.063423e+05   2.218548e+06
  -1.127532e+06   1.878563e+06
  -5.448421e+05  -5.477449e+04
   1.091250e+06  -1.291529e+06
   1.873958e+06  -4.074747e+05
   8.952433e+05   1.168804e+06
  -5.322659e+05   1.107910e+06
  -4.765434e+05  -3.918216e+05
   1.010666e+06  -7.949318e+05
   1.909614e+06   1.107622e+06
   8.434467e+05   3.401429e+06
  -1.394960e+06   3.537523e+06
  -3.109978e+06   1.330944e+06
  -3.425100e+06  -1.335644e+06
  -2.387690e+06  -2.793558e+06
  -4.834937e+05  -2.664861e+06
   1.251810e+06  -1.468807e+06
   1.582658e+06  -2.171284e+05
   4.928188e+05   4.316167e+04
  -3.650433e+05  -7.485513e+05
   3.826712e+05  -1.331907e+06
   1.870359e+06  -6.001755e+05
   2.034402e+06   8.402274e+05
   4.173108e+05   1.397518e+06
  -1.164333e+06   5.906877e+05
  -9.167882e+05  -4.561977e+05
   8.445156e+05  -5.707574e+05
   2.234555e+06   2.726965e+05
   1.812218e+06   1.369248e+06
  -2.231739e+05   2.024662e+06
  -2.318631e+06   1.697295e+06
  -2.784361e+06   2.968352e+05
  -1.228056e+06  -1.244249e+06
   8.913777e+05  -1.490553e+06
   1.531663e+06  -2.043580e+05
   1.996701e+05   1.060538e+06
  -1.506319e+06   7.439062e+05
  -1.732465e+06  -7.614313e+05
  -3.710323e+05  -1.659678e+06
   1.079217e+06  -1.015232e+06
   1.279871e+06   2.809448e+05
   2.747609e+05   7.814889e+05
  -7.863669e+05   6.978737e+04
  -7.402424e+05  -1.044450e+06
   5.721291e+05  -1.423518e+06
   2.006348e+06  -5.469764e+05
   2.039437e+06   1.041712e+06
   3.981867e+05   2.072384e+06
  -1.424685e+06   1.657698e+06
  -1.728880e+06   2.304585e+05
  -5.190924e+05  -8.672143e+05
   6.534876e+05  -8.168265e+05
   6.462991e+05  -7.339785e+04
  -1.164043e+05   3.889947e+05
  -5.195669e+05   2.267194e+05
  -1.565606e+05  -8.732640e+04
   4.450046e+05   3.488586e+04
   5.447263e+05   6.501042e+05
  -1.804563e+05   1.194355e+06
  -1.375713e+06   9.130795e+05
  -2.089893e+06  -3.994014e+05
  -1.478931e+06  -1.937165e+06
   2.059839e+05  -2.432359e+06
   1.621485e+06  -1.439606e+06
   1.716530e+06   1.122645e+05
   8.821479e+05   9.205413e+05
   3.121497e+05   6.927517e+05
   4.491871e+05   2.314287e+05
   6.106160e+05   2.909395e+05
   9.913607e+04   7.484631e+05
  -8.677549e+05   9.155379e+05
  -1.460321e+06   3.437284e+05
  -1.071101e+06  -7.306128e+05
   2.408253e+05  -1.489156e+06
   1.729117e+06  -1.097454e+06
   2.266072e+06   4.722197e+05
   1.161150e+06   2.100910e+06
  -9.812651e+05   2.384343e+06
  -2.536198e+06   1.066775e+06
  -2.378438e+06  -6.336003e+05
  -9.924426e+05  -1.348873e+06
   1.980076e+05  -9.786885e+05
   4.134055e+05  -5.268671e+05
   1.021569e+05  -7.389993e+05
   1.019722e+05  -1.285874e+06
   6.533050e+05  -1.284324e+06
   1.283726e+06  -3.268552e+05
   1.342066e+06   1.075049e+06
   5.661907e+05   1.896165e+06
  -6.178208e+05   1.443226e+06
  -1.292612e+06   7.641505e+03
  -8.305946e+05  -1.276361e+06
   3.695398e+05  -1.407111e+06
   1.155632e+06  -4.368480e+05
   8.273490e+05   6.689196e+05
  -9.357637e+04   1.073626e+06
  -5.135391e+05   8.007633e+05
  -7.866659e+04   4.305350e+05
   4.301606e+05   3.365921e+05
   5.886788e+04   3.844968e+05
  -1.144480e+06   2.237261e+05
  -2.062370e+06  -3.114835e+05
  -1.630957e+06  -1.022726e+06
   1.198414e+04  -1.435878e+06
   1.569596e+06  -1.156504e+06
   1.834292e+06  -3.009531e+05
   8.522201e+05   4.765790e+05
  -2.476117e+05   5.678845e+05
  -5.120498e+05   4.590157e+04
  -3.387765e+04  -4.096660e+05
   4.457569e+05  -2.563446e+05
   4.831210e+05   3.388981e+05
   2.461689e+05   7.196628e+05
   8.895105e+04   4.743038e+05
   1.429329e+05  -1.024807e+05
   2.921157e+05  -2.988843e+05
   2.803964e+05   2.313743e+05
  -1.426473e+05   9.903007e+05
  -8.928689e+05   1.073454e+06
  -1.348520e+06   1.863617e+05
  -8.492696e+05  -9.036567e+05
   4.020775e+05  -1.136624e+06
   1.246211e+06  -3.430055e+05
   7.364420e+05   5.712884e+05
  -6.992373e+05   6.584173e+05
  -1.601495e+06  -8.475618e+04
  -1.027086e+06  -8.668705e+05
   4.775134e+05  -1.008597e+06
   1.512694e+06  -4.983561e+05
   1.250373e+06   1.849283e+05
   1.398905e+05   5.204955e+05
  -6.527755e+05   2.782686e+05
  -3.877402e+05  -2.884648e+05
   5.828419e+05  -5.228482e+05
   1.182984e+06   7.500438e+04
   6.769020e+05   1.176142e+06
  -5.797749e+05   1.706170e+06
  -1.480188e+06   8.962464e+05
  -1.265320e+06  -7.513724e+05
  -2.159379e+05  -1.798306e+06
   7.378859e+05  -1.307624e+06
   9.358566e+05   1.704614e+05
   4.438183e+05   1.199067e+06
  -2.159035e+05   9.818249e+05
  -5.664675e+05   9.059029e+04
  -4.706845e+05  -3.803360e+05
  -1.641936e+05  -1.416480e+05
  -4.952990e+04   9.798844e+04
  -2.864900e+05  -2.880778e+05
  -5.210195e+05  -9.648511e+05
  -1.986354e+05  -1.088006e+06
   7.167612e+05  -4.085703e+05
   1.485796e+06   4.567409e+05
   1.292267e+06   8.362696e+05
   1.924386e+05   7.015852e+05
  -8.521029e+05   4.243515e+05
  -9.888519e+05   1.889821e+05
  -3.674400e+05  -4.768815e+04
   1.429375e+05  -2.266048e+05
   3.965011e+04  -2.103178e+05
  -2.606069e+05  -9.614719e+04
  -5.340157e+04  -1.309342e+05
   6.561461e+05  -2.397156e+05
   1.051212e+06  -1.830928e+03
   4.504677e+05   6.837669e+05
  -8.248074e+05   1.191121e+06
  -1.699546e+06   7.873110e+05
  -1.427338e+06  -4.072111e+05
  -2.943895e+05  -1.407161e+06
   7.547929e+05  -1.395405e+06
   1.045141e+06  -5.580637e+05
   6.577437e+05   2.227660e+05
   1.418571e+05   3.564464e+05
  -6.086550e+04   6.694918e+04
   8.735037e+04  -1.491893e+04
   3.048421e+05   3.708815e+05
   2.553459e+05   8.119416e+05
  -1.688909e+05   6.857122e+05
  -6.812204e+05  -1.081044e+05
  -7.572809e+05  -9.376012e+05
  -1.409056e+05  -1.030331e+06
   7.428903e+05  -2.653481e+05
   1.048894e+06   6.993650e+05
   3.724160e+05   1.087216e+06
  -7.015624e+05   6.975417e+05
  -1.128615e+06  -5.345428e+04
  -5.521239e+05  -6.113571e+05
   2.745739e+05  -6.948260e+05
   3.827139e+05  -3.816355e+05
  -2.382235e+05  -6.856914e+03
  -6.492614e+05   4.920437e+04
  -1.559186e+05  -3.076054e+05
   8.208221e+05  -6.929747e+05
   1.269640e+06  -5.581604e+05
   7.817572e+05   1.698794e+05
  -8.138899e+04   8.785956e+05
  -5.488021e+05   8.767633e+05
  -4.315325e+05   1.807616e+05
  -6.450937e+04  -4.743053e+05
   2.292952e+05  -4.458058e+05
   3.514161e+05   1.337838e+05
   2.657474e+05   5.753461e+05
  -3.985998e+04   4.375057e+05
  -3.922599e+05  -3.440228e+04
  -4.887552e+05  -2.795413e+05
  -2.480613e+05  -9.887396e+04
   4.498255e+04   1.554781e+05
   9.101787e+04   5.732688e+04
  -2.807760e+04  -3.430304e+05
   1.760727e+04  -5.557609e+05
   3.030013e+05  -2.397957e+05
   4.746977e+05   3.561956e+05
   1.852352e+05   6.391832e+05
  -3.978004e+05   3.258711e+05
  -6.764993e+05  -2.598995e+05
  -2.685044e+05  -5.657792e+05
   5.063488e+05  -3.789586e+05
   8.927503e+05   5.342816e+04
   4.911154e+05   3.698125e+05
  -2.850777e+05   4.153590e+05
  -6.372796e+05   2.513307e+05
  -2.591335e+05   2.797963e+04
   3.314245e+05  -7.869728e+04
   4.012632e+05   4.656708e+04
  -1.569493e+05   2.844819e+05
  -7.259755e+05   2.801087e+05
