
 $NMID
 id='ANONYMOUS ', fmtdat='(2E16.6)'
 volume=1.0
 tramp=1.0
 $END
   4.574367e+07  -1.728789e+06
   2.935428e+07   2.582410e+07
  -3.525381e+06   3.083391e+07
  -2.147956e+07   1.440919e+07
  -1.442533e+07  -3.544906e+06
   1.587787e+06  -7.888913e+06
   8.396798e+06  -4.435416e+05
   3.638313e+06   7.791545e+06
  -4.173835e+06   8.960379e+06
  -8.009136e+06   2.816748e+06
  -6.261186e+06  -5.057931e+06
  -9.519962e+05  -7.571295e+06
   3.437709e+06  -2.285750e+06
   2.588214e+06   5.171083e+06
  -2.825769e+06   6.370304e+06
  -6.761638e+06  -4.145394e+05
  -4.395701e+06  -8.348283e+06
   2.505311e+06  -1.013286e+07
   8.161349e+06  -5.247182e+06
   8.863988e+06   1.560531e+06
   5.246989e+06   5.940310e+06
   5.753425e+05   6.547509e+06
  -1.670294e+06   4.541667e+06
  -3.466012e+05   2.586074e+06
   1.647021e+06   2.841470e+06
  -3.421322e+04   4.373111e+06
  -5.378452e+06   3.875528e+06
  -8.854300e+06   1.616146e+05
  -6.074922e+06  -3.726166e+06
   2.810650e+05  -4.294653e+06
   3.790712e+06  -1.837523e+06
   2.105570e+06   6.896016e+05
  -1.425124e+06   1.393082e+06
  -3.012567e+06   2.580221e+05
  -2.130610e+06  -2.048547e+06
  -1.281545e+05  -3.954801e+06
   1.737429e+06  -3.120450e+06
   2.271123e+06   4.946293e+05
   9.475583e+05   2.954628e+06
  -5.955137e+05   9.454175e+05
   5.423523e+04  -2.772259e+06
   2.281866e+06  -2.364278e+06
   2.375365e+06   2.483770e+06
  -1.298453e+06   5.216163e+06
  -5.130336e+06   1.293703e+06
  -4.339752e+06  -5.246584e+06
   1.014183e+06  -6.956648e+06
   6.046097e+06  -2.265563e+06
   6.422230e+06   3.558589e+06
   2.212811e+06   5.350107e+06
  -2.954996e+06   2.847290e+06
  -5.081005e+06  -8.856384e+05
  -2.703810e+06  -2.930195e+06
   1.775928e+06  -2.142492e+06
   3.950936e+06   4.293234e+05
   1.930248e+06   2.139704e+06
  -1.356867e+06   1.258495e+06
  -1.754020e+06  -8.082100e+05
   7.700185e+05  -1.145872e+06
   2.271665e+06   7.951829e+05
   2.485538e+05   2.538578e+06
  -3.234684e+06   1.943602e+06
  -4.462344e+06  -4.970649e+05
  -2.286937e+06  -3.068165e+06
   1.531219e+06  -4.643313e+06
   4.653310e+06  -4.356524e+06
   5.572258e+06  -1.482826e+06
   3.908438e+06   2.879498e+06
   8.410073e+05   5.541418e+06
  -1.330048e+06   4.498936e+06
  -1.352124e+06   1.614613e+06
  -4.556990e+05   2.812900e+05
  -6.522473e+05   1.030968e+06
  -2.024595e+06   1.359566e+06
  -2.791239e+06  -2.774617e+05
  -1.773092e+06  -2.289891e+06
   3.085772e+05  -2.290727e+06
   1.868846e+06  -1.176034e+05
   1.797879e+06   2.267997e+06
  -6.908456e+04   2.943537e+06
  -2.689666e+06   1.433751e+06
  -4.030563e+06  -1.254945e+06
  -2.757569e+06  -3.339347e+06
   2.417295e+04  -3.549077e+06
   1.801075e+06  -2.282518e+06
   1.740626e+06  -1.115630e+06
   1.574747e+06  -8.685389e+05
   2.807667e+06  -7.028156e+05
   4.252137e+06   5.158282e+05
   3.507985e+06   2.566925e+06
   2.541519e+05   4.078765e+06
  -3.143187e+06   3.924963e+06
  -4.189249e+06   2.042946e+06
  -2.584076e+06  -5.734845e+05
  -8.287789e+04  -2.269116e+06
   1.225495e+06  -1.828587e+06
   5.338998e+05   1.021393e+05
  -1.119671e+06   1.282986e+06
  -1.832562e+06   4.109067e+05
  -8.371045e+05  -1.135898e+06
   5.680984e+05  -1.123662e+06
   5.743572e+05   3.633846e+05
  -8.469404e+05   9.458956e+05
  -1.902987e+06  -7.477569e+05
  -1.166473e+06  -3.141983e+06
   9.452617e+05  -3.675120e+06
   2.925258e+06  -1.739382e+06
   3.606699e+06   1.047737e+06
   2.664809e+06   2.790645e+06
   6.008946e+05   2.771878e+06
  -1.276117e+06   1.507085e+06
  -1.616083e+06   2.077541e+05
  -4.950381e+05  -3.725432e+04
   3.814857e+05   7.410338e+05
  -3.289510e+05   1.300795e+06
  -1.793489e+06   6.217722e+05
  -2.014310e+06  -7.469332e+05
  -4.721917e+05  -1.341907e+06
   1.138224e+06  -6.327669e+05
   9.829967e+05   4.304365e+05
  -7.890569e+05   6.762704e+05
  -2.314502e+06  -1.168238e+05
  -1.981050e+06  -1.331046e+06
   1.122393e+05  -2.124908e+06
   2.308109e+06  -1.816509e+06
   2.802567e+06  -3.660375e+05
   1.241565e+06   1.196039e+06
  -8.488593e+05   1.452864e+06
  -1.469877e+06   2.109838e+05
  -1.807367e+05  -1.028142e+06
   1.485516e+06  -7.564461e+05
   1.753234e+06   7.039904e+05
   4.567652e+05   1.648042e+06
  -1.014001e+06   1.092959e+06
  -1.302925e+06  -1.871299e+05
  -3.420945e+05  -7.532575e+05
   7.510810e+05  -9.474704e+04
   7.437809e+05   1.023802e+06
  -5.653576e+05   1.424947e+06
  -2.007606e+06   5.586248e+05
  -2.048587e+06  -1.023339e+06
  -4.300036e+05  -2.060494e+06
   1.379230e+06  -1.681498e+06
   1.718903e+06  -2.807815e+05
   5.586116e+05   8.481152e+05
  -6.281178e+05   8.462637e+05
  -6.828755e+05   8.298762e+04
   7.619164e+04  -4.524417e+05
   5.621560e+05  -3.037624e+05
   2.596900e+05   9.486022e+04
  -3.892055e+05   5.564290e+04
  -5.823331e+05  -5.700919e+05
   1.111797e+05  -1.184532e+06
   1.343913e+06  -9.510938e+05
   2.100765e+06   3.561337e+05
   1.510587e+06   1.914873e+06
  -1.689097e+05   2.458304e+06
  -1.611528e+06   1.517960e+06
  -1.770635e+06  -4.735992e+04
  -9.726732e+05  -9.504405e+05
  -3.514940e+05  -7.957636e+05
  -4.024162e+05  -2.934251e+05
  -5.495766e+05  -2.604690e+05
  -9.955498e+04  -7.054225e+05
   8.332115e+05  -9.434982e+05
   1.470574e+06  -4.062498e+05
   1.137099e+06   7.246626e+05
  -1.814595e+05   1.553274e+06
  -1.722018e+06   1.171988e+06
  -2.306624e+06  -4.240680e+05
  -1.234242e+06  -2.078773e+06
   8.949947e+05  -2.405361e+06
   2.489918e+06  -1.148832e+06
   2.423963e+06   5.404193e+05
   1.097737e+06   1.333107e+06
  -1.371642e+05   1.051642e+06
  -4.510536e+05   6.002117e+05
  -1.777224e+05   7.408100e+05
  -1.278714e+05   1.242525e+06
  -6.239453e+05   1.259759e+06
  -1.258253e+06   3.336826e+05
  -1.352585e+06  -1.066273e+06
  -5.910231e+05  -1.901374e+06
   6.071810e+05  -1.460905e+06
   1.304780e+06  -3.931769e+04
   8.691929e+05   1.243521e+06
  -3.077995e+05   1.413891e+06
  -1.103870e+06   5.048091e+05
  -8.325131e+05  -5.829373e+05
   2.619857e+04  -1.035143e+06
   4.360734e+05  -8.192045e+05
   4.402241e+04  -4.601109e+05
  -4.249689e+05  -3.471080e+05
  -5.674574e+04  -3.916267e+05
   1.122441e+06  -2.499586e+05
   2.043323e+06   2.686595e+05
   1.653258e+06   9.793804e+05
   5.041728e+04   1.410063e+06
  -1.511378e+06   1.170309e+06
  -1.820301e+06   3.602246e+05
  -8.771960e+05  -4.097941e+05
   2.191889e+05  -5.474111e+05
   4.978419e+05  -7.599594e+04
   2.115155e+04   3.781263e+05
  -4.630037e+05   2.540176e+05
  -4.833209e+05  -3.355980e+05
  -2.160645e+05  -7.334768e+05
  -5.703431e+04  -4.800274e+05
  -1.455517e+05   1.336378e+05
  -3.193664e+05   3.417747e+05
  -2.927346e+05  -2.226028e+05
   1.488709e+05  -1.011961e+06
   8.798850e+05  -1.083988e+06
   1.304955e+06  -1.772551e+05
   8.176576e+05   8.999591e+05
  -3.899776e+05   1.109281e+06
  -1.221552e+06   3.204346e+05
  -7.421255e+05  -5.783743e+05
   6.829527e+05  -6.800925e+05
   1.630167e+06   3.819286e+04
   1.101441e+06   8.441188e+05
  -4.234239e+05   1.055180e+06
  -1.524546e+06   5.834661e+05
  -1.298639e+06  -1.351866e+05
  -1.707435e+05  -5.313404e+05
   6.476134e+05  -3.099866e+05
   3.806395e+05   2.721035e+05
  -6.002181e+05   5.145160e+05
  -1.189180e+06  -9.186143e+04
  -6.585238e+05  -1.193596e+06
   6.092728e+05  -1.710766e+06
   1.503559e+06  -8.922127e+05
   1.282629e+06   7.591315e+05
   2.332545e+05   1.821625e+06
  -7.289266e+05   1.351259e+06
  -9.539465e+05  -1.334515e+05
  -4.912860e+05  -1.200396e+06
   1.689983e+05  -1.013605e+06
   5.595604e+05  -1.139368e+05
   5.066283e+05   3.834000e+05
   1.970940e+05   1.495344e+05
   3.751884e+04  -1.083819e+05
   2.507005e+05   2.684222e+05
   5.221865e+05   9.598968e+05
   2.494832e+05   1.102338e+06
  -6.784289e+05   4.270209e+05
  -1.512329e+06  -4.443942e+05
  -1.348804e+06  -8.281830e+05
  -2.067091e+05  -6.989316e+05
   8.848691e+05  -4.357110e+05
   1.007166e+06  -2.139342e+05
   3.464615e+05   2.699024e+04
  -1.535099e+05   2.276088e+05
  -2.945053e+03   2.291716e+05
   3.014097e+05   1.131156e+05
   4.107815e+04   1.340907e+05
  -6.996193e+05   2.349850e+05
  -1.056216e+06  -8.953990e+01
  -4.061229e+05  -6.810683e+05
   8.577378e+05  -1.187079e+06
   1.683670e+06  -7.801950e+05
   1.397722e+06   4.214765e+05
   2.934401e+05   1.423678e+06
  -7.407201e+05   1.400642e+06
  -1.049407e+06   5.459017e+05
  -6.708462e+05  -2.398215e+05
  -1.300972e+05  -3.580638e+05
   9.292064e+04  -4.720285e+04
  -7.553851e+04   4.017089e+04
  -3.270827e+05  -3.601409e+05
  -2.785259e+05  -8.163511e+05
   1.729089e+05  -6.852766e+05
   6.955474e+05   1.284783e+05
   7.491088e+05   9.649910e+05
   1.090616e+05   1.035175e+06
  -7.697815e+05   2.385511e+05
  -1.051154e+06  -7.309600e+05
  -3.588810e+05  -1.092596e+06
   7.094619e+05  -6.816255e+05
   1.121076e+06   5.763834e+04
   5.398890e+05   5.895716e+05
  -2.708334e+05   6.703788e+05
  -3.550380e+05   3.790519e+05
   2.718545e+05   1.709810e+04
   6.626232e+05  -4.851874e+04
   1.478843e+05   3.032922e+05
  -8.232843e+05   7.080431e+05
  -1.249122e+06   5.936204e+05
  -7.570816e+05  -1.425366e+05
   8.010270e+04  -8.737655e+05
   5.208578e+05  -8.734738e+05
   4.030094e+05  -1.610169e+05
   5.115469e+04   4.912355e+05
  -2.351256e+05   4.335878e+05
  -3.574111e+05  -1.611530e+05
  -2.664315e+05  -5.798132e+05
   4.622717e+04  -4.155096e+05
   3.947135e+05   4.521317e+04
   4.837287e+05   2.597458e+05
   2.498150e+05   8.065874e+04
  -3.126484e+04  -1.345666e+05
  -9.044009e+04  -1.116893e+04
  -9.113048e+03   3.650068e+05
  -7.206553e+04   5.304174e+05
  -3.236607e+05   1.914867e+05
  -4.430383e+05  -3.918810e+05
  -1.389605e+05  -6.492618e+05
   4.144633e+05  -3.163710e+05
   6.643116e+05   2.786050e+05
   2.586246e+05   5.810604e+05
  -5.002159e+05   3.796774e+05
  -8.833623e+05  -6.345029e+04
  -4.880435e+05  -3.716676e+05
   2.862326e+05  -3.983019e+05
   6.343221e+05  -2.292173e+05
   2.386287e+05  -2.396884e+04
  -3.660687e+05   5.825235e+04
  -4.179757e+05  -7.735105e+04
   1.825488e+05  -3.073565e+05
   7.733563e+05  -2.850340e+05
