
 $NMID
 id='ANONYMOUS ', fmtdat='(2E16.6)'
 volume=1.0
 tramp=1.0
 $END
   3.922279e+07  -7.048686e+05
   2.369419e+07   2.409001e+07
  -5.035366e+06   2.655599e+07
  -1.893853e+07   1.013490e+07
  -1.119707e+07  -4.929083e+06
   2.339508e+06  -6.399059e+06
   6.652981e+06   9.274778e+05
   1.820750e+06   6.658796e+06
  -4.188781e+06   6.264554e+06
  -6.542905e+06   1.347034e+06
  -4.889665e+06  -4.135450e+06
  -7.392568e+05  -5.845049e+06
   2.692767e+06  -2.004515e+06
   1.935050e+06   3.548298e+06
  -2.440424e+06   4.405361e+06
  -5.380519e+06  -8.851452e+05
  -3.145201e+06  -6.952674e+06
   2.473954e+06  -8.145119e+06
   6.911476e+06  -4.228416e+06
   7.572134e+06   1.235571e+06
   4.793886e+06   5.153193e+06
   5.989730e+05   6.139678e+06
  -2.110151e+06   4.295492e+06
  -1.446910e+06   1.705168e+06
   7.834635e+05   1.170155e+06
   4.254123e+05   2.737277e+06
  -3.450424e+06   3.233412e+06
  -6.568575e+06   7.046988e+05
  -4.980429e+06  -2.633338e+06
  -3.977091e+05  -3.556557e+06
   2.421243e+06  -2.014740e+06
   1.793477e+06  -2.165982e+05
  -1.381791e+05   6.452147e+05
  -1.359554e+06   5.525663e+05
  -1.594422e+06  -7.319827e+05
  -7.429746e+05  -2.626707e+06
   1.127284e+06  -2.765858e+06
   2.384248e+06  -3.672626e+04
   1.361524e+06   2.561167e+06
  -5.830076e+05   1.487519e+06
  -4.471750e+05  -1.590883e+06
   1.561282e+06  -1.592243e+06
   1.681927e+06   2.167305e+06
  -1.693094e+06   4.215744e+06
  -4.896645e+06   6.901923e+05
  -3.636489e+06  -4.806568e+06
   1.280102e+06  -5.938863e+06
   5.114249e+06  -1.775830e+06
   4.786472e+06   2.905190e+06
   1.312422e+06   4.015524e+06
  -2.284144e+06   1.847576e+06
  -3.507556e+06  -9.518821e+05
  -1.623840e+06  -2.294832e+06
   1.650425e+06  -1.489135e+06
   3.095659e+06   5.967930e+05
   1.336635e+06   1.843928e+06
  -1.169601e+06   9.575373e+05
  -1.165538e+06  -6.546615e+05
   9.265565e+05  -5.545790e+05
   1.646511e+06   1.278416e+06
  -5.436304e+05   2.389451e+06
  -3.262510e+06   1.283456e+06
  -3.637518e+06  -9.497899e+05
  -1.599457e+06  -2.725261e+06
   1.105428e+06  -3.653455e+06
   3.246999e+06  -3.467858e+06
   4.186609e+06  -1.390719e+06
   3.267205e+06   2.038005e+06
   8.240082e+05   4.189813e+06
  -1.180070e+06   3.231077e+06
  -1.158834e+06   7.552702e+05
  -7.227253e+02  -2.350282e+05
   2.007417e+05   7.157994e+05
  -9.576975e+05   1.387629e+06
  -1.924081e+06   3.741700e+05
  -1.518641e+06  -1.160453e+06
  -1.857562e+05  -1.436622e+06
   9.747258e+05  -2.518912e+05
   1.199058e+06   1.265163e+06
   1.348148e+05   1.961094e+06
  -1.814628e+06   1.247704e+06
  -3.116435e+06  -6.477094e+05
  -2.338905e+06  -2.504095e+06
  -6.831257e+04  -2.945522e+06
   1.546583e+06  -1.932892e+06
   1.539835e+06  -7.965354e+05
   1.225043e+06  -4.620918e+05
   1.945331e+06  -3.758511e+05
   2.922918e+06   3.971170e+05
   2.407480e+06   1.747570e+06
   2.167942e+05   2.747238e+06
  -1.999865e+06   2.718476e+06
  -2.710548e+06   1.598035e+06
  -1.823592e+06  -1.536311e+05
  -3.160784e+05  -1.497534e+06
   6.455436e+05  -1.371795e+06
   3.920314e+05  -7.929731e+03
  -6.741204e+05   9.280599e+05
  -1.276231e+06   3.293923e+05
  -6.740834e+05  -7.956651e+05
   2.926250e+05  -7.691043e+05
   2.676886e+05   2.356404e+05
  -7.090637e+05   4.304650e+05
  -1.224755e+06  -9.031730e+05
  -4.146520e+05  -2.326355e+06
   1.047850e+06  -2.213752e+06
   2.037247e+06  -7.018729e+05
   2.157358e+06   8.956554e+05
   1.541563e+06   1.710114e+06
   3.870340e+05   1.676390e+06
  -7.615917e+05   1.022048e+06
  -1.041558e+06   2.221332e+05
  -3.305763e+05  -1.377849e+04
   2.623870e+05   4.918516e+05
  -2.519336e+05   9.174961e+05
  -1.282835e+06   4.383297e+05
  -1.389534e+06  -5.568336e+05
  -2.818444e+05  -9.475959e+05
   7.692672e+05  -4.090420e+05
   5.885905e+05   2.699601e+05
  -5.499267e+05   3.358845e+05
  -1.420832e+06  -1.707736e+05
  -1.158364e+06  -8.267231e+05
   1.119378e+05  -1.278270e+06
   1.470543e+06  -1.155787e+06
   1.835394e+06  -2.674957e+05
   8.518927e+05   8.203336e+05
  -5.849133e+05   1.050354e+06
  -1.063564e+06   1.714119e+05
  -1.761826e+05  -7.358067e+05
   9.989626e+05  -5.450257e+05
   1.167891e+06   4.788858e+05
   2.551006e+05   1.087860e+06
  -7.082989e+05   6.570603e+05
  -8.319758e+05  -1.941887e+05
  -1.637106e+05  -5.158203e+05
   5.442479e+05  -5.159980e+04
   5.326727e+05   6.890239e+05
  -3.349324e+05   9.810465e+05
  -1.329381e+06   4.397541e+05
  -1.405319e+06  -6.342132e+05
  -3.236795e+05  -1.381695e+06
   9.205276e+05  -1.143702e+06
   1.149020e+06  -1.852183e+05
   3.516203e+05   5.667886e+05
  -4.184230e+05   5.501986e+05
  -4.087627e+05   7.844347e+04
   6.899713e+04  -2.164115e+05
   2.920969e+05  -1.390348e+05
   4.786128e+04   1.606184e+04
  -3.076677e+05  -7.974609e+04
  -3.441046e+05  -4.553686e+05
   1.219127e+05  -7.972338e+05
   9.012334e+05  -6.353624e+05
   1.405590e+06   2.132453e+05
   1.045361e+06   1.255124e+06
  -6.200961e+04   1.621523e+06
  -1.022058e+06   9.805093e+05
  -1.108453e+06  -3.505470e+04
  -5.817055e+05  -5.411152e+05
  -2.430595e+05  -3.785026e+05
  -3.599727e+05  -1.139613e+05
  -4.521922e+05  -2.101094e+05
  -8.252573e+04  -5.271959e+05
   5.626134e+05  -6.223782e+05
   9.455497e+05  -2.523933e+05
   7.072076e+05   4.342765e+05
  -1.224550e+05   9.550580e+05
  -1.105736e+06   7.580785e+05
  -1.506976e+06  -2.495074e+05
  -8.114208e+05  -1.365253e+06
   6.190281e+05  -1.607459e+06
   1.675239e+06  -7.509921e+05
   1.572367e+06   3.820331e+05
   6.500282e+05   8.507272e+05
  -1.125003e+05   6.038134e+05
  -2.129692e+05   3.366551e+05
   7.126172e+03   5.243046e+05
  -1.698074e+04   9.065174e+05
  -4.180359e+05   8.978980e+05
  -8.678085e+05   2.573371e+05
  -9.373204e+05  -6.767943e+05
  -4.401984e+05  -1.247404e+06
   3.635436e+05  -9.832422e+05
   8.551290e+05  -3.810886e+04
   5.751618e+05   8.387628e+05
  -2.325094e+05   9.408063e+05
  -7.752932e+05   2.806741e+05
  -5.547619e+05  -4.720858e+05
   7.593789e+04  -7.319092e+05
   3.590242e+05  -5.252968e+05
   4.975967e+04  -2.646256e+05
  -3.092047e+05  -2.052778e+05
  -5.795121e+04  -2.529025e+05
   7.691650e+05  -1.716536e+05
   1.402201e+06   1.635779e+05
   1.112603e+06   6.482218e+05
   6.020771e+01   9.671498e+05
  -1.047335e+06   8.143281e+05
  -1.217428e+06   2.314281e+05
  -5.577332e+05  -3.236969e+05
   1.692228e+05  -3.968664e+05
   3.435023e+05  -2.745334e+04
   3.703991e+04   2.980960e+05
  -2.805330e+05   1.959673e+05
  -3.373061e+05  -2.121713e+05
  -2.162158e+05  -4.759996e+05
  -9.962938e+04  -3.223489e+05
  -8.133964e+04   5.578470e+04
  -1.556372e+05   1.943700e+05
  -1.878979e+05  -1.464369e+05
   4.745463e+04  -6.613883e+05
   5.658167e+05  -7.481785e+05
   9.324580e+05  -1.706310e+05
   6.262555e+05   5.885732e+05
  -2.433211e+05   7.956436e+05
  -8.494451e+05   2.857900e+05
  -5.168925e+05  -3.510842e+05
   4.503097e+05  -4.521862e+05
   1.051507e+06   1.694080e+04
   6.723793e+05   5.376958e+05
  -3.036650e+05   6.531182e+05
  -9.686464e+05   3.439628e+05
  -8.055540e+05  -9.389825e+04
  -9.808323e+04  -3.298903e+05
   4.237940e+05  -1.912675e+05
   2.724089e+05   1.922653e+05
  -3.648001e+05   3.854781e+05
  -8.020928e+05   6.962109e+03
  -5.181216e+05  -7.620788e+05
   3.063121e+05  -1.178671e+06
   9.507718e+05  -6.701222e+05
   8.733248e+05   4.487121e+05
   2.100297e+05   1.184895e+06
  -4.406421e+05   8.800562e+05
  -6.155231e+05  -9.709784e+04
  -3.158616e+05  -7.770803e+05
   1.281157e+05  -6.370385e+05
   3.761640e+05  -6.630743e+04
   3.105537e+05   2.261081e+05
   9.801716e+04   7.480760e+04
   3.425175e+04  -5.792130e+04
   2.209455e+05   2.061812e+05
   3.860155e+05   6.338123e+05
   1.477026e+05   7.025848e+05
  -4.865573e+05   2.801345e+05
  -9.993024e+05  -2.515076e+05
  -8.656752e+05  -5.033312e+05
  -1.468696e+05  -4.632390e+05
   5.346363e+05  -3.210740e+05
   6.409605e+05  -1.549060e+05
   2.566766e+05   3.719373e+04
  -8.098729e+04   1.606793e+05
  -3.625625e+04   1.207065e+05
   1.590020e+05   3.224099e+04
   4.986788e+04   8.790693e+04
  -4.075377e+05   2.024786e+05
  -7.064832e+05   4.404807e+04
  -3.568973e+05  -4.586693e+05
   4.915569e+05  -8.469697e+05
   1.128320e+06  -5.955780e+05
   1.000839e+06   2.199491e+05
   2.576155e+05   9.277322e+05
  -4.630236e+05   9.625732e+05
  -6.844463e+05   4.252727e+05
  -4.490372e+05  -1.105385e+05
  -1.172755e+05  -2.374641e+05
   2.418200e+04  -6.927332e+04
  -5.833465e+04  -5.833121e+03
  -2.027854e+05  -2.387285e+05
  -1.900821e+05  -5.285058e+05
   8.544376e+04  -4.705716e+05
   4.607604e+05   2.999881e+04
   5.596911e+05   5.889206e+05
   1.555580e+05   6.959097e+05
  -4.820060e+05   2.318329e+05
  -7.418617e+05  -4.113577e+05
  -3.026276e+05  -7.196460e+05
   4.462409e+05  -5.094528e+05
   7.691785e+05  -7.466437e+03
   3.971179e+05   4.084361e+05
  -1.680526e+05   4.934101e+05
  -2.616837e+05   2.657100e+05
   1.427483e+05  -2.060115e+04
   4.277943e+05  -6.231715e+04
   1.206498e+05   2.065032e+05
  -5.212913e+05   4.899474e+05
  -8.375851e+05   3.966715e+05
  -5.411838e+05  -1.091056e+05
   2.367817e+04  -5.983247e+05
   3.551671e+05  -6.061472e+05
   3.076987e+05  -1.424127e+05
   7.485489e+04   3.106926e+05
  -1.375180e+05   3.187305e+05
  -2.462882e+05  -5.795420e+04
  -2.020373e+05  -3.749011e+05
   1.262555e+04  -3.121992e+05
   2.675009e+05   8.015630e+02
   3.376761e+05   1.837925e+05
   1.646401e+05   6.812102e+04
  -3.878210e+04  -1.202458e+05
  -5.049562e+04  -6.424058e+04
   6.165978e+04   2.273877e+05
   3.595961e+04   4.072049e+05
  -1.963682e+05   2.094695e+05
  -3.638967e+05  -2.090591e+05
  -1.811594e+05  -4.311837e+05
   2.481905e+05  -2.457340e+05
   4.792269e+05   1.413124e+05
   2.133247e+05   3.646440e+05
  -3.306538e+05   2.726748e+05
  -6.129553e+05   1.552879e+03
  -3.478018e+05  -2.304520e+05
   1.807271e+05  -3.020178e+05
   4.285647e+05  -2.067135e+05
   1.876540e+05  -2.522129e+04
  -2.049093e+05   8.856431e+04
  -2.709456e+05   7.924344e+03
   7.240080e+04  -1.910379e+05
   4.479476e+05  -2.272748e+05
