
 $NMID
 id='ANONYMOUS ', fmtdat='(2E16.6)'
 volume=1.0
 tramp=1.0
 $END
  -3.770368e+03   5.375585e+01
  -2.246511e+03  -2.128787e+03
   3.020522e+02  -2.041183e+03
   1.480468e+03  -1.107406e+03
   9.529128e+02   4.743832e+01
  -2.706557e+02   2.663295e+02
  -5.331805e+02  -1.678180e+02
  -1.547381e+01  -5.994046e+02
   5.440249e+02  -6.223015e+02
   7.292399e+02  -9.843267e+01
   2.927688e+02   6.029140e+02
  -9.162507e+01   7.558917e+02
  -3.920975e+02   1.224421e+02
  -3.621875e+02  -4.635113e+02
   1.187741e+02  -5.759112e+02
   4.281798e+02  -4.383208e+01
   3.178881e+02   5.460128e+02
  -1.861905e+02   5.954602e+02
  -4.536475e+02   2.079297e+02
  -3.916211e+02  -2.481327e+02
  -6.938269e+01  -3.616326e+02
   1.367359e+02  -2.360022e+02
   1.053624e+02  -2.498376e+01
  -1.854937e+02  -2.544178e+01
  -3.468428e+02  -1.949160e+02
  -3.272206e+01  -3.556421e+02
   4.156965e+02  -2.018621e+02
   7.163597e+02   1.841054e+02
   2.756404e+02   3.451355e+02
  -3.343290e+02   2.806913e+02
  -5.001816e+02  -1.114917e+02
  -2.307299e+02  -4.042660e+02
   2.215997e+02  -3.993797e+02
   5.113973e+02  -1.307528e+02
   3.278268e+02   1.737703e+02
   3.212664e+01   3.340036e+02
  -8.409223e+01   2.085909e+02
  -3.471620e+01  -1.514860e+02
   2.171628e+02  -2.272737e+02
   2.448675e+02   1.177398e+02
   2.712320e+01   5.902083e+02
  -3.134542e+02   4.884874e+02
  -3.960096e+02   8.833948e+00
  -1.427593e+02  -3.677178e+02
   1.194883e+02  -2.268279e+02
   2.246234e+02   3.052842e+02
  -1.038191e+02   4.607757e+02
  -4.765440e+02   1.052970e+02
  -4.959811e+02  -3.995340e+02
  -1.570302e+02  -5.563264e+02
   3.304706e+02  -2.687078e+02
   5.455871e+02   9.033217e+01
   3.354163e+02   2.803393e+02
  -1.031332e+02   2.349092e+02
  -3.145230e+02   7.126764e+01
  -2.303700e+02  -1.158355e+02
   1.112387e+01  -4.589892e+01
   8.439786e+01   7.268502e+01
  -1.488480e+02   1.100091e+02
  -2.212296e+02  -3.478391e+01
  -1.518817e+02  -2.304845e+02
   1.570008e+02  -2.465367e+02
   3.023846e+02  -1.393151e+02
   2.226754e+02   9.300704e+01
  -5.160844e+01   2.610835e+02
  -2.790116e+02   3.341954e+02
  -3.178668e+02   1.568095e+02
  -2.311736e+02  -1.778278e+02
  -7.084385e+00  -3.536954e+02
   3.571350e+01  -3.431310e+02
   3.385873e+01  -1.251414e+02
   7.513152e+00  -8.599486e+01
   1.142384e+02  -8.179987e+01
   2.339106e+02  -9.726315e+01
   2.321673e+02   7.907131e+01
   8.882336e+01   2.846749e+02
  -8.133671e+01   2.112416e+02
  -1.906409e+02  -3.850821e+01
  -1.439296e+02  -2.424141e+02
   1.217226e+01  -2.450951e+02
   2.659357e+02  -8.729579e+01
   3.053815e+02   2.112577e+02
   1.686956e+02   3.016580e+02
  -6.639590e+01   2.725028e+02
  -1.751668e+02   1.611955e+02
  -1.239640e+02   3.489941e+01
  -1.320160e+02   7.355780e+01
  -2.399667e+02   3.258029e+01
  -3.939561e+02  -6.684097e+01
  -3.236730e+02  -2.970381e+02
   8.139401e+00  -4.491122e+02
   3.758961e+02  -3.876043e+02
   4.607914e+02  -1.916779e+02
   2.957966e+02   1.107454e+02
   4.099156e+01   3.015525e+02
  -9.987074e+01   2.097594e+02
  -1.680846e+01   3.405184e+01
   9.000377e+01  -6.411121e+01
   1.596707e+02   2.340238e+01
  -4.045960e+00   1.607903e+02
  -1.199123e+02   8.070880e+01
  -1.339213e+02  -5.786686e+01
   2.121803e+01  -1.447869e+02
   1.735605e+02  -2.249890e+01
   1.469208e+02   2.411767e+02
  -2.505409e+01   3.057293e+02
  -2.122943e+02   2.065854e+02
  -3.235813e+02  -4.252235e+01
  -2.708841e+02  -2.405984e+02
  -4.901286e+01  -2.841256e+02
   1.226262e+02  -1.288104e+02
   1.675383e+02   4.010264e+00
   4.098405e+01   2.965671e+01
  -5.532462e+01  -3.777658e+01
  -2.473687e+01  -1.072477e+02
   1.062793e+02  -8.548148e+01
   1.621285e+02   3.809084e+01
   2.199640e+01   6.018608e+01
  -9.818900e+01  -9.304027e+00
  -2.835337e+01  -8.148459e+01
   1.317987e+02  -9.195718e+01
   2.839672e+02   2.275142e+01
   2.743002e+02   1.786989e+02
   1.746524e+01   2.364187e+02
  -2.031844e+02   2.315128e+02
  -2.166644e+02   9.633995e+01
  -1.477945e+02  -3.958568e+01
   3.833581e+00  -9.763660e+01
   9.043934e+01  -1.618237e+00
  -3.994660e+01   5.913531e+01
  -1.647658e+02   7.020357e+01
  -2.045668e+02  -9.884591e+01
  -3.985647e+01  -1.807516e+02
   6.649932e+01  -1.380729e+02
   1.219711e+02  -2.784912e+01
   7.955226e+01   2.372004e+01
  -2.590823e+01  -7.246076e+00
  -1.921946e+01  -8.809851e+01
   8.151061e+01  -1.157058e+02
   2.146218e+02  -3.145170e+00
   1.720770e+02   1.285556e+02
   9.461623e+00   2.172240e+02
  -1.231587e+02   1.281041e+02
  -1.672530e+02  -3.272016e+01
  -4.475660e+01  -7.467253e+01
   7.866467e+01  -8.943729e+01
   6.778477e+01  -5.757572e+01
   2.907028e+00   4.185722e+01
  -1.461285e+01   2.081421e+01
   2.981718e+01  -1.466842e+01
   9.692621e+01  -1.274772e+01
   9.504206e+01   1.019989e+02
   2.182512e+01   1.617906e+02
  -1.184511e+02   1.546507e+02
  -2.180257e+02  -4.448983e+00
  -1.714813e+02  -1.222566e+02
  -1.261598e+01  -2.073565e+02
   1.046493e+02  -1.807181e+02
   1.242122e+02  -2.447349e+01
   6.886952e+01   3.695211e+01
   3.011168e+01   3.917990e+01
   4.520279e+01  -3.477926e+01
   7.452896e+01   3.844557e+00
   4.100057e+01   8.123282e+01
  -5.295402e+01   1.182471e+02
  -1.132766e+02   5.164535e+01
  -9.356694e+01  -2.338857e+01
   5.556798e+01  -1.449118e+02
   1.479705e+02  -5.985614e+01
   1.957689e+02   7.067563e+01
   7.297358e+01   1.995946e+02
  -1.210541e+02   2.199759e+02
  -2.695683e+02   9.499116e+01
  -2.658313e+02  -7.507758e+01
  -9.048347e+01  -1.729238e+02
   2.931876e+01  -1.462262e+02
   8.788421e+01  -7.358308e+01
   6.842177e+01  -5.632155e+01
   6.066506e+01  -8.214533e+01
   8.096005e+01  -9.352227e+01
   1.303702e+02   1.817019e+01
   9.384720e+01   1.521759e+02
   3.672305e+01   1.753303e+02
  -1.185792e+02   1.679072e+02
  -1.474697e+02   2.424995e+01
  -1.204236e+02  -1.167915e+02
   1.950027e+01  -1.680896e+02
   8.535266e+01  -8.030887e+01
   7.212219e+01  -8.927130e+00
  -7.110193e-01   4.298742e+01
  -5.461926e+01   6.108804e+01
   3.709797e+01   4.303339e+01
   8.351025e+01   2.212121e+01
   4.033001e+01   4.707816e+01
  -2.308402e+01   2.636595e+01
  -1.390441e+02   3.904106e+01
  -1.546758e+02  -7.061431e+01
   1.218963e+01  -7.886870e+01
   1.142409e+02  -7.641181e+01
   1.290176e+02  -2.681187e+00
   4.842448e+01   4.223162e+01
  -8.327846e+01   6.571452e+01
  -5.861212e+01  -2.136984e+01
   9.692278e+00  -8.168693e+01
   4.987125e+01  -4.339907e+01
   6.412968e+01   1.506644e+01
   6.987351e+01   4.211507e+01
   5.161864e+01   3.406175e+01
   4.881742e+01  -5.523501e+00
   5.154936e+01   4.774048e+00
   4.242556e+01   8.512864e+01
  -2.272872e+01   1.219460e+02
  -9.701496e+01   1.384803e+02
  -1.806342e+02   9.593229e+00
  -1.332643e+02  -8.056152e+01
  -1.345830e+01  -1.132762e+02
   8.406176e+01  -7.015927e+01
   6.198377e+01   1.966041e+01
  -6.911821e+01   7.813717e+00
  -1.398900e+02  -4.016665e+01
  -8.345327e+01  -1.125426e+02
   9.845200e+01  -8.388131e+01
   1.679972e+02  -4.487922e+01
   1.700694e+02   6.846042e+01
   4.763991e+01   4.492083e+01
  -8.202303e+01   8.154313e+01
  -5.259514e+01   1.673692e+01
   6.368354e+01  -4.196240e+00
   7.870457e+01   8.311606e+00
   2.969413e+01   1.165060e+02
  -8.281247e+01   1.285003e+02
  -1.398839e+02   1.042733e+02
  -1.359975e+02  -9.474115e+01
   8.450108e-01  -2.065851e+02
   7.283217e+01  -1.616247e+02
   1.151369e+02   3.761757e+01
   5.480648e+01   1.066483e+02
   2.375859e+00   1.148857e+02
  -4.396043e+01   5.223933e+00
   7.242719e+00  -1.356563e+01
  -4.010882e+01   8.505369e+00
  -2.066529e+01   2.870481e+01
  -4.002286e+01  -1.111385e+01
  -4.652813e+01  -8.950041e+01
  -3.088352e+01  -8.816238e+01
   3.298477e+01  -3.827128e+01
   1.318763e+02   5.479621e+01
   9.688066e+01   7.357436e+01
   4.016166e+01   4.330520e+01
  -5.647485e+01   4.088637e+01
  -1.035814e+02  -8.755296e+00
  -1.439201e+01  -3.435740e+01
   3.681962e+01  -5.368627e+01
   1.526574e+00  -1.018943e+01
  -1.657032e+01  -9.719740e+00
   2.272444e+00  -2.040061e+00
   3.988320e+01   3.274296e-01
   5.129058e+01   5.267322e-01
   2.229320e+01   7.556966e+01
  -9.855169e+01   1.558773e+02
  -1.763759e+02   9.560598e+01
  -1.531753e+02  -5.701437e+01
  -1.964887e+01  -1.388585e+02
   8.902325e+01  -1.708430e+02
   1.089331e+02  -7.379723e+01
   9.816950e+01   1.828533e+01
   2.250475e+01   2.743011e+01
  -4.026480e+00   3.370928e+01
   1.117150e+01  -1.066594e+01
   3.247639e+01   4.045733e+01
   3.453585e+01   9.885848e+01
  -1.864404e+01   8.280291e+01
  -8.277248e+01  -1.771079e+01
  -6.595211e+01  -1.024581e+02
  -3.172643e+01  -1.208741e+02
   5.646886e+01  -2.730272e+01
   8.983872e+01   4.309712e+01
   3.685693e+01   1.028221e+02
  -6.439630e+01   5.799450e+01
  -8.278672e+01  -1.579794e+01
  -3.892374e+01  -7.163902e+01
   3.475895e+01  -5.488429e+01
   3.841243e+01  -2.852299e+01
  -2.222801e+01  -1.857583e+01
  -5.428802e+01   5.886346e+00
  -3.228886e+01  -3.155794e+01
   9.141373e+01  -7.507542e+01
   1.368074e+02  -5.110013e+01
   3.814183e+01   1.066145e+01
  -2.966040e+01   9.632750e+01
  -4.197529e+01   8.850237e+01
  -4.324744e+01  -2.309663e+00
  -1.792403e+00  -2.252683e+01
   6.408470e+01  -3.973047e+01
   3.519308e+01   7.425332e+00
   1.921545e+01   1.694630e+01
  -5.317746e+00   2.280506e+01
  -3.255669e+01   9.772661e+00
  -4.953167e+01   9.054252e+00
  -5.246092e+01   1.892189e+01
  -2.250425e+01   2.029757e+01
   1.464899e+00   1.062133e+01
  -1.324531e+01  -1.332314e+01
  -1.118435e+01  -4.859511e+01
   9.167594e+00  -2.141368e+01
   1.622908e+01   5.080760e+01
   6.894907e+00   5.645413e+01
  -5.913108e+01   2.860923e+01
  -4.532600e+01  -1.613438e+01
  -3.736924e+01  -6.176325e+01
   5.860804e+01  -2.332526e+01
   9.799102e+01   3.444254e+00
   5.393460e+01   1.568157e+01
  -1.687841e+01   5.134537e+01
  -5.356379e+01   2.903879e+01
  -2.225091e+01   1.871804e+01
   3.154128e+01  -1.520154e+01
   1.711860e+01   3.670189e+01
  -3.470861e+01   1.229901e+01
  -7.493267e+01   8.921776e-01
