
 $NMID
 id='ANONYMOUS ', fmtdat='(2E16.6)'
 volume=1.0
 tramp=1.0
 $END
   4.253588e+03   2.429754e+02
   2.209309e+03   2.573352e+03
  -6.396247e+02   2.575207e+03
  -1.921830e+03   6.334625e+02
  -7.028775e+02  -6.013701e+02
   7.577602e+02  -2.404771e+02
   8.339281e+02   5.172568e+02
  -1.001296e+02   9.459062e+02
  -9.193872e+02   6.091862e+02
  -8.822682e+02  -1.151830e+02
  -4.587219e+02  -9.133379e+02
   2.787269e+02  -8.293350e+02
   6.605608e+02  -8.582283e+00
   2.869021e+02   6.833680e+02
  -2.952677e+02   6.503645e+02
  -6.059415e+02   5.768771e+00
  -2.419926e+02  -6.864506e+02
   3.120626e+02  -5.627584e+02
   5.111343e+02  -8.523629e+01
   3.752037e+02   3.334924e+02
   5.607449e+01   3.649151e+02
  -2.685608e+02   2.304904e+02
  -2.001760e+02  -1.593929e+01
   1.606885e+02  -6.357349e+01
   4.095122e+02   1.498647e+02
   9.096382e+01   4.162890e+02
  -5.324814e+02   3.625100e+02
  -8.914986e+02  -1.409259e+02
  -3.455675e+02  -5.628051e+02
   4.843396e+02  -3.249026e+02
   7.012112e+02   8.562470e+01
   3.199896e+02   4.763665e+02
  -3.487755e+02   4.839906e+02
  -6.224413e+02   1.528590e+02
  -3.649441e+02  -2.377706e+02
  -8.533051e+01  -4.388873e+02
   1.867010e+02  -2.532275e+02
   1.369476e+02   2.467546e+02
  -2.826361e+02   3.814451e+02
  -3.621484e+02  -4.352112e+01
  -1.492824e+02  -6.907355e+02
   3.659136e+02  -6.655510e+02
   5.208651e+02   1.071210e+02
   1.761302e+02   5.565191e+02
  -2.494410e+02   2.860953e+02
  -3.425780e+02  -3.702061e+02
   1.245745e+02  -5.237482e+02
   5.850148e+02  -8.019486e+01
   5.446617e+02   4.706764e+02
   1.354496e+02   5.802731e+02
  -3.951468e+02   3.247898e+02
  -5.684045e+02  -1.187350e+02
  -3.060064e+02  -3.640131e+02
   1.150069e+02  -3.170848e+02
   4.381197e+02  -2.452009e+01
   1.887180e+02   1.693721e+02
  -1.228340e+02   5.926291e+01
  -1.253019e+02  -1.611916e+02
   1.901059e+02  -1.641137e+02
   3.518592e+02   8.692418e+01
   1.258221e+02   2.517202e+02
  -1.963534e+02   2.625119e+02
  -3.240004e+02   8.029965e+01
  -2.354349e+02  -4.801709e+01
  -4.193826e+00  -2.299434e+02
   2.503973e+02  -3.489233e+02
   3.700357e+02  -2.147505e+02
   3.022239e+02   1.329645e+02
   1.166325e+01   4.598205e+02
  -1.598520e+02   3.380623e+02
  -6.652955e+01   1.480183e+02
   7.382792e+00   2.344041e+01
  -9.594570e+01   9.707209e+01
  -2.004298e+02   1.340064e+02
  -2.415937e+02  -1.025808e+02
  -1.348458e+02  -2.598718e+02
   9.670871e+01  -2.555590e+02
   2.462095e+02   1.336870e+01
   2.065561e+02   2.585465e+02
  -6.387210e+01   2.895983e+02
  -2.749617e+02   1.216737e+02
  -3.599937e+02  -1.768289e+02
  -1.804798e+02  -3.340420e+02
   8.396410e+01  -2.939405e+02
   2.149996e+02  -1.280715e+02
   1.152213e+02  -1.901031e-01
   9.550533e+01  -3.865424e+01
   2.024024e+02  -6.421309e+01
   3.942163e+02   6.592844e+01
   2.932568e+02   2.872612e+02
  -1.044506e+01   4.510457e+02
  -3.713405e+02   4.159528e+02
  -4.914901e+02   1.805137e+02
  -3.078105e+02  -1.102585e+02
  -4.129566e+01  -3.407386e+02
   1.431620e+02  -2.279185e+02
   4.245755e+01  -1.181436e+01
  -1.035934e+02   7.004838e+01
  -1.755039e+02  -3.798839e+01
  -1.919548e+01  -1.749299e+02
   1.685241e+02  -1.478917e+02
   1.791751e+02   7.639484e+01
  -3.522233e+01   1.992111e+02
  -1.969368e+02   9.729650e+00
  -1.431640e+02  -2.525580e+02
   3.477229e+01  -3.397188e+02
   2.486248e+02  -1.882449e+02
   3.447030e+02   8.231317e+01
   2.784733e+02   2.249845e+02
   6.179942e+01   2.762102e+02
  -1.250067e+02   1.560153e+02
  -1.787233e+02  -3.194411e+00
  -1.963613e+01  -3.844089e+01
   6.453806e+01   5.032992e+01
   2.670912e+01   1.139796e+02
  -1.367906e+02   9.984196e+01
  -1.941118e+02  -8.979589e+00
  -5.077203e+01  -7.975613e+01
   8.174823e+01  -1.489973e+01
   4.219526e+01   8.322437e+01
  -1.347597e+02   1.019602e+02
  -3.120838e+02  -3.650688e+00
  -2.792353e+02  -1.407817e+02
  -3.072516e+01  -2.631852e+02
   2.031029e+02  -2.540024e+02
   3.178538e+02  -9.632476e+01
   1.614292e+02   5.224969e+01
  -3.721061e+01   1.035021e+02
  -1.248913e+02   1.870951e+01
   2.959511e+01  -6.181479e+01
   1.865260e+02  -5.575694e+01
   2.218164e+02   1.131039e+02
   2.388334e+01   1.955872e+02
  -8.982774e+01   1.268007e+02
  -1.419862e+02  -7.979563e-01
  -8.278279e+01  -7.096890e+01
   3.165880e+01  -2.250123e+00
   5.185147e+01   6.974323e+01
  -6.975687e+01   9.422967e+01
  -2.223175e+02   2.072783e+01
  -2.093592e+02  -1.446171e+02
  -1.309283e+01  -2.076811e+02
   1.520933e+02  -1.597569e+02
   1.928086e+02   1.907461e+01
   5.130243e+01   1.374221e+02
  -7.430831e+01   1.126776e+02
  -7.234169e+01   3.012151e+01
  -1.482337e+01  -3.409475e+01
   3.913172e+00  -4.592276e+01
  -8.588153e+00   5.320923e+00
  -5.507491e+01   4.811823e+00
  -5.736868e+01  -9.869509e+01
  -3.357946e+00  -1.136537e+02
   1.332909e+02  -1.515675e+02
   2.331857e+02  -3.035029e+01
   1.596225e+02   1.655674e+02
   4.600360e+01   2.445616e+02
  -1.031022e+02   1.908094e+02
  -1.417250e+02   2.549148e+01
  -6.061411e+01  -6.348511e+01
  -4.889582e+01  -2.565700e+01
  -4.980793e+01   2.833234e+01
  -5.601578e+01   2.168480e+01
  -2.803023e+01  -3.824024e+01
   3.477932e+01  -1.095927e+02
   6.954187e+01  -3.758337e+01
   9.337057e+01   9.925535e+00
  -1.110676e+01   1.281489e+02
  -1.521695e+02   9.563634e+01
  -1.977470e+02  -4.588669e+01
  -7.917822e+01  -2.104423e+02
   1.018242e+02  -2.473340e+02
   2.962614e+02  -5.784879e+01
   2.506816e+02   1.037610e+02
   1.024161e+02   1.702081e+02
  -1.964289e+01   1.503926e+02
  -9.204400e+01   8.974683e+01
  -1.000238e+02   7.822779e+01
  -4.086395e+01   8.919462e+01
  -8.151899e+01   6.614007e+01
  -1.521663e+02  -3.512969e+01
  -1.390117e+02  -1.400880e+02
  -3.941736e+01  -2.419886e+02
   1.082048e+02  -1.661931e+02
   1.641379e+02  -3.172849e+01
   1.275820e+02   1.322986e+02
   1.651143e+01   1.761715e+02
  -6.667429e+01   1.230721e+02
  -7.472100e+01   2.934045e+01
  -2.478015e+01  -3.494718e+01
   7.760407e-01  -2.121309e+01
  -3.983276e+01  -1.105058e+01
  -7.988665e+01  -3.644948e+01
  -3.517111e+01  -5.187244e+01
   5.106892e+01  -2.268315e+01
   1.428084e+02   5.809075e+00
   1.320379e+02   4.237548e+01
   1.099876e+01   6.243988e+01
  -1.270534e+02   8.771908e+01
  -1.628693e+02   1.025938e+01
  -6.927838e+01  -2.608392e+01
   5.208500e+01  -3.781867e+01
   7.917234e+01   1.059308e+01
   2.668779e+00   6.394810e+01
  -5.024774e+01   6.096366e+01
  -6.046105e+01  -2.161566e+00
  -3.058632e+01  -4.408915e+01
  -3.518499e+01  -3.600526e+01
  -6.614038e+01   1.256689e+01
  -5.675832e+01  -4.394979e+00
  -5.349741e+01  -6.332532e+01
   4.354424e+01  -1.152796e+02
   9.073736e+01  -1.320065e+02
   1.749359e+02  -2.059567e+01
   1.198896e+02   1.208500e+02
   2.217600e-01   9.337949e+01
  -1.077032e+02   5.747641e+01
  -4.789396e+01  -4.248573e+01
   5.959115e+01  -2.244299e+01
   1.404065e+02   2.595838e+01
   6.575408e+01   9.137466e+01
  -6.846255e+01   1.032375e+02
  -2.080070e+02   3.157885e+01
  -1.733727e+02  -4.503532e+01
  -4.593733e+01  -8.162391e+01
   3.376343e+01  -8.726153e+01
   5.498726e+01  -6.690329e+00
  -5.271312e+01   9.335943e+00
  -8.996171e+01  -4.269266e+01
  -3.209296e+01  -1.152946e+02
   7.175623e+01  -1.307898e+02
   1.353002e+02  -3.147769e+01
   1.298660e+02   8.664523e+01
   1.014021e+01   2.002992e+02
  -6.008138e+01   1.570526e+02
  -1.028319e+02   1.167387e+00
  -6.514758e+01  -1.365259e+02
  -1.358190e+01  -9.663730e+01
   1.929545e+01  -1.388432e+01
   3.241720e+01   3.708248e+01
   2.951376e+01   1.147633e+01
   1.388888e+01  -1.586285e+01
   1.976374e+01   2.338754e+01
   6.490426e+01   1.066441e+02
   5.417367e+01   1.128940e+02
  -6.150595e+01   4.007117e+01
  -1.338618e+02  -9.971706e+00
  -1.051771e+02  -5.907707e+01
  -1.029369e+01  -3.516130e+01
   9.702849e+01   2.486064e+00
   7.665200e+01  -1.671354e+01
   7.544774e+00   5.377063e+00
  -1.229853e+01  -1.668802e+00
  -2.317153e+01   3.531269e+01
   2.836021e+01  -3.795719e-03
   2.426381e+01  -1.611923e+01
  -7.483150e+01  -1.027771e+01
  -9.899324e+01  -1.819795e+01
  -1.258121e+01  -1.096480e+02
   1.233286e+02  -1.117765e+02
   1.608618e+02  -5.579177e+01
   1.416195e+02   6.866575e+01
   7.631358e+00   1.751049e+02
  -8.818339e+01   1.687811e+02
  -1.016667e+02   5.799593e+01
  -7.737656e+01  -3.222018e+01
  -3.444163e+01  -5.245159e+01
  -1.803863e+01  -1.189307e+01
  -2.781626e+01  -1.883890e+01
  -2.541440e+01  -4.505325e+01
  -1.604839e+01  -5.226125e+01
   2.807081e+01  -6.599797e+01
   7.223581e+01   2.065858e+01
   6.976737e+01   9.913404e+01
   4.159048e+00   1.198928e+02
  -6.072250e+01   7.986689e+00
  -1.205351e+02  -8.158141e+01
  -1.387373e+01  -9.624063e+01
   5.800269e+01  -2.575115e+01
   9.248736e+01   1.979756e+00
   2.518184e+01   4.856573e+01
  -3.027730e+01   6.592519e+01
  -1.088837e+01   3.221904e+01
   5.864850e+00  -1.517745e+01
   6.267655e+01  -7.528686e+00
   1.080737e+01   1.027683e+01
  -7.976042e+01   8.560586e+01
  -1.144159e+02   3.947698e+01
  -6.839641e+01  -1.248533e+01
   3.397294e+01  -1.026007e+02
   5.745256e+01  -9.382065e+01
   3.442315e+01  -4.127713e+01
   3.672432e+01   4.895957e+01
  -3.178650e+01   5.459725e+01
  -3.660512e+01  -1.742859e+01
  -2.195297e+01  -4.605056e+01
   3.360989e+00  -2.724761e+01
   2.857423e+01  -1.803410e+01
   3.629330e+01   2.222703e+01
   2.955537e+01   2.325447e+00
   5.079192e+00  -2.016117e+01
  -1.175215e+01  -5.789487e-01
  -9.946706e-01   2.886292e+01
  -5.123436e+00   5.530144e+01
  -3.634098e+01   2.715039e+00
  -7.619168e+00  -4.587424e+01
  -1.383023e+00  -6.985034e+01
   2.911664e+01  -1.643909e+01
   3.552771e+01   4.134290e+01
   2.124959e+01   7.609899e+01
  -8.174666e+01   3.333267e+01
  -8.406846e+01  -1.771845e+01
  -5.570767e+01  -5.570016e+01
   1.211755e+01  -1.303725e+01
   4.415694e+01  -1.547488e+00
   1.987002e+01  -1.772182e+01
  -4.058032e+01  -2.055033e+01
  -2.815085e+01  -3.527555e+01
   7.415562e+00  -5.251086e+00
   7.244611e+01  -7.296932e+00
