
 $NMID
 id='ANONYMOUS ', fmtdat='(2E16.6)'
 volume=1.0
 tramp=1.0
 $END
  -4.382834e+03  -3.045178e+02
  -2.291711e+03  -2.788237e+03
   9.409112e+02  -2.889729e+03
   2.069064e+03  -5.977069e+02
   8.335051e+02   7.927168e+02
  -8.153269e+02   3.949586e+02
  -8.379452e+02  -4.410875e+02
   5.773070e+01  -1.124671e+03
   8.973308e+02  -6.767503e+02
   9.636150e+02   1.809895e+02
   4.232761e+02   9.290552e+02
  -3.141210e+02   8.600620e+02
  -6.358868e+02  -1.770029e+01
  -3.450537e+02  -8.027803e+02
   4.369937e+02  -7.764259e+02
   5.791483e+02   4.154514e+00
   2.298760e+02   6.956078e+02
  -3.852222e+02   6.377217e+02
  -6.421219e+02   4.248795e+01
  -3.064891e+02  -3.612970e+02
   1.943775e+01  -4.607923e+02
   2.500528e+02  -2.496438e+02
   2.448559e+02   3.573799e+01
  -1.740604e+02   1.222297e+02
  -4.866490e+02  -8.617935e+01
  -1.977930e+02  -4.882521e+02
   4.837983e+02  -4.501633e+02
   8.567610e+02   1.309709e+02
   4.464782e+02   6.143838e+02
  -4.537053e+02   4.637672e+02
  -8.422562e+02  -2.961902e+01
  -3.797833e+02  -5.870494e+02
   3.541104e+02  -5.135761e+02
   6.313512e+02  -1.969138e+02
   4.145035e+02   2.833180e+02
   4.350150e+01   5.138066e+02
  -2.557818e+02   2.729498e+02
  -1.955073e+02  -3.179542e+02
   2.623025e+02  -4.640438e+02
   4.555354e+02   2.052611e+01
   1.980072e+02   7.659685e+02
  -4.221509e+02   7.597262e+02
  -6.215425e+02  -7.453396e+01
  -2.362424e+02  -5.990114e+02
   3.425680e+02  -3.301732e+02
   4.881739e+02   4.137429e+02
  -9.519413e+01   5.960299e+02
  -5.748293e+02   1.130946e+02
  -5.568111e+02  -4.566626e+02
  -1.663567e+02  -5.959589e+02
   4.298352e+02  -3.519860e+02
   6.375938e+02   1.395392e+02
   3.564341e+02   3.974894e+02
  -2.055254e+02   3.843767e+02
  -4.793633e+02   2.162892e+01
  -2.042997e+02  -2.159776e+02
   1.754937e+02  -6.845794e+01
   1.509671e+02   1.661943e+02
  -1.943742e+02   2.043364e+02
  -3.951922e+02  -7.620430e+01
  -1.366874e+02  -2.887619e+02
   2.369841e+02  -2.733534e+02
   3.267421e+02  -7.350728e+01
   2.011933e+02   6.742437e+01
  -3.520455e+01   2.179257e+02
  -2.173042e+02   3.721970e+02
  -3.449245e+02   2.241326e+02
  -3.215556e+02  -1.756226e+02
  -7.460094e+01  -4.649725e+02
   1.894468e+02  -3.780698e+02
   1.345601e+02  -1.192748e+02
   6.378825e+00   1.893841e+01
   3.189139e+01  -8.936709e+01
   2.191527e+02  -1.575208e+02
   2.799211e+02   4.538200e+01
   1.743440e+02   2.864272e+02
  -6.865564e+01   2.856329e+02
  -2.257644e+02   6.949885e+00
  -2.336731e+02  -2.639054e+02
   5.792379e+01  -3.041092e+02
   2.885597e+02  -1.404084e+02
   3.898269e+02   1.780145e+02
   1.775662e+02   3.561182e+02
  -1.252890e+02   3.041522e+02
  -2.331701e+02   1.373944e+02
  -1.345432e+02   2.355305e+01
  -5.821871e+01   3.150052e+01
  -2.425082e+02   8.271585e+01
  -4.296627e+02  -8.591401e+01
  -3.104358e+02  -2.836129e+02
   3.018583e+01  -4.372250e+02
   3.930166e+02  -4.202812e+02
   4.889161e+02  -1.724153e+02
   3.394977e+02   1.003831e+02
   5.625187e+01   3.110388e+02
  -1.536971e+02   2.690743e+02
  -7.830047e+01   4.006391e+01
   1.060936e+02  -9.701542e+01
   1.909628e+02   1.442275e+01
   2.939569e+01   1.963505e+02
  -2.015736e+02   1.685424e+02
  -1.743636e+02  -5.105834e+01
   5.992157e+01  -2.347371e+02
   2.241614e+02  -3.094283e+01
   1.664121e+02   2.721691e+02
  -4.983807e+01   3.553720e+02
  -2.481239e+02   1.763735e+02
  -3.197838e+02  -6.110212e+01
  -2.835087e+02  -2.489938e+02
  -5.872672e+01  -2.701950e+02
   1.320266e+02  -2.020256e+02
   1.591242e+02  -5.015453e+01
   3.201040e+01   2.937475e+01
  -7.430453e+01  -2.638134e+01
  -1.840278e+01  -1.152897e+02
   1.156252e+02  -9.528686e+01
   1.988595e+02   1.400231e+01
   5.195000e+01   7.753235e+01
  -6.100558e+01   1.888803e+01
  -6.802562e+01  -6.447537e+01
   1.071091e+02  -1.038149e+02
   2.869289e+02  -3.141210e-01
   2.743154e+02   1.382793e+02
   7.340224e+01   2.613558e+02
  -1.567667e+02   2.875384e+02
  -3.042975e+02   1.279281e+02
  -1.783325e+02  -5.854314e+01
   1.822002e+01  -1.047096e+02
   9.535002e+01  -1.142584e+01
  -2.613983e+01   7.740499e+01
  -2.111093e+02   7.956610e+01
  -2.118125e+02  -8.923885e+01
  -5.637423e+01  -2.005963e+02
   1.005914e+02  -1.521447e+02
   1.441498e+02  -3.927978e+01
   8.276092e+01   5.893628e+01
  -1.260368e+01   1.421259e+00
  -5.255076e+01  -6.858671e+01
   7.736663e+01  -9.139485e+01
   2.187358e+02  -2.652119e+01
   2.258520e+02   1.279788e+02
   1.877010e+01   2.349504e+02
  -2.112902e+02   1.577351e+02
  -1.908165e+02   8.879168e+00
  -5.450976e+01  -1.008413e+02
   5.781642e+01  -1.285975e+02
   7.478504e+01  -4.079011e+01
  -1.276722e+01   4.149874e+01
  -1.246380e+00   4.524374e+01
   1.107277e+01  -1.780844e+01
   6.978598e+01   1.417877e+01
   8.347371e+01   9.181368e+01
   2.531919e+01   1.429193e+02
  -1.373895e+02   1.568267e+02
  -2.600961e+02   4.693733e+00
  -2.084371e+02  -1.602980e+02
  -4.036350e+01  -2.426880e+02
   1.084740e+02  -1.886393e+02
   1.130449e+02  -2.777726e+01
   7.016717e+01   5.778317e+01
   3.549617e+01   2.781441e+01
   4.129965e+01  -3.248087e+01
   7.375642e+01  -3.103992e+01
   5.465434e+01   2.437521e+01
  -2.588267e+01   7.153316e+01
  -1.086333e+02   6.092534e+01
  -8.391010e+01  -2.813730e+00
   2.593960e+01  -1.132366e+02
   1.392066e+02  -8.844222e+01
   1.955412e+02   4.770292e+01
   9.619773e+01   2.141907e+02
  -8.529792e+01   1.974239e+02
  -2.867208e+02   4.976570e+01
  -2.291742e+02  -9.811245e+01
  -1.019532e+02  -1.898603e+02
   2.931845e+01  -1.691910e+02
   9.358050e+01  -7.648540e+01
   7.880039e+01  -5.894114e+01
   8.532008e+01  -8.624183e+01
   9.525814e+01  -7.245610e+01
   1.472660e+02   2.594861e+01
   1.313875e+02   1.429490e+02
   3.827501e+01   2.457776e+02
  -1.091640e+02   1.513894e+02
  -1.861767e+02   2.282292e+01
  -1.116491e+02  -1.325698e+02
  -1.874868e+01  -1.394039e+02
   1.008217e+02  -5.090493e+01
   6.927620e+01  -2.238397e+01
   8.937851e+00   3.205883e+01
  -4.337980e+00   6.129734e+01
   3.424599e+01   6.967175e+00
   6.566994e+01   1.149735e+01
   3.124997e+01   6.915909e+01
  -8.932897e+01   1.555935e+01
  -1.497268e+02   5.558734e+00
  -1.435492e+02  -2.522952e+01
  -4.283585e+01  -9.881865e+01
   1.403167e+02  -1.015667e+02
   1.533933e+02  -1.465059e+01
   7.202936e+01   4.074830e+01
  -4.056599e+01   1.744886e+01
  -7.982919e+01  -8.160049e+00
  -9.449760e+00  -5.312820e+01
   4.264003e+01  -2.126680e+01
   3.590400e+01   1.928429e+01
   2.008642e+01   3.781608e+01
   4.095119e+01   5.176129e+01
   7.470416e+01   3.309984e-02
   7.766070e+01  -2.886445e+00
   3.923083e+01   4.748303e+01
  -2.734464e+01   1.204699e+02
  -1.364643e+02   1.525791e+02
  -1.795581e+02   3.137044e+01
  -1.334563e+02  -1.005666e+02
  -1.108753e+00  -1.286059e+02
   8.269281e+01  -6.093585e+01
   5.950761e+01   1.197253e+01
  -7.474604e+01   3.458882e+01
  -1.502735e+02  -2.029242e+01
  -6.980186e+01  -1.110567e+02
   6.965540e+01  -1.128439e+02
   1.920829e+02  -4.420729e+01
   1.608424e+02   3.562157e+01
   1.195836e+01   8.193842e+01
  -5.488363e+01   7.387891e+01
  -5.208115e+01   3.149980e+00
   1.344383e+01  -1.354590e+01
   7.133334e+01   1.364966e+01
   2.804084e+01   1.161055e+02
  -8.826759e+01   1.395010e+02
  -1.773630e+02   5.798466e+01
  -1.031136e+02  -9.086317e+01
  -2.740024e+01  -1.843981e+02
   9.199295e+01  -1.736418e+02
   1.201572e+02   2.725560e+01
   8.549574e+01   1.233541e+02
  -1.601291e+01   9.777547e+01
  -4.792116e+01   2.407202e+01
  -7.251432e+01  -4.337423e+01
  -3.575752e+01   5.104736e+00
  -8.727305e+00  -2.006977e+01
  -1.946664e+01   5.888558e+00
  -8.614810e+01  -1.053417e+02
  -3.254448e+01  -1.238025e+02
   5.959305e+01  -7.708059e+01
   1.333257e+02   4.402634e+01
   1.016494e+02   7.640745e+01
   2.277263e+01   1.849496e+01
  -7.692632e+01   1.905382e+01
  -9.392237e+01   6.415905e+00
   2.244900e+00  -2.828479e+00
   4.157689e+01  -1.192431e+01
   3.126885e+01  -5.352707e+01
  -3.276239e+01   1.453235e+01
   1.127677e+01  -3.047530e+01
   7.077094e+01   1.728760e+01
   1.146774e+02  -1.946641e+01
  -1.237563e+00   9.081973e+01
  -1.276382e+02   9.575127e+01
  -1.640713e+02   4.137088e+01
  -1.242018e+02  -5.953516e+01
  -1.989375e+01  -1.774761e+02
   8.290093e+01  -1.532265e+02
   1.268773e+02  -5.029293e+01
   5.519677e+01   1.542015e+01
   3.489693e+01   4.039730e+01
  -7.949125e+00   2.931259e+01
   5.450671e-01   1.499623e+01
   4.240532e+01   3.739622e+01
   1.260954e+01   8.781432e+01
  -2.535001e+01   4.458217e+01
  -7.525785e+01  -3.182391e+01
  -7.430895e+01  -1.219015e+02
  -4.560241e+00  -8.720582e+01
   4.596478e+01  -2.260390e+01
   1.055696e+02   8.228562e+01
   4.413360e+01   1.062376e+02
  -6.073963e+01   6.092401e+01
  -1.064702e+02  -4.894245e+00
  -4.009640e+01  -4.249954e+01
   1.077350e+01  -6.196641e+01
   2.696202e+01  -3.253842e+01
  -2.021759e+01  -1.201305e+01
  -7.577569e+01   2.057682e+01
  -2.307583e+01  -2.523156e+01
   8.605883e+01  -6.608073e+01
   1.079196e+02  -5.398593e+01
   6.094594e+01   1.952261e+01
  -1.362886e+01   7.570388e+01
  -2.194195e+01   7.354728e+01
  -6.143532e+01   1.918823e+01
   1.147872e+01  -5.028262e+01
   3.954270e+01  -5.521272e+01
   5.593307e+01   4.343264e+01
   3.610790e+01   7.939032e+01
  -5.747620e+00   1.891941e+01
  -3.666252e+01  -4.665072e+00
  -4.821681e+01  -2.350756e+01
  -6.639855e+00   6.052095e+00
  -1.396246e+01   2.666438e+01
   1.576961e+01   1.399888e+00
   1.399068e+01  -2.137762e+01
   4.177251e+00  -2.819457e+01
   1.047422e+01   2.487760e+00
   2.630801e+01   5.333708e+01
  -1.879851e+01   6.323591e+01
  -6.651223e+01   1.433355e+01
  -5.769990e+01  -5.123158e+01
   1.782059e+00  -7.375168e+01
   6.546876e+01  -4.828839e+01
   7.727484e+01   3.031568e+01
   5.067363e+01   5.968961e+01
  -3.695709e+01   5.248985e+01
  -5.945261e+01   9.245295e+00
  -3.435052e+01   1.731613e+01
   1.746126e+01   2.213834e+01
   2.085036e+01   8.797684e+00
  -1.645938e+01   2.803742e+01
  -8.871053e+01   3.080713e+01
