
 $NMID
 id='ANONYMOUS ', fmtdat='(2E16.6)'
 volume=1.0
 tramp=1.0
 $END
  -3.254855e+03  -8.870564e+01
  -2.022444e+03  -2.001709e+03
   3.617107e+02  -2.070522e+03
   1.633365e+03  -9.905556e+02
   8.856375e+02   1.305885e+02
  -7.708737e+01   4.796108e+02
  -4.087778e+02  -1.884838e+02
   2.145062e+01  -8.291557e+02
   5.705229e+02  -7.182420e+02
   6.857181e+02   2.734375e+01
   3.633296e+02   5.661041e+02
  -1.100345e+02   7.420020e+02
  -3.914161e+02   1.458785e+02
  -3.148408e+02  -4.881308e+02
   1.002301e+02  -6.188152e+02
   5.393507e+02  -5.751428e+00
   2.141882e+02   5.666360e+02
  -2.437278e+02   5.888809e+02
  -4.642739e+02   2.121640e+02
  -4.036949e+02  -2.101047e+02
  -7.315505e+01  -3.668121e+02
   1.242175e+02  -2.205698e+02
   1.419136e+02  -9.582770e+01
  -1.284901e+02  -3.784877e+01
  -3.364231e+02  -2.256361e+02
  -8.895123e+01  -3.630915e+02
   5.010697e+02  -2.255962e+02
   6.348834e+02   1.967757e+02
   2.885330e+02   4.293432e+02
  -3.419502e+02   3.167519e+02
  -6.258763e+02  -1.079890e+02
  -2.569275e+02  -3.777513e+02
   2.836179e+02  -4.002113e+02
   4.647292e+02  -1.432889e+02
   3.928925e+02   1.913876e+02
   5.062058e+01   3.892696e+02
  -7.657601e+01   1.761850e+02
  -4.579515e+01  -1.881890e+02
   2.219215e+02  -2.154526e+02
   3.089530e+02   7.554760e+01
   1.334134e+02   5.721943e+02
  -1.804194e+02   5.674964e+02
  -4.764353e+02  -7.349095e+00
  -1.537836e+02  -4.466673e+02
   2.596406e+02  -2.354324e+02
   3.190565e+02   3.202906e+02
  -1.386986e+02   4.330541e+02
  -4.759990e+02   1.212949e+02
  -5.051524e+02  -3.545603e+02
  -1.556426e+02  -5.284308e+02
   3.522955e+02  -3.046018e+02
   5.566573e+02   9.600741e+01
   3.030243e+02   3.428776e+02
  -1.141933e+02   2.694300e+02
  -3.826048e+02   1.014073e+02
  -2.247658e+02  -1.090605e+02
   1.132607e+01  -1.093848e+02
   6.503651e+01   1.095947e+02
  -1.381621e+02   9.053072e+01
  -2.476268e+02  -6.142205e+01
  -1.167410e+02  -2.687891e+02
   1.488553e+02  -2.554580e+02
   3.229099e+02  -1.243390e+02
   2.824967e+02   8.738607e+01
  -3.524870e+00   2.852932e+02
  -2.438592e+02   3.545539e+02
  -3.292940e+02   2.179180e+02
  -2.479556e+02  -1.547373e+02
  -5.307482e+01  -3.434167e+02
   3.822255e+00  -3.474602e+02
   4.988539e+01  -1.294364e+02
   1.494034e+01  -5.740897e+01
   1.002000e+02  -1.495438e+02
   2.526537e+02  -7.944286e+01
   2.656647e+02   8.920995e+01
   7.649666e+01   2.454912e+02
  -1.151423e+02   2.449555e+02
  -2.018449e+02  -3.530423e+01
  -1.423025e+02  -2.432543e+02
   8.778701e+01  -2.781873e+02
   2.493270e+02  -5.489924e+01
   3.029363e+02   1.805571e+02
   2.123974e+02   3.161652e+02
  -6.069423e+01   3.066827e+02
  -2.032558e+02   1.456432e+02
  -1.284655e+02   2.382388e+01
  -1.122795e+02   7.225133e+01
  -2.280322e+02   5.706977e+01
  -4.009792e+02  -6.538279e+01
  -3.093426e+02  -2.651359e+02
   2.885090e+01  -3.953068e+02
   3.599329e+02  -4.081094e+02
   4.438458e+02  -1.468706e+02
   3.073131e+02   1.378853e+02
   2.050531e+01   2.685976e+02
  -1.062791e+02   2.117968e+02
  -1.371701e+01   3.881297e+01
   1.413630e+02  -9.093152e+01
   1.645151e+02   4.101528e+01
   3.066602e+01   1.596269e+02
  -9.102934e+01   1.257073e+02
  -1.455568e+02  -2.418099e+01
  -6.807828e+00  -1.411716e+02
   1.674311e+02   6.942163e+00
   1.333826e+02   2.347954e+02
  -4.075555e+01   3.273556e+02
  -2.336193e+02   2.130544e+02
  -3.494919e+02  -6.432130e+01
  -2.588181e+02  -2.710273e+02
  -5.993801e+01  -2.639550e+02
   1.274834e+02  -1.331123e+02
   1.586003e+02  -2.532014e+00
   3.039093e+01   2.220559e+01
  -5.569781e+01  -4.221008e+01
  -2.938452e+01  -1.045747e+02
   1.318566e+02  -4.576960e+01
   1.644176e+02   1.219729e+01
   5.420801e+01   6.451417e+01
  -7.115849e+01  -2.383694e+01
  -4.923465e+01  -1.186041e+02
   1.497137e+02  -8.036060e+01
   3.144082e+02  -9.509386e+00
   2.305080e+02   1.486494e+02
   2.001693e+01   2.644239e+02
  -2.181942e+02   2.283919e+02
  -2.895896e+02   9.473153e+01
  -1.438070e+02  -6.126584e+01
   6.732419e+01  -1.332298e+02
   8.461514e+01   5.206736e+00
  -3.647611e+01   7.303157e+01
  -1.898332e+02   4.610550e+01
  -1.984582e+02  -1.278889e+02
  -5.639070e+01  -1.805428e+02
   9.406272e+01  -1.639644e+02
   1.213398e+02  -2.253259e+01
   5.662188e+01   4.773804e+01
  -5.370921e+01  -4.143232e+01
  -5.287662e+01  -7.467191e+01
   8.388021e+01  -1.250343e+02
   2.189141e+02  -2.049855e+01
   2.076147e+02   1.201454e+02
   3.374031e+01   1.837590e+02
  -1.655408e+02   1.592741e+02
  -1.499414e+02   9.565897e+00
  -6.289293e+01  -9.944925e+01
   8.282777e+01  -8.909042e+01
   7.249899e+01  -4.583227e+01
  -1.536207e+01   2.309975e+01
  -4.076993e+01   1.198212e+01
   1.122023e+01  -2.802535e+01
   9.925988e+01  -1.331401e+01
   9.800970e+01   9.786772e+01
   4.250712e+00   1.521707e+02
  -1.505309e+02   1.597643e+02
  -2.287694e+02   4.338298e+01
  -2.104928e+02  -1.328542e+02
  -2.917485e+01  -2.397658e+02
   1.132220e+02  -1.487223e+02
   1.206729e+02  -9.919500e+00
   6.626338e+01   6.006729e+01
   4.307763e+01   3.728614e+01
   8.388456e+01  -2.154663e+01
   1.029053e+02  -1.801589e+01
   3.438321e+01   1.153930e+01
  -4.046113e+01   1.177502e+02
  -1.169880e+02   5.766816e+01
  -9.745602e+01  -2.730243e+01
   1.417897e+01  -9.786958e+01
   1.660545e+02  -8.076645e+01
   1.982806e+02   5.701660e+01
   5.763941e+01   1.895366e+02
  -1.129525e+02   2.445351e+02
  -2.697235e+02   7.290086e+01
  -2.430475e+02  -1.083505e+02
  -8.632623e+01  -1.555895e+02
   4.845838e+01  -1.107736e+02
   9.800403e+01  -5.960645e+01
   8.331924e+01  -8.991648e+01
   6.265642e+01  -8.569765e+01
   1.109967e+02  -7.479629e+01
   1.119535e+02   2.754824e+01
   1.104986e+02   1.664248e+02
   4.995417e+01   2.123575e+02
  -1.309615e+02   1.735876e+02
  -1.557074e+02  -1.500179e+01
  -1.213901e+02  -1.183250e+02
  -3.406629e+00  -1.414673e+02
   8.430577e+01  -7.089795e+01
   5.905285e+01   1.550725e+01
   1.291355e+01   5.171824e+01
  -1.972906e+01   5.216818e+01
   1.897627e+01   8.319923e+00
   8.046116e+01   1.048209e+01
   6.023561e+01   4.115104e+01
  -6.459161e+01   6.119367e+01
  -1.806989e+02   4.238098e+00
  -1.234661e+02  -6.960380e+01
  -1.905622e+01  -7.933484e+01
   1.263952e+02  -6.609235e+01
   1.449990e+02  -1.872218e+01
   4.166891e+01   4.730170e+01
  -4.939915e+01   3.531627e+01
  -9.409180e+01  -3.316513e+01
  -2.714217e+01  -5.944790e+01
   4.754922e+01  -5.581871e+01
   6.548742e+01  -5.867996e+00
   5.933949e+01   3.646101e+01
   6.434240e+01   3.567418e+01
   5.162976e+01  -6.311592e+00
   5.551890e+01  -7.875478e+00
   2.928291e+01   6.422864e+01
  -3.761473e+01   1.341751e+02
  -1.102065e+02   1.493207e+02
  -1.641705e+02   4.754167e+01
  -1.264308e+02  -9.849215e+01
  -9.302670e-01  -1.193561e+02
   9.957758e+01  -8.152366e+01
   8.299241e+01   2.743371e+01
  -2.996405e+01   3.471398e+01
  -1.269497e+02  -3.180294e+01
  -7.224979e+01  -1.128924e+02
   1.069238e+02  -9.395517e+01
   1.756646e+02  -1.389120e+01
   1.694897e+02   4.969881e+01
   7.726401e+00   8.211961e+01
  -3.498396e+01   8.504621e+01
  -3.785925e+01  -8.249977e-01
   4.172028e+01  -5.373495e+01
   7.553448e+01   7.721617e+00
   3.257717e+01   1.194084e+02
  -9.647235e+01   1.565645e+02
  -1.937535e+02   7.701884e+01
  -1.240275e+02  -1.044504e+02
  -9.139455e+00  -1.918314e+02
   9.363997e+01  -1.472219e+02
   7.896086e+01  -9.718419e+00
   5.588376e+01   1.221730e+02
  -1.802404e+01   1.177025e+02
  -5.236584e+01   2.595064e+01
  -4.168378e+01  -2.923340e+01
  -3.327538e+01  -1.987035e+01
  -2.398349e+01   1.664302e+01
  -3.339028e+01  -2.465657e+01
  -5.417189e+01  -8.856176e+01
  -3.425221e+01  -9.910058e+01
   6.933275e+01  -4.798217e+01
   1.297418e+02   3.565188e+01
   1.317699e+02   7.012254e+01
   8.665822e+00   5.185717e+01
  -6.814591e+01   4.107915e+01
  -1.136676e+02   1.998193e+01
  -1.593258e+01  -5.525688e+00
   2.338798e+01   8.644490e+00
   5.425589e+00  -3.078364e+01
  -1.501028e+01   2.211841e+01
  -1.203812e+01   2.818143e+01
   7.380671e+01  -6.832506e+00
   8.906445e+01   2.094602e+01
   8.567675e+00   8.716763e+01
  -1.229785e+02   1.222535e+02
  -1.855027e+02   7.629733e+01
  -1.491173e+02  -5.874366e+01
  -2.520140e+01  -1.787156e+02
   8.566004e+01  -1.545037e+02
   1.195027e+02  -6.656998e+01
   8.792218e+01   2.208098e+01
   8.334371e+00   2.518029e+01
  -2.452783e+01   2.985268e+01
   9.406929e+00   2.517941e+01
   3.724432e+01   4.496547e+01
   1.122799e+01   7.300935e+01
  -3.082867e+01   6.755496e+01
  -8.029076e+01  -3.553894e+01
  -5.658044e+01  -1.170649e+02
  -3.125544e+01  -9.270311e+01
   1.022706e+02  -3.514579e+01
   1.239111e+02   5.717841e+01
   3.447421e+01   1.407019e+02
  -5.657506e+01   6.623460e+01
  -9.520989e+01   1.029556e+01
  -4.808524e+01  -5.378816e+01
   3.616079e+01  -5.144799e+01
   3.518376e+01  -4.083232e+01
  -3.373872e+01   5.988573e+00
  -9.145796e+01   2.917477e+01
  -2.637030e+01  -2.420844e+01
   1.017810e+02  -6.719242e+01
   1.097260e+02  -3.120154e+01
   7.267691e+01   1.046307e+01
  -3.590018e+01   6.398132e+01
  -5.898763e+01   8.635140e+01
  -5.541445e+01   2.134932e+01
  -2.113105e+01  -3.676507e+01
   2.047243e+01  -5.937151e+01
   2.372670e+01   4.349241e+01
   1.839866e+01   5.948713e+01
  -1.820305e+01   3.574499e+01
  -7.630463e+00  -3.230364e+00
  -1.252968e+01   7.742683e+00
  -1.008336e+01  -1.638277e+01
  -1.831708e+01  -2.340259e+00
  -1.562390e+01   3.081000e+00
   1.162427e+01  -3.478378e+01
  -6.077128e+00  -7.127315e+01
   1.966045e+01  -3.658831e+01
   3.011492e+01   3.963072e+01
   1.905592e+01   5.108070e+01
  -3.425173e+01   4.059085e+01
  -5.359150e+01  -2.479527e+01
  -2.917116e+01  -7.951224e+01
   2.888080e+01  -4.077732e+01
   1.237189e+02   4.069819e+00
   7.735815e+01   4.463758e+01
  -6.477928e+01   2.846720e+01
  -6.169598e+01   1.903315e+01
  -2.957791e+01  -1.429314e+01
   7.873582e+00  -1.726494e+01
   4.452482e+01   1.176785e+01
  -1.896271e+01   2.213712e+01
  -6.964489e+01   1.583861e+01
