
 $NMID
 id='ANONYMOUS ', fmtdat='(2E16.6)'
 volume=1.0
 tramp=1.0
 $END
  -3.061854e+03   1.327718e+01
  -1.813080e+03  -1.618806e+03
   3.551824e+02  -2.210335e+03
   1.174140e+03  -8.266957e+02
   7.247188e+02   6.931546e+01
  -2.501833e+02   3.390405e+02
  -4.749089e+02  -2.014841e+02
  -4.458073e+01  -7.114110e+02
   4.744128e+02  -5.534354e+02
   6.961649e+02  -3.800951e+01
   3.077045e+02   5.629098e+02
  -9.399900e+01   5.959893e+02
  -3.740174e+02   8.628600e+01
  -2.181154e+02  -4.556387e+02
   1.540527e+02  -5.016078e+02
   3.651973e+02  -7.893247e+01
   2.838396e+02   4.972654e+02
  -1.460406e+02   5.215970e+02
  -4.167948e+02   1.399698e+02
  -3.746196e+02  -1.913141e+02
  -1.044210e+02  -3.002635e+02
   1.458139e+02  -2.158293e+02
   5.246305e+01  -7.203875e+01
  -1.766714e+02  -5.490484e+01
  -2.963317e+02  -2.184087e+02
   3.385208e+01  -3.032782e+02
   4.448045e+02  -1.964524e+02
   6.037006e+02   2.243937e+02
   2.694806e+02   3.748411e+02
  -3.692850e+02   2.211109e+02
  -5.006753e+02  -9.320792e+01
  -1.557654e+02  -3.485608e+02
   2.819441e+02  -3.883093e+02
   4.088415e+02  -1.179612e+02
   2.862350e+02   1.759175e+02
   3.707496e+01   3.087782e+02
  -8.483499e+01   1.471564e+02
  -2.560955e+01  -1.739217e+02
   2.461745e+02  -1.997821e+02
   2.627416e+02   8.984843e+01
   8.513901e+01   4.922747e+02
  -2.905546e+02   4.189969e+02
  -3.352529e+02  -8.550115e+00
  -1.299266e+02  -2.881133e+02
   1.492073e+02  -1.653193e+02
   2.047782e+02   2.532165e+02
  -1.049293e+02   3.791336e+02
  -4.417991e+02   8.476658e+01
  -4.354920e+02  -3.621535e+02
  -1.491235e+02  -4.657516e+02
   2.984537e+02  -2.232619e+02
   4.677459e+02   7.134604e+01
   3.059948e+02   2.595475e+02
  -1.007903e+02   2.583921e+02
  -2.931256e+02   5.725809e+00
  -1.539204e+02  -3.577295e+01
   1.479581e+01  -2.308295e+01
   3.190984e+01   9.334055e+01
  -6.800522e+01   7.339868e+01
  -2.332094e+02  -1.120420e+00
  -1.410969e+02  -1.885588e+02
   1.412396e+02  -2.314931e+02
   3.010974e+02  -1.174601e+02
   1.897777e+02   4.920603e+01
  -1.665513e+01   2.692819e+02
  -2.076810e+02   2.789119e+02
  -3.099625e+02   1.258095e+02
  -2.632075e+02  -1.510401e+02
  -4.077496e+01  -3.199700e+02
   8.737541e+01  -3.087735e+02
   3.843634e+01  -1.228586e+02
   1.175192e+01  -7.145211e+01
   8.664853e+01  -1.033152e+02
   2.187010e+02  -5.952947e+01
   2.078582e+02   6.666927e+01
   9.647680e+01   1.999863e+02
  -6.999687e+01   2.065450e+02
  -1.781483e+02  -2.660618e+01
  -1.318303e+02  -2.112735e+02
  -7.025946e+00  -2.333622e+02
   2.504930e+02  -7.028202e+01
   2.500035e+02   1.557047e+02
   1.679953e+02   3.072186e+02
  -5.040242e+01   2.548675e+02
  -1.503628e+02   1.125490e+02
  -1.303151e+02   2.023891e+01
  -7.773388e+01   4.224774e+01
  -2.218216e+02   6.588300e+01
  -3.441493e+02  -9.638567e+01
  -2.632982e+02  -2.716551e+02
   2.162677e-01  -3.889921e+02
   3.297302e+02  -3.206214e+02
   4.288646e+02  -1.629224e+02
   2.643436e+02   7.660622e+01
   2.390768e+01   2.199770e+02
  -1.338086e+02   1.323380e+02
  -1.799584e+01   1.511208e+01
   1.038031e+02  -4.341551e+01
   1.482045e+02   2.371228e+01
   2.538008e+01   1.183205e+02
  -8.763990e+01   8.421101e+01
  -1.106674e+02  -6.193195e+01
   3.461629e+01  -1.588644e+02
   1.620302e+02  -3.083147e+01
   1.739697e+02   2.389141e+02
  -3.308139e+01   2.900149e+02
  -2.250101e+02   1.802236e+02
  -3.086826e+02  -6.425887e+01
  -2.440468e+02  -2.437121e+02
  -5.260359e+01  -2.104214e+02
   9.555262e+01  -1.417759e+02
   1.298968e+02  -3.120951e+01
   3.089355e+01   2.727909e+01
  -3.307067e+01  -5.505505e+01
  -1.144063e+01  -1.223152e+02
   1.090610e+02  -5.539400e+01
   1.312632e+02   1.176063e+01
   2.946871e+01   3.367993e+01
  -4.704783e+01  -5.607750e+00
  -3.713615e+01  -9.156709e+01
   1.405681e+02  -8.590356e+01
   2.679613e+02  -1.509907e+00
   2.312263e+02   1.240829e+02
   4.939322e+01   2.623809e+02
  -1.625738e+02   2.256214e+02
  -2.592052e+02   9.893618e+01
  -1.538885e+02  -4.578038e+01
   1.137580e+01  -6.439708e+01
   6.395731e+01   1.428265e+00
  -1.592625e+01   8.869417e+01
  -1.630175e+02   2.766020e+01
  -1.801094e+02  -8.809112e+01
  -5.526943e+01  -1.760088e+02
   5.090285e+01  -1.103074e+02
   1.417035e+02  -4.017214e+01
   6.578625e+01   4.811300e+01
  -4.796713e+01  -7.925423e+00
  -3.010664e+01  -1.192982e+02
   9.354745e+01  -1.144467e+02
   1.971085e+02  -3.531537e+01
   1.530328e+02   1.051225e+02
   2.036181e+01   1.805772e+02
  -1.558706e+02   1.390138e+02
  -1.768630e+02   2.566452e+00
  -6.613749e+01  -8.597733e+01
   4.957274e+01  -9.668434e+01
   7.807134e+01  -2.234462e+01
   1.141763e+01   2.618637e+00
  -3.602517e+01   4.065266e+00
  -3.200772e-01  -1.796081e+01
   5.149815e+01   6.125054e-01
   8.541558e+01   6.518424e+01
   2.776045e+01   1.589548e+02
  -1.221892e+02   1.072360e+02
  -2.122311e+02   1.589287e+01
  -1.532900e+02  -1.367249e+02
  -1.094656e+01  -1.826940e+02
   9.364895e+01  -1.313756e+02
   9.246628e+01   5.117191e+00
   6.469534e+01   4.721813e+01
   2.770607e+01   3.988012e+01
   3.986468e+01  -2.431742e+01
   4.840345e+01  -5.214964e+00
   2.366438e+01   5.145686e+01
  -4.074497e+01   8.963995e+01
  -8.696859e+01   6.663785e+01
  -9.907071e+01  -7.587409e+01
   4.016548e+01  -8.986844e+01
   1.546166e+02  -8.593846e+01
   1.791553e+02   3.383322e+01
   7.227779e+01   1.896170e+02
  -1.240991e+02   2.116541e+02
  -2.059578e+02   8.171947e+01
  -2.232296e+02  -5.075656e+01
  -1.052841e+02  -1.348832e+02
   4.364028e+01  -1.366462e+02
   9.778657e+01  -5.962616e+01
   6.492395e+01  -2.659538e+01
   6.610898e+01  -9.956406e+01
   9.093452e+01  -6.771104e+01
   1.263546e+02   3.448090e+01
   8.301155e+01   1.321573e+02
  -1.234819e+00   2.336728e+02
  -1.002326e+02   1.528443e+02
  -1.457478e+02   1.617558e+01
  -1.337868e+02  -1.090242e+02
   3.941399e+00  -1.584739e+02
   6.846322e+01  -8.746416e+01
   4.154869e+01   2.258259e+01
  -2.242692e+01   6.285646e+01
  -2.730527e+01   5.829284e+01
   2.648011e+01   2.337673e+01
   8.111402e+01   2.429913e+01
   5.688092e+01   2.148810e+01
  -4.864013e+01   2.375456e+01
  -1.335325e+02   1.996048e+01
  -1.344847e+02  -2.118768e+01
   2.414656e+00  -1.019771e+02
   1.040329e+02  -6.034732e+01
   1.427199e+02   1.811275e+00
   3.068493e+01   3.007197e+01
  -8.171235e+01   3.461135e+01
  -6.177931e+01  -6.189594e+00
  -3.985413e+00  -6.805561e+01
   3.681355e+01  -5.467381e+01
   4.319608e+01  -7.826974e+00
   6.578322e+01   1.698360e+01
   4.606810e+01   3.235053e+01
   3.560473e+01   8.367148e+00
   4.979760e+01   1.357636e+01
   2.104819e+01   6.289510e+01
  -2.295767e+01   1.306027e+02
  -1.019313e+02   1.248807e+02
  -1.515126e+02   2.017622e+01
  -1.363086e+02  -8.359111e+01
  -1.081303e+01  -9.714341e+01
   8.199750e+01  -3.584558e+01
   3.658839e+01   3.858254e+01
  -2.165359e+01   2.340985e+01
  -1.059777e+02  -9.947697e+00
  -6.304254e+01  -8.195577e+01
   7.644549e+01  -7.968272e+01
   1.358676e+02  -5.411699e+01
   1.448741e+02   4.288335e+01
   3.456111e+01   7.373553e+01
  -6.253317e+01   5.095469e+01
  -5.539445e+01  -7.055873e+00
   3.993006e+01  -2.862457e+01
   9.180506e+01   2.740533e+01
   3.671775e+01   9.567142e+01
  -4.911103e+01   1.414080e+02
  -1.071511e+02   5.129604e+01
  -1.115051e+02  -7.702153e+01
  -1.387683e+01  -1.555079e+02
   5.423910e+01  -9.614680e+01
   9.122148e+01   1.706316e+01
   4.245449e+01   1.031464e+02
  -9.399674e+00   8.191140e+01
  -4.104344e+01  -2.952676e-01
  -3.883053e+01   3.582438e+00
  -2.810685e+01   1.144409e+01
  -6.787440e-01   2.745209e+01
  -1.216325e+01   2.658077e+00
  -3.202157e+01  -6.625195e+01
  -4.440390e+01  -1.009312e+02
   4.131406e+01  -3.550247e+01
   1.103140e+02   1.816375e+01
   1.199355e+02   7.163045e+01
   7.493660e+00   5.120441e+01
  -7.476191e+01   4.358928e+01
  -6.766732e+01  -9.558034e+00
  -2.357793e+01  -7.959882e+00
   3.987021e+01  -3.953685e+01
   1.951615e+01  -2.048147e+01
  -1.074617e+01   5.428662e+01
   1.695739e+01  -4.212704e+00
   4.320292e+01  -6.296045e-01
   7.785161e+01   2.140946e+01
   3.047115e+00   1.018674e+02
  -9.036614e+01   9.889095e+01
  -1.386109e+02   6.794725e+01
  -1.304242e+02  -6.123788e+01
  -7.363800e+00  -1.572461e+02
   5.342076e+01  -1.520418e+02
   8.352428e+01  -6.494535e+01
   8.130005e+01   1.748648e+00
   1.553550e+01   2.928721e+01
  -2.232571e+01   1.079654e+01
   4.140802e+00  -2.592016e+01
   5.225413e+01   5.088639e+01
   4.281238e+01   9.162000e+01
  -3.355469e+01   5.994029e+01
  -5.482419e+01  -1.766541e+01
  -6.013002e+01  -8.956634e+01
  -1.821793e+01  -8.380993e+01
   5.775831e+01   1.369234e+00
   1.113458e+02   3.327047e+01
   6.613048e+01   8.129232e+01
  -6.519935e+01   3.973102e+01
  -8.534701e+01  -1.889682e+01
  -3.477144e+01  -4.606342e+01
   4.460915e+01  -5.396505e+01
   3.000643e+01  -3.439594e+01
   1.116510e+01  -1.141216e+01
  -3.901413e+01   7.723215e+00
  -3.187331e+01  -3.269847e+01
   5.128621e+01  -6.153714e+01
   1.010017e+02  -7.602397e+01
   7.128784e+01  -1.661554e+01
  -5.051404e+01   1.024322e+02
  -4.200146e+01   7.410672e+01
  -3.902470e+01  -4.649127e+00
   7.480133e+00  -5.990277e+01
   3.851483e+01  -1.642861e+01
   1.582291e+01  -1.399017e+01
   1.187636e+01   6.024702e+01
   1.426668e+01   6.048823e+00
  -3.146586e+01  -6.279549e+00
  -4.354245e+01  -1.309656e+01
  -1.446549e+01  -3.069737e+00
  -7.132578e-01   3.090026e+01
   9.489310e-01   1.863833e+01
   1.147273e+01  -4.149604e+01
  -2.077690e+00  -5.319243e+01
   2.166424e+01   6.182840e+00
   3.263141e+01   3.561101e+01
   3.153449e+01   3.548551e+01
  -5.226243e+01   2.917680e+01
  -3.338526e+01  -5.565455e+01
  -1.213779e+01  -5.594640e+01
   5.382720e+01  -2.890457e+01
   7.867483e+01   1.839074e+01
   3.239241e+01   2.511454e+01
  -3.263477e+01   5.122513e+01
  -7.790545e+01   1.806107e+01
  -2.927204e+01   2.433427e+01
   3.031577e+01  -1.790581e+01
   2.988865e+01   2.605693e+01
  -3.942948e+01  -6.374627e+00
  -7.603880e+01   6.702269e+00
