
 $NMID
 id='ANONYMOUS ', fmtdat='(2E16.6)'
 volume=1.0
 tramp=1.0
 $END
   4.456591e+03   5.940454e+01
   2.319779e+03   2.647039e+03
  -8.621531e+02   2.737104e+03
  -2.269049e+03   8.543810e+02
  -9.798655e+02  -5.496195e+02
   6.811681e+02  -7.503769e+02
   8.799391e+02   5.020785e+02
   1.941235e+00   1.024122e+03
  -8.115736e+02   7.869684e+02
  -8.855623e+02  -1.448023e+02
  -4.109146e+02  -9.395569e+02
   2.212239e+02  -8.670219e+02
   6.835629e+02  -5.690102e+01
   3.475910e+02   7.658428e+02
  -2.401144e+02   7.503030e+02
  -4.976781e+02  -2.499628e+01
  -2.678183e+02  -6.846180e+02
   2.706407e+02  -6.624140e+02
   5.935443e+02  -1.255071e+02
   3.905334e+02   3.832373e+02
   2.292934e+01   4.017869e+02
  -2.825113e+02   2.624692e+02
  -2.387662e+02  -1.018030e+01
   1.055581e+02  -8.486342e+01
   4.317970e+02   1.534605e+02
   2.449541e+02   4.754651e+02
  -4.611959e+02   4.125058e+02
  -9.165197e+02  -5.889129e+01
  -4.191099e+02  -5.446339e+02
   3.953824e+02  -4.602776e+02
   7.294231e+02   8.586266e+01
   3.294304e+02   4.721569e+02
  -3.069642e+02   4.821341e+02
  -6.307040e+02   1.635235e+02
  -4.550940e+02  -2.817740e+02
  -7.536946e+01  -4.828628e+02
   2.150699e+02  -3.265708e+02
   1.626328e+02   2.402298e+02
  -2.107254e+02   4.648933e+02
  -4.409910e+02  -3.134149e+01
  -2.137834e+02  -7.129067e+02
   3.592328e+02  -6.853912e+02
   5.201626e+02   9.883332e+01
   2.611993e+02   5.630694e+02
  -2.818576e+02   2.993857e+02
  -3.501906e+02  -3.450469e+02
   6.910920e+01  -5.727116e+02
   5.933587e+02  -1.357458e+02
   6.230526e+02   4.173440e+02
   1.533577e+02   6.000554e+02
  -3.813137e+02   3.672713e+02
  -6.262989e+02  -5.606489e+01
  -3.566721e+02  -3.610841e+02
   1.767128e+02  -3.737861e+02
   4.493497e+02  -7.088183e+01
   2.116709e+02   1.709112e+02
  -1.417144e+02   1.163740e+02
  -1.181204e+02  -1.071911e+02
   1.436009e+02  -1.947240e+02
   3.806983e+02   6.511354e+01
   1.279338e+02   3.015402e+02
  -2.245114e+02   2.719638e+02
  -3.025381e+02   8.695673e+01
  -2.445153e+02  -8.734554e+01
   3.364529e+01  -2.565997e+02
   2.695313e+02  -2.900569e+02
   3.235549e+02  -2.367118e+02
   3.126409e+02   1.764585e+02
   1.158280e+02   3.990370e+02
  -1.181684e+02   3.756009e+02
  -1.265616e+02   1.637928e+02
  -5.440101e+01  -4.771894e-01
  -4.380557e+01   9.961175e+01
  -2.201485e+02   1.429013e+02
  -2.899425e+02  -6.264998e+01
  -1.548511e+02  -2.698803e+02
   7.565609e+01  -2.742367e+02
   2.385572e+02  -5.812335e+00
   2.091339e+02   2.397157e+02
  -1.034293e+01   3.028258e+02
  -2.751189e+02   9.283742e+01
  -3.718162e+02  -1.617306e+02
  -2.008840e+02  -3.671123e+02
   1.314429e+02  -2.713878e+02
   2.050443e+02  -1.518169e+02
   1.679540e+02   2.422578e+00
   1.012197e+02  -1.777011e+01
   2.294684e+02  -5.308875e+01
   3.753571e+02   6.815006e+01
   3.005418e+02   3.168971e+02
   1.014336e+01   4.714668e+02
  -4.090473e+02   4.262211e+02
  -4.915383e+02   1.904747e+02
  -3.175157e+02  -1.003354e+02
  -5.038658e+01  -2.822685e+02
   1.564279e+02  -2.602213e+02
   8.022035e+01  -2.351192e+01
  -1.123949e+02   5.968831e+01
  -2.100269e+02  -2.212284e+01
  -7.613882e+01  -1.796759e+02
   2.004759e+02  -1.599675e+02
   2.071642e+02   5.755043e+01
  -2.907757e+01   1.968652e+02
  -1.653750e+02   3.842645e+01
  -1.572509e+02  -2.799541e+02
   6.518080e+01  -3.210053e+02
   2.543864e+02  -1.954608e+02
   2.930230e+02   6.267668e+01
   2.924495e+02   2.592383e+02
   8.734260e+01   2.900232e+02
  -1.088492e+02   1.351847e+02
  -1.586917e+02   1.865717e+01
  -5.265769e+01  -3.018880e+01
   5.069334e+01   5.061565e+01
   3.020377e+01   1.168564e+02
  -1.200136e+02   1.110836e+02
  -1.792653e+02  -1.552309e+00
  -5.942324e+01  -7.932058e+01
   8.174638e+01  -2.359031e+01
   6.362180e+01   7.299914e+01
  -1.316861e+02   6.830526e+01
  -3.085247e+02   3.015273e+01
  -2.610957e+02  -1.487812e+02
  -6.077230e+01  -2.807786e+02
   1.601257e+02  -2.555973e+02
   2.628298e+02  -1.086886e+02
   1.496559e+02   5.822229e+01
  -2.416768e+01   8.612036e+01
  -8.967646e+01  -1.806702e+01
   6.047217e+01  -9.856114e+01
   1.827584e+02  -8.106646e+01
   2.099630e+02   9.706919e+01
   7.340013e+01   2.299932e+02
  -8.980005e+01   1.453627e+02
  -1.528511e+02   4.003337e+01
  -9.838423e+01  -3.128692e+01
   1.236684e+01  -1.295539e+01
   4.875232e+01   1.073206e+02
  -6.219038e+01   1.071034e+02
  -1.860773e+02   5.447161e+01
  -2.128762e+02  -1.410893e+02
  -1.631706e+01  -2.223733e+02
   1.894785e+02  -1.423097e+02
   2.133520e+02  -1.340946e+01
   4.263045e+01   8.649213e+01
  -8.754655e+01   1.300434e+02
  -8.104817e+01   5.772543e+01
   1.269481e+00  -3.505653e+01
   1.485969e+01  -1.432899e+01
  -1.964701e+01   7.699098e+00
  -4.754578e+01  -3.794199e+01
  -7.689858e+01  -1.049693e+02
   2.729735e-01  -1.540830e+02
   1.351176e+02  -1.701587e+02
   2.285653e+02  -4.062152e+01
   1.885747e+02   1.341035e+02
   5.870358e+01   2.364723e+02
  -1.205055e+02   1.501707e+02
  -1.354874e+02   4.399486e+01
  -8.097480e+01  -5.317772e+01
  -3.029062e+01  -3.494648e+01
  -4.527086e+01   1.930026e+01
  -8.938967e+01   6.268213e+00
  -2.556659e+01  -5.555639e+01
   6.845014e+00  -1.025977e+02
   1.104435e+02  -6.518142e+01
   8.371042e+01   3.171695e+01
   4.160946e+00   1.039121e+02
  -1.380428e+02   1.121704e+02
  -1.905087e+02  -2.826957e+01
  -1.058886e+02  -1.953696e+02
   1.022344e+02  -2.081445e+02
   2.753561e+02  -8.680975e+01
   2.327699e+02   7.711864e+01
   1.054859e+02   1.656331e+02
  -6.471811e+01   1.348998e+02
  -9.910697e+01   8.908745e+01
  -9.439393e+01   8.320686e+01
  -8.058290e+01   7.545819e+01
  -8.408817e+01   6.822705e+01
  -1.209104e+02  -2.900082e+00
  -1.396842e+02  -1.589633e+02
  -2.365238e+01  -2.424008e+02
   1.107306e+02  -1.506716e+02
   1.625974e+02  -3.890393e+00
   1.497174e+02   1.263202e+02
   2.022093e+00   1.621954e+02
  -7.690997e+01   1.073580e+02
  -4.768245e+01   9.796572e+00
  -1.471258e+01  -2.916311e+01
  -1.755385e+01  -5.375725e+01
  -3.316202e+01  -2.863117e+01
  -8.005770e+01  -4.478706e+01
  -3.938930e+01  -4.773089e+01
   5.897995e+01  -3.799727e+01
   1.523923e+02   4.023342e+00
   1.302517e+02   7.503936e+01
   2.466497e+01   7.035633e+01
  -1.405497e+02   8.899207e+01
  -1.329358e+02   1.577350e+01
  -4.486407e+01  -4.215600e+01
   6.157018e+01  -5.252613e+01
   6.902111e+01   1.145717e+01
   2.434922e+01   4.050244e+01
  -5.271068e+01   4.325272e+01
  -5.903163e+01  -1.529448e+01
  -4.573983e+01  -2.714596e+01
  -5.477000e+01  -5.798081e+01
  -6.387937e+01  -1.936964e+01
  -7.787215e+01  -1.600066e+01
  -3.386006e+01  -6.452256e+01
   3.247608e+01  -1.304083e+02
   1.311231e+02  -1.672880e+02
   2.037400e+02  -4.055676e+01
   1.044877e+02   1.037223e+02
  -4.937424e+00   1.350528e+02
  -1.103017e+02   5.021103e+01
  -8.482601e+01  -2.314931e+01
   7.088496e+01  -1.746871e+01
   1.412417e+02   2.745705e+01
   4.981841e+01   1.202115e+02
  -1.097388e+02   1.167710e+02
  -2.108528e+02   3.562964e+01
  -2.005394e+02  -5.014245e+01
  -5.068207e+01  -1.082481e+02
   4.718740e+01  -9.886240e+01
   4.557341e+01  -1.224939e+00
  -3.347033e+01   9.796758e+00
  -8.148698e+01  -2.056715e+01
  -4.934511e+01  -1.267179e+02
   7.570214e+01  -1.446573e+02
   1.671253e+02  -3.778180e+01
   8.756431e+01   8.619769e+01
  -1.357888e+00   1.972740e+02
  -9.846443e+01   1.547965e+02
  -1.290223e+02  -9.557002e+00
  -4.735721e+01  -1.300146e+02
  -1.680004e+01  -1.197641e+02
   1.927029e+01  -2.489272e+01
   4.772901e+01   3.460559e+01
   4.122137e+01   1.534303e+01
   1.648285e+01   5.291272e+00
   4.330964e+00  -5.849591e-01
   4.556875e+01   7.297826e+01
   6.410134e+01   1.160845e+02
  -5.289983e+01   5.223634e+01
  -1.454336e+02  -4.412263e+01
  -1.360642e+02  -5.648033e+01
  -7.218253e+00  -6.450202e+01
   7.927185e+01  -2.203061e+01
   8.800200e+01  -2.095312e+01
   3.091022e+01   1.737081e+01
  -3.160652e+01   1.594256e+01
  -3.672704e+01   1.675734e+01
   1.100220e+01   3.416041e+00
  -2.242347e+01  -1.195655e+01
  -7.094377e+01   3.329139e-01
  -7.560879e+01  -9.989904e+00
  -1.744181e+01  -8.589314e+01
   1.206386e+02  -1.146950e+02
   1.767149e+02  -5.735868e+01
   1.193942e+02   5.360559e+01
   8.149666e+00   1.441622e+02
  -8.729858e+01   1.477673e+02
  -1.161599e+02   4.795552e+01
  -9.832284e+01  -3.601034e+01
  -7.869768e+00  -4.274123e+01
   2.230744e+01  -3.713124e+01
  -6.655958e+00   4.957209e+00
  -4.928602e+01  -6.363808e+01
  -2.151339e+01  -9.271969e+01
   3.180039e+01  -5.652259e+01
   8.027257e+01   3.093891e+01
   8.138638e+01   1.113073e+02
  -3.741181e+00   1.241354e+02
  -7.830639e+01   4.330539e+01
  -8.177751e+01  -5.361858e+01
  -2.530891e+01  -9.854318e+01
   5.731694e+01  -6.819151e+01
   9.447097e+01   3.500664e+00
   1.084277e+01   5.315081e+01
  -1.572073e+01   4.375898e+01
  -5.940637e-01   1.075388e+01
   2.990056e+01  -1.271409e+01
   6.247995e+01  -8.404865e+00
   9.857532e+00   6.039562e+00
  -9.246532e+01   6.870380e+01
  -1.026977e+02   6.037904e+01
  -4.484735e+01  -1.106122e+01
   2.279917e+01  -7.505880e+01
   5.673172e+01  -8.017154e+01
   2.358880e+01  -3.146789e+01
   7.403253e+00   3.333986e+01
  -2.582273e+01   3.665722e+01
  -5.655496e+01  -1.957360e+01
  -1.131943e+01  -5.657569e+01
   1.169190e+01  -3.622891e+01
   3.046596e+01  -3.036492e+00
   2.970761e+01   3.794308e+01
   5.036691e+01   1.014820e+00
   1.023855e+00  -3.396875e+01
  -6.015550e+00  -7.362758e+00
  -1.433472e+01   2.225196e+01
  -1.212819e+01   3.364416e+01
  -2.064169e+01  -2.846206e+01
  -1.398045e+01  -6.563284e+01
  -2.987681e+01  -6.910349e+01
   4.506453e+01  -2.394065e+01
   6.261637e+01   2.370557e+01
   1.291788e+01   6.842006e+01
  -3.960092e+01   3.871349e+01
  -1.229992e+02  -1.654027e+01
  -7.736751e+01  -5.591449e+01
   4.044244e+01  -4.775574e+01
   7.490641e+01  -2.106161e+01
   2.901262e+01   1.041535e+01
  -4.764742e+01  -3.256811e+01
  -5.352499e+01  -1.818769e+01
   4.367202e+01  -2.888156e+01
   8.502045e+01  -9.735797e+00
