
 $NMID
 id='ANONYMOUS ', fmtdat='(2E16.6)'
 volume=1.0
 tramp=1.0
 $END
   3.593657e+03   2.849315e+02
   2.170765e+03   2.252580e+03
  -2.370216e+02   2.335964e+03
  -1.553963e+03   1.169265e+03
  -1.034886e+03  -1.277336e+02
   1.596922e+02  -1.623350e+02
   4.678427e+02   2.864182e+02
   8.819928e+01   6.723732e+02
  -5.184127e+02   6.746276e+02
  -7.816674e+02   7.060595e+00
  -4.949771e+02  -6.698415e+02
   2.986142e+01  -7.639417e+02
   4.144242e+02  -1.981916e+02
   2.857638e+02   4.308830e+02
  -1.941984e+02   5.726687e+02
  -5.216740e+02   1.031394e+02
  -3.028931e+02  -5.932123e+02
   2.266453e+02  -6.545794e+02
   5.341734e+02  -2.173835e+02
   4.014107e+02   2.195454e+02
   1.156548e+02   4.000979e+02
  -1.614824e+02   2.484977e+02
  -1.384481e+02   4.921630e+01
   1.557338e+02   5.766311e+01
   3.428463e+02   2.987621e+02
   3.131878e+01   3.907913e+02
  -4.726496e+02   2.445672e+02
  -7.230402e+02  -1.552977e+02
  -3.218210e+02  -3.410733e+02
   3.569163e+02  -2.673122e+02
   5.498214e+02   7.592758e+01
   2.464494e+02   3.563683e+02
  -3.096390e+02   3.863329e+02
  -4.890742e+02   1.181846e+02
  -3.350784e+02  -1.859506e+02
  -5.477122e+01  -3.810046e+02
   5.280294e+01  -2.550496e+02
   1.779247e+01   5.036466e+01
  -2.320823e+02   2.127051e+02
  -2.739540e+02  -8.168593e+01
  -1.065712e+02  -5.908994e+02
   2.832706e+02  -5.211564e+02
   3.732837e+02  -3.952673e+01
   1.566662e+02   3.223276e+02
  -1.611150e+02   1.759893e+02
  -2.748044e+02  -2.843181e+02
   1.239774e+02  -3.967363e+02
   4.662631e+02  -6.782030e+01
   4.934461e+02   4.149206e+02
   1.581502e+02   5.248847e+02
  -2.862227e+02   3.039725e+02
  -5.584054e+02  -1.041133e+02
  -3.896673e+02  -2.772632e+02
   1.269701e+02  -2.662394e+02
   3.307514e+02  -8.078417e+01
   2.320814e+02   7.575294e+01
  -2.491951e+01   7.259001e+01
  -1.251539e+02  -4.859590e+01
   1.017721e+02  -8.143490e+01
   2.757786e+02   2.012288e+01
   9.950557e+01   2.433917e+02
  -1.630145e+02   2.566305e+02
  -3.139792e+02   1.049694e+02
  -2.489587e+02  -8.131201e+01
   1.642611e+01  -2.934196e+02
   2.940570e+02  -3.035615e+02
   3.585953e+02  -2.141716e+02
   2.975108e+02   1.890620e+02
   1.036048e+02   3.946048e+02
  -7.741962e+01   3.496963e+02
  -6.182271e+01   1.610996e+02
  -3.577119e+01   7.724975e+01
  -1.295917e+02   1.174448e+02
  -2.425839e+02   8.612798e+01
  -2.275325e+02  -1.130312e+02
  -1.116726e+02  -2.724261e+02
   9.032282e+01  -2.040317e+02
   1.982819e+02   5.955515e+01
   1.463472e+02   2.836363e+02
  -6.211857e+01   2.261740e+02
  -2.685292e+02   3.219509e+01
  -3.499130e+02  -1.956476e+02
  -1.505048e+02  -3.068439e+02
   8.705514e+01  -2.741120e+02
   2.031554e+02  -1.449713e+02
   1.606406e+02  -6.362896e+01
   1.449100e+02  -5.860851e+01
   2.712416e+02  -1.640494e+01
   3.760966e+02   1.196611e+02
   3.030318e+02   3.117158e+02
  -5.257715e+01   4.936742e+02
  -4.230888e+02   3.663499e+02
  -4.941389e+02   1.435353e+02
  -2.978660e+02  -1.271535e+02
  -5.467343e+00  -2.620849e+02
   9.771477e+01  -2.253419e+02
   9.587681e+00  -5.141699e+01
  -1.199399e+02   5.227684e+01
  -1.166558e+02  -2.627755e+01
   7.658771e+00  -1.318464e+02
   1.702647e+02  -1.361762e+02
   1.212094e+02   5.350608e+01
  -1.023421e+01   1.322493e+02
  -1.589455e+02   6.170501e+00
  -1.633654e+02  -2.609884e+02
   1.811829e+01  -3.374228e+02
   2.445901e+02  -1.756251e+02
   3.644623e+02   8.650328e+01
   2.706359e+02   2.702141e+02
   3.432759e+01   2.598695e+02
  -9.094771e+01   1.493401e+02
  -1.548074e+02   1.052252e+01
  -4.153681e+01  -6.580503e+00
   6.335399e+01   4.514215e+01
   1.128033e+01   1.177402e+02
  -1.307735e+02   8.754081e+01
  -1.597263e+02  -3.069660e+01
  -4.191315e+01  -6.457273e+01
   9.097361e+01   8.241514e+00
   5.288828e+01   1.031384e+02
  -1.393124e+02   7.995259e+01
  -3.036570e+02  -3.328699e+01
  -2.755731e+02  -1.993228e+02
  -2.311315e+01  -2.412058e+02
   1.797790e+02  -2.112772e+02
   2.744686e+02  -1.088106e+02
   1.558206e+02   2.141310e+01
  -3.404754e+01   9.614303e+01
  -8.090500e+01  -1.685707e+01
   3.667856e+01  -1.016042e+02
   1.599384e+02  -5.255950e+01
   1.986636e+02   1.095639e+02
   4.718610e+01   1.664418e+02
  -1.175235e+02   1.335544e+02
  -1.125335e+02   3.264754e+01
  -5.060518e+01  -5.698701e+01
   2.587717e+01   4.983500e+01
   2.953240e+01   9.218289e+01
  -8.763090e+01   1.137361e+02
  -1.998022e+02  -7.733227e-01
  -1.689965e+02  -1.549511e+02
   1.042846e+01  -2.105278e+02
   1.844752e+02  -1.743709e+02
   1.810525e+02   1.064841e+01
   6.576059e+01   9.132597e+01
  -6.487616e+01   6.900170e+01
  -7.419441e+01  -1.780606e-01
   3.202693e+00  -4.243800e+01
   4.652947e+01   3.197195e+00
  -1.010125e+01   1.179824e+01
  -9.086992e+01  -2.115097e+01
  -1.282321e+02  -9.887644e+01
   1.863765e+01  -1.868293e+02
   1.666447e+02  -1.527158e+02
   2.226117e+02  -1.228592e-01
   1.788092e+02   1.762908e+02
   3.106601e+01   2.236826e+02
  -1.398979e+02   1.474102e+02
  -1.050284e+02  -1.857691e+01
  -8.843137e+01  -6.237160e+01
  -3.314779e+01  -3.151629e+01
  -6.413465e+01   3.444899e+00
  -9.156897e+01   2.012808e+01
  -2.934323e+01  -4.320522e+01
   6.011711e+01  -9.199546e+01
   1.535575e+02  -6.746369e+01
   1.115466e+02   3.880902e+01
  -1.485435e+01   1.058892e+02
  -1.692655e+02   7.725444e+01
  -1.874211e+02  -6.783007e+01
  -8.767368e+01  -2.045297e+02
   1.194392e+02  -2.395162e+02
   2.665778e+02  -7.972460e+01
   2.387755e+02   1.051534e+02
   9.766387e+01   1.724971e+02
  -2.722510e+01   1.514649e+02
  -1.280906e+02   9.777770e+01
  -6.309113e+01   6.801389e+01
  -5.573159e+01   8.170068e+01
  -9.809794e+01   1.063748e+02
  -1.256893e+02   1.146322e+01
  -9.899649e+01  -1.922680e+02
   1.000488e+00  -2.578849e+02
   1.136228e+02  -1.694921e+02
   1.615431e+02   1.334147e+01
   1.337078e+02   1.368578e+02
   1.042312e+01   1.593823e+02
  -9.817130e+01   8.473200e+01
  -6.637559e+01  -1.323048e+01
  -1.004067e+01  -6.098399e+01
  -7.218588e+00  -3.003342e+01
   4.255832e+00  -4.229972e+01
  -9.641873e+01  -3.824033e+01
  -4.279399e+01  -4.099492e+01
   4.910302e+01  -7.787394e+01
   1.505994e+02   1.496151e+01
   1.377777e+02   6.168636e+01
   3.836208e+01   8.964993e+01
  -1.386483e+02   9.301641e+01
  -1.403469e+02  -7.747027e-01
  -5.594420e+01  -3.544652e+01
   6.956429e+01  -4.401446e+01
   1.085988e+02   2.967666e+01
   2.353650e+01   9.111844e+01
  -5.807416e+01   8.100089e+01
  -5.689184e+01   3.953174e+01
  -7.019304e+01  -7.058694e+01
  -4.866138e+01  -3.153371e+01
  -3.818470e+01  -1.826670e+01
  -6.918336e+01  -5.395402e+00
  -5.213036e+01  -7.761242e+01
   2.364944e+01  -1.435423e+02
   1.308952e+02  -1.220963e+02
   1.937243e+02  -1.462535e+01
   1.592975e+02   1.361809e+02
   9.724248e+00   1.174772e+02
  -1.078671e+02   5.132846e+01
  -6.700056e+01  -1.868698e+01
   6.002421e+01   5.988373e+00
   1.481138e+02   4.537508e+01
   6.440850e+01   1.170360e+02
  -1.097922e+02   1.077906e+02
  -2.082949e+02   3.383315e+01
  -1.524614e+02  -3.814917e+01
  -4.641586e+01  -6.459978e+01
   9.614019e+01  -8.721108e+01
   6.065747e+01  -3.083129e+01
  -2.603263e+01   3.244130e+01
  -9.006174e+01  -2.669501e+01
  -4.180934e+01  -1.172291e+02
   8.429096e+01  -1.517619e+02
   1.668522e+02  -4.066899e+01
   1.537956e+02   8.915475e+01
  -4.862965e+00   2.000326e+02
  -9.380597e+01   1.547684e+02
  -8.748484e+01  -5.328551e+00
  -4.335728e+01  -1.213182e+02
   4.186368e+01  -9.946121e+01
   5.563784e+01  -1.022761e+01
   3.630161e+01   3.053184e+01
  -1.701363e+00   4.032534e+01
  -3.642426e+01  -2.260498e+01
   2.709976e+01   1.983832e+01
   4.717381e+01   9.423508e+01
   4.779509e+01   1.269414e+02
  -1.964157e+01   5.256215e+01
  -1.305202e+02  -4.789106e+01
  -1.361856e+02  -6.678192e+01
   2.654157e+00  -7.633129e+01
   9.878009e+01  -1.661318e+01
   8.525066e+01  -3.285808e+01
   6.446724e+00   1.571232e+01
  -6.071183e+01   3.933212e+00
  -3.745402e+01   1.548811e+01
   3.123048e+01   1.532051e+01
   9.821730e+00  -1.610334e+01
  -7.520240e+01   1.382244e+01
  -9.398247e+01  -2.233056e+01
  -2.766713e+01  -9.726126e+01
   1.214359e+02  -1.369405e+02
   2.153091e+02  -4.528414e+01
   1.556073e+02   6.089542e+01
   2.793204e+01   1.842345e+02
  -1.107000e+02   1.548421e+02
  -1.267660e+02   5.775130e+01
  -9.939253e+01  -3.865740e+01
  -4.929688e+01  -4.004829e+01
   1.727838e+00  -1.689109e+00
  -4.469761e+01  -7.589638e+00
  -3.758105e+01  -4.932949e+01
  -2.173175e+01  -7.888338e+01
   2.788852e+01  -1.003506e+02
   8.100477e+01   1.035841e+01
   7.923776e+01   9.203500e+01
  -3.306892e-01   1.235098e+02
  -7.336700e+01   2.626609e+01
  -1.032662e+02  -6.753673e+01
  -2.869453e+01  -1.197736e+02
   7.504290e+01  -6.560892e+01
   1.155629e+02   1.143205e+01
   4.138791e+01   6.076326e+01
  -2.814322e+01   4.353644e+01
  -2.625237e+01   2.510037e+01
   2.155762e+01  -5.755292e+00
   7.325601e+01   2.292696e+01
   4.254563e+01   2.060151e+01
  -1.206122e+02   6.467064e+01
  -1.251074e+02   4.314453e+01
  -8.650202e+01  -3.794497e+01
   3.943453e+01  -8.266197e+01
   5.943235e+01  -6.101672e+01
   4.894932e+01  -1.611725e+01
   7.848827e+00   5.478164e+01
   1.174677e+01   4.582299e+01
  -5.480309e+01  -2.552218e+01
  -2.012894e+01  -5.878315e+01
   7.519517e+00  -6.418176e+01
   4.930491e+01   1.719804e+01
   3.262107e+01   7.419345e+00
   3.514681e+01  -3.620478e+01
  -7.643322e+00  -9.254949e-02
   1.120488e+01  -2.116489e+01
  -3.867083e+00   4.745651e+01
  -1.759861e+00   5.743453e+01
  -3.653665e+01   1.416153e+01
  -5.048953e+01  -2.791419e+01
   5.396723e+00  -6.805633e+01
   6.896081e+01  -1.421458e+01
   8.305160e+01   2.852473e+01
   1.004344e+01   4.671219e+01
  -4.433734e+01   3.459017e+01
  -1.059404e+02  -2.487772e+01
  -4.652068e+01  -5.951382e+01
   4.163420e+01  -5.779848e+01
   5.932002e+01  -5.114623e+01
   2.857166e+01   2.553410e+00
  -5.366758e+01   1.023539e+01
  -3.230133e+01  -1.700452e+01
  -9.458507e+00  -1.314540e+01
   8.543192e+01  -1.386106e+01
