
 $NMID
 id='ANONYMOUS ', fmtdat='(2E16.6)'
 volume=1.0
 tramp=1.0
 $END
   3.259134e+03  -2.869188e+02
   2.241835e+03   1.935939e+03
  -2.675886e+02   2.276373e+03
  -1.364359e+03   1.053271e+03
  -8.929905e+02   4.076844e+01
   2.066170e+02  -4.297972e+02
   5.020152e+02   1.756834e+02
  -2.741141e+00   7.710611e+02
  -5.229938e+02   6.190295e+02
  -7.741995e+02  -3.123778e+01
  -4.183709e+02  -6.739667e+02
   1.656311e+02  -7.142863e+02
   4.276812e+02  -1.882568e+02
   2.595005e+02   5.271713e+02
  -1.519915e+02   6.128313e+02
  -4.828125e+02  -1.203393e+01
  -2.843038e+02  -5.499494e+02
   2.234157e+02  -5.543184e+02
   4.873351e+02  -2.350747e+02
   4.483696e+02   2.071346e+02
   9.955788e+01   3.707358e+02
  -1.692797e+02   2.345310e+02
  -1.179548e+02   4.586785e+01
   1.347619e+02   3.507817e+01
   2.918597e+02   2.201923e+02
   5.244279e+01   3.692365e+02
  -5.082757e+02   1.893233e+02
  -5.883140e+02  -1.781313e+02
  -2.980081e+02  -4.304949e+02
   3.411454e+02  -2.878504e+02
   6.191823e+02   2.627289e+01
   2.896343e+02   3.650792e+02
  -2.815931e+02   3.822679e+02
  -4.857609e+02   1.643763e+02
  -3.814712e+02  -1.519101e+02
  -1.029583e+02  -3.768361e+02
   8.827611e+01  -1.808682e+02
   3.928108e+01   1.312851e+02
  -2.256746e+02   2.181860e+02
  -2.801247e+02  -1.947032e+02
  -8.035041e+01  -5.832489e+02
   2.158891e+02  -5.495898e+02
   4.626517e+02   1.627069e+01
   1.831625e+02   3.625055e+02
  -2.006823e+02   2.117141e+02
  -2.706802e+02  -3.000568e+02
   1.042012e+02  -4.155512e+02
   4.952703e+02  -1.081865e+02
   4.881901e+02   3.501455e+02
   1.109426e+02   5.409483e+02
  -3.730920e+02   2.939718e+02
  -5.659425e+02  -1.265768e+02
  -2.956579e+02  -3.130498e+02
   8.071487e+01  -2.818893e+02
   3.161803e+02  -1.022076e+02
   2.068140e+02   8.893141e+01
   8.052237e+00   5.626818e+01
  -8.671183e+01  -9.692523e+01
   1.330366e+02  -9.809853e+01
   2.834123e+02   7.502258e+01
   1.474765e+02   2.520344e+02
  -1.807926e+02   2.610566e+02
  -3.074676e+02   1.237657e+02
  -2.339424e+02  -1.069355e+02
   3.316093e+01  -3.017574e+02
   2.163104e+02  -3.410519e+02
   3.861864e+02  -1.945257e+02
   2.300416e+02   1.618468e+02
   5.338896e+01   3.578825e+02
  -5.497817e+01   3.355836e+02
  -4.329878e+01   1.078695e+02
  -3.448543e+01   6.420717e+01
  -8.130443e+01   1.345924e+02
  -2.336056e+02   9.034794e+01
  -2.541812e+02  -1.215157e+02
  -1.077024e+02  -2.212269e+02
   1.167080e+02  -1.945373e+02
   2.183203e+02   7.256811e+01
   1.647572e+02   2.459282e+02
  -9.437388e+01   2.779909e+02
  -2.329529e+02   5.623413e+01
  -2.926237e+02  -1.769213e+02
  -1.590404e+02  -3.132020e+02
   5.850449e+01  -2.715767e+02
   1.805996e+02  -1.524864e+02
   1.269790e+02  -5.893623e+01
   1.451762e+02  -5.173751e+01
   2.505793e+02  -3.965398e+01
   3.928514e+02   8.830247e+01
   3.146345e+02   2.725941e+02
  -1.929170e+01   4.202844e+02
  -3.933565e+02   4.159102e+02
  -4.660331e+02   2.002111e+02
  -2.925854e+02  -1.092683e+02
  -1.962434e+01  -2.591807e+02
   1.192332e+02  -2.251145e+02
   3.813909e+01  -1.069290e+01
  -1.149042e+02   5.073915e+01
  -1.149563e+02  -4.985399e+01
  -1.705178e+01  -1.716172e+02
   1.082554e+02  -8.786170e+01
   1.251624e+02   4.737445e+01
  -3.768358e+01   1.668266e+02
  -1.660810e+02  -2.699102e+01
  -1.294956e+02  -2.279450e+02
   2.686926e+01  -3.163842e+02
   2.511459e+02  -2.018752e+02
   3.225286e+02   9.090888e+01
   2.699188e+02   2.648979e+02
   6.492166e+01   2.631454e+02
  -1.139330e+02   1.414937e+02
  -1.665094e+02  -5.367951e+00
  -2.210999e+01  -3.067325e+01
   7.544002e+01   5.313480e+01
  -5.235712e+00   1.316095e+02
  -1.215695e+02   6.570329e+01
  -1.650226e+02  -4.406228e+01
  -6.378501e+01  -7.429867e+01
   1.015065e+02  -1.322818e+01
   4.373430e+01   1.052681e+02
  -1.288071e+02   9.180997e+01
  -2.925402e+02  -1.320843e+01
  -2.525263e+02  -1.678693e+02
   1.132038e+00  -2.820708e+02
   2.005295e+02  -2.050927e+02
   3.139867e+02  -7.696084e+01
   1.547055e+02   6.646778e+01
  -5.621435e+01   7.468691e+01
  -5.729400e+01  -2.247646e+01
   2.289841e+01  -7.298184e+01
   1.844842e+02  -5.307248e+01
   1.958745e+02   1.040545e+02
   4.909579e+01   2.058384e+02
  -7.630893e+01   1.384586e+02
  -1.674227e+02   2.000388e+01
  -8.236657e+01  -5.524174e+01
   4.696296e+01   3.615041e+01
   4.142555e+01   1.059982e+02
  -8.932716e+01   1.311163e+02
  -2.144618e+02   3.836815e+01
  -2.030884e+02  -1.473682e+02
  -1.524514e+01  -1.969332e+02
   1.579975e+02  -1.603329e+02
   1.788108e+02   1.115332e+01
   7.291263e+01   1.117849e+02
  -7.925449e+01   9.910695e+01
  -9.719523e+01   2.129321e+01
  -2.607836e+01  -1.009128e+01
   2.785548e+01  -5.912137e+00
  -2.730724e+01   2.705237e+01
  -9.146957e+01   1.282997e+00
  -9.759057e+01  -6.652513e+01
   5.842179e+00  -1.469228e+02
   1.380923e+02  -1.672280e+02
   2.310102e+02  -3.031831e+01
   1.823556e+02   1.934592e+02
   3.071364e+00   2.536681e+02
  -1.135261e+02   1.620160e+02
  -1.129712e+02   5.051445e+01
  -6.043740e+01  -4.653169e+01
  -1.593106e+01  -1.812909e+01
  -5.718811e+01   5.079208e+00
  -8.266026e+01   1.669035e+00
  -2.085033e+01  -3.161605e+01
   1.224676e+01  -9.194432e+01
   1.327365e+02  -6.527793e+01
   1.255750e+02   2.912712e+01
  -3.045930e+01   1.215313e+02
  -1.592937e+02   1.046966e+02
  -2.246715e+02  -5.033224e+01
  -8.248250e+01  -2.215394e+02
   9.704415e+01  -2.469178e+02
   2.626539e+02  -5.291269e+01
   2.430507e+02   7.887017e+01
   7.640996e+01   1.537688e+02
  -2.038224e+01   1.248400e+02
  -8.121219e+01   7.383829e+01
  -5.439494e+01   7.592757e+01
  -6.646541e+01   8.051174e+01
  -8.853046e+01   8.737803e+01
  -1.252203e+02  -1.717006e+01
  -1.018009e+02  -1.604787e+02
  -3.008587e+01  -2.388691e+02
   1.024751e+02  -1.660141e+02
   1.649237e+02  -4.160913e+00
   1.295728e+02   1.181708e+02
   2.044650e+01   1.777794e+02
  -8.901932e+01   7.585190e+01
  -6.119159e+01   1.169168e+01
  -5.710174e+00  -6.633435e+01
   1.297930e+01  -2.391075e+01
  -2.403176e+00  -5.821796e+00
  -7.461383e+01  -2.694151e+01
  -2.958979e+01  -3.674142e+01
   6.780507e+01  -5.618346e+01
   1.993782e+02  -2.973543e+00
   1.686352e+02   5.960402e+01
   1.425523e+00   9.903477e+01
  -1.385631e+02   7.032326e+01
  -1.624717e+02   4.484879e+00
  -4.728780e+01  -5.467338e+01
   5.273359e+01  -3.738780e+01
   8.439443e+01   1.924141e+01
   1.724628e+01   7.734886e+01
  -6.085541e+01   4.689172e+01
  -6.175779e+01   2.072327e+01
  -5.999946e+01  -4.024517e+01
  -3.198350e+01  -3.396283e+01
  -4.695405e+01  -6.410870e+00
  -6.322632e+01  -4.525282e+00
  -3.534223e+01  -6.562071e+01
   2.254798e+01  -1.182195e+02
   1.367720e+02  -1.369662e+02
   1.723569e+02  -9.547960e+00
   1.571547e+02   8.582535e+01
   4.912389e+00   1.389425e+02
  -8.118652e+01   6.613075e+01
  -8.123587e+01  -3.066207e+01
   7.527194e+01  -3.097958e+00
   1.332340e+02   4.330955e+01
   7.287138e+01   9.796553e+01
  -8.161109e+01   9.778387e+01
  -1.841227e+02   3.641805e+01
  -1.795369e+02  -5.586014e+01
  -3.178626e+01  -7.823801e+01
   4.724495e+01  -8.928059e+01
   7.441113e+01  -1.334254e+01
  -3.306253e+01   3.888143e+01
  -7.373352e+01  -1.595708e+01
  -6.134814e+01  -1.156733e+02
   9.281111e+01  -1.409915e+02
   1.345853e+02  -9.513606e+01
   1.200681e+02   8.100340e+01
   6.207314e+00   2.072354e+02
  -1.186511e+02   1.465128e+02
  -7.434237e+01   1.881023e+01
  -3.490355e+01  -1.046845e+02
   7.255185e+00  -1.116172e+02
   6.598639e+01  -3.356635e+01
   4.744791e+01   2.607604e+01
   3.432273e+01   2.501421e+01
   7.606198e+00  -1.163943e+01
   1.940855e+00   1.839403e+01
   5.475556e+01   8.280322e+01
   4.079527e+01   7.344855e+01
  -5.507047e+01   6.176987e+01
  -1.326757e+02  -4.582546e+01
  -9.769980e+01  -7.882612e+01
  -2.532041e+01  -6.380253e+01
   9.446953e+01  -2.130603e+01
   7.935385e+01  -2.067738e+01
   1.349860e+01   4.265556e+00
  -2.753243e+01   3.911513e+00
  -2.726671e+01   2.170889e+01
   2.552147e+01   7.551602e+00
  -5.180281e+00  -4.182701e+01
  -1.004386e+02  -2.302285e+00
  -8.352381e+01   9.714855e+00
  -2.800157e+01  -9.972506e+01
   1.189412e+02  -1.139113e+02
   1.937348e+02  -7.344140e+01
   1.491623e+02   7.053476e+01
   2.063676e+01   1.746658e+02
  -9.057351e+01   1.361018e+02
  -1.083007e+02   7.662700e+01
  -8.560499e+01  -2.279403e+01
  -7.245007e+00  -3.660832e+01
   1.959399e+00   1.450766e+01
  -2.808912e+01  -9.700257e+00
  -3.809947e+01  -4.876254e+01
  -1.741287e+01  -7.495824e+01
   4.150716e+01  -5.295051e+01
   9.118080e+01   1.845645e+01
   7.348103e+01   8.792877e+01
  -7.776472e+00   1.224407e+02
  -7.400929e+01   3.544916e+01
  -1.201502e+02  -5.837172e+01
  -2.415221e+01  -1.159663e+02
   2.767996e+01  -6.749856e+01
   1.131969e+02  -1.301821e+01
   4.989303e+01   3.704733e+01
  -1.672297e+01   3.961494e+01
  -4.802389e+01   4.340615e+01
   3.286161e+01   1.168792e+01
   7.129337e+01  -1.570492e+01
   1.558934e+01   2.996300e+01
  -1.115786e+02   8.368511e+01
  -9.309891e+01   3.860176e+01
  -7.601829e+01  -1.499378e+01
   1.899382e+01  -4.522817e+01
   2.286906e+01  -9.989772e+01
   4.648442e+01  -2.464332e+01
   2.431291e+01   6.084920e+01
  -2.814003e+00   4.224642e+01
  -4.186203e+01  -3.369990e+01
  -8.085034e+00  -4.636585e+01
   2.509891e+01  -4.918591e+01
   4.402870e+01   2.853149e+01
   5.088479e+01   1.705035e+01
   3.170040e+01  -1.531970e-01
   1.710231e+01   8.153988e+00
   1.579789e+01  -5.981867e+00
  -1.227886e+01   1.914765e+01
   1.452303e+01   4.070495e+01
  -3.189802e+01   1.950684e+01
  -1.873254e+01  -4.296572e+01
  -2.736211e+01  -4.491918e+01
   2.168184e+01  -3.551852e+01
   5.536170e+01   2.361416e+01
   2.793668e+01   7.052572e+01
  -2.753425e+01   4.259601e+01
  -9.771254e+01  -3.622014e+01
  -6.614974e+01  -6.666054e+01
   1.289756e+01  -4.759160e+01
   5.767462e+01  -2.116557e+01
   4.479853e+01   1.428434e+01
  -2.301172e+01   3.314870e+01
  -3.337898e+01  -1.553831e+01
   6.754174e+01  -2.863429e+01
   7.934771e+01  -1.457169e+01
