
 $NMID
 id='ANONYMOUS ', fmtdat='(2E16.6)'
 volume=1.0
 tramp=1.0
 $END
   3.519770e+03   2.696233e+01
   2.059842e+03   1.699392e+03
  -5.566024e+02   2.099568e+03
  -1.413838e+03   9.283932e+02
  -7.202401e+02  -2.058480e+02
   3.433730e+02  -4.199303e+02
   6.030235e+02   3.022471e+02
  -8.704519e+00   6.947956e+02
  -5.686253e+02   6.287842e+02
  -7.070568e+02   1.467848e+01
  -3.286474e+02  -6.052184e+02
   1.302891e+02  -7.276719e+02
   4.198899e+02  -4.041493e+01
   2.634012e+02   5.272911e+02
  -1.855005e+02   6.031730e+02
  -4.889622e+02   4.397556e+01
  -2.256461e+02  -5.296311e+02
   1.636897e+02  -6.289655e+02
   4.030367e+02  -1.556246e+02
   3.210128e+02   1.909858e+02
   9.991607e+01   3.181367e+02
  -1.537731e+02   2.344782e+02
  -1.126960e+02   3.548455e+01
   1.851080e+02   2.994882e+01
   3.473555e+02   2.264947e+02
   4.006630e+01   3.689877e+02
  -4.651618e+02   2.779306e+02
  -7.127388e+02  -2.345841e+02
  -2.785252e+02  -4.945439e+02
   3.719483e+02  -2.739368e+02
   5.877704e+02   1.442136e+02
   2.513346e+02   4.072239e+02
  -3.111179e+02   4.163974e+02
  -4.670245e+02   1.496153e+02
  -3.332307e+02  -1.864514e+02
  -1.790550e+01  -3.503098e+02
   1.290899e+02  -1.781185e+02
   2.713159e+01   1.376185e+02
  -1.733547e+02   2.478672e+02
  -2.769798e+02  -1.079843e+02
  -1.036405e+02  -5.654629e+02
   3.703791e+02  -5.313797e+02
   4.149225e+02   2.331203e+01
   2.041098e+02   3.485335e+02
  -1.891158e+02   2.197455e+02
  -2.352789e+02  -2.477991e+02
   7.718731e+01  -4.159709e+02
   4.927982e+02  -6.530479e+01
   5.238646e+02   4.129760e+02
   1.549179e+02   4.833044e+02
  -3.617540e+02   2.660912e+02
  -5.265531e+02  -6.543753e+01
  -3.483637e+02  -2.535593e+02
   1.037302e+02  -2.642659e+02
   3.247123e+02   2.995167e-01
   1.995350e+02   3.508894e+01
  -4.046842e+01  -4.613825e+00
  -7.556692e+01  -1.423591e+02
   7.659645e+01  -1.298182e+02
   2.720466e+02   5.903672e+01
   1.391718e+02   2.211786e+02
  -1.783021e+02   2.489660e+02
  -3.367238e+02   9.703624e+01
  -2.206853e+02  -5.440914e+01
   3.522649e+01  -2.729050e+02
   2.427733e+02  -3.605187e+02
   3.474052e+02  -1.584956e+02
   2.515781e+02   1.675739e+02
   3.919455e+01   3.501791e+02
  -6.933082e+01   3.662251e+02
  -6.245403e+01   1.318284e+02
  -3.885105e+01   6.618569e+01
  -7.395660e+01   7.690007e+01
  -2.042303e+02   8.270240e+01
  -2.545624e+02  -8.831444e+01
  -7.604858e+01  -2.218860e+02
   6.500737e+01  -2.130912e+02
   2.034519e+02   2.043351e+01
   1.449356e+02   2.420132e+02
  -1.875342e+01   2.665203e+02
  -2.445284e+02   6.526659e+01
  -2.682023e+02  -1.687301e+02
  -1.710373e+02  -3.110720e+02
   8.518688e+01  -2.962597e+02
   1.738547e+02  -1.449874e+02
   1.536117e+02  -4.819542e+01
   1.071747e+02  -7.314176e+01
   2.500710e+02  -2.916225e+01
   3.689056e+02   7.083267e+01
   2.901235e+02   2.807480e+02
  -4.718043e+01   4.172101e+02
  -3.785035e+02   3.748137e+02
  -4.826610e+02   1.996532e+02
  -2.949351e+02  -7.913119e+01
  -6.562674e+01  -2.694789e+02
   1.340948e+02  -1.850550e+02
   2.366100e+01  -3.312190e+01
  -1.031900e+02   4.090515e+01
  -1.449932e+02  -8.916643e+00
  -2.732452e+01  -1.596126e+02
   1.713133e+02  -8.142070e+01
   1.377083e+02   6.845108e+01
  -2.134647e+01   1.566277e+02
  -1.980888e+02  -5.198136e+00
  -1.619658e+02  -2.343478e+02
   1.541236e+01  -3.099429e+02
   2.504734e+02  -1.820001e+02
   3.512298e+02   6.987280e+01
   2.650104e+02   2.535053e+02
   5.284261e+01   2.412106e+02
  -1.063949e+02   1.869655e+02
  -1.407696e+02  -4.691721e+00
  -6.560649e+01  -2.056467e+01
   5.035127e+01   3.671679e+01
   8.005972e+00   1.288779e+02
  -1.419234e+02   9.721095e+01
  -1.332510e+02  -2.245474e+01
  -2.481218e+01  -3.985398e+01
   5.101522e+01  -1.926782e+01
   4.903049e+01   6.820154e+01
  -1.461178e+02   9.719493e+01
  -2.908698e+02  -3.438149e+01
  -2.410440e+02  -1.296457e+02
  -4.713758e+01  -2.737354e+02
   1.636552e+02  -2.342661e+02
   2.707073e+02  -8.710347e+01
   1.932684e+02   4.743920e+01
  -2.111335e+01   7.079183e+01
  -7.918047e+01   1.097647e+01
   4.003110e+01  -8.708085e+01
   1.803748e+02  -4.676936e+01
   1.877255e+02   9.359928e+01
   3.796624e+01   1.875488e+02
  -8.184921e+01   1.033219e+02
  -1.402591e+02   1.863049e+01
  -6.342421e+01  -3.172835e+01
   6.200177e+01   1.904775e+00
   2.461533e+01   9.308714e+01
  -6.082493e+01   1.049939e+02
  -2.088292e+02   4.802794e+01
  -1.836323e+02  -1.237783e+02
  -2.029959e+01  -1.640518e+02
   1.741259e+02  -1.672694e+02
   2.013629e+02  -1.027693e+01
   7.376251e+01   1.087861e+02
  -7.424357e+01   7.443599e+01
  -5.537652e+01   1.656391e+01
  -3.227132e+00  -1.553132e+01
   4.144508e+01  -2.065129e+01
   3.671008e+00   1.498024e+01
  -4.602780e+01   4.427035e+00
  -8.488972e+01  -9.411204e+01
  -1.507898e+01  -1.462207e+02
   1.200329e+02  -1.248006e+02
   2.282829e+02  -1.643456e+01
   2.010103e+02   1.474566e+02
   2.926165e+01   2.096667e+02
  -7.980306e+01   1.490590e+02
  -1.231397e+02   2.539026e+00
  -5.869140e+01  -5.726705e+01
  -5.451961e+01  -4.810778e+01
  -5.733330e+01   2.953787e+01
  -7.221477e+01  -2.279123e+01
  -6.373371e+01  -5.151530e+01
   2.128699e+01  -8.202103e+01
   1.344951e+02  -6.046116e+01
   9.930412e+01   4.012640e+01
  -2.637680e+01   1.055435e+02
  -1.323405e+02   6.050001e+01
  -1.814309e+02  -6.599339e+01
  -9.635154e+01  -1.939080e+02
   1.048248e+02  -2.400988e+02
   2.182282e+02  -7.048993e+01
   2.173907e+02   6.094438e+01
   1.019103e+02   1.308687e+02
  -2.174816e+01   1.624949e+02
  -1.023961e+02   5.838477e+01
  -8.107118e+01   7.229872e+01
  -6.151538e+01   8.474481e+01
  -1.059186e+02   7.497230e+01
  -1.200025e+02  -1.606888e+01
  -1.015399e+02  -1.593555e+02
  -1.098114e+01  -2.028812e+02
   1.111407e+02  -1.693288e+02
   1.378736e+02   3.910826e+01
   1.446349e+02   9.912281e+01
  -1.528599e+01   1.575155e+02
  -7.362493e+01   7.495927e+01
  -7.317127e+01  -4.652717e+01
   2.184970e+01  -6.402804e+01
   2.878677e+01  -5.805565e+01
  -5.734666e+01  -2.109797e+00
  -3.907361e+01  -8.134937e+00
  -1.996659e+01  -3.643616e+01
   7.348481e+01  -3.819126e+01
   1.665222e+02  -7.775117e+00
   1.593801e+02   6.738981e+01
   4.995585e+00   8.200771e+01
  -1.338670e+02   5.540745e+01
  -1.326181e+02   1.109691e+01
  -3.495053e+01  -3.941418e+01
   7.181672e+01  -5.072647e+01
   6.441422e+01  -3.848050e+00
   1.581218e+01   6.759961e+01
  -3.277890e+01   7.869214e+01
  -6.439389e+01  -1.339719e+00
  -6.592023e+01  -4.298390e+01
  -2.848604e+01  -1.741603e+01
  -5.214086e+01  -1.037658e+00
  -3.807330e+01   1.037600e+00
  -2.912249e+01  -6.138898e+01
   4.738008e+01  -1.458995e+02
   1.245151e+02  -1.492481e+02
   1.825193e+02  -2.300423e+01
   1.000673e+02   7.298585e+01
   1.794922e+01   1.158104e+02
  -6.557879e+01   2.130343e+01
  -5.555748e+01  -1.509258e+01
   3.593728e+01  -1.427815e+01
   1.177167e+02   2.081671e+01
   6.510319e+01   6.159909e+01
  -7.319235e+01   1.074836e+02
  -1.624811e+02   2.050542e+01
  -1.617428e+02  -9.876110e+00
  -2.074424e+01  -7.965132e+01
   3.590673e+01  -5.443564e+01
   4.545967e+01  -2.633928e+01
  -4.372552e+01   1.399854e+01
  -1.171205e+02  -3.477691e+01
  -4.040291e+01  -1.219959e+02
   8.272491e+01  -1.566301e+02
   1.520767e+02  -3.372235e+01
   1.347005e+02   9.218176e+01
   4.002551e+01   1.822325e+02
  -6.947173e+01   1.432196e+02
  -8.272828e+01  -1.603597e+01
  -4.220908e+01  -1.211509e+02
  -7.692127e+00  -7.885610e+01
   6.563510e+01  -1.320303e+01
   4.704475e+01   3.913902e+01
   2.572287e+01  -2.566288e+00
   1.669622e+01  -3.388536e+01
   4.148467e+01  -3.649343e+00
   7.266980e+01   1.043140e+02
   3.230563e+01   8.023262e+01
  -3.958211e+01   5.273099e+01
  -1.283851e+02  -3.647655e+01
  -1.274459e+02  -7.374012e+01
  -2.513530e+01  -6.606030e+01
   8.711874e+01  -1.105765e+01
   8.280779e+01  -4.568443e+00
  -9.742842e+00   7.881065e+00
  -2.959391e+01   3.785593e+01
  -2.765038e+01   3.921255e+00
   3.274783e+01   8.932912e+00
   1.606938e+01  -9.131894e+00
  -5.543455e+01   8.565650e-01
  -9.264120e+01  -1.274271e+01
  -2.981798e+01  -8.477779e+01
   1.102498e+02  -1.056564e+02
   1.825450e+02  -6.074924e+01
   1.284978e+02   5.004951e+01
   1.691169e+01   1.397647e+02
  -5.990824e+01   1.418250e+02
  -1.120478e+02   6.048922e+01
  -7.697609e+01  -1.609964e+01
  -1.088697e+01  -3.025212e+01
   1.434671e+01  -9.622573e+00
  -1.298922e+01  -1.008733e+01
  -3.247313e+01  -4.904492e+01
  -1.729470e+01  -8.286142e+01
   5.550961e+01  -6.526199e+01
   5.428457e+01  -3.581327e+00
   8.984786e+01   1.177457e+02
   1.127903e+01   1.187058e+02
  -6.552016e+01   4.827185e+01
  -9.495739e+01  -5.139862e+01
  -5.378936e+01  -1.007952e+02
   6.308465e+01  -5.650989e+01
   8.211307e+01   1.060539e+01
   5.293880e+01   6.893202e+01
  -2.601758e+01   7.480611e+01
  -1.038358e+01   3.347221e+01
   3.153142e+01  -1.762355e+01
   6.220478e+01  -1.423569e+01
   3.455633e+01   7.748999e+00
  -7.075032e+01   3.370841e+01
  -1.130343e+02   4.583758e+01
  -7.194308e+01  -3.780245e+00
   9.907207e+00  -1.089324e+02
   5.661774e+01  -6.930038e+01
   3.412677e+01  -1.316394e+00
   3.547891e+01   5.496492e+01
  -3.985536e+01   3.366512e+01
  -3.273208e+01  -6.391784e+00
  -2.163277e+01  -5.424605e+01
  -3.611021e+01  -3.108516e+01
   3.258728e+01  -1.118759e+00
   3.416911e+01   2.261611e+01
   1.860967e+01  -2.705439e-01
   2.017026e+01  -3.403590e+01
   1.363364e+01  -2.571195e+01
  -5.401787e+00   1.800728e+01
  -1.040673e+01   4.477329e+01
  -2.786401e+01   2.670917e+01
  -3.120828e+01  -5.401979e+01
  -2.647535e+00  -6.722834e+01
   1.062126e+01   7.146613e+00
   7.765049e+01   1.957460e+01
   2.814852e+01   5.991965e+01
  -5.447781e+01   3.779947e+01
  -7.439402e+01  -2.232400e+01
  -3.091285e+01  -4.233380e+01
   4.674752e+01  -5.321584e+01
   8.043961e+01  -3.070972e+01
   2.317871e+01   5.298684e+00
  -2.068495e+01   1.555684e+01
  -3.332898e+01  -1.157463e+01
   3.570693e+01  -4.535771e+01
   6.237044e+01   3.653393e+00
