
 $NMID
 id='ANONYMOUS ', fmtdat='(2E16.6)'
 volume=1.0
 tramp=1.0
 $END
   3.881067e+03   1.274141e+02
   2.309989e+03   2.464315e+03
  -7.125860e+02   2.601633e+03
  -1.774899e+03   9.179500e+02
  -7.798281e+02  -4.785645e+02
   4.308240e+02  -2.687046e+02
   6.236618e+02   2.537469e+02
   2.641491e+01   9.234475e+02
  -6.804264e+02   5.590483e+02
  -7.996976e+02   4.399442e+01
  -4.525466e+02  -7.511198e+02
   1.672066e+02  -8.249776e+02
   5.006608e+02  -1.878974e+02
   3.257677e+02   6.190908e+02
  -2.323901e+02   6.802862e+02
  -4.758815e+02   2.617115e+01
  -2.636014e+02  -5.450265e+02
   2.641483e+02  -5.946091e+02
   5.525622e+02  -1.094228e+02
   3.970208e+02   3.004750e+02
   3.916601e+01   4.053982e+02
  -1.785717e+02   2.427350e+02
  -1.687981e+02   5.290948e+01
   1.327599e+02  -3.923710e+01
   3.408144e+02   1.722608e+02
   1.307780e+02   4.538251e+02
  -5.017121e+02   3.465048e+02
  -7.845907e+02  -1.635705e+02
  -3.485281e+02  -5.423225e+02
   4.167019e+02  -3.665747e+02
   6.255747e+02   2.022350e+01
   2.831315e+02   4.558029e+02
  -2.950376e+02   4.420256e+02
  -5.468494e+02   1.849851e+02
  -3.933445e+02  -2.049754e+02
  -7.469699e+01  -4.354583e+02
   1.301015e+02  -2.361380e+02
   1.089484e+02   1.771192e+02
  -1.992861e+02   3.638520e+02
  -4.010004e+02  -9.957676e+01
  -1.671190e+02  -6.147468e+02
   2.871331e+02  -6.463130e+02
   4.816801e+02  -3.358720e+01
   2.089285e+02   4.752122e+02
  -2.941736e+02   2.336002e+02
  -2.956283e+02  -3.378757e+02
   8.368671e+01  -5.169975e+02
   5.310498e+02  -1.233544e+02
   5.510319e+02   4.377347e+02
   1.326271e+02   5.308266e+02
  -3.454348e+02   3.069615e+02
  -5.948180e+02  -9.155780e+01
  -3.257726e+02  -3.337057e+02
   1.036132e+02  -2.971420e+02
   4.173013e+02  -8.023344e+01
   2.017409e+02   1.496609e+02
  -4.678048e+01   1.251283e+02
  -1.269051e+02  -9.672491e+01
   1.447098e+02  -1.166419e+02
   3.024788e+02   3.408976e+01
   1.423163e+02   2.585098e+02
  -2.114792e+02   2.449254e+02
  -3.338461e+02   7.247906e+01
  -1.794014e+02  -1.098770e+02
   4.580957e+01  -2.472756e+02
   2.207070e+02  -3.422187e+02
   3.585638e+02  -1.768386e+02
   2.938361e+02   1.252109e+02
   5.522425e+01   4.035314e+02
  -5.275978e+01   3.677392e+02
  -8.977737e+01   1.386284e+02
   1.204510e+01   8.400492e+00
  -8.943833e+01   1.463279e+02
  -2.112961e+02   1.275964e+02
  -2.648583e+02  -9.970889e+01
  -1.463279e+02  -2.403240e+02
   7.937798e+01  -2.297462e+02
   2.202929e+02  -4.601563e-01
   1.785727e+02   2.648975e+02
  -4.308247e+01   2.703553e+02
  -2.616866e+02   1.034683e+02
  -3.374570e+02  -1.630742e+02
  -1.735193e+02  -3.618253e+02
   9.566042e+01  -3.122123e+02
   1.980568e+02  -9.022352e+01
   1.641701e+02  -5.322397e+01
   1.160323e+02  -3.349685e+01
   2.403588e+02  -5.500878e+01
   4.233446e+02   5.538459e+01
   3.318817e+02   2.895739e+02
   4.529248e+00   4.065294e+02
  -3.726217e+02   4.198098e+02
  -4.974906e+02   2.068999e+02
  -3.226310e+02  -6.622809e+01
  -2.202436e+01  -2.797074e+02
   1.402150e+02  -2.259332e+02
   6.208918e+01  -4.025380e+01
  -1.398310e+02   7.672323e+01
  -1.693248e+02  -1.844102e+01
  -1.656103e+01  -1.810504e+02
   1.544955e+02  -1.700340e+02
   1.447720e+02   3.309687e+01
   1.166643e+01   1.467156e+02
  -1.827795e+02   5.158271e+00
  -1.650456e+02  -1.972487e+02
   3.544185e+01  -3.164319e+02
   2.196627e+02  -1.887358e+02
   3.418413e+02   5.111793e+01
   2.839304e+02   2.615466e+02
   7.468188e+01   2.719074e+02
  -1.266071e+02   1.486385e+02
  -1.445105e+02   2.878672e+01
  -7.742379e+01  -3.877673e+01
   6.995937e+01   4.311962e+01
   3.079937e+01   1.211360e+02
  -1.215808e+02   1.079821e+02
  -1.625031e+02  -3.189843e+01
  -7.667958e+01  -5.828042e+01
   8.931634e+01  -2.438670e+01
   5.562747e+01   7.038687e+01
  -1.606016e+02   6.226508e+01
  -3.053870e+02  -8.020137e+00
  -2.365639e+02  -1.395261e+02
  -3.492904e+01  -2.550568e+02
   1.862693e+02  -2.572798e+02
   2.589613e+02  -1.159386e+02
   1.597412e+02   4.899518e+01
  -2.051927e+01   1.020360e+02
  -1.031605e+02  -1.944757e+00
   2.991268e+01  -9.072644e+01
   2.106550e+02  -4.139008e+01
   1.897408e+02   8.120044e+01
   6.684124e+01   2.096260e+02
  -8.213978e+01   1.525253e+02
  -1.424377e+02   1.120396e+01
  -8.504931e+01  -4.009449e+01
   5.000958e+01  -2.499927e+01
   3.206375e+01   1.034250e+02
  -8.967131e+01   1.262229e+02
  -1.998575e+02   1.912131e+01
  -2.119228e+02  -1.497678e+02
  -1.885508e+01  -2.373770e+02
   1.773656e+02  -1.817974e+02
   1.934456e+02   4.231471e+00
   7.650766e+01   1.264344e+02
  -7.533602e+01   1.172999e+02
  -4.959125e+01   4.833604e+01
   1.099777e+01  -3.901699e+01
   5.172939e+01  -1.476414e+01
   8.929349e+00   1.700203e+01
  -7.433606e+01  -2.901732e-01
  -1.001702e+02  -7.950594e+01
  -2.815391e+01  -1.576164e+02
   1.217995e+02  -1.633528e+02
   2.374569e+02  -3.489935e+01
   2.097893e+02   1.673245e+02
   3.094333e+01   2.196708e+02
  -9.249687e+01   1.749224e+02
  -1.291832e+02   4.789343e+01
  -7.861160e+01  -5.186721e+01
  -5.418996e+01  -2.260974e+01
  -7.239775e+01   2.185852e+01
  -8.377020e+01   8.908885e+00
  -3.515837e+01  -6.124118e+01
   6.197351e+01  -8.358991e+01
   1.234362e+02  -5.877888e+01
   7.649169e+01   2.303802e+01
  -3.556327e+01   1.230281e+02
  -1.261620e+02   7.589357e+01
  -2.002099e+02  -4.751618e+01
  -1.032399e+02  -2.162786e+02
   1.225586e+02  -1.996881e+02
   2.816428e+02  -1.080390e+02
   2.290940e+02   7.147412e+01
   7.709373e+01   2.057702e+02
  -4.470014e+01   1.572110e+02
  -1.121967e+02   1.057568e+02
  -5.879838e+01   5.046731e+01
  -5.897736e+01   8.307159e+01
  -6.362622e+01   7.975454e+01
  -1.264940e+02  -1.581822e+01
  -1.463447e+02  -1.476222e+02
  -2.587894e+01  -2.511704e+02
   1.041391e+02  -1.778750e+02
   1.833027e+02   3.416289e+00
   1.349639e+02   1.113465e+02
   5.637368e+00   1.439656e+02
  -7.634710e+01   7.133102e+01
  -7.700768e+01   8.506744e+00
   2.625993e-02  -4.484362e+01
   2.438628e+01  -3.977620e+01
  -3.834363e+01  -4.947316e+00
  -6.624882e+01  -6.414188e+00
  -4.909944e+01  -2.604191e+01
   9.432589e+01  -2.938822e+01
   1.419030e+02   2.754098e+01
   1.544207e+02   3.837827e+01
   7.569289e+00   7.362733e+01
  -1.257871e+02   6.856126e+01
  -1.737375e+02  -1.020759e+00
  -3.653813e+01  -4.134600e+01
   9.075382e+01  -4.597656e+01
   6.421787e+01  -1.339946e+01
  -1.299313e+01   7.797106e+01
  -5.217077e+01   4.057420e+01
  -6.096079e+01   4.232982e+00
  -6.259662e+01  -4.067615e+01
  -3.997866e+01  -6.710883e+01
  -6.454004e+01   6.256365e+00
  -7.577374e+01  -9.042641e+00
  -4.026018e+01  -8.693072e+01
   3.751134e+01  -1.435191e+02
   1.247279e+02  -1.579014e+02
   1.667962e+02  -4.814772e+00
   1.209986e+02   3.989917e+01
   1.549394e+01   1.295405e+02
  -7.625721e+01   6.362353e+01
  -5.614863e+01  -2.010072e+01
   5.170478e+01  -5.800231e+00
   1.542458e+02   1.971227e+01
   5.651511e+01   1.073708e+02
  -8.999962e+01   9.692512e+01
  -1.511774e+02   4.569881e+01
  -1.414835e+02  -4.344499e+01
  -1.827393e+01  -1.107897e+02
   4.701988e+01  -9.889593e+01
   5.036957e+01   1.753353e+01
   3.990099e+00   2.172737e+01
  -8.729093e+01  -1.036140e+01
  -2.318292e+01  -1.318230e+02
   8.885646e+01  -1.485925e+02
   1.794463e+02  -8.627037e+01
   9.423618e+01   9.041680e+01
   5.889788e+01   1.895529e+02
  -7.268965e+01   1.338384e+02
  -8.934804e+01   3.306676e+00
  -6.611452e+01  -1.258104e+02
  -1.913412e+01  -1.079886e+02
   3.486021e+01  -1.198692e+01
   7.186891e+01   3.862530e+01
   1.595182e+01   3.213768e+01
   8.128323e-02  -1.522144e+01
   2.902599e+01   2.374925e+01
   5.339001e+01   8.298490e+01
   2.492393e+01   1.270149e+02
  -4.318291e+01   3.373132e+01
  -1.514398e+02  -4.642194e+01
  -1.110057e+02  -6.731321e+01
  -3.869542e+01  -5.200064e+01
   8.702010e+01  -3.561450e+01
   6.367249e+01   3.731409e+00
   1.689042e+01   4.841588e+00
  -1.070832e+01   5.695698e+01
  -2.095302e+01   5.199731e+01
   2.408270e+01   9.355190e-01
  -4.312832e+01  -4.145890e+01
  -5.447676e+01   1.211418e+01
  -9.002531e+01  -2.657768e+01
  -4.779588e+00  -8.208821e+01
   1.241240e+02  -1.147366e+02
   1.777514e+02  -7.754521e+01
   1.366097e+02   9.825439e+01
   2.322296e+01   1.709573e+02
  -7.587124e+01   1.443335e+02
  -1.285733e+02   5.280347e+01
  -8.600624e+01  -9.324886e+00
  -2.959820e+01  -1.577460e+01
  -1.764335e+01  -3.110115e+01
  -1.314530e+01  -9.061500e+00
  -1.842974e+01  -4.507857e+01
  -4.230681e+01  -7.563766e+01
   2.228243e+01  -6.500683e+01
   7.230329e+01   1.211364e+01
   7.169350e+01   1.266601e+02
   2.268559e+01   1.260320e+02
  -9.230590e+01  -1.454599e+01
  -1.016774e+02  -5.703035e+01
  -4.392954e+01  -1.065028e+02
   4.408724e+01  -7.073611e+01
   1.035684e+02   4.277214e+00
   5.697757e+01   4.524473e+01
  -2.002168e+01   5.767006e+01
  -1.530371e+01   3.616232e+01
   5.498530e+01  -2.326668e+01
   3.448270e+01  -3.952576e+01
   9.350462e+00   4.833402e+01
  -7.005556e+01   8.767229e+01
  -1.032990e+02   5.545708e+01
  -7.828096e+01  -1.787936e+01
   1.881208e+01  -9.251100e+01
   3.746705e+01  -1.179094e+02
   3.044519e+01  -1.253093e+01
   2.148050e+01   6.604724e+01
  -2.232808e+01   3.036294e+01
  -4.064353e+01  -2.940119e+01
  -9.899802e+00  -4.734482e+01
  -2.861962e+01  -1.097223e+01
   3.666639e+01   3.116024e+00
   4.251114e+01   2.192115e+01
   2.735570e+01   1.302388e+01
  -1.859657e+00  -2.967322e+01
   1.085780e+01  -5.889244e+00
   1.858832e+01   3.172191e+01
  -4.527013e+00   1.246001e+01
  -4.184532e+01   9.513453e+00
  -3.055764e+01  -5.247422e+01
  -5.281768e+00  -5.509753e+01
   3.705868e+01  -2.813273e+01
   6.727766e+01   2.431330e+01
   4.655541e+01   5.089898e+01
  -5.444893e+01   4.447050e+01
  -7.556646e+01  -1.911047e+01
  -4.875174e+01  -4.314051e+01
   4.684397e+01  -4.631215e+01
   6.787816e+01  -1.151457e+01
   3.323652e+00  -6.293342e+00
  -4.609915e+01  -6.227716e+00
  -4.811999e+01  -2.104413e+01
   4.072920e+01  -2.871391e+01
   8.827995e+01  -1.843083e+01
