
 $NMID
 id='ANONYMOUS ', fmtdat='(2E16.6)'
 volume=1.0
 tramp=1.0
 $END
  -3.689591e+03  -2.559770e+01
  -2.144552e+03  -2.033128e+03
   5.074481e+02  -1.915997e+03
   1.467465e+03  -1.071569e+03
   9.077348e+02   2.038124e+02
  -1.482106e+02   2.902865e+02
  -6.231568e+02  -2.361636e+02
   1.066959e+02  -8.501876e+02
   5.590730e+02  -5.745413e+02
   7.048293e+02   1.679448e+01
   4.462104e+02   6.194671e+02
  -2.485640e+02   7.020680e+02
  -3.969482e+02   1.873247e+02
  -2.955386e+02  -5.701695e+02
   1.549523e+02  -5.978997e+02
   4.993517e+02  -4.587221e+01
   2.674067e+02   5.408823e+02
  -2.426250e+02   6.100994e+02
  -4.879742e+02   2.026783e+02
  -3.737820e+02  -1.710315e+02
  -4.923256e+01  -3.963032e+02
   2.122123e+02  -2.220654e+02
   9.369285e+01  -4.098542e+01
  -1.665516e+02  -1.143355e+01
  -2.855297e+02  -2.272348e+02
  -6.437860e+01  -3.859719e+02
   4.583384e+02  -3.053671e+02
   5.736627e+02   1.891885e+02
   3.450198e+02   4.514126e+02
  -3.688281e+02   3.026444e+02
  -6.225298e+02  -1.117724e+02
  -2.856026e+02  -4.239359e+02
   2.952012e+02  -4.112178e+02
   5.130433e+02  -1.602302e+02
   3.626628e+02   1.977336e+02
   7.796274e+01   3.664388e+02
  -7.289301e+01   2.056262e+02
  -6.045799e+01  -1.185347e+02
   1.920724e+02  -2.328010e+02
   3.326571e+02   1.190851e+02
   1.040593e+02   5.701984e+02
  -2.813486e+02   5.572562e+02
  -4.570624e+02  -4.203200e+01
  -2.011720e+02  -4.248890e+02
   1.679905e+02  -2.538956e+02
   2.879043e+02   2.895015e+02
  -1.293565e+02   3.995036e+02
  -4.321777e+02   5.496211e+01
  -4.874664e+02  -3.938290e+02
  -1.510419e+02  -5.205007e+02
   3.603079e+02  -2.668866e+02
   5.861351e+02   5.110521e+01
   3.644523e+02   3.062095e+02
  -9.446508e+01   2.697148e+02
  -3.539338e+02   4.267235e+01
  -2.076253e+02  -1.395205e+02
   5.808031e+01  -1.455390e+01
   7.513733e+01   9.381768e+01
  -9.420643e+01   1.510426e+02
  -2.644957e+02  -3.411443e+01
  -1.609781e+02  -2.475844e+02
   1.692511e+02  -2.411180e+02
   3.317035e+02  -1.296361e+02
   2.248916e+02   8.380370e+01
  -3.650852e+01   2.618318e+02
  -2.654933e+02   3.249778e+02
  -3.515796e+02   1.715646e+02
  -2.443907e+02  -1.544852e+02
  -5.897092e+01  -4.187568e+02
   7.826503e+01  -3.227746e+02
   1.014388e+02  -1.469053e+02
   3.526284e+01  -4.593566e+01
   1.017635e+02  -9.201419e+01
   1.835657e+02  -5.714640e+01
   2.705164e+02   8.526592e+01
   1.229388e+02   2.362705e+02
  -1.064250e+02   2.598796e+02
  -2.104859e+02  -2.794385e+01
  -1.164059e+02  -2.456835e+02
   1.469507e+01  -2.528535e+02
   2.449556e+02  -7.400202e+01
   3.265688e+02   1.559518e+02
   1.868948e+02   3.228812e+02
  -9.238026e+01   3.055586e+02
  -1.631594e+02   1.057150e+02
  -1.430855e+02   6.023141e+01
  -1.393859e+02   6.704402e+01
  -2.510593e+02   4.630489e+01
  -4.076727e+02  -7.322935e+01
  -3.091327e+02  -2.932550e+02
   3.927530e+00  -4.398001e+02
   3.879977e+02  -3.647437e+02
   4.573770e+02  -1.636035e+02
   2.896843e+02   1.168765e+02
   5.911196e+01   2.892315e+02
  -1.194829e+02   1.995279e+02
  -7.996083e+01   5.877028e+01
   1.164041e+02  -6.651371e+01
   1.748367e+02   1.593458e+01
   4.876670e+01   1.608254e+02
  -1.464113e+02   1.196123e+02
  -1.263521e+02  -7.044330e+01
   2.917737e+01  -1.706492e+02
   1.845668e+02  -3.430196e+01
   1.642451e+02   2.409132e+02
  -2.404649e+01   3.343327e+02
  -2.490612e+02   1.959664e+02
  -3.365187e+02  -7.819454e+01
  -2.699707e+02  -2.720064e+02
  -6.596014e+01  -2.393933e+02
   6.427891e+01  -1.508581e+02
   1.825283e+02  -2.438909e+01
   4.546581e+01   1.014433e+01
  -3.332318e+01  -2.503104e+01
  -2.427471e+01  -8.492407e+01
   1.407961e+02  -8.866057e+01
   1.319914e+02   2.178147e+01
   3.760216e+01   5.936171e+01
  -7.997851e+01  -2.426511e+01
  -4.700779e+01  -5.789785e+01
   1.373926e+02  -1.061834e+02
   2.592018e+02   1.773703e+01
   2.374439e+02   1.195733e+02
   2.655680e+01   2.381375e+02
  -1.863555e+02   2.241275e+02
  -2.808305e+02   8.594087e+01
  -1.199617e+02  -5.581628e+01
   4.804343e+01  -9.488221e+01
   1.081708e+02   1.968772e+00
  -1.488348e+01   1.080749e+02
  -1.818754e+02   3.389000e+01
  -2.129226e+02  -8.533341e+01
  -3.004101e+01  -1.953542e+02
   8.701445e+01  -1.400084e+02
   1.213305e+02   8.678669e+00
   5.169954e+01   4.690361e+01
  -3.559652e+01   5.834502e+00
  -3.897436e+01  -1.078637e+02
   8.512244e+01  -1.377136e+02
   1.952528e+02  -3.433116e+01
   1.712167e+02   1.280640e+02
   1.214404e+01   1.723841e+02
  -1.665748e+02   1.362636e+02
  -1.763139e+02   1.260403e+01
  -8.144593e+01  -9.981994e+01
   7.051908e+01  -1.178948e+02
   6.159780e+01  -4.236980e+01
   2.192220e+01   2.730454e+01
  -5.672179e+01   3.409933e+00
  -5.421818e+00  -1.721396e+01
   6.316793e+01   3.334334e+01
   9.618917e+01   7.436063e+01
  -5.707304e+00   1.856236e+02
  -1.222660e+02   1.056451e+02
  -2.591445e+02   4.342903e+00
  -1.947828e+02  -1.744034e+02
  -2.420174e+00  -2.161514e+02
   8.880452e+01  -1.307258e+02
   1.047351e+02   1.557935e+01
   9.186952e+01   4.990862e+01
   3.023520e+01   2.594243e+01
   5.413896e+01  -1.501825e+01
   7.287125e+01   1.708311e+00
   5.213203e+01   7.072459e+01
  -2.383699e+01   8.947876e+01
  -1.270448e+02   6.440794e+01
  -7.493441e+01  -3.860222e+01
   2.599059e+01  -1.334067e+02
   1.613161e+02  -7.145782e+01
   1.978857e+02   5.345659e+01
   4.946949e+01   2.121936e+02
  -1.015003e+02   2.174274e+02
  -2.575347e+02   6.957311e+01
  -2.373809e+02  -9.890861e+01
  -7.183383e+01  -1.622196e+02
   4.626463e+01  -1.300588e+02
   7.452221e+01  -7.075156e+01
   1.007636e+02  -5.450049e+01
   6.511432e+01  -8.632355e+01
   6.857605e+01  -9.006129e+01
   1.247999e+02   1.310929e+01
   9.683465e+01   1.397953e+02
  -2.001432e+01   2.161316e+02
  -9.944374e+01   1.628885e+02
  -1.581809e+02  -3.613111e+00
  -1.243438e+02  -1.136858e+02
  -1.277103e+01  -1.543717e+02
   7.569703e+01  -7.597036e+01
   8.530992e+01   2.513701e+01
   1.481205e+01   6.130627e+01
  -4.798160e+01   5.705787e+01
   3.426747e+01   3.130510e+01
   6.483398e+01   1.810011e+01
   3.771419e+01   4.705300e+01
  -5.769768e+01   3.153472e+01
  -1.776435e+02  -4.926971e+00
  -1.247319e+02  -5.750845e+01
   2.865069e+01  -8.622120e+01
   1.263966e+02  -8.181623e+01
   1.369955e+02  -8.967167e-01
   3.657918e+01   3.152774e+01
  -6.235939e+01   5.896056e+01
  -5.646736e+01   8.663122e+00
  -9.878794e+00  -9.585715e+01
   5.119263e+01  -7.127483e+01
   5.355915e+01  -9.515865e-02
   6.430300e+01   7.236289e+01
   3.918007e+01   2.922808e+01
   4.528518e+01   7.984286e+00
   4.644709e+01  -1.113747e+00
   2.828524e+01   9.038835e+01
  -5.837950e+01   1.258218e+02
  -1.097481e+02   1.550788e+02
  -1.770739e+02   8.991219e+00
  -1.072253e+02  -1.140159e+02
  -1.220241e+01  -1.514375e+02
   9.468204e+01  -6.706483e+01
   6.591730e+01   3.815121e+01
  -3.546079e+01   1.495066e+01
  -1.063917e+02  -2.704634e+01
  -7.548617e+01  -7.799783e+01
   8.419747e+01  -1.136860e+02
   2.122544e+02  -4.489821e+01
   1.917483e+02   2.482517e+01
   3.015502e+01   7.293803e+01
  -5.941193e+01   5.355888e+01
  -5.013885e+01   9.502028e+00
   3.966255e+01  -2.554542e+01
   8.786794e+01   2.510987e+01
   2.762977e+01   1.057023e+02
  -8.694874e+01   1.449290e+02
  -1.578825e+02   6.332124e+01
  -1.459229e+02  -8.803289e+01
   1.231270e+00  -1.854964e+02
   8.824319e+01  -1.506165e+02
   9.969129e+01   3.395060e+01
   5.623330e+01   1.025043e+02
   6.442219e+00   8.639026e+01
  -4.242683e+01  -1.961914e+01
  -3.612114e+01  -3.846880e+01
  -8.035853e+00   8.548972e-01
  -1.880966e+01   3.441806e+00
  -3.256250e+01   1.233888e+00
  -6.738530e+01  -8.603364e+01
  -2.791282e+01  -1.198742e+02
   5.944811e+01  -5.163251e+01
   1.309334e+02   3.155604e+01
   1.269026e+02   9.887404e+01
   3.713924e+01   6.261384e+01
  -7.338009e+01  -6.681616e+00
  -1.030749e+02   4.264993e+00
  -1.029974e+01  -2.347392e+01
   2.984801e+01  -3.806448e+01
   1.491081e+01  -4.012401e+01
  -2.930440e+01   3.931713e+00
   7.436927e+00  -2.276001e+01
   4.291658e+01   4.773310e+00
   7.083404e+01   2.668923e+01
   1.287428e+01   6.901424e+01
  -1.118306e+02   1.317470e+02
  -1.818350e+02   4.175542e+01
  -1.239047e+02  -6.302631e+01
  -1.254644e+01  -1.638152e+02
   7.492945e+01  -1.606131e+02
   1.160383e+02  -4.505899e+01
   8.393237e+01   2.601766e+01
  -5.346229e-01   5.693238e+01
  -1.871215e+01  -2.477667e+01
   2.634916e+00   2.243348e+00
   8.986247e+00   3.982933e+01
   9.420003e+00   8.941990e+01
  -4.025531e+01   8.094372e+01
  -5.597170e+01  -1.625026e+01
  -6.507896e+01  -9.099043e+01
  -1.683438e+01  -1.099266e+02
   8.715133e+01  -2.451582e+01
   9.146057e+01   7.207446e+01
   4.211861e+01   1.104426e+02
  -5.912061e+01   6.372918e+01
  -9.617521e+01  -2.573695e+01
  -4.120778e+01  -7.073636e+01
   3.496264e+01  -7.224932e+01
   1.610209e+01  -1.571155e+01
  -1.447203e+01  -1.389249e+01
  -4.706134e+01   8.332890e+00
  -2.552106e+00  -4.463439e+01
   8.853606e+01  -4.519784e+01
   1.123535e+02  -2.933285e+01
   4.549616e+01  -8.145285e+00
  -1.768550e+01   8.615051e+01
  -4.356949e+01   5.636166e+01
  -4.266329e+01  -5.581297e+00
   3.453011e+00  -5.098499e+01
   2.786502e+01  -3.443127e+01
   2.269685e+01  -3.522443e+00
   2.850643e+01   7.328727e+01
  -5.865605e-01   2.979178e+01
  -7.087884e+01  -1.157956e+00
  -3.496353e+00  -2.321943e+01
   8.592246e+00   2.526984e+00
  -1.214421e+01   3.710367e+01
  -1.391881e+01   1.344396e+00
  -1.747617e+01  -1.606657e+01
  -4.560507e+00  -6.117984e+01
   3.375760e+01  -2.259861e+01
   3.688419e+01   4.585437e+01
   1.411467e+01   6.545442e+01
  -4.402151e+01   2.053639e+01
  -7.573810e+01  -4.236329e+01
  -1.603971e+01  -4.223741e+01
   4.387895e+01  -4.982564e+01
   9.405983e+01   3.652044e+01
   3.589108e+01   5.001608e+01
  -4.114881e+01   4.706027e+01
  -7.482001e+01   2.473873e+01
  -2.750060e+01   2.240224e+00
   3.749845e+01   3.023634e+01
   2.708832e+01   4.162754e+01
  -3.375175e+01   3.459743e+01
  -4.677311e+01   7.947516e+00
