
 $NMID
 id='ANONYMOUS ', fmtdat='(2E16.6)'
 volume=1.0
 tramp=1.0
 $END
   3.318455e+03   2.684887e+02
   2.098295e+03   1.965390e+03
  -4.924215e+01   1.893260e+03
  -1.206220e+03   1.317577e+03
  -8.823557e+02   1.448126e+02
  -7.571034e+00  -2.811576e+02
   4.028641e+02   1.368153e+02
   1.238536e+02   4.630625e+02
  -4.199455e+02   5.909043e+02
  -5.953721e+02   7.185378e+01
  -3.440588e+02  -6.051452e+02
  -1.018593e+02  -6.033135e+02
   3.088249e+02  -1.757386e+02
   2.491911e+02   3.777750e+02
  -1.024544e+02   5.703540e+02
  -3.671668e+02   1.058859e+02
  -3.033480e+02  -4.764983e+02
   1.187942e+02  -5.923732e+02
   4.833530e+02  -2.656245e+02
   4.263471e+02   2.112113e+02
   1.555495e+02   3.757357e+02
  -1.197276e+02   2.815258e+02
  -8.112265e+01   5.619381e+01
   2.059122e+02   6.955364e+01
   3.200489e+02   3.110694e+02
  -1.407757e+01   3.666468e+02
  -5.037300e+02   1.662082e+02
  -6.915397e+02  -1.957657e+02
  -2.202388e+02  -2.724484e+02
   2.754359e+02  -1.946587e+02
   5.566861e+02   1.301327e+02
   1.701095e+02   3.659227e+02
  -2.841293e+02   3.250762e+02
  -4.723508e+02   1.764048e+02
  -3.117603e+02  -1.643565e+02
  -7.163973e+01  -2.954757e+02
   5.064343e+01  -2.014197e+02
  -4.282027e+01   1.287110e+02
  -2.050910e+02   2.043999e+02
  -1.680953e+02  -1.425112e+02
  -7.392862e+01  -5.030864e+02
   2.576754e+02  -4.694966e+02
   3.707102e+02   3.274187e+01
   3.538247e+01   3.286343e+02
  -1.496263e+02   1.071942e+02
  -1.374301e+02  -2.685221e+02
   8.893496e+01  -3.906032e+02
   4.306069e+02  -1.522633e+01
   4.988584e+02   4.076779e+02
   1.546848e+02   4.482185e+02
  -2.695618e+02   2.247752e+02
  -5.196720e+02  -7.622454e+01
  -3.434193e+02  -2.841129e+02
   9.583667e+01  -1.958406e+02
   3.001817e+02  -1.212977e+02
   2.365794e+02   2.222377e+01
  -8.484823e+00   1.321643e+01
  -6.269966e+01  -4.013730e+01
   1.268229e+02  -4.444927e+01
   2.539597e+02   5.337592e+01
   1.282334e+02   1.716029e+02
  -1.614204e+02   2.419501e+02
  -3.291156e+02   1.270096e+02
  -2.417404e+02  -9.865044e+01
  -1.279943e+00  -3.319069e+02
   3.062812e+02  -3.168031e+02
   3.709427e+02  -1.544480e+02
   2.549698e+02   1.889529e+02
   4.247277e+01   3.496464e+02
  -1.141919e+01   3.004439e+02
  -2.360328e+01   1.650707e+02
  -2.448566e+01   8.747115e+01
  -1.284777e+02   1.252256e+02
  -2.246414e+02   7.582184e+01
  -2.106276e+02  -1.420754e+02
  -6.866385e+01  -2.941957e+02
   9.587289e+01  -1.559954e+02
   1.906368e+02   5.360969e+01
   1.401828e+02   2.431887e+02
  -6.617345e+01   2.425031e+02
  -2.737594e+02   3.866696e+01
  -3.318874e+02  -1.807265e+02
  -1.619815e+02  -2.664899e+02
   4.802208e+01  -2.458249e+02
   1.791985e+02  -1.559727e+02
   1.727324e+02  -7.101331e+01
   1.481246e+02  -8.401933e+01
   2.928084e+02  -5.980807e+01
   3.778853e+02   1.050960e+02
   3.273675e+02   3.283251e+02
  -2.077885e+01   4.366902e+02
  -3.970120e+02   4.144967e+02
  -4.821039e+02   1.363090e+02
  -2.492949e+02  -1.110234e+02
  -7.588251e+00  -2.229695e+02
   1.080002e+02  -1.853245e+02
   1.211407e+01  -6.716299e+01
  -1.187317e+02   4.558648e+01
  -1.362844e+02  -4.017215e+01
  -2.429158e+01  -1.139566e+02
   1.319498e+02  -7.951994e+01
   1.072894e+02   6.559948e+01
  -1.416849e+01   1.306242e+02
  -1.806632e+02  -1.000301e+01
  -1.382315e+02  -2.487930e+02
   3.304609e+01  -3.349307e+02
   2.622527e+02  -1.989208e+02
   3.867392e+02   9.872118e+01
   2.533674e+02   2.620584e+02
   3.391971e+01   2.742506e+02
  -1.171017e+02   1.512214e+02
  -1.573345e+02  -1.241110e+01
  -1.656383e+01   2.359000e-01
   6.734973e+01   6.375581e+01
   9.982583e+00   1.347010e+02
  -1.254180e+02   3.834781e+01
  -1.275513e+02  -2.838535e+01
  -3.230443e+01  -5.497350e+01
   7.854107e+01   5.027677e+01
   5.106171e+01   1.120155e+02
  -1.491569e+02   8.581412e+01
  -3.257181e+02  -2.602869e+01
  -2.534664e+02  -2.017841e+02
  -3.420457e+01  -2.946436e+02
   2.188291e+02  -2.298949e+02
   2.462524e+02  -9.860252e+01
   1.269238e+02   2.681513e+01
  -3.268900e+01   7.379025e+01
  -4.761764e+01  -9.576900e+00
   4.008139e+01  -7.717096e+01
   2.145283e+02  -2.268452e+01
   1.699373e+02   1.461223e+02
   4.267695e+01   1.663206e+02
  -9.795719e+01   1.045660e+02
  -1.229506e+02   4.618364e+00
  -2.596454e+01  -4.401557e+01
   5.938549e+01   2.174900e+01
   2.551061e+01   8.390246e+01
  -1.111449e+02   9.779334e+01
  -2.161792e+02  -9.554357e+00
  -1.671440e+02  -1.392118e+02
   2.468715e+00  -2.079997e+02
   1.648500e+02  -1.582276e+02
   1.644802e+02   1.753038e+01
   6.074369e+01   6.307729e+01
  -6.956586e+01   1.061029e+02
  -5.910687e+01   4.511427e+00
   1.162764e+01  -4.063014e+01
   7.479709e+01   2.952197e+01
  -1.333580e+01   4.193093e+01
  -8.603490e+01   6.575456e+00
  -9.810487e+01  -1.094157e+02
   1.293940e+01  -1.665637e+02
   1.423271e+02  -1.588871e+02
   2.508411e+02   1.745274e+01
   1.729552e+02   1.955995e+02
   2.123350e+01   2.148335e+02
  -8.976080e+01   1.689681e+02
  -1.395337e+02   2.011428e+01
  -8.251865e+01  -4.558144e+01
  -2.044582e+01  -4.182957e+01
  -4.757671e+01   2.062040e+01
  -1.083041e+02   1.889727e+01
  -3.195986e+01  -4.910455e+01
   6.584093e+01  -1.088987e+02
   1.176605e+02  -7.583190e+01
   1.276491e+02   2.425642e+01
  -2.271842e+01   1.343967e+02
  -1.417481e+02   7.906965e+01
  -2.281103e+02  -4.134784e+01
  -9.055208e+01  -2.039166e+02
   1.125110e+02  -2.371070e+02
   2.511695e+02  -8.801178e+01
   2.401466e+02   1.262980e+02
   9.385682e+01   1.670918e+02
  -3.767474e+01   1.570680e+02
  -1.040501e+02   1.112070e+02
  -6.744189e+01   6.748818e+01
  -3.882791e+01   9.993275e+01
  -1.108269e+02   9.275771e+01
  -1.080823e+02  -2.995799e+01
  -9.863150e+01  -1.589385e+02
  -1.918723e+01  -2.082772e+02
   1.052769e+02  -1.799474e+02
   1.442979e+02  -1.318896e+01
   1.216849e+02   1.300248e+02
   3.302305e+00   1.672037e+02
  -1.022419e+02   4.697592e+01
  -6.787007e+01  -4.993469e+01
  -1.022144e+01  -4.793386e+01
   1.641188e+01  -3.978451e+01
  -2.081290e+01  -2.981584e+01
  -9.771864e+01  -1.848485e+01
  -7.055897e+01  -3.915231e+01
   7.773167e+01  -3.629629e+01
   1.836817e+02   1.920010e+00
   1.538699e+02   5.509653e+01
   1.857419e+01   1.032414e+02
  -1.353086e+02   8.133298e+01
  -1.379504e+02  -1.495197e+01
  -4.442033e+01  -4.161191e+01
   5.286177e+01  -3.156135e+01
   1.008675e+02   7.778563e+00
  -3.680454e+00   7.217228e+01
  -4.705888e+01   4.089450e+01
  -6.975354e+01  -1.118294e+01
  -4.391183e+01  -5.828820e+01
  -6.868110e+01  -4.740455e+01
  -4.785585e+01  -4.492673e+00
  -7.888156e+01   3.468791e+01
  -2.985951e+01  -8.101980e+01
   4.488995e+01  -1.422472e+02
   1.404175e+02  -1.358577e+02
   1.887562e+02  -1.057081e+01
   1.527842e+02   1.023282e+02
  -2.091602e+01   1.178408e+02
  -1.149229e+02   7.053255e+01
  -4.866155e+01  -3.433069e+01
   5.903698e+01   6.279531e+00
   1.214571e+02   4.100791e+01
   9.214610e+01   1.052299e+02
  -1.092195e+02   1.335463e+02
  -1.952157e+02   6.257575e+01
  -1.801284e+02  -6.080168e+01
  -5.543084e+01  -5.568417e+01
   3.414721e+01  -5.952024e+01
   4.786517e+01  -1.180699e+01
  -2.717257e+01   2.016958e+01
  -1.017816e+02  -1.283048e+01
  -3.538174e+01  -1.055899e+02
   8.140623e+01  -1.442137e+02
   1.681595e+02  -5.303390e+01
   1.168113e+02   7.646845e+01
  -6.714586e+00   2.112126e+02
  -8.977269e+01   1.459157e+02
  -1.045786e+02   6.707316e+00
  -5.728706e+01  -1.305188e+02
   4.671258e+01  -9.991067e+01
   5.739511e+01  -2.923899e+00
   4.636941e+01   9.906027e+00
   2.115403e+01   1.179486e+01
  -1.949352e+01  -3.219133e+00
   3.514167e+01   1.661694e+01
   9.421157e+01   9.149407e+01
   2.959714e+01   9.479047e+01
  -4.265283e+01   4.284711e+01
  -1.414523e+02  -1.707112e+01
  -1.278267e+02  -1.075799e+02
  -4.532558e+01  -4.234086e+01
   8.159919e+01  -6.144223e+00
   4.834212e+01   9.017755e+00
   8.993030e+00  -7.637493e-01
  -3.137693e+01  -1.675194e+01
  -6.725620e+00   5.740255e+00
   3.314377e+01  -1.735437e+01
   1.427979e+00  -3.137422e+00
  -8.370761e+01  -2.171522e+01
  -1.059543e+02  -1.329356e+01
  -2.952342e+01  -6.590801e+01
   1.166989e+02  -1.256551e+02
   1.912273e+02  -6.522120e+01
   1.376470e+02   7.856577e+01
   2.588409e+01   1.409661e+02
  -1.054552e+02   1.501621e+02
  -1.255189e+02   5.127580e+01
  -1.010383e+02  -3.437483e+01
  -3.699022e+01  -2.524532e+01
  -1.389575e-01  -1.836980e+01
  -5.497601e+01   1.338838e+01
  -4.214294e+01  -3.488187e+01
  -2.741837e+01  -1.137844e+02
   2.835921e+01  -7.173119e+01
   5.791867e+01   1.604962e+01
   7.770184e+01   9.190713e+01
   2.141310e+00   1.339899e+02
  -6.251109e+01   3.349635e+01
  -1.029172e+02  -6.442134e+01
  -4.579512e+01  -1.256275e+02
   6.243926e+01  -9.695620e+01
   8.005003e+01   6.697255e+00
   4.441549e+01   6.249434e+01
  -2.802976e+01   4.711802e+01
  -5.811281e+01   1.127332e+01
   1.412301e+01  -1.165493e+01
   4.378878e+01  -1.951518e+01
   2.481569e+01  -7.003755e-02
  -8.645101e+01   8.290039e+01
  -1.188239e+02   6.504457e+01
  -8.890991e+01  -2.986401e+01
   1.989846e+01  -8.515867e+01
   8.211588e+01  -1.050884e+02
   6.363766e+01  -6.118781e+00
   1.869256e+01   4.188612e+01
  -8.651265e+00   5.978193e+01
  -9.880730e+00  -2.105359e+01
  -4.034122e+01  -3.338633e+01
  -1.380629e+01  -5.008941e+01
   3.526606e+01   1.539252e+01
   3.228777e+01   1.239803e+01
   1.823200e+01  -8.155634e+00
   1.256020e+01  -7.737940e+00
  -7.546038e+00  -6.868469e+00
  -6.826133e+00   2.387922e+01
  -2.489554e+00   5.959812e+01
  -6.410533e+01   3.374494e+01
  -6.151609e+01  -1.523105e+01
  -1.722548e+01  -6.178314e+01
   6.269407e+01  -1.674511e+01
   6.379853e+01   3.950262e+01
   8.450340e+00   5.923094e+01
  -3.540216e+01   2.018346e+01
  -9.356842e+01  -8.026153e+00
  -6.201627e+01  -5.317597e+01
   1.362047e+01  -5.938390e+01
   6.866828e+01  -3.600272e+01
   3.895382e+01  -2.626026e+01
  -4.184312e+01  -8.705237e+00
  -4.508412e+01  -2.044843e+01
   2.762740e+01   1.672428e+01
   8.368573e+01  -1.422625e+01
