
 $NMID
 id='ANONYMOUS ', fmtdat='(2E16.6)'
 volume=1.0
 tramp=1.0
 $END
  -3.997717e+03   1.137123e+02
  -2.418998e+03  -2.507792e+03
   5.949443e+02  -2.569168e+03
   2.018747e+03  -1.152222e+03
   9.456385e+02   4.544834e+02
  -3.915654e+02   4.162134e+02
  -8.349454e+02  -2.513606e+02
  -2.886513e+01  -9.249718e+02
   7.407924e+02  -8.492865e+02
   9.679495e+02  -2.178160e+01
   4.060817e+02   7.388687e+02
  -6.680768e+01   7.778103e+02
  -5.441815e+02   2.258677e+02
  -3.890749e+02  -6.117823e+02
   2.609995e+02  -7.973788e+02
   5.712451e+02  -4.966100e+01
   3.377205e+02   6.320478e+02
  -3.054038e+02   7.071417e+02
  -6.440872e+02   1.360300e+02
  -3.493083e+02  -2.931052e+02
  -6.433657e+01  -3.720606e+02
   1.756035e+02  -2.612479e+02
   1.459982e+02  -7.283036e+01
  -1.293808e+02  -2.894972e+01
  -2.818553e+02  -1.785728e+02
  -8.959067e+01  -3.570156e+02
   4.413960e+02  -3.075195e+02
   7.849225e+02   1.133891e+02
   3.621083e+02   4.699053e+02
  -3.187192e+02   3.738652e+02
  -7.030437e+02  -3.285367e+01
  -2.578173e+02  -4.391983e+02
   2.649509e+02  -4.778374e+02
   5.475801e+02  -1.576910e+02
   4.226507e+02   2.103816e+02
   1.187265e+02   4.213377e+02
  -1.698358e+02   2.559367e+02
  -7.933225e+01  -1.342271e+02
   1.711303e+02  -2.967412e+02
   3.640172e+02   6.166108e+01
   2.006473e+02   6.361364e+02
  -2.732935e+02   6.093064e+02
  -5.961012e+02   1.213887e+02
  -2.707489e+02  -4.453120e+02
   1.870974e+02  -3.478944e+02
   3.397735e+02   2.880976e+02
  -6.735499e+01   4.944921e+02
  -5.273699e+02   1.306604e+02
  -5.692091e+02  -3.828455e+02
  -2.034798e+02  -5.466380e+02
   3.761743e+02  -3.708078e+02
   6.090490e+02   5.555981e+01
   3.649976e+02   3.943918e+02
  -1.367687e+02   3.035397e+02
  -4.256679e+02   1.054438e+02
  -2.456389e+02  -1.512816e+02
   7.327435e+01  -6.987179e+01
   1.096490e+02   8.162982e+01
  -1.068194e+02   1.527880e+02
  -3.284774e+02  -5.379925e+01
  -1.635906e+02  -2.498292e+02
   1.859853e+02  -2.607290e+02
   3.280025e+02  -8.491812e+01
   2.312493e+02   9.620993e+01
  -2.254436e+01   2.514541e+02
  -2.609471e+02   3.488719e+02
  -3.564972e+02   1.756469e+02
  -2.944973e+02  -1.303008e+02
  -4.856475e+01  -4.290967e+02
   7.524211e+01  -3.774378e+02
   8.572229e+01  -1.553972e+02
   3.479174e+01  -1.868855e+01
   9.164261e+01  -8.079736e+01
   2.220492e+02  -9.388246e+01
   2.419824e+02   7.598569e+01
   1.150128e+02   2.704939e+02
  -4.314808e+01   2.547527e+02
  -1.863561e+02  -1.613413e+01
  -1.715467e+02  -2.417789e+02
   9.657701e+00  -2.974033e+02
   3.019914e+02  -1.122582e+02
   3.114973e+02   1.951787e+02
   1.956771e+02   3.493487e+02
  -5.659899e+01   2.951232e+02
  -1.980188e+02   1.192004e+02
  -1.445617e+02   1.793104e+01
  -1.312966e+02   2.729437e+01
  -2.226025e+02   4.117894e+01
  -3.928507e+02  -7.103427e+01
  -3.318266e+02  -3.114340e+02
   2.336420e+01  -4.471615e+02
   3.595259e+02  -4.202555e+02
   4.556164e+02  -2.209662e+02
   3.276623e+02   8.307487e+01
   4.733258e+01   2.498346e+02
  -1.103787e+02   2.464771e+02
  -5.378072e+01   5.714314e+01
   1.350900e+02  -7.513011e+01
   1.967751e+02   3.744591e+01
   5.812512e+01   1.783834e+02
  -1.434414e+02   1.755175e+02
  -1.827522e+02  -4.366029e+01
   1.686877e+01  -1.514104e+02
   1.715423e+02  -6.702616e+00
   1.583890e+02   2.685573e+02
  -2.089040e+01   3.746481e+02
  -2.329195e+02   1.932364e+02
  -3.520263e+02  -6.436495e+01
  -2.811780e+02  -2.837582e+02
  -1.227331e+02  -2.430118e+02
   1.041600e+02  -1.699447e+02
   1.870479e+02   6.553267e+00
   5.776111e+01   1.389324e+01
  -3.935084e+01  -2.407410e+01
  -2.138073e+01  -1.150318e+02
   1.286081e+02  -9.359391e+01
   1.770386e+02   6.179221e+00
   7.731043e+01   1.015541e+02
  -9.872709e+01  -7.790048e+00
  -6.194127e+01  -9.864153e+01
   1.532360e+02  -8.580318e+01
   2.844797e+02   1.146728e+01
   2.886579e+02   1.515094e+02
   8.150481e+01   2.709480e+02
  -1.878732e+02   2.606332e+02
  -3.342266e+02   1.355157e+02
  -1.692863e+02  -6.109007e+01
   2.556145e+01  -1.170202e+02
   7.021279e+01   7.665506e+00
  -3.602797e+01   1.132337e+02
  -1.929933e+02   5.123897e+01
  -1.697701e+02  -1.116122e+02
  -5.473350e+01  -2.120306e+02
   9.105561e+01  -1.379956e+02
   1.442033e+02  -2.601588e+01
   7.413201e+01   2.988460e+01
  -3.076009e+01  -1.568214e+01
  -4.827222e+01  -8.071336e+01
   7.164800e+01  -1.150203e+02
   2.284979e+02  -2.574807e+01
   1.671491e+02   1.248859e+02
   1.749497e+01   2.072965e+02
  -1.521648e+02   1.744401e+02
  -1.928834e+02   3.243184e+01
  -5.480835e+01  -7.314120e+01
   8.042014e+01  -1.256894e+02
   5.305068e+01  -1.285548e+01
   2.450027e+01   3.684076e+01
  -4.066425e+01   2.735856e+01
  -2.517974e+01   2.072957e+00
   9.867879e+01  -2.068887e+01
   8.804948e+01   7.411151e+01
  -1.640188e+01   1.573904e+02
  -1.571672e+02   1.506483e+02
  -2.442159e+02   1.527069e+00
  -2.106407e+02  -1.719128e+02
  -6.180777e+01  -2.110188e+02
   9.717341e+01  -1.814958e+02
   1.472477e+02  -3.670962e+01
   6.278499e+01   6.383986e+01
   3.337030e+01   2.056180e+01
   5.450375e+01   7.482318e+00
   9.010159e+01  -2.042555e+01
   7.185373e+01   5.986073e+01
  -5.358845e+01   8.207656e+01
  -1.174727e+02   5.128504e+01
  -6.758674e+01  -3.472263e+01
   4.595963e+01  -1.113423e+02
   1.603434e+02  -7.824541e+01
   1.813475e+02   8.524952e+01
   6.599995e+01   2.236277e+02
  -1.051846e+02   1.943739e+02
  -2.912352e+02   9.396735e+01
  -2.480445e+02  -8.568523e+01
  -1.281267e+02  -1.661832e+02
   3.204967e+01  -1.326103e+02
   1.133154e+02  -9.829505e+01
   5.507271e+01  -7.773731e+01
   6.684158e+01  -9.289221e+01
   1.159727e+02  -7.765609e+01
   1.495864e+02   2.174721e+01
   1.027977e+02   1.309438e+02
   3.643861e+01   2.277421e+02
  -7.980251e+01   1.537592e+02
  -1.706921e+02   3.653015e+01
  -1.267324e+02  -9.930819e+01
  -4.824145e-01  -1.435185e+02
   7.489904e+01  -8.296114e+01
   6.075545e+01   4.468945e-01
  -9.564793e+00   5.333138e+01
  -2.858064e+00   3.724348e+01
   3.231565e+01   3.020945e+01
   8.493484e+01   2.405515e+00
   5.348961e+01   5.512112e+01
  -7.943436e+01   1.678137e+01
  -1.921961e+02  -1.010165e+01
  -1.594055e+02  -4.650310e+01
  -1.391747e+01  -1.065789e+02
   1.513920e+02  -5.170480e+01
   1.384664e+02   1.132212e+01
   6.384573e+01   6.100763e+01
  -5.171123e+01   3.756873e+01
  -7.481128e+01  -2.404745e+01
   1.152773e+01  -8.706068e+01
   7.116729e+01  -4.103978e+01
   6.430271e+01   1.927211e+01
   7.282720e+01   4.563853e+01
   2.807735e+01   6.327483e+01
   4.074527e+01  -2.274537e+01
   6.268063e+01   1.439165e+01
   3.083479e+01   7.452945e+01
  -2.017189e+01   1.594629e+02
  -1.262304e+02   1.508244e+02
  -1.835850e+02   3.777817e+01
  -1.265998e+02  -5.098877e+01
  -9.319363e+00  -1.236616e+02
   5.971301e+01  -7.442541e+01
   8.156040e+01   1.739215e+01
  -5.585944e+01   3.847781e+01
  -1.198646e+02  -3.319234e+01
  -6.354413e+01  -1.227929e+02
   1.054870e+02  -1.176155e+02
   1.964779e+02  -4.764593e+01
   1.547401e+02   1.858866e+01
   9.828213e-01   1.026162e+02
  -7.320217e+01   5.826597e+01
  -4.055634e+01   6.741010e+00
   4.961653e+01  -5.698925e+01
   6.177512e+01   2.093862e+01
   5.134657e+01   1.137709e+02
  -8.977452e+01   1.728322e+02
  -1.502065e+02   5.162114e+01
  -1.153115e+02  -6.842536e+01
   4.619539e+00  -1.869560e+02
   1.070558e+02  -1.283372e+02
   1.234893e+02   2.326757e+01
   5.023893e+01   9.664677e+01
  -2.910607e+01   9.451753e+01
  -4.066873e+01   1.690718e+01
  -6.775696e+01  -2.853106e+01
  -3.446300e+01  -3.685843e+00
   4.211392e-01   2.341903e+01
  -1.538205e+01  -4.453979e+01
  -2.931499e+01  -1.000089e+02
  -3.876332e+01  -1.200948e+02
   4.888724e+01  -6.368755e+01
   1.157597e+02   2.820834e+01
   1.318978e+02   6.743732e+01
   5.206766e-01   4.351586e+01
  -9.376500e+01   2.606279e+01
  -8.265743e+01   1.696368e+01
   2.218990e+00  -9.444902e+00
   2.917801e+01  -2.697688e+01
   1.291344e+01  -3.906885e+00
  -2.020323e+01   5.637533e+00
  -1.614398e+01   4.111339e+01
   8.180920e+01  -7.574953e+00
   1.050861e+02   1.186623e+01
   1.412525e+01   8.514951e+01
  -7.990778e+01   1.127666e+02
  -1.816245e+02   6.191339e+01
  -1.504781e+02  -9.255825e+01
  -3.568577e+01  -1.454705e+02
   8.736519e+01  -1.249140e+02
   1.490276e+02  -8.540984e+01
   8.858733e+01   3.642451e+01
   2.698583e+01   5.249427e+01
   1.364025e+01   1.829508e+01
   2.560305e+01   2.162180e+01
   2.964009e+01   5.720356e+01
   1.930297e+01   1.084706e+02
  -4.204999e+01   6.114581e+01
  -8.252967e+01  -1.830067e+01
  -9.855821e+01  -1.064839e+02
  -1.309627e+01  -9.209692e+01
   7.263416e+01  -1.962277e+01
   1.139405e+02   7.781543e+01
   6.991910e+01   1.009826e+02
  -8.420012e+01   6.835286e+01
  -7.824671e+01  -3.128258e+01
  -4.862600e+01  -7.114544e+01
   3.427339e+01  -4.668147e+01
   2.452831e+01  -3.382067e+01
  -1.742764e+01   2.153356e+01
  -6.482733e+01   8.183372e+00
   7.131508e+00  -4.207812e+01
   7.559932e+01  -7.799363e+01
   1.021728e+02  -4.419681e+01
   6.496978e+01   1.737900e+01
   2.960637e+00   7.441734e+01
  -5.654382e+01   9.727900e+01
  -2.682946e+01   3.406005e+00
   1.283543e-01  -4.835380e+01
   2.515233e+01  -3.361997e+01
   4.867046e+01   4.392384e+01
   3.832715e+01   6.370761e+01
   6.228165e-01   3.550174e+01
  -2.874025e+01   1.582028e+00
  -4.176157e+01  -1.128701e+01
  -1.508638e+00  -1.172116e+01
   4.107917e+00  -1.558963e+01
   7.704317e+00   2.557158e+01
   1.203160e+01  -2.358054e+01
  -4.755832e+00  -7.266358e+01
   3.752212e+01  -8.707510e+00
   5.422725e+01   4.432043e+01
  -1.924740e+01   3.551075e+01
  -3.254902e+01   1.905123e+01
  -4.829580e+01  -1.930424e+01
  -2.717257e+01  -7.001145e+01
   6.786520e+01  -4.142146e+01
   8.847278e+01   1.756422e+01
   6.042556e+01   4.794114e+01
  -2.786856e+01   3.082950e+01
  -6.729057e+01  -5.241744e-01
  -4.355230e+01   9.185982e+00
   2.637028e+01   1.276416e+01
   4.639540e+01  -9.210182e+00
  -1.705576e+01   3.182923e+01
  -8.659606e+01   5.232248e+01
