
 $NMID
 id='ANONYMOUS ', fmtdat='(2E16.6)'
 volume=1.0
 tramp=1.0
 $END
  -3.499933e+03  -1.933989e+01
  -2.018175e+03  -1.500973e+03
   4.468738e+02  -2.132783e+03
   1.591989e+03  -9.622572e+02
   7.449140e+02   2.625392e+02
  -3.403484e+02   3.680947e+02
  -6.722429e+02  -2.495062e+02
   1.894471e+01  -6.506156e+02
   6.197184e+02  -6.721917e+02
   6.616222e+02   5.349000e+01
   3.529026e+02   5.392401e+02
  -1.944363e+02   7.305461e+02
  -4.079257e+02   8.900027e+01
  -2.535012e+02  -5.249015e+02
   1.872956e+02  -5.670073e+02
   5.532778e+02   7.408233e+00
   2.633091e+02   5.263021e+02
  -1.786693e+02   6.352877e+02
  -4.661712e+02   2.029884e+02
  -3.545779e+02  -2.305444e+02
  -1.158879e+02  -3.728975e+02
   1.586094e+02  -2.235772e+02
   1.064493e+02  -4.503202e+01
  -1.325995e+02  -7.232482e-01
  -3.330758e+02  -1.836055e+02
  -1.135986e+02  -4.170023e+02
   4.425649e+02  -2.881804e+02
   6.851214e+02   2.075587e+02
   2.827100e+02   4.531301e+02
  -3.718272e+02   2.795044e+02
  -6.422472e+02  -1.284278e+02
  -2.593562e+02  -4.378560e+02
   3.193961e+02  -4.125275e+02
   4.898911e+02  -1.530084e+02
   3.182635e+02   1.705827e+02
   2.791920e+01   3.491159e+02
  -5.921986e+01   1.526581e+02
  -3.822449e+01  -2.132934e+02
   2.445228e+02  -2.326753e+02
   2.998938e+02   9.083730e+01
   1.411062e+02   6.141301e+02
  -2.823546e+02   5.685786e+02
  -4.626865e+02  -1.685564e+01
  -2.412998e+02  -4.211839e+02
   2.195558e+02  -2.179240e+02
   1.951785e+02   2.815398e+02
  -8.083939e+01   4.050588e+02
  -4.523062e+02   8.305896e+01
  -4.669888e+02  -4.081258e+02
  -1.660488e+02  -5.213834e+02
   3.880655e+02  -2.789692e+02
   5.601880e+02   8.076982e+01
   3.711973e+02   2.845766e+02
  -1.031987e+02   2.420499e+02
  -3.486886e+02   2.951887e+01
  -2.229825e+02  -1.002184e+02
   4.335495e+01  -3.401714e+01
   9.600622e+01   1.121114e+02
  -1.087025e+02   1.394002e+02
  -2.497103e+02  -5.697010e+01
  -1.508877e+02  -2.390381e+02
   1.625306e+02  -2.315932e+02
   3.239154e+02  -7.687379e+01
   2.164563e+02   5.281867e+01
  -4.488258e+01   2.808534e+02
  -2.588579e+02   3.525773e+02
  -3.245107e+02   2.094903e+02
  -2.503119e+02  -1.592019e+02
  -6.126842e+01  -3.932118e+02
   1.029822e+02  -3.462894e+02
   9.850200e+01  -1.262797e+02
   3.538535e+01  -6.143874e+01
   7.821027e+01  -7.607382e+01
   2.224836e+02  -6.417185e+01
   2.556341e+02   8.000397e+01
   7.926069e+01   2.489976e+02
  -5.759229e+01   2.153301e+02
  -1.852812e+02  -1.217687e+01
  -1.428291e+02  -2.219595e+02
   2.619756e+01  -2.722738e+02
   2.407362e+02  -8.704112e+01
   3.014059e+02   1.562721e+02
   1.806444e+02   3.071289e+02
  -8.388463e+01   2.523973e+02
  -1.769533e+02   1.451064e+02
  -1.307910e+02   3.008178e+01
  -1.398003e+02   8.028885e+01
  -2.606488e+02   2.405044e+01
  -4.090393e+02  -5.743524e+01
  -2.659300e+02  -2.706164e+02
  -1.172437e+01  -4.139397e+02
   3.955583e+02  -3.821091e+02
   4.696024e+02  -1.510285e+02
   2.791565e+02   8.987934e+01
   4.774222e+01   2.543390e+02
  -1.304161e+02   2.058408e+02
  -3.786885e+01   5.756531e+01
   1.151059e+02  -6.080829e+01
   1.497022e+02   5.716598e+00
   3.270262e+01   1.393544e+02
  -1.389820e+02   8.871768e+01
  -1.516531e+02  -6.179801e+01
   2.458026e+01  -1.903370e+02
   1.640302e+02  -1.467788e+01
   1.562744e+02   2.202940e+02
  -2.741696e+01   3.201572e+02
  -2.247134e+02   1.858140e+02
  -3.397738e+02  -9.153808e+01
  -2.646867e+02  -2.391456e+02
  -4.233613e+01  -2.563810e+02
   1.192578e+02  -1.497038e+02
   1.691316e+02  -7.310049e+00
   4.277186e+01   2.631623e+01
  -3.756360e+01  -6.774183e+01
   3.559553e+00  -1.248304e+02
   1.311399e+02  -6.388410e+01
   1.353835e+02   9.815612e+00
   2.188861e+01   4.281483e+01
  -7.757531e+01   6.826599e+00
  -3.216302e+01  -6.600188e+01
   1.325827e+02  -8.164795e+01
   2.823557e+02   1.335204e+01
   2.541901e+02   1.190446e+02
   3.212619e+01   2.419289e+02
  -1.689108e+02   2.156064e+02
  -2.663141e+02   7.770372e+01
  -1.353590e+02  -3.890956e+01
   4.073032e+01  -7.456672e+01
   5.602564e+01  -3.752362e+00
  -1.501896e+01   9.529579e+01
  -1.645441e+02   3.104152e+01
  -2.071433e+02  -1.209691e+02
  -3.201712e+01  -2.194507e+02
   7.030021e+01  -1.275746e+02
   1.347810e+02  -2.015037e+01
   2.580877e+01   4.568319e+01
  -5.502631e+01  -2.871920e+01
  -1.965208e+01  -7.305592e+01
   7.056619e+01  -1.369059e+02
   1.991613e+02  -6.507547e+00
   1.641153e+02   1.229120e+02
   2.340355e+01   1.803260e+02
  -1.669377e+02   1.348260e+02
  -2.080910e+02   1.061115e+00
  -5.590921e+01  -7.480378e+01
   5.916805e+01  -8.428071e+01
   7.718323e+01  -1.760496e+01
   2.318351e+01   2.355719e+01
  -4.240366e+01   1.900753e+01
   1.916470e+01  -1.253945e+01
   6.333432e+01  -1.541320e+01
   9.298222e+01   8.289864e+01
  -1.626182e+00   1.642016e+02
  -1.611516e+02   1.572401e+02
  -2.209590e+02   2.400024e+01
  -1.891623e+02  -1.269600e+02
  -2.611143e+01  -2.262711e+02
   1.012139e+02  -1.460908e+02
   1.308034e+02   4.441785e+00
   6.654997e+01   3.355472e+01
   2.317200e+01   2.648665e+01
   4.410886e+01  -3.843070e+01
   8.110996e+01  -2.067902e+00
   6.137886e+01   7.724805e+01
  -4.625720e+01   1.039478e+02
  -1.035559e+02   2.619305e+01
  -8.218245e+01  -4.238633e+01
   2.029183e+00  -1.328872e+02
   1.423048e+02  -6.764300e+01
   1.805584e+02   6.222424e+01
   6.339984e+01   2.139256e+02
  -1.078086e+02   2.345817e+02
  -2.601740e+02   7.420696e+01
  -2.125298e+02  -6.588632e+01
  -9.471306e+01  -1.500174e+02
   3.507506e+01  -1.407768e+02
   8.636395e+01  -6.340497e+01
   9.854428e+01  -6.895352e+01
   3.662999e+01  -8.058982e+01
   9.961107e+01  -5.588831e+01
   1.253117e+02   2.066952e+01
   1.220033e+02   1.435006e+02
   2.002316e+01   2.103676e+02
  -1.155001e+02   1.772172e+02
  -1.368836e+02  -5.120479e+00
  -1.223260e+02  -1.254571e+02
  -9.261562e+00  -1.352232e+02
   7.368844e+01  -8.416597e+01
   6.085413e+01   2.437784e+01
  -5.136107e-01   3.407443e+01
  -5.079089e+01   4.817986e+01
   2.906144e+01   1.285427e+01
   8.449147e+01   2.676562e+01
   3.090687e+01   3.390320e+01
  -6.758693e+01   2.921956e+01
  -1.780481e+02   2.535842e+01
  -9.842112e+01  -5.774036e+01
  -3.858245e+01  -8.633289e+01
   1.267833e+02  -6.414201e+01
   1.562566e+02   1.637036e+00
   6.996910e+01   3.337155e+01
  -4.773905e+01   6.299744e+01
  -6.859451e+01  -2.468513e+01
  -1.104718e+01  -6.405549e+01
   4.463785e+01  -7.352034e+01
   7.386351e+01   2.085385e+01
   5.854409e+01   6.102385e+01
   4.106452e+01   3.934051e+01
   5.682042e+01   7.610766e+00
   6.201575e+01   4.185156e+01
   2.444929e+01   7.478309e+01
  -4.808102e+01   1.453308e+02
  -1.307440e+02   1.142385e+02
  -1.656423e+02   2.084040e+01
  -1.121496e+02  -1.064203e+02
   3.164395e+00  -1.235643e+02
   9.349177e+01  -5.141849e+01
   4.337818e+01   3.203271e+01
  -5.250680e+01   7.225932e+00
  -1.160086e+02  -3.242846e+01
  -7.248601e+01  -7.894389e+01
   7.581974e+01  -8.518388e+01
   1.881236e+02  -5.963333e+01
   1.680011e+02   3.999069e+01
   3.169349e+01   4.351424e+01
  -3.455804e+01   8.586209e+01
  -5.038859e+01  -2.254743e+00
   4.077302e+01  -2.500210e+01
   1.376276e+02   3.173625e+01
   3.659446e+01   1.177607e+02
  -6.160149e+01   1.264446e+02
  -1.370845e+02   3.839785e+01
  -1.143189e+02  -8.060867e+01
  -1.870510e+01  -1.766646e+02
   6.144186e+01  -1.516506e+02
   8.652745e+01   1.418397e+01
   4.491891e+01   1.306093e+02
  -4.844616e+00   1.001434e+02
  -4.588295e+01   2.220214e+01
  -1.732947e+01  -2.841078e+01
  -9.289782e+00  -1.068615e+01
  -1.870968e+01   2.869954e+01
  -3.667285e+00   5.632487e+00
  -6.943576e+01  -9.135789e+01
  -5.397781e+01  -1.172940e+02
   8.319372e+00  -3.835521e+01
   1.003993e+02   2.876713e+01
   9.588804e+01   8.711047e+01
   3.889197e+01   5.095217e+01
  -8.674475e+01   1.552360e+01
  -7.924706e+01   6.897548e+00
  -1.482979e+01  -2.394001e+01
   2.214322e+01  -2.408814e+01
   3.856905e+01  -9.186265e+00
  -2.208774e+01  -5.264875e+00
  -1.117826e+01  -5.449367e+00
   5.682327e+01   4.041675e+00
   4.538545e+01   3.120297e+01
   2.285593e+01   6.462243e+01
  -9.378018e+01   1.239471e+02
  -1.600979e+02   4.636463e+01
  -1.568060e+02  -6.331320e+01
  -2.540801e+01  -1.590493e+02
   6.311748e+01  -1.495888e+02
   1.300305e+02  -5.315980e+01
   7.294552e+01   1.731772e+01
   3.284437e+01   3.269165e+01
  -2.806452e+01   8.431650e+00
   5.826982e+00  -2.378480e+00
   4.963488e+01   6.562757e+01
  -5.204823e+00   8.309363e+01
  -1.716924e+01   6.431051e+01
  -7.359855e+01  -2.027924e+01
  -6.390799e+01  -1.007791e+02
  -3.665640e+01  -9.954762e+01
   5.920895e+01  -2.877619e+01
   9.053802e+01   6.141397e+01
   4.536536e+01   9.565692e+01
  -6.639045e+01   4.358323e+01
  -9.066345e+01  -2.409460e+01
  -4.246250e+01  -2.574922e+01
   2.375269e+01  -6.240139e+01
   9.573030e+00  -2.811672e+01
  -1.394766e+00   3.245385e+01
  -5.946814e+01  -1.096082e+00
  -8.583069e+00  -2.290649e+01
   6.360268e+01  -5.494621e+01
   1.045928e+02  -3.504295e+01
   7.229298e+01  -5.634826e+00
   1.302496e+01   7.398716e+01
  -4.223849e+01   6.938482e+01
  -3.014440e+01  -8.548260e+00
  -4.100371e+00  -5.733635e+01
   5.176513e+01  -1.834934e+01
   2.440940e+01   4.265695e+00
   2.303897e+01   6.928855e+01
  -2.500025e-01   2.101534e+01
  -2.766389e+01  -1.336197e+01
  -1.747346e+01  -3.036077e+01
  -4.262537e+01   6.109788e-01
  -1.192134e+01   2.954095e+01
   1.493259e+00  -1.063012e+01
   1.417586e+01  -1.892141e+01
   2.893206e+01  -4.163621e+01
   4.056332e+01  -3.318380e+01
   4.482025e+01   3.510600e+01
   2.471561e+01   2.603823e+01
  -1.918570e+01  -1.747526e+00
  -6.841848e+01  -2.128932e+01
  -2.212163e+01  -8.721904e+01
   6.570735e+01  -4.131757e+01
   9.420782e+01   2.515697e+01
   5.815630e+01   5.193115e+01
  -8.607993e+00   5.219321e+01
  -8.400372e+01   2.970596e+01
  -1.313693e+01   2.523510e+01
   6.193376e+01   1.872479e+01
   1.193377e+01   8.796889e+00
  -3.814234e+01   1.542032e+01
  -7.736766e+01   2.204976e+01
