
 $NMID
 id='ANONYMOUS ', fmtdat='(2E16.6)'
 volume=1.0
 tramp=1.0
 $END
   3.682955e+03   6.507345e+01
   2.438931e+03   2.017636e+03
  -3.845997e+02   2.444708e+03
  -1.595316e+03   1.175873e+03
  -1.036724e+03  -3.770787e+02
   3.356641e+02  -3.348061e+02
   5.242807e+02   2.951845e+02
   1.121515e+02   8.225143e+02
  -6.874841e+02   6.953419e+02
  -8.665268e+02  -4.000966e+01
  -4.722206e+02  -6.440005e+02
   9.445154e+01  -7.538690e+02
   4.344528e+02  -1.918799e+02
   3.509524e+02   5.743184e+02
  -1.790525e+02   6.663750e+02
  -5.039391e+02   5.027050e+01
  -2.930018e+02  -6.362109e+02
   2.092535e+02  -7.103770e+02
   6.035929e+02  -1.956371e+02
   4.026057e+02   2.421843e+02
   1.392706e+02   3.838967e+02
  -1.652530e+02   2.676977e+02
  -1.065379e+02   5.245478e+01
   1.557026e+02   5.842887e+01
   2.862575e+02   2.380564e+02
   4.927022e+01   3.673083e+02
  -4.354597e+02   2.845662e+02
  -6.450110e+02  -1.182708e+02
  -3.650069e+02  -4.407287e+02
   2.876509e+02  -3.517964e+02
   5.898878e+02   1.216293e+02
   2.644115e+02   4.086789e+02
  -2.486764e+02   4.392356e+02
  -4.868286e+02   1.180319e+02
  -3.456318e+02  -2.152674e+02
  -7.637954e+01  -3.305684e+02
   9.424153e+01  -2.439456e+02
   8.318199e+01   1.380158e+02
  -1.253429e+02   2.399040e+02
  -3.190962e+02  -6.371156e+01
  -1.699828e+02  -5.804690e+02
   2.551523e+02  -5.240544e+02
   4.857990e+02  -4.481071e+01
   1.929685e+02   4.504667e+02
  -2.215851e+02   2.559007e+02
  -3.322899e+02  -2.126993e+02
   1.028813e+02  -4.547152e+02
   4.565287e+02  -1.441357e+02
   5.189590e+02   3.574809e+02
   1.875549e+02   5.057571e+02
  -3.340567e+02   3.325554e+02
  -5.572066e+02  -6.543806e+01
  -4.019228e+02  -3.331388e+02
   1.168944e+02  -3.096300e+02
   3.806479e+02  -1.046882e+02
   2.717102e+02   8.359229e+01
  -4.427125e+01   6.650400e+01
  -1.098731e+02  -7.145272e+01
   1.158157e+02  -8.337975e+01
   2.922721e+02   5.212251e+01
   1.073451e+02   2.377506e+02
  -1.862141e+02   2.426363e+02
  -3.770221e+02   1.352697e+02
  -2.283612e+02  -6.248051e+01
   2.391832e+01  -2.964001e+02
   2.815692e+02  -3.221824e+02
   3.411952e+02  -1.832943e+02
   2.554538e+02   1.612407e+02
   3.704907e+01   3.683647e+02
  -6.847250e+00   3.523646e+02
  -4.997263e+01   1.717719e+02
  -5.290022e+01   2.357506e+01
  -1.055122e+02   8.567551e+01
  -2.084346e+02   7.081403e+01
  -2.520853e+02  -1.036115e+02
  -7.361503e+01  -2.661838e+02
   6.135770e+01  -2.398415e+02
   2.081399e+02   9.318575e+00
   1.147751e+02   2.479650e+02
  -2.070814e+01   2.817530e+02
  -2.535103e+02   6.228366e+01
  -3.014808e+02  -1.742308e+02
  -1.955617e+02  -3.238433e+02
   5.996501e+01  -2.520739e+02
   1.949982e+02  -1.288141e+02
   1.624890e+02  -2.660237e+01
   1.307077e+02  -2.577521e+01
   2.128893e+02  -4.735937e+01
   3.856457e+02   1.015193e+02
   3.245472e+02   2.984525e+02
  -4.909796e+01   4.222748e+02
  -3.596235e+02   4.093972e+02
  -4.906719e+02   1.761308e+02
  -3.315013e+02  -7.828978e+01
  -1.727011e+01  -2.748810e+02
   1.196044e+02  -2.226228e+02
   3.083182e+01  -3.355110e+01
  -1.219479e+02   6.661962e+01
  -1.693246e+02  -9.348103e+00
  -2.514801e+01  -1.786718e+02
   1.273848e+02  -1.152396e+02
   1.228268e+02   5.818160e+01
  -2.607588e+01   1.425791e+02
  -1.872072e+02   3.215985e+01
  -1.521478e+02  -2.322115e+02
   3.456550e+01  -3.686618e+02
   2.281397e+02  -1.804704e+02
   3.569757e+02   5.398037e+01
   2.980344e+02   2.374407e+02
   8.039092e+01   2.568222e+02
  -1.268635e+02   1.587327e+02
  -1.426688e+02   2.434043e+01
  -5.202863e+01  -1.829921e+01
   5.398134e+01   4.793058e+01
  -4.564624e-01   1.076961e+02
  -1.238332e+02   9.902321e+01
  -1.781411e+02  -3.283181e+01
  -5.657566e+01  -8.031374e+01
   8.087073e+01  -4.037721e+00
   4.764774e+01   9.351453e+01
  -1.483375e+02   1.056203e+02
  -2.879517e+02  -1.054288e+01
  -2.591098e+02  -1.863323e+02
  -2.485998e+01  -2.707902e+02
   2.182143e+02  -2.381589e+02
   2.577605e+02  -1.529297e+02
   1.696106e+02   3.880216e+01
  -1.743347e+01   9.996779e+01
  -7.202587e+01   4.002955e+00
   5.731759e+01  -9.177369e+01
   2.005999e+02  -4.513214e+01
   1.783583e+02   1.150381e+02
   4.999717e+01   1.779901e+02
  -7.183003e+01   1.589572e+02
  -1.319308e+02   4.265032e+01
  -9.120251e+01  -3.640477e+01
   3.945769e+01   2.891139e+00
   2.415936e+01   8.805147e+01
  -8.431522e+01   1.029643e+02
  -2.100012e+02   1.000592e+01
  -1.656820e+02  -1.330794e+02
  -9.485904e-01  -2.205456e+02
   1.525659e+02  -1.708851e+02
   1.620850e+02  -2.865688e+01
   5.478738e+01   6.440656e+01
  -3.282324e+01   1.176209e+02
  -6.585246e+01   1.385234e+00
  -1.542455e+01  -2.090759e+01
   3.853455e+01  -6.660478e+00
  -7.362655e+00   6.678466e-01
  -8.516123e+01   1.263013e+01
  -1.033006e+02  -8.578377e+01
  -8.619069e+00  -1.530894e+02
   1.549541e+02  -1.629147e+02
   2.203187e+02  -2.330852e+01
   2.018683e+02   1.913063e+02
   1.685143e+01   2.395528e+02
  -9.955705e+01   1.747730e+02
  -1.262192e+02   4.824225e+01
  -7.159175e+01  -6.955941e+01
  -1.735964e+01  -3.860195e+01
  -5.725978e+01  -2.224288e+00
  -9.359409e+01  -8.042829e+00
  -4.493567e+01  -5.187995e+01
   2.211378e+00  -8.259024e+01
   1.180012e+02  -5.088265e+01
   1.163691e+02   2.595483e+01
  -1.943317e+01   1.092282e+02
  -1.370967e+02   8.863415e+01
  -1.932925e+02  -5.715504e+01
  -8.901522e+01  -1.887020e+02
   1.173816e+02  -1.861424e+02
   2.746162e+02  -8.745557e+01
   2.235657e+02   8.441995e+01
   1.053335e+02   1.982600e+02
  -3.913643e+01   1.401495e+02
  -1.124627e+02   9.675239e+01
  -4.925759e+01   1.108512e+02
  -5.998032e+01   1.040741e+02
  -1.112871e+02   6.139391e+01
  -1.257611e+02  -3.207327e+01
  -1.356530e+02  -1.464965e+02
  -3.112134e+01  -2.386810e+02
   9.303289e+01  -1.670340e+02
   1.818238e+02  -2.471833e+01
   1.135814e+02   1.287248e+02
  -1.260339e+00   1.701674e+02
  -6.578226e+01   6.932641e+01
  -5.410211e+01  -1.323812e+01
  -4.324505e+00  -5.538942e+01
   5.015764e+00  -5.136196e+01
  -2.300420e+01  -1.141092e+01
  -7.686780e+01   7.031465e+00
  -5.820223e+01  -2.559366e+01
   8.040098e+01  -4.315923e+01
   1.482735e+02  -4.467534e+01
   1.493352e+02   5.621202e+01
   2.536968e+01   1.080289e+02
  -1.352435e+02   6.770188e+01
  -1.543093e+02  -2.463941e+00
  -6.079503e+01  -2.652229e+01
   5.660752e+01  -3.433031e+01
   8.250396e+01   1.624968e+01
  -1.562088e+01   6.667972e+01
  -6.335723e+01   6.141702e+01
  -3.475853e+01  -1.967981e+01
  -3.088196e+01  -4.376967e+01
  -5.060702e+01  -5.162985e+01
  -2.700897e+01   2.813138e+01
  -3.517011e+01  -1.654528e+01
  -5.555094e+01  -5.851189e+01
   2.660500e+01  -1.454809e+02
   1.248044e+02  -1.454747e+02
   1.748076e+02  -3.239102e+01
   1.293568e+02   7.404112e+01
  -1.855559e+01   1.410501e+02
  -8.814162e+01   9.891897e+01
  -5.580671e+01  -3.083092e+01
   5.986025e+01  -3.517027e+01
   1.326536e+02   3.053578e+01
   5.956658e+01   1.185385e+02
  -1.074412e+02   1.174141e+02
  -1.933751e+02   4.298862e+01
  -1.737192e+02  -2.941303e+01
  -4.008374e+01  -9.154564e+01
   7.193404e+01  -6.947841e+01
   9.067424e+01   2.660282e+01
  -4.364451e+01   1.511606e+01
  -7.198140e+01  -1.717457e+01
  -4.156581e+01  -1.272357e+02
   9.066319e+01  -1.533501e+02
   1.438465e+02  -7.646471e+01
   1.292067e+02   7.458606e+01
   4.487360e+00   1.880652e+02
  -9.603228e+01   1.092163e+02
  -1.291851e+02  -1.013336e+01
  -2.310603e+01  -9.760055e+01
   2.643636e+01  -1.088599e+02
   5.757833e+01  -2.940892e+00
   6.827309e+01   3.028646e+01
  -4.536204e+00  -2.621900e+00
  -1.414289e+01  -1.537984e+01
   2.592404e+01   4.621337e+01
   4.804709e+01   9.743887e+01
   3.225397e+01   1.023254e+02
  -4.764355e+01   4.212516e+01
  -1.333453e+02  -4.296924e+01
  -1.314605e+02  -7.316824e+01
  -1.049532e+01  -6.181575e+01
   7.333883e+01  -4.702795e+01
   7.724435e+01   2.169447e+01
   1.998829e+01   2.216413e+01
  -2.457798e+01   2.863467e+01
  -1.722759e+01   2.290071e+01
   6.157362e-01  -1.304837e+01
  -3.150585e+00  -1.582257e+01
  -4.905498e+01  -6.901156e+00
  -7.690003e+01  -1.635031e+01
  -1.015127e+01  -1.219186e+02
   8.599550e+01  -9.534657e+01
   1.676656e+02  -4.681568e+01
   1.542361e+02   9.004125e+01
   4.017299e+01   1.618477e+02
  -9.608637e+01   1.424385e+02
  -1.471723e+02   5.782405e+01
  -8.395819e+01  -2.337966e+01
  -4.302212e+01  -8.588395e+00
  -1.088139e+01   3.513906e+00
  -9.327836e+00   2.945426e+00
  -4.088422e+01  -3.316861e+01
  -1.428268e+01  -1.008828e+02
   5.070747e+01  -7.069057e+01
   7.380992e+01   3.410423e+01
   8.301048e+01   1.055522e+02
   1.567404e+01   1.158542e+02
  -7.882312e+01   2.289775e+01
  -1.128637e+02  -6.578816e+01
  -3.132413e+01  -1.179092e+02
   5.668490e+01  -6.971680e+01
   1.021530e+02   1.531098e+01
   5.807136e+01   6.197228e+01
  -5.431223e+01   5.596462e+01
  -1.551478e+01   3.821315e+01
   2.104204e+01   3.549018e+00
   6.065811e+01  -1.851331e+00
   1.210568e+01   4.309958e+01
  -5.942902e+01   8.500845e+01
  -1.166484e+02   8.234378e+01
  -7.439883e+01  -1.194199e+01
  -1.593313e+01  -9.095640e+01
   7.474315e+01  -8.706315e+01
   1.637009e+01  -1.332881e+01
   2.299071e+00   3.681460e+01
  -2.310683e+01   6.966399e+01
  -5.690056e+01  -3.583754e+01
  -2.692825e+01  -5.295604e+01
  -2.263822e+00  -3.794279e+01
   5.303013e+01   1.257121e+01
   6.674402e+01  -1.143602e+01
   1.946191e+00   1.336439e+01
   6.121376e+00  -1.894615e+01
   1.397701e+01  -7.519892e+00
   2.015039e+01   2.299201e+01
  -1.077274e+01   4.158970e+01
  -3.419737e+01   1.024186e+01
  -4.725559e+01  -4.865703e+01
   6.082983e+00  -7.406731e+01
   3.559837e+01  -2.485074e+01
   7.284827e+01   2.106408e+01
   1.452192e+01   4.659356e+01
  -6.399483e+01   5.470940e+01
  -1.017396e+02  -8.751085e+00
  -5.267818e+01  -5.025758e+01
   3.349916e+01  -3.256055e+01
   7.172061e+01  -3.038953e+01
   2.900495e+01  -7.453301e+00
  -2.894139e+01  -2.296979e+00
  -3.143201e+01   1.669007e+01
   1.442337e+01  -2.852316e+01
   8.640253e+01  -3.115355e+01
