
 $NMID
 id='ANONYMOUS ', fmtdat='(2E16.6)'
 volume=1.0
 tramp=1.0
 $END
  -3.560099e+03   3.161253e+02
  -2.293624e+03  -1.744019e+03
   3.345548e+02  -2.581100e+03
   1.490754e+03  -1.160539e+03
   9.129223e+02   2.658238e+02
  -1.500355e+02   4.009634e+02
  -6.069716e+02  -2.261942e+02
  -1.182723e+02  -7.556729e+02
   6.964992e+02  -7.078595e+02
   7.905992e+02   4.620411e+01
   4.675941e+02   6.824673e+02
  -1.162954e+02   7.611564e+02
  -4.044800e+02   1.393347e+02
  -3.681439e+02  -5.984299e+02
   1.711569e+02  -7.283659e+02
   5.620395e+02  -1.857274e+01
   3.283039e+02   5.988515e+02
  -2.210056e+02   6.115107e+02
  -5.392288e+02   2.071137e+02
  -4.635049e+02  -2.515984e+02
  -1.005442e+02  -3.929702e+02
   1.484746e+02  -2.758536e+02
   1.695197e+02  -5.561577e+01
  -1.973024e+02  -9.902589e+00
  -3.281878e+02  -1.855478e+02
  -1.285900e+02  -3.912522e+02
   4.309820e+02  -2.964897e+02
   7.643811e+02   1.541967e+02
   3.932159e+02   4.501830e+02
  -3.565916e+02   3.732984e+02
  -6.725871e+02  -6.939974e+01
  -2.418632e+02  -4.101034e+02
   2.794025e+02  -4.289984e+02
   4.942964e+02  -1.922727e+02
   4.021309e+02   1.755783e+02
   1.188313e+02   4.005371e+02
  -6.580303e+01   2.427575e+02
  -1.106737e+02  -1.191353e+02
   1.031337e+02  -3.048357e+02
   3.396029e+02   9.112421e+01
   1.386031e+02   5.914602e+02
  -2.792002e+02   5.943340e+02
  -4.670117e+02   6.936202e-01
  -2.288958e+02  -4.792168e+02
   1.585660e+02  -1.954943e+02
   2.678191e+02   3.255270e+02
  -6.625887e+01   5.058249e+02
  -5.017679e+02   1.161617e+02
  -5.675840e+02  -3.549063e+02
  -1.825471e+02  -5.922111e+02
   3.678541e+02  -3.408851e+02
   5.311069e+02   4.781196e+01
   3.601135e+02   2.824271e+02
  -1.783345e+01   3.461322e+02
  -4.195870e+02   8.395703e+01
  -2.084365e+02  -9.903037e+01
   2.554674e+01  -9.673301e+01
   9.952744e+01   8.186795e+01
  -1.040176e+02   1.412031e+02
  -3.241755e+02  -3.808811e+01
  -1.846362e+02  -2.374907e+02
   1.977627e+02  -2.498844e+02
   3.448628e+02  -1.396258e+02
   2.368794e+02   9.757188e+01
  -2.990659e+01   2.580962e+02
  -2.508412e+02   3.769862e+02
  -3.571137e+02   1.822252e+02
  -3.037343e+02  -1.346234e+02
  -1.148665e+02  -3.851737e+02
   8.626534e+01  -3.877594e+02
   2.979281e+01  -1.557009e+02
  -6.025940e-01  -8.708082e+01
   1.035023e+02  -9.829251e+01
   2.117880e+02  -8.671230e+01
   2.562029e+02   4.787303e+01
   1.447033e+02   2.321493e+02
  -7.852029e+01   2.408054e+02
  -2.016248e+02  -2.099121e+01
  -2.139836e+02  -2.392348e+02
   4.542481e+01  -2.886507e+02
   2.518018e+02  -1.115612e+02
   3.102818e+02   1.673654e+02
   1.743226e+02   3.727199e+02
  -7.044966e+01   2.810740e+02
  -2.256403e+02   1.524077e+02
  -1.301725e+02  -1.414237e+00
  -1.138049e+02   3.186339e+01
  -2.427795e+02   4.554072e+01
  -4.128561e+02  -6.850930e+01
  -3.632598e+02  -2.511577e+02
  -1.194333e+01  -4.639690e+02
   3.633937e+02  -4.098150e+02
   4.721946e+02  -1.892200e+02
   3.283090e+02   7.480603e+01
   2.353563e+01   2.636621e+02
  -1.075760e+02   2.143884e+02
  -5.901587e+01   2.963632e+01
   1.307867e+02  -7.852186e+01
   1.709456e+02   5.438950e+00
   2.586689e+01   1.972678e+02
  -1.373248e+02   1.826475e+02
  -1.510786e+02  -3.099232e+01
   1.934315e+01  -1.405454e+02
   1.495942e+02  -1.853089e+01
   1.476061e+02   2.523850e+02
  -2.190126e+01   3.647527e+02
  -2.332663e+02   1.972005e+02
  -3.816032e+02  -7.745153e+01
  -2.679148e+02  -2.357517e+02
  -1.037992e+02  -2.674145e+02
   1.200775e+02  -1.821592e+02
   1.461585e+02  -1.301861e+01
   5.155257e+01  -1.551533e+01
  -5.963745e+01  -8.125869e+01
  -1.557074e+01  -8.822521e+01
   1.001677e+02  -7.815839e+01
   1.269644e+02   3.537462e+01
   2.520023e+01   5.782236e+01
  -1.099424e+02  -5.696379e+00
  -5.452935e+01  -7.419754e+01
   1.361866e+02  -9.835634e+01
   2.979824e+02   2.319850e+00
   2.783240e+02   1.403104e+02
   5.500021e+01   2.565216e+02
  -1.838182e+02   2.582853e+02
  -2.927844e+02   1.077862e+02
  -1.855377e+02  -6.519462e+01
   8.621738e+00  -7.396019e+01
   8.254569e+01   9.291951e+00
  -2.219727e+01   1.091934e+02
  -1.984101e+02   4.710335e+01
  -1.654239e+02  -7.988209e+01
  -7.855829e+01  -1.976373e+02
   6.948102e+01  -1.726637e+02
   1.202399e+02  -3.756216e+01
   7.695279e+01   3.604645e+01
  -1.801263e+01  -6.097384e+00
  -4.757288e+01  -1.324651e+02
   7.624919e+01  -1.194814e+02
   2.137636e+02  -4.561160e+01
   1.973991e+02   1.084168e+02
   2.562336e+01   2.361254e+02
  -1.621441e+02   1.556106e+02
  -1.736754e+02   4.064800e+00
  -5.134018e+01  -9.629250e+01
   6.311339e+01  -1.097245e+02
   8.579003e+01  -5.260240e+01
   4.161796e+01  -8.531891e-01
  -2.659838e+01   5.573433e+01
   2.373245e+01  -3.977411e+01
   6.268920e+01   7.395349e+00
   1.042145e+02   1.026752e+02
   1.737713e+00   1.965582e+02
  -9.052540e+01   1.677079e+02
  -2.565046e+02   8.484690e+00
  -2.251034e+02  -1.657662e+02
  -4.037190e+01  -2.481297e+02
   1.170764e+02  -1.508666e+02
   1.240614e+02  -3.031886e+01
   9.061829e+01   6.302034e+01
   3.085509e+01   2.915097e+01
   5.170790e+01   7.841424e+00
   6.645870e+01  -2.213584e+01
   4.777123e+01   5.637303e+01
  -4.914531e+01   9.996592e+01
  -8.723683e+01   5.935869e+01
  -8.052649e+01  -3.865763e+01
  -3.379499e+00  -1.159610e+02
   1.717021e+02  -9.141968e+01
   2.274691e+02   6.064435e+01
   7.965864e+01   2.037076e+02
  -1.314315e+02   2.346237e+02
  -2.583475e+02   7.911536e+01
  -2.563460e+02  -9.377063e+01
  -1.014544e+02  -1.680610e+02
   2.953423e+01  -1.284067e+02
   9.710845e+01  -6.939826e+01
   7.041483e+01  -5.198255e+01
   5.550587e+01  -1.118456e+02
   1.116438e+02  -8.475177e+01
   1.322972e+02   6.563430e+00
   7.483606e+01   1.302097e+02
   4.112492e+01   1.940092e+02
  -8.703128e+01   1.785850e+02
  -1.749503e+02  -7.520561e-02
  -1.208297e+02  -1.269034e+02
  -2.082422e+01  -1.516959e+02
   8.595329e+01  -8.527354e+01
   4.896004e+01   2.383728e+01
   3.069255e+01   2.854099e+01
  -1.367861e+01   4.722424e+01
   4.518926e+01   1.769155e+00
   7.532886e+01   2.403396e+01
   4.030700e+01   3.005675e+01
  -4.450833e+01   3.140729e+01
  -1.900194e+02  -2.323209e+00
  -1.779867e+02  -5.686184e+01
  -2.629385e+01  -1.056495e+02
   1.414916e+02  -7.413048e+01
   1.236484e+02  -6.901272e+00
   4.744661e+01   5.198288e+01
  -6.096562e+01   4.838116e+01
  -8.427412e+01  -1.680810e+01
  -3.075892e+01  -6.014317e+01
   3.825644e+01  -9.467717e+01
   5.390364e+01   1.744120e+00
   3.678224e+01   4.583477e+01
   4.521191e+01  -8.782089e+00
   4.892100e+01  -2.151196e+00
   8.162811e+01   4.733452e+00
   5.459045e+01   5.591658e+01
  -2.220458e+01   1.537585e+02
  -1.216363e+02   1.496207e+02
  -1.761617e+02   1.794211e+01
  -1.347309e+02  -8.052750e+01
  -2.961911e+01  -1.197746e+02
   9.581789e+01  -6.665936e+01
   7.326523e+01   1.677998e+01
  -7.999002e+01   1.436548e+01
  -1.416171e+02  -2.929237e+01
  -7.001045e+01  -1.161086e+02
   8.713754e+01  -1.301165e+02
   2.106665e+02  -3.198753e+01
   1.582827e+02   4.833659e+01
   2.933664e+01   1.035868e+02
  -9.471202e+01   7.529726e+01
  -4.432942e+01   2.946758e+00
   3.205269e+01  -4.818772e+01
   9.797754e+01   3.446530e+01
   3.169610e+01   1.151232e+02
  -7.982046e+01   1.457640e+02
  -1.519658e+02   6.862340e+01
  -1.195627e+02  -7.492325e+01
  -7.126562e+00  -2.055779e+02
   8.826534e+01  -1.537273e+02
   8.237433e+01   1.532623e+00
   6.905027e+01   1.225308e+02
  -2.989223e+00   1.082178e+02
  -5.104426e+01   2.338502e+01
  -5.888951e+01  -2.029587e+01
  -1.403267e+01   2.258514e+01
   9.263573e+00   2.648209e+01
  -1.872092e+01  -3.778406e+00
  -4.508658e+01  -9.511184e+01
  -3.455469e+01  -1.140638e+02
   2.451824e+01  -6.884724e+01
   1.253702e+02   3.982466e+01
   1.330452e+02   6.518529e+01
   3.201872e+01   4.806428e+01
  -8.467557e+01   1.996064e+01
  -9.915103e+01   1.789604e+01
   3.749178e+00  -2.507074e+00
   3.999732e+01  -5.815184e+00
   7.026022e-01  -2.574158e+01
  -3.053746e+01  -4.256088e+01
  -4.885290e+00   2.308146e+01
   7.653701e+01  -3.993735e+00
   1.052469e+02   1.896449e+01
  -1.830535e+00   8.892270e+01
  -1.034411e+02   1.361136e+02
  -2.065795e+02   7.089919e+01
  -1.364772e+02  -5.222336e+01
  -7.845825e+00  -1.648772e+02
   7.424578e+01  -1.823778e+02
   1.036653e+02  -6.709669e+01
   8.896021e+01   2.534558e+01
   1.434144e+01   3.115318e+01
  -5.662160e-01   1.044769e+01
   2.525913e+01   6.625698e-01
   4.794670e+01   4.447249e+01
   1.684129e+01   8.555308e+01
  -5.241285e+01   6.278197e+01
  -8.195846e+01  -4.742843e+01
  -6.931411e+01  -1.142418e+02
  -9.577175e+00  -1.057584e+02
   6.458059e+01  -3.474879e+01
   1.167987e+02   5.809520e+01
   4.595660e+01   9.871329e+01
  -5.310256e+01   5.251960e+01
  -1.058796e+02   8.554273e+00
  -3.073572e+01  -5.284964e+01
   2.454883e+01  -6.203134e+01
   3.106667e+01  -1.427687e+01
  -2.853323e+01   4.510762e+01
  -6.351886e+01   1.657295e+01
  -1.458612e+01  -2.726607e+01
   7.250338e+01  -1.036911e+02
   1.085145e+02  -5.550370e+01
   5.616319e+01   8.616184e+00
  -3.128432e+01   7.013404e+01
  -3.829401e+01   6.558191e+01
  -3.472332e+01   2.560270e+01
  -3.097840e+01  -4.901923e+01
   1.848300e+01  -4.234734e+01
   6.983756e+01   4.260532e+00
   1.340635e+01   5.689964e+01
  -1.037865e+01   3.902662e+01
  -5.674465e+01  -1.532335e+01
  -4.389708e+01  -1.490394e+01
  -1.151081e+01   2.885154e+00
  -8.882963e+00   1.482975e+01
   1.982028e+01  -3.676245e+00
   1.931224e+01  -5.668527e+01
   2.157919e+00  -5.419020e+01
   4.451255e+01  -1.581862e+01
   2.849636e+01   3.326884e+01
   1.102429e+01   4.170302e+01
  -3.164588e+01   2.930692e+01
  -5.075770e+01  -1.907554e+01
  -9.172933e+00  -9.077146e+01
   3.069524e+01  -4.815510e+01
   9.432787e+01  -7.498194e+00
   3.733674e+01   5.127703e+01
  -3.259086e+01   3.874793e+01
  -8.374920e+01   2.326042e-01
  -3.022994e+01   1.878413e+01
   2.436249e+01  -8.759472e-01
   5.422377e+01  -8.901096e+00
  -2.984174e+01   2.650879e+01
  -8.496313e+01  -2.191416e+00
