
 $NMID
 id='ANONYMOUS ', fmtdat='(2E16.6)'
 volume=1.0
 tramp=1.0
 $END
  -4.078786e+03  -4.623435e+01
  -2.275295e+03  -2.563313e+03
   6.228193e+02  -2.561624e+03
   2.135139e+03  -1.098694e+03
   1.038517e+03   5.314146e+02
  -6.664787e+02   6.005266e+02
  -9.637277e+02  -4.738442e+02
   1.091382e+02  -9.226752e+02
   6.702148e+02  -8.185293e+02
   9.614901e+02  -1.045517e+00
   4.923216e+02   8.259455e+02
  -1.943558e+02   8.375558e+02
  -6.620997e+02   1.738398e+02
  -3.938176e+02  -6.653353e+02
   2.213173e+02  -7.634862e+02
   6.058335e+02  -3.864124e+01
   3.094354e+02   6.810839e+02
  -3.251082e+02   6.888460e+02
  -5.495819e+02   1.117815e+02
  -3.754076e+02  -3.360556e+02
   2.616124e+01  -3.899362e+02
   2.413510e+02  -2.244838e+02
   1.744716e+02  -3.296428e+01
  -1.621160e+02   1.813563e+01
  -3.843027e+02  -1.485715e+02
  -1.685608e+02  -3.599245e+02
   4.854866e+02  -3.728723e+02
   8.063146e+02   1.617511e+02
   4.011802e+02   5.082238e+02
  -3.791880e+02   4.268037e+02
  -6.983950e+02   1.134154e+01
  -3.060856e+02  -4.933611e+02
   2.694568e+02  -4.918864e+02
   5.477124e+02  -1.392466e+02
   3.609017e+02   2.034687e+02
   7.357424e+01   4.470035e+02
  -1.889728e+02   2.406498e+02
  -7.142319e+01  -2.151662e+02
   2.025472e+02  -3.592700e+02
   3.617371e+02   7.248953e+01
   2.638217e+02   6.047203e+02
  -2.607555e+02   6.470420e+02
  -5.501570e+02   3.598493e+01
  -2.154203e+02  -5.029388e+02
   2.401774e+02  -2.723004e+02
   3.168876e+02   2.912516e+02
  -8.201028e+01   5.296697e+02
  -5.564822e+02   1.179131e+02
  -5.889803e+02  -3.978447e+02
  -1.411365e+02  -5.685926e+02
   3.598769e+02  -3.354677e+02
   6.049836e+02   7.562880e+01
   3.905087e+02   4.007033e+02
  -1.894096e+02   3.376798e+02
  -4.410869e+02   9.432400e+01
  -2.456189e+02  -1.520529e+02
   7.268061e+01  -7.054794e+01
   1.037612e+02   1.257656e+02
  -1.214067e+02   1.813763e+02
  -3.124193e+02  -5.106285e+01
  -1.698713e+02  -2.696812e+02
   1.679644e+02  -2.617920e+02
   3.471066e+02  -7.822007e+01
   2.031327e+02   1.203494e+02
  -3.119216e+01   2.437491e+02
  -2.331432e+02   3.208659e+02
  -3.626818e+02   2.001423e+02
  -2.626815e+02  -1.535856e+02
  -7.607373e+01  -4.106417e+02
   9.647501e+01  -3.954684e+02
   9.222855e+01  -1.264015e+02
   3.737868e+01  -9.418150e+00
   4.230121e+01  -7.183914e+01
   2.181500e+02  -1.400215e+02
   2.793532e+02   9.312863e+01
   1.080090e+02   2.843685e+02
  -7.630464e+01   2.092329e+02
  -2.127150e+02  -2.223022e+01
  -1.590473e+02  -2.344391e+02
   1.114397e+01  -2.859877e+02
   2.707670e+02  -9.826461e+01
   3.792794e+02   2.303924e+02
   1.830897e+02   3.552697e+02
  -8.808271e+01   3.255235e+02
  -1.936532e+02   1.290098e+02
  -1.482480e+02   3.228053e+01
  -1.275012e+02   5.426839e+01
  -2.755615e+02   7.733560e+01
  -4.076239e+02  -4.810574e+01
  -3.272524e+02  -2.813449e+02
  -4.318692e+01  -4.477366e+02
   3.525198e+02  -4.196424e+02
   4.553328e+02  -2.144587e+02
   3.079592e+02   9.298588e+01
   6.858301e+01   2.764780e+02
  -1.080761e+02   2.569817e+02
  -9.892053e+01   4.915526e+01
   1.271068e+02  -9.467246e+01
   1.808546e+02   1.876191e+01
   2.686686e+01   1.977804e+02
  -1.413525e+02   1.480038e+02
  -1.675829e+02  -5.852730e+01
  -1.766972e+01  -1.893079e+02
   1.975429e+02  -6.308502e+00
   1.777872e+02   2.238285e+02
  -1.295805e+01   3.325780e+02
  -2.283181e+02   1.939832e+02
  -3.141932e+02  -5.085712e+01
  -2.882571e+02  -2.653022e+02
  -1.204769e+02  -2.649112e+02
   9.620513e+01  -1.374615e+02
   1.659404e+02   6.931709e+00
   5.677085e+01   5.927995e+01
  -5.930918e+01  -5.747560e+01
  -2.366962e+01  -1.557031e+02
   9.450892e+01  -1.261739e+02
   1.532987e+02   1.873353e+01
   6.704293e+01   8.586029e+01
  -8.885892e+01   2.494744e+01
  -5.819061e+01  -7.153880e+01
   1.277189e+02  -8.197639e+01
   2.736530e+02   1.109859e+01
   2.681966e+02   8.461368e+01
   6.671404e+01   2.481967e+02
  -1.703284e+02   2.275620e+02
  -3.078273e+02   1.126219e+02
  -1.805212e+02  -6.038699e+01
   9.626746e+00  -8.728560e+01
   8.914494e+01  -2.566644e+01
  -7.591206e+00   8.434054e+01
  -1.950663e+02   2.511920e+01
  -1.838190e+02  -8.621541e+01
  -7.242455e+01  -2.013455e+02
   8.909541e+01  -1.465872e+02
   1.399599e+02  -4.783338e+01
   5.665501e+01   4.976189e+01
  -1.892887e+01   1.064969e+01
  -4.265539e+01  -7.660429e+01
   7.973752e+01  -1.136302e+02
   1.715887e+02  -3.804352e+01
   1.855969e+02   1.058750e+02
   1.140249e+01   2.302429e+02
  -1.557120e+02   1.708426e+02
  -2.066602e+02   1.692525e+01
  -5.495252e+01  -8.497411e+01
   7.626873e+01  -1.164245e+02
   7.065263e+01  -3.840649e+01
   1.515030e+01   5.582125e+00
  -2.137783e+01   6.897656e+00
   1.984735e+01  -6.281373e+00
   9.045515e+01   2.291931e+01
   7.830350e+01   8.263844e+01
   4.241036e+01   1.457472e+02
  -1.686672e+02   1.621026e+02
  -2.412845e+02   1.349208e+01
  -2.120206e+02  -1.771709e+02
  -7.868818e+01  -2.424699e+02
   1.180120e+02  -1.870867e+02
   1.397292e+02  -2.708597e+01
   7.008845e+01   5.737222e+01
   1.298824e+01   1.868098e+01
   3.290516e+01  -5.819826e+00
   6.604359e+01   1.042436e+00
   6.736516e+01   2.891330e+01
  -4.745273e+01   9.890944e+01
  -9.697309e+01   2.933887e+01
  -1.041467e+02  -5.775323e+01
  -1.320741e+01  -1.286969e+02
   1.456458e+02  -8.209223e+01
   1.827951e+02   5.865860e+01
   1.233488e+02   1.990710e+02
  -1.006655e+02   2.378395e+02
  -2.799384e+02   5.703200e+01
  -2.521513e+02  -1.056162e+02
  -1.006285e+02  -1.985845e+02
   5.230670e+01  -1.210920e+02
   1.241032e+02  -9.702807e+01
   8.051860e+01  -7.239299e+01
   7.826756e+01  -9.591119e+01
   1.025224e+02  -8.916525e+01
   1.261495e+02   2.677441e+01
   1.341429e+02   1.494278e+02
   2.962738e+01   2.456160e+02
  -8.095945e+01   1.932658e+02
  -1.786778e+02   1.116662e+00
  -1.300063e+02  -1.253517e+02
  -2.379124e+00  -1.581451e+02
   8.469150e+01  -1.127115e+02
   5.420959e+01  -2.115897e+01
  -1.010052e+01   5.155931e+01
  -1.121768e+00   1.176551e+01
   3.766569e+01   2.772030e+01
   6.671644e+01   2.958417e+01
   5.311782e+01   5.262812e+01
  -5.952141e+01   1.757962e+01
  -1.460798e+02  -8.987210e+00
  -1.754576e+02  -5.626252e+01
   1.257837e+01  -9.139234e+01
   1.331480e+02  -6.839032e+01
   1.423773e+02  -4.939005e+00
   4.287974e+01   7.184141e+01
  -3.988955e+01   3.365716e+01
  -6.870359e+01   1.404479e+00
  -1.785614e+01  -1.066631e+02
   4.214077e+01  -6.661105e+01
   2.904981e+01   9.085344e+00
   4.865508e+01   2.114912e+01
   3.790538e+01   4.786532e+01
   5.491231e+01  -8.538586e+00
   5.669096e+01   3.104303e+00
   3.066294e+01   7.114270e+01
  -2.397268e+01   1.008842e+02
  -1.231557e+02   1.368365e+02
  -1.591001e+02   1.955965e-01
  -1.262274e+02  -7.109079e+01
  -1.700627e+01  -1.238254e+02
   5.188525e+01  -8.740673e+01
   5.957570e+01   2.881849e+00
  -7.219265e+01   2.756986e+01
  -1.498348e+02  -2.611995e+01
  -7.926447e+01  -1.012858e+02
   7.986815e+01  -1.050972e+02
   1.861150e+02  -6.939138e+01
   2.014570e+02   4.926249e+01
   2.513533e+01   1.085257e+02
  -9.743985e+01   7.392041e+01
  -5.796417e+01   2.168628e+01
   2.201720e+01  -2.407184e+01
   8.652908e+01   2.471555e+01
   5.154202e+01   1.373933e+02
  -7.701033e+01   1.566695e+02
  -1.663567e+02   7.045878e+01
  -1.330497e+02  -6.979138e+01
  -1.354473e+01  -1.744677e+02
   9.386264e+01  -1.411170e+02
   9.653245e+01  -3.577100e-01
   4.874531e+01   1.069240e+02
  -4.365125e+00   1.114286e+02
  -2.721489e+01   2.196524e+01
  -4.727881e+01  -2.336625e+01
  -2.135640e+01   2.471438e+00
   8.433722e+00   3.030363e+01
  -2.324299e+01  -1.366552e+00
  -6.066701e+01  -8.298660e+01
  -4.053581e+01  -1.003810e+02
   6.506365e+01  -3.572299e+01
   1.644819e+02   5.151518e+01
   1.398906e+02   5.941176e+01
   2.654265e+00   8.287243e+01
  -1.046381e+02   1.644888e+01
  -8.173651e+01  -4.076233e+00
  -2.357810e+01   8.532793e+00
   3.034957e+01  -4.758269e+01
   2.470248e+01   1.964430e+00
  -1.014234e+01   5.899328e-01
   1.077762e+01   8.569594e+00
   7.812552e+01   1.957235e+00
   5.248941e+01   2.429552e+01
   2.484436e+01   1.017595e+02
  -1.169623e+02   9.906704e+01
  -1.886873e+02   6.496510e+01
  -1.450415e+02  -3.515074e+01
  -3.456202e+01  -1.963686e+02
   7.469052e+01  -1.397540e+02
   1.056779e+02  -7.103235e+01
   6.476609e+01   2.046756e+01
   1.923487e+01   3.449553e+01
   1.143598e+00  -1.549631e+01
   3.870072e+01   2.237505e+01
   2.462457e+01   4.611955e+01
   2.743794e+01   1.189289e+02
  -1.854454e+01   6.302412e+01
  -7.229531e+01  -2.087446e+01
  -1.088228e+02  -8.199051e+01
   3.425124e+00  -9.455273e+01
   6.213562e+01  -2.954504e+01
   1.001648e+02   8.798173e+01
   5.078825e+01   1.041507e+02
  -7.100120e+01   2.289376e+01
  -9.202148e+01  -2.469314e+01
  -4.271115e+01  -4.933279e+01
   2.577012e+01  -5.855222e+01
   4.376839e+01  -2.934042e+01
  -2.155004e+01   2.206278e+01
  -8.211039e+01   4.501682e+00
  -1.394311e+01  -4.048433e+01
   7.754980e+01  -7.954203e+01
   9.986905e+01  -6.242336e+01
   4.920292e+01   8.368232e+00
   1.019349e+00   8.323341e+01
  -3.936845e+01   7.903915e+01
  -2.069701e+01  -5.068616e+00
  -6.817673e+00  -7.017340e+01
   4.681049e+00  -2.843951e+01
   7.609652e+00   1.953606e+01
   4.081474e+01   4.081229e+01
   1.427474e+01   3.756327e+01
  -2.724348e+01  -8.744566e+00
  -4.572307e+01  -1.570801e+01
  -1.584262e+01  -1.445476e+01
   3.479308e-01  -7.561267e-01
  -3.903598e+00   5.826149e+00
  -5.377387e+00  -4.046729e+01
   1.388447e+01  -5.859561e+01
   4.258888e+01   1.389575e-01
   5.929507e+01   3.649262e+01
  -1.249646e+00   5.638235e+01
  -5.613039e+01   5.728297e+00
  -5.341535e+01  -4.388420e+01
  -1.911437e+01  -5.901442e+01
   4.106371e+01  -3.786172e+01
   7.598214e+01   2.081417e+01
   4.067837e+01   6.183940e+01
  -2.849735e+01   4.488187e+01
  -5.476331e+01  -8.248829e+00
  -4.072836e+01   2.327361e+01
   3.139465e+01   2.335094e+01
   5.117055e+01   6.277891e+00
  -2.180022e+01   3.527841e+01
  -8.507110e+01   2.753124e+01
