
 $NMID
 id='ANONYMOUS ', fmtdat='(2E16.6)'
 volume=1.0
 tramp=1.0
 $END
   3.799548e+03   3.420454e+02
   2.313535e+03   2.445233e+03
  -5.021451e+02   2.386031e+03
  -1.479672e+03   9.982228e+02
  -1.119954e+03  -3.158955e+02
   4.669005e+02  -3.330436e+02
   6.312896e+02   3.324957e+02
  -6.008260e+01   9.389242e+02
  -7.329134e+02   7.050854e+02
  -7.976869e+02  -6.377004e+01
  -4.492784e+02  -7.725479e+02
   1.514264e+02  -8.273953e+02
   5.071765e+02  -1.196503e+02
   3.418592e+02   6.062891e+02
  -2.379988e+02   6.705269e+02
  -5.612811e+02  -4.037390e+01
  -2.576891e+02  -5.827629e+02
   2.257145e+02  -5.764640e+02
   5.339648e+02  -9.990517e+01
   4.036624e+02   2.644221e+02
   2.125487e+01   3.976506e+02
  -2.314023e+02   2.424763e+02
  -1.491297e+02   2.362597e+01
   1.487851e+02  -4.028479e+01
   3.773404e+02   1.833165e+02
   1.111909e+02   3.807240e+02
  -4.657944e+02   2.981104e+02
  -7.707348e+02  -1.962855e+02
  -3.675482e+02  -5.162802e+02
   3.849336e+02  -3.950758e+02
   6.683104e+02   4.868895e+01
   3.059469e+02   4.148899e+02
  -2.665048e+02   4.068242e+02
  -5.342901e+02   1.851001e+02
  -4.083256e+02  -1.931267e+02
  -7.795199e+01  -4.304321e+02
   1.595936e+02  -2.620630e+02
   7.077695e+01   2.297374e+02
  -2.224925e+02   3.741114e+02
  -3.551113e+02  -1.230098e+02
  -1.807596e+02  -5.610915e+02
   2.688395e+02  -6.337799e+02
   4.922561e+02   2.910988e+01
   1.688887e+02   4.723147e+02
  -2.573563e+02   2.579593e+02
  -3.047022e+02  -2.852362e+02
   1.240180e+02  -5.087319e+02
   4.844939e+02  -1.071124e+02
   4.958236e+02   3.776875e+02
   1.230060e+02   5.449150e+02
  -3.543332e+02   3.580416e+02
  -5.552656e+02  -2.351051e+01
  -3.478715e+02  -3.050762e+02
   1.327738e+02  -3.011489e+02
   3.860460e+02  -6.672714e+01
   2.291372e+02   9.143852e+01
  -9.399918e+01   1.389361e+01
  -1.275301e+02  -1.140908e+02
   1.884713e+02  -1.408248e+02
   3.210079e+02   7.565557e+01
   1.025454e+02   2.394291e+02
  -2.030147e+02   2.472761e+02
  -3.336947e+02   1.000097e+02
  -2.211729e+02  -1.086213e+02
  -1.489005e+01  -2.448877e+02
   2.477387e+02  -3.530007e+02
   3.438013e+02  -1.671068e+02
   2.784435e+02   1.375047e+02
   4.931767e+01   4.045523e+02
  -8.190927e+01   3.814832e+02
  -5.998461e+01   1.220991e+02
  -4.092946e+01   2.301178e+01
  -9.513817e+01   8.104481e+01
  -2.178343e+02   1.317809e+02
  -2.697696e+02  -5.988455e+01
  -1.121350e+02  -2.140484e+02
   1.238071e+02  -2.400702e+02
   1.972817e+02   3.417020e+01
   2.012328e+02   2.624039e+02
  -2.451743e+01   2.627338e+02
  -2.910352e+02   8.393301e+01
  -3.724336e+02  -1.516136e+02
  -2.066822e+02  -3.283155e+02
   8.238075e+01  -3.175987e+02
   1.773568e+02  -1.199126e+02
   1.784855e+02  -4.990727e+01
   1.165043e+02  -5.179329e+01
   2.524631e+02  -3.885556e+01
   4.073738e+02   7.501221e+01
   3.157415e+02   2.784984e+02
  -3.786230e+01   4.365889e+02
  -3.230589e+02   4.167533e+02
  -4.488354e+02   1.663991e+02
  -3.307847e+02  -9.138839e+01
  -3.827238e+00  -2.884813e+02
   1.457431e+02  -2.310109e+02
   6.382604e+01  -2.979378e+01
  -1.029980e+02   7.269635e+01
  -1.925963e+02  -5.272711e+01
  -4.415275e+01  -1.771359e+02
   1.559436e+02  -1.495152e+02
   1.292934e+02   3.147457e+01
  -3.548386e+01   1.564372e+02
  -1.857684e+02   7.705109e+00
  -1.596788e+02  -2.508130e+02
  -3.489678e-01  -3.478158e+02
   2.424868e+02  -1.912036e+02
   3.423306e+02   5.835933e+01
   2.555982e+02   2.460555e+02
   5.072315e+01   2.886262e+02
  -1.397360e+02   1.341268e+02
  -1.755119e+02   2.816949e+01
  -5.237906e+01   1.184806e+01
   8.272800e+01   2.790596e+01
   1.142986e+00   1.400944e+02
  -1.432609e+02   7.519991e+01
  -1.886084e+02  -1.406167e+01
  -5.398369e+01  -8.732399e+01
   9.421671e+01  -1.770206e+01
   6.080110e+01   7.697725e+01
  -1.466652e+02   9.821707e+01
  -2.956717e+02  -1.276542e+01
  -2.677356e+02  -1.430152e+02
  -4.934416e+01  -2.420243e+02
   2.018387e+02  -2.111024e+02
   2.669802e+02  -1.141290e+02
   1.428530e+02   4.726758e+01
  -2.593980e+01   1.103059e+02
  -7.959840e+01  -1.092020e+00
   6.236995e+01  -1.103520e+02
   2.082834e+02  -1.069391e+01
   2.004717e+02   1.296670e+02
   5.988200e+01   2.162501e+02
  -9.537704e+01   1.694678e+02
  -1.544812e+02   2.003360e+01
  -6.221781e+01  -5.862963e+01
   5.204148e+01   1.546296e+01
   3.538884e+01   1.088850e+02
  -7.543167e+01   1.373180e+02
  -2.108488e+02   1.387072e+01
  -1.978084e+02  -9.330967e+01
  -2.417958e+01  -2.142281e+02
   1.451225e+02  -1.507967e+02
   1.750985e+02  -3.473945e+01
   6.958593e+01   1.148176e+02
  -8.092310e+01   9.625644e+01
  -9.104890e+01  -7.212140e+00
  -2.252739e+01  -1.345676e+01
   2.081288e+01  -7.583150e+00
  -6.919062e+00   1.934601e+01
  -5.825796e+01   1.461592e+01
  -9.274118e+01  -6.594389e+01
  -2.203879e+01  -1.447334e+02
   1.462058e+02  -1.439637e+02
   2.591275e+02  -3.918995e+01
   2.094447e+02   1.465460e+02
   5.022232e+01   1.945012e+02
  -9.910171e+01   1.698264e+02
  -1.118456e+02   8.893947e+00
  -7.224387e+01  -3.633376e+01
  -5.501511e+01  -3.647296e+01
  -7.014932e+01   3.857766e+01
  -7.922096e+01   9.810583e+00
  -5.253576e+01  -5.664065e+01
   2.523538e+01  -7.669316e+01
   1.189214e+02  -5.087003e+01
   6.693012e+01   5.565713e+01
  -2.286268e+01   1.106580e+02
  -1.484840e+02   1.019083e+02
  -1.896958e+02  -4.671078e+01
  -6.859320e+01  -1.836817e+02
   1.088773e+02  -2.132224e+02
   2.722644e+02  -7.981407e+01
   2.549295e+02   5.517608e+01
   8.738818e+01   1.815929e+02
  -4.915275e+01   1.353325e+02
  -1.024242e+02   1.003098e+02
  -7.773093e+01   7.205442e+01
  -3.440566e+01   8.269926e+01
  -7.789877e+01   6.972752e+01
  -1.247163e+02  -1.176926e+01
  -1.078428e+02  -1.600033e+02
  -3.323441e+01  -2.507785e+02
   1.255762e+02  -1.541086e+02
   1.870549e+02  -4.248047e+00
   1.426744e+02   1.225637e+02
   3.889351e+01   1.643269e+02
  -7.774190e+01   9.643589e+01
  -6.713636e+01  -1.448535e+01
   1.027332e+01  -4.901372e+01
   1.593783e+01  -4.451217e+01
  -2.933285e+01   7.155525e+00
  -3.020342e+01  -2.138541e+01
  -2.804269e+01  -2.421817e+01
   7.258138e+01  -2.459034e+01
   1.397303e+02  -9.203371e+00
   1.185399e+02   4.354303e+01
   1.419542e+00   8.968358e+01
  -1.131885e+02   1.028379e+02
  -1.553558e+02  -8.834963e+00
  -1.773134e+01  -4.159815e+01
   6.545810e+01  -3.194070e+01
   3.079809e+01   2.370477e+01
   4.237901e+01   8.331439e+01
  -4.396060e+01   5.228852e+01
  -7.828115e+01   2.785481e+01
  -4.526232e+01  -4.086860e+01
  -5.644731e+01  -1.302628e+01
  -4.975040e+01  -5.527893e+00
  -5.724533e+01  -1.252183e+01
  -2.189147e+01  -7.993032e+01
   4.991247e+01  -1.412109e+02
   9.986656e+01  -1.428984e+02
   1.539507e+02  -6.814242e+00
   1.446492e+02   8.374625e+01
  -1.503515e+01   1.544869e+02
  -6.930986e+01   7.590539e+01
  -7.330464e+01  -4.520029e+01
   5.833022e+01   6.222612e+00
   1.335757e+02   3.477748e+01
   7.594280e+01   9.981239e+01
  -8.720019e+01   1.040639e+02
  -2.005799e+02   3.859954e+01
  -1.552388e+02  -3.875332e+01
  -3.898415e+01  -6.460437e+01
   4.627278e+01  -7.117762e+01
   3.117470e+01   8.845711e+00
  -4.451179e+01   3.606355e+01
  -9.433659e+01  -1.102440e+01
  -3.726660e+01  -1.309960e+02
   7.421965e+01  -1.692710e+02
   1.525409e+02  -4.910871e+01
   1.190968e+02   1.075683e+02
   2.063272e+01   1.852179e+02
  -9.244036e+01   1.332955e+02
  -9.467476e+01  -1.258647e+01
  -5.405016e+01  -1.133006e+02
   2.984720e+01  -1.007074e+02
   4.753756e+01  -3.666808e+01
   4.627146e+01   2.870030e+01
   3.024492e+01  -1.125035e+01
  -1.920598e+00  -2.975010e+01
   2.325821e+01   3.354347e+01
   7.379995e+01   1.122579e+02
   2.701574e+01   1.165993e+02
  -3.479743e+01   5.445602e+01
  -1.275547e+02  -6.609728e+01
  -1.245041e+02  -6.757751e+01
  -2.765924e+01  -5.348153e+01
   1.003730e+02  -1.859095e+01
   8.546628e+01   9.447780e-01
   8.815461e+00   1.134119e+01
  -4.141734e+01   3.335794e+01
  -2.134353e+01   2.095449e+01
   2.352752e+01   2.083488e+01
  -6.312969e+00  -4.553131e+00
  -7.126099e+01   9.030543e+00
  -1.041732e+02  -1.848611e+01
   1.066135e+01  -6.558446e+01
   1.409830e+02  -1.006156e+02
   1.611990e+02  -6.775640e+01
   1.568842e+02   6.094805e+01
   2.492811e+01   1.662027e+02
  -7.890436e+01   1.671747e+02
  -1.052743e+02   6.785824e+01
  -8.147666e+01  -1.600089e+01
  -3.414222e+01  -2.008322e+01
   8.545720e+00   1.036328e+01
   3.209264e+00   7.470480e+00
  -2.111289e+01  -2.504074e+01
  -9.670404e+00  -7.125490e+01
   3.521471e+01  -6.114429e+01
   5.284160e+01   1.731627e+01
   7.356896e+01   1.116582e+02
  -1.396398e+01   1.310758e+02
  -1.014551e+02   3.088286e+01
  -6.417917e+01  -6.828422e+01
  -4.315369e+01  -8.712139e+01
   4.967340e+01  -7.850142e+01
   1.087664e+02  -1.881972e+01
   5.008584e+01   4.564183e+01
  -4.137162e+01   7.552988e+01
  -3.141646e+01   2.132949e+01
   8.330370e+00   1.484420e+00
   5.893084e+01   1.948623e+01
   3.776380e+01   1.341557e+01
  -6.692338e+01   6.171031e+01
  -1.158761e+02   6.337320e+01
  -8.039360e+01  -1.354970e+01
  -5.755267e+00  -7.298231e+01
   4.197242e+01  -8.370703e+01
   4.086272e+01   2.248961e+00
  -1.005200e+01   4.897138e+01
  -4.884855e+01  -2.535632e+00
  -5.941820e+01  -2.390193e+01
  -2.478962e+01  -5.979935e+01
  -1.624420e+00  -2.239296e+01
   2.841495e+01   1.147625e+01
   4.035341e+01   2.518500e+01
  -8.349622e+00   1.019068e+01
   9.910540e+00  -6.612314e+00
  -1.313571e+01  -2.758977e+01
  -9.615897e-01   2.672190e+01
   2.331751e+00   2.195196e+01
  -3.584139e+01  -4.053461e+00
  -1.998325e+01  -3.987077e+01
  -2.188864e+01  -5.763249e+01
   1.670196e+01  -9.013173e+00
   7.102298e+01   4.330392e+01
   1.596316e+01   5.205507e+01
  -5.038005e+01   5.376449e+01
  -1.025493e+02   9.863581e+00
  -2.715525e+01  -3.079420e+01
   2.635525e+01  -1.421595e+01
   7.360826e+01  -2.468346e+01
   2.714204e+01   4.302679e+00
  -4.074580e+01   2.891649e+01
  -2.323986e+01  -1.705278e+01
   2.724255e+01   1.174571e+01
   7.142540e+01  -3.199337e+01
