
 $NMID
 id='ANONYMOUS ', fmtdat='(2E16.6)'
 volume=1.0
 tramp=1.0
 $END
  -4.130212e+03   3.033382e+02
  -2.603785e+03  -2.200794e+03
   4.492144e+02  -2.408092e+03
   1.776309e+03  -1.084015e+03
   1.107744e+03   2.908100e+02
  -2.728906e+02   5.359235e+02
  -7.377790e+02  -2.116988e+02
  -7.623820e+01  -9.321110e+02
   5.159560e+02  -7.458113e+02
   8.338563e+02  -2.871123e+01
   4.704465e+02   6.765376e+02
  -1.366760e+02   8.072096e+02
  -5.152835e+02   1.824399e+02
  -3.711914e+02  -5.561445e+02
   2.048200e+02  -5.766840e+02
   5.228218e+02  -1.099425e+02
   2.868446e+02   5.299017e+02
  -2.172610e+02   6.431934e+02
  -5.278269e+02   2.201169e+02
  -4.557423e+02  -2.841777e+02
  -9.763300e+01  -4.375218e+02
   1.960768e+02  -2.358195e+02
   1.569398e+02  -6.734621e+01
  -1.248126e+02   2.618160e+01
  -3.512758e+02  -2.115244e+02
  -9.979780e+01  -3.252278e+02
   4.400417e+02  -3.754075e+02
   7.311297e+02   2.814125e+01
   3.692545e+02   4.811779e+02
  -3.661310e+02   3.587291e+02
  -5.621650e+02  -1.177392e+02
  -3.032275e+02  -3.922639e+02
   2.878646e+02  -4.207881e+02
   5.442783e+02  -1.814467e+02
   3.956108e+02   1.916781e+02
   8.423363e+01   3.925033e+02
  -8.870299e+01   2.723619e+02
  -1.494998e+02  -1.447488e+02
   1.489679e+02  -3.157701e+02
   3.059544e+02   2.730309e+01
   1.202355e+02   5.870223e+02
  -2.722670e+02   5.826101e+02
  -4.329845e+02   1.761295e+01
  -2.437876e+02  -4.398512e+02
   1.829407e+02  -3.022164e+02
   2.435875e+02   3.002080e+02
  -6.890895e+01   4.073898e+02
  -4.906350e+02   1.213786e+02
  -5.458793e+02  -3.553285e+02
  -1.962409e+02  -5.619952e+02
   3.428456e+02  -3.386135e+02
   6.150094e+02   5.089833e+01
   3.997083e+02   2.854087e+02
  -7.224716e+01   3.263218e+02
  -3.831528e+02   1.309218e+02
  -2.555582e+02  -1.069237e+02
   5.050285e+01  -7.783330e+01
   1.354333e+02   9.545926e+01
  -1.486095e+02   1.691128e+02
  -3.154523e+02  -3.833106e+01
  -1.258241e+02  -2.546929e+02
   1.542736e+02  -2.840181e+02
   3.319233e+02  -9.446597e+01
   2.198209e+02   1.030810e+02
  -1.242773e+01   2.856945e+02
  -2.628173e+02   3.425552e+02
  -3.354994e+02   1.913446e+02
  -2.854829e+02  -1.229366e+02
  -7.571496e+01  -3.722061e+02
   7.563544e+01  -3.215917e+02
   7.449516e+01  -1.455336e+02
   6.657209e+01  -3.469081e+01
   8.448640e+01  -1.091269e+02
   2.078838e+02  -9.592972e+01
   2.500374e+02   3.575061e+01
   1.426134e+02   2.644082e+02
  -2.109718e+01   2.467694e+02
  -2.012185e+02  -2.126909e+00
  -1.674683e+02  -2.228360e+02
   3.239345e+01  -2.554627e+02
   2.506003e+02  -9.603466e+01
   3.375049e+02   1.584073e+02
   1.882314e+02   3.031752e+02
  -5.418885e+01   3.172505e+02
  -2.070084e+02   1.444368e+02
  -1.350663e+02   5.589473e+01
  -1.296861e+02   5.611238e+01
  -2.085384e+02   5.641982e+01
  -4.037509e+02  -7.537780e+01
  -3.101965e+02  -2.882343e+02
  -1.233501e+01  -4.341753e+02
   3.288341e+02  -4.304281e+02
   4.823520e+02  -2.197245e+02
   3.038947e+02   6.981247e+01
   3.467508e+01   2.826735e+02
  -1.087783e+02   2.502988e+02
  -4.904717e+01   6.414232e+01
   1.146456e+02  -9.043165e+01
   1.650589e+02  -1.393382e+01
   3.203728e+01   1.495805e+02
  -1.147778e+02   1.357445e+02
  -1.115134e+02  -8.692553e+00
   1.036298e+01  -1.684883e+02
   1.365506e+02  -2.434740e+01
   1.538883e+02   2.526057e+02
  -1.714528e+01   3.089732e+02
  -2.338826e+02   1.784037e+02
  -3.615022e+02  -4.576002e+01
  -2.885558e+02  -2.248989e+02
  -8.234312e+01  -2.717158e+02
   1.226906e+02  -1.310514e+02
   1.689597e+02  -1.466319e+01
   5.363407e+01  -1.186715e+01
  -6.232771e+01  -5.096102e+01
  -4.717481e+01  -1.020969e+02
   1.190936e+02  -7.348818e+01
   1.671098e+02   3.091853e+01
   4.826101e+01   5.570170e+01
  -9.661805e+01   2.219677e+01
  -3.575687e+01  -1.045315e+02
   1.112788e+02  -8.647032e+01
   2.806776e+02  -3.166514e+01
   2.720365e+02   1.583887e+02
   6.770625e+01   2.393966e+02
  -1.767940e+02   2.452886e+02
  -2.467165e+02   1.053879e+02
  -1.533557e+02  -1.517669e+01
   1.198157e+00  -1.029327e+02
   5.691065e+01  -6.968698e+00
  -1.705853e+01   1.170076e+02
  -1.938930e+02   7.210008e+01
  -2.079647e+02  -1.078726e+02
  -5.672296e+01  -1.839281e+02
   6.831555e+01  -1.762220e+02
   1.503468e+02  -1.904478e+01
   7.755218e+01   1.391563e+01
  -4.516192e+01  -3.107980e+01
  -4.793595e+01  -7.570885e+01
   6.628632e+01  -1.502975e+02
   2.060095e+02  -2.936883e+01
   1.957670e+02   1.185920e+02
   2.383167e+01   2.115402e+02
  -1.614799e+02   1.769404e+02
  -1.924973e+02   3.924137e+01
  -5.503154e+01  -8.181571e+01
   5.082470e+01  -1.015961e+02
   6.377806e+01  -1.605077e+01
   3.974748e+00   2.440135e+01
  -3.397597e+01   3.808233e+01
  -2.684891e+00  -5.386777e+01
   6.879539e+01   6.424383e+00
   1.182718e+02   1.032556e+02
   3.424608e+01   1.623087e+02
  -1.503552e+02   1.511665e+02
  -2.302387e+02   2.971934e+01
  -1.955257e+02  -1.900552e+02
  -4.335846e+01  -2.306713e+02
   1.024502e+02  -1.609710e+02
   1.318530e+02  -1.015469e+01
   5.476785e+01   3.842362e+01
   4.370052e+01   3.942054e+01
   4.833974e+01  -1.491824e+01
   8.403452e+01   1.915703e+00
   6.876582e+01   6.096758e+01
  -4.653947e+01   1.220945e+02
  -8.076340e+01   4.578223e+01
  -9.080388e+01  -5.744573e+01
   2.328187e+01  -1.266622e+02
   1.677761e+02  -7.390930e+01
   2.243446e+02   7.775283e+01
   1.085095e+02   1.790559e+02
  -1.046882e+02   2.340597e+02
  -2.265312e+02   9.270923e+01
  -2.819998e+02  -8.180645e+01
  -1.049710e+02  -1.244128e+02
   4.733696e+01  -1.422039e+02
   1.189567e+02  -9.760161e+01
   1.024885e+02  -4.253654e+01
   6.506207e+01  -9.143946e+01
   7.695999e+01  -8.080243e+01
   1.381094e+02  -1.550843e+01
   1.025452e+02   1.513753e+02
   5.660947e+01   2.255360e+02
  -8.517256e+01   1.522053e+02
  -1.491693e+02   3.734001e+01
  -1.008658e+02  -1.135157e+02
  -2.551692e+01  -1.404946e+02
   1.020050e+02  -8.577949e+01
   4.510110e+01   4.086278e+00
  -2.627123e+01   3.377641e+01
  -3.614355e+01   3.330178e+01
   4.032883e+01   6.414797e+00
   5.495079e+01  -8.326358e+00
   4.000088e+01   3.834474e+01
  -7.628363e+01   5.297988e+01
  -1.655922e+02  -2.596666e+00
  -1.323159e+02  -7.055701e+01
  -6.910466e+00  -9.825674e+01
   1.410870e+02  -4.509107e+01
   1.367471e+02  -2.842859e+01
   3.953582e+01   5.797291e+01
  -3.644560e+01   3.173721e+01
  -7.057854e+01  -1.448715e-01
  -1.685864e+01  -7.411719e+01
   3.947631e+01  -7.251030e+01
   8.183152e+01   2.500318e+00
   5.287382e+01   3.804541e+01
   1.386601e+01   4.520177e+01
   7.059520e+01  -2.118045e+01
   6.275187e+01  -2.945873e+00
   5.555528e+01   7.288207e+01
  -2.435174e+01   1.241889e+02
  -1.468905e+02   1.222482e+02
  -1.591312e+02   2.969341e+01
  -1.203303e+02  -7.714720e+01
   8.661771e-01  -1.259866e+02
   6.889536e+01  -6.125760e+01
   6.624240e+01   9.104052e+00
  -7.234787e+01   3.552481e+01
  -1.400031e+02  -2.375795e+01
  -6.612942e+01  -1.204212e+02
   5.180033e+01  -1.246768e+02
   1.692546e+02  -6.751375e+01
   1.436182e+02   3.288109e+01
   2.505319e+01   7.418380e+01
  -6.684219e+01   4.785461e+01
  -7.819840e+01  -9.978020e+00
   2.007248e+01  -6.102478e+01
   8.483165e+01   3.053993e+01
   2.943178e+01   1.415269e+02
  -1.002626e+02   1.613928e+02
  -1.668830e+02   6.657037e+01
  -1.629619e+02  -8.875926e+01
  -4.754050e+01  -2.221008e+02
   1.167083e+02  -1.505409e+02
   8.956728e+01  -1.988837e+00
   6.861217e+01   1.138050e+02
  -1.293036e+01   9.372173e+01
  -6.479946e+01   1.963160e+01
  -3.577189e+01  -2.206175e+01
  -2.416283e+01   1.710912e+01
  -1.390564e+00   3.290695e+01
  -1.889714e+01  -8.809973e+00
  -7.222097e+01  -9.654849e+01
  -3.853019e+01  -9.681523e+01
   5.018274e+01  -7.211367e+01
   1.622573e+02   1.796845e+01
   1.332018e+02   5.950601e+01
   1.528597e+01   5.163083e+01
  -8.743893e+01   4.918988e+01
  -9.165860e+01   3.911838e+01
  -1.125837e+01  -1.978443e+01
   4.951094e+01  -1.809910e+01
   1.771076e+01  -1.747236e+01
  -2.643653e+01  -1.970824e+00
   5.551783e+00   6.619395e+00
   7.523094e+01  -4.275302e+00
   8.337221e+01   1.804019e+01
   1.341273e+01   6.597588e+01
  -9.046494e+01   1.440626e+02
  -1.924751e+02   5.818781e+01
  -1.599833e+02  -4.930146e+01
  -2.599241e+01  -1.427456e+02
   6.861163e+01  -1.816759e+02
   1.237857e+02  -4.337041e+01
   1.051443e+02   1.422421e+01
   7.932441e+00   4.103148e+01
   1.565784e+01  -4.151622e+00
   1.341198e+01   7.971105e+00
   1.898496e+01   3.391661e+01
   1.680627e+01   1.022827e+02
  -2.615297e+01   6.899186e+01
  -8.188517e+01  -3.614548e+01
  -6.811015e+01  -9.294963e+01
  -4.270262e+01  -1.046961e+02
   7.682516e+01  -5.747962e+01
   1.212812e+02   8.407007e+01
   3.320160e+01   8.310021e+01
  -4.509314e+01   4.029651e+01
  -8.477782e+01  -1.173074e+01
  -4.149091e+01  -6.018222e+01
   9.143904e+00  -5.690126e+01
   2.688044e+01  -1.446247e+01
  -4.713544e+00   7.222964e+00
  -6.808488e+01   2.143810e+01
  -3.192091e+01  -3.649041e+01
   4.218536e+01  -6.501431e+01
   1.115860e+02  -6.131921e+01
   5.133696e+01   1.191947e+01
   2.035078e+00   8.593049e+01
  -5.423442e+01   9.067476e+01
  -3.733180e+01  -3.478653e+00
  -1.895310e+01  -6.479875e+01
   4.488268e+01  -4.842885e+01
   3.818854e+01   4.279277e+01
   1.048680e+01   4.643827e+01
   4.388338e+00   1.247822e+01
  -1.972677e+01  -2.427691e+01
  -3.465852e+01  -3.754665e+01
  -9.282727e+00   5.325056e+00
   1.334804e+00   2.005964e+01
   1.756429e+01  -1.921262e+01
  -1.209293e+00  -3.916518e+01
   6.034553e+00  -2.804900e+01
   2.319365e+01  -8.945620e+00
   4.448908e+01   3.516526e+01
  -5.127275e+00   4.493107e+01
  -4.163058e+01   1.221849e+01
  -7.264157e+01  -3.751223e+01
  -1.464268e+01  -6.816210e+01
   4.639147e+01  -2.877921e+01
   7.788227e+01   1.983822e+01
   5.135118e+01   5.019073e+01
  -2.588428e+01   5.236688e+01
  -7.138381e+01   1.059923e+01
  -4.808438e+01  -3.245022e+00
   1.362688e+01   1.561352e+01
   3.748659e+01   1.953717e+01
   4.026865e+00   4.606370e+01
  -7.988685e+01   8.068753e+00
