
 $NMID
 id='ANONYMOUS ', fmtdat='(2E16.6)'
 volume=1.0
 tramp=1.0
 $END
   3.797901e+03   7.403444e+01
   2.502948e+03   2.238618e+03
  -3.423479e+02   2.369803e+03
  -1.560895e+03   1.102035e+03
  -8.930347e+02  -2.454516e+02
   3.752066e+02  -2.762674e+02
   6.391280e+02   3.329525e+02
   3.226513e+01   8.203458e+02
  -7.566613e+02   5.601663e+02
  -8.354685e+02  -1.934843e+01
  -5.308958e+02  -6.679897e+02
   1.704791e+02  -7.672755e+02
   5.415254e+02  -1.347170e+02
   2.879761e+02   6.572060e+02
  -2.132637e+02   6.512017e+02
  -5.181496e+02  -8.207544e+00
  -2.684532e+02  -5.780371e+02
   2.262689e+02  -6.604462e+02
   5.226119e+02  -1.842105e+02
   4.140508e+02   3.084331e+02
   1.205392e+02   4.086180e+02
  -1.962928e+02   2.374963e+02
  -1.452341e+02   3.011474e+01
   1.098135e+02   4.651042e+01
   3.458093e+02   1.913237e+02
   1.123209e+02   4.579497e+02
  -5.568970e+02   2.761692e+02
  -7.071692e+02  -1.882634e+02
  -2.955309e+02  -4.876431e+02
   3.822623e+02  -3.497245e+02
   6.444268e+02   1.529046e+02
   2.241627e+02   4.450834e+02
  -3.369189e+02   4.752411e+02
  -5.352161e+02   1.887194e+02
  -3.996953e+02  -2.400681e+02
  -1.689787e+01  -3.976726e+02
   1.386949e+02  -2.149970e+02
   2.559213e+00   9.470653e+01
  -2.083313e+02   3.385851e+02
  -3.704672e+02  -7.070760e+01
  -8.762272e+01  -6.040843e+02
   2.343261e+02  -6.044884e+02
   4.333071e+02   1.793770e+01
   1.549522e+02   4.887113e+02
  -2.312205e+02   2.249589e+02
  -3.116659e+02  -3.543697e+02
   1.236777e+02  -5.386722e+02
   5.287822e+02  -3.539080e+01
   5.685395e+02   4.283756e+02
   2.168396e+02   6.249571e+02
  -3.578736e+02   2.875185e+02
  -5.967980e+02  -1.170970e+01
  -3.763302e+02  -3.479576e+02
   6.931642e+01  -2.725749e+02
   3.885239e+02  -9.343491e+01
   2.014922e+02   1.301421e+02
  -6.025821e+01   1.056846e+02
  -1.042430e+02  -1.355082e+02
   1.899354e+02  -1.550155e+02
   2.853292e+02   4.969936e+01
   1.147768e+02   2.501199e+02
  -1.854413e+02   2.615699e+02
  -3.753394e+02   1.410921e+02
  -2.594985e+02  -9.235352e+01
  -1.239629e+01  -2.944642e+02
   2.774859e+02  -3.604304e+02
   3.687360e+02  -1.967267e+02
   2.748310e+02   1.565388e+02
   3.364121e+01   3.900899e+02
  -1.015546e+02   3.064208e+02
  -9.533909e+01   1.214126e+02
  -5.593491e+01   4.734937e+01
  -9.965682e+01   1.254754e+02
  -2.361615e+02   9.308161e+01
  -2.705449e+02  -7.594603e+01
  -1.338401e+02  -2.826637e+02
   1.144303e+02  -2.446885e+02
   2.030556e+02   1.507092e+01
   1.448771e+02   2.631171e+02
  -3.284691e+01   3.024008e+02
  -2.460284e+02   1.203332e+02
  -3.741492e+02  -1.455749e+02
  -1.654590e+02  -3.395557e+02
   1.041292e+02  -2.776771e+02
   2.285189e+02  -1.285550e+02
   1.720180e+02  -3.430673e+01
   1.468313e+02  -3.498509e+01
   2.684371e+02  -4.339758e+01
   4.219268e+02   5.059033e+01
   3.280815e+02   3.523153e+02
  -2.156776e+01   4.960232e+02
  -3.960235e+02   4.125546e+02
  -5.099887e+02   1.798300e+02
  -3.097778e+02  -7.167735e+01
  -2.224223e+01  -3.046252e+02
   1.089357e+02  -2.238498e+02
   3.460702e+01  -4.146690e+01
  -1.362921e+02   5.121849e+01
  -1.375769e+02  -2.306903e+01
  -3.933041e+01  -1.804365e+02
   1.273349e+02  -1.501282e+02
   1.390675e+02   7.054464e+01
  -3.527204e+01   1.877296e+02
  -1.625377e+02   2.734979e+01
  -1.478419e+02  -2.396552e+02
   4.599063e+01  -3.611666e+02
   2.213770e+02  -2.235469e+02
   3.701041e+02   7.602627e+01
   3.101562e+02   2.722810e+02
   5.763495e+01   2.859780e+02
  -1.597303e+02   1.517014e+02
  -1.637975e+02  -1.171930e+01
  -5.380679e+01  -1.922898e+01
   6.437596e+01   4.240088e+01
   1.741708e+00   1.162376e+02
  -1.236533e+02   8.253409e+01
  -1.715418e+02  -1.586877e+01
  -6.266252e+01  -5.985718e+01
   6.343199e+01  -1.114052e+01
   5.799690e+01   1.111591e+02
  -1.382257e+02   8.658124e+01
  -3.262316e+02   5.928850e+00
  -2.827134e+02  -1.898666e+02
  -3.850318e+01  -2.630422e+02
   2.334176e+02  -2.742364e+02
   3.126640e+02  -9.905461e+01
   1.466061e+02   5.760513e+01
  -3.567799e+01   9.381925e+01
  -7.580538e+01  -1.709246e+01
   5.746786e+01  -7.509200e+01
   1.918396e+02  -4.662063e+01
   1.934818e+02   1.142182e+02
   9.643547e+01   2.188947e+02
  -1.015595e+02   1.344491e+02
  -1.493392e+02   2.309859e+01
  -6.003196e+01  -5.095654e+01
   4.636674e+01   2.837015e+01
   2.824989e+01   1.045216e+02
  -7.817149e+01   1.089128e+02
  -2.088325e+02   2.210206e+01
  -2.137312e+02  -1.341739e+02
  -6.274871e+00  -2.231224e+02
   1.932058e+02  -1.543114e+02
   1.795401e+02  -6.459754e+00
   2.782279e+01   6.946218e+01
  -6.628739e+01   1.131606e+02
  -6.768672e+01   9.399915e+00
  -3.139926e+01  -2.901839e+01
   2.444735e+01  -4.316576e+01
   2.497597e+00   1.670409e+01
  -8.508198e+01   8.955732e-01
  -1.157081e+02  -6.083919e+01
   4.564268e+00  -1.718794e+02
   1.456129e+02  -1.720052e+02
   2.419830e+02  -3.382404e+01
   2.031590e+02   1.649886e+02
   4.029177e+01   2.547541e+02
  -1.045613e+02   1.831350e+02
  -1.450607e+02   1.234380e+01
  -9.400932e+01  -4.946340e+01
  -1.114190e+01  -9.324136e-01
  -7.030148e+01   2.504259e+01
  -7.940273e+01   9.050432e+00
  -7.052804e+01  -5.124066e+01
   4.605402e+01  -1.011584e+02
   1.234331e+02  -4.793800e+01
   1.154522e+02  -2.186083e+00
  -3.359031e+00   1.522444e+02
  -1.620887e+02   7.982234e+01
  -1.943097e+02  -4.871110e+01
  -9.800276e+01  -2.347724e+02
   1.463176e+02  -2.271810e+02
   2.851050e+02  -9.673654e+01
   2.770373e+02   7.384976e+01
   1.083989e+02   2.104540e+02
  -4.040028e+01   1.463297e+02
  -8.544255e+01   8.104768e+01
  -6.532057e+01   8.363974e+01
  -6.006410e+01   7.573796e+01
  -1.049028e+02   7.718202e+01
  -1.345948e+02  -4.290958e+01
  -1.282968e+02  -1.397499e+02
  -4.545140e+01  -2.262147e+02
   1.155435e+02  -1.658158e+02
   1.737178e+02  -1.301472e+01
   1.261863e+02   1.469441e+02
  -1.198508e+01   1.891981e+02
  -7.087360e+01   1.072905e+02
  -5.037722e+01   2.547853e+01
  -2.140512e+01  -5.726212e+01
   3.630118e+01  -3.135759e+01
  -3.911308e+01  -3.207501e+01
  -1.149491e+02  -2.062626e+01
  -4.619812e+01  -6.357708e+01
   4.586619e+01  -4.310721e+01
   1.676336e+02  -1.803594e+01
   1.485033e+02   8.523240e+01
  -5.293446e+00   9.951799e+01
  -1.312780e+02   6.600751e+01
  -1.648421e+02  -2.064451e+01
  -5.346256e+01  -6.282745e+01
   4.440050e+01  -5.639472e+01
   7.416599e+01   3.476505e+01
   4.877999e+00   7.195554e+01
  -4.675911e+01   4.257031e+01
  -5.205067e+01  -1.281724e+01
  -6.231315e+01  -4.766245e+01
  -4.190051e+01  -6.226900e+01
  -6.206834e+01   5.324981e+00
  -9.172831e+01  -9.761375e+00
  -5.329709e+01  -6.490854e+01
   2.763557e+01  -1.366075e+02
   1.206094e+02  -1.491369e+02
   1.846558e+02  -3.517451e+01
   1.255897e+02   9.234001e+01
  -2.189572e+01   1.419565e+02
  -8.830553e+01   5.335701e+01
  -9.181742e+01  -1.259983e+01
   7.962597e+01  -1.747504e+01
   1.432435e+02   4.402282e+01
   8.940294e+01   1.245780e+02
  -9.091445e+01   1.342081e+02
  -1.769507e+02   4.121347e+01
  -1.752047e+02  -1.221792e+01
  -3.263902e+01  -1.160926e+02
   5.657425e+01  -8.098543e+01
   3.141811e+01  -7.314087e+00
  -4.919920e+01   2.307034e+01
  -6.276538e+01  -1.869635e+01
  -7.289705e+01  -1.120333e+02
   8.912766e+01  -1.353103e+02
   1.875415e+02  -5.056709e+01
   1.440716e+02   8.869664e+01
   1.009371e+01   1.946289e+02
  -9.588917e+01   1.386196e+02
  -9.220750e+01  -1.289637e+01
  -6.614252e+01  -1.101061e+02
   1.460221e+01  -1.059095e+02
   3.724010e+01  -2.600561e+01
   4.112702e+01  -2.382108e-03
   4.860391e+01   2.896850e+01
  -7.656374e+00  -2.783528e+01
   4.769435e+01   3.840565e+01
   7.305479e+01   7.709641e+01
  -6.456219e+00   1.219488e+02
  -4.322876e+01   4.496381e+01
  -1.498774e+02  -7.299200e+01
  -1.410979e+02  -6.753547e+01
  -2.370607e+01  -4.690994e+01
   7.304640e+01  -3.453515e+01
   8.678159e+01   6.365298e+00
   2.666596e+01   1.219185e+01
  -1.225007e+01   2.351423e+01
  -1.392449e+01   3.000037e+01
   1.435869e+01   1.300819e+01
   1.034374e+01  -2.848478e+01
  -6.138649e+01   9.438387e+00
  -9.081313e+01  -4.041361e+01
  -2.298288e+01  -8.807738e+01
   1.102729e+02  -1.023575e+02
   1.956294e+02  -6.530051e+01
   1.530372e+02   2.949456e+01
   5.231546e+01   1.544317e+02
  -5.443601e+01   1.589555e+02
  -1.204385e+02   6.112247e+01
  -7.306865e+01  -3.128207e+01
  -5.961336e+01  -4.671413e+01
  -2.062296e+01   6.494161e+00
   9.190259e+00   1.876081e+01
  -2.251926e+01  -5.938763e+01
  -1.378994e+01  -7.926730e+01
   1.387780e+01  -5.738706e+01
   8.499785e+01   1.088314e+01
   7.550992e+01   7.648596e+01
  -3.531354e+00   9.989456e+01
  -8.310842e+01   6.241526e+01
  -1.243213e+02  -9.394538e+01
  -6.529129e+01  -9.589525e+01
   8.583488e+01  -7.770351e+01
   1.240854e+02   9.155840e+00
   5.352811e+01   7.229694e+01
  -3.418409e+01   6.524479e+01
  -4.517395e-01   3.390882e+01
   1.145315e+01   1.087598e+01
   7.120666e+01   2.370996e+01
   4.441806e+01   2.650880e+01
  -6.634309e+01   9.342921e+01
  -1.112179e+02   4.856152e+01
  -5.154042e+01  -3.922498e+01
  -1.545656e+01  -8.478738e+01
   8.276162e+01  -7.114791e+01
   4.473775e+01   1.999897e+00
  -1.393321e+01   3.847081e+01
  -1.447031e+01   4.499606e+01
  -3.435436e+01  -2.133097e+01
  -4.078274e+01  -6.612980e+01
   1.362886e+00  -2.892572e+01
   2.747010e+01   9.921775e+00
   3.663301e+01   2.677221e+01
   1.711882e+01  -1.694467e+00
  -1.251245e+01   1.677860e+00
  -1.560123e+01  -1.488358e+00
   5.244446e+00   3.645896e+01
  -1.949562e+01   5.712852e+01
  -6.653098e+00  -7.435731e+00
  -2.193629e+01  -4.635935e+01
   1.628923e+01  -5.437045e+01
   3.751446e+01  -2.389749e+01
   6.678829e+01   4.239786e+01
   1.701412e+01   7.242035e+01
  -6.573311e+01   2.709620e+01
  -1.212308e+02  -6.770986e+00
  -1.972440e+01  -3.542232e+01
   3.781799e+01  -5.033362e+01
   7.765208e+01  -2.699492e+01
   3.112486e+01  -1.293425e+01
  -4.987438e+01   2.771449e+01
  -2.120019e+01  -1.773216e+01
   3.791002e+00  -3.518676e+01
   7.427509e+01  -2.138758e+01
