
 $NMID
 id='ANONYMOUS ', fmtdat='(2E16.6)'
 volume=1.0
 tramp=1.0
 $END
  -3.653904e+03   2.991088e+02
  -2.314065e+03  -1.601668e+03
  -2.691050e+01  -1.920035e+03
   1.368581e+03  -1.330764e+03
   9.318419e+02  -8.829106e+01
  -9.423609e+01   3.699303e+02
  -4.610267e+02  -1.887421e+02
  -7.186708e+01  -5.365792e+02
   5.077836e+02  -6.864304e+02
   7.207049e+02  -1.122143e+02
   4.769161e+02   5.944303e+02
  -2.072518e+01   6.617248e+02
  -4.219161e+02   2.268674e+02
  -3.393719e+02  -4.358781e+02
   3.438501e+01  -5.739705e+02
   4.682057e+02  -9.149084e+01
   3.286935e+02   4.905352e+02
  -1.345281e+02   6.516831e+02
  -4.980485e+02   2.450389e+02
  -4.051715e+02  -1.381786e+02
  -8.664800e+01  -3.713021e+02
   1.127855e+02  -2.821145e+02
   1.307578e+02  -2.080571e+01
  -1.748455e+02  -3.627165e+01
  -2.639296e+02  -2.431552e+02
  -2.369532e+01  -3.297841e+02
   4.199866e+02  -1.513098e+02
   6.021504e+02   1.274780e+02
   3.000276e+02   3.207252e+02
  -2.742099e+02   1.944706e+02
  -4.874847e+02  -1.009598e+02
  -2.400607e+02  -3.671699e+02
   2.356900e+02  -3.563747e+02
   4.029444e+02  -1.970237e+02
   3.440093e+02   1.448148e+02
   8.205787e+01   3.556263e+02
  -3.579720e+01   1.941998e+02
  -1.084247e+02  -4.364494e+01
   7.784332e+01  -2.359426e+02
   2.626208e+02   9.193920e+01
   5.990929e+01   4.744755e+02
  -2.071418e+02   5.046867e+02
  -3.372798e+02   6.644187e+01
  -1.587411e+02  -3.704260e+02
   1.868383e+02  -1.951322e+02
   2.805498e+02   2.545315e+02
  -2.769919e+01   3.646599e+02
  -4.130475e+02   5.969901e+01
  -4.963966e+02  -3.443888e+02
  -1.995037e+02  -4.891385e+02
   2.710694e+02  -2.970139e+02
   5.124737e+02   7.173896e+01
   3.750990e+02   2.312963e+02
   4.979318e+00   3.058956e+02
  -2.851070e+02   1.232864e+02
  -2.347964e+02  -2.822974e+01
   1.798670e+01  -6.413930e+01
   4.696696e+01   1.199713e+02
  -8.290761e+01   1.375384e+02
  -2.165208e+02  -4.422854e+01
  -1.540548e+02  -1.979844e+02
   1.641640e+02  -2.345629e+02
   3.318208e+02  -9.656305e+01
   2.457286e+02   9.693658e+01
  -1.883809e+01   2.604956e+02
  -2.276486e+02   3.298938e+02
  -3.313619e+02   1.432826e+02
  -2.194868e+02  -1.367465e+02
  -5.323571e+01  -3.227199e+02
  -2.239157e+00  -3.016308e+02
   2.408603e+01  -1.454521e+02
   3.505720e+01  -9.468445e+01
   1.101361e+02  -8.781716e+01
   1.890352e+02  -9.503378e+01
   2.525570e+02   1.125629e+02
   7.862398e+01   2.171339e+02
  -9.650084e+01   2.097493e+02
  -1.745481e+02  -1.586207e+01
  -1.553588e+02  -2.332238e+02
   3.349632e+01  -2.433084e+02
   2.338668e+02  -9.094538e+01
   3.010517e+02   1.552188e+02
   1.583170e+02   2.725045e+02
  -4.612962e+01   2.591036e+02
  -1.651742e+02   1.726334e+02
  -1.099631e+02   4.936194e+01
  -9.953667e+01   4.232929e+01
  -2.383191e+02   2.322974e+01
  -3.801501e+02  -4.325171e+01
  -2.900320e+02  -2.845286e+02
   5.748830e+00  -4.458843e+02
   3.393733e+02  -3.779767e+02
   4.451961e+02  -1.587739e+02
   2.611699e+02   1.067408e+02
   3.032877e+01   2.153985e+02
  -9.880827e+01   1.907020e+02
  -5.380656e+00   5.599584e+01
   9.867054e+01  -3.589629e+01
   1.215430e+02   6.257336e+00
   1.927499e+01   1.271173e+02
  -1.254637e+02   7.475995e+01
  -1.143490e+02  -4.788441e+01
   2.894044e+01  -1.113096e+02
   1.268804e+02  -2.514224e+01
   1.318414e+02   1.979649e+02
   1.635350e+01   3.188551e+02
  -2.144323e+02   2.100839e+02
  -3.221789e+02  -2.779564e+01
  -2.745074e+02  -2.312490e+02
  -4.254202e+01  -2.524802e+02
   9.810136e+01  -1.140710e+02
   1.405494e+02  -2.203950e+01
   5.517654e+01  -8.217804e+00
  -6.140409e+01  -6.311261e+01
  -2.623940e+01  -1.044774e+02
   1.169002e+02  -8.906588e+01
   1.275378e+02   7.745463e+00
   4.366965e+01   3.935150e+01
  -5.857857e+01  -3.507493e+01
  -6.148120e+01  -8.126199e+01
   1.035543e+02  -1.001401e+02
   2.653475e+02   2.093522e+01
   2.324896e+02   1.299167e+02
   3.216322e+01   2.149910e+02
  -1.704506e+02   2.086335e+02
  -2.519096e+02   8.567760e+01
  -1.500261e+02  -3.385890e+01
   1.229654e+01  -7.097498e+01
   6.400845e+01   1.592256e+01
  -8.720700e+01   5.473910e+01
  -1.852740e+02   8.990608e+01
  -2.079488e+02  -9.437347e+01
  -4.914156e+01  -1.616422e+02
   6.824261e+01  -1.268587e+02
   1.293328e+02  -3.298475e+01
   2.770036e+01   4.458653e+01
  -3.276326e+01  -3.163742e+01
  -3.949224e+01  -5.159558e+01
   7.505264e+01  -9.529658e+01
   2.012423e+02  -1.039286e+01
   1.561092e+02   1.325891e+02
   1.408557e+01   2.030858e+02
  -1.107433e+02   1.478693e+02
  -1.432557e+02   3.921562e+01
  -5.753300e+01  -1.028863e+02
   6.633882e+01  -9.380829e+01
   6.978692e+01  -1.255752e+01
  -1.154514e+01   4.750181e+01
  -1.745382e+01   1.877537e+01
  -2.678036e+00  -2.149237e+01
   1.069297e+02   1.869917e+01
   1.001220e+02   9.792268e+01
  -9.427993e+00   1.625852e+02
  -1.032948e+02   1.451718e+02
  -2.092266e+02   1.424975e+01
  -1.871087e+02  -1.278674e+02
  -2.683698e+01  -1.964153e+02
   1.079262e+02  -1.506580e+02
   1.025489e+02  -3.098492e+01
   8.278092e+01   3.688013e+01
   5.034150e+01   2.285975e+01
   4.842921e+01  -6.622339e-01
   7.773513e+01  -1.363383e+01
   4.638534e+01   1.927860e+01
  -3.453573e+01   1.070829e+02
  -9.051041e+01   6.890514e+01
  -9.731352e+01  -3.994741e+01
   2.153404e+01  -1.423435e+02
   1.261973e+02  -6.591677e+01
   1.887089e+02   6.882386e+01
   9.908343e+01   2.139667e+02
  -1.009565e+02   2.059753e+02
  -2.564161e+02   1.067232e+02
  -2.290574e+02  -5.906456e+01
  -1.070681e+02  -1.486931e+02
   1.374105e+01  -1.011207e+02
   7.306932e+01  -7.473014e+01
   7.715351e+01  -7.618848e+01
   3.829756e+01  -8.999478e+01
   9.177645e+01  -7.966328e+01
   1.025051e+02   6.478416e-01
   1.156569e+02   1.357522e+02
   2.554702e+01   1.971073e+02
  -8.510295e+01   1.375820e+02
  -1.561755e+02  -1.203220e+01
  -1.279094e+02  -1.024908e+02
   2.131245e+01  -1.396706e+02
   4.768343e+01  -7.981880e+01
   4.169300e+01   1.216633e+00
   1.747913e+01   7.787222e+01
  -3.192989e+01   3.481948e+01
   4.504539e+01  -4.753141e+00
   7.511307e+01   1.953941e+01
   4.844719e+01   2.618896e+01
  -6.524316e+01   6.272014e+01
  -1.721991e+02   1.340002e+01
  -1.211602e+02  -5.247548e+01
  -1.531016e+01  -1.104927e+02
   1.287805e+02  -3.758497e+01
   1.391902e+02   1.130773e+01
   2.749588e+01   2.123333e+01
  -8.624779e+01   5.769000e+01
  -6.963601e+01  -4.720940e+01
  -3.704428e+01  -6.158445e+01
   4.223658e+01  -5.554544e+01
   4.674188e+01  -4.651637e+00
   3.060622e+01   3.987909e+01
   4.095652e+01   2.817933e+01
   5.079571e+01   6.822808e+00
   6.447023e+01   1.423834e+01
   3.497448e+01   5.335084e+01
  -1.113070e+01   1.435611e+02
  -1.068890e+02   1.148753e+02
  -1.673436e+02   5.007852e+01
  -1.228640e+02  -1.117219e+02
  -2.679101e+00  -1.107892e+02
   7.788749e+01  -6.664181e+01
   7.987951e+01   1.746698e+01
  -7.204495e+01   3.278426e+01
  -1.407672e+02  -3.073150e+01
  -6.901253e+01  -1.060630e+02
   8.577110e+01  -1.078005e+02
   1.976278e+02  -3.766959e+01
   1.789345e+02   1.961810e+01
   1.087247e+01   6.599082e+01
  -5.719084e+01   2.900149e+01
  -5.053927e+01   3.551032e+01
   1.769356e+01  -1.910275e+01
   1.050973e+02   1.745600e+01
   3.588712e+01   1.044612e+02
  -8.580495e+01   1.570998e+02
  -1.632875e+02   3.796938e+01
  -1.243304e+02  -1.003273e+02
  -2.504965e+01  -1.870509e+02
   8.394716e+01  -1.353647e+02
   9.462901e+01  -1.246047e+01
   2.519774e+01   9.077020e+01
  -7.794247e+00   1.211618e+02
  -5.910674e+01   1.303888e+01
  -3.876476e+01  -4.579620e+01
  -2.660459e+01   1.180400e+01
  -5.238623e-01   3.206829e+01
  -3.070389e+01  -1.920374e+01
  -9.577159e+01  -8.573970e+01
  -2.228861e+01  -1.165282e+02
   6.594439e+01  -5.253998e+01
   9.893919e+01   5.478675e+01
   1.063782e+02   6.112009e+01
   1.405108e+01   4.173135e+01
  -1.099826e+02   2.076838e+01
  -1.055650e+02   1.348118e+01
  -1.880233e+01  -5.691177e+01
   3.587781e+01  -1.819396e+01
   2.180421e+01  -2.606533e+01
  -5.038210e+01   2.596352e+01
  -3.592986e+01   5.069735e+00
   7.606871e+01   2.793841e-02
   7.710961e+01   2.824726e+01
   3.741203e+01   5.531513e+01
  -9.353373e+01   1.458299e+02
  -1.654958e+02   5.916916e+01
  -1.475863e+02  -5.707225e+01
  -4.347094e+01  -1.227192e+02
   8.632566e+01  -1.781072e+02
   1.052741e+02  -5.709693e+01
   6.826522e+01   4.183601e+01
   1.998471e+01   3.652535e+01
   5.598022e+00   1.201393e+01
  -1.223611e+00  -8.476702e-02
   3.574813e+01   5.363045e+01
   1.942471e+01   9.718685e+01
  -1.519721e+01   5.393891e+01
  -6.603019e+01  -1.750523e+01
  -6.027111e+01  -1.011908e+02
  -7.531697e+00  -9.565091e+01
   8.943757e+01  -2.334981e+01
   1.048778e+02   7.288108e+01
   4.126735e+01   7.791909e+01
  -2.802899e+01   7.264269e+01
  -9.283616e+01   1.074032e+00
  -3.460173e+01  -4.075382e+01
   2.131187e+01  -6.836107e+01
   2.643052e+01  -1.622908e+01
  -2.114138e+01  -3.147317e-01
  -4.961897e+01   4.491286e+00
   1.194629e+01  -2.338268e+01
   5.179452e+01  -6.807537e+01
   9.827116e+01  -4.198977e+01
   4.611060e+01   3.179538e+01
  -1.717412e+01   7.293743e+01
  -6.298917e+01   6.445538e+01
  -7.229742e+01   8.723626e+00
  -1.975691e+01  -5.413224e+01
   4.718841e+01  -4.213356e+01
  -6.211768e-01   2.437385e+01
   2.648715e+01   2.855149e+01
  -6.764393e+00   4.864217e+01
  -6.419471e+01   7.270110e+00
  -4.634966e+01  -2.995518e+01
  -4.019037e+01   4.677049e+00
   6.316444e+00   9.210172e+00
   1.568890e+01   2.174157e+01
   4.769675e+00  -3.760278e+01
   1.772616e+01  -5.033782e+01
   1.607432e+01  -2.467239e+01
   2.163902e+01   2.093450e+01
   4.958201e+00   6.835383e+01
  -3.338903e+01   1.643084e+01
  -4.479634e+01  -1.600974e+01
  -2.765136e+01  -4.626217e+01
   4.340411e+01  -4.237304e+01
   6.936494e+01   3.218110e+01
   5.801504e+01   4.547753e+01
  -2.094773e+01   3.811779e+01
  -5.135747e+01   1.689021e+01
  -3.966858e+01   3.432426e+00
   1.568052e+01  -2.807529e+01
   4.859352e+01   6.722401e+00
  -2.553893e+01   8.996759e+00
  -5.741183e+01   2.090132e+01
