
 $NMID
 id='ANONYMOUS ', fmtdat='(2E16.6)'
 volume=1.0
 tramp=1.0
 $END
   3.807574e+03  -6.944865e+01
   2.147392e+03   1.817923e+03
   9.555352e+01   2.235671e+03
  -1.433176e+03   1.105095e+03
  -7.936648e+02   1.211542e+02
   2.346115e+02  -3.685773e+02
   5.003930e+02   3.013552e+01
   4.314723e+01   7.290393e+02
  -5.272899e+02   6.531562e+02
  -7.528828e+02   1.001960e+02
  -3.812562e+02  -5.798327e+02
   6.622982e+01  -7.834787e+02
   3.616004e+02  -1.602004e+02
   2.929125e+02   5.450255e+02
  -1.521673e+02   5.183738e+02
  -4.528998e+02   8.664878e+01
  -3.066241e+02  -4.987322e+02
   1.264601e+02  -6.332496e+02
   4.278954e+02  -1.800539e+02
   4.124125e+02   1.565195e+02
   6.434478e+01   3.459737e+02
  -1.876924e+02   2.579335e+02
  -1.200985e+02   4.179208e+01
   1.910729e+02   5.840064e+00
   2.892699e+02   2.905684e+02
   8.269850e+01   2.989380e+02
  -4.587635e+02   1.654296e+02
  -6.035775e+02  -1.452680e+02
  -2.534317e+02  -3.949987e+02
   2.827613e+02  -1.983272e+02
   5.191487e+02   5.890856e+01
   2.483294e+02   3.961481e+02
  -2.656938e+02   3.318391e+02
  -4.552097e+02   1.451208e+02
  -3.432398e+02  -1.814396e+02
  -3.536149e+01  -3.455335e+02
   8.767376e+01  -1.655392e+02
   9.180814e+00   1.312845e+02
  -1.947136e+02   2.237604e+02
  -2.408191e+02  -6.063069e+01
  -1.151503e+02  -5.781996e+02
   2.114324e+02  -4.764244e+02
   4.057210e+02  -2.132994e+01
   1.690820e+02   3.961930e+02
  -2.014872e+02   1.913041e+02
  -2.156664e+02  -2.928365e+02
   9.078497e+01  -4.348493e+02
   4.370019e+02  -9.046880e+01
   4.671162e+02   3.772330e+02
   1.979334e+02   4.843956e+02
  -2.809532e+02   2.898088e+02
  -5.115130e+02  -2.913496e+01
  -3.320289e+02  -2.351903e+02
   8.331091e+01  -2.578563e+02
   3.079012e+02  -1.101560e+02
   2.058424e+02   8.301216e+00
  -8.875324e+01  -4.758204e+00
  -2.819034e+01  -9.488312e+01
   9.490216e+01  -6.400619e+01
   2.462912e+02   4.949295e+01
   1.123515e+02   2.132801e+02
  -1.670434e+02   2.253541e+02
  -3.241688e+02   1.016738e+02
  -2.120698e+02  -7.963408e+01
   4.339878e+01  -2.849204e+02
   2.098135e+02  -3.300857e+02
   3.221275e+02  -1.664777e+02
   2.029758e+02   1.431617e+02
   6.671917e+01   3.232939e+02
  -4.093968e+01   2.959138e+02
  -2.995507e+01   1.195239e+02
   1.242813e+00   5.570886e+01
  -6.608495e+01   1.139301e+02
  -2.442602e+02   1.057998e+02
  -2.438462e+02  -8.406142e+01
  -1.098997e+02  -2.630224e+02
   6.539058e+01  -2.041550e+02
   1.673392e+02   1.195099e+01
   1.395710e+02   2.218116e+02
  -6.145999e+00   2.643372e+02
  -2.388016e+02   8.084474e+01
  -2.824564e+02  -1.537958e+02
  -1.720314e+02  -2.973782e+02
   4.043301e+01  -2.696825e+02
   1.922118e+02  -1.540513e+02
   9.809920e+01  -8.357453e+00
   1.207748e+02  -7.430857e+01
   2.315242e+02  -3.746144e+01
   3.517730e+02   7.691783e+01
   2.833014e+02   2.629218e+02
  -1.182537e+01   4.100210e+02
  -3.525368e+02   3.919879e+02
  -4.409341e+02   1.550017e+02
  -2.665380e+02  -9.082264e+01
  -7.334769e+01  -2.312583e+02
   9.555207e+01  -2.048074e+02
   6.354991e+01  -2.893981e+01
  -1.119008e+02   6.927085e+01
  -1.159197e+02  -6.541384e+00
  -2.074921e+01  -1.388411e+02
   9.123742e+01  -7.905881e+01
   1.168716e+02   8.818405e+01
  -1.672040e+00   1.236504e+02
  -1.773505e+02   2.864613e+01
  -1.329890e+02  -2.227075e+02
   3.145761e+01  -3.017755e+02
   2.099388e+02  -2.160536e+02
   3.373494e+02   4.115892e+01
   2.674975e+02   2.276604e+02
   6.246568e+01   2.564579e+02
  -1.281012e+02   1.204675e+02
  -1.426166e+02   1.674936e+01
  -3.471553e+01  -1.618558e+01
   2.887575e+01   8.837015e+01
   9.082234e+00   9.457991e+01
  -1.264158e+02   8.159903e+01
  -1.200969e+02  -2.941001e+01
  -4.799505e+01  -6.381312e+01
   9.836600e+01   1.139665e+01
   5.437470e+01   8.505017e+01
  -1.230280e+02   9.981984e+01
  -2.972965e+02   3.360104e+00
  -2.297638e+02  -1.406988e+02
  -2.685831e+01  -2.446729e+02
   1.985947e+02  -2.189235e+02
   2.711138e+02  -1.085988e+02
   1.444901e+02   2.609084e+01
  -3.525939e+00   9.995289e+01
  -8.146786e+01   1.629827e+00
   4.654074e+01  -7.596397e+01
   1.873626e+02  -3.793949e+01
   2.049003e+02   1.203678e+02
   4.423228e+01   1.959232e+02
  -7.542749e+01   1.095854e+02
  -1.186062e+02   2.616907e+01
  -4.397683e+01  -6.525243e+01
   4.686133e+01   9.885839e+00
   4.207970e+01   7.668612e+01
  -7.614012e+01   1.058495e+02
  -2.267345e+02  -2.118257e+00
  -2.061266e+02  -1.200392e+02
  -6.446332e+00  -1.957147e+02
   1.132501e+02  -1.581256e+02
   1.585648e+02  -3.179149e+01
   5.390684e+01   7.657717e+01
  -5.850891e+01   1.076627e+02
  -4.216040e+01   4.529782e+01
   5.785791e+00  -3.216230e+01
   8.326622e+00  -1.000602e+01
  -5.617090e+00   2.224970e+01
  -8.421713e+01   5.132183e-01
  -9.800312e+01  -7.388439e+01
   3.447638e+00  -1.523320e+02
   1.155327e+02  -1.367490e+02
   2.228981e+02  -3.292864e+01
   1.805562e+02   1.580789e+02
   1.252831e+01   2.267045e+02
  -8.429593e+01   1.222653e+02
  -1.207314e+02   4.555077e+01
  -7.045454e+01  -3.700053e+01
  -3.782727e+01  -4.835754e+01
  -6.382723e+01  -5.764320e+00
  -7.038898e+01  -6.062188e+00
  -7.041873e+01  -3.054069e+01
   3.294936e+01  -1.158356e+02
   9.286869e+01  -7.016303e+01
   1.150472e+02   1.395017e+01
  -6.402689e+00   1.603240e+02
  -1.396420e+02   7.713169e+01
  -1.838618e+02  -3.682207e+01
  -1.025408e+02  -2.058200e+02
   1.265264e+02  -1.918204e+02
   2.422338e+02  -1.176030e+02
   2.249167e+02   5.822391e+01
   9.831061e+01   1.411802e+02
  -2.177645e+01   1.374950e+02
  -6.398185e+01   4.640952e+01
  -8.365345e+01   6.240775e+01
  -5.686599e+01   9.528623e+01
  -8.330750e+01   6.890640e+01
  -1.123217e+02  -1.601792e+01
  -9.149580e+01  -1.412054e+02
  -2.312989e+01  -1.949429e+02
   8.507357e+01  -1.338861e+02
   1.619156e+02  -3.606704e+01
   1.262480e+02   1.294121e+02
   8.273471e+00   1.820206e+02
  -4.909768e+01   6.233875e+01
  -4.793914e+01  -2.898187e+00
  -3.500143e+00  -4.047331e+01
   5.301110e+01  -2.715231e+01
  -4.613229e+01   2.271881e+00
  -8.552564e+01  -2.291458e+01
  -5.729450e+01  -2.161778e+01
   4.997480e+01  -3.296738e+01
   1.585989e+02   5.661561e+00
   1.465739e+02   4.870030e+01
   2.526180e+01   9.523405e+01
  -8.828313e+01   7.769650e+01
  -1.587225e+02   8.182055e+00
  -5.565551e+01  -1.929359e+01
   4.140940e+01  -4.041935e+01
   7.037455e+01   1.825291e+01
   1.754731e+01   3.540606e+01
  -5.676940e+01   9.599408e+01
  -6.632201e+01  -2.471981e+00
  -5.555798e+01  -4.114904e+01
  -4.311234e+01  -2.297243e+01
  -7.046288e+01  -1.502233e+01
  -8.931034e+01  -8.539192e+00
  -3.322559e+01  -6.856051e+01
   2.807103e+01  -1.512425e+02
   1.293217e+02  -1.389814e+02
   1.682360e+02  -4.216245e+01
   1.276870e+02   5.762346e+01
  -1.264704e+01   1.218472e+02
  -6.359950e+01   6.046301e+01
  -5.688961e+01  -2.051875e+01
   2.158166e+01  -5.260938e+00
   1.359384e+02   4.598616e+01
   4.649811e+01   9.568783e+01
  -7.099145e+01   7.427954e+01
  -1.769272e+02   3.527069e+01
  -1.620565e+02  -3.965935e+01
   1.939322e+00  -3.815008e+01
   6.222294e+01  -5.819342e+01
   4.515475e+01  -3.047467e+01
  -9.502617e+00   1.168485e+01
  -1.112928e+02  -5.942205e+00
  -6.040760e+00  -7.878024e+01
   8.861124e+01  -1.330286e+02
   1.377883e+02  -7.089800e+01
   1.101880e+02   8.219933e+01
  -1.605166e+01   1.858256e+02
  -9.670078e+01   1.288954e+02
  -1.096759e+02   4.270820e+00
  -6.910979e+01  -1.120955e+02
  -7.867638e-01  -9.957648e+01
   6.935069e+01   2.480099e+00
   3.622977e+01  -5.413485e+00
   3.909252e+01   4.954890e+00
   7.050373e+00  -1.341749e+01
   2.026137e+01   1.855794e+01
   6.387348e+01   9.636008e+01
   1.794672e+01   1.192052e+02
  -5.842517e+01   5.147759e+01
  -1.539764e+02  -1.705511e+01
  -1.193109e+02  -8.528599e+01
  -2.970863e+01  -5.012901e+01
   9.379526e+01  -1.904319e+01
   8.791194e+01  -3.644797e+01
   6.528117e+00   1.435530e+00
  -4.566048e+01   2.806837e+01
  -3.607251e+01   2.870876e+01
   2.471509e+01  -1.603774e+01
  -1.189857e+01  -3.690396e+01
  -6.846214e+01  -1.656983e+01
  -9.925906e+01  -2.261396e+01
   1.206729e+00  -8.202944e+01
   9.934047e+01  -1.413164e+02
   1.890313e+02  -5.591760e+01
   1.424680e+02   7.569977e+01
   2.547477e+01   1.194705e+02
  -8.146712e+01   1.497610e+02
  -1.149587e+02   9.185201e+01
  -9.017557e+01  -1.032653e+01
  -2.940876e+01  -2.392284e+01
  -1.066189e+01   4.473325e+00
  -8.695006e+00   4.509845e+00
  -3.577942e+01  -6.977662e+01
  -3.639142e+01  -9.293569e+01
   7.624798e+00  -8.094481e+01
   7.016198e+01   1.830605e+01
   8.508526e+01   6.031742e+01
   8.004881e+00   8.560744e+01
  -4.941697e+01   1.215399e+01
  -1.033377e+02  -6.842116e+01
  -3.266139e+01  -9.860377e+01
   5.597518e+01  -5.879089e+01
   7.833811e+01   1.742964e+01
   4.641810e+01   6.337172e+01
  -6.145632e+00   5.554665e+01
  -2.658277e+01   3.162403e+01
   1.379687e+00  -8.744820e+00
   6.252463e+01  -1.978324e+01
  -1.262681e+01   1.510149e+01
  -6.261626e+01   7.078182e+01
  -1.036252e+02   3.977642e+01
  -5.653252e+01   1.579029e+00
   2.483476e+01  -7.803714e+01
   2.877307e+01  -7.387872e+01
   5.495453e+01  -7.788100e+00
   3.217439e+01   4.017388e+01
  -3.293464e+01   5.209678e+01
  -7.497268e+00   3.303113e-01
  -3.887395e+01  -3.397229e+01
  -3.381239e+00  -5.157139e+01
   6.018910e+01   1.361144e+01
   2.583067e+01   3.585160e+01
   1.661327e+01  -9.170618e+00
  -1.107518e+01  -2.353746e+01
   4.670860e+00  -1.933761e+01
  -1.559699e+01   1.697256e+01
  -4.156412e-01   7.261687e+01
   2.894244e+00   2.007121e+01
  -4.217988e+01  -3.405050e+01
  -4.140003e+00  -7.082961e+01
   1.681770e+01  -1.134006e+01
   7.109607e+01   2.533369e+01
   6.198978e+00   5.983448e+01
  -6.490937e+01   3.142290e+01
  -5.658853e+01  -2.453005e+01
  -5.523845e+01  -5.674332e+01
   3.103598e+01  -6.561166e+01
   6.372012e+01  -2.678791e+01
   1.950382e+01  -1.743688e+00
  -6.588328e+00  -1.064248e+01
  -2.089716e+01  -2.502963e+00
   1.254145e+01  -2.155822e+01
   5.757101e+01  -2.803750e+01
