
 $NMID
 id='ANONYMOUS ', fmtdat='(2E16.6)'
 volume=1.0
 tramp=1.0
 $END
  -3.430118e+03   2.597256e+02
  -2.571907e+03  -2.042659e+03
   2.166377e+02  -2.302892e+03
   1.530545e+03  -1.053558e+03
   9.459187e+02   4.453080e+02
  -3.010754e+02   4.706782e+02
  -7.526227e+02  -2.745495e+02
  -3.334930e+01  -7.816551e+02
   5.156256e+02  -7.288834e+02
   7.664961e+02   1.041896e+02
   4.474435e+02   7.081067e+02
  -1.507136e+02   7.043043e+02
  -4.170173e+02   1.733451e+02
  -3.629226e+02  -5.174381e+02
   1.925607e+02  -5.735115e+02
   5.212835e+02  -2.350851e+01
   2.701115e+02   5.331119e+02
  -2.058990e+02   6.172597e+02
  -5.035989e+02   1.712722e+02
  -3.670604e+02  -2.496068e+02
  -1.369471e+02  -3.579322e+02
   1.590240e+02  -2.236723e+02
   1.462650e+02  -8.008951e+01
  -1.385123e+02   1.242166e+00
  -2.719291e+02  -1.729017e+02
  -4.720636e+01  -3.611563e+02
   4.682326e+02  -3.659527e+02
   6.935751e+02   3.466181e+01
   3.101222e+02   3.832655e+02
  -3.322808e+02   3.759893e+02
  -5.591046e+02  -1.351957e+02
  -2.791624e+02  -3.632041e+02
   2.510298e+02  -4.410095e+02
   4.833530e+02  -1.620028e+02
   3.530207e+02   1.387761e+02
   1.206019e+02   3.905158e+02
  -8.620057e+01   2.593867e+02
  -8.545448e+01  -8.554769e+01
   1.227897e+02  -2.965038e+02
   3.311192e+02   3.881174e+01
   9.552641e+01   5.777768e+02
  -3.050525e+02   5.360197e+02
  -4.657596e+02   4.500639e+01
  -2.175753e+02  -4.008128e+02
   1.161223e+02  -2.084806e+02
   2.835840e+02   2.873940e+02
  -8.977777e+01   4.267674e+02
  -4.883516e+02   1.307458e+02
  -5.114277e+02  -3.729520e+02
  -1.710995e+02  -4.958026e+02
   3.239335e+02  -3.001134e+02
   5.710054e+02   7.566935e+01
   3.154243e+02   2.786759e+02
  -6.918871e+01   2.945867e+02
  -3.728012e+02   9.004414e+01
  -2.285211e+02  -8.815426e+01
   2.466241e+01  -8.166304e+01
   1.024926e+02   7.575110e+01
  -9.423516e+01   1.327862e+02
  -2.472809e+02  -5.830540e+01
  -1.467062e+02  -2.559969e+02
   1.756306e+02  -2.488293e+02
   3.252403e+02  -8.839834e+01
   2.298959e+02   1.390685e+02
  -1.577812e+01   2.716867e+02
  -2.556967e+02   3.381090e+02
  -3.287725e+02   1.740678e+02
  -2.285315e+02  -1.352528e+02
  -8.586663e+01  -4.018071e+02
   7.398542e+01  -3.149919e+02
   7.436198e+01  -1.485769e+02
   4.202977e+01  -3.574767e+01
   8.239272e+01  -1.093042e+02
   1.908381e+02  -8.817597e+01
   2.359625e+02   6.689004e+01
   1.110389e+02   2.417995e+02
  -8.437609e+01   2.121649e+02
  -1.873479e+02   3.870415e+00
  -1.931798e+02  -2.116703e+02
   3.989476e+01  -2.557518e+02
   2.459544e+02  -8.953976e+01
   2.998887e+02   1.775093e+02
   1.444768e+02   2.784263e+02
  -2.013886e+01   2.558470e+02
  -1.749861e+02   1.537238e+02
  -1.229279e+02   2.038507e+01
  -1.071832e+02   2.703246e+01
  -2.514557e+02   5.949182e+01
  -3.584183e+02  -7.597232e+01
  -2.936695e+02  -2.585918e+02
  -1.678594e+01  -4.029899e+02
   3.311518e+02  -4.064019e+02
   4.547059e+02  -1.816746e+02
   2.853059e+02   7.357095e+01
   1.651175e+01   2.312950e+02
  -9.001660e+01   2.440710e+02
  -4.093258e+01   4.284431e+01
   9.935910e+01  -6.475425e+01
   1.678303e+02   3.342004e+01
   1.546956e+01   1.396217e+02
  -1.484266e+02   1.211984e+02
  -1.464296e+02  -5.104831e+01
   2.732874e+01  -1.461244e+02
   1.776858e+02   2.673400e+01
   1.558043e+02   1.897712e+02
  -2.049150e+01   3.475943e+02
  -2.080977e+02   1.808141e+02
  -3.382521e+02  -5.092730e+01
  -2.663643e+02  -2.349011e+02
  -7.661044e+01  -2.687386e+02
   1.028269e+02  -1.269479e+02
   1.600351e+02   1.228528e+01
   3.475852e+01   1.343235e+01
  -5.403777e+01  -4.710829e+01
  -2.117425e+01  -7.254919e+01
   1.246374e+02  -9.453952e+01
   1.704441e+02  -2.617144e-01
   7.146694e+01   3.940595e+01
  -1.012529e+02   6.354709e+00
  -5.719671e+01  -7.832040e+01
   1.171606e+02  -7.747676e+01
   2.844039e+02  -1.806550e+01
   2.699733e+02   1.464738e+02
   2.089678e+01   2.132955e+02
  -1.529037e+02   2.153201e+02
  -2.513057e+02   9.643381e+01
  -1.522152e+02  -3.428854e+01
   4.328761e+01  -8.929882e+01
   7.455285e+01   1.594060e+01
  -4.477389e+01   7.058520e+01
  -1.581582e+02   7.325107e+01
  -1.886792e+02  -9.822190e+01
  -5.633010e+01  -1.930202e+02
   8.798572e+01  -1.692745e+02
   1.258597e+02  -2.317603e+01
   4.853897e+01   3.563007e+01
  -5.340468e+00   1.989628e+01
  -4.677939e+01  -1.108168e+02
   8.361399e+01  -1.179339e+02
   2.294386e+02  -1.350789e+01
   1.975879e+02   1.076507e+02
   2.538184e+01   1.714541e+02
  -1.485199e+02   1.512095e+02
  -1.736741e+02   4.406734e+01
  -6.381457e+01  -8.033490e+01
   4.594928e+01  -8.826553e+01
   9.874407e+01  -4.318591e+01
   1.221419e+01  -2.199314e+00
  -2.921107e+01   1.975343e+01
   1.183216e+01  -1.035723e+01
   7.096305e+01  -1.422616e+01
   1.041791e+02   7.043499e+01
   3.602571e+01   1.587848e+02
  -1.057990e+02   1.550889e+02
  -2.090303e+02   3.033440e+01
  -2.042578e+02  -1.459631e+02
  -4.367443e+01  -2.320763e+02
   1.121441e+02  -1.605146e+02
   1.312168e+02  -2.789236e+01
   8.385408e+01   6.454496e+01
   4.947540e+01   9.573617e+00
   2.754601e+01  -2.346640e+01
   7.885637e+01  -2.170218e+01
   5.130671e+01   4.114952e+01
  -4.692065e+01   1.116125e+02
  -1.149297e+02   5.539829e+01
  -9.620413e+01  -2.955035e+01
   1.807690e+01  -9.750283e+01
   1.332125e+02  -8.942723e+01
   1.996227e+02   7.713677e+01
   9.787407e+01   2.197927e+02
  -9.852181e+01   2.145401e+02
  -2.641045e+02   8.513553e+01
  -2.356052e+02  -8.093620e+01
  -1.098859e+02  -1.486225e+02
   2.802741e+01  -1.329836e+02
   8.741778e+01  -8.625980e+01
   9.355140e+01  -5.595942e+01
   6.929300e+01  -7.022446e+01
   8.194162e+01  -9.196215e+01
   1.074089e+02   3.028156e+01
   9.765937e+01   1.085603e+02
   2.550904e+01   2.222499e+02
  -8.894681e+01   1.717527e+02
  -1.553106e+02   1.373014e+01
  -1.235517e+02  -9.025062e+01
   2.921985e+00  -1.440045e+02
   6.480629e+01  -8.011910e+01
   6.265846e+01   9.391532e+00
   1.653934e+01   3.113045e+01
  -4.764205e+01   1.592120e+01
   3.622941e+01  -3.834750e+00
   7.049839e+01   2.937708e+01
   4.962266e+01   4.547783e+01
  -4.094193e+01   4.000494e+01
  -1.626721e+02   1.501863e+01
  -1.486644e+02  -5.309266e+01
   1.845001e+01  -1.070306e+02
   1.063731e+02  -5.382607e+01
   1.316935e+02  -3.015751e+01
   4.588299e+01   5.035741e+01
  -6.834175e+01   9.166348e+00
  -6.266096e+01  -6.609623e+00
  -9.994128e+00  -5.392884e+01
   5.018452e+01  -6.511842e+01
   3.025461e+01  -1.032327e+00
   2.161809e+01   4.191704e+01
   1.837939e+01   4.085526e+01
   4.794594e+01   3.541614e+00
   3.742640e+01   1.854577e+01
   4.134650e+01   7.532973e+01
  -1.021137e+01   1.158715e+02
  -1.425501e+02   1.196592e+02
  -1.507126e+02   2.661201e+01
  -1.306674e+02  -7.286802e+01
  -2.631928e+01  -1.353099e+02
   6.488164e+01  -6.520969e+01
   6.564112e+01   3.125080e+01
  -6.917607e+01   4.162531e+01
  -1.571170e+02  -3.193116e+01
  -6.394685e+01  -9.956441e+01
   8.349551e+01  -1.051442e+02
   1.834522e+02  -4.101465e+01
   1.445851e+02   1.501841e+01
   6.836703e+00   7.197367e+01
  -5.897391e+01   5.881968e+01
  -4.827800e+01   8.111802e-02
   5.061065e+01  -4.874385e+01
   1.159890e+02   2.600019e+01
   2.354759e+01   8.651569e+01
  -7.747127e+01   1.542842e+02
  -1.499000e+02   7.795497e+01
  -1.164837e+02  -7.869142e+01
  -2.314421e+00  -1.645604e+02
   6.439512e+01  -1.648172e+02
   1.111160e+02   2.583250e+00
   5.233807e+01   9.854569e+01
  -9.658111e+00   1.061628e+02
  -5.703217e+01  -1.959005e+01
  -6.410075e+01  -4.946370e+01
  -1.037318e+01   1.854911e+01
   7.565796e+00   3.233483e+01
  -2.143797e+01  -1.830019e+01
  -4.629537e+01  -8.458588e+01
  -1.517405e+01  -8.224331e+01
   5.171937e+01  -4.207840e+01
   1.543487e+02   1.973898e+01
   1.414928e+02   6.187373e+01
   1.370347e+01   5.604776e+01
  -8.720890e+01   1.669388e+01
  -8.180805e+01   9.972365e+00
  -2.111909e+01   9.711942e+00
   4.806909e+01  -3.680254e+01
   9.428168e-01  -1.159757e+01
  -1.545332e+01   5.559431e+00
  -2.310049e+01   1.756341e+01
   4.599220e+01   9.365470e+00
   9.342192e+01   1.848501e+01
   2.779045e-01   8.673829e+01
  -1.082789e+02   1.241001e+02
  -1.705827e+02   5.430093e+01
  -1.278708e+02  -7.852997e+01
  -3.868042e+01  -1.530000e+02
   5.171395e+01  -1.467156e+02
   1.214555e+02  -3.545768e+01
   9.390862e+01   3.506586e+01
   2.754998e+00   5.846104e+01
  -3.680536e+00   1.167248e+00
   1.184636e+01   2.251314e-01
   3.640067e+01   4.696093e+01
   3.541393e+01   1.221810e+02
  -3.913769e+01   7.746847e+01
  -7.299406e+01  -1.739257e+01
  -6.231271e+01  -1.037624e+02
  -1.080067e+01  -1.259110e+02
   7.803758e+01  -3.409897e+01
   1.013385e+02   7.399996e+01
   2.837979e+01   1.133726e+02
  -3.559367e+01   7.178267e+01
  -1.043028e+02   9.588357e+00
  -4.034593e+01  -5.509025e+01
   2.053661e+01  -7.671533e+01
   1.219105e+01  -1.623233e+01
  -1.494368e+01   3.207556e+01
  -4.359878e+01   3.085233e+01
  -1.593284e+01  -2.772848e+01
   5.971483e+01  -6.552072e+01
   9.470528e+01  -5.753391e+01
   3.748445e+01   1.511383e+01
  -2.412811e+01   8.658565e+01
  -8.148717e+01   7.611350e+01
  -4.492930e+01   1.523519e+01
  -2.852089e+00  -4.805738e+01
   3.239606e+01  -4.907366e+01
   3.665016e+01   6.420436e+00
   1.800806e+01   3.728150e+01
  -2.807596e+01   1.617077e+01
  -3.983433e+01  -1.532921e+01
  -4.773413e+01  -1.479302e+01
  -2.359335e+01   9.585626e+00
   1.114565e+00   4.636971e+00
   3.913784e+01   3.075278e+00
   1.553146e+01  -5.194997e+01
  -8.552307e+00  -6.859639e+01
   2.050741e+01  -2.066960e+01
   3.808443e+01   2.506136e+01
   3.834598e+01   4.884178e+01
  -1.889976e+01   1.404538e+01
  -6.679362e+01   2.227554e+00
  -2.456554e+01  -3.801941e+01
   4.814983e+01  -2.012691e+01
   8.164377e+01   3.481296e+01
   4.851037e+01   4.485985e+01
  -4.840498e+01   2.280602e+01
  -7.333395e+01   1.812831e+01
  -3.118440e+01  -1.172602e+00
   2.924670e+01   1.869531e+01
   3.641433e+01  -1.910306e+01
  -8.528041e+00   5.208193e+00
  -1.250723e+02   2.209792e+01
