
 $NMID
 id='ANONYMOUS ', fmtdat='(2E16.6)'
 volume=1.0
 tramp=1.0
 $END
   4.280854e+03  -2.148141e+02
   2.627030e+03   2.367766e+03
  -6.222687e+02   2.687033e+03
  -2.185890e+03   1.150232e+03
  -9.449845e+02  -4.084466e+02
   2.779037e+02  -5.286980e+02
   8.051154e+02   2.574749e+02
   4.105532e+01   1.020752e+03
  -6.499970e+02   7.515110e+02
  -8.058884e+02  -5.656187e+01
  -4.605845e+02  -8.560090e+02
   1.183397e+02  -7.769865e+02
   5.969804e+02  -2.273119e+02
   4.688189e+02   6.177590e+02
  -2.218316e+02   7.114062e+02
  -5.359248e+02   9.545877e+01
  -3.024681e+02  -6.567955e+02
   2.625486e+02  -6.337081e+02
   5.539849e+02  -1.183292e+02
   3.968138e+02   3.032375e+02
   8.359881e+01   4.524238e+02
  -2.109221e+02   2.819991e+02
  -2.019535e+02   5.594566e+01
   1.298865e+02  -8.865489e+01
   3.707455e+02   1.274114e+02
   1.680165e+02   4.675675e+02
  -5.015034e+02   3.415231e+02
  -8.178539e+02  -3.420525e+01
  -4.255823e+02  -5.120304e+02
   3.185531e+02  -4.322899e+02
   6.925234e+02   1.022543e+01
   2.751190e+02   4.504854e+02
  -2.705366e+02   4.731770e+02
  -5.611839e+02   2.363212e+02
  -4.503040e+02  -2.115468e+02
  -8.491790e+01  -4.418356e+02
   1.319425e+02  -2.774261e+02
   1.252655e+02   1.402835e+02
  -1.872763e+02   3.454559e+02
  -3.815924e+02  -6.200058e+01
  -2.638933e+02  -6.016125e+02
   3.131772e+02  -6.754377e+02
   5.773049e+02  -3.295423e+01
   2.357726e+02   4.862565e+02
  -2.473703e+02   3.140070e+02
  -3.000320e+02  -2.766745e+02
   9.655390e+01  -4.975194e+02
   5.509156e+02  -1.498238e+02
   5.943683e+02   3.919069e+02
   1.693379e+02   5.480156e+02
  -3.744883e+02   3.256427e+02
  -6.104252e+02  -6.952543e+01
  -3.839645e+02  -3.572564e+02
   1.111424e+02  -3.262285e+02
   3.953173e+02  -7.862414e+01
   2.411413e+02   1.379324e+02
  -1.333696e+02   9.200094e+01
  -9.466139e+01  -1.091075e+02
   1.355251e+02  -1.007310e+02
   3.229739e+02   6.460717e+01
   1.808405e+02   2.814371e+02
  -1.753413e+02   2.807370e+02
  -3.545470e+02   1.237259e+02
  -2.141773e+02  -5.686904e+01
   4.429698e+01  -2.554385e+02
   2.306804e+02  -3.362405e+02
   3.671166e+02  -2.097052e+02
   2.832406e+02   1.488847e+02
   3.835025e+01   4.377809e+02
  -6.207407e+01   3.882747e+02
  -6.551591e+01   9.679653e+01
  -3.021172e+01   6.764180e+00
  -6.947667e+01   1.110627e+02
  -2.004827e+02   1.384694e+02
  -2.601409e+02  -7.046556e+01
  -1.458594e+02  -2.886396e+02
   6.543915e+01  -2.486841e+02
   2.505319e+02   1.153007e+01
   1.883964e+02   2.369193e+02
  -4.437362e+01   3.082897e+02
  -2.508313e+02   1.135324e+02
  -3.733032e+02  -1.373399e+02
  -2.239724e+02  -3.471994e+02
   3.814050e+01  -3.208341e+02
   2.334185e+02  -1.088149e+02
   1.524030e+02  -2.080957e+01
   1.163302e+02  -4.077855e+01
   2.552683e+02  -3.594946e+01
   3.934116e+02   2.666978e+01
   3.495918e+02   2.647540e+02
   3.947134e+01   4.847766e+02
  -3.700664e+02   4.307832e+02
  -5.242476e+02   2.114044e+02
  -3.236124e+02  -8.751115e+01
  -4.971116e+01  -2.886330e+02
   8.306063e+01  -2.120442e+02
   5.149500e+01  -3.763259e+01
  -1.202871e+02   8.794095e+01
  -1.927958e+02  -1.586789e+01
  -8.148403e+01  -2.346005e+02
   1.541434e+02  -1.580867e+02
   1.415945e+02   3.913630e+01
  -2.654171e+01   1.972578e+02
  -1.873545e+02   1.369732e+01
  -1.463609e+02  -2.717313e+02
   5.025407e+01  -3.617701e+02
   2.387820e+02  -2.209036e+02
   3.534747e+02   3.608194e+01
   2.869978e+02   2.701893e+02
   7.750459e+01   2.546336e+02
  -8.941360e+01   1.455599e+02
  -1.551019e+02   2.411350e+01
  -5.741594e+01  -2.789677e+01
   7.675178e+01   3.113111e+01
   1.474611e+01   1.198789e+02
  -1.104000e+02   9.771286e+01
  -1.611518e+02  -3.330046e+01
  -8.910663e+01  -5.803013e+01
   9.067676e+01  -2.708354e+01
   4.014022e+01   9.718139e+01
  -1.184768e+02   1.009287e+02
  -2.922505e+02   8.925580e+00
  -2.570356e+02  -1.475465e+02
  -6.494562e+01  -2.605211e+02
   1.839105e+02  -2.564908e+02
   2.588408e+02  -1.390463e+02
   1.522428e+02   6.021164e+01
  -3.315342e+01   1.205592e+02
  -1.036701e+02   7.050581e-01
   2.942767e+01  -8.703341e+01
   1.949488e+02  -8.247729e+01
   2.112451e+02   1.207327e+02
   8.217600e+01   2.079669e+02
  -7.244175e+01   1.585990e+02
  -1.493221e+02   5.561065e+01
  -9.594912e+01  -4.431395e+01
   4.160495e+01  -1.678458e+01
   7.810927e+01   1.085340e+02
  -6.543767e+01   1.385200e+02
  -1.968257e+02   1.254938e+01
  -2.717936e+02  -8.759040e+01
  -2.607637e+01  -2.151996e+02
   1.483264e+02  -1.658414e+02
   1.992690e+02  -3.257347e+01
   7.371067e+01   9.503650e+01
  -7.138238e+01   1.233061e+02
  -8.514823e+01   2.145989e+01
   7.821131e+00   2.513765e+00
   1.542500e+01  -3.397590e+01
  -3.047982e+01   1.407538e+01
  -1.001262e+02  -2.680648e+00
  -1.110473e+02  -8.013176e+01
  -3.024418e+01  -1.535411e+02
   1.414353e+02  -1.887490e+02
   2.339097e+02  -2.907307e+01
   2.158767e+02   1.674599e+02
   5.755241e+01   2.433620e+02
  -1.208884e+02   1.712252e+02
  -1.385098e+02   5.063536e+00
  -6.594750e+01  -5.169713e+01
  -2.403863e+01  -4.512260e+01
  -4.971648e+01   2.712969e+01
  -8.099570e+01   1.702640e+01
  -4.038219e+01  -3.916509e+01
   2.506438e+01  -1.006980e+02
   9.982975e+01  -6.512122e+01
   7.586225e+01  -4.042705e+00
  -2.461038e+01   1.089200e+02
  -1.521541e+02   8.336619e+01
  -1.773566e+02  -3.083827e+01
  -1.160237e+02  -2.154447e+02
   9.443137e+01  -2.547106e+02
   2.636550e+02  -9.023835e+01
   2.780310e+02   9.935638e+01
   1.120328e+02   1.610625e+02
  -2.485155e+01   1.444181e+02
  -9.597403e+01   8.883025e+01
  -7.931270e+01   5.386173e+01
  -7.151080e+01   9.739879e+01
  -8.622345e+01   7.586085e+01
  -1.350037e+02  -2.365384e+01
  -1.374452e+02  -1.338351e+02
  -5.058736e+01  -2.188187e+02
   1.083858e+02  -1.592259e+02
   1.897408e+02  -2.629691e+01
   1.325311e+02   1.393811e+02
   2.220968e+01   1.692123e+02
  -3.605938e+01   1.150533e+02
  -6.093400e+01   5.353860e+00
  -1.455270e+01  -3.361816e+01
   1.675559e+01  -5.413249e+01
  -2.507875e+01  -3.280870e+01
  -7.851190e+01  -1.786826e+01
  -5.825962e+01  -4.448118e+01
   6.949926e+01  -5.169310e+01
   1.446511e+02  -6.025246e+00
   1.609304e+02   4.758414e+01
   2.053099e+01   6.731837e+01
  -1.599667e+02   7.775287e+01
  -1.498925e+02   2.276118e+01
  -3.643297e+01  -3.473804e+01
   5.219898e+01  -4.940677e+01
   8.471414e+01   1.769371e+01
   2.172030e+01   6.131859e+01
  -4.591073e+01   5.626332e+01
  -4.478147e+01  -1.252221e+01
  -5.651894e+01  -7.861005e+01
  -5.276097e+01  -5.529936e+01
  -7.984000e+01  -1.618831e+01
  -4.267644e+01  -1.681086e+01
  -4.425830e+01  -5.229862e+01
   2.341560e+01  -1.459898e+02
   1.258763e+02  -1.435057e+02
   1.647184e+02  -2.449306e+01
   1.220050e+02   1.009558e+02
  -8.104700e-01   1.404090e+02
  -8.479126e+01   7.558387e+01
  -5.402303e+01   1.650306e+00
   7.286774e+01  -2.623801e+01
   1.262530e+02   2.276016e+01
   7.756603e+01   7.864685e+01
  -6.738927e+01   9.181322e+01
  -1.665736e+02   8.008955e+01
  -1.467788e+02  -2.928585e+01
  -6.867237e+01  -8.763775e+01
   2.939026e+01  -8.264752e+01
   6.781723e+01   3.598876e+00
  -3.945368e+01   3.480013e+01
  -1.126798e+02  -1.811552e+01
  -4.301456e+01  -1.186830e+02
   8.731831e+01  -1.736956e+02
   1.430613e+02  -7.978838e+01
   1.330572e+02   1.061870e+02
   8.663556e+00   1.799266e+02
  -8.200979e+01   1.513391e+02
  -1.055285e+02  -8.780597e+00
  -5.817797e+01  -1.003350e+02
   4.719945e+00  -1.022991e+02
   5.549902e+01  -2.980946e+01
   5.546562e+01   4.043586e+01
   2.086362e+01   2.482725e+01
   6.640958e+00   1.297749e+01
   4.401384e+01   1.937475e+01
   5.684547e+01   1.090716e+02
   3.023855e+01   9.713402e+01
  -3.397687e+01   4.529000e+01
  -1.279884e+02  -4.297117e+01
  -1.367082e+02  -8.507837e+01
  -1.838307e+01  -5.946271e+01
   7.386844e+01  -2.418083e+01
   8.857087e+01   2.351165e+01
   2.124645e+01   1.868363e+00
  -4.265205e+01   5.383384e+01
  -1.071613e+01   1.464904e+01
   9.600228e+00  -4.375331e+00
  -1.345414e+01  -1.734320e+01
  -6.104527e+01   2.550186e+01
  -1.012035e+02  -1.982666e+01
  -2.419047e+01  -9.435586e+01
   1.458088e+02  -1.326909e+02
   1.909939e+02  -5.889572e+01
   1.776555e+02   7.326525e+01
   3.252154e+01   1.450800e+02
  -7.252966e+01   1.462574e+02
  -1.047374e+02   4.508304e+01
  -9.846282e+01   1.466892e-01
  -2.682139e+01  -3.866412e+01
   2.032070e+01  -2.258784e+01
   2.270397e+01  -9.139549e+00
  -3.362533e+01  -7.306814e+01
  -2.852352e+01  -8.124739e+01
   2.741705e+01  -6.433076e+01
   8.087125e+01   2.659914e+01
   9.590943e+01   1.185400e+02
  -3.644219e+00   1.224422e+02
  -6.604167e+01   2.288971e+01
  -1.297722e+02  -6.988606e+01
  -3.831673e+01  -9.478406e+01
   5.779357e+01  -7.533286e+01
   1.138111e+02   8.713141e+00
   6.719053e+01   5.455358e+01
  -3.751721e+01   7.322712e+01
  -2.585057e+01   3.373190e+01
   5.027454e+01   2.163538e+01
   5.172959e+01   1.218753e+01
   1.388891e+01   2.193474e+01
  -8.197450e+01   5.532665e+01
  -1.166247e+02   5.013767e+01
  -6.533737e+01  -1.462528e+01
   1.013313e+01  -7.472613e+01
   3.888004e+01  -1.055497e+02
   4.371893e+01  -8.190119e+00
   1.262139e+01   2.962643e+01
  -6.131750e+00   3.906000e+01
  -4.503843e+01  -9.845159e-01
  -4.272208e+01  -4.664987e+01
  -5.531208e+00  -5.231616e+01
   3.461568e+01   3.806056e+00
   3.332290e+01   8.044608e+00
   4.063853e+01   6.235495e+00
   2.118381e+00  -1.674519e+01
   8.251726e+00  -1.243524e+01
   1.010800e+01   1.772881e+01
  -2.747475e+00   6.396802e+01
  -4.311088e+01  -2.441621e+00
  -1.906871e+01  -5.974360e+01
   3.333032e+00  -5.406734e+01
   6.596328e+01  -2.409680e+01
   6.881661e+01   3.184231e+01
   3.056479e+01   7.207691e+01
  -5.453389e+01   4.606885e+01
  -1.029602e+02   4.902661e+00
  -6.930391e+01  -2.630723e+01
   4.335307e+01  -3.251395e+01
   6.560230e+01  -3.576028e+01
   1.811811e+01   2.423841e+00
  -2.722102e+01  -4.587471e+01
  -3.592507e+01  -6.362771e+00
   6.581414e+01  -3.847256e+01
   8.175849e+01   1.066480e+00
