
 $NMID
 id='ANONYMOUS ', fmtdat='(2E16.6)'
 volume=1.0
 tramp=1.0
 $END
   3.334564e+03   9.050150e+00
   1.850428e+03   2.002439e+03
  -4.981584e+02   2.373341e+03
  -1.490460e+03   8.489931e+02
  -8.164409e+02  -1.353894e+02
   3.131943e+02  -3.426523e+02
   6.149906e+02   2.591564e+02
  -7.054807e+01   8.321537e+02
  -6.338167e+02   5.826762e+02
  -7.316693e+02  -5.272343e+01
  -3.596118e+02  -5.853757e+02
   9.629409e+01  -6.133498e+02
   4.836303e+02  -8.900753e+01
   3.226192e+02   5.732261e+02
  -1.847185e+02   6.500233e+02
  -4.311626e+02   1.762843e+01
  -2.317953e+02  -5.042724e+02
   2.617553e+02  -5.261594e+02
   4.528104e+02  -1.675627e+02
   3.629166e+02   2.693872e+02
   4.867773e+01   3.543093e+02
  -1.956978e+02   2.079980e+02
  -1.136029e+02   5.225313e+01
   1.523447e+02  -1.803785e+01
   3.058488e+02   1.592921e+02
   9.736286e+01   3.502951e+02
  -3.906424e+02   2.623459e+02
  -6.325423e+02  -8.885744e+01
  -3.610671e+02  -4.324181e+02
   3.168408e+02  -3.662817e+02
   6.082866e+02   7.125763e+01
   2.422091e+02   3.736144e+02
  -1.775542e+02   3.743539e+02
  -4.510583e+02   1.407698e+02
  -3.436224e+02  -2.079879e+02
  -1.970051e+01  -3.425226e+02
   7.258653e+01  -2.147512e+02
   5.611682e+01   1.458840e+02
  -1.706026e+02   2.518014e+02
  -3.121059e+02  -6.398152e+01
  -9.378445e+01  -5.538124e+02
   1.998155e+02  -5.276292e+02
   4.969563e+02   4.720234e+01
   1.605041e+02   3.326374e+02
  -1.914604e+02   2.189282e+02
  -2.790692e+02  -3.125803e+02
   5.055797e+01  -4.582132e+02
   4.415660e+02  -1.516054e+02
   5.082189e+02   3.163615e+02
   1.769271e+02   5.019775e+02
  -2.973162e+02   3.045237e+02
  -5.151467e+02  -6.123089e+01
  -3.224214e+02  -3.527570e+02
   1.125338e+02  -2.679675e+02
   3.400708e+02  -4.480932e+01
   2.468613e+02   1.074856e+02
  -3.142651e+01   5.360048e+01
  -8.784172e+01  -8.729022e+01
   1.509888e+02  -1.160731e+02
   2.767747e+02   5.731202e+01
   1.132004e+02   2.572169e+02
  -1.680986e+02   2.157237e+02
  -2.951600e+02   1.097908e+02
  -2.020199e+02  -6.493145e+01
   2.109156e+00  -2.105768e+02
   1.894681e+02  -2.897004e+02
   3.065645e+02  -1.225524e+02
   2.427114e+02   1.384548e+02
   8.679333e+01   3.483530e+02
  -7.297093e+01   3.368253e+02
  -8.335445e+01   1.090699e+02
  -5.663372e+00   2.579532e+01
  -7.043120e+01   7.034334e+01
  -1.964554e+02   9.828657e+01
  -2.395472e+02  -7.383887e+01
  -1.698738e+02  -2.397136e+02
   6.665251e+01  -1.974574e+02
   1.691074e+02   3.383886e+00
   1.456936e+02   2.133361e+02
  -1.283898e+01   2.589108e+02
  -2.399463e+02   1.039088e+02
  -3.218874e+02  -1.516518e+02
  -1.883930e+02  -2.563078e+02
   1.040239e+02  -2.698082e+02
   1.894625e+02  -1.173692e+02
   1.013448e+02  -1.969566e+01
   1.269084e+02  -3.992604e+01
   2.210006e+02  -5.470234e+01
   3.579184e+02   7.411236e+01
   2.975323e+02   2.326093e+02
   3.089304e+01   3.578476e+02
  -3.037766e+02   3.705206e+02
  -3.828111e+02   1.599318e+02
  -2.784103e+02  -8.217044e+01
  -1.949260e+01  -2.348436e+02
   5.709077e+01  -1.949048e+02
   6.122372e+01  -5.460406e+00
  -1.061604e+02   6.233517e+01
  -1.564376e+02  -5.753716e+00
  -3.222284e+01  -1.668342e+02
   1.124450e+02  -1.329308e+02
   1.218281e+02   4.349313e+01
  -3.156307e+01   1.652654e+02
  -1.788843e+02   1.540241e+01
  -1.406843e+02  -2.378461e+02
   5.778360e+01  -3.097882e+02
   2.186340e+02  -1.786884e+02
   3.008443e+02   8.097551e+01
   2.527999e+02   2.118357e+02
   5.674801e+01   2.532013e+02
  -8.738794e+01   1.361158e+02
  -1.660734e+02   3.338845e+01
  -4.190422e+01  -1.137350e+01
   4.058999e+01   5.011357e+01
   4.397605e-03   7.531092e+01
  -7.216857e+01   5.962709e+01
  -1.496599e+02  -2.508068e+01
  -4.443444e+01  -4.437654e+01
   8.017766e+01   3.234383e+01
   3.794192e+01   6.475773e+01
  -9.421484e+01   7.727653e+01
  -2.570335e+02   2.419848e+01
  -2.211186e+02  -1.388650e+02
  -6.698899e+01  -2.468304e+02
   1.802501e+02  -2.014367e+02
   2.274683e+02  -1.127979e+02
   1.313070e+02   4.307649e+01
  -3.091307e+01   8.230765e+01
  -4.717944e+01  -1.030854e+01
   8.211857e+01  -5.277491e+01
   1.905717e+02  -5.948657e+01
   1.833868e+02   1.086130e+02
   6.227341e+01   1.889552e+02
  -8.843422e+01   1.503920e+02
  -1.355905e+02   2.864574e+01
  -3.677915e+01  -3.401145e+01
   1.147947e+01   4.992447e+00
   3.422913e+01   6.072842e+01
  -5.397071e+01   9.631766e+01
  -1.799204e+02   3.049795e+01
  -1.779759e+02  -1.026601e+02
   7.079454e-01  -1.807413e+02
   1.433294e+02  -1.154742e+02
   1.720058e+02  -2.128829e+01
   4.769513e+01   9.660412e+01
  -6.057266e+01   6.869789e+01
  -7.217195e+01   3.787442e+01
  -1.470435e+01   1.332939e+01
   3.995623e+01  -1.692968e+01
  -2.451285e+01  -1.065940e+00
  -6.773101e+01   1.747135e+01
  -7.834861e+01  -7.311064e+01
  -2.767673e+01  -1.506372e+02
   1.250856e+02  -1.302690e+02
   1.896014e+02  -4.357758e+01
   1.583668e+02   1.024960e+02
   2.110821e+01   2.016011e+02
  -9.076263e+01   1.037716e+02
  -1.029594e+02   1.855639e+01
  -5.611531e+01  -3.245420e+01
  -2.586772e+01  -5.048178e+01
  -3.896706e+01  -9.942696e+00
  -6.711836e+01  -9.825951e+00
  -3.833330e+01  -4.556975e+01
   5.293584e+01  -8.766544e+01
   9.167456e+01  -3.347387e+01
   7.234050e+01   1.377044e+01
  -1.309185e+00   1.139841e+02
  -1.322365e+02   6.706102e+01
  -1.555116e+02  -3.268155e+01
  -1.149531e+02  -1.753901e+02
   1.013240e+02  -2.054759e+02
   1.878272e+02  -9.742800e+01
   2.403138e+02   7.937339e+01
   7.033570e+01   1.497110e+02
  -3.585304e+01   8.864303e+01
  -7.113763e+01   4.143081e+01
  -6.682209e+01   5.904969e+01
  -5.691788e+01   1.116879e+02
  -9.610947e+01   6.811619e+01
  -1.136875e+02  -3.191659e+01
  -8.839959e+01  -1.056368e+02
  -1.842652e+01  -2.099529e+02
   7.068270e+01  -1.534954e+02
   1.688355e+02  -3.824719e+01
   1.229964e+02   1.161311e+02
   1.963143e+01   1.420092e+02
  -6.519199e+01   6.890714e+01
  -5.458955e+01  -1.100469e+01
   1.219902e+00  -5.316201e+01
   3.260012e+01  -6.138855e+01
  -2.827152e+01  -1.885600e+01
  -6.503064e+01  -3.179014e+01
  -3.857675e+01  -1.919782e+01
   4.705695e+01  -2.051851e+01
   1.300499e+02  -2.688411e+00
   1.328931e+02   2.231598e+01
   2.994748e+01   8.276711e+01
  -1.201161e+02   8.363873e+01
  -1.361579e+02   1.235906e+01
  -2.443013e+01  -6.243623e+01
   5.784752e+01  -3.658470e+01
   5.033622e+01   1.052113e+01
   2.430535e+01   6.842492e+01
  -5.642917e+01   8.776144e+01
  -1.955828e+01   5.893655e+00
  -3.803026e+01  -2.839595e+01
  -5.514040e+01  -2.498788e+01
  -3.603666e+01  -9.946310e+00
  -3.763923e+01  -2.128721e+01
  -2.248622e+01  -7.824383e+01
   4.875814e+01  -1.265490e+02
   1.071790e+02  -1.185970e+02
   1.463853e+02  -5.829937e+01
   1.303107e+02   6.174636e+01
  -1.887464e+01   1.245929e+02
  -5.181867e+01   1.561366e+01
  -3.857402e+01  -2.042805e+01
   8.122940e+01  -1.898681e+01
   9.853100e+01   3.636952e+01
   7.932756e+01   7.754893e+01
  -6.185788e+01   1.014362e+02
  -1.829453e+02   5.440654e+01
  -1.299423e+02  -2.183572e+01
  -3.711065e+01  -4.989854e+01
   5.770482e+01  -5.825192e+01
   6.049238e+01  -1.015058e+00
  -3.989653e+01  -5.913470e+00
  -9.293529e+01  -2.552452e+01
  -1.208343e+01  -1.005388e+02
   5.618918e+01  -1.394520e+02
   1.489851e+02  -6.438151e+01
   9.633387e+01   9.329424e+01
   2.762266e+01   1.925457e+02
  -6.769231e+01   1.305117e+02
  -9.833024e+01  -1.437909e+01
  -3.784269e+01  -8.081114e+01
  -7.843875e+00  -1.131203e+02
   3.704122e+01  -3.008764e+01
   3.816391e+01   1.938344e+01
   4.104938e+01  -1.178183e+01
   5.908134e+00  -4.517061e+01
   2.184191e+00   1.136025e+00
   3.306820e+01   8.419630e+01
   3.160470e+01   1.023312e+02
  -3.748583e+01   1.596416e+01
  -1.361376e+02   2.834560e+01
  -1.189553e+02  -7.924413e+01
  -1.493438e+01  -5.580484e+01
   5.822077e+01  -2.639219e+01
   7.183465e+01   6.541216e+00
  -3.888076e+00  -3.564168e+00
  -5.991004e+01   3.656160e+01
  -9.638323e+00   8.026734e+00
   2.497740e+01  -9.837304e+00
   1.755652e+00  -3.335313e+01
  -6.991788e+01  -2.979710e+00
  -9.148052e+01   3.489364e+00
   5.422492e+00  -3.543585e+01
   7.386835e+01  -1.089958e+02
   1.566918e+02  -7.245956e+01
   1.243630e+02   4.963241e+01
   1.939925e+01   1.356891e+02
  -5.147249e+01   1.295720e+02
  -1.084844e+02   8.264851e+01
  -6.034773e+01  -1.636527e+01
  -5.019202e+01  -8.823020e+00
   2.231138e+00  -2.220930e+01
  -1.489385e+01   9.029598e-01
  -4.519294e+01  -5.046638e+01
  -2.377029e+01  -1.053556e+02
   2.838956e+01  -7.273065e+01
   7.350035e+01   2.188870e+01
   7.402804e+01   7.545130e+01
  -1.251322e+01   1.141312e+02
  -4.797122e+01   2.619737e+01
  -8.044187e+01  -5.842433e+01
  -4.649927e+01  -6.962785e+01
   6.323595e+01  -3.649490e+01
   7.231595e+01  -6.648499e+00
   6.834731e+01   4.156917e+01
  -7.805217e+00   5.663258e+01
  -2.691082e+01   2.687629e+00
   1.270772e+01  -2.053415e+01
   2.053949e+01  -3.349756e+01
   1.611873e+01   1.515421e+01
  -6.584050e+01   5.066829e+01
  -9.301762e+01   4.765277e+01
  -6.537995e+01  -3.794337e+00
   1.688035e+01  -5.823513e+01
   4.702734e+01  -8.729266e+01
   5.819452e+00  -1.797799e+01
   7.386350e+00   1.962270e+01
  -3.773808e+01   3.128355e+01
  -1.353975e+01   4.169249e+00
  -2.389204e+00  -2.761281e+01
  -2.083292e+01  -3.438150e+01
   3.728884e+01   8.385265e+00
   3.633396e+01   3.527669e+01
   4.846815e+01  -1.244880e+01
  -1.069061e+00  -1.708650e+01
  -1.857460e+01  -2.162015e+01
  -6.979137e+00   1.548925e+01
   2.540733e+01   4.585499e+01
  -4.735637e+01  -2.218134e+00
  -4.097672e+01  -2.018301e+01
  -3.141721e-01  -6.072173e+01
   6.724615e+01  -1.957910e+01
   6.508053e+01   2.951318e+01
   9.166383e+00   5.853504e+01
  -3.555261e+01   3.470894e+01
  -1.105480e+02  -1.926591e+01
  -4.524855e+01  -4.406412e+01
   3.587909e+01  -4.202958e+01
   4.007584e+01  -3.656188e+00
   1.970469e+01   2.074026e+01
  -1.527929e+01   7.513595e+00
  -2.345166e+01  -4.831101e+00
   1.661749e+01  -1.029384e+01
   7.798146e+01  -2.409717e+01
