
 $NMID
 id='ANONYMOUS ', fmtdat='(2E16.6)'
 volume=1.0
 tramp=1.0
 $END
   4.659813e+03   1.057319e+02
   2.802471e+03   2.538830e+03
  -8.136046e+02   2.804562e+03
  -2.294653e+03   1.087622e+03
  -9.244841e+02  -6.838540e+02
   6.209176e+02  -7.712238e+02
   8.430930e+02   5.517902e+02
  -5.043605e+01   1.175223e+03
  -8.028008e+02   7.221519e+02
  -9.468545e+02  -1.474235e+02
  -4.848715e+02  -8.832168e+02
   3.448460e+02  -8.632890e+02
   6.873037e+02  -2.076086e+02
   3.676861e+02   7.473794e+02
  -3.704374e+02   8.563009e+02
  -5.629897e+02  -1.092810e+01
  -2.511153e+02  -7.084585e+02
   4.072914e+02  -6.886680e+02
   6.007024e+02  -1.259307e+02
   3.938561e+02   4.072076e+02
   7.006611e+00   4.667207e+02
  -2.603683e+02   2.500099e+02
  -1.878825e+02   1.428661e+01
   1.329507e+02  -1.092671e+02
   4.765638e+02   1.193593e+02
   2.766767e+02   4.736717e+02
  -5.106284e+02   3.819096e+02
  -8.735562e+02  -6.325427e+01
  -4.341435e+02  -6.228207e+02
   4.291883e+02  -5.075544e+02
   8.586023e+02   4.954193e+01
   3.406114e+02   5.009008e+02
  -2.793304e+02   5.507488e+02
  -6.122827e+02   2.276535e+02
  -4.790089e+02  -2.916415e+02
  -1.207370e+02  -5.118256e+02
   2.234353e+02  -2.990162e+02
   1.835860e+02   2.205472e+02
  -1.338864e+02   4.404720e+02
  -4.857628e+02  -5.435226e+01
  -2.489090e+02  -7.755757e+02
   4.339516e+02  -7.539928e+02
   5.693153e+02  -3.891257e+01
   2.216041e+02   5.844043e+02
  -2.887586e+02   3.188274e+02
  -4.473607e+02  -3.934315e+02
   7.132491e+01  -6.016258e+02
   5.870017e+02  -1.484351e+02
   6.341334e+02   4.395181e+02
   1.774278e+02   6.188904e+02
  -4.127583e+02   3.732032e+02
  -6.795939e+02  -6.789957e+01
  -3.721453e+02  -4.150395e+02
   1.378638e+02  -3.784530e+02
   4.820696e+02  -5.268226e+01
   2.777071e+02   2.002480e+02
  -1.121659e+02   1.094895e+02
  -1.244439e+02  -1.878225e+02
   1.761437e+02  -1.692772e+02
   3.651713e+02   1.124648e+02
   1.540735e+02   3.432732e+02
  -2.116762e+02   2.792872e+02
  -3.474439e+02   9.542682e+01
  -1.903410e+02  -1.005769e+02
   4.601529e+00  -2.369399e+02
   2.536470e+02  -3.461372e+02
   3.920086e+02  -2.312631e+02
   3.178072e+02   1.471067e+02
   6.616312e+01   4.457524e+02
  -1.154331e+02   3.906348e+02
  -1.298751e+02   1.548614e+02
  -3.746779e+00   1.152205e+01
  -5.654220e+01   9.688873e+01
  -1.819597e+02   1.528085e+02
  -2.817374e+02  -7.089965e+01
  -1.659657e+02  -3.078190e+02
   7.749003e+01  -2.674450e+02
   2.467215e+02  -4.095026e+01
   1.897083e+02   2.752943e+02
   1.690607e+01   3.376085e+02
  -2.799626e+02   1.340309e+02
  -4.218147e+02  -1.625365e+02
  -2.277411e+02  -3.764468e+02
   9.376107e+01  -3.367879e+02
   2.429237e+02  -1.165082e+02
   1.454317e+02  -1.114803e+01
   6.858941e+01  -1.365898e+01
   2.348400e+02  -7.858187e+01
   4.312085e+02   2.896349e+01
   3.680288e+02   2.707606e+02
   2.567248e+01   4.690315e+02
  -3.512902e+02   4.471729e+02
  -5.171982e+02   2.183492e+02
  -3.643235e+02  -1.178413e+02
  -6.450589e+01  -3.407881e+02
   1.084818e+02  -2.625530e+02
   7.888518e+01  -3.538505e+01
  -1.506200e+02   1.042416e+02
  -2.354531e+02   9.502885e+00
  -5.401648e+01  -2.221004e+02
   1.804032e+02  -1.412309e+02
   1.701360e+02   4.432920e+01
  -1.686919e+01   2.028574e+02
  -1.967532e+02   8.390122e+00
  -1.703571e+02  -2.642847e+02
   3.936846e+00  -3.412602e+02
   2.444136e+02  -2.150067e+02
   3.353589e+02   3.150920e+01
   2.915151e+02   2.464234e+02
   1.028893e+02   2.807209e+02
  -1.068649e+02   1.924626e+02
  -1.944454e+02   5.517349e+00
  -7.606098e+01  -1.638427e+01
   7.542177e+01   4.652741e+01
   1.621267e+01   1.264823e+02
  -1.497382e+02   8.965885e+01
  -1.887187e+02  -2.811390e+01
  -6.694903e+01  -6.180506e+01
   5.722674e+01  -7.341712e+00
   6.603800e+01   8.478158e+01
  -1.197161e+02   9.197881e+01
  -2.880606e+02   1.653134e+01
  -2.775860e+02  -1.421295e+02
  -7.678739e+01  -2.553130e+02
   1.989256e+02  -2.879538e+02
   2.839640e+02  -1.475247e+02
   1.783008e+02   5.123967e+01
  -2.821947e+01   1.308488e+02
  -6.810452e+01   1.238847e+01
   2.055855e+01  -1.026690e+02
   2.061539e+02  -5.161278e+01
   2.499454e+02   1.183294e+02
   9.234765e+01   2.330813e+02
  -9.108926e+01   1.500656e+02
  -1.653636e+02   6.295544e+01
  -8.139972e+01  -3.420297e+01
   2.234330e+01  -1.159551e+01
   6.293030e+01   8.199190e+01
  -6.083754e+01   1.116101e+02
  -1.906123e+02   4.391126e+01
  -1.983616e+02  -1.077379e+02
  -5.285247e+01  -2.248173e+02
   1.704192e+02  -1.651633e+02
   2.076310e+02  -1.634166e+01
   8.376063e+01   1.121420e+02
  -8.543754e+01   1.019502e+02
  -8.412977e+01   3.546908e+01
  -3.081210e+01  -2.520602e+01
   1.822798e+01  -3.212616e+01
   1.267222e+01   2.235028e+00
  -7.287060e+01  -3.063893e+01
  -1.032759e+02  -7.201901e+01
  -2.761764e+01  -1.563848e+02
   1.348103e+02  -1.744663e+02
   2.866782e+02  -3.552843e+01
   2.277399e+02   1.417383e+02
   6.159027e+01   2.526521e+02
  -7.249186e+01   1.596331e+02
  -1.418616e+02   4.399494e+01
  -8.041487e+01  -6.431594e+01
   5.617761e+00  -4.690533e+01
  -7.113195e+01   2.310643e+01
  -5.432513e+01   1.171865e+01
  -5.673445e+01  -3.956705e+01
   1.660217e+01  -9.809930e+01
   1.062736e+02  -5.152265e+01
   8.314397e+01   2.880346e+01
   1.116181e+01   1.013855e+02
  -1.340599e+02   5.837401e+01
  -1.952290e+02  -3.778554e+01
  -1.154817e+02  -2.271160e+02
   9.187101e+01  -2.477477e+02
   2.633407e+02  -8.947102e+01
   2.513070e+02   9.744109e+01
   8.892603e+01   1.874664e+02
  -4.531161e+01   1.704121e+02
  -9.174608e+01   9.867085e+01
  -6.963346e+01   6.512685e+01
  -7.544274e+01   1.237392e+02
  -9.200198e+01   8.430237e+01
  -1.289881e+02  -1.357681e+01
  -1.127758e+02  -1.549020e+02
  -3.904098e+01  -2.232481e+02
   9.943343e+01  -1.749874e+02
   1.872656e+02  -2.921472e+01
   1.843283e+02   1.153418e+02
   6.832764e+00   1.820329e+02
  -6.494793e+01   1.006256e+02
  -3.204875e+01  -6.055244e+00
   8.208630e+00  -5.195802e+01
   1.963888e+01  -3.438408e+01
  -3.528094e+01  -1.464114e+01
  -7.229120e+01  -6.170019e+00
  -3.778610e+01  -4.374138e+00
   7.351521e+01  -2.912416e+01
   1.860195e+02  -3.607801e+01
   1.608511e+02   5.716749e+01
   1.420660e+01   9.250725e+01
  -1.424310e+02   8.509984e+01
  -1.816466e+02   1.369329e+01
  -2.948892e+01  -2.972912e+01
   6.473421e+01  -3.932843e+01
   1.003649e+02   2.051803e+01
   2.762775e+01   6.977863e+01
  -4.472615e+01   6.016415e+01
  -5.067525e+01   1.088300e+01
  -4.082365e+01  -5.655602e+01
  -3.061990e+01  -1.975757e+01
  -5.912343e+01  -7.734593e+00
  -7.631486e+01  -1.402678e+01
  -3.073930e+01  -8.206642e+01
   5.514336e+01  -1.495467e+02
   1.235314e+02  -1.520629e+02
   1.766533e+02  -3.286381e+01
   1.276414e+02   7.596242e+01
   3.364482e+00   1.467468e+02
  -4.659172e+01   6.759675e+01
  -4.966098e+01  -2.395242e+01
   4.952376e+01  -1.647412e+01
   1.406517e+02   4.622377e+01
   8.482605e+01   7.992626e+01
  -1.079572e+02   8.857368e+01
  -2.146531e+02   5.424807e+01
  -1.494223e+02  -8.744878e+00
  -7.864239e+00  -7.914912e+01
   8.618720e+01  -7.974887e+01
   6.177786e+01   8.887811e-01
  -4.637761e+01   2.408520e+01
  -8.185508e+01  -5.085092e+01
  -4.210663e+01  -1.259879e+02
   9.734450e+01  -1.648070e+02
   1.606831e+02  -6.999263e+01
   1.581219e+02   1.071951e+02
   2.159044e+01   1.910439e+02
  -7.417887e+01   1.631616e+02
  -7.614365e+01  -1.632086e+01
  -5.173236e+01  -1.123553e+02
   1.517273e+01  -1.058499e+02
   5.040958e+01  -2.067354e+01
   2.050685e+01   4.119553e+01
   2.710246e+01   3.082670e+00
  -1.225087e+01  -1.052129e+01
   5.185277e+00   2.428573e+00
   5.352269e+01   9.372810e+01
   4.099479e+01   1.312275e+02
  -6.115689e+01   7.333387e+01
  -1.306300e+02  -5.583384e+01
  -1.313168e+02  -9.112910e+01
  -3.472254e+01  -5.689354e+01
   9.231278e+01  -4.087351e+01
   1.003199e+02  -2.016298e+01
   5.787525e+00  -8.878169e+00
  -4.776164e+01   2.762917e+01
  -6.387684e+00   1.168968e+01
   1.763444e+01  -2.092884e+01
   6.709193e+00  -4.058200e+01
  -8.494446e+01  -2.001238e+01
  -8.287443e+01  -9.200071e+00
  -1.595452e+01  -7.593065e+01
   1.237029e+02  -8.841349e+01
   1.826170e+02  -8.999602e+01
   1.401437e+02   6.272075e+01
   4.039965e+01   1.606351e+02
  -7.961603e+01   1.595712e+02
  -1.037430e+02   6.009147e+01
  -8.867146e+01  -3.578341e+01
  -2.471936e+01  -3.423853e+01
   1.108932e+01  -1.689313e+01
  -2.465515e+01  -5.756412e-02
  -3.611259e+01  -4.339282e+01
  -5.835122e+00  -6.785614e+01
   4.047901e+01  -7.048060e+01
   8.474047e+01  -1.088473e+01
   8.915394e+01   1.183515e+02
  -2.401420e+01   1.021447e+02
  -7.501533e+01   3.679986e+01
  -1.201989e+02  -8.052094e+01
  -2.314039e+01  -1.240598e+02
   4.832289e+01  -5.250882e+01
   1.183747e+02   1.404333e+01
   5.738659e+01   4.538295e+01
  -4.889577e+01   3.867431e+01
  -1.447445e+01   6.226407e+00
   3.191880e+01   2.281468e+00
   6.398135e+01   1.432986e+01
   3.337129e+00   3.168224e+01
  -8.255774e+01   6.098995e+01
  -9.845327e+01   7.329266e+01
  -8.994944e+01  -2.620830e+01
   2.811425e+00  -9.161165e+01
   9.560736e+01  -6.457774e+01
   3.610086e+01  -2.442276e+01
  -5.564221e+00   6.545277e+01
  -3.961585e+01   3.681788e+01
  -6.325662e+01  -1.020849e+01
  -5.515412e+01  -3.796467e+01
  -2.005114e+01  -2.164131e+01
   1.622028e+01   3.348312e+00
   4.703262e+01   1.603309e+01
  -1.003002e+01  -5.419981e+00
   8.960441e+00   2.183109e+01
   3.184791e+00  -1.554323e+00
   2.544807e+01   3.977370e+01
  -2.468191e+01   5.165711e+01
  -4.135753e+01   6.237577e+00
  -3.792463e+01  -3.188578e+01
   1.621302e+01  -7.872388e+01
   2.140573e+01  -2.644735e+01
   3.860575e+01   4.284048e+01
   4.118521e+01   5.021939e+01
  -5.671781e+01   5.402935e+01
  -1.108210e+02  -9.861702e+00
  -4.868644e+01  -4.766473e+01
   5.901348e+01  -4.059498e+01
   7.488411e+01  -2.803903e+01
   3.422129e+00  -1.763448e+01
  -5.717883e+01  -1.152784e+01
  -5.784231e+01  -1.680198e+01
   3.274556e+01  -9.710735e+00
   8.462041e+01  -4.105382e-01
