
 $NMID
 id='ANONYMOUS ', fmtdat='(2E16.6)'
 volume=1.0
 tramp=1.0
 $END
   3.877214e+03   1.493811e+02
   2.182832e+03   2.296315e+03
  -1.372113e+02   2.436631e+03
  -1.590841e+03   9.716957e+02
  -1.074003e+03  -1.801224e+02
   4.107791e+02  -4.023601e+02
   6.613801e+02   2.350753e+02
   1.351174e+02   7.517900e+02
  -6.164975e+02   7.536809e+02
  -8.120782e+02   6.992400e+01
  -4.226848e+02  -7.348648e+02
   6.594245e+01  -8.619313e+02
   4.555294e+02  -1.393878e+02
   3.388786e+02   5.020043e+02
  -1.798545e+02   6.241960e+02
  -5.544855e+02   9.088383e+01
  -2.980495e+02  -5.645346e+02
   2.213336e+02  -5.991747e+02
   5.176553e+02  -1.943388e+02
   4.160872e+02   2.734540e+02
   7.861691e+01   3.502653e+02
  -2.170618e+02   2.761769e+02
  -1.126412e+02   6.994157e+01
   1.682403e+02  -1.169405e+00
   3.197594e+02   2.020109e+02
   3.849073e+01   3.864176e+02
  -4.310296e+02   2.932960e+02
  -7.414726e+02  -1.622238e+02
  -3.284225e+02  -4.011328e+02
   3.796281e+02  -2.675582e+02
   6.325779e+02   5.640988e+01
   3.407256e+02   4.413009e+02
  -2.669266e+02   4.031651e+02
  -5.221353e+02   1.343616e+02
  -3.838909e+02  -1.926134e+02
  -6.862486e+01  -3.717570e+02
   1.185701e+02  -2.583179e+02
   7.189087e+01   1.767456e+02
  -1.942386e+02   3.151253e+02
  -3.138659e+02  -9.434885e+01
  -1.679921e+02  -6.163574e+02
   2.995820e+02  -5.563629e+02
   4.872466e+02   7.527019e+00
   2.610427e+02   4.313213e+02
  -1.915958e+02   2.339877e+02
  -2.884215e+02  -3.129966e+02
   1.393345e+02  -4.740992e+02
   4.875557e+02  -1.075588e+02
   4.929398e+02   3.849850e+02
   1.733021e+02   5.234888e+02
  -3.118233e+02   2.739665e+02
  -5.666144e+02  -5.883443e+01
  -3.306584e+02  -3.234116e+02
   7.628583e+01  -3.485702e+02
   3.364663e+02  -3.818537e+01
   2.226123e+02   7.770964e+01
  -3.956509e+01   2.324045e+01
  -1.238892e+02  -8.180494e+01
   1.039720e+02  -1.310084e+02
   2.827659e+02   7.344855e+01
   1.628952e+02   2.568603e+02
  -1.647527e+02   2.483639e+02
  -3.012043e+02   8.954275e+01
  -2.248750e+02  -7.118164e+01
   2.157535e+01  -2.636595e+02
   3.005541e+02  -3.262749e+02
   3.521921e+02  -1.752430e+02
   2.959182e+02   1.331444e+02
   5.432659e+01   4.149602e+02
  -7.282670e+01   3.205303e+02
  -5.235239e+01   1.553161e+02
  -3.769315e+01   6.035150e+01
  -8.691228e+01   1.024485e+02
  -1.940676e+02   1.164353e+02
  -2.390625e+02  -6.903375e+01
  -1.437021e+02  -2.628874e+02
   7.193315e+01  -2.265089e+02
   2.052992e+02   1.785131e+01
   1.692552e+02   2.529945e+02
  -1.237473e+01   2.555216e+02
  -2.800573e+02   9.520182e+01
  -3.517712e+02  -1.615619e+02
  -1.465649e+02  -3.339559e+02
   5.799976e+01  -3.095787e+02
   1.945656e+02  -1.184981e+02
   1.744220e+02  -1.136056e+01
   1.193951e+02  -7.152492e+01
   2.513670e+02  -5.482893e+01
   3.926104e+02   7.486471e+01
   3.124445e+02   2.466996e+02
  -4.267275e-01   4.560996e+02
  -3.786951e+02   4.042304e+02
  -5.022462e+02   1.877656e+02
  -3.228121e+02  -7.083164e+01
  -5.440315e+01  -2.667391e+02
   1.168629e+02  -2.053924e+02
   1.192553e+01  -9.088437e+00
  -8.023195e+01   9.488240e+01
  -1.811337e+02  -6.883707e+00
   1.297411e+01  -1.773628e+02
   1.133755e+02  -1.250275e+02
   1.401062e+02   9.716142e+01
  -3.188674e+01   1.727050e+02
  -1.409981e+02   1.296190e+00
  -1.475829e+02  -2.347843e+02
   4.025022e+01  -3.149353e+02
   2.160635e+02  -2.048259e+02
   3.327200e+02   3.803670e+01
   2.600719e+02   2.447705e+02
   7.261069e+01   2.496957e+02
  -1.153247e+02   1.448473e+02
  -1.705987e+02   4.967921e+00
  -5.342917e+01  -3.011338e+01
   5.830835e+01   7.695501e+01
   1.543480e+01   1.116894e+02
  -9.504940e+01   7.854092e+01
  -1.427223e+02  -3.383907e+01
  -5.262268e+01  -4.430458e+01
   1.001778e+02  -1.938603e+01
   3.124391e+01   9.021752e+01
  -1.426014e+02   8.604400e+01
  -2.809829e+02  -3.741414e+00
  -2.299896e+02  -1.389314e+02
  -4.356699e+01  -2.524092e+02
   1.821100e+02  -2.200378e+02
   2.607830e+02  -8.043920e+01
   1.452154e+02   3.748595e+01
  -2.298592e+01   1.108768e+02
  -6.721004e+01  -1.360709e+01
   2.831400e+01  -7.571724e+01
   1.797558e+02  -6.366287e+01
   1.948251e+02   9.601824e+01
   4.272613e+01   1.930175e+02
  -5.160111e+01   1.289738e+02
  -1.506672e+02   2.154343e+01
  -4.767345e+01  -3.090979e+01
   2.788385e+01  -3.075791e+01
   3.637607e+01   8.881145e+01
  -7.410065e+01   1.108772e+02
  -1.953428e+02  -1.677298e-01
  -1.895013e+02  -1.411999e+02
  -3.107852e+01  -1.851501e+02
   1.506353e+02  -1.648810e+02
   1.625008e+02  -1.145288e+01
   7.227159e+01   1.248546e+02
  -3.018720e+01   9.357233e+01
  -6.584799e+01   2.841964e+01
   7.261267e+00  -4.586147e+01
   2.591736e+01  -1.933460e+01
  -1.279690e+01   2.833016e+00
  -7.217812e+01  -6.602142e+00
  -9.983532e+01  -8.768749e+01
  -2.259387e+01  -1.798012e+02
   1.413029e+02  -1.838294e+02
   2.107292e+02  -3.317946e+01
   1.617113e+02   1.612751e+02
   4.723400e+01   2.160082e+02
  -1.108922e+02   1.759521e+02
  -1.359921e+02   2.270327e+01
  -7.390242e+01  -4.961371e+01
  -4.389588e+00  -1.817703e+01
  -5.155599e+01   3.773918e+01
  -8.837458e+01   2.081925e+01
  -5.296468e+01  -4.060793e+01
   3.763627e+01  -9.974675e+01
   9.115847e+01  -8.072901e+01
   6.753401e+01   3.725700e+01
  -1.563861e+01   1.239786e+02
  -1.370281e+02   8.651294e+01
  -2.077047e+02  -5.211205e+01
  -9.183895e+01  -2.253988e+02
   9.939768e+01  -2.519369e+02
   2.830000e+02  -1.186406e+02
   2.212456e+02   9.973901e+01
   6.413404e+01   1.567200e+02
  -5.439988e+01   1.580501e+02
  -9.320711e+01   1.196092e+02
  -7.136557e+01   9.110832e+01
  -4.915017e+01   1.146871e+02
  -9.094899e+01   6.489417e+01
  -1.670803e+02  -3.684911e+01
  -8.449617e+01  -1.887012e+02
  -3.028234e+01  -2.189486e+02
   8.736377e+01  -1.604703e+02
   1.580917e+02  -1.526711e+01
   1.034632e+02   1.522116e+02
  -1.875231e+00   1.347219e+02
  -8.638948e+01   9.191682e+01
  -5.487384e+01  -6.347670e+00
   1.994107e+01  -1.754349e+01
   1.417025e+01  -3.517007e+01
  -2.803872e+01  -1.178975e+01
  -8.802299e+01   4.117654e+00
  -4.841985e+01  -9.373761e+00
   9.553348e+01  -3.742845e+01
   1.634296e+02  -2.138978e-02
   1.362853e+02   4.043970e+01
   4.582975e+00   7.066187e+01
  -9.711290e+01   8.039454e+01
  -1.350458e+02   8.202821e+00
  -3.709144e+01  -2.461862e+01
   3.297303e+01  -5.002820e+01
   7.240599e+01   2.724886e+01
   1.133779e+01   8.402027e+01
  -3.827372e+01   5.627656e+01
  -8.208220e+01  -5.001456e+00
  -3.298280e+01  -4.238416e+01
  -4.736678e+01  -8.021416e+01
  -7.911787e+01  -2.068445e+00
  -6.875451e+01   2.644937e+01
  -3.764252e+01  -7.407538e+01
   3.955220e+01  -1.492296e+02
   1.038061e+02  -1.548222e+02
   1.472393e+02  -2.527919e+01
   1.097818e+02   7.047476e+01
   1.389534e+01   1.547851e+02
  -9.760886e+01   7.269357e+01
  -5.720907e+01   8.017782e+00
   7.714750e+01  -4.351107e+01
   1.200782e+02   2.326872e+01
   9.279404e+01   7.564507e+01
  -9.324523e+01   1.419989e+02
  -1.621808e+02   5.967542e+01
  -1.601283e+02  -1.423821e+01
  -2.371196e+01  -8.199965e+01
   6.620659e+01  -6.589687e+01
   4.040312e+01  -1.339715e+01
  -3.392594e+01   1.866452e+01
  -9.084815e+01  -1.779175e+01
  -6.145819e+01  -1.068220e+02
   8.364113e+01  -1.459683e+02
   1.812457e+02  -5.297647e+01
   1.269047e+02   1.156876e+02
  -1.643955e+00   2.060205e+02
  -8.849110e+01   1.350654e+02
  -9.115711e+01  -2.214302e+01
  -5.419612e+01  -1.273788e+02
   1.644334e+01  -9.919602e+01
   6.068961e+01  -2.084473e+01
   7.919443e+01   3.697123e+01
   9.928447e+00  -8.777062e+00
   1.696000e+01  -2.592115e+01
   3.194369e+01   2.108370e+01
   4.300827e+01   9.496046e+01
   1.419836e+01   1.038611e+02
  -4.023492e+01   5.737300e+01
  -1.088177e+02  -5.269486e+01
  -1.464068e+02  -3.540862e+01
  -2.148228e+01  -7.403733e+01
   8.341003e+01  -1.166919e+01
   7.238394e+01  -1.980500e+01
   9.658637e+00   1.723257e+01
  -4.169882e+01   3.274207e+01
  -1.758576e+01   1.597050e+00
   1.597181e+01  -2.023064e+00
   1.017504e+01  -3.687827e+01
  -4.604892e+01  -1.850258e+01
  -7.412936e+01   8.792697e+00
  -2.303900e+01  -9.406213e+01
   1.129337e+02  -1.128290e+02
   1.665864e+02  -5.810121e+01
   1.574162e+02   4.893576e+01
   4.889918e+01   1.423748e+02
  -7.410497e+01   1.538454e+02
  -1.118182e+02   8.210605e+01
  -8.401559e+01  -7.286726e+00
  -2.995591e+01  -4.231090e+01
   9.364222e+00  -2.914237e+01
  -2.421963e+01  -4.384622e+00
  -3.558133e+01  -4.124076e+01
  -2.285118e+01  -7.464949e+01
   1.889607e+01  -7.600995e+01
   8.860346e+01   7.854600e+00
   5.772479e+01   1.121970e+02
   2.283442e+01   1.018931e+02
  -7.900628e+01   5.093632e+01
  -1.025893e+02  -6.678896e+01
  -3.751642e+01  -1.152067e+02
   5.146428e+01  -5.776945e+01
   8.896324e+01   2.450174e+01
   3.258071e+01   4.555581e+01
  -1.767785e+01   6.305090e+01
  -4.088186e+01   2.000804e+01
   3.573795e+01   1.034544e+01
   8.643270e+01   1.188114e+01
   5.044724e+01   4.913447e+01
  -9.227756e+01   5.108575e+01
  -1.001161e+02   5.616849e+01
  -7.211924e+01  -9.585784e+00
  -1.206168e+00  -9.601256e+01
   6.656781e+01  -9.865810e+01
   3.305855e+01  -6.783392e-01
  -1.526876e+01   4.973863e+01
  -1.127027e+01   3.710628e+01
  -4.892344e+00  -2.621646e+01
  -3.654428e+01  -4.147414e+01
   1.162935e+01  -6.603881e+01
   2.385621e+01   1.404977e+01
   3.165746e+01   2.999093e+01
   1.665160e+01  -1.028493e+01
   1.619704e+00   4.898683e+00
  -3.581446e+00  -1.371667e+01
   1.068888e+01   4.552502e+01
  -9.410093e+00   5.152976e+01
  -2.503018e+01   4.092894e+01
  -5.732648e+01  -2.874979e+01
   8.884938e+00  -9.006314e+01
   5.256125e+01  -3.645001e+01
   5.586352e+01   2.853079e+01
   2.924061e+01   6.016810e+01
  -6.280009e+01   4.250060e+01
  -7.495542e+01   8.904103e+00
  -3.962611e+01  -1.839098e+01
  -6.175102e-01  -4.250140e+01
   9.682349e+01  -4.025662e+01
   1.325775e+01   1.016634e+00
  -2.856665e+01  -3.521035e+00
  -2.827307e+01  -9.060732e+00
   3.301286e+01  -3.252820e+01
   7.651794e+01  -3.094263e+01
