
 $NMID
 id='ANONYMOUS ', fmtdat='(2E16.6)'
 volume=1.0
 tramp=1.0
 $END
   3.387984e+03  -1.512824e+02
   2.366297e+03   1.691718e+03
  -1.693433e+02   2.262103e+03
  -1.332336e+03   1.222831e+03
  -8.755714e+02  -1.345576e+02
   3.463503e+02  -4.579438e+02
   5.423930e+02   9.698084e+01
   1.231581e+02   5.751125e+02
  -4.669101e+02   6.312412e+02
  -6.981998e+02   4.059584e+01
  -4.120758e+02  -5.290880e+02
   1.070180e+01  -7.851313e+02
   3.935608e+02  -1.809321e+02
   3.103947e+02   3.962772e+02
  -9.282209e+01   5.881086e+02
  -4.345327e+02   6.195352e+01
  -3.036413e+02  -4.940644e+02
   1.769753e+02  -6.161293e+02
   4.522470e+02  -1.762640e+02
   4.213410e+02   1.992125e+02
   6.935692e+01   3.451558e+02
  -1.225178e+02   2.448023e+02
  -1.096917e+02   4.561340e+01
   1.385477e+02   6.892421e+01
   3.296713e+02   2.433600e+02
   3.113104e+01   3.116368e+02
  -4.884355e+02   2.321533e+02
  -6.242378e+02  -8.899342e+01
  -2.627248e+02  -3.366520e+02
   3.544824e+02  -2.724622e+02
   5.144762e+02   4.401194e+01
   2.330519e+02   3.437705e+02
  -2.226051e+02   3.556741e+02
  -4.675097e+02   1.433852e+02
  -3.124321e+02  -1.827467e+02
  -5.892881e+01  -3.574088e+02
   8.088926e+01  -2.195170e+02
   7.003235e+01   1.050261e+02
  -1.851011e+02   3.152650e+02
  -2.532031e+02  -8.910372e+01
  -1.170656e+02  -4.918914e+02
   2.480390e+02  -5.255228e+02
   2.911958e+02  -4.325065e+01
   7.614149e+01   3.839307e+02
  -1.594517e+02   1.485762e+02
  -2.420943e+02  -2.509532e+02
   9.217361e+01  -4.261549e+02
   3.912342e+02  -3.768432e+01
   4.721205e+02   3.333712e+02
   1.490683e+02   4.907819e+02
  -2.789515e+02   3.033479e+02
  -5.032405e+02  -4.646200e+01
  -3.598904e+02  -2.328703e+02
   1.030121e+02  -2.577345e+02
   3.414939e+02  -1.001970e+02
   2.348202e+02   5.925023e+01
  -1.558294e+01   4.232123e+01
  -7.757595e+01  -8.359022e+01
   1.595456e+02  -9.204411e+01
   2.564573e+02   3.085653e+01
   1.030633e+02   1.600742e+02
  -1.693030e+02   2.585873e+02
  -3.065036e+02   1.157999e+02
  -2.191829e+02  -9.883112e+01
   3.651416e+00  -2.683480e+02
   2.274692e+02  -3.802960e+02
   3.150552e+02  -1.629986e+02
   2.392331e+02   1.166317e+02
   6.302069e+01   3.694184e+02
  -6.589023e+01   3.244487e+02
  -2.897149e+01   1.500489e+02
  -5.825864e+01   9.506869e+01
  -8.877502e+01   1.152779e+02
  -2.265178e+02   7.041854e+01
  -2.232992e+02  -1.175204e+02
  -1.021698e+02  -2.689822e+02
   6.477158e+01  -1.939430e+02
   1.793110e+02   3.921543e+01
   1.450772e+02   2.146266e+02
  -4.173785e+01   2.729735e+02
  -2.391297e+02   6.692229e+01
  -3.241366e+02  -1.451928e+02
  -1.665355e+02  -2.650574e+02
   6.026637e+01  -2.533475e+02
   1.626790e+02  -1.459900e+02
   1.339562e+02  -5.621730e+01
   1.136672e+02  -2.973028e+01
   2.453669e+02  -4.469669e+01
   3.652409e+02   1.135421e+02
   2.588774e+02   2.643662e+02
   2.460966e+01   4.192111e+02
  -3.091322e+02   3.543463e+02
  -4.595427e+02   1.777316e+02
  -2.856721e+02  -7.955030e+01
  -8.287862e+00  -2.371773e+02
   7.631041e+01  -2.146492e+02
   1.462183e+01  -6.515284e+01
  -1.107427e+02   4.113311e+01
  -1.048445e+02   4.537664e+00
  -1.707580e+01  -1.452267e+02
   1.280482e+02  -9.040715e+01
   1.229918e+02   3.963108e+01
  -1.328041e+01   1.393309e+02
  -1.391009e+02  -1.096101e+01
  -1.448577e+02  -2.182817e+02
   2.807989e+01  -3.228116e+02
   2.030806e+02  -2.108799e+02
   2.889623e+02   6.202008e+01
   2.697620e+02   2.323670e+02
   8.153203e+01   2.394667e+02
  -9.551666e+01   1.218935e+02
  -1.731748e+02   2.865242e+00
  -5.214433e+01  -5.039218e+01
   5.182782e+01   3.922131e+01
   2.352909e+01   1.161503e+02
  -1.054508e+02   8.212215e+01
  -1.448842e+02  -2.139832e+01
  -3.468158e+01  -5.309165e+01
   7.924878e+01   2.383395e+00
   2.178964e+01   8.069267e+01
  -1.332724e+02   7.682034e+01
  -2.769281e+02  -3.062321e+01
  -2.568876e+02  -1.605267e+02
  -4.202260e+01  -2.444977e+02
   1.971972e+02  -2.422109e+02
   2.460384e+02  -1.045848e+02
   1.377445e+02   4.651470e+01
   1.333773e+00   1.040887e+02
  -7.074675e+01  -1.947751e-01
   6.066028e+01  -7.005848e+01
   1.514993e+02  -5.249689e+01
   1.894621e+02   1.029899e+02
   5.730712e+01   1.851718e+02
  -7.845410e+01   1.354949e+02
  -1.082651e+02   1.605569e+01
  -4.816505e+01  -1.742915e+01
   4.706264e+01   1.865029e+01
   5.943144e+01   9.746231e+01
  -7.861572e+01   1.001360e+02
  -1.965164e+02   1.860725e+01
  -2.087602e+02  -1.051703e+02
  -2.198960e+01  -2.062748e+02
   1.462931e+02  -1.316226e+02
   1.654764e+02  -1.130101e+01
   3.990775e+01   6.946903e+01
  -5.835275e+01   9.114603e+01
  -6.140251e+01   5.556778e+00
  -1.209635e+01  -1.171422e+01
   4.099201e+01   1.076566e+01
  -2.521240e+01   1.743385e+01
  -7.497625e+01  -5.417740e+00
  -8.333055e+01  -7.959726e+01
  -2.088103e+01  -1.568466e+02
   1.158142e+02  -1.302343e+02
   2.212115e+02   1.052116e+01
   1.809498e+02   1.587511e+02
   3.910686e+01   1.792113e+02
  -9.531582e+01   1.786174e+02
  -9.639354e+01   4.644989e+01
  -4.816793e+01  -2.857333e+01
  -2.847536e+01  -8.928567e+00
  -5.654931e+01  -1.676865e+00
  -6.145077e+01   1.190194e+00
  -1.655906e+01  -2.937356e+01
   8.490429e+00  -9.723991e+01
   1.260861e+02  -4.081271e+01
   9.807224e+01   4.813095e+01
  -2.244895e+01   1.013221e+02
  -1.518061e+02   7.618364e+01
  -1.737014e+02  -5.691361e+01
  -7.844476e+01  -1.808481e+02
   1.363467e+02  -1.766832e+02
   2.512932e+02  -1.054277e+02
   2.302414e+02   8.652934e+01
   1.084070e+02   1.730072e+02
  -1.064065e+01   1.215718e+02
  -6.622002e+01   6.335060e+01
  -3.446947e+01   6.637744e+01
  -3.496407e+01   5.478556e+01
  -9.235451e+01   6.370024e+01
  -1.243465e+02  -4.762494e+00
  -1.354595e+02  -1.314502e+02
  -2.731665e+01  -2.243526e+02
   9.378471e+01  -1.580382e+02
   1.538736e+02  -1.104134e+00
   1.083836e+02   1.048532e+02
   5.298629e+00   1.590158e+02
  -5.356674e+01   7.596485e+01
  -4.159776e+01   2.180855e+01
  -2.261210e+00  -6.768703e+01
  -3.117571e+00  -1.852119e+01
  -1.724810e+01  -2.011059e+01
  -7.982817e+01  -9.466265e-01
  -1.631084e+01  -2.295467e+01
   3.404254e+01  -4.073933e+01
   1.526123e+02   5.748892e+00
   1.033841e+02   7.584088e+01
   1.737609e+01   1.157207e+02
  -1.104354e+02   7.829361e+01
  -1.151333e+02   2.927282e+01
  -4.176925e+01  -4.460060e+01
   5.276811e+01  -2.572406e+01
   7.049460e+01   1.943206e+01
   3.290401e+01   7.090576e+01
  -2.291290e+01   5.927150e+01
  -6.145054e+01   4.823683e+00
  -4.704967e+01  -2.452039e+01
  -6.109133e+01  -5.468994e+01
  -5.078495e+01   4.925849e+00
  -6.124974e+01  -1.115276e+01
  -3.403107e+01  -4.733996e+01
  -1.822393e+01  -1.408631e+02
   7.878494e+01  -1.419041e+02
   1.484366e+02  -4.376130e+00
   1.276130e+02   9.465106e+01
   1.886244e+01   1.347355e+02
  -9.691325e+01   7.607979e+01
  -4.711887e+01   2.813857e+00
   5.885064e+01  -2.275007e+01
   1.286344e+02   2.439219e+01
   8.186997e+01   1.033095e+02
  -7.465406e+01   1.112521e+02
  -1.661915e+02   4.265121e+01
  -1.475330e+02  -2.695095e+01
  -1.408607e+01  -7.537687e+01
   2.707832e+01  -6.187606e+01
   4.543489e+01   5.409961e+00
  -5.252701e+01   3.248550e+01
  -9.720903e+01  -6.400460e+00
  -3.507964e+01  -9.334645e+01
   8.621054e+01  -1.612302e+02
   1.594341e+02  -5.583336e+01
   9.613756e+01   8.440330e+01
   1.092452e+01   1.937109e+02
  -6.425190e+01   1.216102e+02
  -1.053186e+02   8.187821e+00
  -5.708370e+01  -1.066101e+02
   3.814295e-01  -8.719186e+01
   2.590306e+01   1.490663e+01
   4.272461e+01   3.003041e+01
   2.458000e+01   7.388306e+00
  -2.779737e+01  -2.570121e+01
   1.046406e+01   2.819984e+01
   6.955464e+01   1.021015e+02
   6.002606e+01   1.013176e+02
  -4.587468e+01   1.600124e+01
  -1.419488e+02  -2.259703e+01
  -1.202526e+02  -5.754246e+01
  -1.139594e+01  -4.416837e+01
   9.505461e+01  -2.971979e+01
   8.738690e+01  -6.457183e+00
   1.871283e+01  -8.472084e+00
  -5.187569e+01   2.140370e+01
  -2.819874e+01   1.390816e+01
   1.061014e+01   1.672658e+00
  -5.095867e+00   3.711921e+00
  -6.061429e+01  -1.971781e+01
  -8.081530e+01  -4.659701e+01
  -9.589908e+00  -8.145206e+01
   1.138869e+02  -1.013144e+02
   1.845497e+02  -5.608082e+01
   1.612014e+02   6.652752e+01
   3.617947e+01   1.318976e+02
  -6.201423e+01   1.385307e+02
  -1.045009e+02   6.725522e+01
  -7.507122e+01  -1.879925e+01
  -3.152507e+01  -2.523328e+01
  -2.140296e+00  -2.682522e+01
  -4.187748e+01  -5.831598e+00
  -4.979878e+01  -1.146164e+01
  -2.361326e+01  -8.570044e+01
   8.287804e+00  -5.671779e+01
   6.449453e+01   4.597432e+01
   8.375685e+01   1.078400e+02
  -7.220872e+00   6.947241e+01
  -6.232233e+01   3.560752e+01
  -8.930009e+01  -5.876952e+01
  -6.683620e+01  -9.441722e+01
   3.894424e+01  -3.756776e+01
   7.904506e+01  -3.982888e+00
   3.852920e+01   6.317087e+01
  -2.745075e+01   5.091297e+01
  -2.903661e+01   1.298559e+01
   2.120237e+01   1.137308e+01
   5.347010e+01  -2.119887e+01
   1.364102e+01   2.610090e+01
  -6.244740e+01   6.024465e+01
  -1.130301e+02   4.404816e+01
  -6.105630e+01  -1.039095e+00
   9.368288e+00  -6.678544e+01
   6.710041e+01  -8.433027e+01
   7.733868e+00  -2.074188e+01
  -2.162413e+00   3.946190e+01
  -2.827736e+01   4.908465e+01
  -4.271131e+01  -3.860406e+01
  -1.760188e+01  -6.059668e+01
   1.089416e+01  -3.278111e+01
   4.329078e+01  -9.398070e+00
   5.316311e+01   1.758860e+01
   5.951815e+01  -5.695057e+00
   1.784331e+01  -1.215009e+01
   4.437027e-01  -2.526097e+01
   1.015755e+01   3.719808e+01
  -2.510792e+01   2.427601e+01
  -3.493809e+01   2.261772e+01
  -1.516385e+01  -4.706401e+01
  -2.330165e+01  -3.713186e+01
   3.967280e+01  -1.764483e+01
   7.073417e+01   4.268672e+01
   1.336431e+01   7.586677e+01
  -4.519408e+01   2.258906e+01
  -7.579369e+01  -3.047093e+01
  -4.440908e+01  -3.429908e+01
   3.462879e+01  -6.112722e+01
   6.124527e+01  -3.807970e+01
   3.807431e+01   9.340146e+00
  -5.411297e+01   8.790697e+00
  -4.585375e+01   5.435120e-01
   3.469337e+01   1.002432e+01
   6.738026e+01   1.132158e+01
