
 $NMID
 id='ANONYMOUS ', fmtdat='(2E16.6)'
 volume=1.0
 tramp=1.0
 $END
   3.041975e+03  -3.321159e+02
   1.993382e+03   1.451907e+03
  -2.352090e+02   2.190422e+03
  -1.343771e+03   1.254896e+03
  -8.981859e+02   1.040320e+02
   1.271919e+02  -3.097045e+02
   4.807966e+02   1.921059e+02
   9.289867e+01   6.639547e+02
  -4.197729e+02   5.393123e+02
  -6.597926e+02   1.098450e+02
  -4.235822e+02  -5.517899e+02
  -6.181396e+01  -7.447271e+02
   3.345379e+02  -2.437144e+02
   2.188003e+02   4.504012e+02
  -1.657432e+02   4.976920e+02
  -4.747229e+02   1.278765e+02
  -3.254723e+02  -4.651875e+02
   1.140911e+02  -5.324460e+02
   4.465025e+02  -2.548015e+02
   4.763648e+02   1.435264e+02
   1.036673e+02   3.282083e+02
  -1.612125e+02   2.014037e+02
  -6.108711e+01   1.147681e+02
   1.551543e+02   7.661116e+01
   2.235058e+02   2.498736e+02
  -5.304680e+01   3.268908e+02
  -4.084221e+02   2.045121e+02
  -6.342848e+02  -5.353192e+01
  -1.877584e+02  -3.556546e+02
   3.423822e+02  -2.332485e+02
   4.155170e+02   7.052285e+01
   1.874123e+02   3.730511e+02
  -2.551578e+02   3.464939e+02
  -4.209995e+02   1.540492e+02
  -3.175182e+02  -1.502532e+02
  -9.727819e+01  -3.467470e+02
   7.226281e+01  -2.268824e+02
   5.816559e+01   1.077647e+02
  -1.640194e+02   2.237762e+02
  -2.083313e+02  -1.136457e+02
  -5.181007e+01  -5.018025e+02
   2.120840e+02  -4.347641e+02
   3.269179e+02   4.178071e+01
   1.326771e+02   3.313426e+02
  -1.963817e+02   1.135866e+02
  -2.107245e+02  -2.566913e+02
   1.308708e+02  -3.548511e+02
   4.248623e+02  -6.208734e+01
   4.958183e+02   3.542703e+02
   7.929333e+01   4.653122e+02
  -2.451432e+02   3.115299e+02
  -4.966862e+02  -3.992027e+01
  -2.756619e+02  -2.860263e+02
   5.550579e+01  -2.275000e+02
   2.709413e+02  -8.446407e+01
   1.908914e+02   3.653502e+01
   2.362557e-01   7.389323e+01
  -7.636964e+01  -5.252329e+01
   1.291221e+02  -4.140643e+01
   2.436221e+02   4.667353e+01
   1.388193e+02   1.856488e+02
  -1.535513e+02   2.453021e+02
  -3.273874e+02   1.326747e+02
  -2.185056e+02  -6.919610e+01
  -6.622424e+00  -2.851018e+02
   2.428257e+02  -3.175920e+02
   3.312653e+02  -1.621395e+02
   2.074993e+02   1.299535e+02
   3.492260e+01   3.476121e+02
  -4.872962e+01   2.825253e+02
  -2.033356e+01   1.574820e+02
  -2.996840e+01   9.031801e+01
  -1.066093e+02   1.104838e+02
  -2.089302e+02   5.313709e+01
  -2.315238e+02  -1.411665e+02
  -1.094342e+02  -2.376171e+02
   9.322208e+01  -1.473987e+02
   2.045209e+02   1.238616e+01
   1.368250e+02   2.138558e+02
  -3.499050e+01   2.318335e+02
  -2.229594e+02   3.143229e+01
  -2.698028e+02  -1.188775e+02
  -1.305552e+02  -2.577666e+02
   3.531700e+01  -2.445860e+02
   1.485187e+02  -1.199584e+02
   1.422966e+02  -5.547994e+01
   1.279649e+02  -7.210343e+01
   2.482253e+02  -4.531949e+01
   3.617109e+02   9.652238e+01
   2.975001e+02   2.818447e+02
   2.834429e+00   4.006832e+02
  -3.229305e+02   3.934379e+02
  -4.535716e+02   1.562771e+02
  -2.574809e+02  -1.136653e+02
   6.298817e-02  -2.379727e+02
   8.868963e+01  -1.978128e+02
   6.583200e+00  -2.495024e+01
  -1.155664e+02   5.557067e+01
  -1.093191e+02  -5.467979e+01
  -2.590173e+01  -1.295239e+02
   1.281673e+02  -7.614467e+01
   1.189322e+02   5.054567e+01
  -2.964409e+01   1.201607e+02
  -1.640499e+02  -8.364381e+00
  -1.322759e+02  -1.896624e+02
   2.336822e+01  -3.123291e+02
   2.311286e+02  -1.888589e+02
   3.072116e+02   6.201182e+01
   2.517284e+02   2.347431e+02
   7.138060e+01   2.472542e+02
  -1.263130e+02   1.100757e+02
  -1.560860e+02   3.769338e-01
  -1.810611e+01  -1.352963e+01
   7.198733e+01   2.889107e+01
   3.249832e+01   8.989167e+01
  -1.425316e+02   8.777035e+01
  -1.434823e+02  -3.999647e+01
  -1.289391e+01  -5.164497e+01
   6.572457e+01  -1.060396e+01
   2.904116e+01   1.127889e+02
  -1.400560e+02   8.890994e+01
  -2.751181e+02  -1.275127e+01
  -2.389451e+02  -1.605063e+02
  -1.800226e+01  -2.509229e+02
   2.105649e+02  -2.516885e+02
   2.547808e+02  -8.191643e+01
   1.108307e+02   6.146985e+01
  -4.831158e+01   8.467205e+01
  -5.955913e+01  -1.929517e+00
   6.479920e+01  -7.239271e+01
   1.433034e+02  -5.276447e+01
   1.595743e+02   1.223702e+02
   5.378558e+01   1.906423e+02
  -1.114477e+02   1.588287e+02
  -8.221459e+01   2.610040e-01
  -4.308998e+01  -4.510170e+01
   4.538404e+01   4.882251e+00
   1.867613e+01   9.821519e+01
  -7.886372e+01   9.921482e+01
  -2.124675e+02   1.479791e+01
  -1.770233e+02  -1.104387e+02
  -2.419207e+01  -1.901124e+02
   1.304336e+02  -1.405673e+02
   1.481100e+02  -1.943956e+01
   5.814504e+01   1.178167e+02
  -4.446399e+01   9.900630e+01
  -5.964931e+01   3.469943e+01
   3.957784e+00  -2.790536e+01
   1.739366e+01  -8.963363e-01
  -1.043498e+01   2.728058e+01
  -8.454513e+01  -4.987729e+00
  -9.507079e+01  -8.688929e+01
   9.090598e+00  -1.723540e+02
   1.413274e+02  -1.165678e+02
   2.226371e+02  -3.860831e+01
   1.384306e+02   1.587072e+02
   3.565345e+01   2.095954e+02
  -7.869276e+01   1.577251e+02
  -1.415867e+02   2.767769e+01
  -6.962071e+01  -3.880025e+01
  -4.553549e+01  -3.853232e+01
  -4.107527e+01   2.158298e+01
  -6.274211e+01   8.205450e+00
  -4.895669e+01  -4.689121e+01
   1.341125e+01  -9.928540e+01
   1.116710e+02  -6.938231e+01
   9.709262e+01   2.325778e+01
   6.978116e+00   1.211884e+02
  -1.562561e+02   8.195960e+01
  -1.777047e+02  -4.497981e+01
  -7.103518e+01  -2.040996e+02
   1.168260e+02  -1.855824e+02
   2.460960e+02  -8.616605e+01
   2.260247e+02   9.294208e+01
   9.429457e+01   1.406509e+02
  -3.323879e+01   1.234655e+02
  -7.552809e+01   6.391681e+01
  -7.614077e+01   6.045726e+01
  -4.676825e+01   9.337747e+01
  -8.997466e+01   6.892873e+01
  -1.143717e+02  -1.259510e+01
  -1.207890e+02  -1.256911e+02
  -2.550782e+01  -2.008175e+02
   1.213318e+02  -1.280020e+02
   1.491355e+02   1.143160e+01
   1.013240e+02   1.236328e+02
   1.486765e+01   1.602881e+02
  -4.670989e+01   8.582972e+01
  -5.044245e+01  -8.240938e+00
   1.288895e+01  -5.342699e+01
   1.905307e+01  -4.599547e+01
  -5.603665e+01  -4.061627e+00
  -7.780126e+01  -2.831656e+01
  -2.489607e+01  -3.858295e+01
   5.956975e+01  -1.740054e+01
   1.726565e+02  -1.069462e+01
   1.376954e+02   4.554564e+01
  -8.270643e+00   1.184761e+02
  -1.043066e+02   6.598500e+01
  -1.187038e+02   3.865188e+00
  -2.825980e+01  -4.307532e+01
   3.040194e+01  -4.716970e+01
   6.720801e+01   1.744671e+01
  -5.130224e+00   5.142528e+01
  -4.537865e+01   7.937024e+01
  -8.752786e+01  -1.041151e+01
  -6.135282e+01  -5.854228e+01
  -5.350957e+01  -7.209562e+01
  -3.574538e+01   1.086342e+01
  -5.513270e+01  -2.626982e+01
  -2.524990e+01  -7.359442e+01
  -2.485861e+00  -1.380082e+02
   1.112522e+02  -1.293050e+02
   1.670473e+02  -2.435165e+01
   9.235640e+01   8.117680e+01
  -1.690469e+01   9.760586e+01
  -8.472682e+01   5.328644e+01
  -4.327585e+01  -1.601461e+01
   4.707130e+01  -1.981539e+01
   1.070928e+02   2.727567e+01
   7.479963e+01   1.140756e+02
  -1.002821e+02   1.012656e+02
  -1.904821e+02   4.010078e+01
  -1.758418e+02  -4.179843e+01
  -2.758244e+01  -8.097752e+01
   6.453938e+01  -3.961964e+01
   3.438090e+01  -3.714023e+00
  -3.761958e+01   2.251481e+01
  -8.181466e+01  -2.083344e+01
  -3.798618e+01  -6.594566e+01
   6.312156e+01  -1.477632e+02
   1.578255e+02  -5.767361e+01
   1.110050e+02   7.667973e+01
   2.964464e+01   1.879185e+02
  -6.449109e+01   1.345198e+02
  -8.498134e+01   1.867910e+01
  -3.076165e+01  -9.888918e+01
   1.198482e+01  -7.770631e+01
   2.740527e+01  -4.447691e+00
   5.650717e+01   2.487125e+01
   2.476696e+01   1.231598e+01
  -7.516425e+00  -2.265682e+01
   2.654551e+01   5.261257e+00
   4.734575e+01   1.021378e+02
   4.338447e+01   1.070123e+02
  -2.991598e+01   2.671875e+01
  -1.427460e+02  -2.331250e+01
  -1.071429e+02  -6.068509e+01
   4.341348e+00  -2.907342e+01
   7.208722e+01  -7.240356e+00
   8.754712e+01  -1.335807e+01
   1.603568e+01  -1.984889e+00
  -3.432751e+01   3.135768e+01
  -2.444423e+01   2.600058e+00
   4.217769e+01  -1.627826e+00
  -6.588089e+00  -1.901385e+01
  -8.154626e+01  -1.344868e+01
  -1.011423e+02  -3.063734e+00
  -2.311337e+01  -5.387690e+01
   1.044123e+02  -1.204757e+02
   1.641330e+02  -7.119727e+01
   1.394416e+02   3.716826e+01
   3.574023e+01   1.348080e+02
  -8.209128e+01   1.321885e+02
  -8.917567e+01   6.240486e+01
  -5.886821e+01  -3.640178e+01
  -6.441622e+00  -2.791008e+01
  -1.502335e+01  -4.357127e+01
  -3.459820e+01  -5.886497e+00
  -3.095254e+01  -5.569216e+01
  -1.141366e+01  -6.949856e+01
   1.556469e+01  -5.371974e+01
   7.683098e+01   2.160301e+01
   6.455834e+01   9.590843e+01
   1.260887e+01   8.461794e+01
  -5.754876e+01   3.842799e+01
  -1.072889e+02  -7.532022e+01
  -4.217808e+01  -1.048764e+02
   4.985725e+01  -3.537881e+01
   6.735609e+01  -7.874508e+00
   6.717276e+01   5.735856e+01
  -2.697884e+01   5.386373e+01
  -3.921366e+01   3.477339e+01
   1.629490e+01  -6.707995e+00
   5.443868e+01  -7.825517e+00
   4.029686e+01   3.692178e+01
  -6.863154e+01   7.558049e+01
  -1.060057e+02   3.664524e+01
  -5.591206e+01  -1.359626e+01
   3.125389e+01  -5.755064e+01
   4.148072e+01  -8.329007e+01
   4.391479e+01  -8.933708e+00
  -5.537813e+00   4.626301e+01
  -1.531117e+01   4.122965e+01
  -6.387758e+01  -1.505819e+01
  -2.037091e+01  -6.070754e+01
   1.937524e+01  -3.610576e+01
   4.804475e+01   8.938592e+00
   3.456765e+01   2.082984e+01
   2.110874e+01  -6.349427e+00
   2.863077e+00  -2.153307e+01
  -1.501237e+01  -1.873619e+01
   1.340328e+01   3.150707e+01
   2.194025e+01   1.668840e+01
  -4.397963e+01   1.344335e+01
  -3.555952e+01  -3.651449e+01
   2.065237e+00  -6.221312e+01
   6.474186e+01  -4.183766e+01
   5.176481e+01   3.596866e+01
   1.372545e+01   6.158536e+01
  -7.721397e+01   4.950545e+01
  -6.114578e+01  -3.357169e+01
  -5.874015e+01  -2.978176e+01
   1.516717e+01  -3.239239e+01
   5.542899e+01  -1.037324e+01
   2.548416e+01   1.108089e+01
  -4.106314e+01   2.139896e+01
  -1.555735e+01  -8.607583e+00
   2.367838e+01  -6.345740e+00
   7.416036e+01  -9.289235e+00
