
 $NMID
 id='ANONYMOUS ', fmtdat='(2E16.6)'
 volume=1.0
 tramp=1.0
 $END
  -3.332659e+03   4.404749e+01
  -2.284553e+03  -2.018089e+03
   2.390757e+02  -2.326166e+03
   1.638572e+03  -1.078556e+03
   7.000850e+02   2.018194e+02
  -3.323601e+02   3.746108e+02
  -4.633214e+02  -1.882226e+02
  -7.930534e+01  -6.970361e+02
   5.859015e+02  -5.330371e+02
   7.741072e+02   1.646735e+01
   4.079659e+02   6.670405e+02
  -7.721195e+01   7.498534e+02
  -5.078212e+02   1.434112e+02
  -2.848206e+02  -4.907972e+02
   2.169984e+02  -6.003985e+02
   4.303521e+02  -5.328127e+01
   2.870083e+02   4.985073e+02
  -2.135488e+02   6.320388e+02
  -4.983583e+02   1.187641e+02
  -3.996790e+02  -2.465764e+02
  -8.874300e+01  -3.583938e+02
   1.541969e+02  -2.342123e+02
   9.867480e+01  -3.346271e+01
  -1.074412e+02  -2.121373e+01
  -3.728072e+02  -2.039883e+02
  -3.169892e+01  -3.415086e+02
   4.632930e+02  -2.501354e+02
   7.012209e+02   9.200120e+01
   2.727120e+02   4.448049e+02
  -4.208582e+02   2.940641e+02
  -5.620480e+02  -1.412528e+02
  -2.131513e+02  -3.528142e+02
   2.755472e+02  -3.641329e+02
   4.906865e+02  -1.783469e+02
   3.206867e+02   1.866853e+02
   1.675657e+01   3.557255e+02
  -1.421136e+02   2.054121e+02
  -3.044963e+01  -1.439428e+02
   1.780671e+02  -3.627715e+02
   2.886273e+02   2.479154e+01
   9.777078e+01   5.215367e+02
  -2.707578e+02   4.955182e+02
  -4.248522e+02  -7.902968e+00
  -9.716771e+01  -3.281089e+02
   1.944598e+02  -1.297915e+02
   2.791947e+02   2.684830e+02
  -7.583454e+01   4.919374e+02
  -4.365681e+02   6.227439e+01
  -5.053839e+02  -3.596015e+02
  -1.452281e+02  -4.651999e+02
   3.073181e+02  -3.271078e+02
   5.701098e+02   5.065781e+01
   3.537381e+02   2.834754e+02
  -7.439646e+01   2.759276e+02
  -3.311610e+02   7.428292e+01
  -2.089549e+02  -7.358594e+01
   3.727567e+01  -5.225256e+01
   8.085906e+01   8.605154e+01
  -1.329337e+02   1.064437e+02
  -2.770618e+02  -2.967251e+01
  -1.090652e+02  -1.941029e+02
   1.611771e+02  -2.587688e+02
   3.087795e+02  -9.931540e+01
   2.107627e+02   8.577763e+01
  -1.011677e+01   3.002365e+02
  -2.196754e+02   3.597977e+02
  -3.299221e+02   1.447062e+02
  -2.322499e+02  -1.558486e+02
  -1.043406e+02  -3.645920e+02
   1.072626e+02  -3.242634e+02
   5.877977e+01  -1.549212e+02
   3.505489e+01  -5.517556e+01
   9.643968e+01  -1.287352e+02
   2.233844e+02  -6.866047e+01
   2.269883e+02   1.141934e+02
   1.428626e+02   2.562616e+02
  -5.672738e+01   1.719975e+02
  -2.084906e+02  -4.139901e+01
  -1.688928e+02  -2.469806e+02
   8.988501e+00  -2.633266e+02
   2.523377e+02  -7.017678e+01
   3.421067e+02   1.504197e+02
   1.318908e+02   2.910851e+02
  -9.114451e+01   2.859972e+02
  -1.936843e+02   1.627120e+02
  -1.511505e+02   2.348208e+01
  -1.124020e+02   1.636422e+01
  -2.536704e+02   4.119068e+01
  -3.668947e+02  -9.371826e+01
  -3.092793e+02  -2.781943e+02
   3.561833e+00  -4.203919e+02
   3.406606e+02  -3.691230e+02
   4.628862e+02  -1.790259e+02
   3.044924e+02   9.766594e+01
  -3.190043e+00   2.267473e+02
  -8.516450e+01   2.118214e+02
  -3.719833e+01   2.956458e+01
   1.052257e+02  -4.121532e+01
   1.224761e+02   3.336214e+01
   1.485974e+01   1.575809e+02
  -1.368472e+02   8.749204e+01
  -1.100685e+02  -8.227524e+01
   2.934976e+01  -1.765483e+02
   1.331902e+02  -2.558301e+01
   1.436160e+02   1.783691e+02
  -3.715076e+01   3.090251e+02
  -2.241445e+02   1.798522e+02
  -2.878500e+02  -6.454039e+01
  -2.495107e+02  -2.491705e+02
  -8.237297e+01  -2.523873e+02
   1.060836e+02  -1.589996e+02
   1.723505e+02  -2.558610e+01
   5.479927e+01   1.584994e+01
  -7.379724e+01  -4.189577e+01
  -3.940194e+01  -1.090351e+02
   1.159854e+02  -8.128908e+01
   1.494720e+02   3.075387e+01
   4.411249e+01   7.565084e+01
  -7.284259e+01  -9.078645e-01
  -4.836484e+01  -1.091254e+02
   1.409836e+02  -7.192457e+01
   2.716220e+02   2.208419e+01
   2.434493e+02   1.641652e+02
   6.403332e+01   2.707516e+02
  -2.228301e+02   2.489202e+02
  -2.909470e+02   1.139353e+02
  -1.772230e+02  -5.250613e+01
   2.076696e+01  -9.748484e+01
   8.403692e+01   6.529006e+00
  -7.387608e+01   6.061940e+01
  -1.988817e+02   8.345740e+01
  -1.704052e+02  -9.296038e+01
  -8.010221e+01  -1.770705e+02
   1.156408e+02  -1.171355e+02
   1.230439e+02  -3.735134e+01
   5.149229e+01   5.300629e+01
  -2.456129e+01  -2.294818e+01
  -6.363187e+01  -4.884865e+01
   9.683943e+01  -8.696450e+01
   2.315512e+02  -2.011787e+01
   1.586996e+02   1.200927e+02
   2.290644e+01   1.842250e+02
  -1.522672e+02   1.444740e+02
  -1.835640e+02  -3.906459e+00
  -4.874200e+01  -8.486802e+01
   4.035369e+01  -1.081488e+02
   4.887469e+01  -6.023959e+01
  -1.734343e+00   5.623791e+00
  -2.297014e+01  -1.632303e+01
   7.628822e+00  -8.301733e+00
   8.925592e+01   1.341583e+01
   1.075984e+02   7.645313e+01
   1.801578e+01   1.714587e+02
  -1.392408e+02   1.315720e+02
  -2.202300e+02  -8.760042e+00
  -1.570468e+02  -1.383675e+02
  -2.871037e+01  -2.138000e+02
   1.161487e+02  -1.604089e+02
   1.151252e+02  -1.777025e+01
   5.141371e+01   6.660759e+01
   4.969603e+01   4.152084e+01
   7.794559e+01  -6.573191e+00
   8.064474e+01  -7.814890e+00
   4.236540e+01   7.212700e+01
  -1.603730e+01   8.328128e+01
  -8.358577e+01   6.911755e+01
  -1.073818e+02  -4.972626e+01
   3.256265e+01  -1.111770e+02
   1.498656e+02  -8.131039e+01
   2.200399e+02   5.433974e+01
   6.139830e+01   1.983987e+02
  -1.117151e+02   2.099700e+02
  -2.475531e+02   1.109772e+02
  -2.218684e+02  -8.430099e+01
  -1.024944e+02  -1.880437e+02
   5.570135e+01  -1.275870e+02
   7.532263e+01  -7.287948e+01
   6.433200e+01  -8.046789e+01
   6.306580e+01  -7.513615e+01
   9.320099e+01  -6.824531e+01
   1.112762e+02   2.799205e+01
   1.081707e+02   1.210125e+02
   1.527117e+01   2.292332e+02
  -7.965812e+01   1.498980e+02
  -1.368649e+02   1.132968e+01
  -1.096094e+02  -1.317104e+02
  -3.751935e+00  -1.659200e+02
   6.221638e+01  -6.358490e+01
   3.626900e+01  -6.059442e+00
   1.574467e+01   8.626866e+01
  -4.455413e+00   3.416538e+01
   1.554589e+01  -2.192551e+00
   6.551262e+01   5.714916e+00
   5.025144e+01   1.589174e+01
  -5.178892e+01   2.810559e+01
  -1.421083e+02   5.891396e+00
  -1.403583e+02  -8.064775e+01
  -6.791045e+00  -9.648112e+01
   1.093948e+02  -6.570419e+01
   1.340740e+02  -2.823398e+01
   4.834976e+01   4.896478e+01
  -3.645340e+01   1.996795e+01
  -7.573344e+01  -2.007578e+01
  -1.645426e+01  -5.284186e+01
   2.338492e+01  -5.142722e+01
   6.650189e+01  -3.517539e+01
   5.503118e+01   5.130036e+01
   4.025846e+01   7.323432e+01
   3.917794e+01   2.790775e+01
   6.977784e+01   2.957310e+01
   4.101988e+01   7.093799e+01
  -1.422578e+01   1.300268e+02
  -1.074313e+02   1.334100e+02
  -1.660000e+02   3.230101e+01
  -1.481453e+02  -5.685910e+01
  -2.277567e+00  -1.218019e+02
   9.598766e+01  -7.009865e+01
   3.899475e+01   2.301335e+01
  -4.515065e+01   3.609448e+01
  -1.421654e+02  -2.536627e+01
  -8.061947e+01  -1.224907e+02
   8.211745e+01  -1.103839e+02
   2.088067e+02  -5.474381e+01
   1.768380e+02   4.029026e+01
   4.528430e+01   7.531976e+01
  -2.736682e+01   3.907503e+01
  -1.662720e+01   7.390328e+00
   3.534674e+01  -4.485342e+01
   9.401093e+01   3.670682e+01
   5.765469e+01   1.114062e+02
  -7.811648e+01   1.450244e+02
  -1.540029e+02   5.256335e+01
  -1.396746e+02  -1.242654e+02
  -1.954890e+01  -1.983846e+02
   5.404332e+01  -1.327985e+02
   1.203833e+02  -2.993077e+00
   3.215106e+01   1.214114e+02
   3.642966e+00   8.646395e+01
  -5.193347e+01  -5.710491e+00
  -7.788410e+01  -4.779311e+01
  -3.828759e+01  -1.191104e+01
   9.668316e+00   2.985200e+01
   1.178072e+01  -1.837414e+00
  -4.436698e+01  -9.121937e+01
  -4.803082e+01  -1.114655e+02
   3.878599e+01  -5.494280e+01
   1.443317e+02   2.936466e+01
   1.197474e+02   5.091605e+01
   9.731673e+00   4.641750e+01
  -9.983373e+01   3.553062e+00
  -1.057008e+02  -8.519670e+00
  -3.773954e+01  -1.954987e+00
   4.024983e+01  -3.509300e+01
   1.409276e+01  -2.192543e+01
  -1.873354e+01   7.213883e+00
   3.940870e+01   1.035575e+01
   3.691077e+01   1.550654e+01
   8.546037e+01   5.390524e+01
   1.711381e+01   8.068657e+01
  -9.966524e+01   1.242532e+02
  -1.768842e+02   6.390763e+01
  -1.270445e+02  -5.445744e+01
  -4.581942e+01  -1.580034e+02
   8.593485e+01  -1.268955e+02
   1.144813e+02  -8.443778e+01
   6.291474e+01   2.391508e+01
   3.005906e+01   3.289285e+01
  -1.089234e+01   3.433452e+01
   3.548258e+01  -1.386576e+01
   2.852972e+01   7.862013e+01
  -1.436995e+01   6.599118e+01
  -2.410994e+01   5.858184e+01
  -8.703964e+01  -2.836632e+01
  -5.843359e+01  -9.451911e+01
   9.738447e+00  -8.847742e+01
   9.160323e+01  -5.225437e+01
   9.156735e+01   7.267301e+01
   3.213352e+01   7.285391e+01
  -7.025139e+01   5.468361e+01
  -7.262758e+01   1.054072e+01
  -3.915906e+01  -4.789006e+01
   1.713106e+01  -6.227517e+01
   2.239563e+01  -2.152865e+01
  -2.394750e+01  -1.729710e+01
  -5.681250e+01  -1.587469e+00
  -1.135375e+01  -2.884000e+01
   8.781735e+01  -4.551551e+01
   9.349749e+01  -5.966177e+01
   8.244406e+01   3.273822e+01
  -3.254373e+01   8.484752e+01
  -6.439885e+01   9.301787e+01
  -2.449225e+01   3.994261e+01
  -2.258976e+01  -5.573417e+01
   2.753532e+01  -1.236829e+01
   5.534085e+01   3.866340e+01
   1.696723e+01   4.567126e+01
  -1.288746e+01   2.048223e+01
  -3.379687e+01  -2.159121e+00
  -3.156855e+01  -4.198424e+01
  -1.873125e+01   7.790683e+00
   7.719180e+00   2.068382e+01
  -8.736244e+00   1.359330e+01
   3.315342e+00  -4.894150e+01
   5.122269e+00  -1.798743e+01
   1.068964e+01   8.372749e-01
   2.474248e+01   5.042246e+01
   2.287079e+01   5.803952e+01
  -2.834980e+01   3.117003e+01
  -5.097772e+01  -1.214988e+01
  -1.964423e+01  -5.752831e+01
   5.075183e+01  -2.791194e+01
   8.117923e+01   1.182848e+01
   4.770406e+01   5.002422e+01
  -5.213994e+01   6.135198e+01
  -5.142878e+01   8.112949e+00
  -3.565059e+01   1.532051e+01
   3.557088e+01   8.456676e+00
   3.817009e+01   8.137958e+00
  -1.717447e+01   1.028483e+01
  -5.514562e+01   2.311775e+01
