
 $NMID
 id='ANONYMOUS ', fmtdat='(2E16.6)'
 volume=1.0
 tramp=1.0
 $END
  -3.752113e+03   5.218113e+01
  -2.269793e+03  -2.001458e+03
   3.705900e+02  -2.159712e+03
   1.712527e+03  -7.794571e+02
   9.920312e+02   1.708750e+02
  -2.245181e+02   1.657811e+02
  -6.424869e+02  -2.600832e+02
   1.131651e+02  -8.454075e+02
   5.984243e+02  -6.055904e+02
   7.416490e+02  -5.011912e+01
   3.615236e+02   5.915424e+02
  -1.731998e+02   6.764902e+02
  -4.596299e+02   8.430832e+01
  -3.799978e+02  -5.962914e+02
   2.208087e+02  -6.405530e+02
   5.300252e+02  -1.375014e+01
   2.516780e+02   6.043681e+02
  -2.483707e+02   6.094124e+02
  -4.648080e+02   1.714803e+02
  -4.088259e+02  -2.894312e+02
  -8.530409e+01  -3.728074e+02
   1.985419e+02  -2.588000e+02
   1.155778e+02  -1.973255e+01
  -1.568926e+02  -1.767030e+00
  -2.650689e+02  -2.157844e+02
  -1.423962e+02  -3.798031e+02
   4.257310e+02  -2.677238e+02
   6.612479e+02   1.880591e+02
   3.078010e+02   4.710111e+02
  -3.106208e+02   3.100271e+02
  -5.781704e+02  -1.466793e+02
  -2.623386e+02  -3.385206e+02
   2.086338e+02  -4.258225e+02
   4.582130e+02  -1.699280e+02
   3.874577e+02   1.934080e+02
   1.019777e+02   4.404171e+02
  -1.132920e+02   1.515629e+02
  -8.957766e+01  -2.001629e+02
   1.483793e+02  -2.811931e+02
   3.362807e+02   1.114875e+02
   1.593393e+02   5.694769e+02
  -2.219226e+02   5.159416e+02
  -4.365750e+02   3.511343e+00
  -2.219215e+02  -3.863330e+02
   2.370193e+02  -3.165029e+02
   2.509464e+02   2.600153e+02
  -4.400167e+01   4.548454e+02
  -4.623400e+02   1.457017e+02
  -5.258886e+02  -3.134116e+02
  -1.348758e+02  -4.960812e+02
   3.417794e+02  -2.815495e+02
   5.338554e+02   4.211701e+01
   3.215177e+02   2.965638e+02
  -6.579179e+01   3.078272e+02
  -3.609365e+02   7.683498e+01
  -2.360705e+02  -1.770428e+02
   8.687963e+01  -6.962539e+01
   7.833479e+01   1.350267e+02
  -1.143070e+02   1.341809e+02
  -2.745616e+02  -4.859416e+01
  -1.609232e+02  -2.101199e+02
   1.729404e+02  -2.095235e+02
   2.853075e+02  -9.132187e+01
   2.013122e+02   6.204309e+01
  -4.490555e+01   2.446619e+02
  -2.297052e+02   2.868877e+02
  -3.041956e+02   1.710427e+02
  -2.237455e+02  -1.213111e+02
  -4.346296e+01  -3.834165e+02
   1.052928e+02  -3.438613e+02
   5.806180e+01  -8.163777e+01
   4.341721e+01  -4.012727e+01
   6.682922e+01  -1.030630e+02
   2.033629e+02  -1.081441e+02
   2.115302e+02   6.503371e+01
   1.185122e+02   2.500522e+02
  -7.606852e+01   1.894248e+02
  -2.106345e+02  -3.412998e+01
  -1.364942e+02  -2.309513e+02
  -2.682711e+00  -2.307307e+02
   2.244952e+02  -7.625497e+01
   2.759071e+02   1.574512e+02
   1.833997e+02   3.082258e+02
  -4.762055e+01   2.879732e+02
  -2.204708e+02   1.283071e+02
  -1.478712e+02   3.830784e+01
  -1.193043e+02   4.379963e+01
  -2.201874e+02   4.023616e+01
  -3.695868e+02  -5.010487e+01
  -3.203099e+02  -2.654993e+02
  -1.040305e+00  -4.013236e+02
   3.297792e+02  -3.635938e+02
   4.544437e+02  -1.766474e+02
   2.542581e+02   7.457436e+01
   3.111275e+01   2.218255e+02
  -1.242955e+02   1.841644e+02
  -8.661702e+01   3.206573e+01
   1.011552e+02  -3.297025e+01
   1.624957e+02  -4.691804e+00
   3.640145e+01   1.792213e+02
  -1.067565e+02   1.249250e+02
  -1.415118e+02  -1.840156e+01
   3.830393e+01  -1.514327e+02
   1.678732e+02  -3.603462e+01
   1.193214e+02   2.261334e+02
  -2.546213e+01   2.748570e+02
  -2.080912e+02   1.776279e+02
  -3.166037e+02  -9.009510e+01
  -2.541771e+02  -2.161142e+02
  -6.345276e+01  -2.363054e+02
   1.294808e+02  -1.523425e+02
   1.351104e+02  -2.769235e+01
   2.395110e+01   3.627198e+01
  -6.328503e+01  -7.178279e+01
  -2.230395e+01  -1.039088e+02
   1.300600e+02  -7.883259e+01
   1.555004e+02  -7.285509e+00
   3.805741e+01   5.692764e+01
  -7.416413e+01  -1.708996e+01
  -4.334175e+01  -7.374636e+01
   1.329959e+02  -8.087540e+01
   2.407243e+02  -9.835489e+00
   2.441276e+02   1.266077e+02
   3.622659e+01   2.470636e+02
  -1.998904e+02   2.262288e+02
  -2.838579e+02   9.373915e+01
  -1.242000e+02  -4.155080e+00
  -2.497816e+00  -9.877661e+01
   6.819202e+01   1.584686e+00
  -5.536636e+01   8.605329e+01
  -1.783992e+02   6.437994e+01
  -1.780282e+02  -9.604346e+01
  -6.721856e+01  -2.056574e+02
   7.920435e+01  -1.141187e+02
   1.136814e+02  -3.207697e+01
   4.230947e+01   2.271079e+01
  -4.406094e+01  -1.500338e+01
  -2.440051e+01  -8.742268e+01
   7.815237e+01  -1.043192e+02
   2.093573e+02  -1.654645e+01
   1.856083e+02   1.352294e+02
   2.175790e+01   1.998626e+02
  -1.437281e+02   1.193298e+02
  -1.689158e+02   1.141476e+01
  -5.447228e+01  -9.036675e+01
   4.332636e+01  -1.040848e+02
   5.087004e+01  -1.833976e+01
   1.125488e+01   3.508404e+01
  -2.359614e+01   1.524729e+01
   1.135371e+00  -8.307334e+00
   5.541123e+01   7.974414e+00
   7.472112e+01   8.529140e+01
   3.022419e+01   1.744667e+02
  -1.008937e+02   1.223406e+02
  -2.121464e+02   6.177732e+01
  -1.521884e+02  -1.116856e+02
  -4.437114e+01  -2.145320e+02
   9.559410e+01  -1.602645e+02
   1.165511e+02  -3.365770e+01
   7.869166e+01   5.843548e+01
   5.792801e+01   1.174841e+01
   5.739197e+01  -1.523606e+01
   8.095452e+01  -6.591549e+00
   2.250899e+01   5.986299e+01
  -3.309259e+01   1.072986e+02
  -1.024060e+02   3.742043e+01
  -9.931674e+01  -2.497455e+01
   2.559120e+01  -1.039423e+02
   1.385077e+02  -6.682710e+01
   1.532678e+02   5.897082e+01
   6.516079e+01   1.763659e+02
  -8.926785e+01   2.064036e+02
  -2.145137e+02   8.575933e+01
  -2.313385e+02  -6.362401e+01
  -1.082833e+02  -1.567783e+02
   4.095557e+01  -1.370861e+02
   8.365795e+01  -6.876874e+01
   6.897319e+01  -7.687287e+01
   4.481977e+01  -7.824120e+01
   9.629743e+01  -7.884580e+01
   1.041709e+02   2.474607e+01
   9.974923e+01   1.205532e+02
  -5.451451e+00   1.807349e+02
  -7.786733e+01   1.278804e+02
  -1.416679e+02   4.132641e+01
  -1.177786e+02  -9.674387e+01
  -2.402184e+01  -1.298706e+02
   8.812018e+01  -7.680094e+01
   2.941746e+01   1.523713e+01
   4.745830e+00   4.573526e+01
  -5.142441e+01   2.750665e+01
   4.325146e+01   1.085258e+01
   5.875744e+01   3.166422e+01
   3.388692e+01   3.060118e+01
  -7.448822e+01   3.034373e+01
  -1.697233e+02  -3.555854e+00
  -1.274657e+02  -3.335304e+01
  -1.179718e+01  -7.204416e+01
   1.048495e+02  -6.561127e+01
   1.321385e+02   6.929602e+00
   3.482808e+01   4.106257e+01
  -6.102152e+01   2.303710e+01
  -8.510659e+01  -1.547235e+01
   1.525354e+01  -5.956281e+01
   3.790663e+01  -7.029606e+01
   3.921794e+01   2.323906e+01
   2.884903e+01   5.340681e+01
   3.305376e+01   1.439645e+01
   2.496331e+01   9.274732e+00
   6.938527e+01   1.353562e+01
   1.348155e+01   7.241833e+01
  -4.164978e+01   1.168088e+02
  -1.201256e+02   1.092282e+02
  -1.324230e+02   4.505113e+01
  -1.173380e+02  -5.012254e+01
  -1.799902e+01  -1.013040e+02
   1.088738e+02  -5.479851e+01
   4.819771e+01   2.137198e+00
  -4.941709e+01   3.506069e+01
  -1.152852e+02  -2.379624e+01
  -7.260486e+01  -1.166653e+02
   8.465239e+01  -9.052580e+01
   1.858839e+02  -3.887023e+01
   1.252519e+02   2.876468e+01
   2.076262e+01   5.266098e+01
  -7.757487e+01   5.369264e+01
  -3.953378e+01  -3.834432e+00
   1.692275e+01  -3.380568e+01
   8.185150e+01   2.387591e+01
   2.904901e+01   9.443658e+01
  -6.120738e+01   1.325126e+02
  -1.373268e+02   5.119831e+01
  -1.205834e+02  -7.360421e+01
  -1.190557e+01  -1.625148e+02
   7.130335e+01  -1.237485e+02
   8.090575e+01   1.733258e+01
   4.533914e+01   8.918278e+01
   3.040190e+01   7.622720e+01
  -4.789244e+01   2.788599e+01
  -6.361745e+01  -1.045439e+01
  -1.772884e+01   1.022458e+01
  -3.545806e+00   4.302414e+01
   9.721864e+00  -2.445549e+01
  -6.388925e+01  -9.074379e+01
  -4.190142e+01  -1.067468e+02
   1.609806e+01  -3.626754e+01
   1.251177e+02   1.639154e+01
   1.024887e+02   6.990740e+01
   1.486214e+01   4.385408e+01
  -5.046709e+01   3.070613e+01
  -9.149687e+01   1.137218e+00
  -1.499562e+01  -2.065548e+01
   3.615846e+01  -2.692914e+01
   3.080825e+01  -2.909820e+00
  -9.104045e+00   5.135986e+00
   1.965063e+01   1.669034e+01
   6.658946e+01   2.851466e+00
   6.955967e+01   2.542247e+01
  -1.475827e+01   8.148358e+01
  -1.225475e+02   9.766909e+01
  -1.609027e+02   6.068848e+01
  -1.231954e+02  -3.506423e+01
  -5.436885e+00  -1.328841e+02
   6.394329e+01  -1.427818e+02
   1.137041e+02  -4.190772e+01
   8.239488e+01   4.118680e+01
  -9.653036e+00   4.478525e+01
   1.056475e+01   9.551189e+00
   2.411216e+01  -2.758224e+00
   3.374707e+01   4.214503e+01
   6.624700e+00   7.912025e+01
  -1.801031e+01   6.951468e+01
  -6.919187e+01  -4.412441e+00
  -6.743409e+01  -1.075490e+02
  -1.360326e+01  -8.948504e+01
   8.449588e+01  -4.514480e+01
   5.465344e+01   5.780068e+01
   6.138243e+01   7.276846e+01
  -7.668207e+01   5.178143e+01
  -1.019382e+02   1.123728e+01
  -3.791396e+01  -4.392292e+01
   1.991577e+01  -5.387965e+01
   3.177776e+01  -3.530000e+01
  -2.244096e+01   6.836007e+00
  -5.659454e+01  -8.014062e+00
  -4.398592e+01  -3.028688e+01
   6.084126e+01  -5.196330e+01
   9.437477e+01  -5.532317e+01
   3.970053e+01   4.713610e+01
  -1.497087e+01   8.876789e+01
  -5.027089e+01   6.253192e+01
  -3.545680e+01   9.853404e+00
  -1.727629e+01  -5.586674e+01
   4.602378e+01  -3.654402e+01
   4.091730e+01   1.653737e+01
  -1.130258e+00   4.291374e+01
  -2.279105e+01   3.185272e+01
  -5.032129e+01   1.834206e+01
  -4.036126e+01  -1.245004e+01
  -1.123048e+01  -3.389065e+00
  -1.315513e+00  -1.835893e+01
  -9.010132e+00  -4.395930e+00
   9.256983e+00  -1.654461e+01
   1.683841e+01  -5.091859e+01
   3.845701e+01  -3.707070e+00
   2.784521e+01   3.616132e+01
   1.031033e+00   6.144114e+01
  -2.675738e+01   3.954053e+01
  -7.350548e+01  -2.203223e+01
  -1.702290e+01  -6.146838e+01
   2.844183e+01  -3.904349e+01
   9.147918e+01   4.205072e+01
   4.868496e+01   1.914168e+01
  -1.918298e+01   3.794163e+01
  -4.635760e+01   3.614621e+00
  -4.405378e+00  -1.489348e+01
   3.785821e+01  -2.220265e+01
   2.625176e+01   9.597489e+00
  -4.253277e+01   3.059216e+01
  -5.606293e+01   3.453729e+00
