
 $NMID
 id='ANONYMOUS ', fmtdat='(2E16.6)'
 volume=1.0
 tramp=1.0
 $END
  -4.558281e+03   6.930454e+01
  -2.569731e+03  -2.561400e+03
   7.686344e+02  -2.773668e+03
   2.416150e+03  -5.723444e+02
   8.381403e+02   7.271671e+02
  -9.778326e+02   4.564501e+02
  -9.101704e+02  -5.240708e+02
   8.192783e+01  -1.053611e+03
   8.369764e+02  -7.391333e+02
   9.227787e+02   1.687422e+02
   2.875886e+02   9.246584e+02
  -2.719016e+02   8.463478e+02
  -7.980669e+02   4.897684e+01
  -4.010387e+02  -6.666629e+02
   2.705442e+02  -7.141198e+02
   5.908382e+02   5.947785e+01
   2.402534e+02   5.876982e+02
  -3.484482e+02   5.866440e+02
  -6.006859e+02   1.364067e+01
  -3.600011e+02  -3.881982e+02
   6.125126e+00  -4.779434e+02
   2.275160e+02  -2.403137e+02
   2.463216e+02  -1.284285e+01
  -1.038807e+02   1.314156e+02
  -4.359638e+02  -8.775504e+01
  -2.118419e+02  -4.180509e+02
   4.940643e+02  -4.021700e+02
   8.792176e+02   1.259825e+02
   4.147340e+02   5.476947e+02
  -3.526163e+02   4.996599e+02
  -7.889020e+02  -5.574115e+01
  -3.785572e+02  -4.463847e+02
   2.960958e+02  -5.786793e+02
   5.997517e+02  -2.290432e+02
   4.576123e+02   2.444771e+02
   2.638429e+01   5.180108e+02
  -2.853870e+02   2.794167e+02
  -2.023435e+02  -2.568562e+02
   2.029355e+02  -4.393942e+02
   5.080879e+02   2.655658e+01
   2.857930e+02   7.170367e+02
  -3.143329e+02   6.901954e+02
  -6.224877e+02   8.908942e+00
  -2.403980e+02  -5.535489e+02
   3.000474e+02  -3.301461e+02
   3.784538e+02   3.423906e+02
  -1.015102e+02   5.247316e+02
  -5.063521e+02   1.696434e+02
  -5.822222e+02  -4.318204e+02
  -1.105280e+02  -6.056461e+02
   3.740912e+02  -3.642354e+02
   6.180013e+02   1.081245e+02
   3.388549e+02   3.856947e+02
  -2.415805e+02   3.472753e+02
  -4.589004e+02   8.547581e+01
  -2.449278e+02  -2.507914e+02
   1.228633e+02  -1.105975e+02
   1.847460e+02   1.976143e+02
  -2.129549e+02   1.993603e+02
  -3.215246e+02  -4.646144e+01
  -1.369662e+02  -3.062564e+02
   2.026851e+02  -2.493329e+02
   3.028477e+02  -2.510837e+01
   2.009653e+02   1.005907e+02
  -4.247990e+01   2.049895e+02
  -2.244967e+02   3.114809e+02
  -2.909917e+02   2.275043e+02
  -3.027391e+02  -1.202473e+02
  -4.595233e+01  -4.513446e+02
   9.211330e+01  -3.654066e+02
   1.540736e+02  -1.036915e+02
  -5.739768e+00  -4.803948e+00
   4.721726e+01  -7.470618e+01
   2.104400e+02  -1.552184e+02
   2.440461e+02   3.992933e+01
   1.711080e+02   2.939031e+02
  -6.505630e+01   2.604198e+02
  -2.357591e+02   1.836406e+01
  -2.048636e+02  -2.532092e+02
   2.544455e+01  -2.890263e+02
   2.616338e+02  -1.177482e+02
   3.557377e+02   1.598864e+02
   2.002374e+02   3.511725e+02
  -1.234809e+02   3.337572e+02
  -2.261233e+02   1.240308e+02
  -1.493695e+02  -1.545157e+01
  -1.032321e+02   3.486249e+01
  -2.285756e+02   4.558508e+01
  -3.441080e+02  -4.782681e+01
  -3.329671e+02  -2.619637e+02
  -1.866375e+01  -4.066486e+02
   3.675343e+02  -4.015520e+02
   4.850439e+02  -1.667592e+02
   3.414492e+02   9.694865e+01
   3.725372e+01   2.644973e+02
  -1.280504e+02   2.700603e+02
  -9.632814e+01   2.147388e+01
   1.212078e+02  -1.209464e+02
   2.044765e+02   1.916991e+01
   3.059122e+01   2.055033e+02
  -1.695707e+02   1.763983e+02
  -1.736821e+02  -5.491061e+01
  -9.437381e+00  -2.247847e+02
   2.055767e+02  -1.796699e+01
   1.577093e+02   2.348944e+02
  -2.020470e+01   3.602172e+02
  -2.562101e+02   1.828980e+02
  -3.241712e+02  -7.344748e+01
  -2.426142e+02  -1.987713e+02
  -8.988451e+01  -2.656554e+02
   9.554851e+01  -1.443202e+02
   1.894908e+02  -1.452652e+00
   6.566321e+01   3.977103e+01
  -3.604357e+01  -6.767500e+01
  -4.001394e+01  -1.248620e+02
   1.173141e+02  -1.159544e+02
   1.889951e+02   8.128340e+00
   5.940250e+01   9.799010e+01
  -7.788655e+01   3.232326e+01
  -4.958017e+01  -5.954745e+01
   1.218858e+02  -7.816832e+01
   2.502256e+02  -5.327490e+00
   2.797663e+02   1.392366e+02
   4.756945e+01   2.617008e+02
  -1.680568e+02   2.673853e+02
  -2.772663e+02   1.248552e+02
  -1.608902e+02  -1.411090e+01
   2.853703e+01  -1.181418e+02
   8.221509e+01   4.236899e+00
  -3.673776e+01   8.633034e+01
  -1.863247e+02   4.552015e+01
  -2.313160e+02  -1.174993e+02
  -4.568775e+01  -1.909532e+02
   9.132856e+01  -1.712489e+02
   1.222931e+02  -3.935129e+01
   7.453636e+01   5.484160e+01
   3.367487e-01   1.692900e+01
  -3.415876e+01  -6.928007e+01
   6.262032e+01  -1.107407e+02
   1.997080e+02  -1.682180e+01
   1.540097e+02   1.301653e+02
   1.486264e+01   2.189423e+02
  -1.375234e+02   1.698411e+02
  -1.900095e+02   9.990247e+00
  -7.599901e+01  -1.239416e+02
   7.952691e+01  -7.103082e+01
   7.143764e+01  -2.175349e+01
   1.341191e+01   3.169749e+01
  -1.508168e+01   3.726717e+01
   8.175180e+00  -3.824553e+01
   7.931922e+01   2.334051e+01
   7.101018e+01   5.596583e+01
   7.501425e+00   1.477700e+02
  -1.270270e+02   1.446536e+02
  -2.174515e+02   4.198931e+01
  -1.953546e+02  -1.223133e+02
  -6.792683e+01  -2.197106e+02
   1.055459e+02  -1.560475e+02
   1.365159e+02  -3.780138e+01
   6.086351e+01   6.211878e+01
   5.083561e+01   5.043846e+01
   7.300174e+01   2.311706e+00
   7.324661e+01   1.828192e+01
   3.333439e+01   7.434809e+01
  -2.876743e+01   1.082078e+02
  -6.880190e+01   7.120781e+01
  -1.177881e+02  -3.113462e+01
  -1.171499e+00  -7.965747e+01
   1.192073e+02  -5.723459e+01
   1.871793e+02   4.175835e+01
   1.055285e+02   1.778480e+02
  -8.758831e+01   2.186248e+02
  -2.764130e+02   8.849390e+01
  -2.503076e+02  -4.110783e+01
  -8.284122e+01  -1.560301e+02
   6.270728e+01  -1.455992e+02
   9.872913e+01  -8.005683e+01
   6.151125e+01  -4.140143e+01
   7.384177e+01  -7.721179e+01
   6.659318e+01  -6.829622e+01
   1.232972e+02   9.339566e+00
   1.233065e+02   1.366865e+02
   2.699157e+01   2.252231e+02
  -1.083128e+02   1.577209e+02
  -1.654738e+02   8.785098e+00
  -1.302264e+02  -1.284463e+02
  -2.582235e+01  -1.563631e+02
   7.494427e+01  -9.162446e+01
   3.712166e+01  -3.447755e+01
  -7.985867e+00   2.108712e+01
  -6.635873e+00   4.913955e+01
   5.579142e+01   1.964432e+01
   8.513021e+01   2.426771e+01
   5.155849e+01   3.732033e+01
  -4.840485e+01   3.971791e+01
  -1.600494e+02  -1.971415e+00
  -1.275729e+02  -5.871356e+01
  -2.821745e+01  -7.779350e+01
   9.777704e+01  -5.250422e+01
   1.502674e+02   2.463639e-01
   5.012252e+01   2.349970e+01
  -7.621837e+01   3.845635e+01
  -1.000337e+02  -1.395593e+01
  -7.574088e+00  -6.453782e+01
   4.093497e+01  -5.678048e+01
   7.090801e+01  -2.356020e+00
   6.757473e+01   2.054906e+01
   1.267840e+01   3.283832e+01
   5.801543e+01   6.221207e+00
   6.653231e+01   3.190719e+01
   5.714971e+01   7.936282e+01
  -5.283553e+01   1.475907e+02
  -9.781480e+01   1.154781e+02
  -1.383723e+02   2.959909e+01
  -1.052010e+02  -1.004476e+02
  -6.938051e+00  -8.594625e+01
   6.424931e+01  -5.183390e+01
   7.058390e+01   1.257726e+01
  -5.893600e+01  -7.537587e+00
  -1.341521e+02  -4.463987e+01
  -6.729916e+01  -8.674843e+01
   6.629499e+01  -7.541720e+01
   1.867509e+02  -4.801935e+01
   1.352959e+02   4.650056e+01
   3.986055e+01   9.942532e+01
  -4.975465e+01   9.053067e+01
  -8.624105e+01   3.631839e+01
   2.786629e+01  -4.011344e+01
   9.436203e+01   2.361266e+01
   3.234842e+01   1.116835e+02
  -7.850245e+01   1.216883e+02
  -1.399033e+02   6.014882e+01
  -1.321225e+02  -9.821558e+01
   2.191685e+01  -1.459999e+02
   5.803704e+01  -1.637104e+02
   1.132513e+02   3.349416e+00
   5.718789e+01   1.090499e+02
  -1.317949e+01   1.007672e+02
  -2.696052e+01   1.831803e+01
  -5.855533e+01  -3.439632e+01
  -3.192612e+01  -3.520962e+01
   1.476804e+01   2.980370e+01
  -1.947325e+01  -2.952841e+01
  -5.620758e+01  -7.860613e+01
  -8.650307e+00  -1.163072e+02
   4.931469e+01  -6.477639e+01
   1.319765e+02   4.333370e+01
   1.038829e+02   8.604089e+01
   3.355070e+01   4.383461e+01
  -6.399245e+01   1.529679e+01
  -9.561019e+01  -1.494272e+00
   5.194899e+00  -1.333448e+00
   9.826549e+00  -4.482344e+01
   2.942431e+01  -5.222644e+01
  -2.444981e+01  -1.530585e+01
   1.077406e+00  -6.529918e+00
   6.676900e+01   1.023293e+01
   8.851983e+01   2.286215e+01
   1.125185e+00   5.522400e+01
  -1.113240e+02   1.178103e+02
  -2.032861e+02   3.658386e+01
  -1.551750e+02  -5.453119e+01
  -1.129283e+01  -1.788543e+02
   8.841461e+01  -1.458553e+02
   1.280123e+02  -4.986056e+01
   7.889656e+01   3.406379e+01
  -6.487616e+00   2.577202e+01
   7.176423e+00   3.553951e+01
   2.802635e+01   9.210652e+00
   3.017315e+01   5.569061e+01
   4.578229e+01   9.880592e+01
  -3.007625e+01   5.882996e+01
  -7.568033e+01  -1.778176e+01
  -7.589657e+01  -1.071003e+02
   1.540250e+01  -1.239963e+02
   9.801755e+01  -2.533276e+01
   9.106174e+01   7.259509e+01
   5.114381e+01   1.021758e+02
  -5.389042e+01   9.097424e+01
  -9.582053e+01  -2.179788e+01
  -4.510463e+01  -3.538542e+01
  -1.455063e+01  -2.970357e+01
   3.463305e+01  -4.950376e+01
  -6.478096e+01  -2.931768e+01
  -7.043090e+01   2.957974e+01
  -1.126748e+01  -4.766224e+00
   8.831288e+01  -5.967754e+01
   9.977563e+01  -6.419613e+01
   6.749672e+01   3.123540e+01
  -5.695718e+01   7.561326e+01
  -7.996995e+01   6.735486e+01
  -4.141052e+01   3.385180e+01
  -2.421084e+01  -8.361622e+01
   2.963511e+01  -2.973386e+01
   4.480714e+01   1.684223e+01
   2.159425e+01   8.136016e+01
  -1.134381e+01   2.102015e+01
  -2.014664e+01  -1.307993e+01
  -1.167493e+01  -3.488658e+01
  -1.156700e+01  -6.211810e+00
   1.820768e+00   5.220386e+00
  -1.060050e+01  -1.684506e+01
   7.715852e+00  -5.055118e+01
   1.586107e+01  -2.324556e+01
   2.991042e+01  -1.542857e+01
   2.234701e+01   5.041245e+01
  -1.798619e+01   5.842320e+01
  -4.421315e+01   3.081069e+01
  -4.880418e+01  -2.954751e+01
  -2.571346e+01  -4.693540e+01
   3.931904e+01  -4.854804e+00
   6.348754e+01   3.426870e+01
   3.034131e+01   5.321851e+01
  -3.811924e+01   4.977813e+01
  -9.686509e+01   6.569989e+00
  -2.151092e+01   1.635083e+01
   2.398967e+01  -5.064687e-01
   6.953205e+01   1.492046e+01
  -1.009046e+01   3.482992e+00
  -1.125288e+02   1.313111e+01
