
 $NMID
 id='ANONYMOUS ', fmtdat='(2E16.6)'
 volume=1.0
 tramp=1.0
 $END
   4.823791e+03  -1.291729e+01
   2.576425e+03   2.579225e+03
  -1.022341e+03   2.984412e+03
  -2.336749e+03   9.053332e+02
  -1.021105e+03  -8.420608e+02
   6.855402e+02  -5.758868e+02
   9.582546e+02   6.461477e+02
   1.440765e+02   1.242131e+03
  -9.295095e+02   8.120797e+02
  -9.964652e+02  -9.075133e+01
  -4.610975e+02  -9.534659e+02
   2.460694e+02  -9.121022e+02
   6.557207e+02  -7.511874e+01
   4.577729e+02   9.085549e+02
  -3.672378e+02   8.498321e+02
  -6.776797e+02  -8.582804e+00
  -2.601342e+02  -7.226209e+02
   3.616401e+02  -6.360417e+02
   6.507328e+02  -6.461519e+01
   3.566206e+02   3.814022e+02
  -1.048416e+01   4.476260e+02
  -3.118688e+02   3.205520e+02
  -2.621390e+02  -2.675649e+01
   1.323142e+02  -8.801403e+01
   4.356923e+02   1.702833e+02
   2.720330e+02   5.164416e+02
  -4.680315e+02   4.320960e+02
  -9.534139e+02  -1.211954e+02
  -5.513067e+02  -5.675982e+02
   4.845651e+02  -5.226137e+02
   8.037810e+02   7.631140e+01
   3.628443e+02   5.374154e+02
  -3.277176e+02   5.556844e+02
  -6.185964e+02   1.845258e+02
  -4.452928e+02  -2.733325e+02
  -4.413643e+01  -5.061673e+02
   1.894067e+02  -3.425447e+02
   2.261066e+02   2.413854e+02
  -1.409306e+02   4.872491e+02
  -5.380491e+02   2.394100e+01
  -2.989477e+02  -7.394818e+02
   4.407981e+02  -7.502189e+02
   7.237553e+02   8.458160e+01
   3.385562e+02   6.242298e+02
  -3.238879e+02   3.333166e+02
  -4.297193e+02  -3.035795e+02
   8.538977e+01  -5.684831e+02
   6.194747e+02  -1.166853e+02
   6.908278e+02   4.479299e+02
   1.538178e+02   6.298157e+02
  -3.787538e+02   3.328415e+02
  -6.741300e+02  -6.678483e+01
  -4.619273e+02  -4.207827e+02
   1.766219e+02  -4.352033e+02
   5.143653e+02  -4.040644e+01
   2.690491e+02   2.498155e+02
  -1.718687e+02   1.252428e+02
  -1.789422e+02  -1.725874e+02
   1.520069e+02  -2.263495e+02
   4.321361e+02   8.345927e+01
   1.504501e+02   3.574410e+02
  -2.446034e+02   2.442550e+02
  -3.310425e+02   4.997076e+01
  -2.017537e+02  -1.129558e+02
   5.169883e+01  -2.014400e+02
   1.951612e+02  -3.368398e+02
   3.533923e+02  -2.891073e+02
   2.647701e+02   1.399169e+02
   1.065638e+02   4.673960e+02
  -1.703770e+02   4.359168e+02
  -1.873983e+02   1.109742e+02
  -6.603788e+01  -4.296769e+01
  -1.588508e+00   1.020869e+02
  -1.850671e+02   1.469713e+02
  -3.262865e+02  -6.267196e+01
  -1.888498e+02  -2.640459e+02
   6.134797e+01  -2.862850e+02
   2.478739e+02  -2.034881e+01
   2.152717e+02   2.111576e+02
  -7.908679e+00   3.008614e+02
  -2.948536e+02   1.263149e+02
  -3.775200e+02  -1.637396e+02
  -1.547323e+02  -3.879571e+02
   1.161220e+02  -2.650840e+02
   2.536002e+02  -1.489313e+02
   1.600715e+02   1.316070e+01
   9.517692e+01  -3.156264e+01
   2.239733e+02  -7.221226e+01
   4.237475e+02   7.132933e+01
   3.762765e+02   2.694509e+02
   2.057033e+01   4.343793e+02
  -3.679529e+02   3.866782e+02
  -5.189625e+02   2.351471e+02
  -3.761914e+02  -6.958428e+01
  -8.089271e+01  -3.108404e+02
   1.502694e+02  -2.848935e+02
   9.113191e+01  -4.262949e+00
  -8.422629e+01   1.327147e+02
  -2.168288e+02   1.887488e+01
  -8.107173e+01  -2.038907e+02
   2.749464e+02  -1.997429e+02
   2.158088e+02   6.923185e+01
  -3.465584e+01   2.381987e+02
  -2.152331e+02   5.454329e+01
  -1.801636e+02  -2.661973e+02
   6.904224e+00  -3.723397e+02
   2.326469e+02  -2.153048e+02
   3.397925e+02   5.193033e+01
   2.843166e+02   2.347508e+02
   1.172642e+02   2.703037e+02
  -1.113088e+02   1.581017e+02
  -1.849345e+02   2.419726e+01
  -7.238090e+01  -2.621588e+01
   6.576632e+01   1.165478e+01
   4.247435e+01   1.268444e+02
  -1.158984e+02   1.263167e+02
  -1.778434e+02  -4.657411e+00
  -4.473293e+01  -9.403446e+01
   5.766825e+01  -5.150227e+01
   5.787697e+01   8.579534e+01
  -1.077209e+02   8.235923e+01
  -2.858373e+02   2.120259e+01
  -2.548364e+02  -1.407720e+02
  -7.854043e+01  -2.662429e+02
   1.751533e+02  -2.691517e+02
   2.943614e+02  -1.382444e+02
   1.977037e+02   6.025834e+01
  -1.753367e+01   1.258140e+02
  -1.055775e+02   2.097045e+01
   2.571311e+01  -1.179465e+02
   2.050230e+02  -8.253703e+01
   2.261938e+02   1.135865e+02
   9.358810e+01   2.289264e+02
  -1.043415e+02   1.718958e+02
  -1.721433e+02   1.948996e+01
  -9.992128e+01  -6.884390e+01
  -1.058264e+01  -1.633799e+01
   4.763061e+01   7.328315e+01
  -3.450812e+01   9.638088e+01
  -1.931848e+02   4.880912e+01
  -2.029366e+02  -1.283988e+02
  -2.404652e+01  -1.922542e+02
   1.696270e+02  -1.693163e+02
   1.971009e+02   1.221328e+01
   8.356272e+01   1.125665e+02
  -5.700430e+01   1.180762e+02
  -8.607747e+01   2.524455e+01
  -3.818274e+01  -2.186852e+01
   3.560293e+01  -2.453812e+01
  -8.577293e+00   1.684695e+01
  -5.199252e+01  -9.178826e-01
  -9.044143e+01  -9.177120e+01
  -3.659972e+01  -1.422114e+02
   1.226551e+02  -1.487736e+02
   2.578922e+02  -4.276137e+01
   1.984248e+02   1.502292e+02
   5.152247e+01   2.147924e+02
  -1.253278e+02   1.729735e+02
  -1.221277e+02   5.870725e+01
  -7.361379e+01  -5.403428e+01
  -4.770409e+01  -3.368024e+01
  -4.151397e+01   1.741261e+01
  -6.896220e+01   8.861018e+00
  -3.904570e+01  -2.089196e+01
   3.306030e+01  -9.289267e+01
   1.105947e+02  -3.438133e+01
   9.586613e+01   1.128196e+01
  -4.536828e+00   1.154491e+02
  -1.572356e+02   8.809199e+01
  -2.074684e+02  -5.052238e+01
  -1.388064e+02  -1.898095e+02
   1.364934e+02  -2.461414e+02
   2.998109e+02  -1.245181e+02
   2.592021e+02   7.582284e+01
   1.252032e+02   2.032639e+02
  -6.107009e+01   1.426075e+02
  -1.209984e+02   8.433892e+01
  -8.320869e+01   6.536202e+01
  -5.588758e+01   8.784514e+01
  -8.679972e+01   5.008605e+01
  -1.125779e+02  -1.163361e+01
  -1.184519e+02  -1.479372e+02
  -7.522984e+01  -2.448407e+02
   1.000701e+02  -2.038876e+02
   1.858260e+02  -4.570237e+01
   1.544122e+02   1.379874e+02
   6.874057e+00   1.481827e+02
  -5.242477e+01   9.253984e+01
  -6.462687e+01  -3.984353e+00
  -1.391757e+01  -6.462017e+01
   1.920499e+00  -1.123014e+01
  -4.423062e+01  -2.154175e+00
  -5.727380e+01   5.209878e+00
  -3.876889e+01  -3.995953e+01
   4.525811e+01  -3.995449e+01
   1.469396e+02  -3.089432e+00
   1.540743e+02   6.544530e+01
   3.825008e+01   1.098777e+02
  -1.102433e+02   1.057477e+02
  -1.672562e+02  -9.622089e-01
  -7.163372e+01  -2.125731e+01
   5.230593e+01  -4.904085e+01
   9.614296e+01   2.008210e+01
   6.892080e+00   5.595993e+01
  -5.693607e+01   4.750180e+01
  -4.437014e+01   1.149160e+01
  -5.194987e+01  -3.679681e+01
  -3.208744e+01  -1.192976e+01
  -6.104433e+01  -2.112335e+01
  -8.087012e+01  -2.392030e+01
  -4.237475e+01  -4.658878e+01
   3.151069e+01  -1.512401e+02
   1.213722e+02  -1.402643e+02
   1.350303e+02  -2.605315e+01
   1.629710e+02   1.036599e+02
   7.525051e+00   1.190902e+02
  -6.174225e+01   5.516098e+01
  -6.511676e+01   7.818440e+00
   6.459635e+01  -4.878222e+00
   1.401586e+02   3.219632e+01
   7.865764e+01   1.189853e+02
  -8.395416e+01   1.143988e+02
  -2.223810e+02   4.794788e+01
  -1.726838e+02  -5.581596e+00
  -6.407540e+01  -8.942762e+01
   5.532315e+01  -8.648252e+01
   5.366897e+01   9.334917e+00
  -4.234195e+01   3.137788e+01
  -1.197195e+02  -3.607518e+01
  -3.872547e+01  -1.064567e+02
   1.001076e+02  -1.586054e+02
   1.695995e+02  -5.760762e+01
   1.240360e+02   1.296997e+02
   3.870428e+01   2.199785e+02
  -9.093576e+01   1.566359e+02
  -1.082981e+02   5.543894e+00
  -6.918646e+01  -9.432590e+01
   1.160099e+00  -9.726180e+01
   9.921154e+00  -3.277865e+01
   3.952854e+01   5.767853e+01
   1.853652e+01   1.897750e+01
   1.541364e+01  -2.177276e+01
   7.873236e+00   1.138252e+01
   6.095345e+01   6.406631e+01
   3.273019e+01   9.852657e+01
  -5.044298e+01   3.566256e+01
  -1.481540e+02  -4.989190e+01
  -1.340007e+02  -8.713176e+01
  -3.409873e+01  -5.360622e+01
   1.038506e+02  -3.276445e+01
   8.847330e+01   3.218118e+00
  -5.506833e-01  -1.521507e+01
  -4.218179e+01   2.397077e+01
  -4.741397e+00  -6.285849e+00
   2.568322e+01  -4.949426e+00
  -3.040335e+01  -3.062320e+01
  -8.984463e+01   1.827478e+01
  -9.469271e+01  -1.538141e+01
  -7.685178e+00  -6.412359e+01
   1.446361e+02  -1.049378e+02
   1.793883e+02  -6.695730e+01
   1.183047e+02   7.352456e+01
   2.407635e+01   1.439260e+02
  -4.729021e+01   1.395801e+02
  -1.028905e+02   5.088199e+01
  -7.287813e+01  -1.510166e+01
  -6.035065e+01  -2.774005e+01
   7.136497e+00   7.565114e+00
  -1.354396e+01  -1.766933e+01
  -5.983219e+01  -6.458992e+01
  -4.162752e+00  -7.418886e+01
   2.045294e+01  -6.935807e+01
   6.639965e+01   3.500448e+01
   9.683130e+01   1.291766e+02
   6.998362e-01   1.198918e+02
  -8.140425e+01   7.869614e+00
  -9.748691e+01  -6.080621e+01
  -5.042602e+01  -7.405758e+01
   4.506559e+01  -5.268612e+01
   7.425513e+01  -4.180057e+00
   3.752402e+01   3.475468e+01
  -3.279421e+01   2.826336e+01
  -2.712982e+01   3.992929e+01
   4.649090e+01   9.924287e+00
   8.601936e+01  -1.710087e+01
   1.139370e+01   2.726114e+01
  -8.849945e+01   6.228286e+01
  -9.710852e+01   8.404838e+01
  -4.562723e+01  -2.227668e+00
   1.196166e+01  -1.021541e+02
   4.590967e+01  -8.593644e+01
   2.318647e+01  -1.596436e+01
   6.024901e+00   5.517441e+01
  -2.351003e+01   5.307383e+01
  -3.801805e+01  -4.604258e+01
  -4.021070e+01  -3.991858e+01
   8.294374e+00  -3.660189e+01
   1.780356e+01   1.023049e+01
   4.415800e+01   2.507541e+01
   8.768813e+00  -2.807810e+01
  -1.375986e+00  -5.534262e+00
  -2.317754e+01   1.685169e+01
  -6.547737e+00   3.209926e+01
  -2.729000e+01   4.181924e+01
  -4.207494e+01  -1.407794e+00
  -2.017063e+01  -3.739282e+01
  -1.696475e+01  -6.712057e+01
   3.113328e+01  -3.073380e+01
   6.085789e+01   5.025233e+01
   1.743436e+01   7.247755e+01
  -5.266494e+01   6.197274e+01
  -9.557470e+01  -1.591531e+01
  -3.394514e+01  -4.114983e+01
   4.001171e+01  -6.244874e+01
   6.462038e+01  -2.881591e+01
   3.132910e+01  -1.547552e+01
  -5.421618e+01  -9.225566e-01
  -5.042429e+01  -5.689303e+00
   4.415976e+01  -4.351532e+01
   1.086557e+02  -1.354424e+01
