
 $NMID
 id='ANONYMOUS ', fmtdat='(2E16.6)'
 volume=1.0
 tramp=1.0
 $END
  -4.304586e+03   1.397106e+02
  -2.580270e+03  -2.377669e+03
   4.270802e+02  -2.617162e+03
   2.033094e+03  -1.090442e+03
   1.094898e+03   3.561030e+02
  -6.623141e+02   6.330739e+02
  -9.726669e+02  -2.897321e+02
  -8.818939e+01  -9.518578e+02
   7.853121e+02  -8.493858e+02
   9.588069e+02   7.036580e+01
   5.544644e+02   8.386948e+02
  -2.200198e+02   9.134665e+02
  -6.414265e+02   1.333469e+02
  -3.483543e+02  -6.608727e+02
   2.216231e+02  -6.403811e+02
   6.165510e+02  -1.277013e+01
   2.846894e+02   7.005315e+02
  -2.846218e+02   6.513697e+02
  -5.600032e+02   1.180731e+02
  -3.917047e+02  -2.398083e+02
  -3.958506e+01  -4.276137e+02
   1.688843e+02  -2.881876e+02
   2.014137e+02  -2.289272e+01
  -1.422517e+02   6.111348e+01
  -3.565380e+02  -1.618054e+02
  -1.188178e+02  -3.875917e+02
   4.406724e+02  -3.394627e+02
   9.189993e+02  -1.080050e+00
   3.320613e+02   4.369499e+02
  -3.209020e+02   4.046993e+02
  -6.693387e+02  -3.450696e+01
  -3.297231e+02  -4.401581e+02
   2.271727e+02  -4.976878e+02
   5.476873e+02  -1.563035e+02
   4.036016e+02   1.879097e+02
   7.550318e+01   4.716099e+02
  -1.853231e+02   2.562594e+02
  -1.310775e+02  -1.552437e+02
   1.871459e+02  -4.178502e+02
   3.577477e+02   8.990681e+00
   3.203937e+02   6.151371e+02
  -2.762779e+02   6.398917e+02
  -5.984451e+02   3.177605e+01
  -1.917193e+02  -5.080296e+02
   1.923250e+02  -3.004513e+02
   3.915788e+02   3.086107e+02
  -7.108842e+01   5.028596e+02
  -5.146318e+02   1.330870e+02
  -6.246543e+02  -3.805342e+02
  -1.819085e+02  -4.843203e+02
   3.558467e+02  -3.061941e+02
   5.822959e+02   3.561796e+01
   4.117633e+02   3.666479e+02
  -1.441826e+02   3.752306e+02
  -4.054801e+02   7.624247e+01
  -2.532700e+02  -1.344598e+02
   7.174900e+01  -8.321618e+01
   1.115346e+02   1.385747e+02
  -1.322785e+02   1.582778e+02
  -3.458089e+02  -7.325943e+01
  -1.275043e+02  -2.430117e+02
   1.891548e+02  -2.429491e+02
   3.682927e+02  -9.522819e+01
   2.056154e+02   9.321887e+01
   5.190861e+00   2.301982e+02
  -2.351744e+02   3.170134e+02
  -3.240881e+02   2.072762e+02
  -2.847473e+02  -1.184299e+02
  -9.415093e+01  -4.206557e+02
   8.145515e+01  -4.050515e+02
   9.093226e+01  -1.134616e+02
   6.120306e+01  -1.164791e+01
   6.615391e+01  -8.635195e+01
   1.976642e+02  -9.563469e+01
   2.268799e+02   7.810480e+01
   1.401965e+02   2.712857e+02
  -6.042472e+01   2.344016e+02
  -2.319790e+02   1.153831e+01
  -1.703311e+02  -2.037404e+02
   1.707815e+01  -2.519754e+02
   2.161969e+02  -1.093886e+02
   3.563102e+02   1.622643e+02
   1.830307e+02   3.274996e+02
  -1.010347e+02   3.036052e+02
  -2.071009e+02   1.681786e+02
  -1.797930e+02  -7.985185e+00
  -1.128400e+02   3.845160e+01
  -2.512678e+02   6.272489e+01
  -3.818477e+02  -4.154471e+01
  -3.467159e+02  -2.776961e+02
  -1.443085e+01  -4.406915e+02
   3.318071e+02  -3.637852e+02
   4.680148e+02  -2.267439e+02
   3.287431e+02   7.138489e+01
   9.308152e+01   3.027681e+02
  -1.090665e+02   2.521525e+02
  -4.949884e+01   4.196676e+01
   1.031112e+02  -1.129539e+02
   1.992916e+02  -7.262492e-01
   4.790305e+01   1.662787e+02
  -1.127920e+02   1.631446e+02
  -1.593168e+02  -7.951009e+01
   2.739434e+01  -1.720455e+02
   1.659758e+02  -1.730802e+01
   1.835427e+02   2.607228e+02
  -4.300673e+01   3.696434e+02
  -2.309307e+02   1.932584e+02
  -3.066238e+02  -8.327766e+01
  -2.784825e+02  -2.225256e+02
  -9.612474e+01  -2.512119e+02
   1.131508e+02  -1.330164e+02
   1.670158e+02  -4.470234e+01
   5.356398e+01   2.989274e+01
  -8.460930e+01  -3.647320e+01
  -2.764318e+01  -1.044844e+02
   1.176854e+02  -9.822949e+01
   1.745680e+02   4.553900e+00
   4.692748e+01   8.827014e+01
  -7.887202e+01   1.516683e+01
  -3.214383e+01  -8.268974e+01
   1.319755e+02  -7.930977e+01
   2.608837e+02  -8.209284e+00
   2.618377e+02   1.391726e+02
   5.275595e+01   2.462630e+02
  -1.592660e+02   2.597920e+02
  -2.771512e+02   1.214788e+02
  -1.485190e+02  -4.883923e+01
   3.298900e+01  -1.427946e+02
   6.566906e+01  -2.523618e+01
  -4.114560e+01   1.126498e+02
  -2.110702e+02   6.492618e+01
  -2.085927e+02  -1.067145e+02
  -7.671863e+01  -1.813224e+02
   8.531662e+01  -1.434626e+02
   1.517188e+02  -3.643122e+01
   6.386461e+01   1.649088e+01
  -1.450439e+01   8.334489e+00
  -5.112248e+01  -1.039734e+02
   6.863733e+01  -1.205055e+02
   1.774374e+02  -1.037931e+01
   1.975652e+02   1.247515e+02
   3.574559e+01   1.976463e+02
  -1.724649e+02   1.729490e+02
  -1.649245e+02  -8.016255e+00
  -6.842686e+01  -1.040885e+02
   7.233406e+01  -7.968890e+01
   6.862213e+01  -6.142900e+01
   6.990133e+00   4.136723e+01
  -1.443137e+01   9.113541e+00
  -5.270640e+00  -1.595528e+01
   6.012243e+01   2.464999e+00
   1.050178e+02   9.352968e+01
   2.014061e+00   1.591945e+02
  -1.455509e+02   1.574365e+02
  -2.252288e+02   3.031502e+01
  -1.816983e+02  -1.445728e+02
  -3.907267e+01  -1.953424e+02
   1.018037e+02  -1.599216e+02
   1.253161e+02  -4.344118e+01
   9.531467e+01   5.750715e+01
  -1.716225e+01   2.040238e+01
   5.624774e+01  -1.530306e+01
   8.234444e+01   1.128581e+01
   3.460685e+01   6.114420e+01
  -6.273742e+01   8.832495e+01
  -1.003154e+02   3.809463e+01
  -9.012970e+01  -2.859809e+01
  -9.660302e+00  -9.389438e+01
   1.640620e+02  -9.835273e+01
   2.081694e+02   4.212875e+01
   8.961440e+01   1.832094e+02
  -8.626994e+01   2.283585e+02
  -2.729358e+02   1.106946e+02
  -2.625920e+02  -8.681992e+01
  -9.805592e+01  -2.122104e+02
   4.398476e+01  -1.519750e+02
   8.019062e+01  -6.816908e+01
   8.694217e+01  -8.003682e+01
   1.057264e+02  -1.152477e+02
   9.765765e+01  -7.529427e+01
   1.172915e+02   3.622741e+01
   1.464014e+02   1.531929e+02
   3.487283e+01   2.367668e+02
  -1.089984e+02   1.740550e+02
  -1.470967e+02   1.649230e+01
  -1.243456e+02  -1.211324e+02
  -8.674945e+00  -1.479702e+02
   5.498911e+01  -1.124737e+02
   7.618088e+01  -1.039060e+01
   8.574826e+00   3.558543e+01
  -1.921733e+01   4.468589e+01
   4.509777e+01  -3.537803e+00
   7.475977e+01   2.285425e+01
   3.506702e+01   1.308329e+01
  -3.625765e+01   5.533498e+01
  -1.600632e+02   1.801743e+01
  -1.281307e+02  -4.789835e+01
   4.252371e+00  -8.607286e+01
   1.095253e+02  -9.178914e+01
   1.547946e+02  -3.948803e+01
   5.861706e+01   6.197222e+01
  -4.653741e+01   2.030011e+01
  -8.381716e+01  -2.470229e+01
  -1.453434e+01  -4.735790e+01
   3.447110e+01  -6.672357e+01
   7.110765e+01  -5.121059e+00
   5.187004e+01   5.895042e+01
   2.078636e+01   4.619075e+01
   2.005385e+01   1.630372e+01
   7.412279e+01   1.244748e+01
   3.122318e+01   4.759996e+01
  -2.552979e+01   1.436137e+02
  -1.244665e+02   1.559421e+02
  -1.492591e+02   3.551309e+01
  -1.126172e+02  -7.985662e+01
  -7.070836e+00  -9.931688e+01
   7.215865e+01  -5.854481e+01
   4.178925e+01  -1.135868e+00
  -7.585293e+01   2.141988e+01
  -1.592753e+02  -5.350611e+01
  -9.933801e+01  -1.021649e+02
   8.394911e+01  -9.768283e+01
   1.804897e+02  -5.873913e+01
   1.506575e+02   4.735289e+01
   4.582234e+01   1.033111e+02
  -4.412455e+01   5.257132e+01
  -6.355844e+01   7.931018e+00
   3.297645e+01  -2.808223e+01
   8.572946e+01   2.319007e+01
   7.667496e+01   1.166836e+02
  -9.976567e+01   1.676198e+02
  -1.655185e+02   4.240579e+01
  -1.193974e+02  -1.100828e+02
  -3.156799e+01  -2.046365e+02
   8.442376e+01  -1.321720e+02
   9.521792e+01   6.735031e+01
   4.628363e+01   1.231993e+02
  -6.825362e+00   1.230079e+02
  -2.575182e+01   2.129876e+01
  -3.459317e+01  -7.880732e-01
  -4.208233e+01  -1.454616e+01
  -1.254998e+01   1.162103e+01
  -2.468414e+01  -3.132758e+01
  -4.397493e+01  -6.376678e+01
  -3.572093e+01  -1.103776e+02
   5.609704e+01  -2.493103e+01
   1.463334e+02   2.743664e+01
   1.433527e+02   9.407396e+01
   1.861279e+01   4.350031e+01
  -7.037921e+01   7.936578e+00
  -8.135044e+01   1.658346e+01
  -2.917458e+01   2.516514e+01
   4.456539e+01  -3.013491e+01
   2.634674e+01  -1.581425e+01
  -2.102540e+01  -7.565255e+00
  -1.136312e+01   3.310566e+01
   8.312150e+01   7.835390e+00
   9.112979e+01   4.252629e+01
   1.204978e+01   6.499695e+01
  -1.082371e+02   1.244391e+02
  -1.861499e+02   6.114123e+01
  -1.654599e+02  -6.536465e+01
  -4.415050e+01  -1.351609e+02
   8.193000e+01  -1.297056e+02
   1.014085e+02  -4.977521e+01
   8.009799e+01   2.569376e+01
   4.699498e+01   4.229195e+01
  -1.190170e+01   1.096232e+01
   2.078902e+01   1.158575e+01
   4.439044e+01   5.197800e+01
   7.538848e+00   8.663476e+01
  -1.436341e+01   7.091416e+01
  -8.973227e+01  -1.252302e+01
  -1.007819e+02  -8.586127e+01
   3.135353e+00  -1.348020e+02
   7.502558e+01  -4.264322e+01
   1.102149e+02   7.579982e+01
   2.802816e+01   9.237565e+01
  -7.286332e+01   3.615429e+01
  -9.715059e+01  -3.308821e-01
  -3.814950e+01  -6.377820e+01
   3.843106e+01  -5.650920e+01
   3.176411e+01  -1.726077e+01
  -3.858709e+01   1.981147e+01
  -7.331121e+01   1.654959e+01
  -2.175851e+01  -2.879563e+01
   2.645321e+01  -7.159473e+01
   1.136912e+02  -4.604542e+01
   7.731300e+01   2.672175e+01
  -2.840609e+01   7.828726e+01
  -6.222559e+01   9.815882e+01
  -5.424046e+01   1.277618e+01
   4.026720e+00  -7.065718e+01
   1.960538e+01  -6.489943e+01
   5.114944e+01   1.443225e+01
   3.666130e+01   4.421425e+01
  -1.161901e+01   5.507270e+01
  -1.930423e+01  -1.251720e+01
  -5.667903e+01  -1.926545e+01
  -2.026804e+01  -3.719472e+00
  -2.003145e+01   8.023349e+00
   1.252963e+01   2.211927e+00
  -2.782128e-01  -2.584638e+01
   6.926833e+00  -5.212572e+01
   5.853300e+01  -2.076311e+01
   6.371479e+01   2.213457e+01
  -3.313654e+00   4.492348e+01
  -9.803338e+00   3.684628e+01
  -5.809707e+01  -2.186824e+01
  -1.570542e+01  -4.977217e+01
   4.784360e+01  -4.286266e+01
   8.107582e+01  -6.713590e+00
   8.688956e+01   5.290886e+01
  -4.544141e+01   4.187155e+01
  -6.468264e+01   1.113680e+01
  -2.263428e+01  -1.687144e+01
   4.624786e+01  -3.818674e+00
   5.151991e+01   1.062484e+01
  -8.492027e+00   3.052130e+00
  -1.148352e+02   1.888425e+01
