
 $NMID
 id='ANONYMOUS ', fmtdat='(2E16.6)'
 volume=1.0
 tramp=1.0
 $END
  -3.841075e+03  -9.210724e+01
  -2.174698e+03  -2.190889e+03
   7.037249e+02  -2.292490e+03
   1.370517e+03  -9.429677e+02
   8.783072e+02   2.899162e+02
  -2.892313e+02   5.356617e+02
  -7.268404e+02  -3.023336e+02
   4.369699e+00  -7.929308e+02
   7.417919e+02  -6.883912e+02
   7.639905e+02   6.175078e+01
   4.509430e+02   6.457957e+02
  -1.833118e+02   6.966471e+02
  -4.127440e+02   1.527474e+02
  -3.329320e+02  -6.418614e+02
   2.521407e+02  -5.864285e+02
   4.730691e+02  -5.472764e+01
   2.624566e+02   5.688750e+02
  -2.230500e+02   5.547327e+02
  -5.019737e+02   8.727978e+01
  -3.690090e+02  -2.951327e+02
  -7.235250e+01  -3.801766e+02
   2.120832e+02  -2.241051e+02
   1.679860e+02  -6.567585e+01
  -1.180936e+02  -5.912024e+01
  -3.054320e+02  -1.594712e+02
  -1.173353e+02  -3.770278e+02
   4.565969e+02  -2.423503e+02
   7.302449e+02   9.344864e+01
   3.404756e+02   5.026951e+02
  -3.744945e+02   3.771902e+02
  -5.799420e+02  -3.180598e+01
  -3.226420e+02  -3.991335e+02
   2.499549e+02  -4.388835e+02
   4.412740e+02  -1.834384e+02
   3.223845e+02   2.211583e+02
   3.585303e+01   3.616883e+02
  -1.150265e+02   2.536123e+02
  -1.665266e+02  -1.838143e+02
   2.135429e+02  -3.070783e+02
   4.004712e+02   6.858403e+01
   2.493348e+02   5.183252e+02
  -2.429192e+02   5.754500e+02
  -4.810553e+02   1.247443e+01
  -2.056521e+02  -4.501283e+02
   2.658105e+02  -2.884766e+02
   2.957952e+02   2.579450e+02
  -7.044269e+01   5.141726e+02
  -4.839282e+02   1.198548e+02
  -4.974992e+02  -4.090395e+02
  -1.689898e+02  -5.319468e+02
   2.819107e+02  -2.876607e+02
   5.543117e+02   8.767725e+01
   3.590882e+02   3.594373e+02
  -1.213936e+02   3.621588e+02
  -3.487051e+02   6.037222e+01
  -2.210652e+02  -1.277769e+02
   9.085577e+01  -4.533464e+01
   1.196020e+02   1.009794e+02
  -1.568734e+02   1.800712e+02
  -3.112415e+02  -3.965792e+01
  -1.548858e+02  -2.285381e+02
   1.829407e+02  -2.448556e+02
   2.709652e+02  -8.764440e+01
   1.979752e+02   7.869544e+01
  -1.803414e+01   2.242863e+02
  -2.282608e+02   3.026555e+02
  -3.128217e+02   1.685385e+02
  -2.604388e+02  -1.332326e+02
  -3.860793e+01  -3.726303e+02
   9.571031e+01  -3.036677e+02
   6.039661e+01  -1.370007e+02
   1.382349e+01   3.879646e+00
   6.615143e+01  -7.640226e+01
   1.846624e+02  -8.535411e+01
   2.250864e+02   6.989315e+01
   7.689947e+01   2.511061e+02
  -7.142074e+01   2.306289e+02
  -1.843333e+02   4.908184e+00
  -1.414768e+02  -2.463995e+02
   8.497096e-01  -2.224748e+02
   2.480710e+02  -1.112310e+02
   3.053545e+02   1.497472e+02
   1.574329e+02   3.048805e+02
  -7.349979e+01   2.395226e+02
  -2.010078e+02   1.145169e+02
  -1.311385e+02   2.549956e+01
  -1.102562e+02   2.467391e+01
  -2.322085e+02   5.908040e+01
  -3.622187e+02  -5.814862e+01
  -2.881801e+02  -2.818748e+02
   4.137567e+01  -3.600870e+02
   3.605703e+02  -3.427709e+02
   4.702414e+02  -1.549229e+02
   2.907827e+02   8.629397e+01
   4.024422e+01   2.294645e+02
  -8.789745e+01   2.001299e+02
  -5.835837e+01   2.435627e+01
   7.975732e+01  -8.976703e+01
   1.422978e+02   1.934245e+01
   5.327660e+01   1.587114e+02
  -1.053441e+02   1.517658e+02
  -1.419871e+02  -5.475486e+01
   2.651894e+00  -1.469271e+02
   2.005910e+02  -9.902042e+00
   1.457327e+02   2.263449e+02
  -2.704459e+01   3.220637e+02
  -2.104724e+02   1.670566e+02
  -3.052513e+02  -1.008244e+02
  -2.419253e+02  -2.345039e+02
  -5.603442e+01  -2.297476e+02
   9.289418e+01  -1.625227e+02
   1.793115e+02  -1.308938e+00
   3.164313e+01   1.058371e+01
  -3.788665e+01  -5.316428e+01
  -2.614035e+01  -1.006652e+02
   1.237676e+02  -9.842525e+01
   1.681592e+02   5.239470e+01
   6.312888e+01   4.564387e+01
  -5.429672e+01   8.292901e+00
  -4.968046e+01  -6.468235e+01
   1.259458e+02  -8.957956e+01
   2.344049e+02   1.765731e+01
   2.232701e+02   1.353358e+02
   6.564730e+01   2.250308e+02
  -1.703638e+02   1.998054e+02
  -2.304362e+02   1.094923e+02
  -1.600790e+02  -3.499442e+01
   1.619587e+01  -1.052175e+02
   1.023066e+02  -5.312268e-03
  -2.215496e+01   1.010006e+02
  -1.967291e+02   4.904220e+01
  -2.138558e+02  -9.253895e+01
  -6.180128e+01  -2.024786e+02
   7.606243e+01  -1.344421e+02
   1.121025e+02  -5.345118e+01
   5.816572e+01   4.202891e+01
  -2.198378e+01  -1.577655e+00
  -3.437142e+01  -7.685458e+01
   8.088796e+01  -8.119460e+01
   2.017426e+02  -1.884072e+01
   1.579401e+02   1.270074e+02
   5.250162e+00   1.808007e+02
  -1.463846e+02   1.420700e+02
  -1.736355e+02  -3.823351e+01
  -5.291203e+01  -9.201205e+01
   4.562955e+01  -9.282692e+01
   5.858110e+01  -3.221008e+01
   3.368827e+01   4.565575e+01
  -3.246734e+01  -4.636024e+00
  -2.942889e+00   4.204643e-01
   7.950972e+01  -1.073208e+00
   8.385915e+01   8.725499e+01
  -1.174164e+01   1.774248e+02
  -1.308112e+02   1.277213e+02
  -1.920186e+02   3.622426e+01
  -1.541338e+02  -1.385311e+02
  -4.709101e+01  -2.045931e+02
   1.224823e+02  -1.553628e+02
   1.271795e+02  -8.889025e+00
   6.872636e+01   6.075901e+01
   3.264226e+01   2.845011e+01
   6.683161e+01  -4.609490e+01
   7.538534e+01  -8.799680e+00
   2.508764e+01   3.012806e+01
  -5.115309e+01   7.034675e+01
  -1.152062e+02   3.681593e+01
  -6.314365e+01  -1.093022e+01
   4.492330e+01  -7.852124e+01
   1.358703e+02  -6.980314e+01
   1.865466e+02   3.539235e+01
   8.676189e+01   1.694187e+02
  -8.312072e+01   2.008228e+02
  -2.622934e+02   6.586854e+01
  -2.379902e+02  -6.741624e+01
  -6.154432e+01  -1.836952e+02
   1.405377e+01  -1.220430e+02
   9.222857e+01  -9.363687e+01
   8.633720e+01  -6.630077e+01
   6.982907e+01  -8.031449e+01
   1.075219e+02  -8.455896e+01
   1.258344e+02   2.047602e+01
   1.011618e+02   1.498125e+02
   2.293997e+01   1.766378e+02
  -1.059966e+02   1.641432e+02
  -1.373717e+02   6.170469e-01
  -1.595145e+02  -9.269442e+01
  -1.772489e+01  -1.445748e+02
   6.305759e+01  -6.818343e+01
   3.139609e+01   1.177624e+01
   6.670502e+00   2.350720e+01
  -9.288372e+00   4.719807e+01
   2.485798e+01   1.049204e+01
   7.684231e+01   3.014535e+01
   2.224022e+01   3.239677e+01
  -5.708500e+01   3.940207e+01
  -1.380654e+02   1.186370e+01
  -1.425855e+02  -3.247035e+01
  -1.221942e+00  -8.125757e+01
   1.258686e+02  -6.771208e+01
   1.099563e+02   1.040083e+01
   1.948622e+01   6.000064e+01
  -7.868316e+01   3.453708e+01
  -9.050179e+01   6.157760e+00
   1.490759e+00  -6.917319e+01
   3.848799e+01  -5.968941e+01
   4.836611e+01  -2.383303e+01
   4.864148e+01   4.279030e+01
   4.674095e+01   4.776047e+01
   6.838340e+01   8.796464e+00
   7.707402e+01  -8.746832e+00
   2.307138e+01   8.375687e+01
  -4.809798e+01   1.315684e+02
  -1.280027e+02   1.087390e+02
  -1.506159e+02  -1.316188e+01
  -1.190130e+02  -6.453589e+01
  -4.444501e+00  -8.598195e+01
   8.439921e+01  -4.021334e+01
   6.691335e+01   8.491795e+00
  -3.535179e+01   1.459413e+01
  -1.158875e+02  -1.863512e+01
  -6.974105e+01  -9.212799e+01
   7.620661e+01  -1.133768e+02
   1.634428e+02  -9.656629e-01
   1.268037e+02   1.316331e+01
  -1.415387e+00   9.249031e+01
  -5.556312e+01   6.739861e+01
  -5.439777e+01  -4.908105e+00
   5.038265e+01  -2.491783e+01
   5.679667e+01  -1.280213e+01
   3.498652e+01   9.932470e+01
  -6.887419e+01   1.592691e+02
  -1.666325e+02   5.008469e+01
  -1.142238e+02  -7.004153e+01
   1.188301e+01  -1.869552e+02
   5.511599e+01  -1.332250e+02
   7.999645e+01   1.575291e+01
   5.725383e+01   1.112770e+02
   1.690086e+00   8.120038e+01
  -5.414201e+01   3.788836e+00
  -3.291152e+01  -2.724672e+01
  -1.269157e+01  -2.292065e+01
  -1.661694e+01  -4.790827e-02
  -1.713686e+01  -3.849159e+01
  -5.542439e+01  -9.054841e+01
  -2.114619e+01  -9.244702e+01
   4.348273e+01  -3.154940e+01
   1.303775e+02   2.045544e+01
   9.614130e+01   6.903930e+01
  -6.394441e+00   4.096490e+01
  -6.642164e+01   1.402206e+01
  -7.904648e+01   1.547600e+01
   2.989500e+00  -3.234870e+01
   1.209505e+01  -2.815100e+01
   2.777752e+01  -2.699510e+00
  -2.100272e+01   2.985032e-01
   2.799099e+01  -1.386120e+01
   5.480240e+01   3.350286e+00
   8.221343e+01   2.738651e+01
   1.374867e+01   4.611184e+01
  -1.205144e+02   1.109012e+02
  -1.558680e+02   6.290214e+01
  -1.359981e+02  -8.121365e+01
  -1.959346e+01  -1.499981e+02
   1.040544e+02  -1.332830e+02
   1.120256e+02  -5.527040e+01
   5.652541e+01   1.650433e+00
   1.729356e+01   3.669543e+01
   1.329910e+01  -5.425277e+00
   7.971659e+00   2.692937e+01
   2.189149e+01   3.121603e+01
   1.476116e+01   8.392700e+01
  -3.460822e+01   6.041334e+01
  -8.152394e+01  -1.698459e+01
  -6.006057e+01  -9.346292e+01
  -1.114379e+01  -1.225967e+02
   5.649657e+01  -3.975979e+01
   1.033701e+02   6.904847e+01
   4.815637e+01   1.018527e+02
  -9.950176e+01   3.866583e+01
  -9.093769e+01  -2.710625e+01
  -3.716174e+01  -6.494570e+01
   2.044812e+01  -5.415082e+01
   8.034165e+00  -3.050247e+01
  -4.018958e+01  -1.619648e+01
  -8.615242e+01   1.647652e+01
  -1.141277e+01  -1.091016e+01
   6.877142e+01  -6.307461e+01
   1.235808e+02  -3.733019e+01
   4.576579e+01   7.535588e+00
  -2.661088e+01   5.788258e+01
  -3.903691e+01   6.089013e+01
  -3.301476e+01   1.038966e+01
   4.282040e+00  -4.844330e+01
   3.373669e+01  -2.937360e+01
   2.512200e+01   1.204966e+01
   2.404946e+01   5.719423e+01
  -1.232476e+01   4.986266e+01
  -5.243415e+01  -4.967939e+00
  -3.414150e+00  -1.015829e+01
  -1.297618e+01  -6.314129e+00
  -6.832019e+00   2.301504e+01
   2.799729e+01  -7.077640e+00
  -1.864906e+01  -3.881690e+01
   1.843047e+01  -4.251979e+01
   2.824689e+01  -3.406667e+00
   3.225670e+01   4.675597e+01
  -1.764397e+01   4.238316e+01
  -3.798594e+01   2.437709e+01
  -4.575020e+01  -1.667744e+01
   5.534861e+00  -4.314858e+01
   5.929616e+01  -3.626585e+01
   9.706100e+01   2.483451e+01
   4.703083e+01   5.369657e+01
  -1.080503e+01   3.905833e+01
  -6.560662e+01   4.848847e+00
  -2.528691e+01   7.636984e+00
   1.510380e+01   1.695842e+00
   5.774689e+01   1.321935e+01
  -1.671114e+01   3.358881e+01
  -9.786756e+01   5.127493e+00
