
 $NMID
 id='ANONYMOUS ', fmtdat='(2E16.6)'
 volume=1.0
 tramp=1.0
 $END
  -4.322613e+03  -2.389020e+01
  -2.271351e+03  -2.938664e+03
   6.090653e+02  -2.537001e+03
   2.393647e+03  -8.206132e+02
   1.124067e+03   7.735982e+02
  -7.090949e+02   7.293558e+02
  -8.632419e+02  -4.836272e+02
   5.877406e+01  -1.022455e+03
   7.550273e+02  -7.248865e+02
   8.766100e+02   1.257549e+02
   4.107385e+02   9.601732e+02
  -2.139337e+02   8.786018e+02
  -7.247139e+02   9.681397e+01
  -3.253667e+02  -7.124126e+02
   2.932593e+02  -7.327169e+02
   6.136934e+02   2.738147e+00
   2.375996e+02   7.011299e+02
  -4.232072e+02   6.232160e+02
  -6.191240e+02   3.474539e+01
  -3.716536e+02  -4.043030e+02
   1.763767e+01  -4.659494e+02
   2.073101e+02  -2.326265e+02
   2.412483e+02  -4.178169e+01
  -1.130999e+02   1.352202e+02
  -4.239812e+02  -8.377789e+01
  -2.552368e+02  -4.274500e+02
   4.528465e+02  -3.812633e+02
   8.080773e+02   2.664112e+00
   3.480734e+02   4.599670e+02
  -3.277838e+02   5.062537e+02
  -7.445110e+02   2.891791e+01
  -3.138063e+02  -4.722602e+02
   2.796224e+02  -5.352658e+02
   5.540223e+02  -2.050957e+02
   3.998043e+02   2.490728e+02
   4.548994e+01   5.135243e+02
  -2.586166e+02   3.103598e+02
  -1.116773e+02  -1.726722e+02
   1.715970e+02  -4.490351e+02
   4.270322e+02   2.086832e+01
   2.382289e+02   6.883294e+02
  -3.237248e+02   7.162066e+02
  -6.304406e+02  -1.038074e+01
  -2.523502e+02  -5.820875e+02
   3.151862e+02  -3.282103e+02
   4.078984e+02   3.316460e+02
  -6.806485e+01   4.938564e+02
  -5.068586e+02   1.605227e+02
  -5.363083e+02  -4.355812e+02
  -1.105677e+02  -5.588802e+02
   3.529614e+02  -3.379537e+02
   6.192003e+02   6.172181e+01
   3.151335e+02   4.055079e+02
  -1.889541e+02   3.646701e+02
  -4.267240e+02   6.551110e+01
  -2.377686e+02  -2.099653e+02
   1.778352e+02  -1.099338e+02
   1.327427e+02   1.758432e+02
  -1.807317e+02   1.327029e+02
  -2.949435e+02  -7.630664e+01
  -1.665546e+02  -3.076784e+02
   2.165375e+02  -2.493769e+02
   2.940178e+02  -1.976285e+01
   1.780004e+02   9.494118e+01
  -1.813629e+01   2.130604e+02
  -2.174919e+02   3.359287e+02
  -3.202600e+02   2.054819e+02
  -3.099694e+02  -1.347976e+02
  -6.485215e+01  -4.183862e+02
   1.229548e+02  -3.533483e+02
   9.205224e+01  -9.389296e+01
   5.479081e+00   1.429646e+00
   1.316325e+01  -8.885948e+01
   1.559016e+02  -1.813887e+02
   2.815378e+02   3.516484e+01
   1.737016e+02   2.561900e+02
  -5.618482e+01   2.487078e+02
  -2.322100e+02  -8.038682e+00
  -2.183592e+02  -2.346919e+02
   4.984019e+00  -2.962172e+02
   2.748899e+02  -1.036857e+02
   3.648363e+02   1.441471e+02
   1.769188e+02   3.665542e+02
  -1.126822e+02   3.071738e+02
  -2.327712e+02   1.212739e+02
  -1.312693e+02  -2.824411e+01
  -8.744942e+01  -6.718560e+00
  -2.455204e+02   5.960989e+01
  -3.550562e+02  -5.536569e+01
  -3.146227e+02  -2.415563e+02
   7.648582e+00  -4.358125e+02
   3.584823e+02  -3.952325e+02
   4.543882e+02  -1.785925e+02
   3.062379e+02   1.055185e+02
  -1.220881e+00   2.667156e+02
  -1.193125e+02   2.575498e+02
  -9.474987e+01   1.529091e+01
   9.719760e+01  -1.161530e+02
   1.747316e+02   3.027724e+01
   4.196329e+01   2.059307e+02
  -1.674362e+02   1.849900e+02
  -2.054363e+02  -5.084410e+01
   4.701381e+00  -1.972824e+02
   2.008554e+02  -2.013964e+00
   1.387167e+02   2.124508e+02
  -4.858701e+01   3.429797e+02
  -2.169870e+02   1.679809e+02
  -3.154293e+02  -5.052926e+01
  -2.404664e+02  -2.313104e+02
  -5.781816e+01  -2.780024e+02
   1.007340e+02  -1.594238e+02
   1.752751e+02  -2.206039e-02
   4.587704e+01   3.227609e+01
  -3.638361e+01  -3.682261e+01
  -1.001338e+01  -1.495870e+02
   1.167084e+02  -8.461664e+01
   1.867667e+02   2.994156e+01
   4.529595e+01   6.522153e+01
  -8.536657e+01   5.217747e+01
  -7.032677e+01  -4.536488e+01
   1.012466e+02  -1.041367e+02
   2.573776e+02  -2.951701e+00
   2.247808e+02   1.359130e+02
   3.168301e+01   2.435438e+02
  -1.739965e+02   2.666892e+02
  -2.746032e+02   8.044782e+01
  -1.535703e+02  -1.962252e+01
   8.351059e-01  -1.220880e+02
   8.656717e+01  -5.932111e+00
  -1.528046e+01   7.414021e+01
  -1.743290e+02   5.513271e+01
  -2.151486e+02  -9.740885e+01
  -6.442841e+01  -1.966572e+02
   9.728989e+01  -1.437898e+02
   1.437580e+02  -3.467879e+01
   9.719472e+01   4.520968e+01
   9.450219e+00   2.527500e+00
  -2.192507e+01  -8.915030e+01
   6.723896e+01  -1.384926e+02
   2.137105e+02  -2.551290e+00
   1.973907e+02   1.322175e+02
   3.509062e-01   2.149351e+02
  -1.175000e+02   1.912472e+02
  -1.955960e+02  -1.016882e+01
  -6.798009e+01  -1.169645e+02
   6.785216e+01  -9.867034e+01
   7.081216e+01  -2.730856e+01
   1.049767e+01   2.910760e+01
  -7.015066e+00   2.797045e+00
   2.279007e+01  -8.054435e+00
   6.505840e+01   1.158441e+01
   8.005710e+01   6.451690e+01
   1.407728e+01   1.668284e+02
  -1.160802e+02   1.247641e+02
  -2.095034e+02   9.318305e+00
  -1.787490e+02  -1.271896e+02
  -3.672873e+01  -2.412767e+02
   1.407083e+02  -1.593253e+02
   1.247036e+02  -2.550551e+01
   6.891628e+01   3.754840e+01
   1.649622e+01   4.681223e+01
   4.885591e+01  -3.087108e+00
   8.064913e+01  -1.662881e+01
   5.747378e+01   4.522297e+01
  -3.288030e+01   1.026389e+02
  -1.275056e+02   4.103009e+01
  -7.929735e+01   2.487360e+01
   3.019017e+01  -1.224670e+02
   1.035012e+02  -7.836842e+01
   1.763484e+02   4.016507e+01
   1.062680e+02   2.135798e+02
  -7.404616e+01   2.330841e+02
  -2.332969e+02   1.002103e+02
  -2.464447e+02  -5.134268e+01
  -7.456250e+01  -1.589088e+02
   3.183098e+01  -1.347596e+02
   1.107081e+02  -7.242940e+01
   6.991699e+01  -6.799835e+01
   7.208911e+01  -9.355948e+01
   8.585041e+01  -7.176119e+01
   1.146594e+02  -5.301949e+00
   1.004084e+02   1.236249e+02
   3.587399e+01   2.281936e+02
  -9.919941e+01   1.535064e+02
  -1.652998e+02   3.085370e+01
  -1.254274e+02  -1.083349e+02
   1.478916e+01  -1.741852e+02
   6.201655e+01  -8.476333e+01
   3.403630e+01  -7.291387e+00
  -1.403017e+01   5.755374e+00
  -2.590901e+01   4.476398e+01
   4.834225e+01   3.969164e+01
   9.150868e+01   3.423434e+01
   4.755148e+01   4.500822e+01
  -2.896433e+01   1.346678e+01
  -1.823355e+02   1.819572e+01
  -1.554391e+02  -3.525378e+01
   2.021737e+00  -6.916097e+01
   1.076448e+02  -6.688645e+01
   1.256136e+02  -1.715487e+00
   4.057495e+01   5.301749e+01
  -8.930101e+01   2.774528e+01
  -6.782842e+01  -1.084544e+01
  -7.014682e-01  -5.684268e+01
   4.638778e+01  -4.136283e+01
   7.920268e+01  -5.532222e+00
   3.351121e+01   5.047511e+01
   6.332696e+01   4.587321e+01
   5.773178e+01  -1.111853e+01
   5.954645e+01  -8.840353e+00
   3.650936e+01   8.386807e+01
  -4.920633e+01   1.155711e+02
  -9.799771e+01   1.485580e+02
  -1.436134e+02  -6.324101e+00
  -1.345271e+02  -6.087751e+01
  -1.606826e+01  -8.600090e+01
   8.212914e+01  -3.142922e+01
   4.011659e+01   3.090545e+00
  -3.710989e+01   1.298978e+01
  -1.477840e+02  -4.773895e+01
  -9.577838e+01  -1.034944e+02
   6.980366e+01  -7.389091e+01
   1.976094e+02  -2.660802e+01
   1.326092e+02   3.529645e+01
   7.483052e+00   9.448780e+01
  -6.255533e+01   8.887049e+01
  -6.250806e+01  -6.957601e-01
   4.508829e+01  -4.250365e+01
   8.996250e+01   2.834881e+01
   2.850770e+01   1.256166e+02
  -9.337714e+01   1.400160e+02
  -1.876636e+02   7.391092e+01
  -1.016334e+02  -1.054585e+02
   3.246075e+00  -1.932293e+02
   9.109400e+01  -1.631709e+02
   1.196026e+02   8.421637e+00
   5.380230e+01   1.063942e+02
  -4.910033e+00   8.180475e+01
  -4.502909e+01   3.199894e+01
  -3.726125e+01  -7.386432e+00
  -2.740932e+01  -2.544188e+00
  -6.671384e-01   3.208437e+01
  -3.760269e+01  -1.338238e+01
  -5.017852e+01  -9.772301e+01
  -5.205755e+01  -9.836689e+01
   4.913782e+01  -1.652020e+01
   1.365911e+02   6.013257e+01
   1.059527e+02   6.256188e+01
   1.939403e+01   8.292295e+01
  -8.903554e+01   2.508580e+01
  -8.800567e+01   2.331789e+00
  -4.874659e+00  -5.315273e+00
   1.915561e+01  -1.396294e+01
   2.155296e+01  -4.377452e+01
  -3.277706e+01   2.388222e+00
  -2.127947e+00   1.320143e+01
   6.260613e+01   1.236033e+01
   5.203984e+01   3.240781e+01
   1.951409e+01   4.746229e+01
  -1.211365e+02   1.256697e+02
  -1.433033e+02   4.419261e+01
  -9.244634e+01  -9.137480e+01
  -1.634539e+01  -1.609721e+02
   8.252134e+01  -1.462209e+02
   9.801044e+01  -4.067781e+01
   6.972845e+01   1.965478e+01
   5.419004e+00   1.044347e+01
  -1.801218e+01   1.245395e+00
   2.558572e+01   1.804327e+01
   3.063893e+01   2.387905e+01
   3.314661e+01   8.936936e+01
  -5.742175e+01   8.350130e+01
  -6.754251e+01  -4.641926e+01
  -9.492555e+01  -1.186775e+02
   3.556947e+00  -9.076286e+01
   6.742803e+01  -3.438382e+01
   6.443666e+01   7.468170e+01
   5.783357e+01   8.575579e+01
  -7.363404e+01   6.129711e+01
  -8.533141e+01  -1.345979e+01
  -2.144119e+01  -5.817412e+01
   2.839831e+01  -4.494642e+01
  -1.134593e+01  -2.929065e+01
  -4.459353e+01  -1.423528e+01
  -5.562400e+01   3.613743e+01
  -1.632114e+01  -4.679029e+00
   9.441012e+01  -6.188078e+01
   9.180282e+01  -4.775275e+01
   4.556703e+01   3.303311e+01
  -1.208485e+01   7.593677e+01
  -5.773764e+01   1.013141e+02
  -3.364157e+01   1.449352e+01
   1.974838e+00  -6.637202e+01
   1.412767e+01  -5.364556e+01
   2.761078e+01   2.583054e+01
   2.816720e+01   3.476326e+01
   6.372206e+00   2.956347e+01
  -3.814826e+01  -4.546725e+01
  -4.661903e+01   1.961137e+00
  -2.738749e+01   2.187840e+01
   2.280398e+01   6.939436e+00
  -1.722420e+01  -1.027731e+01
  -1.543565e+01  -4.857772e+01
   1.601828e+01  -3.986086e+01
   1.787273e+01  -2.578086e+00
   3.599029e+01   6.044335e+01
  -3.533901e+01   7.958983e+01
  -4.869660e+01   6.292138e+01
  -6.574257e+01  -1.232392e+01
  -3.237232e+01  -4.905248e+01
   4.047081e+01  -1.712515e+01
   9.165651e+01   2.002243e+01
   4.378346e+01   4.618405e+01
  -2.455040e+01   1.068968e+01
  -5.071618e+01   9.179927e+00
  -2.515201e+01   1.278285e+00
   6.475394e+01  -5.656964e+00
   3.805725e+01   2.806738e+01
  -3.238682e+01   3.975866e+01
  -8.115535e+01   2.767107e+01
