
 $NMID
 id='ANONYMOUS ', fmtdat='(2E16.6)'
 volume=1.0
 tramp=1.0
 $END
   4.166514e+03   3.116671e+01
   2.396484e+03   2.867700e+03
  -7.793298e+02   2.868878e+03
  -2.155998e+03   5.932442e+02
  -9.849292e+02  -9.329615e+02
   1.019018e+03  -5.285657e+02
   1.018457e+03   4.831237e+02
  -1.037277e+02   1.104556e+03
  -8.585623e+02   7.326475e+02
  -9.539353e+02  -1.485771e+02
  -2.958871e+02  -9.461558e+02
   2.786262e+02  -8.379582e+02
   7.345499e+02  -8.260104e+01
   3.336478e+02   6.992364e+02
  -2.425130e+02   7.655531e+02
  -5.745578e+02  -1.515910e+01
  -2.316753e+02  -6.757948e+02
   3.367661e+02  -6.413522e+02
   5.874724e+02   5.159515e+00
   3.526215e+02   4.097433e+02
  -6.605916e+00   4.874306e+02
  -2.237865e+02   2.379972e+02
  -2.247706e+02  -2.181514e+01
   1.075307e+02  -1.213894e+02
   4.545738e+02   5.358150e+01
   2.191991e+02   4.569437e+02
  -4.976020e+02   4.539732e+02
  -8.776424e+02  -9.721263e+01
  -3.739977e+02  -6.076682e+02
   3.684440e+02  -5.453431e+02
   8.076537e+02   2.967954e+01
   3.796545e+02   4.899796e+02
  -2.379249e+02   5.465431e+02
  -6.427100e+02   1.980987e+02
  -3.966217e+02  -2.375427e+02
  -3.854861e+01  -5.107125e+02
   2.955276e+02  -2.316326e+02
   1.544084e+02   2.602688e+02
  -2.366855e+02   4.827912e+02
  -4.541755e+02  -2.752062e+01
  -2.749747e+02  -7.255605e+02
   3.700904e+02  -7.637990e+02
   6.278285e+02  -5.099721e+01
   2.483518e+02   5.627041e+02
  -2.570699e+02   3.163228e+02
  -4.538378e+02  -2.988314e+02
   2.480177e+01  -5.117425e+02
   5.368398e+02  -1.989633e+02
   5.867464e+02   3.974383e+02
   1.194258e+02   6.028709e+02
  -4.079268e+02   3.966392e+02
  -6.347481e+02  -9.594469e+01
  -3.408280e+02  -4.047444e+02
   2.183381e+02  -3.667122e+02
   4.743709e+02  -6.954492e+01
   2.677689e+02   1.799253e+02
  -1.518799e+02   1.264693e+02
  -1.812740e+02  -1.819667e+02
   1.719712e+02  -2.251817e+02
   3.533138e+02   1.067217e+02
   1.825617e+02   3.183112e+02
  -2.035964e+02   2.688347e+02
  -3.030859e+02   3.268490e+01
  -1.917210e+02  -1.017488e+02
   2.936421e+01  -2.300512e+02
   2.173863e+02  -3.288505e+02
   3.178364e+02  -2.373677e+02
   3.065119e+02   1.414614e+02
   7.034645e+01   4.306977e+02
  -8.677855e+01   3.883744e+02
  -1.323035e+02   1.040165e+02
  -2.071210e+01  -2.034009e+01
  -2.314198e+01   8.562132e+01
  -1.866782e+02   1.506748e+02
  -2.910973e+02  -5.690952e+01
  -1.920755e+02  -2.438891e+02
   7.373639e+01  -2.376540e+02
   2.579365e+02  -7.994723e+00
   2.007835e+02   2.582874e+02
  -4.885077e+00   3.274929e+02
  -2.700460e+02   1.357487e+02
  -3.769644e+02  -1.971069e+02
  -1.836876e+02  -3.532181e+02
   1.174470e+02  -3.061363e+02
   2.547432e+02  -9.352383e+01
   1.463285e+02  -9.681155e+00
   7.465869e+01  -7.476914e-01
   2.358701e+02  -6.909484e+01
   3.812903e+02   7.588113e+01
   3.428759e+02   2.746980e+02
   6.146788e+00   4.449664e+02
  -3.543945e+02   3.956580e+02
  -4.534892e+02   1.576837e+02
  -3.414838e+02  -7.356262e+01
   7.326235e-02  -2.682203e+02
   1.367271e+02  -2.566956e+02
   7.595433e+01  -2.877865e+01
  -1.054099e+02   1.108179e+02
  -1.658398e+02  -8.760743e+00
  -4.342331e+01  -1.665425e+02
   1.588350e+02  -2.102119e+02
   2.135705e+02   4.180892e+01
  -5.398322e+00   2.068807e+02
  -2.057668e+02   4.780575e+01
  -1.665904e+02  -2.241254e+02
   2.762102e+01  -3.339053e+02
   2.356767e+02  -1.952614e+02
   3.221759e+02   6.206992e+01
   2.512899e+02   2.008664e+02
   1.084985e+02   2.710420e+02
  -1.346292e+02   1.652933e+02
  -1.949838e+02   3.698626e+01
  -6.250334e+01  -1.980683e+01
   4.391481e+01   5.727084e+01
   2.312892e+01   1.465141e+02
  -9.961896e+01   9.118523e+01
  -1.835603e+02  -2.024250e+01
  -6.288973e+01  -8.818858e+01
   9.365607e+01  -3.222245e+01
   5.921997e+01   6.705802e+01
  -8.230270e+01   8.825324e+01
  -2.621554e+02   1.022838e+01
  -2.311724e+02  -1.323764e+02
  -5.824308e+01  -2.768550e+02
   1.872059e+02  -2.828689e+02
   2.932409e+02  -1.061737e+02
   1.760520e+02   3.875194e+01
  -1.531041e+01   8.017760e+01
  -6.180879e+01   1.604907e+01
   8.725730e+00  -1.144696e+02
   2.095521e+02  -9.007535e+01
   2.020576e+02   1.205909e+02
   7.611305e+01   1.877853e+02
  -9.229536e+01   1.748379e+02
  -1.577848e+02   3.721323e+01
  -7.227647e+01  -4.971560e+01
   8.200155e+00  -3.951967e+01
   2.192074e+01   4.598484e+01
  -7.947923e+01   1.115385e+02
  -1.996485e+02   2.772771e+01
  -1.896310e+02  -1.332476e+02
  -1.240923e+01  -2.337733e+02
   1.446558e+02  -1.571734e+02
   1.971275e+02   7.455323e+00
   6.601719e+01   9.020865e+01
  -4.220928e+01   1.066968e+02
  -8.879219e+01   1.440655e+01
  -8.725490e+00  -1.981267e+01
   4.718933e+01  -5.293665e+00
  -1.766491e+01   1.867995e+01
  -6.357459e+01  -1.563358e+01
  -6.548804e+01  -6.658783e+01
  -1.283010e+01  -1.364180e+02
   1.041222e+02  -1.411942e+02
   2.347619e+02  -2.595724e+01
   1.824241e+02   1.449425e+02
   5.148119e+01   2.196361e+02
  -1.293342e+02   1.682917e+02
  -1.453447e+02   2.215473e+01
  -5.743798e+01  -5.072515e+01
  -1.666755e+01  -4.687372e+01
  -4.006547e+01  -1.533414e+00
  -4.515769e+01   3.452764e+01
  -2.761756e+01  -5.313922e+01
   3.215137e+01  -1.000299e+02
   1.251286e+02  -5.344279e+01
   5.406529e+01   1.137911e+01
  -1.761914e+00   1.030972e+02
  -1.234465e+02   7.795604e+01
  -1.853548e+02  -4.596265e+00
  -9.121334e+01  -1.845203e+02
   1.070244e+02  -2.235225e+02
   2.460003e+02  -9.792417e+01
   2.470857e+02   6.497987e+01
   9.330342e+01   1.911599e+02
  -1.000717e+01   1.481466e+02
  -1.190211e+02   9.175857e+01
  -6.914873e+01   6.687993e+01
  -5.609586e+01   1.041003e+02
  -9.818141e+01   5.248253e+01
  -1.081639e+02   5.714296e+00
  -1.016537e+02  -1.505162e+02
  -3.238231e+01  -2.266915e+02
   1.286249e+02  -1.775708e+02
   1.727019e+02  -1.483277e+01
   1.248893e+02   1.197411e+02
   3.462816e+01   1.675361e+02
  -8.069998e+01   1.093151e+02
  -5.632166e+01  -1.255727e+01
  -2.185755e+01  -3.089853e+01
   7.439913e+00  -2.230713e+01
  -4.702522e+01  -3.188763e+01
  -5.315177e+01  -3.586655e+01
  -5.039180e+01  -2.019002e+01
   6.857761e+01  -5.729386e+01
   1.458901e+02  -8.443682e-01
   1.347831e+02   3.619067e+01
   1.945431e+01   6.690073e+01
  -1.210748e+02   7.150126e+01
  -1.477034e+02   6.424023e+00
  -4.480994e+01  -1.718692e+01
   1.100597e+02  -2.487026e+01
   9.620274e+01   1.383687e+00
   2.971806e+01   6.833896e+01
  -4.946248e+01   6.356143e+01
  -5.117358e+01   3.592092e+00
  -3.178747e+01  -4.945767e+01
  -4.030202e+01  -3.721329e+01
  -6.217408e+01  -3.331997e+01
  -6.627996e+01  -1.006907e+00
  -4.917322e+01  -8.113418e+01
   6.322002e+01  -1.559377e+02
   9.436220e+01  -1.348179e+02
   1.446001e+02  -2.850663e+01
   1.357831e+02   8.003138e+01
   1.834649e+01   9.835673e+01
  -1.057237e+02   3.949707e+01
  -6.726144e+01   1.501117e+00
   3.838000e+01  -2.356491e+00
   1.356954e+02   3.654170e+01
   6.785904e+01   1.138212e+02
  -8.822756e+01   1.011942e+02
  -2.002644e+02   4.769697e+01
  -1.283806e+02  -6.736277e+01
  -3.816589e+01  -1.053554e+02
   6.725349e+01  -5.573471e+01
   4.435543e+01  -6.006381e+00
  -4.946575e+01   2.264490e+01
  -7.765322e+01  -2.773560e+01
  -1.110610e+01  -1.012147e+02
   1.026141e+02  -1.524430e+02
   1.563760e+02  -8.470363e+01
   1.471232e+02   1.075239e+02
  -6.164124e+00   2.293578e+02
  -9.626305e+01   1.503089e+02
  -1.147728e+02   7.631918e+00
  -5.649884e+01  -9.399819e+01
  -1.455122e+01  -1.019228e+02
   4.024336e+01  -2.878318e+01
   5.737346e+01   1.142474e+01
   2.949414e+01   2.518783e+01
   8.040041e+00  -1.599631e+01
   1.934288e+01   7.627187e+00
   8.134572e+01   1.080602e+02
   5.579671e+01   1.018676e+02
  -5.236893e+01   4.173062e+01
  -1.567126e+02  -5.624642e+01
  -1.059348e+02  -9.036289e+01
  -4.381857e+00  -4.030722e+01
   8.414265e+01   2.083454e-01
   7.992696e+01   5.029292e+00
  -4.619356e+00  -9.382510e+00
  -1.792372e+01   4.016761e+01
  -2.518211e+01   3.307773e+01
   1.658704e+01  -3.513034e+00
   1.296361e+01  -9.290774e+00
  -9.778886e+01  -1.149638e+01
  -9.160948e+01  -2.451308e+01
  -1.105416e+01  -8.919840e+01
   1.369667e+02  -1.150505e+02
   1.922353e+02  -7.895123e+01
   1.297302e+02   7.249449e+01
   1.076431e+01   1.715226e+02
  -5.990043e+01   1.429952e+02
  -1.058211e+02   4.388851e+01
  -5.813530e+01  -2.381359e+01
  -3.119740e+01  -2.969021e+01
   4.680283e+00   5.471117e+00
  -3.276584e+01   1.566963e+00
  -3.049855e+01  -5.803940e+01
  -2.987499e+01  -7.260852e+01
   4.137571e+01  -8.467481e+01
   5.490820e+01   2.302186e+01
   7.254963e+01   9.283141e+01
  -8.288941e+00   9.217152e+01
  -8.975413e+01   4.900711e+01
  -9.626619e+01  -4.755489e+01
  -5.897664e+01  -8.873746e+01
   7.545750e+01  -5.880638e+01
   8.280295e+01   2.677560e+01
   1.590799e+01   4.652156e+01
  -2.238190e+01   5.397489e+01
  -2.316049e+01   2.474146e+01
   4.013659e+01   1.197621e+01
   5.903119e+01  -2.149472e+01
  -1.955126e+01  -3.738000e+00
  -9.252396e+01   9.703419e+01
  -9.156564e+01   6.151220e+01
  -5.030644e+01  -2.436490e+01
   2.005606e+01  -5.504540e+01
   5.093992e+01  -7.578836e+01
   3.843648e+01  -2.574557e+00
   1.076865e+01   4.802550e+01
  -1.364020e+01   4.310237e+01
  -3.428460e+01   1.012963e+01
  -1.534683e+01  -2.673134e+01
   1.323959e+00  -2.938195e+00
   3.251581e+01   2.221929e+01
   3.273017e+01   3.380147e+01
   2.714329e+01  -2.674768e+01
  -1.456178e+01   1.897304e+01
  -1.159670e+01   2.223476e+01
   9.815220e+00   2.730990e+01
  -1.065060e+01   4.675902e+01
  -2.061715e+01   3.037756e+01
  -2.908209e+01  -5.521446e+01
   6.162858e+00  -6.430154e+01
   5.014642e+01  -2.338046e+01
   4.978076e+01   3.393810e+01
  -6.333888e-01   3.974159e+01
  -5.677213e+01   4.056385e+01
  -5.069670e+01  -3.684490e+01
  -4.745312e+01  -5.127803e+01
   1.160596e+01  -3.836363e+01
   6.925402e+01   6.402524e+00
   1.012075e+01  -2.579417e+01
  -1.694788e+01  -2.589288e+00
  -4.067411e+01  -3.757505e+01
   5.362146e+01  -4.455168e+01
   1.209818e+02  -1.633631e+01
