
 $NMID
 id='ANONYMOUS ', fmtdat='(2E16.6)'
 volume=1.0
 tramp=1.0
 $END
  -4.283234e+03  -2.508771e+02
  -2.537220e+03  -2.817729e+03
   1.056034e+03  -2.997420e+03
   2.150524e+03  -7.134798e+02
   9.005934e+02   8.647971e+02
  -8.796875e+02   4.694980e+02
  -1.015277e+03  -7.125741e+02
  -2.489943e+01  -1.210617e+03
   8.907765e+02  -7.727927e+02
   9.790117e+02   1.942794e+02
   4.423804e+02   9.927623e+02
  -3.323801e+02   8.822276e+02
  -6.920693e+02   5.076328e+01
  -4.012476e+02  -7.980254e+02
   2.791043e+02  -7.888605e+02
   5.977031e+02  -7.143186e+00
   2.417804e+02   7.844564e+02
  -3.051498e+02   6.132506e+02
  -6.143867e+02   1.592030e+01
  -3.490361e+02  -4.106556e+02
  -5.761022e+00  -4.442991e+02
   3.024577e+02  -3.020535e+02
   2.429071e+02   4.755815e+01
  -1.711539e+02   1.114516e+02
  -4.193137e+02  -1.158145e+02
  -2.891505e+02  -4.856517e+02
   4.786940e+02  -4.814289e+02
   1.006510e+03   9.475278e+01
   4.805953e+02   6.241310e+02
  -3.789529e+02   5.697694e+02
  -7.693914e+02  -4.306118e+01
  -4.053578e+02  -5.499389e+02
   3.208019e+02  -5.255655e+02
   6.374304e+02  -1.775154e+02
   4.475963e+02   2.602740e+02
   8.439817e+01   4.859556e+02
  -2.414325e+02   2.345969e+02
  -2.057738e+02  -2.361615e+02
   1.966581e+02  -5.077579e+02
   4.848094e+02   1.774501e+01
   2.720644e+02   7.301159e+02
  -3.625773e+02   7.299531e+02
  -6.828091e+02   3.111429e+01
  -2.825458e+02  -6.196183e+02
   2.907904e+02  -3.206173e+02
   4.160156e+02   3.183402e+02
  -8.621867e+00   5.741085e+02
  -5.722858e+02   1.509525e+02
  -6.634196e+02  -4.191274e+02
  -1.831371e+02  -5.392356e+02
   4.093304e+02  -3.487713e+02
   6.909805e+02   6.586689e+01
   3.682525e+02   3.842918e+02
  -1.786464e+02   3.541360e+02
  -4.361128e+02   2.886697e+01
  -2.450113e+02  -2.164758e+02
   1.250156e+02  -1.221039e+02
   1.578187e+02   1.573782e+02
  -1.640341e+02   2.171704e+02
  -4.132728e+02  -1.012657e+02
  -1.467281e+02  -3.549696e+02
   2.016151e+02  -2.398080e+02
   3.353378e+02  -4.579347e+01
   1.811886e+02   8.966503e+01
  -6.437843e+01   2.092018e+02
  -1.979446e+02   3.219872e+02
  -3.566469e+02   2.482605e+02
  -2.820111e+02  -1.273049e+02
  -1.160942e+02  -4.135142e+02
   1.077754e+02  -3.934384e+02
   1.278641e+02  -1.143963e+02
   2.535597e+01   6.128442e+01
   3.038542e+01  -1.169535e+02
   2.034424e+02  -1.402069e+02
   3.019382e+02   5.898759e+01
   1.616368e+02   2.374769e+02
  -3.059473e+01   2.601808e+02
  -2.484228e+02   3.534538e+01
  -2.042622e+02  -2.438923e+02
  -3.691175e+00  -3.138294e+02
   2.920399e+02  -1.241322e+02
   3.725188e+02   1.782317e+02
   1.877440e+02   3.687571e+02
  -1.220784e+02   2.726399e+02
  -2.255050e+02   1.082419e+02
  -1.751337e+02  -3.013697e+00
  -5.527247e+01  -4.190496e+00
  -2.349641e+02   6.700537e+01
  -3.950846e+02  -7.062005e+01
  -3.403232e+02  -2.653571e+02
   3.101023e+01  -4.284110e+02
   3.792446e+02  -4.374223e+02
   4.864019e+02  -2.140419e+02
   3.482403e+02   1.062382e+02
   6.590912e+01   2.801120e+02
  -1.336863e+02   2.763282e+02
  -5.458353e+01   1.346241e+01
   9.751832e+01  -1.233166e+02
   1.536760e+02  -3.702592e+00
   9.420255e+01   1.698304e+02
  -2.268745e+02   2.144950e+02
  -2.110338e+02  -9.092603e+01
   2.904790e+01  -2.206835e+02
   1.954916e+02  -4.246138e+01
   1.687875e+02   2.544648e+02
  -7.731609e+01   3.479735e+02
  -2.420750e+02   1.849070e+02
  -3.202587e+02  -5.979778e+01
  -2.723231e+02  -2.074235e+02
  -1.083663e+02  -2.513817e+02
   7.771907e+01  -1.469117e+02
   1.754865e+02  -2.778040e+01
   3.388392e+01   2.677088e+01
  -5.086526e+01  -1.125199e+01
  -3.401027e+01  -1.583848e+02
   1.025564e+02  -1.368159e+02
   2.165674e+02   4.353763e+01
   6.692295e+01   1.000853e+02
  -8.334489e+01   4.199437e+01
  -6.864699e+01  -9.837244e+01
   7.896634e+01  -7.066830e+01
   2.615059e+02  -3.003196e+00
   2.585228e+02   1.387953e+02
   5.821132e+01   2.778881e+02
  -1.523020e+02   2.942253e+02
  -2.820463e+02   1.077047e+02
  -1.891453e+02  -4.932900e+01
   3.914811e+01  -7.629645e+01
   7.725193e+01  -1.525317e+01
  -1.672045e+01   1.100151e+02
  -1.895410e+02   4.568456e+01
  -1.942274e+02  -8.763726e+01
  -7.857329e+01  -2.122732e+02
   1.049700e+02  -1.625363e+02
   1.699527e+02  -3.580712e+01
   9.429714e+01   4.463312e+01
   1.338986e+01   1.752971e+01
  -3.611618e+01  -7.015438e+01
   7.463478e+01  -1.427530e+02
   1.871864e+02  -4.434722e+01
   2.167865e+02   1.261518e+02
   1.332498e+01   2.218085e+02
  -1.633378e+02   1.402396e+02
  -2.086379e+02   1.044840e+01
  -8.106968e+01  -1.322621e+02
   4.451576e+01  -1.158782e+02
   7.378683e+01  -4.072203e+01
   4.052371e+01   3.653041e+01
  -4.094214e+00   2.173198e+01
   1.594820e+01  -4.814158e+00
   5.871642e+01   1.434133e+01
   7.674325e+01   7.964167e+01
  -6.748543e+00   1.337586e+02
  -1.179046e+02   1.404043e+02
  -2.534111e+02   4.204873e+01
  -2.051066e+02  -1.732580e+02
  -2.202867e+01  -2.242954e+02
   1.218651e+02  -1.741568e+02
   1.515582e+02  -2.349136e+01
   6.915125e+01   5.161773e+01
   1.897749e+01   2.956893e+01
   5.724311e+01   1.091441e+01
   7.828425e+01  -1.864677e+01
   1.242326e+01   5.875320e+01
  -2.001095e+01   8.988951e+01
  -1.087137e+02   6.378216e+01
  -8.709550e+01  -5.793503e+00
   2.422218e+01  -9.022490e+01
   1.249499e+02  -8.625881e+01
   1.866330e+02   6.424154e+01
   1.061502e+02   1.988580e+02
  -1.008168e+02   2.408740e+02
  -2.830148e+02   9.971497e+01
  -2.429733e+02  -6.251506e+01
  -9.268253e+01  -1.676638e+02
   5.540936e+01  -1.564531e+02
   1.182687e+02  -8.915060e+01
   6.517344e+01  -5.533233e+01
   7.737578e+01  -8.749073e+01
   8.181151e+01  -4.216868e+01
   1.169095e+02   1.457907e+01
   8.631943e+01   1.319121e+02
   3.167271e+01   2.339302e+02
  -9.473982e+01   1.624028e+02
  -1.892887e+02   2.524107e+01
  -1.332546e+02  -1.290080e+02
  -1.108254e+01  -1.741863e+02
   4.901251e+01  -1.009060e+02
   8.147311e+01   1.463436e+00
   1.675374e+01   4.907559e+01
  -1.235664e+01   4.504257e+01
   5.194910e+01   3.939858e+01
   8.982863e+01   1.371338e+01
   5.299784e+01   2.918387e+01
  -7.730458e+01   5.360071e+01
  -1.335484e+02   1.432694e+01
  -1.349744e+02  -5.072545e+01
  -1.175835e+01  -9.994705e+01
   1.123832e+02  -8.674175e+01
   1.582098e+02  -2.201266e+01
   7.365532e+01   2.064289e+01
  -7.468770e+01   6.776845e+01
  -8.340198e+01  -1.890441e+01
  -8.167593e+00  -7.779651e+01
   5.946769e+01  -5.427456e+01
   6.170298e+01   1.378214e+01
   3.538114e+01   7.652437e+01
   5.797420e+01   1.166463e+01
   5.857968e+01   2.712943e+01
   7.422574e+01   5.333415e+00
   3.218605e+01   6.024890e+01
  -7.785020e+01   1.529226e+02
  -1.134741e+02   1.383803e+02
  -1.562173e+02   3.936476e+01
  -1.230252e+02  -6.489143e+01
  -1.303375e+01  -9.176632e+01
   8.417334e+01  -4.296582e+01
   4.360958e+01   1.413148e-01
  -5.260637e+01  -1.802539e+01
  -1.333019e+02  -4.208474e+01
  -7.560777e+01  -1.118786e+02
   6.125949e+01  -1.196169e+02
   1.867118e+02  -1.794587e+01
   1.388801e+02   7.608440e+00
   2.847729e+01   1.068161e+02
  -7.513570e+01   8.579673e+01
  -6.066314e+01   1.886877e+01
   1.807554e+01  -5.292048e+01
   9.300399e+01   3.782024e+01
   4.685089e+01   1.125568e+02
  -9.677958e+01   1.494636e+02
  -1.816096e+02   8.878834e+01
  -1.013716e+02  -1.135689e+02
  -2.221898e+01  -2.227842e+02
   7.871949e+01  -1.599339e+02
   9.186882e+01   8.014311e+00
   6.997662e+01   9.733838e+01
   1.319579e+01   9.906390e+01
  -3.163147e+01   2.681653e+01
  -6.591518e+01  -4.510156e+01
  -4.970687e+01  -1.700217e+01
  -2.414445e+00   4.702298e+00
  -3.833536e+01   7.493570e+00
  -6.540828e+01  -7.399580e+01
  -5.147498e+01  -1.024787e+02
   3.638041e+01  -4.768817e+01
   1.577619e+02   3.518835e+01
   1.237133e+02   8.804498e+01
   2.515494e+01   5.102724e+01
  -8.598677e+01   1.518760e+01
  -9.251378e+01  -8.273363e+00
  -1.493861e+01  -1.017976e+01
   4.396703e+01   4.771243e+00
   2.847232e+01  -1.890583e+01
  -3.557974e+01  -8.748928e+00
  -7.182061e+00   1.776203e+00
   7.260680e+01   2.096739e+01
   7.291179e+01   2.468638e+01
  -7.679590e+00   1.085572e+02
  -1.430695e+02   1.306975e+02
  -1.916128e+02   4.140824e+01
  -1.371617e+02  -8.874863e+01
  -3.043876e+01  -1.289132e+02
   6.899250e+01  -1.365991e+02
   1.173744e+02  -2.466321e+01
   7.967792e+01   2.268817e+01
   2.719740e+01   3.232152e+01
  -5.797271e+00   4.679054e+00
   1.943421e+01   1.818819e+01
   3.563224e+01   6.472974e+01
   3.025894e+01   8.271759e+01
  -3.767992e+01   7.084380e+01
  -5.418767e+01  -3.933720e+01
  -6.784859e+01  -1.054482e+02
   8.443372e+00  -1.061735e+02
   8.265374e+01  -8.431033e+00
   9.659694e+01   7.710163e+01
   5.821252e+01   1.259630e+02
  -4.726399e+01   4.102507e+01
  -8.736774e+01  -4.367380e+01
  -4.837353e+01  -4.761961e+01
   3.955392e+01  -2.757741e+01
   2.630982e+01  -1.663224e+01
  -5.260553e+01   1.747070e+01
  -6.036377e+01   1.266345e+01
  -7.193347e+00  -1.918323e+00
   9.545872e+01  -8.432721e+01
   8.223380e+01  -4.923270e+01
   7.530416e+01   5.975686e-01
  -3.658681e+01   4.896602e+01
  -7.106646e+01   4.419557e+01
  -2.093535e+01   8.269956e+00
  -4.601439e-01  -9.180598e+01
   3.043239e+01  -5.974000e+01
   4.070844e+01   4.781419e+01
   2.468989e+01   4.572873e+01
  -2.227745e+01   1.065561e+01
  -2.679537e+01  -2.001397e+01
  -1.775754e+01  -4.350939e+01
  -4.271459e+01   4.505065e-01
   2.052795e+01   4.211433e+00
   2.143278e+01  -1.119348e+01
  -1.045749e+01  -4.220992e+01
   4.177423e+01  -5.197385e+01
   4.985260e+01  -1.444730e+01
   2.392302e+01   4.681774e+01
   1.582338e+01   1.021868e+02
  -5.120205e+01   1.699828e+01
  -6.227506e+01  -2.330622e+01
  -1.011410e+01  -4.576745e+01
   5.327734e+01  -1.735683e+01
   8.493353e+01   4.421635e+01
   4.973870e+01   6.208586e+01
  -3.660687e+01   2.367569e+01
  -8.992646e+01   6.960507e+00
   8.891652e+00   4.456093e+01
   3.842835e+01   1.744835e+01
   5.864708e+01   4.165664e+01
  -3.953376e+01   4.991833e+00
  -1.239972e+02   3.285966e+01
