
 $NMID
 id='ANONYMOUS ', fmtdat='(2E16.6)'
 volume=1.0
 tramp=1.0
 $END
   4.752109e+03  -3.147225e+02
   3.147727e+03   2.680056e+03
  -7.286137e+02   2.817960e+03
  -2.241014e+03   1.084057e+03
  -9.385731e+02  -7.666589e+02
   5.425827e+02  -7.269819e+02
   9.954242e+02   2.835569e+02
  -5.719267e+01   1.093454e+03
  -8.378786e+02   8.715861e+02
  -1.028364e+03   7.270739e+00
  -5.030228e+02  -8.495633e+02
   2.845798e+02  -9.609227e+02
   7.176946e+02  -2.291410e+02
   4.111868e+02   7.202030e+02
  -2.760669e+02   7.488319e+02
  -6.581688e+02   4.528400e+01
  -3.106282e+02  -7.225784e+02
   3.160763e+02  -6.790175e+02
   6.012044e+02  -9.533408e+01
   3.827577e+02   3.554736e+02
   4.272360e+01   5.062360e+02
  -2.530377e+02   2.715728e+02
  -2.501890e+02   1.539683e+01
   8.729132e+01  -1.011283e+02
   3.884215e+02   4.697675e+01
   2.456650e+02   4.819884e+02
  -4.719171e+02   4.306401e+02
  -8.280658e+02  -1.691642e+01
  -4.077080e+02  -6.188462e+02
   3.977925e+02  -5.151006e+02
   7.606069e+02   1.151453e+01
   3.535404e+02   4.752628e+02
  -2.639306e+02   5.699197e+02
  -5.421307e+02   2.379525e+02
  -4.162155e+02  -2.383181e+02
  -1.182118e+02  -5.081299e+02
   1.309202e+02  -3.023470e+02
   2.239183e+02   1.769283e+02
  -1.196319e+02   4.892142e+02
  -5.307135e+02  -1.670182e+01
  -2.784749e+02  -6.408005e+02
   3.357413e+02  -7.016861e+02
   6.425935e+02  -1.097867e+02
   2.645848e+02   5.492735e+02
  -2.847072e+02   3.516376e+02
  -3.947598e+02  -3.280219e+02
   8.928076e+01  -5.785714e+02
   5.306127e+02  -1.249174e+02
   6.153030e+02   4.352969e+02
   1.768600e+02   6.195869e+02
  -3.790069e+02   3.919487e+02
  -6.565309e+02  -3.195329e+01
  -3.758973e+02  -3.927687e+02
   1.445466e+02  -3.669325e+02
   4.528379e+02  -7.826061e+01
   2.477581e+02   2.181724e+02
  -1.353021e+02   1.394550e+02
  -1.736004e+02  -1.870723e+02
   1.780037e+02  -1.965954e+02
   3.440829e+02   5.056724e+01
   1.892920e+02   3.251018e+02
  -2.121418e+02   2.959624e+02
  -3.513149e+02   9.731356e+01
  -2.143779e+02  -1.001542e+02
   2.433966e+01  -2.133081e+02
   2.617905e+02  -3.288147e+02
   3.572998e+02  -1.870346e+02
   2.999453e+02   1.198275e+02
   5.556599e+01   4.341602e+02
  -8.533843e+01   3.839660e+02
  -1.461304e+02   1.018923e+02
  -8.847383e+00   7.724323e+00
  -3.384830e+01   7.902887e+01
  -1.936396e+02   1.476881e+02
  -2.778872e+02  -3.842841e+01
  -1.707362e+02  -2.348086e+02
   1.104104e+02  -2.841745e+02
   2.437527e+02  -1.362312e+01
   2.165788e+02   2.119138e+02
   2.375691e+01   3.103550e+02
  -2.541821e+02   1.496931e+02
  -3.571828e+02  -1.627175e+02
  -1.932112e+02  -3.613834e+02
   5.916287e+01  -3.759984e+02
   2.247653e+02  -1.485787e+02
   1.430207e+02   4.008389e+00
   7.587718e+01  -4.719647e+01
   2.571628e+02  -5.175280e+01
   4.214552e+02   7.450932e+01
   3.263612e+02   2.822011e+02
   1.979793e+01   4.549271e+02
  -3.321631e+02   4.549859e+02
  -4.575131e+02   2.286458e+02
  -3.418885e+02  -8.245807e+01
  -6.294857e+01  -3.305471e+02
   1.320937e+02  -2.745624e+02
   1.070386e+02  -4.210300e+01
  -9.878633e+01   1.056359e+02
  -2.306133e+02   9.216809e-01
  -4.795360e+01  -2.169215e+02
   1.674384e+02  -2.136761e+02
   1.808283e+02   7.230645e+01
   1.319425e+01   2.035104e+02
  -1.814777e+02   4.776188e+01
  -2.058609e+02  -2.074385e+02
   3.769467e+01  -3.770245e+02
   2.304713e+02  -1.990507e+02
   3.421769e+02   6.957627e+01
   2.589872e+02   2.211253e+02
   1.026248e+02   2.760422e+02
  -8.808839e+01   1.746704e+02
  -2.097346e+02   2.170847e+01
  -9.391179e+01  -1.166238e+01
   7.549902e+01   3.437968e+01
   6.080113e+01   1.145473e+02
  -1.058007e+02   9.574414e+01
  -1.888071e+02   1.011771e+01
  -8.916739e+01  -4.927703e+01
   5.888869e+01  -7.203346e+00
   4.985494e+01   6.824372e+01
  -8.823167e+01   9.487739e+01
  -2.508037e+02  -1.276368e+01
  -2.409265e+02  -1.829065e+02
  -7.100305e+01  -2.455148e+02
   1.554918e+02  -2.719471e+02
   2.884307e+02  -1.355539e+02
   1.890077e+02   5.629922e+01
  -3.342048e+01   1.139373e+02
  -9.622900e+01   6.987776e+00
   3.944657e+00  -1.113684e+02
   2.050923e+02  -6.747380e+01
   2.576175e+02   1.161397e+02
   7.143381e+01   2.143505e+02
  -1.131453e+02   1.646694e+02
  -1.434405e+02   2.387824e+01
  -1.033935e+02  -4.978722e+01
   3.071017e+00   2.414226e+00
   3.673096e+01   8.812247e+01
  -6.392102e+01   1.421953e+02
  -1.872057e+02   3.273347e+01
  -1.594292e+02  -1.047899e+02
  -4.063785e+01  -2.463197e+02
   1.549852e+02  -1.744870e+02
   2.143264e+02  -2.575812e+01
   7.685371e+01   1.030709e+02
  -5.217530e+01   1.162576e+02
  -5.994548e+01   3.283666e+01
  -3.742424e+01  -2.873381e+01
   3.264725e+01  -1.029245e+01
  -8.063449e+00  -8.679240e-01
  -8.272556e+01  -7.898928e+00
  -7.607461e+01  -8.318430e+01
  -1.415125e+01  -1.332430e+02
   1.306006e+02  -1.782191e+02
   2.393359e+02  -1.544826e+01
   2.078714e+02   1.461953e+02
   6.666056e+01   2.129731e+02
  -1.175623e+02   1.743173e+02
  -1.402471e+02   1.935517e+01
  -1.136874e+02  -8.522083e+01
  -3.712334e+01  -1.020347e+01
  -5.412008e+01   3.158544e+00
  -8.756380e+01   3.469967e+00
  -3.002740e+01  -8.607516e+01
   5.335624e+01  -1.063439e+02
   1.095108e+02  -4.154046e+01
   8.029326e+01   2.894940e+01
   4.731897e+00   1.222061e+02
  -1.283255e+02   8.214822e+01
  -1.894094e+02  -4.367386e+01
  -1.004490e+02  -2.118104e+02
   1.014171e+02  -2.472572e+02
   2.526222e+02  -1.168835e+02
   2.527370e+02   8.294593e+01
   1.567007e+02   1.964463e+02
  -4.450803e+01   1.533299e+02
  -6.473922e+01   6.691830e+01
  -7.768381e+01   6.398284e+01
  -5.106393e+01   1.185171e+02
  -8.895370e+01   5.824705e+01
  -1.228565e+02  -1.044060e+01
  -1.380775e+02  -1.155822e+02
  -4.231585e+01  -2.230922e+02
   1.110436e+02  -1.672105e+02
   1.830276e+02  -6.512965e+01
   1.544535e+02   1.006025e+02
   3.142008e+01   1.399227e+02
  -7.700665e+01   6.081915e+01
  -3.257493e+01  -4.658901e-01
   5.996172e-02  -2.282372e+01
   5.224375e+00   2.212652e+00
  -3.630994e+01  -1.962513e+01
  -9.766846e+01   7.337222e+00
  -3.561152e+01  -3.412089e+01
   8.560603e+01  -3.270891e+01
   1.356914e+02  -3.687840e+00
   1.361617e+02   9.355548e+00
   1.500459e+01   9.126190e+01
  -1.372959e+02   7.330662e+01
  -1.374223e+02   2.297776e+01
  -3.360132e+01  -6.391732e+01
   8.616731e+01  -4.733979e+01
   7.823069e+01   2.699334e+01
   2.748828e+01   4.251643e+01
  -4.003222e+01   5.703739e+01
  -5.699662e+01  -1.667565e+01
  -1.402207e+01  -6.291470e+01
  -1.579956e+01  -3.930045e+01
  -6.596162e+01   2.287171e+01
  -7.248616e+01   2.800947e+01
  -3.408637e+01  -6.820887e+01
   1.767496e+01  -1.421310e+02
   1.276531e+02  -1.588773e+02
   1.562428e+02  -3.405590e+01
   1.776296e+02   8.316012e+01
   3.282917e+01   1.078406e+02
  -1.022774e+02   5.150418e+01
  -6.094296e+01  -1.373214e+01
   7.389094e+01  -2.460517e+00
   1.333891e+02   3.080087e+01
   9.089951e+01   8.864918e+01
  -8.945357e+01   1.424894e+02
  -1.758067e+02   6.782793e+01
  -1.316663e+02  -2.277488e+01
  -2.852055e+01  -9.239059e+01
   6.373439e+01  -4.153462e+01
   2.445229e+01  -4.993636e+00
  -7.865777e+01   5.625235e+00
  -1.128629e+02  -1.423579e+01
  -2.330146e+01  -1.252523e+02
   1.003325e+02  -1.571673e+02
   1.630230e+02  -1.063332e+02
   1.475720e+02   9.348273e+01
   2.620983e+01   1.917147e+02
  -9.156819e+01   1.477331e+02
  -1.221090e+02  -2.337721e+01
  -5.345912e+01  -9.334014e+01
  -1.720138e+01  -1.014521e+02
   3.204570e+01   1.241835e+01
   5.240833e+01   2.026694e+01
   2.434507e+01  -1.292463e+01
  -9.812484e-01  -3.793052e+01
   5.032151e+00   2.543493e+01
   8.830636e+01   8.857341e+01
   4.708186e+01   1.059640e+02
  -2.129871e+01   5.590094e+01
  -1.390914e+02  -9.479312e+00
  -1.349086e+02  -7.780845e+01
  -1.416069e+01  -4.505736e+01
   9.385777e+01  -3.929339e+01
   1.002539e+02   2.540500e+01
  -9.996709e+00   1.243526e+01
  -4.362400e+01   6.306003e+01
  -1.524712e+01   2.753038e+01
   2.380189e+01   1.298277e+01
  -1.199240e+01  -1.310124e+01
  -7.722927e+01   5.909461e+00
  -6.026278e+01  -4.294738e+01
  -1.626921e+01  -1.131013e+02
   1.096215e+02  -1.198713e+02
   1.899502e+02  -7.098995e+01
   1.409298e+02   7.517748e+01
   4.646006e+01   1.374119e+02
  -6.772997e+01   1.513393e+02
  -1.070184e+02   6.184470e+01
  -7.663304e+01  -1.346604e+01
  -3.358422e+01  -3.013336e+01
  -1.605693e+01  -3.876533e+01
  -2.215555e+01  -1.498107e+00
  -5.585437e+01  -4.389557e+01
  -2.332664e+01  -8.607661e+01
   1.581567e+01  -8.558355e+01
   5.992354e+01   8.722580e+00
   7.186388e+01   1.327432e+02
   3.042596e+01   1.286547e+02
  -6.025681e+01   1.961321e+01
  -1.093327e+02  -6.862783e+01
  -5.048741e+01  -1.089580e+02
   5.181942e+01  -2.706729e+01
   8.696776e+01   2.235882e+01
   2.473984e+01   3.900021e+01
  -1.831854e+01   2.471356e+01
  -2.522352e+01   1.935636e+01
   3.416724e+01  -1.775450e+01
   8.643019e+01   9.826063e+00
  -2.287879e+00   2.723494e+01
  -7.900381e+01   7.924793e+01
  -1.137148e+02   4.737595e+01
  -7.259608e+01   1.680657e+01
   1.771559e+01  -9.783533e+01
   4.960017e+01  -9.034288e+01
   2.495228e+01  -2.333649e+01
  -8.529544e+00   5.940031e+01
  -1.743818e+01   5.396561e+01
  -1.018834e+01  -3.623388e+01
  -3.917739e+01  -4.576156e+01
  -1.072993e+01  -4.356741e+01
   1.636229e+01   3.851953e+00
   5.248207e+01   2.794262e+01
   1.753781e+01  -1.721708e+01
  -1.874848e+01   2.124063e+01
  -2.328291e+01   1.061431e+01
  -1.739493e+01   4.422919e+01
  -1.810460e+01   4.783466e+01
  -4.237622e+01  -3.296525e+00
  -4.961978e+01  -5.997498e+01
  -9.727558e+00  -5.211673e+01
   1.905061e+01  -1.087017e+01
   5.236529e+01   5.184372e+01
   1.906362e+01   7.611850e+01
  -3.911475e+01   6.055940e+01
  -1.052975e+02   9.720397e+00
  -3.913797e+01  -2.849747e+01
   4.326905e+01  -5.873312e+01
   6.031774e+01  -5.194841e+00
   3.230730e+01  -2.832492e+01
  -1.723617e+01  -7.449732e+00
  -5.725421e+01  -2.692799e+01
   5.056344e+01  -6.125124e+01
   1.145319e+02   5.657625e+00
