
 $NMID
 id='ANONYMOUS ', fmtdat='(2E16.6)'
 volume=1.0
 tramp=1.0
 $END
  -3.490269e+03  -9.337128e+00
  -2.269532e+03  -2.106633e+03
   2.335124e+02  -2.379249e+03
   1.550075e+03  -1.056529e+03
   9.474863e+02   1.766171e+02
  -2.097887e+02   3.771719e+02
  -6.155027e+02  -2.037324e+02
  -1.275144e+02  -8.591943e+02
   5.091452e+02  -6.357711e+02
   6.930439e+02   2.096670e+01
   3.721427e+02   6.281873e+02
  -5.574608e+01   7.135291e+02
  -4.138034e+02   6.326575e+01
  -3.832605e+02  -4.380721e+02
   1.323533e+02  -6.727751e+02
   4.092343e+02  -6.796285e+01
   2.634087e+02   5.105611e+02
  -2.665142e+02   6.582878e+02
  -4.782345e+02   2.287605e+02
  -4.022600e+02  -2.361237e+02
  -6.144899e+01  -3.584521e+02
   1.435836e+02  -2.744480e+02
   1.163565e+02  -4.883767e+01
  -1.521928e+02  -7.004809e+00
  -2.965278e+02  -1.737823e+02
  -1.258265e+02  -4.439478e+02
   4.041674e+02  -2.688199e+02
   6.112945e+02   1.456034e+02
   3.290976e+02   3.725019e+02
  -3.712108e+02   3.605796e+02
  -5.608681e+02  -1.056661e+02
  -2.774093e+02  -3.718869e+02
   2.324527e+02  -4.153774e+02
   4.764126e+02  -1.768720e+02
   3.882396e+02   1.842552e+02
   2.263307e+01   3.699047e+02
  -1.129256e+02   2.382569e+02
  -5.033721e+01  -1.249913e+02
   1.627841e+02  -2.639330e+02
   3.357138e+02   6.072102e+01
   8.138371e+01   5.160747e+02
  -2.202475e+02   5.218124e+02
  -4.619190e+02  -5.439648e+00
  -2.322107e+02  -3.466906e+02
   1.878731e+02  -2.481586e+02
   2.530617e+02   2.864752e+02
  -6.438467e+01   4.508658e+02
  -4.914276e+02   1.451115e+02
  -5.027241e+02  -4.110568e+02
  -1.518108e+02  -5.191257e+02
   3.452169e+02  -2.809690e+02
   5.807588e+02   5.845770e+01
   3.646191e+02   2.984782e+02
  -5.898165e+01   2.580486e+02
  -3.638730e+02   9.697376e+01
  -2.464623e+02  -1.208948e+02
   6.089786e+01  -3.847349e+01
   1.128126e+02   5.947890e+01
  -1.005666e+02   7.307610e+01
  -2.441004e+02  -4.897916e+01
  -1.548725e+02  -2.345166e+02
   1.628090e+02  -2.416673e+02
   3.448727e+02  -9.803961e+01
   2.024054e+02   1.015313e+02
  -2.161850e+01   2.848884e+02
  -2.156700e+02   3.594706e+02
  -3.186734e+02   1.977218e+02
  -2.532045e+02  -1.465405e+02
  -7.775551e+01  -3.814895e+02
   7.084494e+01  -3.616568e+02
   7.752748e+01  -1.147806e+02
   3.809558e+01  -3.597889e+01
   6.008350e+01  -1.100421e+02
   2.198858e+02  -8.533848e+01
   2.556226e+02   9.991734e+01
   9.552998e+01   2.687694e+02
  -4.945953e+01   2.226898e+02
  -2.271074e+02   4.981754e+00
  -1.557447e+02  -2.375603e+02
   1.677664e+01  -2.506634e+02
   2.312379e+02  -5.999908e+01
   3.299617e+02   1.486249e+02
   1.490669e+02   3.119143e+02
  -1.010600e+02   2.721694e+02
  -2.179125e+02   1.365487e+02
  -1.201388e+02   3.382569e+01
  -1.269265e+02   5.456519e+01
  -2.167270e+02   4.845787e+01
  -3.814185e+02  -7.436260e+01
  -3.375365e+02  -2.584812e+02
  -1.570605e+01  -4.076770e+02
   3.920516e+02  -3.479778e+02
   4.976645e+02  -1.790410e+02
   2.823313e+02   9.486400e+01
   4.290845e+01   2.575175e+02
  -1.240090e+02   2.109356e+02
  -5.828756e+01   5.116531e+01
   8.395600e+01  -9.461021e+01
   1.449430e+02  -2.977823e+00
   3.649703e+01   1.555589e+02
  -1.386221e+02   1.320278e+02
  -1.570995e+02  -6.768479e+01
   4.427883e+01  -1.436613e+02
   1.578171e+02  -1.542476e+01
   1.390952e+02   2.187122e+02
  -8.973721e+00   3.118794e+02
  -2.290174e+02   1.430353e+02
  -3.066960e+02  -6.129979e+01
  -2.518399e+02  -2.648829e+02
  -7.206438e+01  -2.679612e+02
   1.535140e+02  -1.126813e+02
   1.674697e+02  -2.627166e+01
   2.604665e+01   1.371734e+01
  -8.396244e+01  -2.537320e+01
  -2.070622e+01  -1.044041e+02
   1.323311e+02  -5.707266e+01
   1.853826e+02   1.457949e+01
   1.595930e+01   4.118676e+01
  -9.503159e+01   1.501845e+01
  -4.303509e+01  -7.631339e+01
   1.335167e+02  -6.863000e+01
   2.495947e+02   2.206570e+00
   2.392282e+02   1.142541e+02
   2.505385e+01   2.550268e+02
  -1.911409e+02   2.215552e+02
  -2.459184e+02   8.902338e+01
  -1.272964e+02  -3.315727e+01
   1.708222e+01  -1.038194e+02
   8.400019e+01  -7.624071e+00
  -1.326339e+01   1.063045e+02
  -1.975794e+02   5.035729e+01
  -2.155648e+02  -1.006856e+02
  -3.782000e+01  -1.787502e+02
   7.369862e+01  -1.600355e+02
   1.146116e+02  -1.217111e+01
   5.548636e+01   3.619511e+01
  -2.574225e+01  -1.398700e+01
  -3.973197e+01  -6.301306e+01
   7.508208e+01  -1.191364e+02
   2.066268e+02  -4.057386e+01
   1.932179e+02   1.307344e+02
   2.528933e+01   1.957125e+02
  -1.527030e+02   1.324311e+02
  -1.707686e+02   5.665595e+00
  -7.704889e+01  -1.126891e+02
   6.792105e+01  -1.110621e+02
   8.214766e+01  -5.284182e+01
   3.717646e+00   3.081936e+01
  -4.856311e+01   1.569767e+00
  -1.114890e+01  -1.089876e+01
   6.276818e+01   1.512012e+01
   1.069318e+02   9.069072e+01
   1.349555e+01   1.572016e+02
  -1.369123e+02   1.380204e+02
  -2.279355e+02  -8.673167e+00
  -1.848758e+02  -1.559744e+02
  -3.019287e+01  -2.097795e+02
   8.728811e+01  -1.603314e+02
   1.413250e+02  -2.775473e+01
   7.204543e+01   4.902070e+01
   1.344694e+01   2.643746e+01
   5.634113e+01  -1.100743e+01
   9.442670e+01   1.105535e+01
   5.348917e+01   6.022088e+01
  -5.805625e+01   8.185789e+01
  -1.235093e+02   7.869870e+01
  -7.036123e+01  -3.995801e+01
   3.108901e+01  -1.004825e+02
   1.375358e+02  -9.050653e+01
   1.990579e+02   8.314116e+01
   9.493498e+01   2.284088e+02
  -1.088108e+02   1.945043e+02
  -2.847776e+02   1.039978e+02
  -2.467373e+02  -8.356695e+01
  -1.112371e+02  -1.635081e+02
   4.574495e+01  -1.149050e+02
   6.209173e+01  -7.893850e+01
   6.249937e+01  -7.377784e+01
   6.551117e+01  -1.038751e+02
   5.099458e+01  -6.484132e+01
   1.280076e+02   3.303064e+01
   1.123967e+02   1.431178e+02
   2.473741e+01   2.182192e+02
  -8.646479e+01   1.523804e+02
  -1.482336e+02   4.255020e+01
  -1.137906e+02  -1.079969e+02
  -9.564238e-02  -1.450241e+02
   8.965864e+01  -7.273620e+01
   3.946812e+01  -3.655135e-01
  -7.034619e+00   4.722473e+01
  -8.431250e+00   2.865060e+01
   3.088665e+01  -7.432728e-01
   9.375252e+01   2.611935e+01
   3.760216e+01   3.794928e+01
  -8.420251e+01   4.298240e+01
  -1.604863e+02   3.502733e+00
  -1.299430e+02  -5.249156e+01
  -1.647754e+01  -1.138072e+02
   1.232150e+02  -7.427183e+01
   1.205682e+02  -7.789901e+00
   4.308072e+01   5.050818e+01
  -6.713494e+01   3.142317e+01
  -2.441204e+01   3.809568e+00
  -1.681464e+01  -4.820623e+01
   5.685247e+01  -6.322769e+01
   6.593346e+01  -7.812524e+00
   6.024038e+01   2.545118e+01
   3.910689e+01   6.059688e+01
   4.928138e+01   2.616014e+01
   5.844928e+01   9.415968e+00
   4.237596e+01   6.396365e+01
   7.098906e-01   1.403639e+02
  -1.397610e+02   1.534942e+02
  -1.759534e+02   4.409700e+01
  -1.107112e+02  -1.013956e+02
   3.101555e+01  -1.098350e+02
   7.064241e+01  -5.356160e+01
   3.256072e+01   2.626878e+01
  -5.614081e+01   3.687294e+01
  -1.426365e+02  -5.186325e+01
  -6.160786e+01  -1.025825e+02
   9.202246e+01  -9.123816e+01
   1.807778e+02  -7.243434e+01
   1.323238e+02  -9.896671e+00
   3.586100e+01   7.722440e+01
  -5.851570e+01   7.460050e+01
  -2.663131e+01   2.858189e-01
   4.414967e+01  -1.039293e+01
   8.366484e+01   2.385110e+01
   4.253617e+01   1.110626e+02
  -7.395237e+01   1.520668e+02
  -1.444505e+02   4.755553e+01
  -1.367731e+02  -9.945304e+01
  -2.006104e+01  -1.891630e+02
   1.054113e+02  -1.233081e+02
   1.007039e+02   4.837430e+00
   5.313477e+01   1.086671e+02
  -1.910618e+01   8.271134e+01
  -4.125829e+01   2.580832e+01
  -3.537343e+01  -5.552913e+01
  -2.024726e+01  -3.692130e+01
   1.413881e+01   8.427665e+00
  -3.127190e+01  -7.484645e+00
  -3.237027e+01  -6.773584e+01
  -3.362064e+01  -1.005413e+02
   6.126176e+01  -3.930728e+01
   1.177267e+02   7.878592e+00
   1.399094e+02   5.709525e+01
   3.508861e+01   4.599479e+01
  -8.583019e+01   1.483867e+01
  -6.341344e+01   3.950532e+01
  -2.875100e+01   4.434142e+01
   4.863027e+01  -5.062633e+01
   1.831392e+01  -2.905170e+01
   2.146889e+01  -3.322071e+00
   9.606741e+00  -5.292167e+00
   5.099767e+01   5.284610e+00
   7.285379e+01   1.996946e+01
   6.525363e+00   7.659274e+01
  -1.309873e+02   1.513558e+02
  -1.671232e+02   8.190201e+01
  -1.456387e+02  -6.481259e+01
  -3.606527e+01  -1.371275e+02
   6.492518e+01  -1.195837e+02
   1.228538e+02  -2.531341e+01
   7.830685e+01   3.908659e+01
   3.413490e+01   1.122042e+01
   1.403309e+01   2.269768e+01
   4.596146e+01   2.597043e+00
   4.739767e+01   7.051868e+01
   2.449761e+00   7.037096e+01
  -4.086193e+01   6.941161e+01
  -6.968166e+01  -1.695696e+01
  -7.095840e+01  -1.017478e+02
  -1.777090e+01  -9.356195e+01
   7.603124e+01  -2.581123e+01
   9.551956e+01   2.586010e+01
   3.405985e+01   1.133435e+02
  -7.096131e+01   4.836612e+01
  -9.265586e+01  -4.883073e+00
  -7.166710e+01  -4.339172e+01
   4.241739e+01  -4.762097e+01
   2.693981e+01  -2.927641e+01
  -1.874729e+01  -1.467559e+00
  -5.670300e+01  -2.652710e+00
   6.158697e+00  -3.156414e+01
   7.680437e+01  -2.888660e+01
   1.096054e+02  -6.260986e+01
   5.895198e+01   1.745116e+01
  -1.425807e+01   1.068812e+02
  -7.131838e+01   7.824791e+01
  -5.913561e+01   1.793974e+01
   1.755348e+01  -5.271497e+01
  -1.180340e-01  -3.660810e+01
   2.821362e+01   9.646616e+00
   3.835389e+01   6.401009e+01
   1.347142e+01   3.134645e+01
  -1.279405e+01  -2.109275e+01
  -5.151455e+01   3.014651e+00
  -3.423904e+01   3.094097e+00
   2.230114e+01   1.997166e+01
  -7.276268e+00   2.218239e+01
   1.440764e+01  -4.912396e+01
   7.983274e+00  -3.951564e+01
   2.522196e+01  -2.103330e+01
   4.676410e+01   2.854788e+01
   1.186951e+00   5.321034e+01
  -3.338970e+01   2.833836e+00
  -7.410215e+01  -5.496752e+01
  -1.912302e+01  -5.297560e+01
   5.429263e+01  -6.950973e+01
   7.156954e+01   1.465716e+01
   7.194874e+01   3.847049e+01
  -4.896229e+01   3.957078e+01
  -6.079961e+01   2.442435e+01
  -4.236366e+01   1.804594e+00
   2.597529e+01   4.463744e+00
   4.685770e+01   4.061849e+00
  -3.845861e+01   1.675219e+01
  -8.779869e+01  -3.017234e+00
