
 $NMID
 id='ANONYMOUS ', fmtdat='(2E16.6)'
 volume=1.0
 tramp=1.0
 $END
   3.495105e+03   8.286442e+00
   2.353305e+03   2.162304e+03
  -2.445828e+02   2.346211e+03
  -1.446874e+03   1.096927e+03
  -9.408702e+02  -2.808551e+02
   1.342314e+02  -3.635240e+02
   5.581418e+02   2.482904e+02
   1.153520e+02   8.918148e+02
  -5.251870e+02   6.136492e+02
  -7.481127e+02  -7.857102e+01
  -3.982808e+02  -6.232361e+02
   8.094384e+01  -7.233993e+02
   4.286531e+02  -2.371068e+02
   3.176412e+02   5.744206e+02
  -1.789372e+02   6.686050e+02
  -4.293828e+02   3.087012e+01
  -3.032661e+02  -5.095412e+02
   2.342918e+02  -6.246373e+02
   5.268368e+02  -2.124794e+02
   4.541940e+02   2.624835e+02
   1.328447e+02   3.627340e+02
  -1.876672e+02   2.706543e+02
  -9.865121e+01   8.075926e+01
   1.300455e+02   7.970649e+01
   2.682346e+02   1.785409e+02
   7.854028e+01   3.599023e+02
  -4.098665e+02   2.824871e+02
  -6.389597e+02  -1.498086e+02
  -3.507824e+02  -4.656051e+02
   2.867887e+02  -3.123126e+02
   5.524923e+02   6.203485e+01
   3.129215e+02   4.134921e+02
  -2.699746e+02   4.392466e+02
  -4.956018e+02   1.511038e+02
  -3.795424e+02  -2.003651e+02
  -7.726816e+01  -3.485516e+02
   1.310714e+02  -1.743257e+02
   5.958967e+01   1.105516e+02
  -1.799124e+02   1.971370e+02
  -3.368062e+02  -1.005278e+02
  -1.038914e+02  -5.400341e+02
   2.332542e+02  -5.413066e+02
   4.523125e+02  -6.283969e+01
   1.972762e+02   4.076929e+02
  -2.217460e+02   2.293014e+02
  -2.424114e+02  -3.128795e+02
   9.545611e+01  -4.728796e+02
   5.147367e+02  -8.979135e+01
   5.169689e+02   3.916166e+02
   1.270524e+02   5.279237e+02
  -3.553136e+02   3.068407e+02
  -5.790688e+02  -8.353875e+01
  -3.040824e+02  -2.962889e+02
   8.519722e+01  -2.993034e+02
   3.830232e+02  -8.706879e+01
   2.051227e+02   1.194003e+02
  -4.012824e+01   5.081933e+01
  -1.031268e+02  -9.305706e+01
   1.133968e+02  -1.252938e+02
   2.331669e+02   6.685035e+01
   1.403382e+02   2.442885e+02
  -1.689560e+02   2.358788e+02
  -3.205919e+02   1.039581e+02
  -2.239938e+02  -9.235887e+01
   5.391084e+01  -2.641891e+02
   2.604535e+02  -3.685078e+02
   3.280083e+02  -1.962638e+02
   2.516482e+02   1.472643e+02
   6.448053e+01   4.094697e+02
  -7.044694e+01   3.540192e+02
  -2.935916e+01   1.193511e+02
  -3.840616e+01   4.475078e+01
  -8.101803e+01   9.935076e+01
  -2.086601e+02   5.698842e+01
  -2.632095e+02  -1.301546e+02
  -9.489778e+01  -2.563667e+02
   5.300597e+01  -2.584585e+02
   2.156838e+02   1.894824e+01
   1.279934e+02   2.517401e+02
  -2.586380e+01   2.581125e+02
  -2.267337e+02   7.509127e+01
  -3.162035e+02  -1.806263e+02
  -1.703430e+02  -3.153528e+02
   7.525825e+01  -2.559746e+02
   2.069502e+02  -1.202393e+02
   1.716710e+02  -5.520608e+01
   1.388380e+02  -4.626666e+01
   2.333687e+02  -6.038334e+01
   3.859922e+02   1.119277e+02
   3.126670e+02   3.018096e+02
  -5.104707e+01   4.276438e+02
  -3.822269e+02   3.762082e+02
  -4.650302e+02   1.357822e+02
  -3.064971e+02  -7.983026e+01
  -2.289035e+01  -2.716535e+02
   8.945318e+01  -2.020051e+02
   3.327213e+01  -2.183961e+01
  -1.087109e+02   8.491996e+01
  -1.570372e+02   1.076722e+01
  -3.467419e+01  -1.885263e+02
   1.150287e+02  -1.383305e+02
   1.314786e+02   5.310961e+01
  -3.214173e+01   1.643122e+02
  -1.526700e+02   1.028107e+01
  -1.612187e+02  -2.256246e+02
   3.473461e+01  -3.384202e+02
   2.109851e+02  -1.712721e+02
   3.491380e+02   4.172790e+01
   2.530620e+02   2.461828e+02
   7.260692e+01   2.765762e+02
  -1.475275e+02   1.233187e+02
  -1.528904e+02   5.265142e+00
  -3.292358e+01  -2.717409e+01
   5.471151e+01   5.681253e+01
   2.322995e+01   8.305911e+01
  -1.557055e+02   5.960041e+01
  -1.742610e+02  -3.307866e+01
  -2.208201e+01  -4.364116e+01
   7.835755e+01   8.000767e-01
   6.277422e+01   8.808696e+01
  -1.186122e+02   8.260393e+01
  -2.598974e+02  -4.186175e+01
  -2.285532e+02  -1.594533e+02
  -9.751832e+00  -2.410846e+02
   2.314005e+02  -2.578372e+02
   2.584608e+02  -8.238488e+01
   1.324093e+02   5.481017e+01
  -1.701051e+01   8.864517e+01
  -4.967346e+01  -8.846228e+00
   3.235483e+01  -1.215655e+02
   1.955445e+02  -5.027860e+01
   2.057321e+02   9.555498e+01
   5.093442e+01   1.893838e+02
  -8.305368e+01   1.704999e+02
  -1.325898e+02   6.942663e+00
  -5.657113e+01  -5.984111e+01
   2.719934e+01   6.888447e+00
   2.758894e+01   1.093652e+02
  -7.685032e+01   1.242552e+02
  -2.036988e+02  -8.356985e-01
  -2.110101e+02  -1.217200e+02
  -2.324084e+01  -2.021228e+02
   1.496137e+02  -1.513283e+02
   1.888037e+02  -1.601649e+01
   8.513985e+01   1.074325e+02
  -5.734044e+01   9.915590e+01
  -6.736481e+01   2.301012e+01
  -1.150203e+01  -2.915267e+01
   5.277067e+01   8.001324e+00
  -3.746991e+01   8.524421e+00
  -8.732998e+01  -5.722681e+00
  -9.897930e+01  -8.141324e+01
  -1.963676e+01  -1.979575e+02
   1.328438e+02  -1.477634e+02
   2.338431e+02   1.683524e+01
   1.951362e+02   1.581747e+02
   2.259240e+01   2.378450e+02
  -1.023310e+02   1.469318e+02
  -1.639948e+02   4.022873e+01
  -4.876856e+01  -5.511543e+01
  -2.383652e+01  -4.259114e+01
  -5.290259e+01   3.091471e+01
  -8.987961e+01   1.371118e+01
  -5.204914e+01  -5.298454e+01
   5.139612e+01  -1.082935e+02
   1.336570e+02  -5.487478e+01
   6.859192e+01   6.397300e+01
  -4.054939e+01   1.128488e+02
  -1.336106e+02   9.034457e+01
  -2.001642e+02  -6.423621e+01
  -5.004153e+01  -1.924000e+02
   1.271242e+02  -2.229033e+02
   2.816713e+02  -9.357744e+01
   2.752837e+02   1.121491e+02
   8.625832e+01   1.630224e+02
  -7.360680e+01   1.373595e+02
  -8.838401e+01   7.343406e+01
  -6.187723e+01   4.147774e+01
  -6.128505e+01   9.604640e+01
  -8.544771e+01   5.789115e+01
  -1.283611e+02  -2.402611e+01
  -1.193699e+02  -1.331503e+02
  -2.022378e+01  -1.986001e+02
   9.428977e+01  -1.621470e+02
   1.746901e+02  -1.922431e+00
   9.778490e+01   1.107822e+02
  -1.385921e+01   1.380601e+02
  -9.135951e+01   9.911029e+01
  -5.768815e+01  -2.360214e+01
  -1.024972e+01  -4.018924e+01
   8.978647e+00  -4.354776e+01
  -2.800641e+01  -1.804128e+01
  -1.424852e+02  -1.713548e+01
  -4.692462e+01  -3.375827e+01
   5.407985e+01  -1.945628e+01
   1.997061e+02   1.477823e+00
   1.150482e+02   6.754053e+01
   4.461380e-01   9.045721e+01
  -1.202298e+02   6.803670e+01
  -1.485720e+02   1.887848e+01
  -3.459796e+01  -6.252966e+01
   4.553903e+01  -4.311761e+01
   5.747740e+01   2.523241e+01
  -9.176471e+00   6.409277e+01
  -4.450081e+01   5.754159e+01
  -6.786068e+01   1.158123e+01
  -6.051829e+01  -7.397309e+01
  -5.026506e+01  -7.026826e+01
  -5.782935e+01  -1.868036e+01
  -5.990456e+01  -2.311976e+01
  -4.649469e+01  -5.393696e+01
  -7.386783e+00  -1.556830e+02
   9.899881e+01  -1.655180e+02
   1.776662e+02  -2.442144e+01
   1.445694e+02   7.481299e+01
   1.165760e+01   1.067296e+02
  -9.659998e+01   5.480028e+01
  -4.082700e+01  -2.452938e+01
   7.005416e+01  -3.182792e+01
   1.350954e+02   3.036451e+01
   4.365338e+01   7.675211e+01
  -7.270912e+01   1.148136e+02
  -2.181216e+02   5.171306e+01
  -1.392628e+02  -1.365421e+01
  -2.292114e+01  -9.751539e+01
   5.711943e+01  -5.970900e+01
   2.981704e+01  -1.508525e+01
  -3.958394e+01  -1.319610e+01
  -8.772639e+01  -3.311006e+01
  -2.776102e+01  -1.252827e+02
   8.428268e+01  -1.460279e+02
   1.624883e+02  -7.055730e+01
   1.139604e+02   1.071883e+02
   2.189497e+01   2.069650e+02
  -1.010752e+02   1.540457e+02
  -9.865316e+01  -2.012191e+01
  -7.049207e+01  -1.201349e+02
   2.316350e+01  -7.664999e+01
   5.027243e+01  -3.168327e+01
   6.475019e+01   5.108645e+01
   7.469567e+00   2.931898e+01
  -1.037422e+01  -1.368808e+01
   2.165204e+01   2.453995e+01
   3.790108e+01   8.347612e+01
   3.918638e+01   1.158757e+02
  -5.219832e+01   4.148241e+01
  -1.146188e+02  -3.354755e+01
  -1.289302e+02  -6.358326e+01
  -2.370733e+01  -7.823570e+01
   7.828882e+01   2.376923e+00
   7.524809e+01  -3.539023e+01
   1.055599e+01  -6.663118e+00
  -2.003002e+01   4.415128e+01
  -4.474675e+00   2.039050e+01
  -2.899591e-01   2.060431e+01
  -1.072908e+01  -2.832456e+01
  -5.830669e+01  -1.952641e+01
  -7.896490e+01  -1.886341e+01
  -1.622889e+01  -7.984347e+01
   1.257553e+02  -1.348859e+02
   1.892095e+02  -5.591895e+01
   1.749906e+02   5.652286e+01
   4.137997e+01   1.645237e+02
  -8.242352e+01   1.447766e+02
  -1.003106e+02   3.642299e+01
  -8.143113e+01  -3.619021e+01
  -8.281836e+00  -2.415598e+01
  -4.645831e+00   2.842697e+00
  -1.159216e+01   6.909683e+00
  -4.022547e+01  -4.610009e+01
  -1.226033e+01  -7.187319e+01
   3.234578e+01  -6.066564e+01
   9.125322e+01   3.786570e+01
   6.360542e+01   9.931169e+01
   4.302023e+01   1.172735e+02
  -9.264306e+01   4.379175e+01
  -1.118091e+02  -5.947574e+01
  -5.508228e+01  -8.348786e+01
   7.338178e+01  -9.238935e+01
   6.666807e+01   1.696478e+01
   4.132848e+01   6.955430e+01
  -4.505064e+01   6.688308e+01
  -3.493200e+01   4.859648e+01
   2.877774e+01  -4.469567e+00
   7.678708e+01   6.322994e+00
  -9.189077e+00   1.559745e+01
  -9.383925e+01   7.394571e+01
  -1.249891e+02   5.395780e+01
  -7.623458e+01  -3.110121e+01
   1.399845e+01  -1.047124e+02
   3.883720e+01  -9.579383e+01
   4.660682e+01  -2.308512e+01
  -6.339635e+00   6.600546e+01
  -2.865298e+00   2.994570e+01
  -6.430238e+00  -1.595792e+01
  -4.644944e+01  -4.180958e+01
  -1.305310e+01  -4.885919e+01
   2.940635e+01   8.206851e+00
   5.725239e+01   1.012391e+01
   2.356268e+01   2.452031e+01
  -1.555283e+01  -3.894469e+01
   5.454224e+00  -2.180832e+01
   5.794113e+00   4.220754e+01
  -2.215988e+01   4.241370e+01
  -2.753845e+01   2.529085e+01
  -3.925344e+01  -2.363598e+01
  -9.532565e+00  -5.844583e+01
   5.358023e+01  -5.347255e+01
   4.360852e+01   3.940466e+01
   4.245106e+01   5.454539e+01
  -6.740318e+01   5.004185e+01
  -7.430813e+01  -2.156771e+01
  -3.795898e+01  -6.245954e+01
   4.268370e+01  -3.321340e+01
   5.505466e+01  -1.236949e+00
   1.814326e+01  -2.928483e+01
  -3.989878e+01   2.681362e+01
  -4.387450e+01  -1.600470e+01
   3.641411e+01  -3.595868e+01
   8.557314e+01  -2.704744e+01
