
 $NMID
 id='ANONYMOUS ', fmtdat='(2E16.6)'
 volume=1.0
 tramp=1.0
 $END
  -3.874843e+03  -9.100648e+01
  -2.286881e+03  -2.086954e+03
   3.584799e+02  -2.434296e+03
   1.556319e+03  -1.037669e+03
   8.872070e+02   4.963446e+01
  -2.678713e+02   4.245909e+02
  -7.138516e+02  -4.137869e+02
  -7.584418e+01  -8.688829e+02
   6.458357e+02  -6.081568e+02
   7.732433e+02  -4.745864e+01
   4.700302e+02   6.394246e+02
  -5.366987e+01   7.601160e+02
  -4.331908e+02   2.018169e+02
  -3.315345e+02  -6.132217e+02
   1.934245e+02  -5.990243e+02
   5.101930e+02   2.409413e+01
   2.857497e+02   5.825522e+02
  -2.131839e+02   6.175871e+02
  -4.979102e+02   2.061239e+02
  -4.322454e+02  -3.011611e+02
  -1.451120e+02  -3.700561e+02
   2.236946e+02  -2.417802e+02
   7.421289e+01  -1.115251e+02
  -1.174734e+02  -8.425420e+01
  -2.920415e+02  -2.185027e+02
  -3.009421e+01  -3.674601e+02
   5.139476e+02  -2.997503e+02
   7.972001e+02   1.373034e+02
   3.118911e+02   4.991884e+02
  -3.464153e+02   2.758822e+02
  -6.376018e+02  -7.525525e+01
  -2.219914e+02  -4.413259e+02
   2.542439e+02  -4.029377e+02
   4.695847e+02  -9.909670e+01
   3.724435e+02   2.065950e+02
   7.186888e+01   4.092020e+02
  -1.433470e+02   1.915022e+02
  -7.549341e+01  -1.474062e+02
   1.615978e+02  -2.619394e+02
   3.020320e+02   1.544612e+02
   1.557816e+02   5.803707e+02
  -2.707013e+02   5.454052e+02
  -4.676806e+02   3.268239e+01
  -1.874438e+02  -4.177087e+02
   2.342637e+02  -2.077081e+02
   2.200893e+02   2.918039e+02
  -1.011751e+02   4.823737e+02
  -5.251943e+02   6.954361e+01
  -5.006026e+02  -3.897506e+02
  -1.585483e+02  -4.902205e+02
   3.723753e+02  -3.033450e+02
   5.389350e+02   8.568568e+01
   3.280888e+02   3.276186e+02
  -1.163149e+02   3.428165e+02
  -3.901204e+02   5.611714e+01
  -1.944280e+02  -9.426046e+01
   4.468115e+01  -6.956937e+01
   8.518180e+01   1.080389e+02
  -1.484052e+02   1.149314e+02
  -2.672318e+02  -4.148010e+01
  -9.689862e+01  -2.316057e+02
   1.800488e+02  -2.396164e+02
   3.649376e+02  -1.205305e+02
   2.484911e+02   8.861482e+01
  -4.981565e+01   2.625483e+02
  -2.972138e+02   3.504328e+02
  -3.429873e+02   2.057823e+02
  -2.451213e+02  -1.298525e+02
  -5.365577e+01  -4.117252e+02
   9.157861e+01  -3.693280e+02
   7.100637e+01  -1.274381e+02
   4.465422e+01  -6.134449e+01
   7.850989e+01  -1.027305e+02
   2.070874e+02  -7.902135e+01
   2.807916e+02   1.143479e+02
   9.587863e+01   2.556642e+02
  -8.599853e+01   2.043325e+02
  -2.223297e+02  -3.773851e+01
  -1.329543e+02  -2.540638e+02
   5.498630e+01  -2.922181e+02
   2.575298e+02  -7.868147e+01
   3.058037e+02   1.708288e+02
   1.896411e+02   3.112935e+02
  -6.821925e+01   2.771242e+02
  -1.943760e+02   1.474289e+02
  -1.769233e+02   4.663688e+01
  -1.604600e+02   2.172995e+01
  -2.267432e+02   4.449470e+01
  -3.424362e+02  -1.163585e+02
  -2.906892e+02  -3.128846e+02
   1.898250e+01  -4.017233e+02
   4.051169e+02  -3.842626e+02
   4.794261e+02  -1.932530e+02
   3.091369e+02   9.543614e+01
   2.846598e+01   2.958294e+02
  -8.008031e+01   2.075744e+02
  -3.542976e+01   4.325880e+01
   1.242393e+02  -8.265420e+01
   1.531833e+02   1.785159e+01
   4.276587e+01   1.479234e+02
  -1.352772e+02   1.360705e+02
  -1.410641e+02  -5.477500e+01
   3.273814e+01  -1.690046e+02
   1.431474e+02  -2.213710e+01
   1.491190e+02   2.007902e+02
  -3.293632e+01   3.627865e+02
  -2.318992e+02   1.822457e+02
  -3.227792e+02  -4.988021e+01
  -2.772435e+02  -2.643054e+02
  -7.116015e+01  -2.878619e+02
   1.325041e+02  -1.415876e+02
   1.671471e+02   4.651094e+00
   3.294349e+01   2.945830e+01
  -7.816211e+01  -3.439304e+01
  -1.827899e+01  -1.179703e+02
   1.360447e+02  -7.748736e+01
   2.051341e+02   1.498889e+01
   1.777340e+01   6.084133e+01
  -8.442312e+01   2.681748e+01
  -4.971570e+01  -9.296884e+01
   1.404105e+02  -6.394953e+01
   2.869728e+02   2.175662e+01
   2.671837e+02   1.494868e+02
   3.469265e+01   2.899597e+02
  -2.446430e+02   2.765269e+02
  -2.520307e+02   1.147728e+02
  -1.380488e+02  -2.917280e+01
   3.300318e+01  -8.940290e+01
   5.858496e+01   2.214700e+01
  -5.500142e+01   1.098887e+02
  -1.924021e+02   7.255533e+01
  -1.894759e+02  -1.139304e+02
  -3.692097e+01  -1.959346e+02
   8.704203e+01  -1.517873e+02
   1.341987e+02  -3.341367e+01
   6.449163e+01   2.990100e+01
  -1.571921e+01  -1.013377e+01
  -2.830291e+01  -8.832532e+01
   8.350274e+01  -1.045162e+02
   2.085092e+02  -1.533424e+01
   1.671548e+02   1.262730e+02
   1.247093e+01   2.102785e+02
  -1.928326e+02   1.627032e+02
  -1.651021e+02   4.660714e-01
  -6.532448e+01  -1.368671e+02
   4.480257e+01  -1.286096e+02
   7.092181e+01  -2.758587e+00
  -2.625329e+01   2.620779e+01
  -2.659789e+01   1.376152e+01
  -9.948113e+00  -1.561512e+01
   7.367476e+01   9.261034e+00
   7.738931e+01   1.102139e+02
   1.189137e+01   1.817979e+02
  -1.437604e+02   1.678007e+02
  -2.396165e+02   1.493831e+01
  -2.017816e+02  -1.878496e+02
  -4.420337e+01  -2.495173e+02
   8.960970e+01  -1.609723e+02
   1.358289e+02  -2.668170e+01
   5.685657e+01   6.868964e+01
   5.031073e+01   5.444614e+01
   7.226972e+01  -2.623285e+01
   6.908690e+01  -9.638921e+00
   5.409760e+01   3.474172e+01
  -1.711125e+01   8.754670e+01
  -1.306708e+02   5.597104e+01
  -1.067877e+02  -2.918128e+01
   1.075784e+01  -1.263946e+02
   1.476367e+02  -8.955842e+01
   2.078443e+02   6.455584e+01
   8.397713e+01   2.029531e+02
  -1.027969e+02   2.359024e+02
  -2.875883e+02   1.030818e+02
  -2.745223e+02  -1.111030e+02
  -1.117965e+02  -1.872764e+02
   6.400655e+01  -1.490407e+02
   7.872616e+01  -7.713165e+01
   9.724130e+01  -8.671747e+01
   7.492067e+01  -8.728333e+01
   9.535931e+01  -6.699138e+01
   1.325468e+02   4.416138e+00
   1.250694e+02   1.371672e+02
   2.561711e+01   2.242373e+02
  -9.676643e+01   1.668349e+02
  -1.835427e+02   2.594433e+01
  -1.220049e+02  -1.190506e+02
   1.712044e+01  -1.365980e+02
   6.902399e+01  -1.151651e+02
   6.826266e+01   1.176807e+01
   1.035384e+01   4.450782e+01
  -5.216068e+00   4.447432e+01
   3.102693e+01   2.816737e+01
   6.552102e+01   1.808758e+01
   4.638627e+01   5.021401e+01
  -1.056587e+02   4.358338e+01
  -1.836969e+02  -6.830033e+00
  -1.377834e+02  -7.378069e+01
   9.371874e+00  -1.057968e+02
   1.380884e+02  -7.212977e+01
   1.461673e+02  -2.009396e+01
   6.742963e+01   2.960116e+01
  -5.225927e+01   2.731912e+01
  -7.068713e+01  -1.028823e+01
  -8.007318e+00  -5.311171e+01
   4.440424e+01  -9.068521e+01
   6.538898e+01   1.848678e+00
   6.094443e+01   4.444244e+01
   2.017683e+01   7.495059e+01
   3.863616e+01   2.209891e+01
   5.172244e+01   2.010143e+01
   4.700387e+01   5.098816e+01
  -2.850018e+01   1.411734e+02
  -1.049941e+02   1.704763e+02
  -1.624284e+02   2.165178e+01
  -1.229036e+02  -9.651743e+01
   8.377927e+00  -1.311370e+02
   8.867384e+01  -5.357243e+01
   5.591436e+01   4.882518e+01
  -4.400173e+01   3.005980e+01
  -1.539390e+02  -4.629526e+01
  -5.492683e+01  -9.640372e+01
   7.888454e+01  -9.681108e+01
   1.704236e+02  -5.499614e+01
   1.616303e+02   4.159330e+01
   4.869495e+01   1.001103e+02
  -6.238515e+01   4.986305e+01
  -3.787224e+01   3.745286e+01
   2.894372e+01  -2.288458e+01
   9.445439e+01   3.579265e+01
   2.819267e+01   8.980235e+01
  -5.184416e+01   1.289702e+02
  -1.788680e+02   6.571316e+01
  -1.369975e+02  -9.596933e+01
  -3.363983e+01  -1.837195e+02
   7.966308e+01  -1.387631e+02
   9.765025e+01   1.841538e+01
   4.808512e+01   8.750461e+01
   1.050173e+01   9.076706e+01
  -5.995383e+01   5.040449e+01
  -6.322275e+01  -3.068037e+01
  -2.733021e+00  -2.570629e+01
   8.258263e+00   4.809020e+01
  -3.073557e+01  -2.790879e+01
  -5.021134e+01  -7.947351e+01
  -3.914063e+01  -1.147513e+02
   6.645659e+01  -7.154887e+01
   1.351543e+02   1.885058e+01
   9.948440e+01   4.922004e+01
   7.345018e+00   4.699695e+01
  -8.093220e+01   7.956858e+00
  -4.942033e+01   1.862072e+01
  -1.922710e+01   2.953546e+01
   3.710378e+01  -4.789419e+01
   3.852357e+00  -2.495979e+01
  -1.708614e+01   5.575705e+00
   1.550304e+01  -1.775960e+01
   5.560194e+01  -1.941310e+00
   9.681607e+01   6.434663e+00
   2.741346e+01   8.204278e+01
  -1.282959e+02   1.017159e+02
  -1.814542e+02   5.338690e+01
  -1.490097e+02  -4.203564e+01
  -4.381006e+01  -1.498589e+02
   6.572771e+01  -1.537211e+02
   1.147476e+02  -5.571714e+01
   8.181439e+01   1.738300e+01
   2.045169e+01   7.630806e+01
   3.661024e+01   1.674960e+01
   1.949005e+01   1.372567e+01
   4.307839e+01   3.717350e+01
   2.129685e+01   8.080378e+01
  -2.272654e+01   5.867048e+01
  -7.129904e+01  -1.962398e+01
  -6.651652e+01  -1.174740e+02
  -1.076233e+01  -8.123535e+01
   8.359348e+01  -5.652525e+01
   1.107376e+02   6.410070e+01
   4.978490e+01   8.978555e+01
  -5.350969e+01   8.174500e+01
  -7.418652e+01  -1.134322e+00
  -3.946258e+01  -5.225498e+01
   4.366978e+01  -7.812987e+01
   3.788333e+01  -2.607984e+01
  -7.874661e+00   1.909865e+01
  -6.775095e+01   4.516123e+00
  -1.997076e+01  -3.870862e+01
   1.023846e+02  -7.812639e+01
   1.275583e+02  -6.839423e+01
   5.930467e+01   9.806663e+00
  -7.928487e+00   8.984492e+01
  -5.761348e+01   7.591586e+01
  -6.459687e+01   4.253129e+01
  -1.449406e+01  -8.179851e+01
   1.556551e+01  -4.953272e+01
   3.644473e+01   1.971863e+01
   2.465561e+01   6.534763e+01
  -1.168415e+01   2.000530e+01
  -4.308330e+01  -1.737181e+01
  -2.162935e+01  -5.969494e+01
  -2.873605e+00  -3.548390e+00
   1.637520e+01   2.215027e+01
  -6.045930e+00   1.942898e+01
   2.525960e+01  -3.479035e+01
   1.088013e+01  -4.125027e+01
   9.705811e+00  -5.615112e+00
   6.492785e+01   1.628804e+01
   9.693561e-01   4.340867e+01
  -3.337515e+01   3.988965e+01
  -8.790893e+01  -4.129681e+00
  -3.212977e+01  -5.687371e+01
   6.841418e+01  -5.145901e+01
   1.095777e+02   4.600910e+01
   1.798850e+01   3.749399e+01
  -4.179656e+01   2.541449e+01
  -6.643033e+01  -3.603059e+00
  -5.647329e+01   1.281575e+01
   3.349236e+01   2.416935e+01
   1.480806e+01  -9.912667e+00
  -3.579316e+01   2.659921e+01
  -9.043210e+01   4.899702e+01
