
 $NMID
 id='ANONYMOUS ', fmtdat='(2E16.6)'
 volume=1.0
 tramp=1.0
 $END
  -4.101038e+03   4.687739e+02
  -2.873311e+03  -2.577435e+03
   6.416731e+02  -2.690629e+03
   1.980336e+03  -1.171116e+03
   1.162341e+03   6.857344e+02
  -6.354203e+02   7.525292e+02
  -8.358432e+02  -2.667549e+02
   1.433448e+02  -1.049099e+03
   7.587742e+02  -8.139113e+02
   1.063160e+03   5.405461e+01
   3.971640e+02   8.253052e+02
  -2.128339e+02   8.579432e+02
  -6.910459e+02   1.864906e+02
  -3.621773e+02  -6.792649e+02
   2.164157e+02  -7.666391e+02
   6.314759e+02  -2.359691e+01
   3.122720e+02   7.140328e+02
  -3.194969e+02   6.495362e+02
  -6.054100e+02   8.889428e+01
  -3.798862e+02  -3.568416e+02
  -5.943798e+01  -4.757502e+02
   2.279854e+02  -2.320483e+02
   2.024704e+02  -3.108757e+01
  -9.001316e+01   2.802723e+01
  -4.129927e+02  -8.166490e+01
  -1.727973e+02  -4.497272e+02
   4.945827e+02  -4.236721e+02
   8.373283e+02   7.747604e+00
   4.150239e+02   5.978433e+02
  -3.163563e+02   5.203444e+02
  -7.245638e+02   6.919945e+00
  -3.128495e+02  -4.265114e+02
   2.696560e+02  -5.048542e+02
   5.331733e+02  -2.288464e+02
   3.998119e+02   2.100288e+02
   1.176612e+02   4.314993e+02
  -1.780282e+02   3.156305e+02
  -1.285506e+02  -2.110803e+02
   1.764735e+02  -3.949092e+02
   4.662711e+02   3.285737e+01
   1.935498e+02   6.660710e+02
  -2.873632e+02   6.463156e+02
  -6.244358e+02   7.828538e+01
  -2.346999e+02  -5.422749e+02
   2.345132e+02  -3.459934e+02
   3.695783e+02   2.995172e+02
  -6.331523e+01   5.653464e+02
  -5.098604e+02   1.552340e+02
  -5.657459e+02  -3.906313e+02
  -1.486369e+02  -5.931063e+02
   3.817075e+02  -3.499166e+02
   6.276009e+02   6.277483e+01
   3.652725e+02   3.505123e+02
  -1.708799e+02   3.993886e+02
  -4.100091e+02   6.803481e+01
  -2.405683e+02  -1.584443e+02
   1.381086e+02  -1.071096e+02
   1.623724e+02   1.142238e+02
  -1.520452e+02   1.924763e+02
  -3.534394e+02  -4.610725e+01
  -1.669109e+02  -2.944524e+02
   2.170196e+02  -2.688609e+02
   3.364430e+02  -9.244766e+01
   1.982724e+02   1.047585e+02
  -4.764536e+01   2.102432e+02
  -2.531518e+02   3.529365e+02
  -3.346911e+02   2.076268e+02
  -3.000652e+02  -1.204835e+02
  -3.674037e+01  -4.165260e+02
   9.200648e+01  -3.619589e+02
   9.756758e+01  -1.181674e+02
   2.693858e+01   3.416302e+01
   6.915554e+01  -4.650789e+01
   1.961257e+02  -1.273368e+02
   2.701091e+02   7.186842e+01
   1.136220e+02   2.545653e+02
  -5.277964e+01   2.562193e+02
  -2.126557e+02   1.180873e+01
  -2.044004e+02  -2.196516e+02
   1.622733e+01  -2.828381e+02
   2.506827e+02  -1.518544e+02
   3.483686e+02   1.704844e+02
   2.091973e+02   3.593073e+02
  -7.880758e+01   3.284947e+02
  -2.276674e+02   1.153997e+02
  -1.596375e+02   2.065655e+01
  -1.078204e+02   1.641536e+01
  -2.307434e+02   2.246481e+01
  -3.659410e+02  -5.809444e+01
  -3.072785e+02  -3.074287e+02
  -3.104700e+01  -4.184262e+02
   3.631156e+02  -4.201735e+02
   4.727497e+02  -2.179371e+02
   3.399562e+02   7.753669e+01
   4.613831e+01   2.908109e+02
  -1.130556e+02   2.785320e+02
  -6.911850e+01   3.537306e+01
   1.082389e+02  -1.176721e+02
   2.152051e+02   1.798647e+01
   3.630471e+01   1.733265e+02
  -1.453407e+02   1.788052e+02
  -1.727008e+02  -2.610160e+01
   1.499824e+01  -2.169859e+02
   1.910408e+02  -3.132974e+01
   1.700710e+02   2.462188e+02
  -4.079877e+01   3.802895e+02
  -2.165865e+02   1.938814e+02
  -3.559083e+02  -6.452863e+01
  -2.538495e+02  -2.054912e+02
  -1.098222e+02  -2.426022e+02
   1.126925e+02  -1.545579e+02
   1.559745e+02  -6.455070e+00
   3.473434e+01   2.435228e+01
  -9.455271e+01  -4.921125e+01
  -1.935424e+01  -1.154070e+02
   1.363170e+02  -8.725059e+01
   1.788549e+02   1.067575e+01
   6.869186e+01   4.626481e+01
  -8.257417e+01   2.580860e+01
  -4.147219e+01  -7.875391e+01
   1.254046e+02  -8.938311e+01
   2.656562e+02  -6.017286e+00
   2.731916e+02   1.359105e+02
   8.162637e+01   2.617376e+02
  -1.997727e+02   2.466586e+02
  -2.809133e+02   1.418261e+02
  -1.726894e+02  -4.119835e+01
   3.140593e+01  -1.031621e+02
   9.722206e+01  -7.893140e+00
  -8.232924e+00   1.213183e+02
  -2.049489e+02   6.061512e+01
  -2.357195e+02  -9.008997e+01
  -6.629677e+01  -1.759734e+02
   6.385416e+01  -1.899114e+02
   1.507937e+02  -4.192181e+01
   7.734376e+01   3.232909e+01
  -2.458092e+01  -1.434726e+01
  -3.624788e+01  -7.047399e+01
   5.579798e+01  -1.177089e+02
   2.087049e+02  -3.605601e+01
   1.959934e+02   9.920310e+01
   3.537677e+01   2.256637e+02
  -1.960679e+02   1.637343e+02
  -2.146236e+02   4.856449e+00
  -6.294608e+01  -9.688075e+01
   5.926463e+01  -9.014274e+01
   6.888373e+01  -3.438282e+01
   3.262826e+01   4.182402e+01
  -2.391269e+01   7.673776e-01
   1.911941e+00   1.558773e+01
   4.536078e+01  -2.058922e+00
   7.123200e+01   7.007091e+01
   1.881503e+01   1.538726e+02
  -1.235138e+02   1.483817e+02
  -2.563240e+02   4.423395e+01
  -1.857447e+02  -1.388977e+02
  -5.917332e+01  -2.363661e+02
   1.030318e+02  -1.635558e+02
   1.504526e+02  -1.090017e+01
   9.156800e+01   5.172411e+01
   4.509731e+01   8.698710e+00
   7.179919e+01  -4.534842e+00
   8.253038e+01   3.653913e+00
   1.287923e+01   4.525404e+01
  -4.034982e+01   1.012262e+02
  -1.007772e+02   7.529066e+01
  -7.324004e+01  -4.246874e+01
  -6.670353e+00  -7.195319e+01
   1.236322e+02  -8.443762e+01
   2.105352e+02   7.687010e+01
   9.698313e+01   1.869279e+02
  -1.107733e+02   2.376523e+02
  -2.778089e+02   9.787065e+01
  -2.560488e+02  -9.392492e+01
  -1.083466e+02  -1.804267e+02
   3.420173e+01  -1.554619e+02
   6.113159e+01  -1.068260e+02
   7.954404e+01  -8.584188e+01
   6.196537e+01  -1.142203e+02
   7.061739e+01  -4.808642e+01
   1.233798e+02   1.693690e+01
   1.371117e+02   1.174662e+02
   1.818480e+01   2.213326e+02
  -9.866646e+01   1.683464e+02
  -1.736811e+02   4.753654e+01
  -1.232716e+02  -1.263764e+02
  -2.869388e+01  -1.200755e+02
   6.171398e+01  -6.074171e+01
   5.528460e+01   5.154848e+00
   1.542800e+01   4.390022e+01
  -1.694727e+01   3.164788e+01
   3.312335e+01  -9.372793e-01
   6.907751e+01  -9.990412e-01
   3.469528e+01   2.697423e+01
  -7.438270e+01   2.770898e+01
  -1.446212e+02   5.165539e+00
  -1.341303e+02  -4.520512e+01
  -6.475661e+00  -8.486587e+01
   1.058538e+02  -6.715378e+01
   1.257226e+02  -1.382091e+01
   1.417137e+01   5.573296e+01
  -6.884737e+01   3.872343e+01
  -6.541965e+01  -8.222987e+00
  -9.145202e+00  -8.911929e+01
   4.752908e+01  -6.962578e+01
   6.502461e+01   1.245099e+01
   2.319339e+01   6.267553e+01
   3.814963e+01   3.360429e+01
   6.958558e+01  -8.068370e+00
   7.130545e+01   8.403448e+00
   3.553125e+01   4.362104e+01
  -4.392608e+01   1.263054e+02
  -1.077622e+02   1.386164e+02
  -1.503815e+02   2.433893e+01
  -1.341271e+02  -9.168864e+01
  -4.535014e+01  -1.286528e+02
   8.352171e+01  -4.975847e+01
   3.496019e+01  -1.382986e+01
  -7.318765e+01   1.320695e+01
  -1.512578e+02  -3.764547e+01
  -7.972343e+01  -1.152090e+02
   8.871568e+01  -1.460475e+02
   1.820641e+02  -7.406649e+01
   1.393694e+02   1.547519e+01
   3.830473e+01   9.392687e+01
  -4.647700e+01   3.499834e+01
  -3.771301e+01   2.953926e+01
   3.360048e+01  -3.316873e+01
   8.755447e+01   2.439812e+01
   3.548008e+01   1.020544e+02
  -9.681735e+01   1.572253e+02
  -1.648901e+02   7.587139e+01
  -1.136525e+02  -8.641989e+01
  -6.002681e+00  -2.126515e+02
   7.519300e+01  -1.223780e+02
   1.083870e+02  -3.478013e+00
   6.038623e+01   9.750331e+01
  -1.416494e+01   1.256659e+02
  -3.791800e+01  -3.354831e-01
  -5.220360e+01  -1.594553e+01
  -2.570483e+01  -3.769544e+01
   1.654529e+01   2.562182e+01
  -8.683336e+00  -2.778859e+01
  -6.604361e+01  -9.409352e+01
  -5.403436e+01  -8.361155e+01
   4.904181e+01  -2.747423e+01
   1.640976e+02   7.192875e-01
   9.990461e+01   8.147092e+01
   2.911995e+01   4.258564e+01
  -9.142456e+01   2.180783e+01
  -9.561932e+01  -1.445532e+01
   9.216129e+00  -9.047787e+00
   4.845201e+01  -4.485955e+00
   2.483107e+01  -9.398555e+00
  -4.317487e+01   1.651713e+01
   2.628019e+00   3.271387e+00
   8.302901e+01   2.565818e+01
   9.738294e+01   4.221791e+01
   2.353144e+01   8.435202e+01
  -8.647925e+01   9.676941e+01
  -1.942885e+02   4.968968e+01
  -1.153902e+02  -4.893234e+01
  -1.579924e+01  -1.423916e+02
   7.549114e+01  -1.223654e+02
   1.271868e+02  -6.733467e+01
   9.268447e+01   3.545833e+01
   3.296860e+01   2.914954e+01
  -1.504088e+01   2.839452e+01
   4.455623e+01   2.511756e+01
   2.275312e+01   3.708477e+01
   8.251035e-01   8.822236e+01
   2.319650e+00   7.532194e+01
  -6.995584e+01  -1.796256e+01
  -7.676235e+01  -1.112616e+02
  -9.043142e-01  -1.135170e+02
   5.375906e+01  -6.971406e+00
   9.949946e+01   6.546464e+01
   2.637940e+01   9.964982e+01
  -7.090675e+01   4.639464e+01
  -9.726865e+01  -1.828937e+01
  -2.454344e+01  -4.593316e+01
   3.586669e+01  -6.334820e+01
   3.622345e+01  -4.835635e+01
  -3.508606e+01   2.246912e+01
  -6.842194e+01  -1.986770e+00
   2.296886e+01  -1.295110e+01
   5.213258e+01  -7.158199e+01
   1.022748e+02  -8.083490e+01
   8.577397e+01   3.043799e+01
  -4.726354e+00   1.063669e+02
  -4.855430e+01   8.537358e+01
  -3.230176e+01   1.513663e+01
  -1.721260e+01  -4.247026e+01
   3.923421e+01  -6.209465e+01
   3.158107e+01   1.411747e+01
   1.528007e+01   6.952652e+01
  -1.509445e+01   4.225787e+01
  -5.892197e+01  -1.310685e+01
  -4.542559e+01  -2.167353e+01
  -2.979033e+01   1.869267e+01
  -1.162609e+01  -2.079440e+01
   1.730237e+01   1.779658e+01
  -8.708917e+00  -4.999607e+01
   9.644712e+00  -6.318022e+01
   5.772166e+01  -1.074886e+01
   3.619555e+01   3.968582e+01
  -3.050476e+00   6.078719e+01
  -2.840828e+01   2.052875e+01
  -6.774066e+01  -4.049166e+01
  -6.618011e+00  -6.225222e+01
   6.169338e+01  -3.699884e+01
   8.654728e+01   1.885417e+01
   5.060857e+01   4.387565e+01
  -9.743958e+00   3.134536e+01
  -7.374361e+01  -7.279860e+00
  -4.823041e+01   7.522456e+00
  -4.684437e+00  -2.005192e+01
   2.648264e+01   1.900792e+01
  -6.554543e+00   4.639492e+01
  -9.361200e+01  -3.842130e+00
