
 $NMID
 id='ANONYMOUS ', fmtdat='(2E16.6)'
 volume=1.0
 tramp=1.0
 $END
  -3.646758e+03   2.081123e+02
  -2.598733e+03  -2.243319e+03
   4.973780e+02  -2.666436e+03
   1.660979e+03  -1.208880e+03
   9.798129e+02   4.672766e+02
  -2.386762e+02   5.594964e+02
  -6.393885e+02  -3.988761e+02
  -5.650149e+01  -9.183908e+02
   7.346755e+02  -7.795346e+02
   8.560666e+02   6.258262e+01
   5.151760e+02   6.915193e+02
  -1.618071e+02   8.149292e+02
  -5.062920e+02   2.338168e+02
  -4.147616e+02  -6.221359e+02
   2.309974e+02  -7.825427e+02
   5.045402e+02  -4.900957e+01
   2.719976e+02   5.815767e+02
  -2.926762e+02   6.562011e+02
  -5.696673e+02   1.867895e+02
  -4.381583e+02  -3.046532e+02
  -1.128808e+02  -4.022888e+02
   2.398067e+02  -2.580154e+02
   1.392321e+02  -6.220862e+01
  -8.864600e+01  -2.363870e+01
  -3.394245e+02  -1.129090e+02
  -9.027843e+01  -4.029850e+02
   4.500274e+02  -3.909174e+02
   7.035734e+02   1.095749e+02
   4.066185e+02   5.319242e+02
  -3.248880e+02   3.349227e+02
  -6.458231e+02   1.083399e+01
  -3.113439e+02  -4.056340e+02
   2.912058e+02  -4.804207e+02
   4.977025e+02  -2.062111e+02
   4.309824e+02   1.888535e+02
   9.524079e+01   4.091700e+02
  -1.994674e+02   2.283135e+02
  -1.202050e+02  -1.247804e+02
   1.743087e+02  -3.318187e+02
   3.664016e+02   7.893802e+01
   1.782642e+02   5.631327e+02
  -2.656943e+02   6.473307e+02
  -4.758980e+02   6.781842e+01
  -2.586238e+02  -4.765950e+02
   2.478237e+02  -2.788069e+02
   2.913923e+02   3.316758e+02
  -8.228187e+01   5.068874e+02
  -5.325574e+02   1.069619e+02
  -5.365123e+02  -3.838159e+02
  -1.710477e+02  -6.063289e+02
   3.966055e+02  -3.361822e+02
   5.951886e+02   7.608599e+01
   3.464737e+02   3.607057e+02
  -1.419354e+02   3.285462e+02
  -4.573384e+02   6.237483e+01
  -2.469749e+02  -1.454309e+02
   3.897399e+01  -8.919819e+01
   1.090825e+02   1.446128e+02
  -1.213181e+02   1.704211e+02
  -3.163875e+02  -6.559943e+01
  -1.373914e+02  -2.671019e+02
   1.921071e+02  -2.341437e+02
   3.464504e+02  -8.775138e+01
   1.970973e+02   1.166649e+02
  -2.327727e+01   2.646205e+02
  -2.909927e+02   3.502338e+02
  -3.542268e+02   2.050099e+02
  -2.710245e+02  -1.365117e+02
  -1.012146e+02  -4.145515e+02
   9.122759e+01  -4.131313e+02
   9.175229e+01  -1.177854e+02
   5.341091e+01  -4.334676e+01
   5.847489e+01  -1.133069e+02
   2.371725e+02  -9.278340e+01
   2.770002e+02   1.096680e+02
   1.075323e+02   2.451398e+02
  -5.697017e+01   2.572842e+02
  -2.059665e+02  -1.671116e+01
  -1.425224e+02  -2.321380e+02
   2.755501e+01  -2.738218e+02
   2.570213e+02  -6.986614e+01
   3.517682e+02   1.642593e+02
   1.908949e+02   3.540939e+02
  -5.033967e+01   2.857289e+02
  -2.345316e+02   1.333656e+02
  -1.734973e+02   5.124309e+01
  -1.207834e+02   6.384837e+01
  -2.658102e+02   6.580378e+01
  -4.159240e+02  -7.998082e+01
  -3.313182e+02  -3.128640e+02
   3.056968e+00  -4.270375e+02
   4.056950e+02  -4.152581e+02
   4.950228e+02  -1.745725e+02
   3.183523e+02   1.049211e+02
   4.980671e+01   2.930842e+02
  -1.327903e+02   2.415956e+02
  -7.823631e+01   4.708581e+01
   1.148991e+02  -8.337503e+01
   1.792088e+02  -6.970302e+00
   4.637560e+01   1.648225e+02
  -1.393734e+02   1.562948e+02
  -1.562905e+02  -7.495140e+01
  -3.195512e+00  -1.945791e+02
   1.757842e+02  -2.288894e+01
   1.579409e+02   2.406336e+02
  -3.915331e+01   3.655305e+02
  -2.189220e+02   1.668741e+02
  -3.291552e+02  -5.264782e+01
  -2.792838e+02  -2.362604e+02
  -1.087739e+02  -2.679733e+02
   1.036195e+02  -1.472266e+02
   1.890182e+02  -1.643716e+00
   6.410411e+01   2.143046e+01
  -3.894826e+01  -5.309843e+01
   7.356291e+00  -7.322926e+01
   1.493679e+02  -6.083771e+01
   1.977476e+02   4.066198e+01
   7.303193e+00   6.338182e+01
  -9.166251e+01  -7.841090e+00
  -5.460221e+01  -6.183302e+01
   1.339956e+02  -5.688862e+01
   2.759298e+02  -5.060479e+00
   2.680972e+02   1.324106e+02
   3.616616e+01   2.362117e+02
  -1.817391e+02   2.605834e+02
  -2.611964e+02   1.269515e+02
  -1.251801e+02  -2.187406e+00
   2.097574e+01  -1.121520e+02
   1.017216e+02  -8.838338e+00
  -3.456442e+01   9.247564e+01
  -2.136206e+02   5.029201e+01
  -1.941469e+02  -8.575998e+01
  -7.078003e+01  -2.068637e+02
   7.551097e+01  -1.750048e+02
   1.327730e+02  -3.457751e+01
   6.653268e+01   3.397687e+01
  -1.796240e+01  -1.700214e+00
  -3.652494e+01  -1.127963e+02
   9.228244e+01  -1.422590e+02
   2.035102e+02  -4.277867e+01
   1.725738e+02   1.289535e+02
   3.739938e+01   1.761618e+02
  -1.488718e+02   1.551434e+02
  -1.644755e+02   6.675633e+00
  -5.926916e+01  -1.072793e+02
   4.372303e+01  -9.525315e+01
   1.021670e+02  -3.602649e+01
  -7.949173e+00   1.019680e+01
  -5.473045e+01  -1.346548e+01
   2.232336e+01  -8.285704e+00
   7.672337e+01   2.800582e-01
   9.586598e+01   1.055511e+02
   4.308229e+01   1.987669e+02
  -1.352057e+02   1.382152e+02
  -2.325110e+02   3.332083e+01
  -2.115362e+02  -1.562743e+02
  -6.267881e+01  -2.414374e+02
   9.901174e+01  -1.451233e+02
   1.523687e+02  -3.011521e+01
   7.582015e+01   4.042046e+01
   1.749847e+01   3.663442e+01
   7.891134e+01  -3.088536e+01
   9.475843e+01  -3.940977e+01
   5.258831e+01   6.544328e+01
  -5.120532e+01   1.175946e+02
  -1.238051e+02   5.558688e+01
  -1.076362e+02  -4.168695e+01
  -1.832519e+01  -1.339413e+02
   1.440230e+02  -9.262674e+01
   1.949644e+02   5.259787e+01
   9.513260e+01   2.117518e+02
  -1.204113e+02   2.233171e+02
  -2.921714e+02   8.349758e+01
  -2.661116e+02  -8.858388e+01
  -1.030150e+02  -1.766159e+02
   6.245980e+01  -1.648217e+02
   8.762745e+01  -7.499223e+01
   7.195237e+01  -7.935274e+01
   8.408944e+01  -8.877443e+01
   1.156555e+02  -5.236493e+01
   1.249155e+02   1.743519e+01
   1.071008e+02   1.412346e+02
   1.561374e+01   2.257270e+02
  -1.137363e+02   1.578544e+02
  -1.829353e+02   1.121456e+01
  -1.116864e+02  -1.119863e+02
  -3.686743e+00  -1.809279e+02
   8.296604e+01  -9.235553e+01
   6.909176e+01   1.769981e+01
  -1.122619e+01   6.353832e+01
  -1.113521e+01   5.050739e+01
   3.460578e+01   1.250061e+01
   6.725944e+01   3.940520e+01
   5.917692e+01   4.471534e+01
  -6.541717e+01   2.286377e+01
  -1.774638e+02   9.517288e+00
  -1.637691e+02  -4.388766e+01
   3.062100e+01  -8.863834e+01
   1.548958e+02  -7.655568e+01
   1.273897e+02   3.161006e+00
   4.757296e+01   6.850951e+01
  -5.241619e+01   4.709716e+01
  -5.920614e+01  -1.090147e+01
  -3.340450e+00  -5.050463e+01
   7.917824e+01  -6.900193e+01
   7.249099e+01   4.852432e+01
   5.103991e+01   6.611089e+01
   4.990592e+01   6.079989e+01
   4.862040e+01   1.733463e+01
   7.096817e+01   1.475711e+01
   1.474183e+01   7.769764e+01
  -1.686179e+01   1.491343e+02
  -1.217525e+02   1.395664e+02
  -1.585906e+02   5.215597e+01
  -1.213744e+02  -1.033168e+02
  -2.680254e+00  -1.250969e+02
   8.443383e+01  -5.337643e+01
   6.693993e+01   3.569067e+01
  -5.528720e+01   3.684118e+01
  -1.344538e+02  -1.620343e+01
  -6.215135e+01  -8.489080e+01
   1.020121e+02  -1.128475e+02
   1.943149e+02  -7.605850e+01
   1.741805e+02   1.086086e+01
   2.441584e+01   1.106502e+02
  -6.752263e+01   6.667418e+01
  -2.563991e+01   3.303325e+01
   4.553131e+01  -3.049603e+01
   7.868243e+01   3.173146e+01
   4.889217e+01   8.631650e+01
  -6.613952e+01   1.675132e+02
  -1.665168e+02   7.620723e+01
  -1.403726e+02  -1.134052e+02
  -3.242843e+01  -1.851773e+02
   7.041793e+01  -1.347492e+02
   9.751213e+01   1.903452e+01
   7.679176e+01   1.207538e+02
  -1.391736e+01   8.754324e+01
  -3.953161e+01   3.158463e+01
  -5.403720e+01  -3.056800e+01
  -3.614426e+01  -1.924468e+01
   1.143815e+01   2.165663e+01
  -3.129615e+01  -6.780700e+00
  -5.999089e+01  -8.348366e+01
  -2.419578e+01  -1.202239e+02
   4.395648e+01  -8.481899e+00
   1.332882e+02   2.467009e+01
   1.213041e+02   7.068979e+01
   2.538789e+01   5.341131e+01
  -8.258156e+01   3.143062e+01
  -8.392275e+01  -3.261536e+00
  -1.702051e+01   6.608974e+00
   1.904472e+01  -5.126856e+01
   2.545744e+01  -9.882361e+00
   1.044720e+00   7.969813e+00
   4.652058e-01   2.947259e+00
   5.567621e+01   2.738777e+00
   8.639918e+01   3.094037e+01
   5.602348e+00   6.991348e+01
  -1.198722e+02   1.154248e+02
  -1.882874e+02   6.746817e+01
  -1.558539e+02  -7.202002e+01
  -2.055816e+01  -1.478902e+02
   4.879409e+01  -1.576175e+02
   1.100606e+02  -4.298049e+01
   7.304175e+01   1.227909e+01
   1.500461e+01   4.311663e+01
   7.292036e-01   2.482470e+01
   1.966204e+01   3.059565e+01
   4.471404e+01   5.214580e+01
   1.837372e+01   8.279606e+01
  -5.079951e+01   5.778905e+01
  -8.393687e+01  -2.103586e+01
  -8.500621e+01  -8.853731e+01
  -1.072480e+01  -1.289125e+02
   6.407191e+01  -3.221591e+01
   7.836545e+01   5.195947e+01
   4.187075e+01   1.000387e+02
  -7.976718e+01   5.286792e+01
  -9.118207e+01  -1.001726e+01
  -3.242142e+01  -3.477873e+01
   1.950748e+01  -9.021254e+01
   3.047919e+01  -2.450323e+01
  -3.821526e+01   7.037975e+00
  -5.809935e+01   2.983152e+01
  -3.137966e+01  -2.612045e+01
   9.718709e+01  -6.093900e+01
   1.293293e+02  -6.374774e+01
   4.926614e+01   2.699527e+01
  -2.925088e+01   1.020957e+02
  -6.076222e+01   7.961413e+01
  -3.165237e+01   3.615747e+01
   1.994207e+01  -4.607986e+01
   1.538425e+01  -4.593151e+01
   3.633790e+01   4.556860e+01
   5.769828e+01   4.622369e+01
  -1.028222e+01   2.990843e+01
   2.514505e+00   1.640286e+00
  -1.138510e+01  -4.478853e+01
  -2.874324e+01  -1.256543e+01
  -1.279706e+01   4.927122e-02
  -1.390323e+01   3.418927e+01
  -1.324517e+01  -4.561641e+01
   1.667041e+01  -3.998932e+01
   4.055893e+01  -1.962355e+01
   5.173902e+01   2.142988e+01
  -1.649505e+01   3.534703e+01
  -3.217337e+01   2.475900e+01
  -5.323300e+01  -4.377692e+00
  -1.992134e+01  -6.427730e+01
   7.661316e+01  -5.644535e+01
   8.309251e+01   4.529257e+00
   6.573196e+01   4.091839e+01
  -4.573774e+01   3.410254e+01
  -6.255638e+01   1.891037e+01
  -5.092415e+01   2.465866e+01
   4.673000e+01   6.306857e+00
   3.966253e+01   1.456591e+00
  -2.282429e+01   3.447884e+01
  -7.897124e+01   2.218220e+01
