
 $NMID
 id='ANONYMOUS ', fmtdat='(2E16.6)'
 volume=1.0
 tramp=1.0
 $END
   3.865480e+03   3.639091e+02
   2.089146e+03   2.300044e+03
  -2.693994e+02   2.399822e+03
  -1.572204e+03   8.017861e+02
  -1.081934e+03  -1.739714e+02
   2.331946e+02  -1.635585e+02
   3.784517e+02   9.840719e+01
  -1.411422e+02   8.091166e+02
  -6.474632e+02   5.290583e+02
  -7.711459e+02   2.168946e+01
  -4.895223e+02  -6.660302e+02
   1.107645e+02  -6.618312e+02
   4.497984e+02  -8.691048e+01
   2.433034e+02   4.847220e+02
  -2.143766e+02   6.235807e+02
  -4.965721e+02   7.733441e-01
  -2.606243e+02  -5.384365e+02
   2.174377e+02  -6.426292e+02
   4.922510e+02  -1.391461e+02
   4.141115e+02   2.435161e+02
   5.896236e+01   4.094666e+02
  -1.802245e+02   2.033719e+02
  -1.516433e+02   5.112124e+01
   1.757874e+02   2.583059e+01
   3.558830e+02   2.181308e+02
   8.879874e+01   4.249737e+02
  -5.244775e+02   2.282806e+02
  -7.033291e+02  -2.502323e+02
  -2.725782e+02  -5.128433e+02
   3.899355e+02  -2.902067e+02
   6.309150e+02   1.114845e+02
   2.788757e+02   4.215049e+02
  -3.152702e+02   4.099422e+02
  -5.246652e+02   1.560661e+02
  -3.781183e+02  -2.261418e+02
  -8.764559e+01  -3.913395e+02
   1.475840e+02  -2.267957e+02
   1.761874e+01   1.751314e+02
  -2.812345e+02   2.595194e+02
  -3.011492e+02  -1.103569e+02
  -1.007356e+02  -5.766362e+02
   3.065569e+02  -5.782570e+02
   4.798274e+02   1.000276e+02
   9.402346e+01   3.776165e+02
  -1.663216e+02   2.071357e+02
  -2.519272e+02  -3.217155e+02
   1.583784e+02  -4.377821e+02
   5.327623e+02  -8.658901e+01
   5.362913e+02   4.015022e+02
   9.912747e+01   5.417438e+02
  -3.521856e+02   2.683933e+02
  -5.573211e+02  -6.889412e+01
  -3.497336e+02  -3.296869e+02
   1.257378e+02  -2.945688e+02
   3.813158e+02  -1.644765e+01
   2.031125e+02   1.045721e+02
  -5.068915e+01   5.278633e+01
  -1.181894e+02  -7.877491e+01
   1.173167e+02  -7.986375e+01
   2.944452e+02   5.456300e+01
   1.221132e+02   2.168590e+02
  -1.597588e+02   2.362282e+02
  -3.578222e+02   1.213415e+02
  -2.317384e+02  -9.028660e+01
   2.862912e+01  -2.481406e+02
   2.769224e+02  -3.682136e+02
   3.695776e+02  -1.904918e+02
   2.611569e+02   1.873074e+02
   6.347138e+01   3.790973e+02
  -1.111388e+02   3.200072e+02
  -6.126583e+01   1.398647e+02
  -4.743132e+01   5.821255e+01
  -8.263931e+01   1.019705e+02
  -2.453648e+02   1.147095e+02
  -2.827252e+02  -1.147311e+02
  -1.212350e+02  -3.013414e+02
   8.968390e+01  -2.240406e+02
   1.861336e+02   3.934449e+01
   1.561495e+02   2.437802e+02
  -4.003658e+01   2.818224e+02
  -2.574417e+02   6.890178e+01
  -3.440871e+02  -1.792003e+02
  -1.675367e+02  -3.226401e+02
   8.557508e+01  -2.844505e+02
   2.074947e+02  -1.267117e+02
   1.284753e+02  -7.166097e+01
   9.325798e+01  -7.881006e+01
   2.631940e+02  -6.043854e+01
   4.019168e+02   8.708316e+01
   3.194292e+02   3.016742e+02
  -2.682937e+01   4.717517e+02
  -3.971987e+02   4.196079e+02
  -5.002436e+02   1.645968e+02
  -2.999448e+02  -9.160950e+01
  -4.135129e+01  -3.032087e+02
   1.298205e+02  -2.493313e+02
   3.718308e+01  -2.415213e+01
  -1.220229e+02   8.550417e+01
  -1.527077e+02  -3.986634e+01
  -3.931877e+01  -1.873553e+02
   1.419377e+02  -1.836770e+02
   1.148230e+02   6.457759e+01
  -4.930072e+01   1.760294e+02
  -1.855909e+02   1.396893e+01
  -1.633958e+02  -2.114161e+02
   2.509084e+01  -3.197603e+02
   2.411557e+02  -1.794194e+02
   3.750213e+02   6.221624e+01
   2.941601e+02   2.556934e+02
   7.084974e+01   3.094918e+02
  -1.290720e+02   1.509395e+02
  -1.581202e+02  -3.652136e+00
  -5.196507e+01  -3.581212e+01
   5.811804e+01   5.743293e+01
   5.715009e+00   1.144770e+02
  -1.201364e+02   6.457042e+01
  -1.443511e+02  -4.276254e+01
  -4.253719e+01  -9.426609e+01
   7.097198e+01  -2.469467e+01
   5.142972e+01   1.100020e+02
  -1.600882e+02   1.003451e+02
  -3.114653e+02  -3.098922e+01
  -2.417534e+02  -1.801727e+02
  -2.882705e+01  -2.836086e+02
   2.029544e+02  -2.206230e+02
   2.821418e+02  -1.024474e+02
   1.570693e+02   8.472112e+01
  -3.593280e+01   9.455934e+01
  -8.042167e+01  -3.836714e-01
   4.528164e+01  -9.513055e+01
   2.041195e+02  -5.319830e+01
   2.034878e+02   1.211676e+02
   6.683806e+01   2.296076e+02
  -1.203969e+02   1.515147e+02
  -1.288510e+02   1.181793e+01
  -8.113247e+01  -4.376683e+01
   3.105503e+01   1.439115e+01
   2.447939e+01   1.348142e+02
  -7.331111e+01   1.450856e+02
  -2.279504e+02   2.939162e+01
  -1.931186e+02  -8.978071e+01
  -1.228311e+01  -2.301097e+02
   1.976124e+02  -1.617619e+02
   1.818500e+02  -3.820965e+00
   8.225643e+01   1.090176e+02
  -6.146754e+01   9.842263e+01
  -9.385615e+01   6.134163e+00
  -1.018700e+01  -2.554875e+01
   6.021258e+01  -2.912246e+01
  -2.447408e+01   1.291282e+01
  -7.958998e+01  -6.545936e+00
  -9.110458e+01  -6.996825e+01
  -3.218261e+01  -1.770580e+02
   1.874520e+02  -1.758898e+02
   2.463247e+02  -2.112765e+01
   1.948238e+02   1.499993e+02
   3.024877e+01   2.555230e+02
  -1.267833e+02   1.676172e+02
  -1.106819e+02   2.602081e+01
  -8.116694e+01  -6.743411e+01
  -2.627851e+01  -1.982235e+01
  -7.063482e+01   8.658477e+00
  -7.989864e+01  -1.813605e+00
  -5.873177e+01  -5.856741e+01
   5.501934e+01  -1.149366e+02
   1.201091e+02  -4.444473e+01
   1.236131e+02   5.228214e+01
  -3.152203e+01   1.466968e+02
  -1.670811e+02   9.142364e+01
  -2.375725e+02  -5.875205e+01
  -9.103260e+01  -2.273793e+02
   1.083078e+02  -2.411123e+02
   2.653138e+02  -8.406044e+01
   2.442842e+02   1.219894e+02
   1.089747e+02   2.089560e+02
  -3.209152e+01   1.377659e+02
  -1.323550e+02   7.117116e+01
  -1.057594e+02   7.585798e+01
  -5.409934e+01   9.919334e+01
  -1.024248e+02   9.048537e+01
  -1.526349e+02  -1.555406e+01
  -1.261420e+02  -1.530385e+02
  -2.515779e+01  -2.413842e+02
   8.868751e+01  -1.503576e+02
   1.684497e+02  -1.069108e+01
   1.206969e+02   9.707245e+01
   3.104734e+00   1.465403e+02
  -7.548321e+01   8.853677e+01
  -7.523405e+01  -2.273614e+01
  -6.368820e+00  -5.312977e+01
   3.329246e-02  -2.128869e+01
  -2.272056e+01   3.722464e+00
  -9.417122e+01   8.052675e+00
  -4.111069e+01  -4.462518e+01
   5.716406e+01  -2.743815e+01
   2.091882e+02  -2.916567e+01
   1.340716e+02   6.487573e+01
  -1.254294e+01   9.517080e+01
  -1.386158e+02   7.229336e+01
  -1.329760e+02   2.545055e+01
  -2.192708e+01  -2.823886e+01
   5.344903e+01  -2.975659e+01
   9.766164e+01   7.365163e+00
  -1.844589e+01   6.642948e+01
  -3.782954e+01   6.785256e+01
  -4.238323e+01  -1.132056e+01
  -4.197515e+01  -5.318217e+01
  -3.913852e+01  -3.707553e+01
  -3.249779e+01   1.224576e+01
  -6.072626e+01  -6.533850e+00
  -3.614675e+01  -7.382528e+01
   2.926688e+01  -1.540017e+02
   1.088691e+02  -1.338981e+02
   1.645130e+02  -6.141241e+01
   1.256773e+02   1.211606e+02
  -9.079738e+00   1.395009e+02
  -1.039562e+02   4.073787e+01
  -8.011955e+01  -1.319924e+01
   6.909357e+01  -4.193505e+01
   1.264608e+02   6.330446e+01
   8.035207e+01   1.039375e+02
  -1.117969e+02   1.204318e+02
  -1.921336e+02   2.457930e+01
  -1.618650e+02  -5.646931e+01
  -4.300765e+01  -8.521013e+01
   8.398923e+01  -6.916233e+01
   5.830013e+01  -1.516987e+00
  -3.948322e+01   4.319494e+01
  -7.312462e+01  -1.723747e+01
  -3.283583e+01  -1.203726e+02
   4.360091e+01  -1.530621e+02
   1.921122e+02  -7.142868e+01
   1.373580e+02   1.024213e+02
   2.529445e+01   2.128889e+02
  -7.594644e+01   1.569620e+02
  -1.146490e+02  -4.285007e+00
  -4.542179e+01  -1.209822e+02
   7.787721e+00  -6.250126e+01
   6.135339e+01   1.042800e+01
   9.282722e+01   4.091524e+01
   2.815440e+01   1.933809e+01
  -8.514164e+00  -3.475624e+01
   3.174312e+01   3.343567e-02
   4.443326e+01   8.108338e+01
   4.581288e+01   9.589134e+01
  -5.416108e+01   2.956558e+01
  -1.445899e+02  -4.027268e+01
  -1.150076e+02  -7.218976e+01
  -1.720855e+01  -3.686625e+01
   9.007285e+01  -2.513720e+01
   8.587614e+01  -1.406602e+01
   1.040481e+01   1.691119e+01
  -1.497212e+01   1.975614e+01
  -1.224352e+01   2.068447e+01
   1.366253e+01   1.307973e+01
  -1.954565e+01  -1.118108e+01
  -5.840261e+01  -6.862500e+00
  -8.735967e+01  -2.573465e+01
  -4.831250e+01  -9.518867e+01
   1.205256e+02  -1.132895e+02
   1.852541e+02  -5.717168e+01
   1.524449e+02   7.981334e+01
   1.008546e+01   1.608143e+02
  -8.135514e+01   1.310534e+02
  -1.322294e+02   7.036947e+01
  -8.323856e+01  -6.249352e+00
  -2.383377e+01  -4.520740e+01
  -3.342894e+00  -1.833656e+00
  -2.869374e+01  -1.284267e-01
  -4.085612e+01  -5.316963e+01
  -1.721358e+01  -1.006367e+02
   3.375385e+01  -7.727610e+01
   8.931920e+01   2.715967e+01
   1.004481e+02   1.142834e+02
   3.510490e+01   1.086839e+02
  -1.002658e+02   4.171778e+01
  -1.078943e+02  -8.015983e+01
  -1.328328e+01  -8.190366e+01
   6.419665e+01  -4.623475e+01
   8.820434e+01   3.867470e+01
   4.413541e+01   5.563413e+01
  -3.855521e+01   8.814008e+01
  -3.094043e+01   7.125547e+01
   2.061499e+01   6.574569e+00
   8.342717e+01   9.533023e+00
   1.737100e+01   4.153665e+01
  -7.584701e+01   7.005353e+01
  -1.289920e+02   3.379518e+01
  -7.467131e+01  -1.731944e+01
   1.310259e+01  -9.906656e+01
   5.231429e+01  -1.065374e+02
   4.237821e+01  -3.069324e+01
  -3.473834e+00   8.366299e+01
  -3.677371e+01   5.728734e+01
  -2.920776e+01  -4.168641e+00
  -3.469703e+01  -5.712961e+01
   1.070292e+01  -4.678695e+01
   4.479712e+01   2.663799e+01
   3.222298e+01   2.737642e+01
   2.113876e+01   7.357897e+00
   1.318385e+01  -2.343813e+01
  -1.093975e+01  -4.067363e+00
  -4.862729e+00   5.348866e+01
  -1.702940e+01   6.743830e+01
  -4.937779e+01   4.273451e+01
  -4.122558e+01  -4.572198e+01
  -2.946639e+01  -2.900353e+01
   4.798334e+01  -4.587018e+01
   5.458841e+01   4.552006e+01
   2.276175e+01   6.166587e+01
  -5.113431e+01   4.370744e+01
  -1.190697e+02  -7.210531e+00
  -4.059509e+01  -4.922486e+01
   4.778847e+01  -5.781703e+01
   5.787517e+01  -2.527210e+01
   2.317680e+01  -7.222155e+00
  -2.713635e+01  -3.934249e+00
  -5.303676e+01   1.180895e-01
   1.712144e+01  -4.908889e+01
   9.524488e+01   3.830570e+00
