
 $NMID
 id='ANONYMOUS ', fmtdat='(2E16.6)'
 volume=1.0
 tramp=1.0
 $END
   4.241902e+03  -1.933902e+01
   2.594827e+03   2.492104e+03
  -3.013659e+02   2.451601e+03
  -2.170273e+03   1.217615e+03
  -9.667169e+02  -5.444326e+02
   5.195281e+02  -5.279048e+02
   7.977608e+02   3.054551e+02
   2.125852e+01   1.027049e+03
  -7.455681e+02   6.511182e+02
  -8.862691e+02  -3.969943e+01
  -5.852360e+02  -8.098160e+02
   1.124991e+02  -7.945960e+02
   6.455109e+02  -1.986620e+02
   3.984898e+02   7.108124e+02
  -2.088889e+02   7.090668e+02
  -5.760308e+02   2.076374e+01
  -2.752640e+02  -6.499034e+02
   3.193088e+02  -6.203184e+02
   5.088520e+02  -1.466635e+02
   3.955791e+02   3.447526e+02
   2.348033e+01   4.466778e+02
  -2.047610e+02   2.475384e+02
  -1.892514e+02   3.853921e+01
   1.118674e+02  -1.261739e+02
   3.587790e+02   1.142485e+02
   1.475678e+02   4.247305e+02
  -3.720123e+02   3.532827e+02
  -7.944669e+02  -9.384036e+01
  -4.386980e+02  -4.676637e+02
   3.424784e+02  -4.260129e+02
   7.238311e+02   3.205894e+01
   2.881407e+02   4.489285e+02
  -2.627865e+02   5.103569e+02
  -5.681175e+02   1.876044e+02
  -4.185357e+02  -1.797104e+02
  -1.448751e+02  -4.120121e+02
   1.499830e+02  -2.676981e+02
   1.646230e+02   2.335117e+02
  -1.227840e+02   3.878317e+02
  -4.042707e+02  -5.469002e+01
  -2.357133e+02  -6.148491e+02
   3.260544e+02  -6.331649e+02
   5.823216e+02  -7.364986e+01
   2.560435e+02   5.461324e+02
  -2.405942e+02   2.862645e+02
  -3.306177e+02  -2.465177e+02
   6.667838e+01  -5.167632e+02
   5.171177e+02  -1.115766e+02
   5.818883e+02   3.666427e+02
   1.482968e+02   5.480829e+02
  -3.673827e+02   3.322048e+02
  -5.795788e+02  -8.587190e+01
  -3.759708e+02  -3.896814e+02
   8.531982e+01  -3.260285e+02
   3.885752e+02  -6.285061e+01
   2.410856e+02   2.126828e+02
  -8.872516e+01   1.371970e+02
  -1.303986e+02  -1.685650e+02
   9.489467e+01  -1.731274e+02
   3.338205e+02   4.035171e+01
   1.416455e+02   3.137946e+02
  -1.885450e+02   2.527087e+02
  -3.221578e+02   9.945706e+01
  -1.852172e+02  -8.965525e+01
   6.900279e+01  -2.170551e+02
   2.333860e+02  -2.876411e+02
   3.284309e+02  -1.960564e+02
   2.821231e+02   1.073548e+02
   7.931408e+01   4.150686e+02
  -9.530580e+01   3.734977e+02
  -1.000055e+02   1.039206e+02
  -2.074610e+01   1.059005e+01
  -3.737473e+01   8.767539e+01
  -1.899209e+02   1.301994e+02
  -3.147770e+02  -1.546996e+01
  -1.653156e+02  -2.722916e+02
   6.497533e+01  -2.633967e+02
   2.181000e+02  -2.075656e+00
   2.121890e+02   2.068636e+02
  -5.651912e+00   2.942096e+02
  -2.287921e+02   1.179853e+02
  -3.489593e+02  -1.644584e+02
  -1.663707e+02  -3.797425e+02
   7.052152e+01  -3.265170e+02
   2.148123e+02  -1.269718e+02
   1.777340e+02  -1.826739e+01
   9.153918e+01  -2.012803e+01
   2.397389e+02  -7.643190e+01
   3.950820e+02   4.818420e+01
   3.472093e+02   2.882980e+02
   1.540366e+01   4.397437e+02
  -3.427315e+02   3.774649e+02
  -4.806869e+02   1.937121e+02
  -3.197102e+02  -1.005442e+02
  -3.090153e+01  -2.874807e+02
   1.081271e+02  -2.274078e+02
   1.080089e+02   3.066899e+00
  -9.504192e+01   1.147662e+02
  -1.746282e+02  -3.901583e+00
  -6.245167e+01  -1.904549e+02
   1.470137e+02  -1.639079e+02
   2.103060e+02   6.316589e+01
  -2.299820e+01   1.994245e+02
  -1.885262e+02   1.850643e+01
  -1.566781e+02  -2.287991e+02
   5.657856e+01  -3.201072e+02
   2.386136e+02  -1.989584e+02
   3.026013e+02   5.388784e+01
   2.779339e+02   2.431891e+02
   7.115547e+01   2.692562e+02
  -9.999668e+01   1.707708e+02
  -1.625977e+02   1.478886e+01
  -4.208181e+01  -4.175997e+01
   4.078552e+01   3.148975e+01
   2.811686e+01   1.364078e+02
  -1.075014e+02   9.852844e+01
  -1.941146e+02  -4.286712e+01
  -4.846617e+01  -5.473651e+01
   9.307799e+01  -2.508466e+01
   4.431731e+01   6.562196e+01
  -1.207690e+02   9.696505e+01
  -2.697799e+02  -1.071773e+01
  -2.549692e+02  -1.404242e+02
  -4.239691e+01  -2.528223e+02
   1.464474e+02  -2.566819e+02
   2.702867e+02  -1.134606e+02
   1.617963e+02   7.291426e+01
   4.828829e+00   8.172453e+01
  -6.918906e+01  -1.112472e+01
   8.910351e+00  -1.081753e+02
   2.081903e+02  -5.874233e+01
   2.184150e+02   1.105204e+02
   7.950741e+01   2.208671e+02
  -7.440832e+01   1.489400e+02
  -1.054187e+02   7.910757e+00
  -5.727974e+01  -3.409562e+01
   3.034222e+01   8.313957e+00
   2.267026e+01   7.338213e+01
  -6.121246e+01   9.579610e+01
  -2.071861e+02   3.673611e+01
  -1.673182e+02  -1.450746e+02
  -2.986756e+01  -2.002903e+02
   1.576514e+02  -1.847071e+02
   2.061264e+02  -8.137698e+00
   6.024659e+01   1.281474e+02
  -4.815677e+01   1.219456e+02
  -8.524248e+01   3.473777e+01
   1.515758e+01  -2.541537e+01
   2.074325e+01  -2.013116e+01
  -1.064627e+01   3.381711e+01
  -5.857000e+01  -5.487293e+01
  -8.010601e+01  -9.244334e+01
   4.855465e+00  -1.842675e+02
   7.359945e+01  -1.548009e+02
   2.446371e+02  -9.403220e-01
   1.936771e+02   1.538664e+02
   2.682049e+01   2.504840e+02
  -1.123951e+02   1.689665e+02
  -1.214233e+02   3.289674e+01
  -7.328919e+01  -6.634188e+01
  -3.793179e+01  -3.647364e+01
  -4.235282e+01   2.808984e+00
  -8.761691e+01   2.619025e+01
  -2.825531e+01  -5.899594e+01
   5.291056e+01  -1.012103e+02
   1.043860e+02  -7.915553e+01
   9.455937e+01   3.287482e+01
  -4.465714e+01   1.000129e+02
  -1.398774e+02   7.970818e+01
  -1.939694e+02  -3.065641e+01
  -7.674510e+01  -1.641583e+02
   1.006021e+02  -2.114203e+02
   2.407455e+02  -5.796444e+01
   2.472618e+02   6.153051e+01
   1.137336e+02   1.941011e+02
  -3.777126e+01   1.227453e+02
  -6.916948e+01   9.716135e+01
  -7.272160e+01   5.779589e+01
  -1.702592e+01   7.846902e+01
  -8.591931e+01   7.188965e+01
  -1.284654e+02  -2.147544e+01
  -8.971042e+01  -1.483436e+02
  -4.625176e+01  -2.366529e+02
   8.559295e+01  -1.694993e+02
   1.944813e+02  -3.099902e+01
   1.280989e+02   9.890207e+01
  -1.099304e+00   1.543442e+02
  -6.284209e+01   1.084991e+02
  -2.867786e+01  -4.986280e+00
   4.932172e+00  -4.429561e+01
  -3.225893e+00  -1.480029e+01
  -2.613642e+01  -8.025515e+00
  -6.146833e+01  -1.371258e+01
  -5.397385e+01  -5.640079e+01
   7.936152e+01  -3.486281e+01
   1.611002e+02   1.282787e+01
   1.476390e+02   7.818664e+01
   2.114037e+01   9.248477e+01
  -1.328031e+02   9.801618e+01
  -1.208699e+02  -4.638377e-01
  -6.143878e+01  -4.525011e+01
   7.532225e+01  -3.648909e+01
   1.059150e+02   1.268090e+01
   1.704538e+01   7.653428e+01
  -5.559189e+01   6.890552e+01
  -5.379177e+01  -1.220661e+01
  -5.370312e+01  -2.728666e+01
  -2.743500e+01  -2.780525e+01
  -6.597175e+01  -8.608796e+00
  -6.038745e+01  -9.529281e+00
  -3.009699e+01  -8.148614e+01
   2.669036e+01  -1.507270e+02
   1.285861e+02  -1.320323e+02
   1.680408e+02  -6.757446e+00
   1.268337e+02   7.353548e+01
  -1.137075e+01   1.124665e+02
  -1.017255e+02   5.375303e+01
  -2.244570e+01  -3.140466e+00
   3.540200e+01  -2.154583e+01
   1.332856e+02   2.945800e+01
   8.133477e+01   1.037734e+02
  -8.868480e+01   1.435509e+02
  -1.943343e+02   1.717875e+01
  -1.641415e+02  -1.918506e+01
  -4.380469e+01  -7.341568e+01
   6.567361e+01  -3.752714e+01
   6.728455e+01   8.338704e+00
  -3.809080e+01   4.728315e+01
  -1.148181e+02  -8.287626e+00
  -2.570066e+01  -1.236286e+02
   9.116467e+01  -1.608421e+02
   1.701487e+02  -4.909224e+01
   1.367421e+02   1.043531e+02
   9.376224e+00   1.880699e+02
  -9.024755e+01   1.412259e+02
  -9.937072e+01  -6.548852e+00
  -5.291476e+01  -1.145056e+02
   1.631253e+01  -9.042465e+01
   4.640773e+01  -1.118529e+01
   5.676509e+01   4.068812e+01
  -7.609679e+00  -3.705755e+00
   4.994777e+01  -4.319259e+01
   2.188872e-01  -2.033766e+01
   4.649330e+01   7.518546e+01
   5.439541e+01   1.275403e+02
  -6.952159e+01   5.385881e+01
  -1.524606e+02  -4.080294e+01
  -1.267802e+02  -8.731173e+01
  -2.398589e+01  -4.290304e+01
   7.568899e+01  -2.609495e+01
   5.366363e+01  -8.439924e+00
   2.672613e+01   7.614393e+00
  -4.090196e+01   3.258521e+01
  -3.372940e+01   3.439413e+01
  -1.353697e+01  -1.261713e+01
  -2.352156e+01  -2.240596e+01
  -8.270720e+01  -3.426656e+00
  -8.388232e+01  -2.693353e+01
  -3.351365e+00  -7.920809e+01
   1.213025e+02  -1.107137e+02
   1.768964e+02  -3.707124e+01
   1.241909e+02   6.978781e+01
   1.138388e+01   1.784361e+02
  -7.958967e+01   1.541990e+02
  -9.380416e+01   3.903486e+01
  -9.120248e+01  -6.619860e-01
   1.874851e+01  -1.445572e+01
  -1.096100e+01  -1.928312e+01
  -9.168087e+00   1.313690e+01
  -1.611174e+01  -7.109677e+01
  -1.819841e+01  -6.635012e+01
   3.027542e+01  -6.885265e+01
   6.633260e+01   1.754035e+01
   7.356113e+01   8.179641e+01
   4.054153e+00   8.349500e+01
  -6.152755e+01   4.258185e+01
  -9.214149e+01  -8.672314e+01
  -3.939026e+01  -1.271901e+02
   7.110412e+01  -6.696294e+01
   9.764197e+01   3.097092e+01
   3.398292e+01   1.685242e+01
  -7.094264e+01   6.011801e+01
  -4.697794e+01   2.422607e+01
   2.530219e+01   1.118422e+01
   6.332206e+01  -1.525620e+01
   1.135094e+01   1.008160e+01
  -8.250984e+01   5.601026e+01
  -1.097132e+02   4.758723e+01
  -7.251843e+01  -1.377081e+01
   3.053704e+01  -7.184025e+01
   6.585490e+01  -8.275854e+01
   4.178778e+01   2.259374e+00
   8.840048e+00   6.082402e+01
  -2.777126e+00   6.010337e+01
  -2.600156e+01   2.047607e+00
  -4.375983e+01  -4.992537e+01
  -1.167522e+01  -1.422803e+01
   3.915643e+01  -1.275569e+01
   4.598554e+01   3.480478e+00
   1.435678e+01   4.298066e+00
   8.725421e+00  -2.709254e+01
   9.354743e+00   3.597154e+01
   1.677352e+01   4.267337e+01
  -2.135834e+01   4.916575e+01
  -3.222507e+01   2.237585e+01
  -2.159645e+01  -4.003302e+01
  -3.040829e+00  -6.857735e+01
   3.380187e+01  -3.176075e+01
   5.880721e+01   3.363467e+01
   2.310822e+01   4.481165e+01
  -8.735632e+01   9.744983e+00
  -9.021526e+01  -2.731470e+01
  -5.089914e+01  -1.771874e+01
   3.335513e+01  -3.561027e+01
   5.607071e+01  -3.178585e+01
   1.927534e+01  -8.720835e+00
  -4.277199e+01   1.935673e+01
  -2.068980e+01   2.180580e+01
   3.748861e+01  -4.634239e+01
   7.577956e+01  -2.629386e+01
