
 $NMID
 id='ANONYMOUS ', fmtdat='(2E16.6)'
 volume=1.0
 tramp=1.0
 $END
   3.941150e+03   1.688996e+02
   2.394674e+03   2.390155e+03
  -6.369039e+02   2.717529e+03
  -1.703625e+03   7.417617e+02
  -9.425067e+02  -4.267705e+02
   5.061497e+02  -3.449878e+02
   7.891231e+02   4.178362e+02
   4.361056e+01   9.803609e+02
  -8.481774e+02   8.007436e+02
  -8.942265e+02   1.161247e+01
  -3.850404e+02  -8.456574e+02
   2.757672e+02  -9.194574e+02
   5.580994e+02  -7.317043e+01
   4.063798e+02   6.064200e+02
  -1.950274e+02   7.581547e+02
  -5.569829e+02  -2.562961e+01
  -2.771586e+02  -6.479621e+02
   2.385715e+02  -6.414624e+02
   5.980341e+02  -1.227390e+02
   3.896289e+02   3.509218e+02
   9.928943e+00   4.049185e+02
  -2.233811e+02   3.178424e+02
  -1.860510e+02   1.535775e+01
   1.441875e+02  -5.683939e+01
   4.575428e+02   1.531285e+02
   1.495648e+02   3.338948e+02
  -4.698909e+02   3.875761e+02
  -8.049351e+02  -1.044041e+02
  -4.209178e+02  -5.331347e+02
   3.394986e+02  -4.830682e+02
   6.977396e+02   1.270739e+02
   3.000049e+02   5.044104e+02
  -2.468080e+02   4.815128e+02
  -5.840366e+02   1.937331e+02
  -3.974155e+02  -2.435251e+02
  -5.073337e+01  -4.186598e+02
   1.816869e+02  -2.839510e+02
   1.596396e+02   1.811357e+02
  -1.126632e+02   3.764249e+02
  -3.762082e+02  -1.010903e+01
  -1.927611e+02  -5.830366e+02
   2.882328e+02  -7.045288e+02
   4.514002e+02   5.862623e+01
   2.481234e+02   5.183169e+02
  -3.067116e+02   2.511834e+02
  -3.372383e+02  -3.353737e+02
   3.616932e+01  -5.185291e+02
   4.785362e+02  -1.291277e+02
   5.530906e+02   3.592328e+02
   1.859695e+02   5.820938e+02
  -3.890207e+02   3.263458e+02
  -5.945477e+02  -3.511679e+01
  -3.432279e+02  -3.385618e+02
   1.815942e+02  -3.427614e+02
   4.309612e+02  -7.768711e+01
   2.521484e+02   1.569048e+02
  -7.313847e+01   8.871469e+01
  -1.414266e+02  -1.434707e+02
   1.962961e+02  -1.694736e+02
   3.267875e+02   6.355885e+01
   1.299079e+02   3.125217e+02
  -2.215748e+02   2.675126e+02
  -3.089909e+02   8.106404e+01
  -1.925963e+02  -7.390985e+01
   3.777417e+01  -2.203835e+02
   2.119672e+02  -2.931955e+02
   3.471098e+02  -1.942249e+02
   2.810455e+02   1.440753e+02
   9.878114e+01   3.834789e+02
  -7.873885e+01   3.637520e+02
  -9.573247e+01   1.295856e+02
  -3.390001e+01  -4.447879e+00
  -5.452662e+01   7.945915e+01
  -2.086834e+02   1.255379e+02
  -2.664227e+02  -7.056375e+01
  -1.413729e+02  -2.222734e+02
   3.901994e+01  -2.282182e+02
   2.176653e+02  -1.028109e+01
   2.065630e+02   2.390357e+02
  -3.569357e+01   2.742810e+02
  -3.053617e+02   1.098121e+02
  -3.435928e+02  -1.534011e+02
  -2.062587e+02  -3.482069e+02
   1.153177e+02  -2.818809e+02
   2.248550e+02  -1.199379e+02
   1.417163e+02  -4.573974e+01
   1.173098e+02  -3.167561e+00
   2.394041e+02  -2.711866e+01
   3.735769e+02   8.828459e+01
   3.225092e+02   2.796067e+02
   9.380020e+00   4.249205e+02
  -3.602568e+02   3.840889e+02
  -4.392761e+02   1.843034e+02
  -3.174848e+02  -7.532867e+01
  -3.002874e+01  -2.933235e+02
   1.071717e+02  -2.517910e+02
   7.563058e+01  -4.738794e+01
  -1.182196e+02   5.313713e+01
  -1.657664e+02  -4.837156e+00
  -2.976685e+01  -1.592601e+02
   1.638881e+02  -1.316967e+02
   1.362841e+02   7.184061e+01
  -4.787600e+00   1.827289e+02
  -1.794723e+02   5.579751e+01
  -1.398218e+02  -2.143614e+02
   3.118523e+01  -3.324417e+02
   2.386504e+02  -1.926114e+02
   3.210047e+02   7.335915e+01
   2.819843e+02   2.625700e+02
   6.131048e+01   2.448703e+02
  -9.861212e+01   1.552010e+02
  -1.870489e+02   5.435851e+01
  -3.885815e+01  -2.077391e+01
   3.884736e+01   6.594455e+01
   1.179578e+01   1.169203e+02
  -1.135148e+02   8.258625e+01
  -1.587463e+02  -2.086627e+01
  -3.959739e+01  -1.093933e+02
   7.704955e+01  -1.873984e+01
   5.306755e+01   6.480338e+01
  -1.194021e+02   8.205851e+01
  -2.665721e+02   2.269443e+01
  -2.519555e+02  -1.093424e+02
  -7.972352e+01  -2.625297e+02
   1.790978e+02  -2.263494e+02
   2.521100e+02  -1.160376e+02
   1.566539e+02   2.500852e+01
  -2.070379e+01   8.616146e+01
  -8.824462e+01   2.162487e-01
   3.914786e+01  -1.051975e+02
   1.973527e+02  -5.900595e+01
   2.222840e+02   1.119654e+02
   7.166602e+01   1.921282e+02
  -7.572515e+01   1.571184e+02
  -1.324529e+02   4.735523e+01
  -6.713746e+01  -4.277906e+01
   3.148260e+01  -1.517478e+01
   3.013173e+01   7.848316e+01
  -6.566932e+01   1.152009e+02
  -1.678317e+02   4.073983e+01
  -1.875427e+02  -1.304882e+02
  -2.645046e+01  -2.199480e+02
   1.517817e+02  -1.618524e+02
   1.790216e+02  -2.992669e+01
   4.790257e+01   7.928293e+01
  -6.486796e+01   1.189040e+02
  -5.841914e+01   5.615936e+01
  -1.765163e+01  -2.134318e+01
   3.009839e+01  -3.553622e+01
  -1.716248e+01   7.836202e+00
  -7.216872e+01   1.739382e+00
  -1.053646e+02  -7.183849e+01
  -3.982999e+00  -1.754750e+02
   1.177668e+02  -1.311943e+02
   2.280217e+02  -3.367515e+01
   2.188026e+02   1.240274e+02
   4.853610e+01   2.154058e+02
  -1.125047e+02   1.661265e+02
  -1.350153e+02   6.626074e+01
  -7.456830e+01  -6.718784e+01
  -1.887765e+01  -4.259064e+01
  -4.883688e+01   1.845184e+01
  -6.664892e+01  -2.238268e-01
  -2.570713e+01  -5.679868e+01
   5.269059e+01  -9.900113e+01
   7.677272e+01  -7.320863e+01
   6.989825e+01   2.575029e+01
  -5.080402e+01   1.044850e+02
  -1.460248e+02   8.232743e+01
  -1.862701e+02  -3.581822e+01
  -6.557870e+01  -1.874043e+02
   1.267159e+02  -2.589642e+02
   2.634395e+02  -1.011551e+02
   2.607992e+02   7.680548e+01
   8.417462e+01   1.838938e+02
  -3.909335e+01   1.487175e+02
  -1.195044e+02   6.277239e+01
  -7.369932e+01   6.542573e+01
  -6.700102e+01   8.019498e+01
  -1.044885e+02   6.930823e+01
  -1.143258e+02  -7.060190e+00
  -9.063741e+01  -1.435836e+02
  -3.014924e+01  -2.042956e+02
   1.323482e+02  -1.653115e+02
   1.733464e+02  -4.767556e+01
   1.469787e+02   1.388915e+02
   2.751233e+01   1.494437e+02
  -7.294863e+01   8.075626e+01
  -5.161088e+01  -9.804198e+00
   8.541419e-01  -2.620262e+01
   2.581318e+01  -2.713321e+01
  -5.095787e+01  -3.954734e+01
  -8.573762e+01  -1.040371e+01
  -5.297677e+01  -5.085345e+01
   4.991735e+01  -3.720516e+01
   1.578209e+02   1.982189e+01
   1.489336e+02   2.558724e+01
   1.480886e+01   7.806877e+01
  -1.291147e+02   6.928071e+01
  -1.401247e+02  -2.655593e+01
  -4.574881e+01  -4.534693e+01
   5.518523e+01  -7.908319e+01
   7.451495e+01  -4.029272e+00
   1.731470e+00   9.654610e+01
  -5.577859e+01   7.063200e+01
  -5.878711e+01  -1.969570e+01
  -4.384975e+01  -5.160785e+01
  -5.320133e+01  -2.080168e+01
  -5.302532e+01  -5.203884e+00
  -6.516452e+01   1.997185e+01
  -4.609551e+01  -6.448526e+01
   1.634386e+01  -1.182405e+02
   9.750926e+01  -1.419029e+02
   1.598696e+02  -4.649634e+01
   1.475237e+02   8.128051e+01
  -7.206411e+00   1.225705e+02
  -1.070709e+02   2.425661e+01
  -5.559837e+01  -1.308091e+01
   4.563976e+01  -1.361009e+01
   1.274434e+02   3.744589e+01
   5.865636e+01   1.068787e+02
  -6.216060e+01   1.443695e+02
  -1.937643e+02   3.998421e+01
  -1.356627e+02  -1.796410e+01
  -6.506716e+01  -1.020829e+02
   7.086694e+01  -3.290257e+01
   2.086904e+01   2.309520e+01
  -4.173308e+01   1.519477e+01
  -9.610513e+01  -2.162281e+01
  -3.606748e+01  -1.146815e+02
   9.621354e+01  -1.537846e+02
   1.574318e+02  -6.629754e+01
   1.009733e+02   8.448526e+01
   1.145121e+01   2.177661e+02
  -1.058918e+02   1.135114e+02
  -1.192550e+02   1.192579e+01
  -8.636807e+01  -1.092074e+02
  -5.035917e+00  -1.258390e+02
   2.490196e+01  -2.886185e+01
   3.575257e+01   1.941858e+01
   1.242150e+01  -1.214398e+01
   1.000240e+01  -3.452829e+01
   5.589651e+00   2.364308e+01
   4.594576e+01   7.773373e+01
   4.033581e+01   9.606679e+01
  -6.673383e+01   3.195054e+01
  -1.445473e+02  -3.359281e+01
  -1.170507e+02  -6.248528e+01
  -1.227158e+01  -5.129213e+01
   8.955491e+01  -1.638163e+01
   8.177861e+01   4.690089e-01
   5.641261e+00   7.015910e-01
  -2.439446e+01   1.530317e+01
  -2.332091e+01   2.199446e+01
   2.819891e+01   9.935117e+00
   2.566164e-01   4.287191e-01
  -8.185219e+01   3.071079e+00
  -1.008468e+02  -1.628653e+01
   7.970024e+00  -8.551207e+01
   8.998114e+01  -1.079377e+02
   1.844879e+02  -7.388711e+01
   1.526075e+02   5.423062e+01
   9.446791e+00   1.729384e+02
  -6.213708e+01   1.304006e+02
  -1.058120e+02   7.598414e+01
  -7.879149e+01  -1.829479e+01
  -3.774376e+01  -2.692719e+01
  -1.828870e+01  -1.321299e+00
   1.548929e+01  -2.932935e+01
  -5.079806e+01  -4.279538e+01
  -1.799376e+01  -9.660060e+01
   4.138245e+01  -7.054172e+01
   6.025091e+01   1.053603e+01
   7.522776e+01   8.331931e+01
   3.180304e+01   1.054323e+02
  -8.139530e+01   3.335806e+01
  -8.773963e+01  -7.057645e+01
  -2.655246e+01  -8.199749e+01
   7.196729e+01  -5.683231e+01
   9.135665e+01   4.429469e+01
   1.999946e+01   4.612816e+01
  -1.524071e+01   4.201492e+01
  -3.106350e+01   1.416251e+01
   3.829699e+01   1.436507e+01
   6.060169e+01  -2.333095e+01
  -1.221261e+01  -1.161875e+01
  -5.677009e+01   8.036953e+01
  -9.522924e+01   3.901193e+01
  -7.509672e+01  -1.736669e+01
   3.498787e+01  -7.748502e+01
   6.071812e+01  -7.869435e+01
   2.764841e+01  -5.300507e+00
  -2.204095e+00   5.635683e+01
  -3.137290e+01   5.471431e+01
  -1.677671e+01  -5.320782e+00
  -1.436652e+01  -3.877359e+01
   1.662567e+01  -2.397137e+01
   3.522746e+01  -1.790223e+01
  -1.645507e+01   4.249722e+01
   3.985599e+01   4.550621e+00
  -7.311075e+00  -5.956295e+00
  -2.285061e+01   2.079716e+01
  -1.888041e-01   5.160867e+01
  -3.318343e+01   4.010410e+01
  -1.179890e+01   4.595579e+00
  -1.672367e+01  -5.426776e+01
   2.324446e+01  -4.939007e+01
   1.834654e+01  -3.414568e+01
   3.206172e+01   2.378721e+01
  -1.526284e+01   4.249608e+01
  -6.183573e+01   2.995194e+01
  -7.937349e+01  -8.179803e+00
  -4.645567e+01  -2.451066e+01
   2.807515e+01  -2.207288e+01
   4.351517e+01  -2.647626e+01
   7.061603e+00  -4.003365e+01
  -2.280083e+01   2.505342e+00
  -4.158918e+01  -4.322004e+01
   1.326202e+01  -4.022200e+01
   8.845385e+01  -2.127694e+01
