
 $NMID
 id='ANONYMOUS ', fmtdat='(2E16.6)'
 volume=1.0
 tramp=1.0
 $END
  -4.130833e+03   9.990154e+01
  -2.344271e+03  -2.604028e+03
   4.731712e+02  -2.784382e+03
   1.902591e+03  -1.079533e+03
   9.727078e+02   8.043333e+02
  -6.269767e+02   5.511898e+02
  -8.621100e+02  -3.750550e+02
   4.529932e+01  -1.021579e+03
   7.826021e+02  -8.470699e+02
   9.771483e+02   5.349917e+01
   5.042939e+02   7.894450e+02
  -2.131343e+02   9.726239e+02
  -5.851827e+02   1.582426e+02
  -4.806942e+02  -6.796201e+02
   2.966028e+02  -7.466601e+02
   5.928344e+02  -3.457791e+01
   3.244082e+02   6.461075e+02
  -3.510052e+02   5.780926e+02
  -5.403803e+02   9.092962e+01
  -4.225350e+02  -3.726710e+02
  -3.538087e+01  -4.169564e+02
   2.663480e+02  -2.691464e+02
   2.018748e+02  -4.398339e+01
  -1.015285e+02   6.331647e+01
  -3.958172e+02  -9.042649e+01
  -1.981086e+02  -4.133000e+02
   4.585143e+02  -4.086368e+02
   7.935159e+02   1.445952e+02
   4.585961e+02   5.395295e+02
  -4.068257e+02   4.865190e+02
  -7.309402e+02   8.338769e+01
  -4.002928e+02  -4.758070e+02
   2.838586e+02  -5.138759e+02
   5.240629e+02  -2.066078e+02
   4.568759e+02   1.703179e+02
   9.517426e+01   4.125138e+02
  -1.750701e+02   2.738844e+02
  -5.637868e+01  -1.511671e+02
   2.021155e+02  -4.083179e+02
   4.594465e+02   5.466395e+01
   2.763508e+02   6.418688e+02
  -2.554458e+02   7.064612e+02
  -5.586460e+02   2.992824e+01
  -2.541146e+02  -5.011211e+02
   2.583459e+02  -3.141657e+02
   3.678446e+02   3.044741e+02
  -1.103955e+02   6.072783e+02
  -5.782005e+02   1.851770e+02
  -5.869898e+02  -4.020966e+02
  -1.617259e+02  -6.181220e+02
   3.666950e+02  -3.623211e+02
   6.474371e+02   1.251743e+02
   3.094709e+02   4.090389e+02
  -1.666466e+02   3.500920e+02
  -4.672853e+02   9.008455e+01
  -2.457125e+02  -2.409252e+02
   8.831022e+01  -1.203056e+02
   1.634417e+02   1.425736e+02
  -1.725523e+02   1.567830e+02
  -3.611106e+02  -4.907829e+01
  -1.487905e+02  -2.825823e+02
   2.123805e+02  -2.624353e+02
   3.206502e+02  -7.809654e+01
   1.862960e+02   7.386090e+01
  -2.869324e+01   2.406288e+02
  -2.400403e+02   3.323964e+02
  -3.377982e+02   2.025445e+02
  -3.128082e+02  -1.408030e+02
  -1.072283e+02  -4.683951e+02
   8.798447e+01  -4.277092e+02
   1.281340e+02  -8.551439e+01
  -6.381234e+00   1.204071e+01
   3.913097e+01  -7.562875e+01
   2.167291e+02  -9.823532e+01
   2.912382e+02   4.290064e+01
   1.468851e+02   2.453308e+02
  -7.721212e+01   2.474709e+02
  -2.230837e+02  -6.442698e+00
  -1.843874e+02  -2.390835e+02
  -3.263408e+01  -3.144972e+02
   2.765576e+02  -1.060956e+02
   3.718700e+02   1.855788e+02
   2.172655e+02   3.577970e+02
  -8.077591e+01   2.727016e+02
  -2.619769e+02   1.429416e+02
  -1.571279e+02  -2.177827e+01
  -1.278912e+02   4.023403e+01
  -2.502126e+02   4.989419e+01
  -4.061458e+02  -3.559039e+01
  -3.541550e+02  -2.825019e+02
  -1.154072e+00  -4.367654e+02
   3.544227e+02  -3.920330e+02
   4.431587e+02  -2.452720e+02
   3.011884e+02   9.216347e+01
   5.431796e+01   3.062085e+02
  -1.301165e+02   2.264852e+02
  -8.173932e+01   6.126793e+00
   1.019606e+02  -7.989841e+01
   2.076960e+02   2.909627e+01
   3.567893e+01   1.871966e+02
  -1.440252e+02   2.085991e+02
  -1.878712e+02  -7.986715e+01
  -7.695452e+00  -1.835742e+02
   2.301111e+02  -3.585706e+01
   1.616863e+02   2.307779e+02
  -5.932936e+01   3.132271e+02
  -1.962414e+02   1.960522e+02
  -3.511152e+02  -3.036403e+01
  -2.671968e+02  -2.396112e+02
  -1.253941e+02  -2.924733e+02
   1.118123e+02  -1.699441e+02
   1.476588e+02  -6.281245e+01
   3.460955e+01   2.390027e+01
  -6.708932e+01  -3.448345e+01
  -8.822231e+00  -1.205909e+02
   1.364300e+02  -8.946685e+01
   1.911301e+02   2.194867e+01
   3.773362e+01   6.344157e+01
  -1.065142e+02   1.594244e+01
  -5.367904e+01  -5.877233e+01
   1.273399e+02  -8.731496e+01
   2.621363e+02   2.395605e+01
   2.776057e+02   1.251099e+02
   4.953315e+01   2.612389e+02
  -1.910817e+02   2.762491e+02
  -2.579209e+02   1.275233e+02
  -1.553217e+02  -2.786280e+01
   2.303771e+01  -1.141448e+02
   9.760690e+01   1.434932e+01
  -3.375252e+01   9.617818e+01
  -2.158241e+02   5.184484e+01
  -2.031986e+02  -9.830256e+01
  -8.773430e+01  -2.077686e+02
   9.878220e+01  -1.635670e+02
   1.591105e+02  -4.736868e+01
   9.780145e+01   7.217478e+01
  -7.488649e-01  -7.849176e+00
  -3.946774e+01  -7.408412e+01
   4.534184e+01  -1.445918e+02
   1.803205e+02  -1.848421e+01
   2.302967e+02   1.371347e+02
   4.843300e+01   2.156886e+02
  -1.480402e+02   1.756184e+02
  -1.900401e+02   1.313324e+00
  -8.072785e+01  -1.382121e+02
   5.946829e+01  -7.432707e+01
   9.128622e+01  -2.384205e+01
   3.051591e+01   1.772640e+01
  -3.370893e+01   4.358597e+01
   3.518944e+00  -2.582043e+01
   8.145893e+01   1.499498e+00
   7.276108e+01   8.128075e+01
   2.944617e+01   1.653126e+02
  -1.298907e+02   1.283353e+02
  -2.589827e+02   2.787623e+01
  -2.138147e+02  -1.496763e+02
  -6.845715e+01  -2.504601e+02
   1.055813e+02  -1.751716e+02
   1.324769e+02  -5.088536e+01
   7.088636e+01   8.450071e+01
   2.810000e+00   2.293861e+01
   5.113458e+01  -4.431149e+01
   9.563293e+01  -1.906202e+01
   5.393161e+01   5.736799e+01
  -4.608539e+01   9.189730e+01
  -1.308222e+02   3.871067e+01
  -7.706141e+01  -3.549254e+01
  -1.531534e+00  -1.321941e+02
   1.512130e+02  -6.212820e+01
   1.874441e+02   6.477787e+01
   9.208226e+01   2.280684e+02
  -1.016651e+02   2.460516e+02
  -2.612046e+02   8.461764e+01
  -2.627781e+02  -7.632240e+01
  -1.243263e+02  -1.707958e+02
   4.942972e+01  -1.524178e+02
   7.203945e+01  -7.286349e+01
   1.246874e+02  -7.034736e+01
   8.094065e+01  -1.010122e+02
   9.143725e+01  -6.135992e+01
   1.210181e+02   3.662060e+01
   1.271285e+02   1.390231e+02
   6.558996e+01   2.055909e+02
  -9.362414e+01   1.891790e+02
  -1.611129e+02  -3.539316e+00
  -1.273943e+02  -9.881171e+01
  -3.517339e+00  -1.571604e+02
   8.996996e+01  -8.834414e+01
   5.326311e+01   2.409277e+01
   1.574275e+01   4.866942e+01
  -9.761697e-01   8.614813e+00
   4.651397e+01   4.389752e+00
   7.584337e+01   3.519052e+01
   2.096701e+01   3.553529e+01
  -6.429684e+01   3.971025e+01
  -1.524250e+02   5.011087e+00
  -1.413764e+02  -6.289888e+01
  -1.137101e+01  -9.505963e+01
   1.179835e+02  -8.074500e+01
   1.224272e+02  -1.284942e+01
   5.942821e+01   2.844557e+01
  -8.306477e+01   1.441796e+01
  -7.615443e+01  -3.354598e+01
  -6.250273e+00  -6.821830e+01
   4.993118e+01  -5.426881e+01
   6.905579e+01   1.375051e+01
   4.295747e+01   6.253625e+01
   3.728995e+01   5.593843e+01
   4.030597e+01  -7.938416e+00
   6.921452e+01  -1.069103e+00
   3.253085e+01   7.041443e+01
  -1.522225e+01   1.284494e+02
  -1.122410e+02   1.586870e+02
  -1.727302e+02   3.119419e+01
  -1.245955e+02  -6.871094e+01
   2.388529e+01  -1.440305e+02
   9.322209e+01  -6.740310e+01
   6.092266e+01   3.383987e+01
  -6.371835e+01   3.950341e+01
  -1.406504e+02  -3.779806e+01
  -7.219881e+01  -1.133037e+02
   1.001107e+02  -1.031245e+02
   2.026128e+02  -5.786003e+01
   1.310109e+02   1.806871e+01
   4.000273e+01   7.324783e+01
  -7.147500e+01   5.970865e+01
  -6.108617e+01  -1.328711e+00
   5.284082e+01  -3.935759e+01
   9.224637e+01   1.940434e+01
   2.030648e+01   8.485574e+01
  -7.378620e+01   1.399312e+02
  -1.706321e+02   3.558649e+01
  -1.468516e+02  -1.524910e+02
  -6.492702e+00  -1.923478e+02
   7.625142e+01  -1.369570e+02
   1.044082e+02   4.564475e+01
   9.465451e+01   1.121929e+02
  -1.275452e+01   1.158731e+02
  -3.539806e+01   4.306218e+01
  -2.862494e+01  -3.216845e+01
  -2.693610e+01   4.904221e+00
   1.849639e+01  -9.858594e+00
  -3.272076e+01  -5.594359e+00
  -6.966229e+01  -1.007815e+02
  -5.187535e+01  -1.048898e+02
   3.399568e+01  -3.625058e+01
   1.041535e+02   4.339187e+01
   1.537246e+02   8.173070e+01
   3.602036e+01   5.861011e+01
  -8.249841e+01   1.330666e+01
  -7.629917e+01   3.863739e+01
  -1.768211e+01  -4.988094e+00
   5.263507e+01  -1.633793e+01
   3.092165e+01  -2.032910e+01
  -1.355836e+00  -3.285801e+01
  -9.446013e+00  -5.425012e+00
   4.766124e+01  -9.895941e+00
   9.605983e+01   3.934360e+01
   7.189590e+00   7.759886e+01
  -1.280824e+02   1.181791e+02
  -1.747709e+02   7.292582e+01
  -1.368630e+02  -5.787889e+01
  -8.339618e+00  -1.588675e+02
   8.952331e+01  -1.520799e+02
   1.296935e+02  -6.080782e+01
   8.189412e+01   3.763813e+01
   3.415096e+01   3.365060e+01
   6.318783e+00   7.108105e+00
   3.978304e+00   1.110178e+01
   7.574039e+01   4.550390e+01
   6.690538e-02   6.701073e+01
  -2.619659e+01   6.769458e+01
  -6.856658e+01   2.532131e-01
  -9.787246e+01  -9.295301e+01
   2.003682e+01  -1.274052e+02
   7.674814e+01  -4.716149e+01
   1.150151e+02   4.774676e+01
   2.050418e+01   1.202560e+02
  -8.564864e+01   5.361184e+01
  -8.798729e+01  -1.125375e+01
  -4.790253e+01  -2.090473e+01
   2.304612e+01  -7.020711e+01
   4.690665e+01  -1.430426e+01
  -2.974802e+01  -1.373582e+01
  -5.643647e+01   3.163671e+01
  -1.333002e+01  -4.783180e+01
   8.839774e+01  -7.676694e+01
   9.997650e+01  -7.895871e+01
   2.184022e+01   7.030677e+00
  -4.353263e+01   8.687448e+01
  -4.781787e+01   7.812896e+01
  -4.144187e+01   4.173994e+00
   1.257905e+01  -8.123359e+01
   4.929389e+01  -3.569494e+01
   3.974368e+01   3.245214e+01
   2.134709e+01   4.600434e+01
  -3.017840e+01   1.619197e+01
  -5.096274e+01  -2.591352e+01
  -4.491040e+01  -2.432952e+01
  -2.762649e+01  -1.998051e+01
   3.476233e+01   1.349306e+01
   9.788005e+00   1.800776e+01
   3.197503e+01  -3.554131e+01
   2.123253e+01  -3.853892e+01
   3.984714e+01   6.846250e+00
   3.047452e+01   2.938470e+01
   1.546669e+01   6.602680e+01
  -3.709934e+01   3.233119e+01
  -6.077823e+01  -4.189580e+01
  -3.025195e+01  -5.609518e+01
   6.448828e+01  -3.424088e+01
   9.040576e+01   1.926671e+01
   6.690224e+01   1.982943e+01
  -3.554265e+01   3.687671e+01
  -6.116429e+01   1.900761e+01
  -2.980007e+01   3.197293e+01
   3.227040e+01  -3.345514e+01
   2.150181e+01  -1.020985e+00
  -3.186756e+01   2.493874e+01
  -1.081194e+02   3.233962e+01
