
 $NMID
 id='ANONYMOUS ', fmtdat='(2E16.6)'
 volume=1.0
 tramp=1.0
 $END
  -3.865260e+03   2.060984e+02
  -2.619016e+03  -1.760812e+03
   5.717032e+02  -2.320996e+03
   1.735310e+03  -1.216044e+03
   1.012606e+03  -1.466192e+01
  -3.782771e+02   4.867921e+02
  -6.305964e+02  -2.489014e+02
  -9.715144e+01  -7.997823e+02
   7.103966e+02  -6.459905e+02
   7.856960e+02  -3.444532e+01
   4.803156e+02   7.266669e+02
  -1.400304e+02   7.718948e+02
  -4.613194e+02   1.917177e+02
  -2.943914e+02  -6.080106e+02
   1.648637e+02  -6.214650e+02
   5.317399e+02  -3.691864e+01
   3.041231e+02   5.848934e+02
  -1.326691e+02   6.492528e+02
  -5.656420e+02   2.654640e+02
  -3.963906e+02  -2.810194e+02
  -1.251805e+02  -4.630444e+02
   2.046933e+02  -2.441472e+02
   1.255239e+02  -5.446463e+01
  -1.119378e+02  -2.972176e+01
  -3.104773e+02  -2.059832e+02
  -7.164134e+01  -4.045636e+02
   4.422611e+02  -2.554263e+02
   7.014467e+02   1.012116e+02
   3.746356e+02   4.462805e+02
  -3.670298e+02   2.913725e+02
  -6.980563e+02  -1.236310e+02
  -3.037047e+02  -4.336425e+02
   2.406255e+02  -4.120088e+02
   5.031734e+02  -1.981716e+02
   3.815691e+02   2.308354e+02
   5.648021e+01   3.810141e+02
  -8.515652e+01   2.400442e+02
  -1.131901e+02  -1.412020e+02
   1.328394e+02  -2.760594e+02
   2.434856e+02   7.543553e+01
   1.915608e+02   6.284738e+02
  -3.199641e+02   6.017760e+02
  -4.853649e+02   1.231921e+01
  -2.508776e+02  -4.584091e+02
   2.037831e+02  -2.364388e+02
   2.852294e+02   2.655495e+02
  -1.014819e+02   4.683972e+02
  -5.233803e+02   7.691093e+01
  -4.807275e+02  -3.852446e+02
  -1.922653e+02  -5.266032e+02
   3.469639e+02  -3.151818e+02
   5.544319e+02   2.988141e+01
   3.647261e+02   2.922801e+02
  -1.135162e+02   3.295965e+02
  -4.230643e+02   7.085554e+01
  -2.344710e+02  -1.166461e+02
   3.075289e+01  -9.019252e+01
   8.435619e+01   8.192597e+01
  -1.377729e+02   9.432404e+01
  -2.351108e+02  -7.278349e+01
  -1.432071e+02  -2.294778e+02
   1.588356e+02  -2.770815e+02
   3.453006e+02  -1.080283e+02
   2.414155e+02   1.102511e+02
  -9.151295e+00   3.139705e+02
  -2.527984e+02   3.695934e+02
  -3.360904e+02   2.055781e+02
  -2.579077e+02  -1.440818e+02
  -8.115544e+01  -4.157901e+02
   1.051452e+02  -3.944980e+02
   6.012267e+01  -1.487361e+02
   4.741386e+01  -8.029153e+01
   1.141986e+02  -1.343392e+02
   2.134378e+02  -8.269959e+01
   2.903842e+02   1.064782e+02
   8.661885e+01   2.780481e+02
  -5.506973e+01   2.049144e+02
  -1.900419e+02  -3.339243e+01
  -1.475500e+02  -2.491829e+02
   1.772018e+01  -2.693543e+02
   2.464579e+02  -1.058425e+02
   3.131410e+02   1.417982e+02
   2.094159e+02   3.185313e+02
  -8.885987e+01   3.181243e+02
  -1.942507e+02   1.503961e+02
  -1.677681e+02   5.747882e+01
  -1.492376e+02   8.257497e+01
  -2.652078e+02   6.009723e+01
  -3.972997e+02  -6.401914e+01
  -3.211776e+02  -3.132880e+02
   2.644287e+01  -4.523980e+02
   3.706735e+02  -4.144213e+02
   4.516210e+02  -1.857154e+02
   2.985827e+02   7.160952e+01
   7.652068e+01   3.067935e+02
  -1.086439e+02   2.452569e+02
  -2.642606e+01   5.879092e+01
   1.171583e+02  -5.543769e+01
   1.489649e+02   5.434095e+00
   4.078129e+01   1.322067e+02
  -1.451472e+02   1.417675e+02
  -1.350326e+02  -7.610544e+01
   3.326469e+01  -1.821076e+02
   1.926409e+02  -3.803005e+01
   1.457538e+02   2.450984e+02
  -3.940068e+01   3.493698e+02
  -2.216593e+02   2.005985e+02
  -3.624432e+02  -7.786314e+01
  -2.924703e+02  -2.405768e+02
  -6.324744e+01  -2.621859e+02
   1.256082e+02  -1.499846e+02
   1.767387e+02   1.272627e+01
   3.778879e+01   2.492661e+01
  -6.836897e+01  -3.287176e+01
  -1.204215e+01  -1.072470e+02
   1.711246e+02  -9.577759e+01
   1.807742e+02   6.778228e+01
   6.598795e+01   8.741489e+01
  -7.414717e+01  -3.564840e+01
  -5.271425e+01  -1.038057e+02
   1.395291e+02  -1.001164e+02
   2.835321e+02   1.433324e+00
   2.676376e+02   1.797665e+02
   3.352462e+01   2.657002e+02
  -1.974094e+02   2.462351e+02
  -2.493205e+02   1.092947e+02
  -1.416581e+02  -2.945139e+01
   5.335799e+01  -1.026655e+02
   6.814041e+01  -1.370115e+01
  -5.678047e+01   1.015232e+02
  -2.003681e+02   6.776803e+01
  -2.028177e+02  -9.534778e+01
  -6.306202e+01  -1.851619e+02
   8.626954e+01  -1.501104e+02
   1.221159e+02   1.202325e+01
   7.384344e+01   3.675371e+01
   2.065022e+01  -5.358280e+00
  -3.246336e+01  -8.393842e+01
   8.234114e+01  -1.247861e+02
   1.756552e+02  -1.130323e+01
   2.142906e+02   8.354851e+01
   1.786256e+01   1.935564e+02
  -1.592605e+02   1.575240e+02
  -1.650883e+02   3.802487e+01
  -8.422379e+01  -1.036814e+02
   4.788187e+01  -1.277180e+02
   7.337942e+01  -5.258748e+01
  -4.553099e+00   2.114533e-01
  -5.019978e+01   3.946328e+01
   1.542602e+01   1.033940e+00
   1.035081e+02   1.161836e+01
   1.158110e+02   1.287643e+02
   2.995458e+01   1.766200e+02
  -1.495957e+02   1.541474e+02
  -2.431126e+02   2.507814e+01
  -2.032167e+02  -1.473740e+02
  -4.994655e+01  -2.479989e+02
   8.201314e+01  -1.780300e+02
   1.626088e+02  -2.569323e+01
   5.724400e+01   4.324222e+01
   4.020983e+01   4.367116e+01
   7.249764e+01  -2.104126e+01
   9.048934e+01  -4.649066e+00
   4.671826e+01   5.603268e+01
  -6.719130e+01   1.119498e+02
  -1.173950e+02   7.087572e+01
  -7.453572e+01  -2.000880e+01
   1.505550e+01  -1.161049e+02
   1.732433e+02  -9.015162e+01
   1.928795e+02   5.790883e+01
   8.491887e+01   2.138416e+02
  -1.079033e+02   2.139919e+02
  -2.875904e+02   7.415384e+01
  -2.527967e+02  -8.482179e+01
  -1.043217e+02  -1.765919e+02
   5.519198e+01  -1.406614e+02
   8.156014e+01  -8.858912e+01
   7.307679e+01  -5.439369e+01
   8.916837e+01  -1.097224e+02
   9.781831e+01  -7.370294e+01
   1.393350e+02   3.164623e+01
   1.319485e+02   1.432506e+02
   4.917452e+01   2.146053e+02
  -1.049709e+02   1.970879e+02
  -1.861233e+02   3.441617e+01
  -1.382119e+02  -1.198743e+02
  -4.391250e+00  -1.587624e+02
   8.654617e+01  -1.265244e+02
   6.770579e+01   1.308440e+01
   2.075105e+01   5.232797e+01
  -1.296961e+01   4.467950e+01
   3.858348e+01   2.996011e+01
   7.419672e+01   2.882133e+01
   4.606624e+01   2.755459e+01
  -1.015560e+02   4.037618e+01
  -1.719503e+02   1.410085e+01
  -1.514666e+02  -6.170178e+01
  -1.311797e+00  -1.143842e+02
   1.313555e+02  -7.013332e+01
   1.395272e+02  -4.180637e+01
   5.744517e+01   4.016481e+01
  -5.475229e+01   5.450107e+01
  -3.937009e+01  -2.900749e+01
  -1.311350e+01  -6.291895e+01
   5.898676e+01  -5.610994e+01
   6.679286e+01   1.130867e+00
   6.761506e+01   6.022235e+01
   6.142034e+01   3.552951e+01
   4.002442e+01   1.518373e+01
   3.791107e+01  -1.721684e+01
   2.661412e+01   8.248259e+01
  -2.068666e+01   1.517857e+02
  -1.431029e+02   1.577274e+02
  -1.616548e+02   3.182206e+01
  -1.183608e+02  -1.076165e+02
   5.452466e+00  -1.324644e+02
   7.209188e+01  -7.153461e+01
   6.355062e+01   3.932477e+01
  -5.352630e+01  -3.228647e+00
  -1.292165e+02  -2.193476e+01
  -5.846790e+01  -1.058909e+02
   7.284804e+01  -8.871917e+01
   2.033742e+02  -4.077361e+01
   1.485959e+02   4.185303e-01
   4.329960e+01   7.185716e+01
  -7.065091e+01   6.769868e+01
  -3.220742e+01   1.479886e+01
   2.206107e+01  -1.146256e+01
   9.155574e+01   4.832273e+01
   3.575119e+01   1.052306e+02
  -9.351609e+01   1.353331e+02
  -1.536982e+02   7.927002e+01
  -1.402283e+02  -8.630648e+01
  -5.571137e+00  -1.891048e+02
   8.178664e+01  -1.665624e+02
   1.003358e+02   1.887206e+01
   6.729935e+01   1.020500e+02
  -3.275913e+01   9.164933e+01
  -5.865171e+01   3.549943e+01
  -5.753695e+01   7.007900e-01
  -1.542050e+01  -3.147577e+01
   2.193168e+01   2.539968e+01
  -1.111303e+01   3.114412e+00
  -6.356926e+01  -1.067455e+02
  -3.930583e+01  -9.690996e+01
   6.252560e+01  -5.868744e+01
   1.265336e+02   6.447464e+00
   1.231291e+02   5.199363e+01
   2.384222e+01   4.009808e+01
  -6.254933e+01   1.906327e+01
  -9.112193e+01   1.600269e+01
  -2.124613e+01   1.548569e+01
   3.736701e+01  -1.885998e+01
   4.215671e+00  -6.760930e+00
  -8.294644e+00  -7.618153e-01
  -1.953082e+00  -1.496200e+01
   9.243837e+01  -1.560836e+00
   1.157279e+02   2.974976e+01
   1.684082e+01   4.882547e+01
  -9.481907e+01   9.049565e+01
  -1.863993e+02   5.083969e+01
  -1.739640e+02  -5.430393e+01
  -2.097360e+01  -1.582268e+02
   6.594326e+01  -1.649729e+02
   1.237625e+02  -7.329287e+01
   8.929187e+01   1.574704e+01
   2.982555e+01   5.299501e+01
  -2.822258e+01   6.023247e+00
   2.428678e+01   2.015054e+01
   4.175383e+01   5.666270e+01
   6.346810e+00   9.925652e+01
  -5.673899e+01   6.755752e+01
  -6.713257e+01  -4.623356e+01
  -7.539888e+01  -1.022505e+02
  -1.510454e+01  -1.183587e+02
   6.105323e+01  -2.908882e+01
   1.247278e+02   4.942221e+01
   2.981297e+01   8.012340e+01
  -6.070457e+01   9.826674e+01
  -1.075938e+02  -1.851666e+01
  -3.981864e+01  -4.857176e+01
   3.959240e+01  -5.006782e+01
   3.932305e+01  -1.368571e+01
  -3.749248e+01  -5.097169e-01
  -7.774530e+01   3.254483e+01
  -7.324687e+00  -5.051807e+01
   8.688109e+01  -7.778485e+01
   1.091365e+02  -4.004969e+01
   5.049721e+01   2.111062e+01
  -5.653490e+01   6.884932e+01
  -6.591751e+01   8.521372e+01
  -6.692683e+01   2.612342e+01
   2.016614e-01  -6.864758e+01
   4.056925e+01  -2.778025e+01
   4.380534e+01   7.540771e+00
   4.107729e+01   6.114492e+01
  -1.570116e+01   3.067359e+01
  -5.134421e+01  -6.957425e+00
  -4.187376e+01  -1.026484e+01
  -2.029221e+01  -1.511960e+01
   3.409107e+01   4.431414e+00
   1.193940e+01   2.032374e+01
  -3.256222e-01  -3.302091e+01
   1.739046e+01  -6.577197e+01
   4.212852e+01  -2.128573e+01
   3.650923e+01   3.633128e+01
   4.079520e+01   1.996744e+01
  -3.725970e+01   2.584731e+01
  -5.308317e+01  -4.112687e+01
  -3.372453e+01  -6.673547e+01
   5.124106e+01  -4.609200e+01
   1.028975e+02   8.793693e+00
   6.024113e+01   4.960515e+01
  -3.674957e+01   4.033852e+01
  -7.141299e+01   4.049013e+01
  -1.891995e+01   2.520863e+01
   7.186675e+00   9.125002e-01
   2.657938e+01   1.426477e+01
  -3.462704e+01   3.100753e+01
  -5.931188e+01   1.298894e+01
