
 $NMID
 id='ANONYMOUS ', fmtdat='(2E16.6)'
 volume=1.0
 tramp=1.0
 $END
   3.309399e+03   1.742696e+02
   2.286768e+03   2.030518e+03
  -3.917413e+02   2.285187e+03
  -1.339602e+03   1.065534e+03
  -1.005398e+03  -1.710951e+02
   1.903130e+02  -2.694432e+02
   5.821885e+02   3.067471e+02
  -9.412927e+01   7.275399e+02
  -5.473851e+02   6.351508e+02
  -7.914080e+02   2.115049e+01
  -4.248978e+02  -7.042868e+02
   8.392813e+01  -6.886276e+02
   3.934973e+02  -1.514056e+02
   2.746120e+02   5.449949e+02
  -1.275529e+02   6.568247e+02
  -4.446199e+02   6.850657e+00
  -2.687421e+02  -5.237520e+02
   2.058807e+02  -6.477888e+02
   4.992961e+02  -2.018878e+02
   4.376953e+02   1.908430e+02
   1.245126e+02   3.454869e+02
  -1.253398e+02   2.420731e+02
  -9.993137e+01   2.630548e+01
   1.634003e+02   1.109931e+01
   3.345613e+02   2.271374e+02
   5.840889e+01   4.097698e+02
  -4.999653e+02   2.488351e+02
  -8.002623e+02  -2.022823e+02
  -2.668732e+02  -4.335244e+02
   3.473343e+02  -3.450977e+02
   6.040948e+02   1.171191e+02
   1.871027e+02   4.390082e+02
  -2.660743e+02   4.040194e+02
  -4.813919e+02   1.609946e+02
  -3.975707e+02  -1.726852e+02
  -7.651363e+01  -3.778071e+02
   8.899017e+01  -2.424432e+02
  -4.035279e+01   1.526566e+02
  -1.662203e+02   2.778567e+02
  -3.567976e+02  -1.214612e+02
  -1.451449e+02  -5.920194e+02
   3.021181e+02  -5.346789e+02
   4.306053e+02   4.774252e+01
   1.422769e+02   4.878340e+02
  -1.694928e+02   2.130753e+02
  -3.738994e+02  -3.615489e+02
   1.282883e+02  -4.736673e+02
   5.058534e+02  -9.400958e+01
   6.140347e+02   3.798279e+02
   1.551208e+02   5.114198e+02
  -3.128043e+02   3.035301e+02
  -5.707146e+02  -8.737817e+01
  -3.180063e+02  -3.245997e+02
   8.527680e+01  -2.283120e+02
   3.374520e+02  -7.334297e+01
   1.708153e+02   7.375322e+01
  -2.815276e+01   3.994455e+01
  -1.334037e+02  -8.754716e+01
   1.417291e+02  -1.312215e+02
   3.090107e+02   5.148638e+01
   1.502808e+02   2.490959e+02
  -1.890749e+02   2.396404e+02
  -3.678030e+02   1.112730e+02
  -2.400245e+02  -8.785474e+01
   2.499203e+01  -3.003964e+02
   2.585575e+02  -4.040716e+02
   3.962002e+02  -1.936856e+02
   2.538795e+02   1.720978e+02
   1.095817e+02   3.814318e+02
  -5.248809e+01   3.237097e+02
  -2.319427e+01   1.533802e+02
  -3.346143e+01   6.513132e+01
  -7.144722e+01   1.004471e+02
  -2.516009e+02   1.180533e+02
  -2.926011e+02  -8.049880e+01
  -8.974385e+01  -2.801097e+02
   7.996075e+01  -1.860720e+02
   2.139254e+02   1.024343e+01
   1.511345e+02   2.670809e+02
  -4.042735e+01   2.305184e+02
  -2.808412e+02   7.588301e+01
  -3.281427e+02  -2.198423e+02
  -1.646370e+02  -3.276096e+02
   7.436515e+01  -2.942617e+02
   1.989542e+02  -1.525300e+02
   1.727299e+02  -2.694466e+01
   1.465305e+02  -9.527642e+01
   2.728264e+02  -6.897036e+01
   4.333756e+02   8.049857e+01
   3.456393e+02   3.060137e+02
  -4.994559e+01   4.458827e+02
  -3.922192e+02   3.987454e+02
  -5.188877e+02   1.863051e+02
  -3.251437e+02  -7.472117e+01
  -3.032409e+01  -2.712916e+02
   1.233967e+02  -2.084067e+02
   1.074749e+01  -7.099089e+00
  -1.441224e+02   5.106569e+01
  -1.457409e+02  -7.163839e+01
  -3.338249e+01  -1.346446e+02
   1.399695e+02  -1.293250e+02
   1.371140e+02   5.249624e+01
  -1.607620e+01   1.348289e+02
  -1.730945e+02  -1.406595e+01
  -1.670010e+02  -2.670200e+02
   2.854057e+00  -3.672664e+02
   2.398475e+02  -2.326457e+02
   3.721752e+02   5.813133e+01
   2.503700e+02   2.400953e+02
   6.292881e+01   2.663258e+02
  -1.221357e+02   1.469126e+02
  -1.381069e+02   4.502925e+01
  -5.501702e+01  -2.861915e+01
   6.678546e+01   5.096105e+01
   2.863578e+01   1.388385e+02
  -1.283668e+02   1.008833e+02
  -1.767819e+02  -8.578858e+00
  -2.753691e+01  -7.178753e+01
   9.985402e+01   3.864403e+00
   6.502855e+01   9.894312e+01
  -1.410605e+02   8.527498e+01
  -3.113830e+02  -2.452241e+01
  -2.682407e+02  -1.857306e+02
  -5.457868e+01  -2.482927e+02
   2.048477e+02  -2.641283e+02
   2.747563e+02  -1.100286e+02
   1.587731e+02   5.263765e+01
  -2.433249e+01   7.474094e+01
  -9.990793e+01  -2.884148e+00
   2.832311e+01  -1.011511e+02
   1.796467e+02  -2.135880e+01
   1.887100e+02   1.077148e+02
   4.108219e+01   1.738629e+02
  -8.844130e+01   1.494989e+02
  -1.141949e+02   2.238105e+01
  -7.404455e+01  -2.926216e+01
   3.256626e+01   5.101898e+00
   4.783923e+01   1.262540e+02
  -1.261927e+02   1.626744e+02
  -2.328814e+02   3.446556e+01
  -1.816047e+02  -1.582228e+02
  -1.403757e+01  -1.889871e+02
   1.858703e+02  -1.767877e+02
   1.969218e+02  -1.421645e+01
   7.090200e+01   1.289282e+02
  -7.284697e+01   1.115486e+02
  -8.152212e+01   8.981632e+01
   8.702436e+00  -3.313232e+01
   4.726551e+01  -2.019576e+01
  -9.048150e+00   3.558693e+01
  -7.119852e+01   1.243701e+01
  -1.250250e+02  -9.898408e+01
  -2.990453e+01  -1.956142e+02
   1.335078e+02  -1.776790e+02
   2.564476e+02  -3.247482e+01
   2.271266e+02   1.734121e+02
   5.592882e+01   2.171160e+02
  -1.447940e+02   1.962243e+02
  -1.403838e+02   2.038047e+01
  -7.277642e+01  -6.157015e+01
  -3.719039e+01  -3.994342e+01
  -4.577058e+01   2.499108e+01
  -1.138756e+02   5.653068e+00
  -7.755655e+01  -6.222622e+01
   3.641244e+01  -1.142814e+02
   1.035880e+02  -8.315091e+01
   9.007041e+01   2.176357e+01
  -1.988615e+01   1.345900e+02
  -1.615272e+02   8.602884e+01
  -2.362367e+02  -4.105801e+01
  -8.309963e+01  -2.161843e+02
   1.355836e+02  -2.499472e+02
   2.679005e+02  -9.018900e+01
   2.618836e+02   1.096347e+02
   1.361132e+02   1.991613e+02
  -4.149628e+01   1.364142e+02
  -8.111465e+01   6.164670e+01
  -7.437478e+01   8.435416e+01
  -6.497717e+01   8.144483e+01
  -9.550441e+01   7.256696e+01
  -1.287427e+02  -2.396609e+00
  -1.086748e+02  -1.650785e+02
  -4.277513e+01  -2.215666e+02
   8.145646e+01  -1.869070e+02
   1.876618e+02   5.214314e+00
   1.362422e+02   1.317958e+02
   3.144220e+01   1.577416e+02
  -8.266523e+01   7.771054e+01
  -8.109382e+01   1.449536e+01
  -9.880566e+00  -5.628309e+01
   1.582656e+01  -5.088305e+01
  -4.405709e+01  -1.280544e+01
  -1.095733e+02  -2.311679e+00
  -6.411214e+01  -4.824945e+01
   7.472965e+01  -6.505078e+01
   2.022811e+02   3.324884e+00
   1.663044e+02   7.145151e+01
  -2.701328e+01   1.194963e+02
  -1.247280e+02   6.933997e+01
  -1.776932e+02   2.399392e+01
  -4.285283e+01  -3.592103e+01
   6.319478e+01  -1.041428e+01
   7.420142e+01   1.366337e+01
   1.058735e+01   9.526227e+01
  -3.616295e+01   6.796363e+01
  -9.846474e+01  -1.573201e+01
  -7.159739e+01  -4.686502e+01
  -7.819007e+01  -3.312876e+01
  -5.461084e+01   2.454229e+01
  -8.090015e+01  -1.025537e+01
  -4.129986e+01  -6.688669e+01
   2.243110e+01  -1.633002e+02
   1.321738e+02  -1.583188e+02
   1.628244e+02  -3.221231e+01
   1.282519e+02   5.935548e+01
  -3.104280e+00   1.056520e+02
  -1.107995e+02   9.001424e+01
  -7.521195e+01  -3.170181e+00
   4.934266e+01  -2.464555e+01
   1.526529e+02   6.021490e+01
   7.436939e+01   9.154859e+01
  -7.085026e+01   1.092759e+02
  -2.015310e+02   3.560414e+01
  -1.535561e+02  -5.863758e+01
  -5.130661e+01  -6.030081e+01
   5.729860e+01  -3.487105e+01
   4.426748e+01   6.982959e+00
  -2.509486e+01   6.200560e+01
  -1.081504e+02  -2.397180e+01
  -4.155097e+01  -1.293562e+02
   9.119021e+01  -1.684892e+02
   1.688113e+02  -7.637642e+01
   1.259751e+02   7.548728e+01
   6.739282e+00   1.736175e+02
  -8.181339e+01   1.150980e+02
  -1.101867e+02  -2.602728e+01
  -6.422117e+01  -1.223692e+02
   1.501682e+01  -8.331124e+01
   7.304013e+01  -2.150067e+01
   6.080597e+01   4.636641e+01
   3.227551e+01   7.638485e+00
   1.966088e+01  -1.374707e+01
   2.452442e+01   3.094348e+01
   6.374026e+01   6.446099e+01
   4.910814e+01   1.148744e+02
  -4.709719e+01   4.577676e+01
  -1.337476e+02  -2.182867e+01
  -1.364521e+02  -1.061877e+02
   8.015676e+00  -4.305336e+01
   9.315330e+01  -1.337700e+01
   1.065156e+02   7.911474e-02
   2.257748e+01   9.334455e+00
  -3.308758e+01   1.535594e+01
  -2.312990e+01   1.711259e+01
   1.310751e+01  -2.505330e+01
  -3.751561e+01  -7.435854e+00
  -8.168741e+01  -1.568314e+01
  -1.013237e+02  -2.335000e+01
  -2.761084e+01  -8.879946e+01
   1.228532e+02  -1.336396e+02
   1.896970e+02  -8.276398e+01
   1.417987e+02   9.989828e+01
  -7.913919e+00   1.587359e+02
  -8.375593e+01   1.438357e+02
  -1.237376e+02   5.087767e+01
  -9.527893e+01  -2.934740e+01
  -3.468076e+01  -2.056961e+01
  -2.075919e+01   5.246904e+00
  -7.529992e+00  -1.364977e+01
  -2.243441e+01  -4.529230e+01
  -1.052511e+01  -8.850441e+01
   3.696843e+01  -8.838448e+01
   9.185378e+01   1.768448e+01
   8.254696e+01   1.127437e+02
   1.028913e+01   1.241953e+02
  -9.483246e+01   2.001333e+01
  -1.168599e+02  -6.646916e+01
  -3.306926e+01  -9.466573e+01
   2.600346e+01  -5.858495e+01
   1.125021e+02  -5.401128e+00
   6.297332e+01   5.792754e+01
  -1.643115e+01   7.956499e+01
  -3.020005e+01   2.500816e+01
   2.278464e+01  -1.495737e+01
   7.112368e+01  -2.362673e+01
   2.919093e+01   3.637898e+01
  -9.687815e+01   9.885668e+01
  -1.240022e+02   7.054421e+01
  -6.547775e+01  -3.225883e+00
   2.352436e+01  -7.431305e+01
   6.113707e+01  -8.230520e+01
   8.065187e+01  -5.974993e+00
   3.574911e+00   6.091738e+01
   5.564337e+00   6.404801e+01
  -3.091217e+01  -3.891373e+00
  -4.545943e+01  -2.568144e+01
   2.117192e+01  -2.215074e+01
   4.311389e+01   1.111587e+01
   4.932191e+01   1.982128e+01
  -5.917114e+00   2.341127e+00
  -3.171641e+01  -1.093828e+01
  -1.044294e+01   4.659805e+00
  -9.643514e+00   3.412409e+01
  -3.429845e+01   6.705159e+01
  -3.477368e+01   2.345825e+01
  -3.916285e+01  -3.509144e+01
  -8.545801e+00  -7.407236e+01
   2.227771e+01  -1.257920e+01
   8.264980e+01   3.661370e+01
   1.680807e+01   6.093705e+01
  -4.457357e+01   4.112820e+01
  -1.087465e+02  -3.494072e+00
  -5.208874e+01  -6.541067e+01
   2.900025e+01  -4.374803e+01
   6.709541e+01  -4.078203e+01
   3.322030e+01  -1.363495e+01
  -3.993963e+01   1.202282e+01
  -4.838492e+01  -2.076094e+00
   2.308417e+01  -3.016871e+01
   8.650163e+01  -1.403893e+01
