
 $NMID
 id='ANONYMOUS ', fmtdat='(2E16.6)'
 volume=1.0
 tramp=1.0
 $END
  -3.647724e+03  -1.443003e+02
  -2.240249e+03  -2.470139e+03
   2.278704e+02  -2.527139e+03
   1.544820e+03  -8.935604e+02
   1.015302e+03   5.092726e+02
  -4.118064e+02   4.130882e+02
  -7.330725e+02  -3.783442e+02
  -1.966646e+01  -9.483439e+02
   5.854422e+02  -7.697348e+02
   8.268397e+02  -4.827654e+01
   3.941335e+02   7.269797e+02
  -1.002426e+02   7.758742e+02
  -5.266017e+02   9.393817e+01
  -3.324917e+02  -6.203192e+02
   1.288229e+02  -6.589475e+02
   5.276273e+02  -2.194341e+01
   2.867422e+02   6.066358e+02
  -1.798133e+02   6.520119e+02
  -5.809249e+02   1.607539e+02
  -4.223544e+02  -3.001972e+02
  -4.776205e+01  -3.697709e+02
   1.962440e+02  -2.701372e+02
   1.783390e+02  -1.791585e+01
  -1.311674e+02  -8.978659e+00
  -3.634537e+02  -2.330470e+02
  -1.327695e+02  -4.012286e+02
   4.354430e+02  -3.610682e+02
   6.474986e+02   1.501270e+02
   4.165788e+02   4.735864e+02
  -3.612176e+02   3.840427e+02
  -6.681820e+02  -7.812010e+01
  -2.827930e+02  -4.456882e+02
   2.777448e+02  -4.780975e+02
   4.947946e+02  -1.149164e+02
   3.925802e+02   1.918196e+02
   3.914444e+01   4.023562e+02
  -1.498298e+02   2.415675e+02
  -7.018467e+01  -1.785245e+02
   1.377623e+02  -3.042673e+02
   3.119253e+02  -2.012160e+01
   2.021224e+02   5.391329e+02
  -2.448166e+02   6.236913e+02
  -5.114542e+02  -4.316602e+01
  -2.099921e+02  -4.051659e+02
   1.895927e+02  -2.292893e+02
   3.103468e+02   2.773641e+02
  -4.510123e+01   4.616750e+02
  -4.911675e+02   1.536949e+02
  -5.485119e+02  -3.668890e+02
  -2.193664e+02  -5.348419e+02
   3.627133e+02  -3.443988e+02
   6.082889e+02   3.450004e+01
   3.642245e+02   3.175263e+02
  -1.145390e+02   2.797605e+02
  -3.851645e+02   8.563187e+01
  -2.471042e+02  -1.055161e+02
   7.277426e+01  -4.027877e+01
   1.298471e+02   1.096209e+02
  -1.566204e+02   1.364420e+02
  -2.573289e+02  -4.051430e+01
  -1.087800e+02  -2.432632e+02
   1.939290e+02  -2.294878e+02
   3.612566e+02  -8.271244e+01
   2.201818e+02   9.962556e+01
  -3.190965e+01   2.290286e+02
  -2.023376e+02   3.077187e+02
  -3.474018e+02   2.001664e+02
  -2.545807e+02  -1.419125e+02
  -7.179450e+01  -4.077740e+02
   6.497815e+01  -3.122143e+02
   1.046015e+02  -1.254978e+02
   3.407139e+01  -1.972930e+01
   8.266429e+01  -6.282438e+01
   2.238891e+02  -1.164965e+02
   2.576794e+02   1.072035e+02
   1.079754e+02   2.310964e+02
  -4.842812e+01   2.245023e+02
  -2.114396e+02  -1.072676e+01
  -1.628148e+02  -2.531441e+02
   1.722109e+01  -2.919517e+02
   2.288077e+02  -8.562474e+01
   3.166987e+02   1.628036e+02
   1.747822e+02   2.949921e+02
  -8.972724e+01   2.986343e+02
  -2.265917e+02   1.466989e+02
  -1.196933e+02   6.940080e+01
  -1.206063e+02   3.765844e+01
  -2.399399e+02   4.326988e+01
  -4.140736e+02  -6.988652e+01
  -3.222906e+02  -2.667707e+02
   3.215909e+01  -4.359815e+02
   3.646183e+02  -4.055740e+02
   4.899532e+02  -1.787247e+02
   3.030162e+02   6.122204e+01
   2.027297e+01   2.709908e+02
  -1.054337e+02   2.405569e+02
  -4.922374e+01   3.260469e+01
   1.252116e+02  -8.564615e+01
   1.709368e+02   2.150599e+01
   5.980065e+01   1.561863e+02
  -1.280330e+02   1.212573e+02
  -1.607381e+02  -4.607582e+01
   2.144803e+01  -1.785834e+02
   1.991537e+02  -1.390580e+01
   1.655342e+02   2.335785e+02
   8.336841e+00   3.286717e+02
  -2.245401e+02   1.898315e+02
  -3.140232e+02  -4.135383e+01
  -2.662067e+02  -2.243774e+02
  -7.227942e+01  -2.525291e+02
   1.104439e+02  -1.721295e+02
   1.832201e+02  -1.932816e+00
   3.694349e+01   4.585691e+01
  -5.333003e+01  -2.941019e+01
  -1.858967e+01  -1.287597e+02
   1.156428e+02  -8.291005e+01
   1.867492e+02   1.210513e+01
   3.029703e+01   8.992494e+01
  -8.815807e+01   2.121998e+01
  -5.896730e+01  -9.454717e+01
   1.220851e+02  -9.950557e+01
   2.771510e+02   3.065773e+01
   2.756968e+02   1.625228e+02
   5.966244e+01   2.428795e+02
  -1.875217e+02   2.627918e+02
  -2.490070e+02   1.050505e+02
  -1.120051e+02  -4.993962e+01
   2.595385e+01  -1.056924e+02
   1.021966e+02   3.494391e+00
  -3.030701e+01   1.024157e+02
  -1.807106e+02   4.242420e+01
  -2.157736e+02  -9.684395e+01
  -5.093763e+01  -1.913365e+02
   8.609171e+01  -1.621117e+02
   1.167797e+02  -4.100145e+01
   7.413677e+01   6.360206e+00
  -8.023037e+00  -6.212210e+00
  -3.244131e+01  -8.176678e+01
   8.483409e+01  -1.233480e+02
   2.107789e+02  -3.487821e+01
   1.735412e+02   1.385800e+02
   1.620301e+01   2.025152e+02
  -1.222748e+02   1.628417e+02
  -1.880617e+02   2.713861e+01
  -5.063252e+01  -1.003441e+02
   8.127603e+01  -9.692697e+01
   6.833901e+01  -3.747428e+01
   4.309838e+01   2.376744e+01
  -2.950344e+01   1.543669e+01
   3.912870e-01  -1.033184e+01
   6.869709e+01   1.255031e+01
   8.622420e+01   1.001822e+02
   3.028203e+01   1.529858e+02
  -1.380345e+02   1.512069e+02
  -2.408549e+02   3.889332e+01
  -2.013323e+02  -1.655440e+02
  -1.036774e+01  -2.197516e+02
   1.266186e+02  -1.943792e+02
   1.209956e+02  -4.103808e+01
   5.123111e+01   5.833998e+01
   7.394989e+01   4.448292e+01
   6.066030e+01  -1.860357e+01
   6.574510e+01  -1.686406e+01
   1.881407e+01   4.476425e+01
  -1.691053e+01   1.013874e+02
  -9.349595e+01   5.680672e+01
  -7.023780e+01  -2.100117e+01
   2.057030e+01  -1.217999e+02
   1.287968e+02  -9.861869e+01
   2.040917e+02   5.946879e+01
   9.183616e+01   1.893297e+02
  -1.357621e+02   2.209347e+02
  -2.734357e+02   1.207925e+02
  -2.593621e+02  -6.625259e+01
  -1.081973e+02  -1.931882e+02
   2.279934e+01  -1.460092e+02
   1.097906e+02  -9.829669e+01
   8.999774e+01  -4.169769e+01
   7.391165e+01  -7.988053e+01
   1.072686e+02  -7.452774e+01
   9.631508e+01   6.799163e-01
   1.008291e+02   1.305837e+02
   2.124078e+01   2.351054e+02
  -9.220109e+01   1.707149e+02
  -1.427270e+02   4.519626e+01
  -1.440037e+02  -1.095151e+02
  -2.422050e+01  -1.435403e+02
   6.994058e+01  -8.133211e+01
   3.608588e+01   2.977800e+01
   6.226343e+00   3.952849e+01
  -1.152248e+01   5.278498e+01
   4.834898e+01   2.227235e+01
   7.407883e+01   8.495330e+00
   6.580478e+01   3.092565e+01
  -6.418175e+01   5.874713e+01
  -1.488512e+02   2.098215e+01
  -1.693275e+02  -6.350703e+01
  -2.821028e+01  -9.599151e+01
   9.847935e+01  -7.372067e+01
   1.498523e+02   2.586085e+00
   3.597890e+01   2.628096e+01
  -5.210009e+01   4.218134e+01
  -6.694748e+01  -1.570834e+01
  -7.913930e+00  -5.284576e+01
   8.182245e+01  -7.180913e+01
   4.991568e+01  -4.763370e+00
   3.970495e+01   4.231778e+01
   4.542467e+01   4.797399e+01
   4.746126e+01  -8.282565e+00
   7.649446e+01  -1.678021e+01
   3.532474e+01   4.970186e+01
  -2.754261e+01   1.412460e+02
  -8.856290e+01   1.359302e+02
  -1.597631e+02   1.898621e+01
  -1.272774e+02  -7.311461e+01
  -7.534106e-01  -1.360841e+02
   8.539654e+01  -3.009687e+01
   5.074246e+01   8.381353e+00
  -4.754385e+01   3.027510e+01
  -1.284248e+02  -1.713790e+01
  -5.553259e+01  -9.565540e+01
   8.270815e+01  -9.265679e+01
   1.931747e+02  -2.059719e+01
   1.539557e+02   2.571815e+01
   2.266734e+01   8.576166e+01
  -2.841139e+01   6.415059e+01
  -3.671973e+01  -3.681324e+00
   5.037454e+01  -2.964948e+01
   8.902663e+01   4.634201e+00
   2.118870e+01   1.029074e+02
  -1.084087e+02   1.457510e+02
  -1.589486e+02   6.294632e+01
  -1.219286e+02  -7.053808e+01
  -3.248600e+00  -2.025122e+02
   9.524121e+01  -1.368374e+02
   1.172468e+02  -2.842059e+00
   5.626591e+01   1.145137e+02
   9.518231e+00   1.088883e+02
  -2.758814e+01   1.943368e+01
  -3.266313e+01  -1.344249e+01
  -3.489039e+01  -1.373331e+01
  -2.502879e+01   2.545368e+01
  -3.361664e+01  -2.852317e+01
  -7.474120e+01  -1.007877e+02
  -4.781016e+01  -1.001651e+02
   7.350339e+01  -4.167044e+01
   1.256373e+02   4.007918e+00
   1.523347e+02   7.652300e+01
   1.375307e+01   5.056649e+01
  -1.038179e+02   2.772829e+01
  -1.033536e+02   1.755603e+01
  -2.104873e+01  -4.974779e+00
   4.632389e+01  -1.596410e+01
   6.990098e+00  -1.851176e+01
  -2.240096e+01  -9.945835e+00
   1.840466e+01  -1.854136e+01
   9.169144e+01   2.805836e+01
   7.234824e+01   2.224108e+00
   7.464262e+00   7.509087e+01
  -1.204618e+02   1.289981e+02
  -1.857278e+02   7.354934e+01
  -1.237163e+02  -4.971957e+01
  -5.986731e+00  -1.549539e+02
   7.376679e+01  -1.724923e+02
   1.224672e+02  -6.545105e+01
   6.727457e+01   2.555433e+01
   1.905779e+01   2.835012e+01
   2.928657e+01  -8.209038e+00
  -2.629037e+00   1.195673e+01
   3.590517e+01   3.226357e+01
   1.282944e+01   8.522488e+01
  -2.236962e+01   9.690528e+01
  -8.219317e+01  -2.598221e+01
  -6.581553e+01  -7.679262e+01
  -2.066346e+00  -1.088196e+02
   6.022715e+01  -2.809014e+01
   8.538798e+01   9.379289e+01
   3.297775e+01   9.291055e+01
  -5.694799e+01   6.213425e+01
  -1.045544e+02  -3.360226e+00
  -1.853939e+01  -5.694922e+01
   2.102114e+01  -4.493821e+01
   3.367359e+01  -2.831947e+00
  -3.316615e+01  -1.541144e+01
  -4.926343e+01   1.855709e+01
  -7.245075e+00  -2.422077e+01
   7.647768e+01  -6.880794e+01
   7.856363e+01  -5.824963e+01
   6.840906e+01   3.326594e+01
  -3.069516e+01   6.607202e+01
  -3.694549e+01   1.016354e+02
  -4.767927e+01   1.289151e+01
  -6.813891e+00  -2.736391e+01
   2.697766e+01  -3.059631e+01
   6.083973e+01   2.607601e+01
   4.788285e+01   4.241416e+01
  -9.189099e+00   5.198220e+01
  -3.093327e+01   1.502483e+01
  -3.180929e+01  -1.355870e+01
  -4.127997e+01  -1.123211e+01
   3.290486e+01   1.913512e+01
   1.613340e+01  -2.423740e+01
  -2.401055e+00  -4.644342e+01
   2.883176e+01  -6.785497e+01
   2.586840e+01   3.564544e+00
   4.291753e+01   4.959370e+01
  -4.426841e+00   4.511284e+01
  -2.029436e+01   4.139467e+01
  -4.934126e+01  -3.298801e+01
  -6.107563e-01  -5.603125e+01
   4.522795e+01  -2.224401e+01
   5.986695e+01   1.771166e+01
   7.875946e+01   2.930931e+01
  -3.324624e+01   5.976115e+01
  -7.420124e+01   2.714793e+01
  -2.362041e+01   1.326634e+01
   2.766355e+01   6.066017e+00
   3.634866e+01   7.156870e+00
  -6.906489e+00   3.178376e+01
  -6.635512e+01   1.489697e+01
