
 $NMID
 id='ANONYMOUS ', fmtdat='(2E16.6)'
 volume=1.0
 tramp=1.0
 $END
  -3.814487e+03   2.382938e+02
  -2.468347e+03  -2.218786e+03
   9.254444e+01  -2.115047e+03
   1.628754e+03  -9.633513e+02
   8.292471e+02   1.634486e+01
  -3.122157e+02   2.756195e+02
  -5.639565e+02  -2.088167e+02
  -2.521763e+01  -8.196071e+02
   4.744005e+02  -6.211928e+02
   7.573889e+02   2.310291e+01
   4.178196e+02   7.398257e+02
  -8.896084e+01   6.936012e+02
  -4.944348e+02   8.399927e+00
  -2.429706e+02  -5.259075e+02
   1.200112e+02  -6.043562e+02
   4.439314e+02  -6.011029e+01
   3.246479e+02   6.426120e+02
  -1.697871e+02   6.412007e+02
  -4.754203e+02   2.028118e+02
  -4.070471e+02  -2.579185e+02
  -1.009695e+02  -4.025286e+02
   1.467392e+02  -2.472845e+02
   1.626244e+02  -3.640897e+01
  -1.556202e+02   4.609890e+00
  -3.555822e+02  -1.500427e+02
  -8.500626e+01  -4.162539e+02
   4.458221e+02  -2.124934e+02
   7.030072e+02   1.256921e+02
   2.661678e+02   4.998453e+02
  -3.057732e+02   2.823964e+02
  -5.952694e+02  -1.358526e+02
  -2.522433e+02  -3.809992e+02
   2.291692e+02  -4.159416e+02
   5.230973e+02  -1.603952e+02
   3.199606e+02   1.907106e+02
   7.248478e+01   3.662143e+02
  -1.134253e+02   1.824353e+02
  -4.731506e+01  -1.395334e+02
   1.590728e+02  -2.439486e+02
   3.034845e+02   7.651057e+01
   8.976712e+01   5.655178e+02
  -3.182570e+02   4.952109e+02
  -4.719755e+02   6.789324e+00
  -2.262451e+02  -3.274367e+02
   1.756851e+02  -2.145032e+02
   2.399894e+02   2.485758e+02
  -9.651640e+01   4.022137e+02
  -4.937464e+02   9.431038e+01
  -5.280056e+02  -3.631472e+02
  -1.452891e+02  -5.312671e+02
   2.773203e+02  -2.509872e+02
   5.568965e+02   3.218751e+01
   4.013523e+02   3.285449e+02
  -1.199119e+02   2.779218e+02
  -3.198431e+02   4.555806e+01
  -2.040791e+02  -9.799578e+01
   1.025948e+02  -7.417492e+01
   6.213087e+01   7.654394e+01
  -9.377505e+01   1.042683e+02
  -2.817255e+02  -4.152280e+01
  -1.566852e+02  -2.684025e+02
   1.387700e+02  -2.404298e+02
   3.288893e+02  -9.686242e+01
   2.434470e+02   8.393407e+01
   1.469091e+00   2.863427e+02
  -2.836758e+02   3.864694e+02
  -3.515136e+02   1.445433e+02
  -2.620512e+02  -1.509286e+02
  -3.058550e+01  -3.668256e+02
   9.539151e+01  -3.309362e+02
   7.263384e+01  -1.483953e+02
   1.183715e+01  -7.890895e+01
   1.242122e+02  -1.045116e+02
   2.152005e+02  -9.308245e+01
   2.500004e+02   6.606600e+01
   1.078853e+02   2.782130e+02
  -9.093558e+01   2.148123e+02
  -2.051135e+02  -1.727671e+01
  -1.559393e+02  -2.414923e+02
   2.628298e+01  -2.730633e+02
   2.866824e+02  -7.633924e+01
   3.614892e+02   1.811957e+02
   1.681497e+02   3.388793e+02
  -6.161073e+01   2.521739e+02
  -1.865454e+02   1.600954e+02
  -1.320058e+02   5.589357e+01
  -1.087842e+02   7.295937e+01
  -2.563160e+02   5.527993e+01
  -4.225966e+02  -6.681243e+01
  -3.158532e+02  -2.874225e+02
   3.115877e+01  -4.327405e+02
   3.523122e+02  -4.325880e+02
   4.673362e+02  -1.943420e+02
   2.854401e+02   1.151912e+02
   5.340215e+01   2.547733e+02
  -1.069816e+02   1.956856e+02
  -2.520649e+01   1.534409e+01
   1.187906e+02  -7.590765e+01
   1.546660e+02   1.144641e+01
   3.619032e+01   1.627594e+02
  -1.196379e+02   1.209153e+02
  -1.364490e+02  -6.587971e+01
   3.598995e+01  -1.330698e+02
   1.463217e+02  -5.331875e+01
   1.636216e+02   2.344981e+02
  -3.057530e+01   3.254787e+02
  -2.475987e+02   2.092599e+02
  -3.162308e+02  -6.352736e+01
  -3.060336e+02  -2.666478e+02
  -9.603442e+01  -2.509431e+02
   1.020649e+02  -1.142466e+02
   1.511361e+02   1.009825e+01
   2.222143e+01   3.060281e+01
  -6.517206e+01  -3.559478e+01
   7.237854e+00  -9.429034e+01
   1.468605e+02  -9.327852e+01
   1.846959e+02   4.337722e-01
   6.206654e+01   6.467857e+01
  -8.891254e+01   5.892578e+00
  -5.565811e+01  -8.707213e+01
   1.394942e+02  -9.501422e+01
   2.947070e+02  -2.571518e+01
   2.432028e+02   1.580991e+02
   4.476424e+01   2.580748e+02
  -2.217640e+02   2.718466e+02
  -2.623631e+02   1.085782e+02
  -1.388354e+02  -6.509904e+01
   3.699533e+01  -1.013787e+02
   8.042242e+01   1.710119e+01
  -4.060799e+01   1.058558e+02
  -1.922527e+02   5.424660e+01
  -1.787549e+02  -1.077502e+02
  -6.145545e+01  -1.821235e+02
   5.993240e+01  -1.504271e+02
   1.066004e+02  -1.269425e+01
   7.680622e+01   2.661425e+01
  -1.721162e+01  -4.087356e+00
  -4.266746e+01  -1.104355e+02
   6.145452e+01  -1.270166e+02
   1.750185e+02  -3.057076e+00
   1.952930e+02   1.309757e+02
   2.481964e+01   2.197072e+02
  -1.729094e+02   1.248540e+02
  -1.658719e+02   1.507691e-01
  -7.209898e+01  -1.039344e+02
   6.735778e+01  -1.415338e+02
   7.503079e+01  -3.988903e+01
   3.132590e+00   1.527698e+01
  -2.207644e+01  -9.747554e-01
   7.518199e-01  -8.243996e+00
   6.535674e+01  -2.784497e+00
   8.700790e+01   9.799574e+01
   1.678049e+01   1.765761e+02
  -1.303516e+02   1.618762e+02
  -2.193501e+02   2.623288e+01
  -2.155006e+02  -1.626617e+02
  -4.316221e+01  -2.439448e+02
   8.092673e+01  -1.540299e+02
   1.075641e+02  -3.577182e+01
   7.892351e+01   4.711468e+01
   4.095322e+01   3.276161e+01
   6.443587e+01  -7.924372e+00
   7.738702e+01   8.406450e+00
   6.070973e+01   7.180662e+01
  -3.423616e+01   9.189003e+01
  -1.211163e+02   7.179771e+01
  -1.067994e+02  -5.284536e+01
   1.536767e+01  -1.092118e+02
   1.363593e+02  -8.862985e+01
   2.396107e+02   9.135433e+01
   9.007294e+01   2.091262e+02
  -1.269351e+02   2.459247e+02
  -2.655630e+02   8.723583e+01
  -2.577648e+02  -6.043384e+01
  -1.079658e+02  -1.511990e+02
   4.437005e+01  -1.397106e+02
   9.568608e+01  -8.191019e+01
   5.410853e+01  -8.067779e+01
   4.475822e+01  -7.471273e+01
   6.684016e+01  -7.288827e+01
   1.398152e+02   2.130334e+01
   1.336293e+02   1.408505e+02
   2.828692e+01   2.090161e+02
  -8.455862e+01   1.756214e+02
  -1.971521e+02   3.079992e+01
  -1.374534e+02  -1.162168e+02
  -1.898624e+01  -1.654517e+02
   8.277880e+01  -9.441929e+01
   8.488338e+01   1.523558e+01
   7.998762e+00   8.018972e+01
  -8.691094e+00   5.429451e+01
   2.169782e+01   1.171817e+01
   7.910836e+01   1.811030e+00
   5.339543e+01   1.009492e+01
  -7.459355e+01   5.102221e+01
  -1.385390e+02   3.372700e+01
  -1.439260e+02  -5.610896e+01
  -7.574764e+00  -1.014950e+02
   1.405712e+02  -6.060110e+01
   1.531534e+02  -1.857918e+01
   6.487071e+01   4.643189e+01
  -8.286902e+01   2.266377e+01
  -7.808063e+01  -3.385714e+01
   1.302177e+00  -8.411828e+01
   6.215791e+01  -5.118141e+01
   6.807320e+01   9.686856e+00
   3.447255e+01   5.679347e+01
   5.443164e+01   5.117872e+01
   4.932115e+01  -1.222265e+01
   6.424146e+01   1.014202e+01
   2.287306e+01   6.938641e+01
  -1.347385e+01   1.572036e+02
  -1.110601e+02   1.441851e+02
  -1.602467e+02   4.445783e+01
  -1.305928e+02  -8.411390e+01
  -2.564068e+00  -1.240620e+02
   5.220052e+01  -7.783209e+01
   9.028426e+01   1.881365e+01
  -2.358837e+01  -6.922676e+00
  -1.464593e+02  -6.244783e+01
  -5.267111e+01  -1.093967e+02
   7.116045e+01  -9.817165e+01
   1.504962e+02  -5.214925e+01
   1.617706e+02   3.924822e+01
   5.782766e+01   6.255161e+01
  -9.400078e+01   7.496866e+01
  -5.114123e+01  -1.003106e+01
   3.127424e+01  -2.803423e+01
   8.392701e+01   4.364091e+00
   4.022134e+01   1.107616e+02
  -7.733764e+01   1.457256e+02
  -1.841486e+02   8.088920e+01
  -1.251205e+02  -9.643305e+01
  -3.368720e+01  -1.600178e+02
   9.491547e+01  -1.775298e+02
   1.182267e+02  -3.544482e+00
   5.893255e+01   1.073957e+02
  -1.154643e+01   8.204152e+01
  -5.586988e+01   8.786058e+00
  -6.053308e+01  -4.467687e+01
  -2.521159e+01  -2.851006e+00
  -1.134470e+01   1.486639e+01
  -2.152623e+01  -3.404272e+00
  -5.357399e+01  -8.921573e+01
  -2.312741e+01  -1.224751e+02
   1.579499e+01  -5.241393e+01
   1.055306e+02   5.540233e+01
   1.312182e+02   5.967956e+01
   2.920228e+01   4.251083e+01
  -7.608349e+01   2.555634e+01
  -6.141226e+01   1.006614e+01
   7.731392e+00  -1.545353e+01
   2.546044e+01  -3.375789e+01
   2.320064e+01  -1.219681e+01
   3.367987e+00   1.136714e+01
   9.717837e+00  -7.971299e+00
   8.079566e+01  -1.895124e+01
   9.231756e+01   8.633301e+00
   1.209886e+01   8.900229e+01
  -1.002537e+02   1.203239e+02
  -1.555043e+02   6.002147e+01
  -1.533271e+02  -2.349883e+01
  -1.734922e+01  -1.832405e+02
   9.696718e+01  -1.791770e+02
   1.198462e+02  -5.126768e+01
   7.770672e+01  -2.872511e-01
   2.644034e+01   3.656083e+01
   4.145197e+00   1.933277e+01
  -8.603254e+00  -4.667634e+00
   4.367644e+01   4.455195e+01
   4.001695e+01   1.082848e+02
  -5.232700e+01   7.487191e+01
  -9.082400e+01  -2.333100e+01
  -9.923136e+01  -1.069747e+02
  -8.384727e+00  -1.049929e+02
   3.405685e+01  -4.254369e+01
   9.988486e+01   4.448250e+01
   6.018516e+01   9.583508e+01
  -6.145962e+01   6.944555e+01
  -9.216594e+01  -3.035633e+00
  -5.109759e+01  -6.039704e+01
   3.430301e+01  -4.888783e+01
   2.836112e+01   1.292563e+01
  -2.907806e+01  -2.019836e+01
  -5.476993e+01   1.570940e+01
  -8.342799e+00  -3.107880e+01
   9.856459e+01  -8.796742e+01
   1.225058e+02  -4.352580e+01
   7.695881e+01  -5.850641e+00
  -7.298940e+00   8.471746e+01
  -4.907395e+01   7.592004e+01
  -5.117063e+01   2.374751e+01
  -1.374162e+01  -5.186311e+01
   4.999745e+01  -3.971857e+01
   5.835990e+01   1.490087e+01
   5.124130e+01   4.974897e+01
  -1.525785e+01   6.712409e+01
  -1.740248e+01  -8.098169e+00
  -5.224441e+01   1.563743e+00
  -2.342395e+01   4.971630e+00
   1.145936e+01   1.788659e+01
   2.016496e+01  -1.332977e+01
  -5.602600e+00  -5.658807e+01
   7.134692e+00  -3.293382e+01
   1.967683e+01  -1.376103e+01
   3.717037e+01   3.611015e+01
   2.776004e+00   4.271451e+01
  -4.591377e+01   1.051846e+01
  -6.197789e+01  -4.650582e+01
  -2.919753e+01  -5.573224e+01
   7.773294e+01  -5.201872e+01
   1.094636e+02  -1.929953e+01
   5.125105e+01   4.791234e+01
  -6.844893e+01   5.088661e+01
  -6.456375e+01   1.574977e+01
  -3.915414e+01   2.672823e+01
   3.017522e+01  -5.912373e+00
   4.319711e+01  -5.208989e+00
  -3.671456e+01   3.313085e+01
  -1.104090e+02   1.603476e+01
