
 $NMID
 id='ANONYMOUS ', fmtdat='(2E16.6)'
 volume=1.0
 tramp=1.0
 $END
   3.838758e+03  -7.585089e+01
   2.535277e+03   2.274490e+03
  -5.930943e+02   2.339862e+03
  -1.985002e+03   8.435777e+02
  -8.471399e+02  -4.635882e+02
   6.671163e+02  -6.063650e+02
   5.748725e+02   3.596020e+02
  -1.886252e+02   7.487162e+02
  -8.528454e+02   6.005324e+02
  -9.109011e+02  -1.354056e+02
  -3.919333e+02  -7.562125e+02
   2.745353e+02  -7.933768e+02
   5.262191e+02  -1.036058e+02
   3.447816e+02   5.893706e+02
  -2.423196e+02   7.108493e+02
  -5.156262e+02   5.577785e+01
  -2.729452e+02  -7.063589e+02
   2.718252e+02  -5.410575e+02
   5.772094e+02  -1.188487e+02
   3.929403e+02   3.013535e+02
   5.902731e+01   4.009006e+02
  -1.909571e+02   2.386934e+02
  -1.412762e+02   4.093582e+01
   1.596872e+02  -5.506753e+01
   3.544967e+02   1.612067e+02
   7.781879e+01   4.170498e+02
  -5.207564e+02   2.658910e+02
  -8.625479e+02  -1.564975e+02
  -2.760723e+02  -4.839923e+02
   4.178958e+02  -4.240952e+02
   7.114123e+02   1.358553e+02
   2.806655e+02   4.292478e+02
  -3.094112e+02   4.130915e+02
  -4.951907e+02   1.768773e+02
  -3.627265e+02  -1.844550e+02
  -8.554521e+01  -3.562832e+02
   1.473768e+02  -2.392597e+02
   8.755471e+01   1.509289e+02
  -1.544590e+02   3.847276e+02
  -3.845632e+02  -1.235009e+02
  -1.563096e+02  -6.507602e+02
   3.200157e+02  -5.943846e+02
   5.568724e+02   5.378813e+01
   1.826360e+02   4.131169e+02
  -1.807406e+02   2.365884e+02
  -2.950006e+02  -3.407157e+02
   1.203329e+02  -5.087801e+02
   5.095504e+02  -9.646473e+01
   5.645306e+02   4.244304e+02
   1.168989e+02   5.453735e+02
  -3.580785e+02   2.801931e+02
  -6.144267e+02  -1.092037e+02
  -3.697457e+02  -3.470925e+02
   1.167229e+02  -3.055026e+02
   3.983840e+02  -3.515622e+00
   1.731508e+02   1.236420e+02
  -8.390359e+01   1.081026e+02
  -7.587618e+01  -9.804340e+01
   1.358074e+02  -1.369994e+02
   3.164473e+02   6.223729e+01
   1.704823e+02   2.546133e+02
  -1.645506e+02   2.052828e+02
  -3.423647e+02   1.148235e+02
  -2.015959e+02  -8.795359e+01
   2.691000e+01  -2.536320e+02
   2.522572e+02  -3.104585e+02
   3.648989e+02  -1.844271e+02
   2.472901e+02   1.471887e+02
   2.744655e+01   3.849148e+02
  -9.683869e+01   3.621629e+02
  -7.343536e+01   1.007470e+02
  -3.309719e+01   3.943227e+01
  -5.413289e+01   8.396415e+01
  -2.141678e+02   9.238709e+01
  -2.537652e+02  -7.233930e+01
  -1.456373e+02  -2.588065e+02
   1.135125e+02  -2.056397e+02
   2.505233e+02   1.333453e+01
   1.985753e+02   2.322424e+02
  -2.931319e+01   2.842387e+02
  -2.736510e+02   1.030193e+02
  -3.490385e+02  -1.352887e+02
  -1.739574e+02  -3.101099e+02
   9.355229e+01  -2.828248e+02
   1.836261e+02  -1.300528e+02
   1.195278e+02  -2.547627e+01
   1.191464e+02  -4.791672e+01
   2.627582e+02  -1.584644e+01
   3.968134e+02   7.888030e+01
   3.095978e+02   2.720812e+02
   3.360648e+00   4.347005e+02
  -3.737868e+02   3.854766e+02
  -4.882516e+02   1.766386e+02
  -3.224799e+02  -1.393665e+02
  -2.016302e+01  -2.961074e+02
   1.412316e+02  -2.325950e+02
   6.437839e+01  -6.554020e+00
  -1.239903e+02   5.597586e+01
  -1.664757e+02  -5.841811e+01
   6.202703e-01  -1.797435e+02
   1.695756e+02  -1.484104e+02
   1.779014e+02   7.294425e+01
  -5.570156e+01   2.095785e+02
  -1.753751e+02   2.289601e+01
  -1.370440e+02  -2.906942e+02
   5.573711e+01  -3.408774e+02
   2.339685e+02  -1.949058e+02
   3.257762e+02   3.388363e+01
   2.905503e+02   2.322303e+02
   6.891807e+01   2.599599e+02
  -1.259899e+02   1.718404e+02
  -1.752271e+02   3.179130e+01
  -3.586182e+01  -4.426927e+01
   4.962840e+01   2.279538e+01
   2.489233e+01   9.925738e+01
  -1.249257e+02   5.908144e+01
  -1.781361e+02  -3.393088e+01
  -5.356921e+01  -5.710254e+01
   9.621590e+01  -2.651751e+01
   3.856893e+01   8.045336e+01
  -1.235260e+02   1.145337e+02
  -2.950210e+02   3.195609e+00
  -2.103789e+02  -1.103477e+02
  -6.508762e+01  -2.710509e+02
   1.883684e+02  -2.301425e+02
   2.530211e+02  -9.702665e+01
   1.453989e+02   2.986456e+01
  -2.990484e+01   8.633408e+01
  -9.088528e+01  -2.260595e+01
   6.460267e+01  -9.473100e+01
   1.792314e+02  -4.717832e+01
   1.818393e+02   1.092003e+02
   5.773211e+01   1.855801e+02
  -6.999470e+01   1.298102e+02
  -1.361398e+02   6.925968e+00
  -7.673787e+01  -4.260072e+01
   5.034013e+01  -2.240955e+00
   6.812969e+01   8.564111e+01
  -6.508802e+01   1.018080e+02
  -2.245530e+02   2.200036e+01
  -1.652872e+02  -1.649370e+02
  -5.021858e+01  -2.034357e+02
   1.362714e+02  -1.529283e+02
   1.765316e+02  -2.984980e+01
   3.289602e+01   1.008429e+02
  -5.798351e+01   8.392802e+01
  -7.390331e+01   2.929079e+01
   1.048037e+00  -3.508195e+01
   2.041487e+01  -2.644381e+01
   7.321083e+00   1.956154e+01
  -7.360321e+01   1.448465e+01
  -9.107172e+01  -9.123178e+01
  -1.822732e+01  -1.428493e+02
   1.263778e+02  -1.666880e+02
   2.549741e+02  -1.621721e+01
   2.072046e+02   1.355909e+02
   4.231530e+01   2.209239e+02
  -8.532500e+01   1.825303e+02
  -1.085259e+02   3.818104e+01
  -8.165980e+01  -6.489350e+01
  -3.110354e+01  -3.377630e+01
  -5.922377e+01   1.824130e+01
  -8.762430e+01  -1.724846e+01
  -5.230199e+01  -5.102348e+01
   3.109099e+01  -7.503769e+01
   1.056758e+02  -5.702210e+01
   9.380770e+01   4.150550e+01
  -3.761848e+01   1.154976e+02
  -1.513487e+02   8.976714e+01
  -1.875734e+02  -6.735708e+01
  -1.003081e+02  -2.142669e+02
   1.539183e+02  -2.173402e+02
   2.732521e+02  -8.066592e+01
   2.401154e+02   6.195714e+01
   1.187851e+02   1.983484e+02
  -3.579741e+01   1.513950e+02
  -7.634550e+01   9.346747e+01
  -8.112157e+01   6.067155e+01
  -6.515012e+01   8.704281e+01
  -8.882248e+01   5.093577e+01
  -1.375655e+02  -2.796990e+01
  -1.218518e+02  -1.383800e+02
  -4.240015e+01  -2.031780e+02
   1.156819e+02  -1.706345e+02
   1.441827e+02  -1.728243e+01
   1.179174e+02   1.238976e+02
   2.896416e+00   1.704171e+02
  -5.434950e+01   8.641917e+01
  -5.488963e+01   1.292245e+00
  -1.893304e+01  -3.105765e+01
   5.292879e+00  -4.641743e+01
  -3.428190e+01  -1.616032e+01
  -5.685021e+01  -1.227699e+01
  -3.691138e+01  -3.597390e+01
   8.263390e+01  -4.386359e+01
   1.459947e+02   3.837343e+00
   1.189775e+02   5.608214e+01
  -8.631929e+00   9.991877e+01
  -1.381682e+02   6.965106e+01
  -1.472199e+02   9.778302e+00
  -5.404006e+01  -4.844429e+01
   7.738820e+01  -1.487388e+01
   7.608437e+01  -3.314039e+00
   1.381682e+01   8.285865e+01
  -6.113614e+01   4.443144e+01
  -7.037724e+01  -4.456791e+01
  -2.546445e+01  -6.620860e+01
  -4.497306e+01  -5.118460e+01
  -6.536225e+01   5.149209e-01
  -6.326217e+01   1.462250e+01
  -3.343656e+01  -5.053233e+01
   4.882199e+01  -1.192428e+02
   1.112810e+02  -1.370844e+02
   1.792608e+02  -1.507597e+01
   1.158042e+02   9.811911e+01
  -1.192043e+01   1.295486e+02
  -1.045168e+02   2.628076e+01
  -6.499257e+01   1.396685e+01
   3.884661e+01  -4.617784e+01
   1.444945e+02   2.972339e+01
   8.426807e+01   1.059865e+02
  -6.747065e+01   1.213784e+02
  -2.042538e+02   3.525417e+01
  -1.234775e+02  -4.086985e+01
  -3.387469e+01  -7.492214e+01
   9.603069e+01  -6.181220e+01
   4.362242e+01  -1.217305e+01
  -2.079122e+01   2.752026e+01
  -8.898567e+01  -1.483433e+01
  -2.542871e+01  -1.274812e+02
   7.452564e+01  -1.368217e+02
   1.654191e+02  -5.709042e+01
   1.139841e+02   1.007218e+02
   2.124207e+01   1.875503e+02
  -6.350196e+01   1.304650e+02
  -1.070287e+02   1.949428e+01
  -6.858757e+01  -1.158454e+02
  -5.460150e+00  -1.220747e+02
   4.367803e+01   3.452112e+00
   4.040659e+01   2.603097e+01
   7.304564e+00   7.395284e+00
   1.016996e+01  -2.725418e+01
   7.821853e+00   2.008509e+01
   5.802100e+01   9.769760e+01
   1.951003e+01   8.098758e+01
  -5.234546e+01   4.095034e+01
  -1.165302e+02  -2.787969e+01
  -1.092679e+02  -8.880667e+01
  -2.898954e+00  -1.326865e+01
   1.027763e+02  -1.886467e+01
   8.461455e+01  -1.628689e+01
   1.033866e+01   4.146044e+00
  -3.482151e+01   2.757497e+01
  -6.710688e+00   1.851611e+01
   2.644153e+01   5.057257e+00
  -1.033958e+01   3.426936e+00
  -7.122065e+01   1.143241e+01
  -1.091736e+02  -6.882980e+00
  -5.574257e+00  -9.393424e+01
   1.311580e+02  -1.093134e+02
   1.904434e+02  -6.851847e+01
   1.436892e+02   6.242245e+01
   3.404481e+01   1.719386e+02
  -8.065328e+01   1.409879e+02
  -1.111176e+02   6.962084e+01
  -7.161874e+01  -2.077226e+01
  -6.146307e+01  -5.856713e+01
   1.674039e+01  -1.144661e+01
  -6.043527e+00   4.759638e+00
  -2.613225e+01  -6.103827e+01
  -1.157604e+01  -8.258838e+01
   3.867160e+01  -7.538080e+01
   7.776059e+01   3.609337e+01
   5.801876e+01   1.147774e+02
   1.859339e+01   9.102435e+01
  -4.952797e+01   2.921084e+01
  -9.910942e+01  -9.381899e+01
  -3.393064e+01  -1.140357e+02
   6.309001e+01  -5.996815e+01
   9.909758e+01   4.152792e+00
   3.019394e+01   4.396338e+01
  -3.203435e+01   5.756476e+01
  -1.684447e+01   5.215325e+01
   3.353722e+01   1.575161e+01
   8.585417e+01   5.209909e-01
   3.028725e+01   1.252774e+01
  -6.964659e+01   7.109430e+01
  -1.190505e+02   5.914182e+01
  -7.349445e+01  -2.147383e+01
   4.105859e+01  -6.194253e+01
   5.157031e+01  -7.090897e+01
   5.708033e+01   4.284913e+00
   9.947141e+00   6.111567e+01
  -3.486496e+01   5.991277e+01
  -4.293347e+01  -3.226175e+01
  -1.184440e+01  -4.642924e+01
  -2.027481e-02  -3.835875e+01
   4.070242e+01  -3.938843e+00
   3.906381e+01   3.249662e+01
   2.608098e+01   3.133092e+00
  -8.111126e+00  -1.706197e+01
  -4.596278e-01   1.920667e+00
   1.466053e+01   3.270514e+01
  -1.628432e+01   3.658303e+01
  -3.169941e+01  -1.933032e+01
  -4.896862e+01  -3.166643e+01
   7.065829e-01  -5.425950e+01
   5.397995e+01  -7.778937e+00
   4.375857e+01   7.987349e+00
   1.842986e+01   6.568374e+01
  -5.196080e+01   2.146133e+01
  -8.334302e+01  -2.425125e+01
  -4.645123e+01  -3.715815e+01
   1.600895e+01  -4.264987e+01
   5.248331e+01   1.100019e+00
   4.645736e+01   1.693717e+01
  -1.496158e+01   1.351582e+01
  -2.370262e+01  -4.021058e+01
   1.931537e+01  -4.814058e+01
   9.717304e+01  -5.450738e+00
