
 $NMID
 id='ANONYMOUS ', fmtdat='(2E16.6)'
 volume=1.0
 tramp=1.0
 $END
  -3.257766e+03   5.408233e+01
  -2.380356e+03  -1.974368e+03
   4.815210e+02  -2.613183e+03
   1.639096e+03  -1.362703e+03
   9.565460e+02   1.732813e+02
  -2.239462e+02   5.210166e+02
  -7.190024e+02  -1.753344e+02
  -8.148217e+01  -7.899195e+02
   6.221036e+02  -8.216063e+02
   8.694410e+02  -1.350097e+01
   5.739998e+02   6.970701e+02
  -1.782713e+02   8.201777e+02
  -4.827079e+02   2.550578e+02
  -3.713890e+02  -5.439282e+02
   2.216843e+02  -6.718220e+02
   5.012887e+02  -8.487278e+01
   3.396712e+02   5.597581e+02
  -2.068846e+02   6.311803e+02
  -5.147173e+02   2.034364e+02
  -4.257874e+02  -2.562058e+02
  -1.042594e+02  -4.386528e+02
   2.016037e+02  -2.589733e+02
   1.347295e+02  -6.529013e+01
  -5.202920e+01   1.714649e+00
  -2.978273e+02  -2.090869e+02
  -1.260832e+02  -3.299608e+02
   4.681406e+02  -2.725864e+02
   6.683850e+02   4.137340e+01
   4.051672e+02   4.013516e+02
  -2.922962e+02   3.333423e+02
  -6.608513e+02  -4.960848e+01
  -3.220333e+02  -3.912196e+02
   2.839362e+02  -4.580434e+02
   4.634695e+02  -2.048559e+02
   3.826374e+02   2.004824e+02
   9.490725e+01   3.764283e+02
  -1.037543e+02   2.768508e+02
  -9.041713e+01  -1.164261e+02
   1.046379e+02  -3.177912e+02
   3.125258e+02   4.416767e+01
   2.146350e+02   6.452501e+02
  -2.368946e+02   6.758716e+02
  -4.626572e+02   5.974490e+01
  -2.190686e+02  -4.370156e+02
   2.052266e+02  -2.569272e+02
   3.315726e+02   2.755152e+02
  -8.574754e+01   4.872521e+02
  -5.177923e+02   1.171482e+02
  -5.034133e+02  -3.597599e+02
  -1.697702e+02  -5.014495e+02
   3.478349e+02  -3.578267e+02
   5.835930e+02   2.294742e+01
   3.658404e+02   2.763942e+02
  -4.902831e+01   2.863187e+02
  -3.973652e+02   1.291533e+02
  -2.274788e+02  -1.129243e+02
   4.311023e+01  -7.623247e+01
   1.590040e+02   9.342577e+01
  -1.128372e+02   1.146990e+02
  -3.494830e+02  -5.855697e+01
  -1.292031e+02  -2.443591e+02
   1.793083e+02  -2.534168e+02
   2.948585e+02  -8.433316e+01
   1.982635e+02   1.279880e+02
  -6.583570e+01   2.786709e+02
  -2.784015e+02   3.140929e+02
  -3.663804e+02   2.020310e+02
  -2.458509e+02  -1.282008e+02
  -7.892387e+01  -4.375805e+02
   9.438782e+01  -3.479309e+02
   9.190974e+01  -1.310271e+02
   4.314515e+01  -6.918138e+01
   8.773170e+01  -1.298999e+02
   2.094280e+02  -1.146222e+02
   2.415729e+02   6.275082e+01
   1.216360e+02   2.470058e+02
  -6.134009e+01   2.096470e+02
  -1.827605e+02  -8.907404e+00
  -1.894747e+02  -2.205175e+02
   1.467024e+01  -2.905477e+02
   2.298610e+02  -1.064719e+02
   3.186972e+02   9.785829e+01
   2.017905e+02   3.302834e+02
  -7.921742e+01   2.481025e+02
  -2.085767e+02   1.628650e+02
  -1.396591e+02   5.589602e+01
  -1.084793e+02   4.948173e+01
  -2.427160e+02   4.412889e+01
  -3.729912e+02  -6.029220e+01
  -3.293455e+02  -2.605337e+02
   1.578815e+01  -3.963494e+02
   3.512457e+02  -3.829565e+02
   4.553441e+02  -1.613848e+02
   2.974290e+02   9.889039e+01
   4.466304e+01   2.615154e+02
  -9.052199e+01   2.341075e+02
  -2.916168e+01   6.380348e+01
   1.028394e+02  -7.431231e+01
   1.668470e+02   1.961161e+01
   3.900744e+01   1.361858e+02
  -1.078364e+02   1.230329e+02
  -1.270962e+02  -4.672824e+01
   5.157964e+01  -1.771187e+02
   1.587309e+02  -4.872959e+01
   1.396937e+02   2.145426e+02
  -6.493788e+00   3.287395e+02
  -2.516223e+02   2.004319e+02
  -3.219968e+02  -4.512720e+01
  -3.015206e+02  -2.311867e+02
  -9.654449e+01  -2.716022e+02
   1.156627e+02  -1.475639e+02
   1.785940e+02  -4.535999e+01
   2.943629e+01   1.006409e+01
  -3.222877e+01  -7.147582e+01
  -4.994530e+00  -8.375706e+01
   1.190391e+02  -7.066355e+01
   1.782707e+02   3.375764e+01
   3.644942e+01   4.769307e+01
  -9.044307e+01   9.866029e+00
  -5.860675e+01  -7.268793e+01
   1.286706e+02  -8.685696e+01
   2.906647e+02   8.100175e+00
   2.679547e+02   1.603033e+02
   6.040505e+01   2.444125e+02
  -1.887725e+02   2.472166e+02
  -2.582616e+02   1.224064e+02
  -1.392198e+02  -3.406200e+01
   4.122893e+01  -8.784646e+01
   1.009450e+02  -8.243811e+00
  -4.906025e+01   8.037229e+01
  -1.776272e+02   6.191866e+01
  -1.931244e+02  -9.552046e+01
  -8.789390e+01  -1.914004e+02
   4.621643e+01  -1.488161e+02
   1.110209e+02  -8.768321e+00
   6.203458e+01   4.173375e+01
  -1.762514e+01  -5.074580e+00
  -1.432095e+01  -1.279557e+02
   8.584860e+01  -1.175102e+02
   1.953440e+02  -3.899194e+01
   1.766280e+02   1.165957e+02
   4.669934e+01   2.085688e+02
  -1.652383e+02   1.399258e+02
  -1.604004e+02   2.804203e+01
  -8.215378e+01  -1.154062e+02
   7.600855e+01  -1.285485e+02
   7.604286e+01  -3.440132e+01
   4.445653e+01   5.761546e-01
  -4.912509e+01   2.733444e+01
  -7.369454e+00  -5.117632e+01
   5.158186e+01  -1.155086e+01
   8.677207e+01   9.265902e+01
   1.897218e+01   1.644267e+02
  -1.522744e+02   1.622239e+02
  -2.388645e+02   4.194860e+01
  -2.016298e+02  -1.469544e+02
  -5.083444e+01  -2.631045e+02
   9.749023e+01  -1.613879e+02
   1.605027e+02  -3.934007e+01
   6.990287e+01   5.254435e+01
   2.102780e+01   3.067853e+01
   6.483906e+01  -1.156938e+01
   8.791897e+01  -2.564200e+01
   3.366427e+01   3.215705e+01
  -6.717871e+01   8.178778e+01
  -9.410665e+01   3.191590e+01
  -7.496015e+01  -3.987844e+01
   9.147662e+00  -1.044637e+02
   1.433944e+02  -6.069144e+01
   1.788076e+02   7.807670e+01
   9.949747e+01   2.047183e+02
  -1.077705e+02   2.371318e+02
  -2.805754e+02   7.351123e+01
  -2.666552e+02  -1.013616e+02
  -9.407566e+01  -1.746696e+02
   5.121565e+01  -1.317072e+02
   6.730136e+01  -6.325709e+01
   6.748227e+01  -6.468441e+01
   5.880038e+01  -1.049223e+02
   1.079957e+02  -7.830645e+01
   1.642970e+02   1.883624e+01
   1.063949e+02   1.309439e+02
   6.075011e+01   2.061439e+02
  -1.005477e+02   1.687912e+02
  -2.005026e+02   2.354359e+01
  -1.639110e+02  -1.207910e+02
  -2.148454e+01  -1.433792e+02
   8.753753e+01  -8.922574e+01
   5.547211e+01   4.290185e+00
   3.637682e+00   6.380572e+01
  -4.482888e+01   2.937822e-01
  -2.605911e+00   1.993931e+01
   7.232632e+01   2.675587e+01
   4.568331e+01   6.027960e+01
  -6.167860e+01   3.563565e+01
  -1.657041e+02   8.589614e+00
  -1.535493e+02  -4.397675e+01
  -4.508714e+01  -9.765550e+01
   9.997778e+01  -6.633674e+01
   1.565452e+02   1.346950e+01
   6.207663e+01   4.787270e+01
  -5.353264e+01   3.291971e+01
  -1.101489e+02  -2.650670e+01
  -1.073974e+01  -7.389794e+01
   3.306298e+01  -5.361084e+01
   5.507306e+01   3.546127e+00
   6.072144e+01   7.027712e+01
   4.216143e+01  -1.632283e+00
   3.994924e+01   1.867248e+01
   6.173905e+01   1.146505e+01
   4.864386e+01   7.606104e+01
  -1.482883e+00   1.567861e+02
  -1.242241e+02   1.332716e+02
  -1.666940e+02   4.393340e+01
  -1.147745e+02  -7.803071e+01
   1.657514e+01  -1.131477e+02
   1.017976e+02  -2.344893e+01
   7.826569e+01   2.978592e+01
  -5.435342e+01   6.330515e+00
  -1.363629e+02  -4.005979e+01
  -6.400819e+01  -1.018712e+02
   6.217130e+01  -9.641598e+01
   1.709260e+02  -5.455187e+01
   1.566905e+02   4.871485e+01
   4.349845e+01   6.441744e+01
  -3.654007e+01   6.776685e+01
  -5.119470e+01   5.531554e+00
   5.572977e+01  -8.631815e+00
   9.292958e+01   1.850485e+01
   5.065930e+01   8.575060e+01
  -8.507659e+01   1.508075e+02
  -1.605982e+02   6.552978e+01
  -1.558721e+02  -1.029715e+02
  -7.025836e+00  -1.776836e+02
   8.794502e+01  -1.525873e+02
   9.073453e+01  -8.213759e+00
   6.898701e+01   1.126699e+02
   2.695269e+00   1.030953e+02
  -3.834359e+01   1.627573e+00
  -4.492181e+01  -2.927576e+01
  -3.945263e+01  -1.323099e+01
  -2.407865e+00  -1.620905e+01
  -2.473180e+01  -8.167482e+00
  -6.267596e+01  -8.176686e+01
  -2.646651e+01  -1.160755e+02
   2.887298e+01  -6.661524e+01
   1.513831e+02   7.282255e+00
   1.204577e+02   9.048737e+01
   3.389279e+01   6.248920e+01
  -1.030116e+02   4.326087e+01
  -7.796301e+01   2.956035e+00
   2.396803e+01  -1.735690e+01
   2.070831e+01  -1.520126e+01
   2.235994e+01  -3.022762e+01
  -4.659019e+00   3.805282e+00
   1.880941e+01  -3.045885e+00
   7.193348e+01  -3.646428e+01
   6.978683e+01   5.380872e+01
   1.664667e+01   8.584647e+01
  -1.020872e+02   9.679412e+01
  -1.723852e+02   7.771097e+01
  -1.565836e+02  -4.675173e+01
  -3.808131e+01  -1.459340e+02
   6.222466e+01  -1.780612e+02
   1.217490e+02  -8.978643e+01
   9.184656e+01   1.433022e+01
   2.156543e+01   5.468912e+01
   1.202269e+01  -1.652581e+01
   1.394160e+01   7.700137e+00
   3.415934e+01   6.016980e+01
  -5.695775e+00   1.033713e+02
  -4.648768e+01   9.085244e+01
  -5.232921e+01  -4.873746e+00
  -9.217555e+01  -8.194581e+01
  -2.254197e+01  -9.516594e+01
   8.557470e+01  -3.099599e+01
   9.961328e+01   8.435365e+01
   3.695270e+01   1.105779e+02
  -5.663533e+01   7.687540e+01
  -8.665274e+01   2.693410e+01
  -4.386513e+01  -2.792981e+01
   2.485946e+01  -4.694738e+01
   2.888748e+01  -3.531927e+01
  -3.135423e+01   1.911281e+00
  -6.811051e+01  -5.895957e+00
  -1.791845e+01  -2.329403e+01
   6.893660e+01  -6.867845e+01
   1.016718e+02  -5.720290e+01
   6.031947e+01   1.921930e+01
  -8.366180e+00   9.167082e+01
  -6.899639e+01   6.756848e+01
  -6.642641e+01   2.633350e+01
   1.000445e+01  -3.324126e+01
   1.522367e+01  -6.163762e+01
   4.059745e+01   1.132693e+01
   3.823577e+01   4.662500e+01
   2.618774e+01   2.974917e+01
  -2.089903e+01   2.191281e+00
  -3.802665e+01  -2.686063e+01
  -6.066868e+00  -1.353886e+01
   1.460786e+01   2.322209e-01
  -2.220394e+01   1.664563e+01
   2.998556e+00  -3.026890e+01
   8.843648e-01  -5.507977e+01
   2.816749e+01  -1.891762e+01
   3.281514e+01   3.726668e+01
  -9.868244e+00   4.697596e+01
  -3.959199e+01   1.423294e+01
  -4.151974e+01  -1.345438e+01
  -2.917141e+01  -6.405758e+01
   5.230172e+01  -2.141080e+01
   9.879655e+01  -2.434166e+00
   3.837285e+01   2.430398e+01
  -2.628377e+01   4.550345e+01
  -7.303516e+01   5.704967e+01
  -4.052208e+01   1.188037e+01
   6.619283e+01  -2.057195e+01
   3.023528e+01   2.422522e+01
  -2.153253e+01   2.125715e+01
  -7.906539e+01   8.980454e+00
