
 $NMID
 id='ANONYMOUS ', fmtdat='(2E16.6)'
 volume=1.0
 tramp=1.0
 $END
   3.951947e+03  -9.870078e+00
   2.424180e+03   2.116709e+03
  -2.283091e+02   2.687235e+03
  -1.762262e+03   1.148714e+03
  -9.062631e+02  -3.367813e+02
   4.137768e+02  -4.342165e+02
   7.508429e+02   2.718233e+02
   1.051257e+02   7.948339e+02
  -7.009359e+02   8.016018e+02
  -8.929565e+02   1.867579e+01
  -4.249878e+02  -7.513525e+02
   1.271690e+02  -9.094117e+02
   5.218256e+02  -1.225100e+02
   3.426318e+02   5.752798e+02
  -1.969477e+02   6.637037e+02
  -5.617370e+02   5.643113e+01
  -3.394976e+02  -6.401299e+02
   2.597123e+02  -6.304179e+02
   5.075132e+02  -2.069012e+02
   4.301959e+02   2.780461e+02
   4.123798e+01   4.471467e+02
  -1.779406e+02   2.556670e+02
  -1.684582e+02   8.288756e+01
   1.798574e+02  -5.952824e+01
   3.881813e+02   1.381209e+02
   1.556032e+02   4.325942e+02
  -4.447568e+02   3.137584e+02
  -7.238581e+02  -1.003488e+02
  -3.393269e+02  -5.184202e+02
   4.802007e+02  -3.565191e+02
   6.340409e+02   1.482844e+02
   3.138700e+02   4.278339e+02
  -2.302427e+02   4.512472e+02
  -4.864247e+02   1.287054e+02
  -3.604364e+02  -2.456238e+02
  -5.884747e+01  -3.715499e+02
   1.033913e+02  -2.588257e+02
   3.261842e+01   5.845504e+01
  -1.706621e+02   2.771941e+02
  -3.660501e+02  -1.098683e+02
  -1.727043e+02  -5.832677e+02
   2.625070e+02  -6.842972e+02
   4.820707e+02  -4.486322e+01
   1.800088e+02   4.339254e+02
  -2.605392e+02   2.169460e+02
  -2.965728e+02  -3.261631e+02
   8.676518e+01  -4.950167e+02
   5.399350e+02  -1.307120e+02
   5.693730e+02   4.119145e+02
   2.292135e+02   5.816690e+02
  -3.737696e+02   3.229119e+02
  -5.890194e+02  -3.062956e+01
  -3.787696e+02  -3.381666e+02
   8.612260e+01  -3.251939e+02
   3.964262e+02  -8.180847e+01
   2.302336e+02   1.513236e+02
  -2.516156e+01   6.875204e+01
  -1.368626e+02  -1.305913e+02
   1.319336e+02  -1.457399e+02
   3.281059e+02   5.773081e+01
   1.031712e+02   2.426251e+02
  -1.976181e+02   2.523916e+02
  -3.304978e+02   1.170747e+02
  -2.290249e+02  -1.001077e+02
   4.694002e+00  -2.768904e+02
   2.404300e+02  -3.585042e+02
   3.616067e+02  -2.114610e+02
   2.673645e+02   1.559165e+02
   5.672040e+01   4.139952e+02
  -1.063617e+02   3.798057e+02
  -6.881387e+01   1.655395e+02
  -7.027289e+00   2.750424e+01
  -8.571185e+01   9.765693e+01
  -2.159402e+02   8.697875e+01
  -2.812392e+02  -6.023492e+01
  -1.444304e+02  -2.802097e+02
   4.794512e+01  -2.292698e+02
   2.035969e+02   2.154466e+01
   1.629956e+02   2.286142e+02
   2.385967e+01   2.889183e+02
  -2.292062e+02   8.374876e+01
  -3.493539e+02  -1.741573e+02
  -1.674261e+02  -3.212949e+02
   7.199681e+01  -2.672783e+02
   2.052686e+02  -1.471415e+02
   1.245953e+02  -4.786995e+01
   1.394743e+02  -4.724968e+01
   2.498090e+02  -8.334719e+01
   4.479274e+02   8.585972e+01
   3.194883e+02   2.845543e+02
   3.113919e+00   4.581894e+02
  -3.589792e+02   4.475955e+02
  -4.836849e+02   2.115791e+02
  -3.030000e+02  -7.824299e+01
  -4.677766e+01  -2.695211e+02
   1.248716e+02  -2.326890e+02
   4.631745e+01  -1.376641e+01
  -1.137708e+02   8.035105e+01
  -1.821043e+02  -2.360870e+01
  -7.452106e+00  -1.647179e+02
   1.499210e+02  -2.029059e+02
   1.553841e+02   5.675653e+01
  -2.267651e+01   1.573163e+02
  -2.029929e+02   2.280029e+01
  -1.820454e+02  -2.442032e+02
   3.512883e+00  -3.771822e+02
   2.621556e+02  -1.959317e+02
   3.382603e+02   5.249893e+01
   2.778136e+02   2.672327e+02
   5.964362e+01   2.834050e+02
  -1.489946e+02   1.611568e+02
  -1.479590e+02   5.135486e+01
  -6.757190e+01  -4.476829e+01
   9.945863e+01   2.025903e+01
   1.548912e+01   1.430876e+02
  -1.342342e+02   1.105914e+02
  -1.690473e+02  -5.419857e+00
  -4.615113e+01  -6.601243e+01
   1.059088e+02   5.023341e+01
   7.278410e+01   9.827987e+01
  -1.392889e+02   9.756690e+01
  -3.069887e+02  -3.336060e+01
  -2.811324e+02  -1.583123e+02
  -6.888461e+01  -2.525284e+02
   1.905381e+02  -2.698257e+02
   2.671982e+02  -1.218903e+02
   1.733760e+02   6.597695e+01
  -2.072815e+01   9.085531e+01
  -1.169812e+02   1.254719e+00
   3.952054e+01  -7.279371e+01
   1.864002e+02  -4.610091e+01
   2.114558e+02   7.831576e+01
   6.591650e+01   1.774090e+02
  -9.049021e+01   1.494954e+02
  -1.485572e+02   3.577711e+01
  -4.712653e+01  -2.599380e+01
   6.698886e+00  -1.108509e+01
  -9.179108e+00   1.005040e+02
  -9.378474e+01   1.246536e+02
  -2.034957e+02   8.351305e+00
  -2.274580e+02  -1.615908e+02
  -2.994644e+01  -2.212173e+02
   1.575531e+02  -2.078060e+02
   2.095875e+02  -1.639563e+01
   5.522594e+01   1.194558e+02
  -7.606697e+01   1.159774e+02
  -8.793256e+01   3.121647e+01
  -5.325784e+00  -4.078476e+01
   2.014870e+00  -5.128011e+00
  -1.834607e+01   9.300033e+00
  -9.969547e+01  -2.651250e+01
  -1.087456e+02  -7.458254e+01
  -1.358832e+01  -1.861178e+02
   1.161856e+02  -1.783440e+02
   2.431370e+02  -3.563102e+01
   2.177909e+02   1.770731e+02
   3.940300e+01   2.528648e+02
  -1.049906e+02   1.740917e+02
  -1.215677e+02   1.732797e+01
  -6.946534e+01  -4.653550e+01
  -9.487123e+00  -8.975920e+00
  -5.655880e+01   2.252336e+01
  -8.955071e+01   2.185245e+01
  -5.707216e+01  -3.668483e+01
   6.094770e+01  -1.201423e+02
   1.183829e+02  -3.839757e+01
   9.195651e+01   4.129789e+01
  -3.413084e+01   1.315809e+02
  -1.438853e+02   1.018234e+02
  -2.326464e+02  -6.131708e+01
  -8.422323e+01  -2.411353e+02
   1.450706e+02  -2.431691e+02
   2.577888e+02  -9.620446e+01
   2.829359e+02   7.377867e+01
   9.412505e+01   1.817485e+02
  -4.656714e+01   1.413854e+02
  -7.589554e+01   9.238490e+01
  -1.078389e+02   8.105350e+01
  -4.144323e+01   1.016211e+02
  -8.480629e+01   6.446025e+01
  -1.110023e+02   1.767766e+01
  -1.046391e+02  -1.453691e+02
  -4.731038e+01  -1.997346e+02
   8.368789e+01  -1.693877e+02
   1.809425e+02  -4.026790e+01
   1.349811e+02   1.279557e+02
  -2.789446e+00   1.766633e+02
  -7.548573e+01   9.555622e+01
  -6.415192e+01   9.490679e+00
   5.590235e+00  -1.654385e+01
  -8.386134e+00  -4.532732e+01
  -4.092633e+01  -2.545200e+01
  -8.910556e+01  -3.531696e+01
  -5.166678e+01  -3.766994e+01
   5.448362e+01  -3.940635e+01
   1.859912e+02  -2.747272e+01
   1.614420e+02   7.099511e+01
   2.599189e+01   8.970648e+01
  -1.390493e+02   6.419972e+01
  -1.571703e+02   3.625026e+01
  -3.520305e+01  -3.231150e+01
   8.512295e+01  -6.672354e+01
   6.240949e+01   1.982129e+01
  -2.801425e+00   6.830235e+01
  -4.188000e+01   7.520056e+01
  -5.048487e+01   1.577091e-01
  -5.865045e+01  -1.205102e+01
  -5.004113e+01  -3.280547e+01
  -6.600322e+01   2.763672e+01
  -6.579947e+01  -1.330650e+01
  -3.632959e+01  -9.600604e+01
   2.275835e+01  -1.614504e+02
   1.056073e+02  -1.406460e+02
   1.471011e+02  -2.540783e+01
   1.365851e+02   9.497359e+01
   7.840702e+00   1.305258e+02
  -6.361993e+01   5.696294e+01
  -5.895218e+01  -1.315502e+01
   7.382590e+01  -5.379292e+00
   1.563686e+02   6.076899e+01
   7.305026e+01   7.761486e+01
  -6.574707e+01   1.075987e+02
  -2.003952e+02   6.875427e+01
  -1.672831e+02  -1.553470e+01
  -4.280385e+01  -7.813473e+01
   6.300568e+01  -6.888109e+01
   4.759640e+01  -2.414773e+01
  -4.818206e+01   3.465665e+01
  -8.332429e+01  -1.084568e+01
  -3.508936e+01  -1.253338e+02
   8.933172e+01  -1.814595e+02
   1.506573e+02  -8.628427e+01
   1.505146e+02   8.441241e+01
   4.000334e+01   1.746173e+02
  -8.837557e+01   1.444394e+02
  -9.568021e+01  -3.257975e+01
  -7.024725e+01  -1.123537e+02
   2.491589e+01  -1.167254e+02
   5.490455e+01  -1.337852e+01
   6.285908e+01   3.698427e+01
   3.170932e+01   3.288844e+01
   3.770225e+00  -2.449890e+01
   5.018898e+01   7.157059e+00
   6.796068e+01   7.664251e+01
   1.044060e+01   1.345650e+02
  -7.092672e+01   2.282684e+01
  -1.348219e+02  -4.908788e+01
  -1.179263e+02  -9.025963e+01
  -1.455571e+01  -5.231736e+01
   7.885508e+01  -1.430456e+01
   9.141868e+01  -2.417864e+01
   2.085765e+01   8.771004e+00
  -2.862943e+01   5.938073e+01
  -1.856217e+01   2.220619e+01
   1.794973e+01  -1.453075e+01
  -3.983807e+00   1.063154e+01
  -8.606139e+01  -1.229646e+01
  -9.506371e+01  -1.505372e+01
  -2.966006e+01  -6.954117e+01
   1.178925e+02  -1.281365e+02
   1.995178e+02  -5.720511e+01
   1.424963e+02   6.579697e+01
   1.270803e+01   1.376799e+02
  -8.279826e+01   1.685068e+02
  -8.947287e+01   6.877547e+01
  -8.481826e+01  -3.696526e+00
  -2.916080e+01  -3.588813e+01
   1.106439e+01  -2.648733e+01
  -1.468943e+01  -2.266750e+01
  -3.059216e+01  -7.017812e+01
  -4.048369e+01  -1.011687e+02
   1.420215e+01  -9.241121e+01
   7.450440e+01  -7.355608e+00
   7.147621e+01   1.079380e+02
   1.675600e+01   1.013882e+02
  -8.099435e+01   2.195150e+01
  -1.102220e+02  -6.238591e+01
  -5.997975e+01  -9.020220e+01
   6.941170e+01  -3.483897e+01
   1.096378e+02  -7.109137e+00
  -5.575120e+00   5.569028e+01
  -4.234997e+01   5.798182e+01
  -3.466875e+01   3.147014e+01
   2.238925e+01   2.392058e-01
   7.213285e+01  -3.846873e+00
  -6.012830e+00   3.958022e+01
  -5.729556e+01   6.699992e+01
  -1.096228e+02   6.576883e+01
  -6.412725e+01   5.558360e-01
   5.521832e+01  -7.556422e+01
   3.666906e+01  -9.394971e+01
   3.717291e+01  -2.433460e+01
  -1.980113e+01   3.548216e+01
  -2.112311e+01   2.286836e+01
  -3.657511e+01  -3.199350e+01
  -2.047112e+01  -4.068700e+01
   2.391322e+01  -1.684134e+01
   3.866090e+01   7.069886e+00
   4.791171e+01   2.705299e+01
  -5.018955e+00  -1.759001e+01
   4.842561e-01  -2.498193e+01
   3.626391e-02   1.132330e+01
   1.907108e+01   2.968428e+01
  -1.625217e+01   5.159534e+01
  -3.034506e+01   8.769139e+00
  -6.378765e+01  -4.892896e+01
  -2.343769e+01  -8.476646e+01
   1.070301e+01  -3.498248e+01
   4.579513e+01   6.170062e+01
   3.611694e+00   7.941615e+01
  -5.545211e+01   2.309073e+01
  -7.848306e+01  -2.841047e+01
  -4.591194e+01  -2.605503e+01
   3.556654e+01  -4.943783e+01
   8.453634e+01  -1.196211e+01
   1.927463e+01  -2.076449e+01
  -4.982844e+01  -5.953222e-01
  -1.579320e+01  -1.347872e+01
   2.513447e+01  -5.539804e+01
   9.647920e+01  -2.198320e+01
