
 $NMID
 id='ANONYMOUS ', fmtdat='(2E16.6)'
 volume=1.0
 tramp=1.0
 $END
   3.926236e+03  -1.654174e+02
   2.550054e+03   2.085742e+03
  -2.528033e+02   2.447164e+03
  -1.715207e+03   1.160791e+03
  -8.244802e+02  -1.289289e+02
   3.614379e+02  -5.055149e+02
   6.317928e+02   1.940635e+02
   1.173468e+02   8.477057e+02
  -6.261620e+02   7.321549e+02
  -7.289339e+02  -7.828054e+01
  -4.242086e+02  -7.158377e+02
   1.185411e+02  -8.349167e+02
   4.806716e+02  -2.714355e+02
   4.654438e+02   5.620440e+02
  -1.901647e+02   6.551371e+02
  -5.194268e+02   9.694691e+00
  -2.558584e+02  -5.948181e+02
   1.975948e+02  -6.480871e+02
   5.531710e+02  -1.797906e+02
   4.351752e+02   2.230318e+02
   5.491081e+01   4.035991e+02
  -2.065964e+02   2.389223e+02
  -1.338731e+02   8.167974e+01
   1.191440e+02   6.967609e+00
   3.592124e+02   2.233670e+02
   6.806560e+01   3.660231e+02
  -4.683800e+02   3.068592e+02
  -7.774921e+02  -8.557217e+01
  -3.745500e+02  -4.234325e+02
   2.457123e+02  -3.530467e+02
   6.099973e+02   5.517511e+01
   3.122403e+02   3.932906e+02
  -2.440767e+02   4.190745e+02
  -4.991419e+02   2.044146e+02
  -3.934590e+02  -1.559005e+02
  -1.350220e+02  -3.613222e+02
   1.007663e+02  -2.814448e+02
   1.011961e+02   9.349835e+01
  -2.036829e+02   3.479778e+02
  -2.878311e+02  -6.013462e+01
  -1.006526e+02  -5.506448e+02
   2.713590e+02  -5.705630e+02
   4.710018e+02  -2.688084e+01
   2.371394e+02   4.333498e+02
  -1.872636e+02   3.209123e+02
  -2.613791e+02  -3.067581e+02
   9.048452e+01  -4.856268e+02
   4.882417e+02  -1.406368e+02
   5.643766e+02   3.408205e+02
   1.891992e+02   5.179243e+02
  -3.122725e+02   3.151911e+02
  -5.545565e+02  -6.052448e+01
  -3.764746e+02  -2.939572e+02
   1.197144e+02  -3.274315e+02
   3.539512e+02  -1.374729e+02
   2.161147e+02   9.756082e+01
  -9.528140e+01   9.806984e+01
  -9.646239e+01  -6.251511e+01
   1.085021e+02  -1.488117e+02
   2.593353e+02   6.355743e+01
   1.603946e+02   2.321881e+02
  -1.797297e+02   2.652316e+02
  -3.351684e+02   9.403327e+01
  -2.336885e+02  -7.087769e+01
   3.301532e+01  -2.932013e+02
   2.062932e+02  -3.334191e+02
   3.472207e+02  -1.800639e+02
   2.673544e+02   1.288755e+02
   8.983461e+01   3.924125e+02
  -8.274802e+01   3.894547e+02
  -5.164424e+01   1.127256e+02
  -2.919084e+01   2.868553e+01
  -8.336533e+01   1.046313e+02
  -1.946208e+02   1.194287e+02
  -2.482658e+02  -7.222324e+01
  -1.406206e+02  -2.608117e+02
   6.334884e+01  -1.891199e+02
   2.203804e+02  -1.560501e+01
   2.028810e+02   2.270425e+02
   1.527189e+01   2.608683e+02
  -2.446092e+02   1.226592e+02
  -3.716778e+02  -1.354100e+02
  -1.870857e+02  -2.842094e+02
   4.328705e+01  -3.027821e+02
   1.923193e+02  -1.476118e+02
   1.440531e+02  -3.950486e+01
   1.152576e+02  -5.777022e+01
   2.569662e+02  -6.731522e+01
   4.072515e+02   5.698171e+01
   3.367012e+02   2.675105e+02
   1.485602e+01   4.473036e+02
  -3.221051e+02   4.264853e+02
  -4.825069e+02   1.812563e+02
  -3.100904e+02  -1.195309e+02
  -5.773872e+01  -2.706783e+02
   1.084135e+02  -2.638920e+02
   4.895904e+01  -5.152023e+01
  -9.444541e+01   7.955461e+01
  -1.625548e+02  -2.833154e+00
  -4.566350e+01  -1.234602e+02
   1.450174e+02  -8.752295e+01
   1.456060e+02   3.417143e+01
   6.133366e+00   1.386929e+02
  -2.005635e+02   3.512291e+00
  -1.579039e+02  -2.311043e+02
   3.886191e+01  -3.721869e+02
   2.437144e+02  -1.951684e+02
   3.247597e+02   4.971540e+01
   3.098970e+02   2.201826e+02
   9.421830e+01   2.483872e+02
  -1.211322e+02   1.631933e+02
  -1.771112e+02   2.666335e+01
  -5.247099e+01  -3.840589e+01
   6.124376e+01   2.543656e+01
   2.286957e+01   1.029647e+02
  -1.171904e+02   7.230153e+01
  -1.640707e+02  -1.417467e+01
  -6.295298e+01  -7.088107e+01
   8.719719e+01  -1.467880e+01
   4.088140e+01   7.129191e+01
  -1.533350e+02   1.047623e+02
  -2.813136e+02  -1.573294e+01
  -2.584175e+02  -1.416797e+02
  -5.421316e+01  -2.587197e+02
   1.930082e+02  -2.194711e+02
   2.641197e+02  -1.285803e+02
   1.524229e+02   3.784314e+01
  -4.138278e+01   8.785995e+01
  -8.502893e+01   1.445779e+01
   4.418886e+01  -9.093425e+01
   2.052442e+02  -7.174277e+01
   2.361858e+02   1.127193e+02
   4.834382e+01   1.767977e+02
  -5.865511e+01   1.461981e+02
  -1.123725e+02   3.347972e+01
  -5.542017e+01  -2.836696e+01
   1.302207e+01   9.874438e+00
   1.741441e+01   8.000127e+01
  -7.899260e+01   1.447164e+02
  -2.154258e+02   2.800219e+01
  -1.559576e+02  -1.025010e+02
  -4.925563e+01  -2.117474e+02
   1.469206e+02  -1.631790e+02
   1.833459e+02  -1.668063e+01
   4.364829e+01   1.139085e+02
  -7.626588e+01   1.101196e+02
  -9.946044e+01   2.158470e+00
  -2.502071e+01  -4.710967e+01
   1.237623e+01  -1.142317e+01
  -1.833222e+01   3.664480e+01
  -1.204953e+02  -1.667323e+01
  -8.722374e+01  -1.030798e+02
  -3.584142e+01  -1.794134e+02
   1.337954e+02  -1.631958e+02
   2.486347e+02  -2.345812e+01
   2.346889e+02   1.361029e+02
   6.182944e+01   2.169655e+02
  -1.063282e+02   1.903908e+02
  -1.278667e+02   4.879609e+01
  -5.687644e+01  -5.877983e+01
  -3.456371e+01  -2.949380e+01
  -5.940953e+01   1.782929e+01
  -1.007772e+02   1.246409e+01
  -7.633426e+01  -3.038961e+01
   3.864422e+01  -1.075519e+02
   1.345661e+02  -6.967571e+01
   8.759695e+01   3.396776e+01
   3.982122e+00   1.491757e+02
  -1.568590e+02   8.989297e+01
  -1.693137e+02  -6.400818e+01
  -1.164109e+02  -2.005946e+02
   1.373530e+02  -2.242908e+02
   2.690625e+02  -9.023656e+01
   2.448171e+02   5.921284e+01
   8.825222e+01   1.911653e+02
  -2.857248e+01   1.460519e+02
  -7.665812e+01   8.780556e+01
  -8.038388e+01   7.259682e+01
  -4.094934e+01   8.095208e+01
  -6.227080e+01   6.543106e+01
  -1.266201e+02  -4.597881e+00
  -1.239588e+02  -1.655544e+02
  -1.569560e+01  -2.064102e+02
   1.005563e+02  -1.581093e+02
   1.860139e+02  -4.693402e+01
   1.361847e+02   1.172822e+02
   9.127709e+00   1.539108e+02
  -6.428576e+01   9.310692e+01
  -8.607775e+01   3.940822e+00
   2.932731e+00  -5.602857e+01
   1.046853e+01  -1.699648e+01
  -3.028268e+01  -7.165337e+00
  -6.362736e+01  -3.052399e+01
  -4.438134e+01  -3.832207e+01
   7.866616e+01  -2.277170e+01
   1.618134e+02  -7.688564e+00
   1.683406e+02   4.804886e+01
   7.164654e+00   5.161532e+01
  -1.467426e+02   6.736018e+01
  -1.445891e+02  -1.257528e+00
  -3.270651e+01  -3.772304e+01
   6.414378e+01  -4.177944e+01
   5.344622e+01   2.058695e+01
  -3.001563e+00   7.999942e+01
  -6.004909e+01   6.494291e+01
  -9.647101e+01   3.836812e+00
  -5.367472e+01  -5.576215e+01
  -5.700113e+01  -4.155870e+01
  -5.157499e+01   5.348613e+00
  -9.562828e+01  -3.278814e+01
  -3.943408e+01  -7.545054e+01
   3.343696e+01  -1.179595e+02
   1.092725e+02  -1.334850e+02
   1.575226e+02  -5.849007e+01
   1.539244e+02   6.310640e+01
  -7.497270e+00   1.185075e+02
  -6.262255e+01   7.899960e+01
  -5.572566e+01  -2.529005e+01
   7.987690e+01  -2.905791e+01
   1.476345e+02   3.910638e+01
   6.599849e+01   9.597691e+01
  -6.940489e+01   1.070264e+02
  -2.000350e+02   3.390608e+01
  -1.401713e+02  -5.313262e+01
  -7.193955e+01  -7.828616e+01
   4.834305e+01  -5.625656e+01
   4.616256e+01  -1.069308e+01
  -2.999712e+01   3.417912e+01
  -9.539841e+01  -1.694864e+00
  -4.652760e+01  -1.096622e+02
   7.905088e+01  -1.826788e+02
   1.485001e+02  -6.843840e+01
   1.101160e+02   9.570910e+01
   2.066991e+01   1.812777e+02
  -9.165510e+01   1.384181e+02
  -1.047234e+02  -5.231341e+00
  -8.093144e+01  -1.327515e+02
   2.600372e+01  -1.142184e+02
   5.541150e+01  -3.652050e+01
   5.456137e+01   3.701891e+01
   2.170466e+01   1.853540e+01
   3.135514e+01  -4.191532e+01
   2.938080e+01   1.591972e+01
   5.559945e+01   5.262787e+01
   4.108880e+01   1.046421e+02
  -6.172647e+01   4.537809e+01
  -1.421825e+02  -1.230816e+01
  -1.406219e+02  -8.294268e+01
   1.595277e+00  -6.412161e+01
   7.155978e+01  -2.572907e+00
   8.570090e+01  -2.629063e-01
   1.250511e+01  -3.344201e+01
  -2.235129e+01   3.138322e+01
  -1.903498e+01   3.698160e+01
   1.813294e+01   1.777363e+01
  -3.187804e+00   2.658844e+01
  -5.729882e+01   7.741874e+00
  -8.450601e+01  -4.295338e+01
  -3.118523e+01  -9.423422e+01
   1.153715e+02  -1.176251e+02
   1.993584e+02  -5.777056e+01
   1.490728e+02   5.081611e+01
   1.321277e+01   1.609983e+02
  -7.480843e+01   1.587084e+02
  -1.194983e+02   6.592349e+01
  -9.182961e+01   4.700114e+00
  -2.113385e+01  -4.430479e+01
  -1.174607e+01  -8.299482e-04
  -2.176547e+01  -1.837600e+01
  -1.090604e+01  -4.941367e+01
  -2.643370e+01  -1.105168e+02
   3.893916e+01  -6.660108e+01
   5.988589e+01  -1.075045e+01
   8.835159e+01   6.386368e+01
   1.087225e+01   1.256870e+02
  -7.280553e+01   5.104777e+01
  -1.029165e+02  -7.408641e+01
  -4.950383e+01  -1.076879e+02
   6.286351e+01  -4.532404e+01
   1.121860e+02   7.715633e+00
   2.774215e+01   3.990966e+01
  -2.736200e+01   5.246979e+01
  -3.429038e+01   3.229137e+01
   2.570440e+01  -1.639490e+01
   4.841276e+01  -3.044365e+01
   3.559898e+01   4.714181e+01
  -7.072626e+01   7.711018e+01
  -1.273475e+02   7.264511e+01
  -6.387838e+01  -3.311878e+00
   4.373276e+01  -8.853041e+01
   3.598870e+01  -8.697382e+01
   4.558668e+01  -2.619847e+01
   1.915465e+01   3.647153e+01
   4.521469e+00   6.644120e+01
  -2.310962e+01  -1.267503e+01
  -3.972521e+01  -4.544588e+01
   1.375256e+01  -2.891809e+01
   5.269436e+01  -1.979454e+00
   1.271006e+01   1.774369e+01
   2.165820e+01  -9.365859e+00
  -1.796709e+01  -3.255468e+01
  -1.140795e+01   2.653730e+00
  -1.301338e+00   4.238869e+01
  -2.084604e+00   5.595114e+01
  -3.686599e+01  -9.709570e+00
  -2.101654e+01  -3.636323e+01
  -3.302733e+01  -6.711344e+01
   2.031095e+01  -3.162168e+01
   5.550104e+01   3.006601e+01
   1.355616e+01   8.237776e+01
  -4.590605e+01   4.391083e+01
  -9.199801e+01  -4.601240e-01
  -6.191756e+01  -2.930339e+01
   1.252374e+01  -4.606569e+01
   3.196505e+01  -1.439140e+01
  -2.989518e+00   2.376179e+00
  -5.828662e+01  -8.420235e+00
  -3.067265e+01   5.584692e+00
   2.866633e+01  -3.192260e+01
   7.750481e+01  -5.473244e+01
