
 $NMID
 id='ANONYMOUS ', fmtdat='(2E16.6)'
 volume=1.0
 tramp=1.0
 $END
  -3.337576e+03   1.352897e+01
  -2.076067e+03  -1.556550e+03
   2.061480e+02  -2.201871e+03
   1.710253e+03  -1.133653e+03
   9.483905e+02   8.128170e+00
  -3.173599e+02   2.938426e+02
  -5.824700e+02  -1.525022e+02
   3.527154e+01  -6.781917e+02
   5.185649e+02  -6.242942e+02
   7.023859e+02   1.060192e-01
   4.771968e+02   5.182051e+02
  -8.706433e+01   6.277226e+02
  -4.604864e+02   2.505127e+02
  -2.857620e+02  -5.035434e+02
   1.949287e+02  -5.727022e+02
   3.905416e+02  -5.317351e+01
   3.054883e+02   5.716780e+02
  -1.933545e+02   6.269403e+02
  -4.413769e+02   2.267903e+02
  -4.419763e+02  -1.829150e+02
  -6.469863e+01  -3.382539e+02
   1.330240e+02  -2.477900e+02
   8.544251e+01  -5.160588e+01
  -1.860147e+02   3.002648e+01
  -2.989793e+02  -1.761330e+02
  -6.065888e+01  -3.869743e+02
   4.721398e+02  -2.553208e+02
   7.168887e+02   1.200185e+02
   1.564369e+02   4.640830e+02
  -3.671691e+02   3.555892e+02
  -6.048284e+02  -6.200066e+01
  -2.133691e+02  -3.474286e+02
   2.695513e+02  -3.939159e+02
   4.823298e+02  -1.559853e+02
   3.387492e+02   1.752561e+02
   9.151831e+01   3.206695e+02
  -4.842454e+01   2.027889e+02
  -3.547462e+01  -1.336322e+02
   1.066919e+02  -2.782316e+02
   2.592146e+02   1.185541e+02
   1.167395e+02   5.524370e+02
  -2.658665e+02   5.033455e+02
  -4.803242e+02   7.470371e+01
  -1.297758e+02  -3.241498e+02
   1.827381e+02  -1.619698e+02
   2.053393e+02   2.701873e+02
  -9.036404e+01   4.412902e+02
  -4.985963e+02   7.753855e+01
  -5.335935e+02  -3.564260e+02
  -1.398478e+02  -5.101034e+02
   3.128707e+02  -2.619923e+02
   5.429804e+02   8.078217e+01
   3.450019e+02   3.370428e+02
  -6.699568e+01   2.790655e+02
  -3.054524e+02   2.354518e+01
  -2.316040e+02  -1.168299e+02
   3.197185e+01  -4.243535e+01
   5.357349e+01   6.434865e+01
  -8.978423e+01   5.115464e+01
  -2.696300e+02  -4.478090e+01
  -1.406776e+02  -2.153441e+02
   1.438864e+02  -2.068478e+02
   3.296311e+02  -1.570251e+02
   2.286320e+02   6.911003e+01
  -1.143022e+01   2.891394e+02
  -2.459053e+02   3.490350e+02
  -3.225529e+02   1.379093e+02
  -2.185706e+02  -1.326590e+02
  -4.302475e+01  -3.861118e+02
   7.814401e+01  -3.206697e+02
   7.139121e+01  -1.023974e+02
   2.574324e+01  -4.563763e+01
   9.447669e+01  -1.003020e+02
   2.391229e+02  -6.067289e+01
   2.747740e+02   1.069824e+02
   1.110712e+02   2.667958e+02
  -9.111186e+01   1.630060e+02
  -1.934997e+02  -4.842727e+00
  -1.300858e+02  -2.156305e+02
   5.075768e+01  -2.463113e+02
   2.435322e+02  -8.330939e+01
   3.022822e+02   1.270105e+02
   1.964837e+02   3.075766e+02
  -3.948626e+01   2.881244e+02
  -2.067721e+02   1.340775e+02
  -1.172639e+02   5.020773e+01
  -1.288937e+02   1.537090e+01
  -2.344493e+02   3.256174e+01
  -3.950271e+02  -8.079616e+01
  -3.145257e+02  -2.744625e+02
   5.685701e+01  -3.932027e+02
   3.267875e+02  -3.963231e+02
   4.420251e+02  -1.935644e+02
   2.980239e+02   1.220651e+02
   1.279666e+01   2.542034e+02
  -8.902441e+01   1.960381e+02
  -3.654811e+01   2.408499e+01
   1.055138e+02  -4.882802e+01
   1.386957e+02   3.098958e+01
   1.863541e+01   1.462549e+02
  -1.279423e+02   1.127745e+02
  -1.333665e+02  -5.717201e+01
   6.011990e-01  -1.631390e+02
   1.741350e+02   8.765425e+00
   1.318834e+02   2.190658e+02
  -1.234073e+01   3.355786e+02
  -2.340255e+02   1.583189e+02
  -3.195383e+02  -6.207434e+01
  -2.711183e+02  -2.210391e+02
  -7.595321e+01  -2.321462e+02
   1.166680e+02  -1.332726e+02
   1.521837e+02   3.840995e+00
   1.618835e+00   4.987362e+01
  -3.751174e+01  -2.780697e+01
  -1.606798e+00  -8.777566e+01
   1.221606e+02  -5.788368e+01
   1.960235e+02   2.262990e+01
   3.418912e+01   2.790788e+01
  -5.356777e+01   4.752899e+00
  -4.603993e+01  -7.325403e+01
   1.306966e+02  -1.240831e+02
   2.730684e+02  -6.184195e+00
   2.235061e+02   1.569888e+02
   1.859739e+01   2.448465e+02
  -1.792653e+02   2.439932e+02
  -2.792203e+02   1.135507e+02
  -1.222349e+02  -2.939727e+01
   4.249448e+01  -7.431758e+01
   7.800530e+01  -9.461272e+00
  -3.285241e+01   6.689123e+01
  -1.588032e+02   2.558521e+01
  -1.788866e+02  -9.979004e+01
  -4.394065e+01  -1.820473e+02
   6.905530e+01  -1.397807e+02
   1.430575e+02  -3.194567e+01
   7.546853e+01   1.871078e+01
  -5.149725e+01  -3.700816e+01
  -1.255371e+01  -8.711709e+01
   9.822653e+01  -1.142492e+02
   2.102526e+02  -6.316433e+01
   1.907911e+02   1.213857e+02
   8.063955e+00   2.065816e+02
  -1.388538e+02   1.381495e+02
  -1.791543e+02   4.239053e+01
  -3.901007e+01  -8.515900e+01
   6.331509e+01  -6.064658e+01
   8.235353e+01  -4.860798e+00
   7.103262e-01   2.456305e+01
  -1.074700e+00   2.093841e+01
  -8.598332e+00  -3.088749e+01
   6.263174e+01  -7.634707e+00
   8.535369e+01   8.984468e+01
   2.745875e+00   1.602022e+02
  -1.357345e+02   1.862254e+02
  -1.945384e+02   3.324020e+01
  -1.937895e+02  -1.533439e+02
  -3.446518e+01  -2.130152e+02
   9.404889e+01  -1.381435e+02
   1.419921e+02  -3.346744e+01
   8.009815e+01   3.621978e+01
   2.541365e+01   1.029326e+01
   5.984494e+01  -1.506858e+01
   1.069172e+02   3.927573e+00
   3.188539e+01   5.799103e+01
  -6.503121e+01   1.124927e+02
  -9.719670e+01   4.899648e+01
  -6.663097e+01  -6.081153e+01
   1.981319e+01  -1.054036e+02
   1.470934e+02  -9.516400e+01
   1.953959e+02   8.654143e+01
   8.421727e+01   1.979599e+02
  -1.066575e+02   1.923691e+02
  -2.807594e+02   5.543854e+01
  -2.330639e+02  -7.938223e+01
  -9.090383e+01  -1.551847e+02
   4.311990e+01  -1.368430e+02
   9.695318e+01  -9.925730e+01
   8.314010e+01  -5.993895e+01
   7.799275e+01  -9.505086e+01
   7.224938e+01  -8.742504e+01
   1.474883e+02   4.322763e+01
   1.068489e+02   1.178315e+02
   1.539353e+01   2.360904e+02
  -8.432778e+01   1.591169e+02
  -1.467409e+02   4.414910e+01
  -1.125124e+02  -9.541086e+01
   1.282386e+01  -1.510185e+02
   5.648187e+01  -6.313785e+01
   7.530946e+01   2.522683e+01
   1.257352e+01   3.110983e+01
   8.194409e+00   4.700026e+01
   3.542120e+01  -1.370055e+01
   7.362679e+01  -3.188554e+00
   2.368784e+01   4.251258e+01
  -6.201524e+01   4.059635e+01
  -1.459860e+02  -1.472080e+01
  -1.383370e+02  -4.424189e+01
  -6.780280e+00  -8.202222e+01
   1.289441e+02  -7.179842e+01
   1.305897e+02  -1.814192e+01
   3.954432e+01   6.451684e+01
  -5.888141e+01   2.305627e+01
  -4.710267e+01  -2.257363e+01
  -2.127927e+01  -8.809822e+01
   4.668351e+01  -6.477523e+01
   7.120925e+01   4.141772e+00
   5.099999e+01   4.094953e+01
   3.727035e+01   4.530173e+01
   6.021945e+01  -3.125111e+00
   6.214093e+01   5.590159e+00
   4.365669e+01   7.668063e+01
  -3.661921e+01   1.335193e+02
  -1.181099e+02   1.316181e+02
  -1.644583e+02   2.631895e+01
  -1.325487e+02  -3.439783e+01
   3.053084e+00  -1.432564e+02
   9.501705e+01  -5.550714e+01
   5.609735e+01  -1.415689e+01
  -7.644103e+01   3.017252e+01
  -1.379800e+02  -4.408506e+01
  -6.607713e+01  -9.381225e+01
   5.883921e+01  -1.108291e+02
   1.835098e+02  -4.836248e+01
   1.309836e+02   3.513721e+01
   5.187080e+01   1.018574e+02
  -7.458247e+01   7.701798e+01
  -2.360343e+01   2.306291e+01
   4.255648e+01  -2.034519e+01
   7.571065e+01   1.162253e+01
   9.560170e+00   9.753099e+01
  -8.220058e+01   1.502749e+02
  -1.667227e+02   5.441173e+01
  -1.039603e+02  -1.124505e+02
  -3.332505e+01  -1.661585e+02
   6.444228e+01  -1.390690e+02
   9.790928e+01  -1.084928e+00
   5.810525e+01   1.033162e+02
   7.857925e+00   1.067978e+02
  -3.912241e+01   4.451890e+00
  -5.157329e+01  -1.012965e+01
  -1.816725e+01  -1.447461e+01
   7.535544e+00   1.586744e+01
  -2.630737e+01  -2.532928e+01
  -3.798499e+01  -9.847504e+01
  -4.064622e+01  -8.685044e+01
   3.721626e+01  -3.094276e+01
   1.279443e+02   4.371068e+01
   1.015001e+02   7.269906e+01
   2.663919e+01   3.680516e+01
  -5.917555e+01   4.832263e+00
  -8.164932e+01   2.459525e+01
  -1.258002e+01  -8.091015e+00
   2.276402e+01  -1.470875e+01
   4.663989e+01  -1.526915e+01
  -2.081543e+01  -1.542592e+00
   2.318972e+01  -3.372961e+00
   6.885192e+01   8.029751e+00
   1.210035e+02   1.583650e+01
  -7.438967e+00   9.504909e+01
  -8.658865e+01   8.719348e+01
  -1.674903e+02   4.708635e+01
  -1.527702e+02  -2.379496e+01
  -3.273375e+01  -1.643747e+02
   9.024400e+01  -1.306212e+02
   1.150272e+02  -5.779613e+01
   6.276835e+01   2.863818e+01
   4.460001e+01   7.175739e+01
   3.794840e+00  -1.644820e+00
   1.904558e+01   1.789285e+01
   2.813008e+01   3.092734e+01
   1.817195e+01   8.471548e+01
  -1.246187e+01   5.988389e+01
  -6.812038e+01  -1.793563e+01
  -7.823724e+01  -1.136163e+02
  -9.673339e+00  -8.349141e+01
   7.562546e+01  -5.130807e+01
   1.177209e+02   7.737115e+01
   3.519506e+01   1.046082e+02
  -6.881531e+01   3.118128e+01
  -8.342343e+01  -6.844227e+00
  -3.816870e+01  -4.080681e+01
   4.808739e+00  -4.455346e+01
   2.778977e+01  -2.201326e+01
  -3.132806e+00  -1.008341e+01
  -6.410265e+01  -7.066261e+00
   1.024402e+00  -4.224222e+01
   6.470254e+01  -6.854935e+01
   1.146936e+02  -2.358007e+01
   6.979611e+01   2.946326e+01
  -3.329878e+01   9.453669e+01
  -6.507105e+01   8.457624e+01
  -4.405040e+01   2.724669e+00
  -6.505098e+00  -6.501712e+01
   4.540017e+01  -2.916179e+01
   1.842793e+01   4.926161e+00
   3.046025e+01   4.305071e+01
  -2.813572e+01   4.747950e+01
  -6.585935e+01   1.699957e+01
  -4.701436e+01   1.964367e+00
  -2.838904e+01  -1.439301e+01
  -6.553578e+00   1.860710e+01
   4.101026e+00  -9.022731e+00
   8.764004e-01   3.984977e+00
  -1.269998e+01  -3.876477e+01
   2.699061e+01   8.158030e+00
   4.404089e+01   2.409174e+01
   2.798426e+01   5.961856e+01
  -5.885287e+01   4.295952e+00
  -4.815217e+01  -4.078560e+01
  -9.710155e+00  -5.075414e+01
   5.222615e+01  -2.259795e+01
   9.295851e+01   4.135442e+01
   5.573559e+01   3.480830e+01
  -2.350552e+01   3.232236e+01
  -6.600135e+01   4.522874e+01
  -3.101954e+01   1.997040e+00
   2.041218e+01  -8.867044e+00
   4.091811e+01   1.216321e+01
  -1.157501e+01   2.514733e+01
  -7.867162e+01   4.479120e+01
