
 $NMID
 id='ANONYMOUS ', fmtdat='(2E16.6)'
 volume=1.0
 tramp=1.0
 $END
   4.272862e+03   4.775891e+02
   2.471747e+03   3.118492e+03
  -7.415929e+02   2.536171e+03
  -1.930226e+03   5.836854e+02
  -8.484580e+02  -6.563085e+02
   6.823662e+02  -3.841502e+02
   8.768673e+02   4.574923e+02
  -3.062093e+00   1.019533e+03
  -9.047703e+02   5.542840e+02
  -9.185749e+02  -1.831442e+02
  -3.768476e+02  -8.944938e+02
   3.579453e+02  -7.637578e+02
   6.650156e+02   6.217187e+01
   2.750645e+02   7.247603e+02
  -3.840723e+02   6.627153e+02
  -5.732172e+02  -6.346079e+01
  -2.292804e+02  -6.693612e+02
   3.911011e+02  -5.779357e+02
   5.326621e+02  -7.362314e+01
   3.401520e+02   3.463194e+02
  -1.679206e+01   4.099191e+02
  -2.456923e+02   2.211015e+02
  -1.808437e+02  -9.434052e+00
   1.614425e+02  -8.799353e+01
   4.861326e+02   1.151432e+02
   1.851962e+02   4.621292e+02
  -4.825302e+02   3.731606e+02
  -8.710615e+02  -1.308410e+02
  -3.693452e+02  -5.923172e+02
   4.651509e+02  -4.516903e+02
   7.405009e+02   1.189407e+02
   3.011810e+02   5.181956e+02
  -3.491732e+02   5.511053e+02
  -6.051068e+02   1.599667e+02
  -3.868234e+02  -2.404405e+02
  -8.329392e+01  -4.816619e+02
   2.945671e+02  -2.769445e+02
   1.860454e+02   2.683375e+02
  -3.103415e+02   4.714917e+02
  -4.209962e+02  -4.195176e+01
  -1.503183e+02  -7.904786e+02
   4.251719e+02  -7.009450e+02
   6.062543e+02   8.756872e+01
   2.187676e+02   5.272680e+02
  -3.410354e+02   2.794774e+02
  -4.092714e+02  -3.758821e+02
   1.392104e+02  -5.509411e+02
   5.617655e+02  -4.389014e+01
   5.972295e+02   4.505666e+02
   1.923375e+02   6.240971e+02
  -4.420512e+02   3.199229e+02
  -6.207498e+02  -1.024408e+02
  -3.419838e+02  -3.977747e+02
   1.823769e+02  -3.225962e+02
   4.555458e+02   4.302793e+00
   1.830417e+02   2.315891e+02
  -1.804473e+02   5.075189e+01
  -1.299525e+02  -1.812641e+02
   1.987009e+02  -1.423004e+02
   3.705641e+02   9.163289e+01
   1.242372e+02   3.218542e+02
  -2.302882e+02   2.507713e+02
  -3.302003e+02   9.538036e+01
  -2.371888e+02  -7.007976e+01
   1.705183e+01  -2.161291e+02
   2.327237e+02  -3.482448e+02
   3.487357e+02  -1.888099e+02
   3.082709e+02   1.556373e+02
   2.726021e+01   5.001035e+02
  -1.633994e+02   3.170310e+02
  -1.179490e+02   9.308391e+01
  -3.106338e+01  -9.444458e+00
  -1.378616e+01   9.928361e+01
  -2.334651e+02   1.482526e+02
  -2.685847e+02  -6.126928e+01
  -1.822229e+02  -2.929119e+02
   8.619024e+01  -2.949554e+02
   2.343452e+02   3.035049e+01
   2.142432e+02   2.758988e+02
  -2.946808e+01   3.178628e+02
  -2.812926e+02   1.401678e+02
  -3.691909e+02  -1.776515e+02
  -1.723123e+02  -3.772180e+02
   1.337019e+02  -2.991232e+02
   2.278828e+02  -1.071961e+02
   1.385478e+02  -3.579097e+00
   9.357670e+01  -6.111811e+01
   2.499694e+02  -4.955395e+01
   4.009325e+02   7.808236e+01
   3.425621e+02   2.889058e+02
  -2.114522e+01   4.790677e+02
  -3.475904e+02   4.028291e+02
  -5.058260e+02   1.759657e+02
  -3.232948e+02  -1.055856e+02
  -2.840220e+01  -3.319844e+02
   1.461054e+02  -2.550526e+02
   9.767566e+01  -4.060700e+01
  -1.119100e+02   9.561219e+01
  -1.651829e+02  -1.692221e+01
  -6.232235e+01  -1.844932e+02
   1.519996e+02  -1.443246e+02
   1.829929e+02   6.659649e+01
  -4.903179e+01   2.223093e+02
  -1.884875e+02   2.175853e+01
  -1.473548e+02  -2.669844e+02
   1.141278e+01  -3.534392e+02
   2.265793e+02  -2.009108e+02
   3.224820e+02   6.874893e+01
   2.581105e+02   2.435706e+02
   8.431807e+01   2.814263e+02
  -1.265727e+02   1.947763e+02
  -2.047928e+02   3.868075e-01
  -5.924548e+01  -3.197804e+01
   7.841017e+01   2.904776e+01
   4.693298e+00   1.153993e+02
  -1.313627e+02   1.004552e+02
  -2.130340e+02  -3.902703e+01
  -6.612905e+01  -8.220809e+01
   1.128304e+02  -8.726266e+00
   6.535623e+01   6.549997e+01
  -1.254584e+02   1.050790e+02
  -3.196011e+02  -1.428494e+01
  -2.690388e+02  -1.185459e+02
  -3.613856e+01  -2.764601e+02
   1.867610e+02  -2.787344e+02
   2.781634e+02  -9.896385e+01
   1.659115e+02   2.804311e+01
  -5.452582e+01   9.368425e+01
  -8.335915e+01   1.369220e+01
   3.361356e+01  -9.934538e+01
   1.943507e+02  -5.095527e+01
   2.354396e+02   1.045212e+02
   3.964570e+01   2.173242e+02
  -1.131770e+02   1.614334e+02
  -1.724463e+02   3.327946e-05
  -9.773196e+01  -3.861904e+01
   3.539583e+01  -2.787054e+01
   5.514186e+01   3.956279e+01
  -8.341101e+01   1.158405e+02
  -1.970047e+02   2.567121e+01
  -1.612054e+02  -1.499829e+02
  -4.012358e+01  -2.227488e+02
   1.830621e+02  -1.512965e+02
   2.034620e+02  -3.825271e-01
   4.712613e+01   1.346049e+02
  -5.271120e+01   9.795613e+01
  -1.126640e+02   1.231046e+01
  -1.240137e+01  -3.289876e+00
   3.262480e+01  -2.296212e+01
   9.171882e-01   4.149914e+01
  -5.485798e+01  -9.979865e+00
  -9.184163e+01  -9.289426e+01
  -3.300476e+01  -1.576375e+02
   1.384235e+02  -1.640058e+02
   2.239570e+02   5.322061e+00
   2.173225e+02   1.563302e+02
   2.665574e+01   2.233809e+02
  -1.173302e+02   1.742053e+02
  -1.312493e+02   2.896198e+01
  -7.618163e+01  -4.585542e+01
  -2.455088e+01  -3.865527e+01
  -5.678897e+01   1.215816e+01
  -7.926204e+01   1.598424e+01
  -5.846007e+01  -4.163601e+01
   1.430081e+01  -7.282833e+01
   8.279299e+01  -4.528753e+01
   8.835884e+01   9.917308e+00
  -1.083191e+01   1.263690e+02
  -1.723280e+02   8.992757e+01
  -2.142326e+02  -5.750137e+01
  -4.867094e+01  -2.106507e+02
   1.064127e+02  -2.213949e+02
   2.806698e+02  -1.051817e+02
   2.479358e+02   1.165374e+02
   9.871267e+01   1.918106e+02
  -6.942853e+01   1.398448e+02
  -1.067688e+02   8.504445e+01
  -1.034336e+02   7.050579e+01
  -5.392665e+01   8.489133e+01
  -1.001589e+02   6.818358e+01
  -1.410167e+02  -3.420418e+01
  -1.412241e+02  -1.557861e+02
  -3.586279e+01  -2.411857e+02
   9.859034e+01  -1.533578e+02
   1.594374e+02  -1.781218e+01
   1.244243e+02   1.343079e+02
   2.205392e+01   1.302600e+02
  -9.281904e+01   9.122376e+01
  -4.947183e+01   1.093313e+01
  -3.195815e+01  -5.003147e+01
  -1.120375e+01  -4.273574e+01
  -3.490212e+01  -3.016859e+01
  -4.264052e+01  -4.579893e+00
  -4.893224e+01  -4.478581e+01
   5.535247e+01  -5.074351e+01
   1.551196e+02  -1.449161e+01
   1.405595e+02   4.087986e+01
   1.650076e+01   1.068772e+02
  -1.163940e+02   6.404377e+01
  -1.231780e+02   1.877358e+01
  -6.832034e+01  -3.568360e+01
   5.670149e+01  -1.478095e+01
   8.210599e+01   3.325803e+01
   5.272146e+00   6.701848e+01
  -5.460036e+01   5.403241e+01
  -4.167634e+01  -1.857274e+01
  -1.401062e+01  -6.907647e+01
  -6.849961e+01  -1.856958e+01
  -5.799255e+01   4.509246e+00
  -4.590086e+01   1.639603e+01
  -2.661978e+01  -6.475992e+01
   2.619460e+01  -1.353633e+02
   7.500359e+01  -1.329321e+02
   1.683495e+02  -2.633661e+01
   9.734974e+01   8.431152e+01
  -6.910313e+00   9.970525e+01
  -8.227925e+01   7.960710e+01
  -5.602383e+01  -2.947879e+01
   6.079727e+01  -9.235431e+00
   1.509535e+02   3.689666e+01
   5.822778e+01   1.296975e+02
  -6.943550e+01   1.446598e+02
  -1.874345e+02   1.165250e+01
  -1.825941e+02  -3.601383e+01
  -3.360996e+01  -1.206652e+02
   5.251939e+01  -7.724598e+01
   2.892092e+01   5.561435e+00
  -2.106122e+01   7.255231e+00
  -5.488307e+01  -2.401338e+01
  -4.809382e+01  -8.576414e+01
   9.509243e+01  -1.387397e+02
   1.950559e+02  -3.430537e+01
   1.125157e+02   9.300558e+01
  -7.821251e+00   1.930383e+02
  -1.040248e+02   1.225589e+02
  -1.261446e+02  -3.057719e+01
  -6.279118e+01  -1.082271e+02
   9.421950e-02  -9.977845e+01
   7.086179e+01   5.405413e-01
   6.598404e+01   2.099176e+01
   2.845053e+01   2.899793e+01
   1.726409e+01  -3.314378e+01
   3.819883e+01   1.989066e+01
   6.132046e+01   5.984094e+01
   1.831485e+01   1.045398e+02
  -5.567278e+01   6.577154e+01
  -1.275087e+02  -3.783952e+01
  -1.185578e+02  -7.050221e+01
  -2.609127e+01  -5.112208e+01
   8.863948e+01  -3.071849e+01
   1.074186e+02  -2.587159e+01
   1.606111e+01  -7.093988e+00
  -3.515563e+01   9.509706e+00
  -3.853350e+01   2.625818e+01
  -9.335087e+00   2.489136e+01
  -6.003195e+00   6.979832e+00
  -9.162257e+01  -5.328609e+00
  -1.084607e+02  -2.206168e+01
  -4.868481e+01  -7.565273e+01
   1.400229e+02  -7.293032e+01
   1.743528e+02  -7.471129e+01
   1.422654e+02   8.854118e+01
   2.673491e+01   1.623501e+02
  -8.276997e+01   1.365928e+02
  -1.065885e+02   6.090114e+01
  -8.403939e+01  -2.233525e+01
  -1.958453e+01  -3.667025e+01
   2.627874e+01   1.958437e+01
  -1.118424e+01  -8.318977e+00
  -2.865512e+01  -5.803557e+01
  -9.885424e+00  -8.753864e+01
   2.750202e+01  -8.027589e+01
   8.084256e+01   2.783274e+01
   5.624450e+01   1.034916e+02
   3.264016e+01   1.067159e+02
  -4.830508e+01   3.502130e+01
  -9.000085e+01  -7.555019e+01
  -1.143695e+01  -9.867781e+01
   5.326909e+01  -6.487566e+01
   1.048708e+02   1.241173e+01
   3.307725e+01   6.845972e+01
  -8.518019e+00   4.802850e+01
  -1.470197e+01   1.570685e+01
   2.371721e+01   2.272723e+01
   5.094313e+01   6.477371e+00
   4.454410e+01   1.481429e+01
  -6.479970e+01   6.585283e+01
  -1.122001e+02   7.047098e+01
  -5.782291e+01  -2.334613e+01
   1.434238e+01  -7.842753e+01
   5.940108e+01  -6.230169e+01
   6.028320e+01   8.891991e+00
   2.697494e+00   6.275482e+01
  -2.627632e+01   5.885713e+01
  -6.002419e+01  -4.988671e+01
  -1.302366e+01  -7.002509e+01
   2.076775e+01  -3.638552e+01
   2.876185e+01   1.758776e+00
   4.388228e+01   3.920591e+01
   2.551747e+01  -2.791138e+00
  -2.272687e+01  -3.518870e+01
  -2.301829e+01   6.708282e+00
  -2.089113e+01   5.943991e+01
  -2.029499e+01   3.782984e+01
  -4.739710e+01   5.173401e+00
  -1.924766e+01  -6.849274e+01
   6.702014e+00  -6.186240e+01
   8.413501e+01  -1.945894e+01
   4.538540e+01   6.719881e+01
  -1.203358e+01   7.569348e+01
  -6.672967e+01   1.874391e+01
  -7.992915e+01  -2.418457e+01
  -6.831297e+01  -3.261714e+01
   2.080540e+01  -4.175053e+01
   8.319034e+01   9.257835e+00
   1.748093e+01  -1.361051e+01
  -5.866874e+01  -1.070774e+01
  -2.096461e+01  -1.062972e+01
   2.940484e+01  -1.310616e+01
   1.103229e+02  -3.344949e+00
