
 $NMID
 id='ANONYMOUS ', fmtdat='(2E16.6)'
 volume=1.0
 tramp=1.0
 $END
  -3.597323e+03  -3.374880e+02
  -1.807781e+03  -2.071373e+03
   3.438645e+01  -1.945387e+03
   1.217762e+03  -1.032320e+03
   9.064134e+02  -3.831568e+01
   9.068089e+01   1.705361e+02
  -3.965600e+02  -2.793320e+02
   2.948398e+01  -6.030136e+02
   5.491787e+02  -6.142592e+02
   6.081498e+02  -9.032431e+01
   2.839624e+02   5.504053e+02
  -4.901792e+01   6.470292e+02
  -2.628640e+02   1.596648e+02
  -2.498062e+02  -4.500567e+02
   1.497321e+02  -5.686179e+02
   4.668086e+02  -4.801067e+01
   2.685444e+02   4.799344e+02
  -1.440441e+02   5.906960e+02
  -4.511443e+02   2.071358e+02
  -3.936035e+02  -1.488190e+02
  -7.989368e+01  -3.405545e+02
   1.504154e+02  -2.215855e+02
   8.776825e+01  -1.503283e+01
  -2.417855e+02  -4.911084e+01
  -2.980301e+02  -3.153733e+02
   5.219447e+00  -3.565532e+02
   4.888833e+02  -1.943525e+02
   6.668341e+02   2.516212e+02
   2.395608e+02   4.364076e+02
  -4.061027e+02   2.359722e+02
  -4.649374e+02  -1.475092e+02
  -1.821969e+02  -4.574935e+02
   2.934993e+02  -3.458355e+02
   4.683324e+02  -3.658130e+01
   2.788749e+02   1.597643e+02
   5.859375e+01   2.906073e+02
  -6.235181e+01   1.576321e+02
   1.406633e+01  -1.729831e+02
   2.743461e+02  -1.884640e+02
   2.706348e+02   1.404253e+02
  -6.185582e+01   5.804015e+02
  -3.446863e+02   4.951717e+02
  -2.943848e+02  -3.698427e+01
  -7.715574e+01  -3.880581e+02
   1.693025e+02  -1.934860e+02
   2.025035e+02   3.513843e+02
  -1.402801e+02   4.331027e+02
  -4.303726e+02   8.520100e+01
  -4.478735e+02  -3.421058e+02
  -8.656447e+01  -5.097009e+02
   2.941965e+02  -2.514949e+02
   5.261799e+02   1.013633e+02
   3.203165e+02   3.221341e+02
  -9.291872e+01   2.878294e+02
  -3.623939e+02   6.503939e+01
  -1.979309e+02  -4.189836e+01
   7.007123e+00  -2.506242e+01
   6.159867e+01   8.417264e+01
  -1.080677e+02   7.810636e+01
  -2.280895e+02  -5.192853e+01
  -6.986594e+01  -2.057204e+02
   1.763720e+02  -2.170717e+02
   2.875487e+02  -9.775711e+01
   2.457069e+02   8.352557e+01
  -3.133283e+01   2.565787e+02
  -3.053513e+02   3.637616e+02
  -3.451618e+02   1.479073e+02
  -2.363999e+02  -1.971491e+02
  -3.509345e+01  -3.656905e+02
   1.954140e+01  -3.031248e+02
   3.714404e+00  -1.560034e+02
   6.817123e-01  -9.355540e+01
   1.156570e+02  -1.224500e+02
   2.641595e+02  -1.068035e+02
   2.495755e+02   8.886928e+01
   5.789760e+01   2.627902e+02
  -9.554858e+01   1.872201e+02
  -1.733564e+02  -5.317842e+01
  -1.521003e+02  -2.261152e+02
   3.970662e+01  -2.508988e+02
   2.576312e+02  -6.091643e+01
   3.050919e+02   2.369344e+02
   1.610952e+02   2.629608e+02
  -7.875676e+01   2.678886e+02
  -1.605760e+02   1.552454e+02
  -1.520416e+02   4.753868e+01
  -1.547202e+02   6.233371e+01
  -2.402888e+02   4.808563e+01
  -3.990743e+02  -1.370439e+02
  -3.080623e+02  -2.867085e+02
   3.403728e+01  -4.250072e+02
   4.298658e+02  -3.754741e+02
   4.717727e+02  -1.933961e+02
   2.792730e+02   1.222134e+02
  -5.623563e+00   2.936627e+02
  -9.836895e+01   2.122558e+02
  -1.310490e+01   1.729514e+01
   1.274612e+02  -5.580488e+01
   1.492132e+02   5.620693e+01
  -3.095491e-01   1.373588e+02
  -1.459015e+02   9.670562e+01
  -1.121136e+02  -6.111762e+01
   4.131071e+01  -1.178332e+02
   1.473545e+02   9.494913e+00
   1.145104e+02   2.604801e+02
  -1.167516e+01   3.690206e+02
  -2.401904e+02   1.858016e+02
  -3.443713e+02  -3.533569e+01
  -2.668508e+02  -2.452841e+02
  -6.970116e+01  -2.721611e+02
   1.333093e+02  -1.469913e+02
   1.788890e+02   1.355373e+01
   3.691924e+01   3.244236e+01
  -5.190256e+01  -6.505489e+01
   1.533600e+01  -9.973696e+01
   1.412116e+02  -7.745288e+01
   1.839763e+02   5.495072e+01
   1.682423e+01   5.160619e+01
  -8.483850e+01  -2.535960e+01
  -2.396750e+01  -8.727276e+01
   1.244774e+02  -7.855438e+01
   2.960692e+02   4.524373e+01
   2.572105e+02   1.674868e+02
   1.647931e+01   2.488617e+02
  -2.209765e+02   2.388904e+02
  -2.373967e+02   1.005192e+02
  -1.369355e+02  -5.263378e+01
   8.256167e+00  -9.924870e+01
   9.892672e+01   1.307760e+01
  -3.644817e+01   5.184219e+01
  -1.957500e+02   1.194924e+01
  -2.073233e+02  -1.011819e+02
  -4.815850e+01  -1.779351e+02
   1.046633e+02  -1.210696e+02
   1.041345e+02  -2.230865e+00
   5.460074e+01   2.132649e+01
  -3.114434e+01   8.767496e+00
  -1.847197e+01  -1.331269e+02
   7.762597e+01  -1.207773e+02
   2.226102e+02  -1.979410e+01
   1.773989e+02   1.523707e+02
   2.487745e+00   2.023437e+02
  -1.540549e+02   1.370931e+02
  -1.486928e+02   2.033278e+01
  -8.001502e+01  -8.618557e+01
   7.529346e+01  -1.294309e+02
   8.200694e+01  -3.506412e+01
   2.163984e+01   4.745123e+01
  -4.603205e+01  -8.972149e-01
   4.081967e+01  -2.947644e+01
   4.969771e+01   8.134662e-01
   1.073030e+02   1.047955e+02
  -6.658568e+00   1.680436e+02
  -1.010391e+02   1.687186e+02
  -2.429249e+02  -4.057339e-01
  -1.647336e+02  -1.231213e+02
  -2.469866e+01  -2.117460e+02
   1.170244e+02  -1.527273e+02
   1.210237e+02   9.678105e-01
   5.497508e+01   5.897723e+01
   2.549827e+01   5.615021e+01
   6.342938e+01  -1.114902e+01
   9.800907e+01  -1.450513e+01
   6.790995e+01   4.226843e+01
  -5.337011e+01   1.321636e+02
  -1.189253e+02   8.151989e+01
  -1.106839e+02  -5.720261e+01
   7.158509e+00  -1.465703e+02
   1.622643e+02  -9.576219e+01
   2.100645e+02   9.752694e+01
   7.537911e+01   2.318887e+02
  -1.420172e+02   2.279220e+02
  -2.861603e+02   4.776158e+01
  -2.356499e+02  -1.021389e+02
  -8.588772e+01  -1.610761e+02
   2.029117e+01  -1.393898e+02
   1.103437e+02  -7.186319e+01
   6.161981e+01  -7.415680e+01
   6.255478e+01  -9.919708e+01
   9.835668e+01  -6.938922e+01
   1.382001e+02   1.802166e+01
   1.100444e+02   1.588584e+02
   9.243332e+00   2.236441e+02
  -9.154592e+01   1.366213e+02
  -1.685591e+02   1.099186e+01
  -1.210556e+02  -1.058871e+02
  -1.088532e+01  -1.540345e+02
   6.652396e+01  -9.149582e+01
   5.357176e+01   1.487850e+01
   2.887263e+01   6.424784e+01
  -1.340274e+01   3.542882e+01
   3.367050e+01   1.185468e+01
   6.135607e+01   2.525111e+01
   4.502661e+01   3.211282e+01
  -2.993014e+01   2.113478e+01
  -1.506167e+02   5.680771e+00
  -1.571478e+02  -6.984694e+01
   2.321110e+00  -1.100348e+02
   1.363050e+02  -3.247996e+01
   1.175570e+02  -2.911907e+01
   4.333221e+01   5.176732e+01
  -7.527412e+01   3.686986e+01
  -9.153641e+01  -1.282665e+01
  -3.069568e+01  -8.576173e+01
   5.603881e+01  -7.229676e+01
   9.394453e+01   7.332891e+00
   2.162846e+01   3.091087e+01
   5.540158e+01   4.123550e+01
   1.000704e+02  -1.261761e+01
   5.739715e+01   1.682743e+01
   3.333255e+01   7.411712e+01
  -1.481922e+01   1.638190e+02
  -1.337851e+02   1.252565e+02
  -1.762601e+02   2.048449e+01
  -1.165253e+02  -1.241527e+02
   6.202990e+00  -1.394151e+02
   7.423864e+01  -5.066213e+01
   8.469474e+01   1.104128e+01
  -7.027759e+01   2.727787e+01
  -1.311617e+02  -4.332412e+01
  -6.806758e+01  -1.038717e+02
   6.709745e+01  -1.026317e+02
   1.900053e+02  -4.818843e+01
   1.887709e+02   5.512504e+01
   5.226053e+01   7.216981e+01
  -7.864771e+01   6.626635e+01
  -5.520486e+01   3.181250e-01
   3.629951e+01  -3.774341e+01
   8.321740e+01   2.087152e+01
   2.303250e+01   1.259266e+02
  -7.886615e+01   1.570313e+02
  -1.457284e+02   5.722628e+01
  -1.478308e+02  -1.115783e+02
   3.257019e+01  -1.830988e+02
   9.974283e+01  -1.424909e+02
   1.135725e+02   6.682351e+00
   4.441133e+01   1.419592e+02
   4.489500e+00   1.172590e+02
  -5.172131e+01   2.002868e+01
  -2.595966e+01  -2.673368e+01
  -2.138804e+01   7.716305e+00
  -2.268883e+01   1.994907e+00
  -3.237509e+01  -3.819558e+01
  -7.540241e+01  -8.161692e+01
  -2.247557e+01  -1.005179e+02
   5.807388e+01  -4.665580e+01
   1.332917e+02   4.053761e+01
   1.022640e+02   9.109601e+01
   9.584391e+00   6.080276e+01
  -7.544427e+01   3.364666e+01
  -8.385603e+01  -6.178738e+00
  -2.349433e+01  -1.252274e+01
   4.247990e+01  -1.458215e+01
   2.389325e+01  -2.358926e+01
  -1.378824e+01   7.050327e+00
  -6.136075e+00  -9.442443e+00
   6.173295e+01  -1.656489e+00
   7.799631e+01   4.160440e+01
   2.456829e+01   7.359488e+01
  -1.113833e+02   1.316543e+02
  -1.776648e+02   5.595519e+01
  -1.568457e+02  -7.016522e+01
  -1.997556e+01  -1.661934e+02
   7.870873e+01  -1.581835e+02
   9.452148e+01  -7.246630e+01
   7.802382e+01   1.703147e+01
   4.786360e+01   5.352040e+01
   1.173445e+01   1.251105e+01
   1.694400e+01   1.802740e+01
   1.482064e+01   1.343991e+01
   2.590022e+01   1.154626e+02
  -2.025913e+01   7.646177e+01
  -8.012002e+01  -3.742788e+00
  -6.501287e+01  -1.270130e+02
  -1.872121e+01  -1.212989e+02
   5.688031e+01  -4.690341e+01
   9.992218e+01   6.015877e+01
   6.227505e+01   1.114469e+02
  -5.612250e+01   5.520493e+01
  -1.208589e+02  -1.821750e+00
  -3.115023e+01  -6.736767e+01
   5.015956e+01  -4.721587e+01
   2.780998e+01  -1.339588e+01
  -1.558469e+01   1.560053e+01
  -6.147797e+01   6.978268e+00
   1.878973e+01  -4.746384e+01
   7.151753e+01  -9.523497e+01
   1.263244e+02  -4.630101e+01
   5.326347e+01  -2.297217e-01
  -1.425664e+01   7.478357e+01
  -6.589844e+01   8.853211e+01
  -3.506604e+01   2.221648e+01
  -3.106654e+00  -1.108160e+01
   1.711192e+01  -5.189520e+01
   2.887810e+01   1.546558e+01
   1.531596e+01   6.089683e+01
   1.186886e+01   4.141602e+01
  -2.839843e+01   3.126446e+01
  -5.935234e+01  -3.482297e+01
  -3.924636e+01   1.721827e+01
   6.562807e+00   2.842475e+01
   2.135712e+01   3.237360e+01
   1.485829e+01  -2.555425e+01
   9.716689e+00  -8.192417e+01
   4.557467e+01  -2.477607e+01
   4.282863e+01   1.973891e+01
   2.146143e+01   8.220931e+01
  -4.698170e+01   6.630800e+00
  -4.819830e+01  -4.805953e+01
  -2.965227e+01  -7.385552e+01
   6.846426e+01  -2.359820e+01
   9.292503e+01  -2.694626e+01
   5.055127e+01   4.499116e+01
  -4.083979e+01   3.801357e+01
  -6.443833e+01   1.142711e+01
  -2.547584e+01   1.448358e+01
   1.977080e+01  -9.351365e+00
   4.991486e+01   8.927240e+00
  -3.662107e+01   2.403692e+01
  -7.720591e+01   5.372554e+00
