
 $NMID
 id='ANONYMOUS ', fmtdat='(2E16.6)'
 volume=1.0
 tramp=1.0
 $END
  -3.325385e+03   2.312421e+02
  -2.412650e+03  -2.088698e+03
   2.574567e+02  -2.381337e+03
   1.425412e+03  -1.165947e+03
   9.074970e+02   1.066793e+02
  -3.003093e+02   2.308441e+02
  -4.910250e+02  -2.100363e+02
  -7.355015e+01  -7.860460e+02
   4.644860e+02  -6.330894e+02
   7.263061e+02  -2.984036e+01
   4.922071e+02   6.131909e+02
  -8.245712e+01   6.797635e+02
  -4.057518e+02   2.120270e+02
  -3.172759e+02  -4.346211e+02
   1.500388e+02  -6.003011e+02
   5.032998e+02  -1.099420e+02
   3.031329e+02   5.404268e+02
  -2.116873e+02   6.012835e+02
  -4.928535e+02   1.971959e+02
  -3.775682e+02  -2.318547e+02
  -9.237532e+01  -3.743555e+02
   1.535031e+02  -2.450967e+02
   9.337777e+01  -7.320215e+01
  -1.379604e+02  -3.758412e+01
  -3.105714e+02  -1.839499e+02
  -3.768208e+01  -3.136539e+02
   4.525595e+02  -3.037663e+02
   6.966924e+02   1.431666e+02
   2.921821e+02   4.405831e+02
  -2.983441e+02   3.135599e+02
  -5.563141e+02  -7.442234e+01
  -2.632873e+02  -4.433036e+02
   2.259120e+02  -4.293257e+02
   4.754286e+02  -1.936382e+02
   3.357509e+02   1.629444e+02
   1.661330e+02   3.375784e+02
  -1.035088e+02   2.175258e+02
  -6.132063e+01  -1.262419e+02
   1.902565e+02  -3.139537e+02
   2.569701e+02   5.560685e+01
   1.589628e+02   4.974993e+02
  -2.417355e+02   5.396496e+02
  -4.022525e+02   7.167203e+01
  -1.872436e+02  -3.563503e+02
   1.580222e+02  -2.277491e+02
   2.743871e+02   2.995913e+02
  -1.081906e+02   4.530263e+02
  -5.113609e+02   6.646160e+01
  -5.029413e+02  -3.344310e+02
  -1.727594e+02  -4.724070e+02
   2.657188e+02  -2.588730e+02
   5.448598e+02   2.215755e+01
   3.683356e+02   2.609046e+02
  -1.003878e+02   2.697869e+02
  -3.463325e+02   6.501815e+01
  -2.427079e+02  -5.560423e+01
   3.956443e+01  -6.949055e+01
   6.439674e+01   6.922138e+01
  -6.041976e+01   1.123583e+02
  -2.441308e+02  -7.096975e+01
  -1.769497e+02  -2.134774e+02
   1.518550e+02  -2.233253e+02
   3.363938e+02  -9.998623e+01
   2.277900e+02   1.032288e+02
  -2.054541e+01   2.802879e+02
  -2.271245e+02   3.541568e+02
  -3.562781e+02   1.814918e+02
  -2.574040e+02  -1.289355e+02
  -6.899514e+01  -3.349415e+02
   3.955540e+01  -3.089502e+02
   7.952735e+01  -1.309805e+02
   4.033365e+01  -8.410280e+01
   8.405562e+01  -1.013088e+02
   2.236761e+02  -1.112375e+02
   2.617215e+02   7.317025e+01
   1.122663e+02   2.781938e+02
  -5.868181e+01   1.858121e+02
  -1.898974e+02   2.492865e+01
  -1.976933e+02  -2.388253e+02
   1.991079e+01  -2.775172e+02
   2.439176e+02  -1.250512e+02
   3.555190e+02   1.394716e+02
   1.360832e+02   2.561648e+02
  -3.083270e+01   2.780273e+02
  -1.909056e+02   1.363305e+02
  -1.489393e+02   4.996495e+01
  -1.482131e+02   4.851132e+01
  -2.328125e+02   6.593366e+01
  -3.898689e+02  -7.613129e+01
  -3.366107e+02  -2.680085e+02
  -1.040613e+01  -4.385093e+02
   3.130776e+02  -4.552036e+02
   4.249780e+02  -2.214847e+02
   2.813575e+02   8.280437e+01
   4.206994e+01   2.360194e+02
  -6.734246e+01   2.155818e+02
  -4.574987e+01   3.238240e+01
   1.054188e+02  -7.348428e+01
   1.645323e+02   1.737813e+01
   4.558572e+01   1.450719e+02
  -1.471384e+02   1.396543e+02
  -1.324331e+02  -5.017947e+01
   1.202545e+01  -1.917013e+02
   1.476016e+02  -1.221067e+01
   1.256072e+02   2.341866e+02
  -1.704820e+01   3.292178e+02
  -2.057109e+02   2.019861e+02
  -3.278180e+02  -3.468411e+01
  -2.685954e+02  -2.515475e+02
  -7.871147e+01  -2.453668e+02
   1.407194e+02  -1.535097e+02
   1.237506e+02   1.259865e+00
   3.098396e+01   2.995206e+01
  -3.462739e+01  -5.933350e+01
   6.418477e+00  -1.180959e+02
   1.142849e+02  -3.126142e+01
   1.585771e+02   5.423043e+00
   4.492385e+01   4.599686e+01
  -6.417913e+01   2.055011e+00
  -3.355749e+01  -9.612864e+01
   1.460446e+02  -6.903159e+01
   2.869207e+02   2.144776e+01
   2.630315e+02   1.132730e+02
   3.641155e+01   2.380298e+02
  -1.502818e+02   2.467401e+02
  -2.654947e+02   1.066700e+02
  -1.169934e+02  -3.802659e+01
   3.570434e+01  -8.070895e+01
   8.745145e+01  -5.053504e+00
  -3.363209e+01   5.970172e+01
  -1.877317e+02   2.434610e+01
  -2.073308e+02  -8.681842e+01
  -4.140210e+01  -1.731732e+02
   5.447361e+01  -1.082640e+02
   1.070620e+02   1.927511e+01
   3.485969e+01   4.066013e+01
  -4.724514e+01  -3.201287e+01
  -2.177148e+01  -1.033592e+02
   7.667075e+01  -1.081379e+02
   1.950260e+02  -2.554186e+01
   1.740086e+02   1.267920e+02
   4.139109e+01   1.834795e+02
  -1.198384e+02   1.650532e+02
  -1.582984e+02  -5.892434e-01
  -5.803550e+01  -1.001382e+02
   4.426607e+01  -1.197635e+02
   7.846269e+01  -4.030040e+01
  -1.240281e+01   3.420962e+01
  -1.550583e+01   1.944120e+01
   2.516709e+00  -1.852144e+01
   7.735107e+01  -1.127337e+01
   1.068455e+02   5.959946e+01
   3.159964e+01   1.699568e+02
  -1.449676e+02   1.650574e+02
  -2.135268e+02   4.394298e+01
  -1.978256e+02  -1.304257e+02
  -4.489688e+01  -1.888815e+02
   1.152885e+02  -1.508369e+02
   1.556297e+02  -3.152638e+01
   4.316740e+01   6.355347e+01
   4.960506e+01   2.981486e+01
   6.363985e+01  -1.471503e+01
   9.143813e+01  -2.620444e+00
   3.535106e+01   1.007568e+01
  -4.160767e+01   1.235015e+02
  -7.756468e+01   4.763871e+01
  -8.483876e+01  -1.935659e+01
   1.516075e+01  -9.848071e+01
   1.494031e+02  -8.637024e+01
   1.846905e+02   7.392825e+01
   9.341963e+01   2.013663e+02
  -9.143893e+01   2.174132e+02
  -2.411693e+02   9.112136e+01
  -2.299140e+02  -7.917448e+01
  -8.471701e+01  -1.963504e+02
   2.427434e+01  -1.493795e+02
   1.034068e+02  -7.356473e+01
   7.208355e+01  -6.954875e+01
   4.913089e+01  -8.458946e+01
   1.216583e+02  -5.987845e+01
   1.295181e+02   1.150403e+01
   1.173623e+02   1.348945e+02
   2.426881e+00   2.199833e+02
  -9.836154e+01   1.668052e+02
  -1.388200e+02   3.213090e+01
  -1.127664e+02  -1.089532e+02
  -4.787984e-01  -1.661134e+02
   6.583443e+01  -8.957182e+01
   5.789640e+01  -3.573588e+00
  -2.724601e+00   4.820225e+01
  -2.369845e+01   2.388465e+00
   4.053374e+01   1.534015e+01
   7.180591e+01   1.077378e+01
   5.692377e+01   4.677743e+01
  -7.389239e+01   2.312829e+01
  -1.660825e+02   5.404925e+00
  -1.130783e+02  -5.174120e+01
  -1.885617e+01  -8.107494e+01
   1.595020e+02  -5.989089e+01
   1.519642e+02  -3.727323e+00
   4.956799e+01   4.915045e+01
  -5.207016e+01   7.764016e+01
  -9.801937e+01  -3.882508e+01
  -3.135007e+01  -6.432777e+01
   6.737088e+01  -6.517883e+01
   6.828606e+01   6.893233e+00
   6.658401e+01   4.063644e+01
   4.580155e+01   4.652225e+01
   3.867234e+01   9.387123e+00
   1.063128e+02  -1.733910e+00
   4.855404e+01   7.051789e+01
  -3.129401e+01   1.365291e+02
  -1.168381e+02   1.294946e+02
  -1.572700e+02   7.996992e+01
  -1.590965e+02  -7.699992e+01
   2.745808e+01  -1.127792e+02
   5.907675e+01  -6.084067e+01
   7.038343e+01   1.738868e+01
  -6.414965e+01   5.927550e+01
  -1.276874e+02  -5.547309e+01
  -7.527625e+01  -8.059429e+01
   8.273829e+01  -1.162230e+02
   1.887951e+02  -5.725653e+01
   1.442658e+02   6.264216e+01
   2.914387e+01   4.748174e+01
  -5.072526e+01   5.724145e+01
  -5.634326e+01   1.191397e+01
   3.438029e+01  -4.779175e+01
   9.127900e+01   7.162089e+00
   3.837792e+01   1.159777e+02
  -8.330927e+01   1.520480e+02
  -1.353696e+02   5.097153e+01
  -1.303815e+02  -1.308746e+02
  -3.030031e+01  -1.944152e+02
   8.527291e+01  -1.423957e+02
   1.310131e+02  -3.113278e+00
   4.371573e+01   1.102703e+02
  -1.168234e+01   1.028952e+02
  -4.995748e+01   3.935577e+01
  -3.504697e+01  -1.759477e+01
  -2.509228e+01  -1.027878e+01
  -1.343296e+01   3.313330e+01
  -5.889140e+01  -3.535020e+01
  -6.245419e+01  -7.478813e+01
  -3.500933e+01  -1.097736e+02
   4.719859e+01  -2.892549e+01
   1.434191e+02   4.755194e+01
   1.402743e+02   6.187137e+01
   1.294365e+01   3.679651e+01
  -8.975371e+01   2.334372e+01
  -5.791081e+01   6.347896e+00
  -2.666889e+00   1.303215e+01
   2.317519e+01  -5.227029e+01
   1.758687e+01  -1.971763e+01
  -2.657655e+01   3.638095e+01
  -8.757898e+00   8.525621e+00
   8.662150e+01   7.538672e+00
   6.738063e+01   1.977230e+01
   2.640447e+01   1.028869e+02
  -6.722795e+01   1.131080e+02
  -1.763768e+02   7.191652e+01
  -1.529637e+02  -4.249319e+01
  -2.459596e+01  -1.525296e+02
   7.334184e+01  -1.420629e+02
   9.207500e+01  -8.137803e+01
   8.713689e+01   2.880866e+01
  -4.431390e+00   4.283180e+01
  -2.669066e+01  -1.385806e+01
   2.062195e+01   3.895512e+01
   3.182551e+01   4.268077e+01
   3.185104e+01   9.946388e+01
  -3.964013e+01   8.273421e+01
  -7.645701e+01  -8.499783e+00
  -1.054410e+02  -7.249143e+01
  -1.604471e+01  -9.695835e+01
   7.142240e+01  -4.441430e+01
   9.820920e+01   6.688012e+01
   4.238144e+01   1.241002e+02
  -6.019468e+01   4.580908e+01
  -1.050198e+02   9.088889e+00
  -5.581538e+01  -2.001972e+01
   4.551163e+01  -4.918059e+01
   4.151841e+01  -3.286601e+01
  -3.156108e+01   1.709244e+01
  -8.311262e+01   2.528769e+01
   1.173206e+01  -1.986467e+01
   6.394779e+01  -6.319330e+01
   9.995418e+01  -4.806001e+01
   6.861180e+01   1.027877e+01
  -4.018355e+01   1.027559e+02
  -4.869377e+01   8.726553e+01
  -3.012039e+01  -3.092951e+01
   2.666795e+01  -1.493459e+01
   1.735064e+01  -8.367615e+01
   1.937123e+01   1.501127e+01
   3.864459e+01   3.157765e+01
   5.489208e+00   2.774465e+01
  -2.915442e+01   1.014720e+01
  -5.218130e+01  -2.557291e+01
  -2.649266e+01  -1.581918e+01
   2.468610e+01   1.074493e+01
   1.062138e+01   2.121460e+00
   1.894307e+01  -5.360096e+01
  -8.017280e+00  -5.648113e+01
   3.263969e+01  -4.811761e+01
   3.820709e+01   2.593390e+01
   1.897724e+01   6.330931e+01
  -4.211124e+01   5.086523e+01
  -7.150549e+01  -5.478953e+01
  -2.457196e+01  -3.498891e+01
   4.563978e+01  -2.396941e+01
   8.330167e+01   3.312324e+01
   6.638388e+01   3.391441e+01
  -4.246555e+01   4.025563e+01
  -7.330410e+01   7.654254e+00
  -4.035726e+01   4.494000e-01
   2.492638e+01  -1.856559e+01
   1.482274e+01   4.867489e+00
  -2.526400e+01   2.407750e+01
  -7.933149e+01   4.122947e+01
