
 $NMID
 id='ANONYMOUS ', fmtdat='(2E16.6)'
 volume=1.0
 tramp=1.0
 $END
   5.014441e+07  -1.316461e+06
   3.134969e+07   2.961534e+07
  -5.118284e+06   3.397613e+07
  -2.403199e+07   1.444902e+07
  -1.523954e+07  -5.124769e+06
   2.358841e+06  -8.490733e+06
   8.965429e+06   3.509983e+05
   3.192092e+06   8.622305e+06
  -5.059134e+06   9.002688e+06
  -8.663080e+06   2.407064e+06
  -6.545083e+06  -5.466442e+06
  -9.333201e+05  -7.912661e+06
   3.610675e+06  -2.504717e+06
   2.583238e+06   5.159099e+06
  -3.200737e+06   6.339381e+06
  -7.195543e+06  -8.173291e+05
  -4.406572e+06  -9.079020e+06
   3.004732e+06  -1.079473e+07
   8.922062e+06  -5.560753e+06
   9.680489e+06   1.671362e+06
   5.912389e+06   6.530667e+06
   7.188051e+05   7.475372e+06
  -2.210030e+06   5.261651e+06
  -1.108159e+06   2.619447e+06
   1.322667e+06   2.414810e+06
   1.411398e+05   4.150681e+06
  -5.214894e+06   4.084119e+06
  -9.040208e+06   4.120958e+05
  -6.462180e+06  -3.774920e+06
  -5.495872e+04  -4.573164e+06
   3.623189e+06  -2.198409e+06
   2.231206e+06   2.794149e+05
  -9.626460e+05   1.109735e+06
  -2.546943e+06   3.761576e+05
  -2.112410e+06  -1.658881e+06
  -4.496328e+05  -3.829666e+06
   1.687417e+06  -3.440684e+06
   2.710614e+06   2.369675e+05
   1.359913e+06   3.209586e+06
  -6.440159e+05   1.440912e+06
  -1.651598e+05  -2.529569e+06
   2.304391e+06  -2.294048e+06
   2.387812e+06   2.773946e+06
  -1.798146e+06   5.598820e+06
  -5.947314e+06   1.193122e+06
  -4.710222e+06  -5.943403e+06
   1.375046e+06  -7.628681e+06
   6.596452e+06  -2.359392e+06
   6.582001e+06   3.882281e+06
   2.017043e+06   5.569236e+06
  -3.139161e+06   2.738140e+06
  -5.070999e+06  -1.161813e+06
  -2.526163e+06  -3.138444e+06
   2.048505e+06  -2.144695e+06
   4.167336e+06   6.361273e+05
   1.921696e+06   2.375023e+06
  -1.499203e+06   1.302261e+06
  -1.714584e+06  -8.912070e+05
   1.035185e+06  -1.018381e+06
   2.351624e+06   1.252366e+06
  -1.660788e+05   2.962803e+06
  -3.865723e+06   1.929639e+06
  -4.813708e+06  -8.805200e+05
  -2.289425e+06  -3.449553e+06
   1.591716e+06  -4.870725e+06
   4.687709e+06  -4.542664e+06
   5.745843e+06  -1.634222e+06
   4.189288e+06   2.913799e+06
   9.252785e+05   5.728512e+06
  -1.538659e+06   4.555115e+06
  -1.533403e+06   1.393421e+06
  -3.073748e+05  -4.439921e+03
  -2.808826e+05   9.674115e+05
  -1.741082e+06   1.552349e+06
  -2.727800e+06   1.492844e+04
  -1.871207e+06  -2.034035e+06
   1.164477e+05  -2.157721e+06
   1.660420e+06  -1.650667e+05
   1.705867e+06   2.109601e+06
  -1.092662e+04   2.872502e+06
  -2.654292e+06   1.535789e+06
  -4.175024e+06  -1.155936e+06
  -2.968549e+06  -3.452177e+06
  -1.024600e+04  -3.821825e+06
   1.981694e+06  -2.481352e+06
   1.950427e+06  -1.126365e+06
   1.674933e+06  -7.693298e+05
   2.819655e+06  -5.908851e+05
   4.221894e+06   6.063452e+05
   3.442635e+06   2.597854e+06
   2.081925e+05   4.021148e+06
  -3.089925e+06   3.850569e+06
  -4.080747e+06   2.066125e+06
  -2.568205e+06  -4.635758e+05
  -1.956452e+05  -2.198784e+06
   1.119947e+06  -1.851284e+06
   5.369921e+05   6.037334e+04
  -1.072007e+06   1.276605e+06
  -1.832614e+06   4.091069e+05
  -8.738430e+05  -1.142106e+06
   5.227229e+05  -1.097743e+06
   4.870136e+05   3.708993e+05
  -9.488614e+05   8.046809e+05
  -1.859083e+06  -1.011855e+06
  -8.921269e+05  -3.270552e+06
   1.258200e+06  -3.483034e+06
   2.989309e+06  -1.391182e+06
   3.391559e+06   1.227802e+06
   2.416567e+06   2.714951e+06
   5.200523e+05   2.630781e+06
  -1.224965e+06   1.460869e+06
  -1.562383e+06   2.231937e+05
  -4.850103e+05  -3.829302e+04
   3.657511e+05   7.317196e+05
  -3.610186e+05   1.302654e+06
  -1.820364e+06   5.996055e+05
  -1.995468e+06  -7.988050e+05
  -4.246603e+05  -1.357836e+06
   1.134177e+06  -5.933142e+05
   9.147424e+05   4.345077e+05
  -8.103456e+05   5.822337e+05
  -2.204304e+06  -2.211486e+05
  -1.819481e+06  -1.318228e+06
   1.805708e+05  -2.004215e+06
   2.261129e+06  -1.704335e+06
   2.735814e+06  -3.220382e+05
   1.214228e+06   1.206792e+06
  -8.628222e+05   1.461092e+06
  -1.493176e+06   2.067531e+05
  -1.965096e+05  -1.037082e+06
   1.472673e+06  -7.410356e+05
   1.708302e+06   7.269896e+05
   3.895870e+05   1.622275e+06
  -1.038217e+06   1.014698e+06
  -1.258246e+06  -2.500139e+05
  -2.851262e+05  -7.571278e+05
   7.649322e+05  -7.502890e+04
   7.331751e+05   1.019413e+06
  -5.536631e+05   1.403416e+06
  -1.970145e+06   5.515717e+05
  -2.012527e+06  -1.009181e+06
  -4.085604e+05  -2.031867e+06
   1.381787e+06  -1.640023e+06
   1.693841e+06  -2.453421e+05
   5.214842e+05   8.435950e+05
  -6.313966e+05   8.107140e+05
  -6.412906e+05   7.998817e+04
   1.007944e+05  -3.924350e+05
   5.127870e+05  -2.430863e+05
   1.743028e+05   7.969556e+04
  -4.216070e+05  -1.848047e+04
  -5.413943e+05  -6.189707e+05
   1.583900e+05  -1.169582e+06
   1.339690e+06  -9.110814e+05
   2.057297e+06   3.722204e+05
   1.470278e+06   1.890914e+06
  -1.800387e+05   2.396188e+06
  -1.579572e+06   1.439320e+06
  -1.694847e+06  -8.476164e+04
  -8.920316e+05  -8.997917e+05
  -3.254725e+05  -6.961487e+05
  -4.387629e+05  -2.398348e+05
  -5.889867e+05  -2.812305e+05
  -9.908239e+04  -7.277994e+05
   8.400668e+05  -9.086876e+05
   1.432491e+06  -3.589820e+05
   1.070015e+06   7.070881e+05
  -2.129340e+05   1.474432e+06
  -1.688478e+06   1.102999e+06
  -2.236270e+06  -4.399065e+05
  -1.166290e+06  -2.051041e+06
   9.342664e+05  -2.349129e+06
   2.474587e+06  -1.075950e+06
   2.345376e+06   5.892444e+05
   1.002468e+06   1.311085e+06
  -1.729114e+05   9.733068e+05
  -4.056962e+05   5.368786e+05
  -1.102228e+05   7.330111e+05
  -1.007091e+05   1.259156e+06
  -6.314931e+05   1.260525e+06
  -1.255714e+06   3.283856e+05
  -1.327671e+06  -1.047522e+06
  -5.727277e+05  -1.861297e+06
   5.963449e+05  -1.425748e+06
   1.271580e+06  -2.155405e+04
   8.292498e+05   1.242116e+06
  -3.435593e+05   1.383340e+06
  -1.120072e+06   4.454098e+05
  -8.128136e+05  -6.369975e+05
   7.603432e+04  -1.044955e+06
   4.849988e+05  -7.887921e+05
   6.647288e+04  -4.270608e+05
  -4.249211e+05  -3.309395e+05
  -6.026964e+04  -3.794184e+05
   1.118744e+06  -2.300669e+05
   2.024234e+06   2.879551e+05
   1.611454e+06   9.872239e+05
   6.157175e+03   1.403547e+06
  -1.525732e+06   1.145221e+06
  -1.796022e+06   3.165572e+05
  -8.410996e+05  -4.498726e+05
   2.364539e+05  -5.543478e+05
   4.987876e+05  -5.271637e+04
   3.126018e+04   3.978630e+05
  -4.403115e+05   2.555635e+05
  -4.770516e+05  -3.299169e+05
  -2.417448e+05  -7.111357e+05
  -8.473670e+04  -4.692946e+05
  -1.383879e+05   1.076338e+05
  -2.878494e+05   3.055096e+05
  -2.789678e+05  -2.236340e+05
   1.342999e+05  -9.795878e+05
   8.691786e+05  -1.062248e+06
   1.318203e+06  -1.863819e+05
   8.345802e+05   8.856103e+05
  -3.886624e+05   1.114598e+06
  -1.220975e+06   3.387633e+05
  -7.293064e+05  -5.586589e+05
   6.795540e+05  -6.546431e+05
   1.578048e+06   6.354901e+04
   1.027595e+06   8.375605e+05
  -4.507279e+05   9.998872e+05
  -1.481601e+06   5.155187e+05
  -1.236633e+06  -1.622472e+05
  -1.470445e+05  -5.111195e+05
   6.374342e+05  -2.829619e+05
   3.806220e+05   2.790402e+05
  -5.741766e+05   5.173231e+05
  -1.166469e+06  -6.971244e+04
  -6.704378e+05  -1.157603e+06
   5.656448e+05  -1.684604e+06
   1.455508e+06  -8.910546e+05
   1.252788e+06   7.320752e+05
   2.276013e+05   1.770913e+06
  -7.137038e+05   1.298051e+06
  -9.224355e+05  -1.542384e+05
  -4.523414e+05  -1.174032e+06
   1.959628e+05  -9.697596e+05
   5.539017e+05  -9.618337e+04
   4.720498e+05   3.695818e+05
   1.689170e+05   1.376228e+05
   4.522106e+04  -9.775863e+04
   2.755366e+05   2.805815e+05
   5.179526e+05   9.451565e+05
   2.120020e+05   1.068298e+06
  -6.944169e+05   4.068134e+05
  -1.468289e+06  -4.366536e+05
  -1.285934e+06  -8.098574e+05
  -1.958151e+05  -6.876159e+05
   8.410524e+05  -4.267134e+05
   9.733536e+05  -1.974603e+05
   3.564683e+05   4.241275e+04
  -1.411666e+05   2.246336e+05
  -2.971189e+04   2.080850e+05
   2.656158e+05   9.345080e+04
   5.121603e+04   1.299612e+05
  -6.524542e+05   2.417003e+05
  -1.035165e+06   7.819034e+03
  -4.387182e+05  -6.725967e+05
   8.108732e+05  -1.177995e+06
   1.664926e+06  -7.818959e+05
   1.401998e+06   3.970108e+05
   2.986747e+05   1.385694e+06
  -7.315451e+05   1.377085e+06
  -1.026585e+06   5.530601e+05
  -6.519262e+05  -2.176337e+05
  -1.395284e+05  -3.509641e+05
   6.676310e+04  -6.476578e+04
  -8.194592e+04   1.902662e+04
  -3.053810e+05  -3.596116e+05
  -2.604092e+05  -7.965050e+05
   1.629953e+05  -6.757045e+05
   6.747876e+05   1.052306e+05
   7.507017e+05   9.235997e+05
   1.390043e+05   1.015813e+06
  -7.360511e+05   2.622085e+05
  -1.038434e+06  -6.876020e+05
  -3.705052e+05  -1.069303e+06
   6.886795e+05  -6.878583e+05
   1.109481e+06   4.737470e+04
   5.429232e+05   5.950854e+05
  -2.671172e+05   6.803639e+05
  -3.694002e+05   3.752453e+05
   2.412802e+05   4.929377e+03
   6.409418e+05  -5.294156e+04
   1.533916e+05   3.014637e+05
  -8.028988e+05   6.893735e+05
  -1.239566e+06   5.615170e+05
  -7.636039e+05  -1.592614e+05
   7.509291e+04  -8.637883e+05
   5.299012e+05  -8.631498e+05
   4.195787e+05  -1.747302e+05
   6.490292e+04   4.702512e+05
  -2.249061e+05   4.380377e+05
  -3.494553e+05  -1.342041e+05
  -2.651764e+05  -5.652353e+05
   3.936699e+04  -4.270090e+05
   3.872650e+05   3.340534e+04
   4.801308e+05   2.688763e+05
   2.436739e+05   9.235732e+04
  -4.118464e+04  -1.497832e+05
  -8.660093e+04  -4.741332e+04
   2.425430e+04   3.438777e+05
  -2.587343e+04   5.458823e+05
  -3.037939e+05   2.301663e+05
  -4.656451e+05  -3.563961e+05
  -1.780836e+05  -6.327431e+05
   3.931716e+05  -3.222617e+05
   6.660409e+05   2.560520e+05
   2.666287e+05   5.585288e+05
  -4.947587e+05   3.754313e+05
  -8.775016e+05  -4.990575e+04
  -4.848178e+05  -3.615209e+05
   2.794265e+05  -4.071785e+05
   6.264240e+05  -2.466398e+05
   2.512502e+05  -2.688853e+04
  -3.333475e+05   7.792029e+04
  -4.001730e+05  -4.801899e+04
   1.559067e+05  -2.867094e+05
   7.209301e+05  -2.838789e+05
