
 $NMID
 id='ANONYMOUS ', fmtdat='(2E16.6)'
 volume=1.0
 tramp=1.0
 $END
   4.674498e+07  -6.106176e+05
   2.899872e+07   2.749674e+07
  -4.798762e+06   3.141480e+07
  -2.233103e+07   1.364511e+07
  -1.429306e+07  -4.418191e+06
   2.042871e+06  -7.897181e+06
   8.395167e+06   7.471738e+04
   3.189753e+06   7.992474e+06
  -4.582733e+06   8.648521e+06
  -8.119386e+06   2.420508e+06
  -6.163496e+06  -5.221061e+06
  -8.171247e+05  -7.565962e+06
   3.481313e+06  -2.286776e+06
   2.475949e+06   5.071977e+06
  -2.997216e+06   6.147267e+06
  -6.769109e+06  -7.020050e+05
  -4.149576e+06  -8.547397e+06
   2.846289e+06  -1.014431e+07
   8.417346e+06  -5.124394e+06
   9.022507e+06   1.743379e+06
   5.324874e+06   6.199616e+06
   4.748970e+05   6.853111e+06
  -1.997703e+06   4.706796e+06
  -7.201488e+05   2.468562e+06
   1.472918e+06   2.567204e+06
   2.469261e+04   4.189456e+06
  -5.241971e+06   3.846784e+06
  -8.767556e+06   1.674501e+05
  -6.075879e+06  -3.761484e+06
   1.873616e+05  -4.354331e+06
   3.678464e+06  -1.940715e+06
   2.147781e+06   5.164035e+05
  -1.165017e+06   1.260268e+06
  -2.743626e+06   3.225221e+05
  -2.094613e+06  -1.841058e+06
  -2.504098e+05  -3.842076e+06
   1.736458e+06  -3.189495e+06
   2.445270e+06   4.269851e+05
   1.064313e+06   3.055433e+06
  -6.623021e+05   1.143482e+06
  -4.452683e+04  -2.618693e+06
   2.258897e+06  -2.254647e+06
   2.275406e+06   2.586865e+06
  -1.591226e+06   5.214686e+06
  -5.398218e+06   1.086464e+06
  -4.293104e+06  -5.532981e+06
   1.296143e+06  -7.067965e+06
   6.199402e+06  -2.143434e+06
   6.285613e+06   3.710608e+06
   1.997541e+06   5.336071e+06
  -2.991558e+06   2.685359e+06
  -4.926685e+06  -1.043506e+06
  -2.512824e+06  -2.969444e+06
   1.881660e+06  -2.049921e+06
   3.936947e+06   5.754275e+05
   1.839376e+06   2.217070e+06
  -1.407950e+06   1.221972e+06
  -1.679954e+06  -8.412046e+05
   8.738349e+05  -1.026053e+06
   2.204244e+06   1.019631e+06
  -1.670882e+04   2.639028e+06
  -3.473665e+06   1.798987e+06
  -4.484105e+06  -7.424881e+05
  -2.169813e+06  -3.200231e+06
   1.594118e+06  -4.626144e+06
   4.628644e+06  -4.298107e+06
   5.559752e+06  -1.448163e+06
   3.920707e+06   2.898054e+06
   7.888909e+05   5.521881e+06
  -1.446317e+06   4.392021e+06
  -1.399947e+06   1.446729e+06
  -3.524159e+05   1.544305e+05
  -4.712264e+05   1.008717e+06
  -1.881422e+06   1.424930e+06
  -2.725049e+06  -1.584411e+05
  -1.780459e+06  -2.147072e+06
   2.222071e+05  -2.192474e+06
   1.735087e+06  -1.382872e+05
   1.707074e+06   2.152245e+06
  -6.278163e+04   2.849209e+06
  -2.637058e+06   1.425679e+06
  -4.005219e+06  -1.235107e+06
  -2.750697e+06  -3.365587e+06
   6.908912e+04  -3.600565e+06
   1.887318e+06  -2.289543e+06
   1.812260e+06  -1.058866e+06
   1.585958e+06  -7.779267e+05
   2.747642e+06  -6.055451e+05
   4.130433e+06   5.867313e+05
   3.371456e+06   2.553566e+06
   1.915508e+05   3.959680e+06
  -3.081481e+06   3.776959e+06
  -4.068691e+06   1.977046e+06
  -2.523715e+06  -5.336646e+05
  -1.173997e+05  -2.197348e+06
   1.168811e+06  -1.796356e+06
   5.254711e+05   8.554995e+04
  -1.084631e+06   1.244062e+06
  -1.794590e+06   3.823861e+05
  -8.231495e+05  -1.124619e+06
   5.420259e+05  -1.084334e+06
   5.152312e+05   3.560032e+05
  -8.714954e+05   8.396563e+05
  -1.806473e+06  -8.698449e+05
  -9.686778e+05  -3.117207e+06
   1.087707e+06  -3.464014e+06
   2.873692e+06  -1.503327e+06
   3.399223e+06   1.123045e+06
   2.470250e+06   2.695817e+06
   5.360331e+05   2.643074e+06
  -1.234691e+06   1.444776e+06
  -1.558762e+06   1.998405e+05
  -4.789846e+05  -4.057871e+04
   3.587262e+05   7.224029e+05
  -3.500980e+05   1.265703e+06
  -1.769741e+06   5.764390e+05
  -1.947194e+06  -7.726157e+05
  -4.239664e+05  -1.318425e+06
   1.113055e+06  -5.880060e+05
   9.234213e+05   4.264392e+05
  -7.802020e+05   6.068839e+05
  -2.200911e+06  -1.762824e+05
  -1.849519e+06  -1.300277e+06
   1.515458e+05  -2.013776e+06
   2.242449e+06  -1.705209e+06
   2.708488e+06  -3.159890e+05
   1.188149e+06   1.183710e+06
  -8.515009e+05   1.414089e+06
  -1.449134e+06   1.874404e+05
  -1.725532e+05  -1.012183e+06
   1.452352e+06  -7.182763e+05
   1.683555e+06   7.122022e+05
   4.011851e+05   1.596847e+06
  -1.005566e+06   1.019085e+06
  -1.244247e+06  -2.209760e+05
  -2.992948e+05  -7.353781e+05
   7.398829e+05  -7.331157e+04
   7.116608e+05   1.006361e+06
  -5.606679e+05   1.378780e+06
  -1.951183e+06   5.258482e+05
  -1.977461e+06  -1.011562e+06
  -3.924384e+05  -2.003663e+06
   1.362453e+06  -1.610680e+06
   1.667973e+06  -2.436173e+05
   5.205953e+05   8.283070e+05
  -6.203940e+05   8.035164e+05
  -6.480428e+05   7.678851e+04
   8.553756e+04  -4.107692e+05
   5.241762e+05  -2.671171e+05
   2.142588e+05   8.054036e+04
  -3.898238e+05   1.274602e+04
  -5.403331e+05  -5.827232e+05
   1.414194e+05  -1.146284e+06
   1.318469e+06  -8.984699e+05
   2.029257e+06   3.729647e+05
   1.441564e+06   1.872979e+06
  -1.888456e+05   2.372314e+06
  -1.568257e+06   1.434712e+06
  -1.691927e+06  -7.381194e+04
  -9.093490e+05  -9.071456e+05
  -3.339861e+05  -7.323000e+05
  -4.133798e+05  -2.695964e+05
  -5.516246e+05  -2.743051e+05
  -8.802081e+04  -7.020235e+05
   8.244812e+05  -8.980504e+05
   1.420684e+06  -3.643306e+05
   1.075844e+06   7.057628e+05
  -2.001282e+05   1.477884e+06
  -1.674042e+06   1.100087e+06
  -2.217445e+06  -4.386684e+05
  -1.156812e+06  -2.025946e+06
   9.127444e+05  -2.313027e+06
   2.432314e+06  -1.065584e+06
   2.323247e+06   5.680118e+05
   1.017499e+06   1.294778e+06
  -1.536972e+05   9.866335e+05
  -4.194880e+05   5.572972e+05
  -1.486964e+05   7.259344e+05
  -1.263635e+05   1.224536e+06
  -6.264856e+05   1.225417e+06
  -1.232253e+06   3.114255e+05
  -1.302276e+06  -1.045182e+06
  -5.542299e+05  -1.844847e+06
   5.999366e+05  -1.407127e+06
   1.258971e+06  -2.012076e+04
   8.187364e+05   1.220392e+06
  -3.291610e+05   1.361712e+06
  -1.086420e+06   4.527964e+05
  -7.936050e+05  -6.022501e+05
   6.071295e+04  -1.011847e+06
   4.549733e+05  -7.774281e+05
   5.489914e+04  -4.315551e+05
  -4.140858e+05  -3.362005e+05
  -5.461747e+04  -3.784481e+05
   1.096912e+06  -2.242683e+05
   1.985336e+06   2.907076e+05
   1.586685e+06   9.742819e+05
   1.449849e+04   1.372152e+06
  -1.494568e+06   1.116019e+06
  -1.768067e+06   3.157269e+05
  -8.325269e+05  -4.250099e+05
   2.288573e+05  -5.348494e+05
   4.858961e+05  -5.820764e+04
   1.988255e+04   3.807084e+05
  -4.447435e+05   2.472212e+05
  -4.672021e+05  -3.296567e+05
  -2.187323e+05  -7.117666e+05
  -6.533060e+04  -4.678924e+05
  -1.377289e+05   1.177884e+05
  -2.973996e+05   3.170872e+05
  -2.777203e+05  -2.201901e+05
   1.456683e+05  -9.750066e+05
   8.647620e+05  -1.042395e+06
   1.285962e+06  -1.629957e+05
   8.004003e+05   8.837674e+05
  -3.927188e+05   1.083997e+06
  -1.199975e+06   3.100243e+05
  -7.162200e+05  -5.625235e+05
   6.706397e+05  -6.467745e+05
   1.566977e+06   6.028722e+04
   1.034673e+06   8.260866e+05
  -4.320490e+05   9.989810e+05
  -1.469852e+06   5.276227e+05
  -1.236769e+06  -1.518206e+05
  -1.524776e+05  -5.094209e+05
   6.289709e+05  -2.847954e+05
   3.687561e+05   2.733935e+05
  -5.803514e+05   5.012428e+05
  -1.153873e+06  -8.904378e+04
  -6.415768e+05  -1.158397e+06
   5.896841e+05  -1.659540e+06
   1.456784e+06  -8.622482e+05
   1.235780e+06   7.394322e+05
   2.125639e+05   1.759642e+06
  -7.138681e+05   1.290842e+06
  -9.147355e+05  -1.468190e+05
  -4.526506e+05  -1.162718e+06
   1.839902e+05  -9.661397e+05
   5.441050e+05  -9.782066e+04
   4.766495e+05   3.700710e+05
   1.789943e+05   1.396733e+05
   4.031293e+04  -9.974085e+04
   2.531211e+05   2.735647e+05
   5.006551e+05   9.368084e+05
   2.185849e+05   1.060655e+06
  -6.735195e+05   3.995568e+05
  -1.454789e+06  -4.416341e+05
  -1.283100e+06  -8.084499e+05
  -1.912003e+05  -6.793758e+05
   8.481791e+05  -4.177073e+05
   9.696198e+05  -1.948247e+05
   3.418929e+05   3.831451e+04
  -1.461836e+05   2.209696e+05
  -1.570007e+04   2.113095e+05
   2.786826e+05   1.006600e+05
   4.403189e+04   1.307804e+05
  -6.650442e+05   2.309716e+05
  -1.024080e+06  -4.817796e+03
  -4.069171e+05  -6.697741e+05
   8.277138e+05  -1.153243e+06
   1.646233e+06  -7.491114e+05
   1.367836e+06   4.151393e+05
   2.792547e+05   1.378193e+06
  -7.319915e+05   1.352578e+06
  -1.022108e+06   5.292844e+05
  -6.471772e+05  -2.288983e+05
  -1.288439e+05  -3.492711e+05
   8.075283e+04  -5.636591e+04
  -7.517988e+04   2.775645e+04
  -3.060175e+05  -3.531579e+05
  -2.575721e+05  -7.900813e+05
   1.703841e+05  -6.650478e+05
   6.716200e+05   1.194947e+05
   7.281574e+05   9.319684e+05
   1.126213e+05   1.007644e+06
  -7.417889e+05   2.404775e+05
  -1.019461e+06  -7.035857e+05
  -3.481311e+05  -1.062609e+06
   6.916761e+05  -6.649033e+05
   1.091774e+06   6.158201e+04
   5.231070e+05   5.852714e+05
  -2.710785e+05   6.583126e+05
  -3.577054e+05   3.638560e+05
   2.524528e+05   1.035369e+04
   6.388963e+05  -4.519334e+04
   1.444835e+05   2.979356e+05
  -8.008515e+05   6.776082e+05
  -1.220085e+06   5.538022e+05
  -7.406140e+05  -1.557457e+05
   8.370037e+04  -8.497567e+05
   5.216106e+05  -8.434278e+05
   4.053004e+05  -1.583223e+05
   5.391117e+04   4.725146e+05
  -2.299807e+05   4.250654e+05
  -3.470892e+05  -1.475074e+05
  -2.557597e+05  -5.628351e+05
   4.732865e+04  -4.122803e+05
   3.833648e+05   4.176892e+04
   4.679410e+05   2.629743e+05
   2.394340e+05   8.637028e+04
  -3.236809e+04  -1.402995e+05
  -8.272507e+04  -2.879494e+04
   5.605295e+03   3.503786e+05
  -5.532697e+04   5.304493e+05
  -3.131020e+05   2.047067e+05
  -4.440546e+05  -3.732099e+05
  -1.499020e+05  -6.327971e+05
   3.991024e+05  -3.104173e+05
   6.503394e+05   2.686495e+05
   2.533702e+05   5.611582e+05
  -4.901719e+05   3.649656e+05
  -8.622161e+05  -6.388402e+04
  -4.732412e+05  -3.633349e+05
   2.817038e+05  -3.917395e+05
   6.208996e+05  -2.270437e+05
   2.400441e+05  -2.116551e+04
  -3.450736e+05   6.612423e+04
  -4.026488e+05  -6.394862e+04
   1.667582e+05  -2.917258e+05
   7.342124e+05  -2.760063e+05
