
 $NMID
 id='ANONYMOUS ', fmtdat='(2E16.6)'
 volume=1.0
 tramp=1.0
 $END
  -4.399195e+07   1.245664e+06
  -2.819198e+07  -2.455655e+07
   3.211261e+06  -2.943415e+07
   2.053907e+07  -1.421620e+07
   1.405398e+07   2.927701e+06
  -1.294927e+06   7.595011e+06
  -8.141404e+06   7.531126e+05
  -3.790110e+06  -7.447020e+06
   3.840088e+06  -8.946057e+06
   7.758545e+06  -2.953821e+06
   6.118184e+06   4.971059e+06
   8.926519e+05   7.486230e+06
  -3.410455e+06   2.160160e+06
  -2.566606e+06  -5.256174e+06
   2.724233e+06  -6.411395e+06
   6.591203e+06   2.988733e+05
   4.325086e+06   8.116247e+06
  -2.410326e+06   9.871207e+06
  -7.940253e+06   5.037280e+06
  -8.535015e+06  -1.651511e+06
  -4.877420e+06  -5.796298e+06
  -3.926822e+05  -6.157279e+06
   1.487540e+06  -4.175009e+06
  -2.990656e+04  -2.562473e+06
  -1.836236e+06  -3.110518e+06
   1.634049e+05  -4.558251e+06
   5.586350e+06  -3.764823e+06
   8.879231e+06   6.997135e+04
   5.902081e+06   3.821826e+06
  -5.166337e+05   4.204844e+06
  -3.954791e+06   1.634751e+06
  -2.074590e+06  -9.419540e+05
   1.686569e+06  -1.569977e+06
   3.308837e+06  -1.957591e+05
   2.178496e+06   2.300640e+06
  -6.185224e+04   4.095500e+06
  -1.831330e+06   2.984897e+06
  -2.079300e+06  -6.769387e+05
  -6.994245e+05  -2.885862e+06
   6.149645e+05  -6.850264e+05
  -1.861240e+05   2.949007e+06
  -2.321396e+06   2.409996e+06
  -2.358638e+06  -2.381965e+06
   1.125738e+06  -5.033687e+06
   4.769175e+06  -1.261662e+06
   4.099888e+06   5.010597e+06
  -9.520904e+05   6.656914e+06
  -5.862702e+06   2.147846e+06
  -6.363244e+06  -3.511218e+06
  -2.277592e+06  -5.315087e+06
   2.914315e+06  -2.900254e+06
   5.124275e+06   7.995294e+05
   2.796201e+06   2.867724e+06
  -1.665294e+06   2.129823e+06
  -3.863525e+06  -3.739812e+05
  -1.926187e+06  -2.051675e+06
   1.308063e+06  -1.224698e+06
   1.782814e+06   7.854967e+05
  -6.390286e+05   1.199557e+06
  -2.218817e+06  -5.881175e+05
  -4.198889e+05  -2.317240e+06
   2.960252e+06  -1.903193e+06
   4.307580e+06   3.640458e+05
   2.263845e+06   2.929489e+06
  -1.580288e+06   4.570386e+06
  -4.754797e+06   4.272433e+06
  -5.581070e+06   1.357757e+06
  -3.782634e+06  -2.955433e+06
  -7.444301e+05  -5.528580e+06
   1.280113e+06  -4.504808e+06
   1.274071e+06  -1.735834e+06
   5.295050e+05  -4.483310e+05
   8.710453e+05  -1.094788e+06
   2.230190e+06  -1.266193e+06
   2.873917e+06   4.649560e+05
   1.732995e+06   2.477557e+06
  -4.289517e+05   2.394829e+06
  -2.003205e+06   8.594790e+04
  -1.853325e+06  -2.391477e+06
   1.253792e+05  -3.019124e+06
   2.761494e+06  -1.372812e+06
   3.999950e+06   1.371672e+06
   2.644501e+06   3.363085e+06
  -9.215970e+04   3.454843e+06
  -1.764249e+06   2.182008e+06
  -1.666628e+06   1.097980e+06
  -1.547698e+06   9.117111e+05
  -2.841103e+06   7.406742e+05
  -4.316245e+06  -5.186232e+05
  -3.562420e+06  -2.618031e+06
  -2.423577e+05  -4.163458e+06
   3.251098e+06  -3.987046e+06
   4.324443e+06  -2.021529e+06
   2.624940e+06   6.632067e+05
   4.759880e+03   2.341642e+06
  -1.313876e+06   1.833689e+06
  -5.368685e+05  -1.290526e+05
   1.171270e+06  -1.291361e+06
   1.856158e+06  -3.980078e+05
   8.151813e+05   1.154856e+06
  -6.053979e+05   1.145225e+06
  -6.188551e+05  -3.646741e+05
   8.065191e+05  -1.014137e+06
   1.925925e+06   6.389200e+05
   1.286052e+06   3.112266e+06
  -8.180368e+05   3.796309e+06
  -2.927803e+06   1.912703e+06
  -3.749146e+06  -9.895293e+05
  -2.809199e+06  -2.879437e+06
  -6.317840e+05  -2.885018e+06
   1.332957e+06  -1.542902e+06
   1.668542e+06  -1.907521e+05
   5.067048e+05   4.051541e+04
  -3.861635e+05  -7.581375e+05
   3.308215e+05  -1.309311e+06
   1.806085e+06  -6.195856e+05
   2.036188e+06   7.479615e+05
   4.866817e+05   1.348804e+06
  -1.157515e+06   6.456807e+05
  -1.022569e+06  -4.415890e+05
   7.937628e+05  -7.230363e+05
   2.397163e+06   8.444027e+04
   2.078356e+06   1.368411e+06
  -9.406057e+04   2.211259e+06
  -2.375825e+06   1.877904e+06
  -2.875155e+06   3.698617e+05
  -1.259195e+06  -1.215140e+06
   8.665585e+05  -1.456476e+06
   1.476486e+06  -2.001218e+05
   1.626490e+05   1.037357e+06
  -1.517553e+06   7.580885e+05
  -1.789471e+06  -7.161521e+05
  -4.822930e+05  -1.681686e+06
   1.019239e+06  -1.134438e+06
   1.334564e+06   1.671937e+05
   3.659776e+05   7.582117e+05
  -7.533956e+05   9.327128e+04
  -7.458533e+05  -1.049789e+06
   5.963029e+05  -1.449920e+06
   2.061422e+06  -5.490950e+05
   2.084938e+06   1.064909e+06
   4.269748e+05   2.105870e+06
  -1.410179e+06   1.710870e+06
  -1.753862e+06   2.883840e+05
  -5.762013e+05  -8.620561e+05
   6.399773e+05  -8.666466e+05
   7.112936e+05  -8.057304e+04
  -6.859685e+04   4.857465e+05
  -5.963048e+05   3.337619e+05
  -3.062802e+05  -1.037870e+05
   3.765970e+05  -8.909652e+04
   6.045139e+05   5.579757e+05
  -1.002166e+05   1.206719e+06
  -1.373840e+06   9.717919e+05
  -2.148515e+06  -3.728435e+05
  -1.534000e+06  -1.967778e+06
   1.864499e+05  -2.521996e+06
   1.659847e+06  -1.565116e+06
   1.831185e+06   4.097040e+04
   1.022654e+06   9.930129e+05
   3.699839e+05   8.592710e+05
   3.912419e+05   3.319577e+05
   5.341205e+05   2.631101e+05
   9.308633e+04   7.071847e+05
  -8.500883e+05   9.679272e+05
  -1.515084e+06   4.240841e+05
  -1.183748e+06  -7.530566e+05
   1.791795e+05  -1.613984e+06
   1.773355e+06  -1.208855e+06
   2.370814e+06   4.421625e+05
   1.265665e+06   2.131094e+06
  -9.099420e+05   2.455294e+06
  -2.539654e+06   1.176494e+06
  -2.488324e+06  -5.427879e+05
  -1.148916e+06  -1.367138e+06
   1.264140e+05  -1.101993e+06
   4.822660e+05  -6.394690e+05
   2.215246e+05  -7.582724e+05
   1.571514e+05  -1.252191e+06
   6.417367e+05  -1.270066e+06
   1.280288e+06  -3.280929e+05
   1.374350e+06   1.103180e+06
   5.913503e+05   1.953173e+06
  -6.339531e+05   1.493250e+06
  -1.338589e+06   3.704400e+04
  -8.881614e+05  -1.268284e+06
   3.069598e+05  -1.443337e+06
   1.112414e+06  -5.286319e+05
   8.441741e+05   5.719138e+05
  -1.352049e+04   1.041256e+06
  -4.246632e+05   8.375874e+05
  -3.557721e+04   4.806123e+05
   4.297195e+05   3.648066e+05
   5.315749e+04   4.050492e+05
  -1.142533e+06   2.524765e+05
  -2.079409e+06  -2.833204e+05
  -1.687157e+06  -1.004385e+06
  -5.781686e+04  -1.430789e+06
   1.537005e+06  -1.182312e+06
   1.858599e+06  -3.697196e+05
   8.998202e+05   4.023039e+05
  -2.202104e+05   5.485815e+05
  -5.039351e+05   8.343791e+04
  -1.182033e+04  -3.756939e+05
   4.833446e+05  -2.551676e+05
   4.911335e+05   3.473045e+05
   2.016862e+05   7.597460e+05
   4.049409e+04   4.951165e+05
   1.508613e+05  -1.479545e+05
   3.411685e+05  -3.636143e+05
   3.022817e+05   2.288540e+05
  -1.666094e+05   1.044029e+06
  -9.092737e+05   1.102637e+06
  -1.321646e+06   1.598882e+05
  -8.134544e+05  -9.309887e+05
   4.088327e+05  -1.119513e+06
   1.245252e+06  -3.038324e+05
   7.553945e+05   6.031324e+05
  -6.995387e+05   6.961779e+05
  -1.677618e+06  -3.850929e+04
  -1.146148e+06  -8.653053e+05
   4.226269e+05  -1.091777e+06
   1.568889e+06  -6.132602e+05
   1.344734e+06   1.325818e+05
   1.809076e+05   5.489203e+05
  -6.630636e+05   3.214396e+05
  -3.823811e+05  -2.769607e+05
   6.277995e+05  -5.163623e+05
   1.218705e+06   1.149263e+05
   6.529457e+05   1.236760e+06
  -6.549490e+05   1.746269e+06
  -1.558240e+06   8.948236e+05
  -1.310844e+06  -7.940129e+05
  -2.252423e+05  -1.875380e+06
   7.566859e+05  -1.391138e+06
   9.804971e+05   1.327564e+05
   5.070315e+05   1.233218e+06
  -1.659094e+05   1.045861e+06
  -5.707000e+05   1.184223e+05
  -5.278879e+05  -3.985209e+05
  -2.127189e+05  -1.572967e+05
  -3.439997e+04   1.139755e+05
  -2.385422e+05  -2.714299e+05
  -5.231294e+05  -9.863347e+05
  -2.625916e+05  -1.134332e+06
   6.835582e+05  -4.345999e+05
   1.552196e+06   4.666170e+05
   1.392357e+06   8.580627e+05
   2.088749e+05   7.163571e+05
  -9.230200e+05   4.413810e+05
  -1.039498e+06   2.175109e+05
  -3.454287e+05  -2.444163e+04
   1.635866e+05  -2.318258e+05
  -9.584464e+03  -2.405220e+05
  -3.236576e+05  -1.247544e+05
  -3.546301e+04  -1.397315e+05
   7.361147e+05  -2.319581e+05
   1.082908e+06   1.337206e+04
   3.901483e+05   7.024759e+05
  -9.046676e+05   1.204303e+06
  -1.726262e+06   7.752419e+05
  -1.414613e+06  -4.544078e+05
  -2.838921e+05  -1.467015e+06
   7.691334e+05  -1.426353e+06
   1.082892e+06  -5.416026e+05
   6.894812e+05   2.598638e+05
   1.241068e+05   3.692648e+05
  -1.090300e+05   4.068500e+04
   7.229492e+04  -4.959731e+04
   3.386367e+05   3.675673e+05
   2.842292e+05   8.395567e+05
  -1.868195e+05   6.989023e+05
  -7.164153e+05  -1.473614e+05
  -7.527971e+05  -1.007263e+06
  -8.721434e+04  -1.063529e+06
   8.018902e+05  -2.256723e+05
   1.069195e+06   7.724781e+05
   3.494499e+05   1.124997e+06
  -7.378184e+05   6.834419e+05
  -1.143994e+06  -7.421070e+04
  -5.398938e+05  -6.020024e+05
   2.848829e+05  -6.732760e+05
   3.573770e+05  -3.813716e+05
  -2.915486e+05  -2.308686e+04
  -6.841010e+05   4.212972e+04
  -1.445875e+05  -3.108481e+05
   8.512042e+05  -7.208481e+05
   1.275936e+06  -6.057360e+05
   7.624795e+05   1.450626e+05
  -9.186499e+04   8.912647e+05
  -5.325800e+05   8.854618e+05
  -4.041376e+05   1.513519e+05
  -4.214886e+04  -5.104584e+05
   2.484988e+05  -4.365758e+05
   3.673626e+05   1.794570e+05
   2.663198e+05   5.982558e+05
  -5.551410e+04   4.164431e+05
  -4.047366e+05  -5.499180e+04
  -4.892255e+05  -2.639898e+05
  -2.547190e+05  -7.830181e+04
   2.421361e+04   1.305263e+05
   9.038817e+04  -5.368530e+03
   2.717305e+04  -3.833692e+05
   1.020176e+05  -5.342668e+05
   3.433131e+05  -1.743115e+05
   4.379557e+05   4.212523e+05
   1.171045e+05   6.718232e+05
  -4.347453e+05   3.159296e+05
  -6.726825e+05  -3.006959e+05
  -2.546127e+05  -6.041107e+05
   5.140715e+05  -3.827502e+05
   9.000772e+05   7.962286e+04
   4.939454e+05   3.869417e+05
  -2.986827e+05   3.976284e+05
  -6.514482e+05   2.184642e+05
  -2.366810e+05   1.952614e+04
   3.893815e+05  -4.863541e+04
   4.343688e+05   9.527372e+04
  -1.994336e+05   3.221221e+05
  -8.128515e+05   2.863310e+05
