
 $NMID
 id='ANONYMOUS ', fmtdat='(2E16.6)'
 volume=1.0
 tramp=1.0
 $END
  -3.609706e+07  -1.018438e+05
  -2.312236e+07  -1.999316e+07
   2.461931e+06  -2.396360e+07
   1.702801e+07  -1.226391e+07
   1.214615e+07   1.748292e+06
  -6.888032e+05   6.367658e+06
  -6.970612e+06   1.102316e+06
  -3.597596e+06  -6.215052e+06
   3.080976e+06  -7.997079e+06
   6.631157e+06  -2.782886e+06
   5.131115e+06   4.366418e+06
   5.577635e+05   6.523089e+06
  -2.972381e+06   1.649408e+06
  -2.060193e+06  -4.871758e+06
   2.454202e+06  -5.754763e+06
   5.643743e+06   1.710127e+05
   3.634860e+06   6.946509e+06
  -2.139895e+06   8.371967e+06
  -6.769566e+06   4.050732e+06
  -6.995103e+06  -1.700084e+06
  -3.651884e+06  -4.892851e+06
  -6.706586e+04  -4.764958e+06
   9.480587e+05  -3.163061e+06
  -6.114103e+05  -2.449222e+06
  -1.738736e+06  -3.392610e+06
   5.919620e+05  -4.316428e+06
   5.391334e+06  -2.905485e+06
   7.842563e+06   7.157171e+05
   4.816514e+06   3.635539e+06
  -9.196677e+05   3.449284e+06
  -3.730502e+06   9.176660e+05
  -1.636275e+06  -1.304668e+06
   2.078857e+06  -1.520415e+06
   3.434399e+06   1.678584e+05
   1.855191e+06   2.567516e+06
  -5.421915e+05   3.811666e+06
  -1.806502e+06   2.355150e+06
  -1.430048e+06  -8.632514e+05
  -1.629195e+05  -2.350441e+06
   4.725841e+05  -1.412894e+05
  -5.607947e+05   2.863353e+06
  -2.234626e+06   2.148135e+06
  -2.064047e+06  -2.004029e+06
   7.636389e+05  -4.228215e+06
   3.661197e+06  -1.109478e+06
   3.216587e+06   4.069832e+06
  -7.972582e+05   5.431937e+06
  -4.928165e+06   1.634109e+06
  -5.499622e+06  -3.211181e+06
  -2.009258e+06  -4.783337e+06
   2.633392e+06  -2.616681e+06
   4.664088e+06   7.284349e+05
   2.614859e+06   2.567622e+06
  -1.331268e+06   1.881758e+06
  -3.305908e+06  -2.964594e+05
  -1.705137e+06  -1.717548e+06
   1.090166e+06  -1.016777e+06
   1.628250e+06   7.180285e+05
  -3.978160e+05   1.199859e+06
  -1.967355e+06  -2.036712e+05
  -7.088347e+05  -1.774259e+06
   2.208818e+06  -1.674873e+06
   3.640638e+06   1.425336e+05
   1.970296e+06   2.434504e+06
  -1.592088e+06   3.899993e+06
  -4.508253e+06   3.500060e+06
  -4.985386e+06   8.411096e+05
  -3.049898e+06  -2.816228e+06
  -3.583201e+05  -4.892418e+06
   1.179570e+06  -4.028038e+06
   1.110630e+06  -1.771976e+06
   7.005506e+05  -6.459754e+05
   1.223799e+06  -9.553865e+05
   2.336011e+06  -7.990660e+05
   2.598103e+06   8.618393e+05
   1.313805e+06   2.556690e+06
  -7.021677e+05   2.237363e+06
  -1.995582e+06  -9.930358e+04
  -1.617422e+06  -2.418160e+06
   3.262419e+05  -2.788445e+06
   2.592641e+06  -1.010043e+06
   3.425935e+06   1.518783e+06
   2.069187e+06   3.064245e+06
  -2.459564e+05   2.894876e+06
  -1.528628e+06   1.752885e+06
  -1.391177e+06   9.445278e+05
  -1.387905e+06   8.578398e+05
  -2.637365e+06   6.255754e+05
  -3.951995e+06  -6.270292e+05
  -3.177514e+06  -2.556652e+06
  -3.461300e+04  -3.864379e+06
   3.235205e+06  -3.520894e+06
   4.140013e+06  -1.581440e+06
   2.348444e+06   8.355121e+05
  -2.299439e+05   2.173110e+06
  -1.371344e+06   1.566736e+06
  -4.618903e+05  -1.722026e+05
   1.171255e+06  -1.104000e+06
   1.694658e+06  -2.702438e+05
   6.475604e+05   1.069588e+06
  -6.380795e+05   1.019059e+06
  -6.080887e+05  -3.645819e+05
   7.138906e+05  -1.009980e+06
   1.788018e+06   4.589260e+05
   1.274316e+06   2.825681e+06
  -6.809420e+05   3.633320e+06
  -2.758879e+06   1.917013e+06
  -3.594939e+06  -9.602151e+05
  -2.632910e+06  -2.871992e+06
  -4.799903e+05  -2.802858e+06
   1.349384e+06  -1.376121e+06
   1.576781e+06  -7.200470e+04
   4.706211e+05   5.984398e+04
  -3.202709e+05  -7.178087e+05
   3.411409e+05  -1.168946e+06
   1.647055e+06  -4.889897e+05
   1.827382e+06   7.354003e+05
   4.152547e+05   1.228655e+06
  -1.085786e+06   5.483348e+05
  -9.531681e+05  -4.625684e+05
   7.667134e+05  -6.939136e+05
   2.295115e+06   1.366430e+05
   1.960873e+06   1.395477e+06
  -1.611944e+05   2.126312e+06
  -2.320611e+06   1.678979e+06
  -2.702394e+06   2.209594e+05
  -1.111021e+06  -1.158411e+06
   8.440900e+05  -1.271455e+06
   1.326571e+06  -1.169274e+05
   7.961146e+04   9.334619e+05
  -1.429388e+06   6.180107e+05
  -1.629937e+06  -7.276108e+05
  -4.095785e+05  -1.580664e+06
   9.673336e+05  -1.048242e+06
   1.244152e+06   1.678106e+05
   3.395013e+05   7.010232e+05
  -6.768957e+05   4.988024e+04
  -6.203996e+05  -1.008531e+06
   6.456365e+05  -1.303766e+06
   1.946758e+06  -3.845641e+05
   1.872700e+06   1.101829e+06
   2.931594e+05   1.968343e+06
  -1.373768e+06   1.522275e+06
  -1.635184e+06   2.065300e+05
  -5.126350e+05  -8.125399e+05
   6.229180e+05  -7.798921e+05
   6.786009e+05  -3.416336e+04
  -8.343752e+04   4.868190e+05
  -6.151783e+05   3.091922e+05
  -3.409938e+05  -1.419291e+05
   3.392312e+05  -1.292551e+05
   5.692364e+05   5.112792e+05
  -1.194572e+05   1.122070e+06
  -1.320503e+06   8.493577e+05
  -1.983747e+06  -4.492211e+05
  -1.328158e+06  -1.906033e+06
   2.987633e+05  -2.348528e+06
   1.630731e+06  -1.407851e+06
   1.740249e+06   1.055897e+05
   9.523038e+05   1.009451e+06
   3.115878e+05   8.924486e+05
   3.071192e+05   3.687104e+05
   4.449118e+05   2.521217e+05
   5.075658e+04   6.403692e+05
  -8.317965e+05   8.773462e+05
  -1.456082e+06   3.433932e+05
  -1.105089e+06  -7.814322e+05
   2.337425e+05  -1.544295e+06
   1.728898e+06  -1.066759e+06
   2.207924e+06   5.275431e+05
   1.095045e+06   2.046026e+06
  -9.369997e+05   2.243540e+06
  -2.401622e+06   9.981677e+05
  -2.313450e+06  -5.922513e+05
  -1.055478e+06  -1.334379e+06
   1.502524e+05  -1.068596e+06
   5.187401e+05  -6.089712e+05
   3.002584e+05  -6.825489e+05
   2.302507e+05  -1.119716e+06
   6.460950e+05  -1.126512e+06
   1.189422e+06  -2.359260e+05
   1.216044e+06   1.098921e+06
   4.477534e+05   1.850503e+06
  -6.701803e+05   1.357726e+06
  -1.252097e+06  -2.657503e+04
  -7.751830e+05  -1.210940e+06
   3.305611e+05  -1.330122e+06
   1.035567e+06  -4.727559e+05
   7.607833e+05   5.262287e+05
  -2.749602e+04   9.469054e+05
  -3.961485e+05   7.698029e+05
  -4.073701e+04   4.647906e+05
   3.759565e+05   3.714972e+05
   2.443122e+04   3.864870e+05
  -1.066551e+06   1.866645e+05
  -1.908123e+06  -3.586066e+05
  -1.523942e+06  -1.007455e+06
  -8.316798e+03  -1.318783e+06
   1.460786e+06  -1.018439e+06
   1.740415e+06  -2.726166e+05
   8.310178e+05   3.853064e+05
  -2.172605e+05   4.863290e+05
  -4.672814e+05   6.827219e+04
   1.429360e+04  -3.315846e+05
   4.740386e+05  -2.100796e+05
   4.387082e+05   3.478057e+05
   1.255961e+05   7.248920e+05
  -1.065760e+04   4.632208e+05
   1.544139e+05  -1.494043e+05
   3.616433e+05  -3.409378e+05
   2.773167e+05   2.315584e+05
  -2.243654e+05   9.778390e+05
  -9.071262e+05   9.777160e+05
  -1.212196e+06   6.465893e+04
  -6.812878e+05  -9.102762e+05
   4.373829e+05  -1.000253e+06
   1.158957e+06  -1.975401e+05
   6.707720e+05   6.090056e+05
  -6.813698e+05   6.218344e+05
  -1.578360e+06  -1.051275e+05
  -1.063659e+06  -8.622902e+05
   4.256854e+05  -1.024264e+06
   1.507359e+06  -5.309075e+05
   1.275149e+06   1.748261e+05
   1.541820e+05   5.291908e+05
  -6.327231e+05   2.785625e+05
  -3.336952e+05  -2.692226e+05
   6.244399e+05  -4.350480e+05
   1.127161e+06   1.901000e+05
   5.211451e+05   1.196388e+06
  -7.279887e+05   1.584854e+06
  -1.513162e+06   7.377508e+05
  -1.182617e+06  -8.186175e+05
  -1.106565e+05  -1.771032e+06
   7.810234e+05  -1.276339e+06
   9.169440e+05   1.593043e+05
   4.273573e+05   1.179609e+06
  -1.900707e+05   9.834280e+05
  -5.349717e+05   8.964203e+04
  -4.879726e+05  -4.059906e+05
  -2.067125e+05  -1.652984e+05
  -3.111218e+04   1.107129e+05
  -1.845883e+05  -2.523082e+05
  -4.290259e+05  -9.431502e+05
  -2.080024e+05  -1.079408e+06
   6.376436e+05  -3.769607e+05
   1.431583e+06   5.171906e+05
   1.278804e+06   8.763326e+05
   1.613953e+05   6.778466e+05
  -9.040126e+05   3.623184e+05
  -9.913175e+05   1.557494e+05
  -3.084779e+05  -2.923046e+04
   1.709119e+05  -2.058205e+05
  -1.705385e+04  -2.380227e+05
  -3.169315e+05  -1.486607e+05
  -1.579110e+04  -1.340136e+05
   7.244007e+05  -1.668900e+05
   1.008049e+06   7.785062e+04
   2.946059e+05   6.715005e+05
  -9.300071e+05   1.061803e+06
  -1.638928e+06   6.165526e+05
  -1.269900e+06  -5.114297e+05
  -1.772002e+05  -1.390119e+06
   7.905447e+05  -1.284963e+06
   1.040919e+06  -4.318569e+05
   6.322889e+05   2.940333e+05
   8.538801e+04   3.511955e+05
  -1.224758e+05   1.740139e+04
   6.456996e+04  -5.774065e+04
   3.068193e+05   3.565207e+05
   2.276771e+05   8.002790e+05
  -2.171402e+05   6.366580e+05
  -6.635779e+05  -1.926028e+05
  -6.333560e+05  -9.952820e+05
   1.673753e+02  -9.936509e+05
   7.723831e+05  -1.455511e+05
   9.482646e+05   7.986326e+05
   2.511359e+05   1.068326e+06
  -7.295516e+05   5.824572e+05
  -1.054345e+06  -1.381332e+05
  -4.598887e+05  -5.779191e+05
   3.015543e+05  -5.943968e+05
   3.379909e+05  -3.322586e+05
  -2.898194e+05  -4.538458e+04
  -6.468458e+05  -1.820934e+03
  -1.119456e+05  -2.946225e+05
   8.349825e+05  -6.292605e+05
   1.210121e+06  -5.109765e+05
   6.867044e+05   1.611893e+05
  -1.358196e+05   8.198138e+05
  -5.293503e+05   7.914667e+05
  -3.666098e+05   1.069219e+05
  -9.071973e+02  -4.865138e+05
   2.594039e+05  -3.839990e+05
   3.335234e+05   2.047640e+05
   2.129742e+05   5.742909e+05
  -7.850851e+04   3.703520e+05
  -3.736571e+05  -8.114118e+04
  -4.371232e+05  -2.614191e+05
  -2.342972e+05  -7.656808e+04
   7.484395e+03   1.094498e+05
   8.623842e+04  -2.745496e+04
   7.091940e+04  -3.658436e+05
   1.570083e+05  -4.725860e+05
   3.389493e+05  -1.122862e+05
   3.618829e+05   4.364965e+05
   4.171673e+04   6.349608e+05
  -4.320494e+05   2.619574e+05
  -5.996736e+05  -3.293395e+05
  -1.947075e+05  -5.852197e+05
   4.966584e+05  -3.265677e+05
   8.257328e+05   1.320590e+05
   4.344708e+05   3.892136e+05
  -3.002928e+05   3.416617e+05
  -6.147424e+05   1.522278e+05
  -2.086153e+05   3.587670e+03
   3.837610e+05  -8.316130e+03
   4.060953e+05   1.326812e+05
  -2.203381e+05   2.996934e+05
  -8.002046e+05   2.193684e+05
