
 $NMID
 id='ANONYMOUS ', fmtdat='(2E16.6)'
 volume=1.0
 tramp=1.0
 $END
  -4.150976e+07   7.732755e+05
  -2.631436e+07  -2.347711e+07
   3.365793e+06  -2.773415e+07
   1.950616e+07  -1.314137e+07
   1.317208e+07   2.955800e+06
  -1.326985e+06   7.138093e+06
  -7.659335e+06   5.938644e+05
  -3.461840e+06  -7.049957e+06
   3.713684e+06  -8.348458e+06
   7.325990e+06  -2.680041e+06
   5.713571e+06   4.733547e+06
   7.785905e+05   7.047463e+06
  -3.230468e+06   2.013824e+06
  -2.375950e+06  -4.943996e+06
   2.615932e+06  -5.983553e+06
   6.194407e+06   3.567176e+05
   3.985892e+06   7.680274e+06
  -2.369205e+06   9.264535e+06
  -7.528673e+06   4.670170e+06
  -8.036283e+06  -1.629122e+06
  -4.562139e+06  -5.515942e+06
  -3.166725e+05  -5.835613e+06
   1.472708e+06  -3.937365e+06
   4.009162e+04  -2.385342e+06
  -1.689100e+06  -2.889520e+06
   1.640800e+05  -4.259551e+06
   5.251955e+06  -3.512040e+06
   8.340161e+06   1.075989e+05
   5.534091e+06   3.632144e+06
  -4.946388e+05   3.967315e+06
  -3.716395e+06   1.537771e+06
  -1.958098e+06  -8.716906e+05
   1.553785e+06  -1.453781e+06
   3.074483e+06  -1.805568e+05
   2.032496e+06   2.145470e+06
  -6.340752e+04   3.837183e+06
  -1.740985e+06   2.805962e+06
  -1.978971e+06  -6.430745e+05
  -6.583577e+05  -2.736126e+06
   5.947018e+05  -6.694192e+05
  -1.729868e+05   2.751590e+06
  -2.190038e+06   2.238249e+06
  -2.190308e+06  -2.267312e+06
   1.126128e+06  -4.725312e+06
   4.527823e+06  -1.129290e+06
   3.821330e+06   4.773418e+06
  -9.694749e+05   6.267834e+06
  -5.544114e+06   1.971375e+06
  -5.944974e+06  -3.352992e+06
  -2.084169e+06  -5.004635e+06
   2.759491e+06  -2.689572e+06
   4.791532e+06   7.988433e+05
   2.586113e+06   2.716829e+06
  -1.593799e+06   1.982531e+06
  -3.630257e+06  -3.926910e+05
  -1.787361e+06  -1.952576e+06
   1.244700e+06  -1.141354e+06
   1.662559e+06   7.527161e+05
  -6.211885e+05   1.108198e+06
  -2.072551e+06  -5.962304e+05
  -3.443543e+05  -2.194366e+06
   2.826101e+06  -1.751491e+06
   4.048705e+06   4.009012e+05
   2.094611e+06   2.784103e+06
  -1.518653e+06   4.284743e+06
  -4.488346e+06   3.983144e+06
  -5.252176e+06   1.242512e+06
  -3.542806e+06  -2.801675e+06
  -6.634031e+05  -5.199779e+06
   1.244070e+06  -4.212573e+06
   1.213215e+06  -1.598954e+06
   4.832544e+05  -3.992128e+05
   7.961339e+05  -1.023380e+06
   2.082170e+06  -1.192261e+06
   2.692596e+06   4.319900e+05
   1.621553e+06   2.318289e+06
  -4.013158e+05   2.238538e+06
  -1.866479e+06   7.659405e+04
  -1.720664e+06  -2.240841e+06
   1.308765e+05  -2.826202e+06
   2.596977e+06  -1.277078e+06
   3.751465e+06   1.307471e+06
   2.467596e+06   3.180372e+06
  -1.125151e+05   3.255005e+06
  -1.683112e+06   2.041543e+06
  -1.582074e+06   1.013464e+06
  -1.459751e+06   8.356137e+05
  -2.664496e+06   6.691054e+05
  -4.036526e+06  -5.175880e+05
  -3.316512e+06  -2.475676e+06
  -1.998657e+05  -3.897992e+06
   3.065501e+06  -3.712115e+06
   4.058374e+06  -1.871237e+06
   2.457815e+06   6.305125e+05
  -9.242865e+02   2.192802e+06
  -1.237227e+06   1.714529e+06
  -5.046998e+05  -1.218023e+05
   1.102309e+06  -1.204497e+06
   1.742991e+06  -3.620185e+05
   7.597607e+05   1.089205e+06
  -5.716231e+05   1.070268e+06
  -5.733260e+05  -3.436067e+05
   7.647211e+05  -9.351046e+05
   1.792290e+06   6.252076e+05
   1.165668e+06   2.926165e+06
  -8.059298e+05   3.533461e+06
  -2.751717e+06   1.750476e+06
  -3.488835e+06  -9.578554e+05
  -2.599877e+06  -2.705792e+06
  -5.719307e+05  -2.696461e+06
   1.254462e+06  -1.435261e+06
   1.561916e+06  -1.701137e+05
   4.739615e+05   4.130060e+04
  -3.568757e+05  -7.118479e+05
   3.196396e+05  -1.224814e+06
   1.697770e+06  -5.682081e+05
   1.902257e+06   7.162031e+05
   4.454190e+05   1.267866e+06
  -1.087535e+06   5.970072e+05
  -9.521678e+05  -4.179073e+05
   7.461567e+05  -6.663515e+05
   2.235658e+06   9.727013e+04
   1.929155e+06   1.290034e+06
  -1.030284e+05   2.062185e+06
  -2.232250e+06   1.739092e+06
  -2.691565e+06   3.273831e+05
  -1.170770e+06  -1.147095e+06
   8.223314e+05  -1.360301e+06
   1.386916e+06  -1.777239e+05
   1.473690e+05   9.745315e+05
  -1.425681e+06   7.009660e+05
  -1.669645e+06  -6.824895e+05
  -4.382558e+05  -1.576314e+06
   9.621906e+05  -1.052105e+06
   1.246262e+06   1.675326e+05
   3.356463e+05   7.122786e+05
  -7.064982e+05   8.244597e+04
  -6.923149e+05  -9.866075e+05
   5.654429e+05  -1.353430e+06
   1.931679e+06  -5.025019e+05
   1.944964e+06   1.008634e+06
   3.864938e+05   1.973642e+06
  -1.331419e+06   1.591963e+06
  -1.643526e+06   2.575049e+05
  -5.329628e+05  -8.110240e+05
   6.045064e+05  -8.067506e+05
   6.651308e+05  -7.234250e+04
  -6.639191e+04   4.505856e+05
  -5.556874e+05   3.070267e+05
  -2.815240e+05  -9.553709e+04
   3.529574e+05  -7.549742e+04
   5.585893e+05   5.282900e+05
  -1.040244e+05   1.127315e+06
  -1.291611e+06   8.992210e+05
  -2.007235e+06  -3.625315e+05
  -1.422901e+06  -1.850564e+06
   1.898726e+05  -2.357733e+06
   1.561546e+06  -1.452052e+06
   1.710186e+06   5.069180e+04
   9.479841e+05   9.325325e+05
   3.414500e+05   8.012986e+05
   3.673495e+05   3.111457e+05
   5.001301e+05   2.516779e+05
   8.180432e+04   6.638366e+05
  -8.020363e+05   8.984664e+05
  -1.417948e+06   3.853247e+05
  -1.099772e+06  -7.101983e+05
   1.782534e+05  -1.504881e+06
   1.664853e+06  -1.117617e+06
   2.213370e+06   4.283275e+05
   1.169200e+06   2.000995e+06
  -8.684571e+05   2.290401e+06
  -2.384019e+06   1.082637e+06
  -2.322382e+06  -5.251220e+05
  -1.062994e+06  -1.284798e+06
   1.256365e+05  -1.026439e+06
   4.518780e+05  -5.933722e+05
   2.083320e+05  -7.099358e+05
   1.539848e+05  -1.173644e+06
   6.096628e+05  -1.185723e+06
   1.201197e+06  -2.991306e+05
   1.279628e+06   1.040444e+06
   5.416884e+05   1.830806e+06
  -6.018154e+05   1.393307e+06
  -1.252064e+06   2.626024e+04
  -8.220280e+05  -1.192604e+06
   2.978271e+05  -1.347741e+06
   1.044947e+06  -4.847603e+05
   7.849300e+05   5.434249e+05
  -2.203382e+04   9.746985e+05
  -4.048789e+05   7.793007e+05
  -3.685734e+04   4.478793e+05
   4.002725e+05   3.436162e+05
   4.745499e+04   3.790039e+05
  -1.070992e+06   2.280989e+05
  -1.944177e+06  -2.791143e+05
  -1.571580e+06  -9.507905e+05
  -4.325076e+04  -1.339207e+06
   1.447173e+06  -1.096248e+06
   1.741195e+06  -3.329497e+05
   8.377512e+05   3.837682e+05
  -2.107692e+05   5.123750e+05
  -4.720370e+05   7.367970e+04
  -8.496475e+03  -3.530952e+05
   4.534510e+05  -2.362125e+05
   4.574991e+05   3.282158e+05
   1.856006e+05   7.123264e+05
   3.633612e+04   4.640844e+05
   1.413054e+05  -1.362660e+05
   3.192120e+05  -3.371597e+05
   2.805409e+05   2.157187e+05
  -1.613202e+05   9.749717e+05
  -8.572386e+05   1.025855e+06
  -1.239299e+06   1.416522e+05
  -7.569999e+05  -8.765645e+05
   3.899769e+05  -1.046106e+06
   1.168493e+06  -2.774767e+05
   7.033499e+05   5.685241e+05
  -6.590209e+05   6.463208e+05
  -1.567890e+06  -4.710025e+04
  -1.064290e+06  -8.159375e+05
   4.031188e+05  -1.016428e+06
   1.469758e+06  -5.618012e+05
   1.254929e+06   1.327678e+05
   1.652062e+05   5.137717e+05
  -6.219972e+05   2.958492e+05
  -3.563534e+05  -2.620493e+05
   5.898967e+05  -4.803590e+05
   1.140014e+06   1.136921e+05
   6.050501e+05   1.160927e+06
  -6.218963e+05   1.631008e+06
  -1.462849e+06   8.290299e+05
  -1.221749e+06  -7.502031e+05
  -1.996654e+05  -1.755342e+06
   7.157696e+05  -1.295774e+06
   9.154574e+05   1.309327e+05
   4.656959e+05   1.156061e+06
  -1.622857e+05   9.757577e+05
  -5.344753e+05   1.066235e+05
  -4.904993e+05  -3.751099e+05
  -1.972035e+05  -1.474525e+05
  -3.313629e+04   1.059127e+05
  -2.226443e+05  -2.567703e+05
  -4.838350e+05  -9.263193e+05
  -2.376882e+05  -1.061738e+06
   6.433185e+05  -4.014364e+05
   1.448853e+06   4.456644e+05
   1.295922e+06   8.103624e+05
   1.907106e+05   6.714240e+05
  -8.650312e+05   4.078941e+05
  -9.729635e+05   1.969766e+05
  -3.234733e+05  -2.604641e+04
   1.541027e+05  -2.162441e+05
  -6.514549e+03  -2.237865e+05
  -3.009813e+05  -1.171269e+05
  -3.293535e+04  -1.309718e+05
   6.886997e+05  -2.138240e+05
   1.013243e+06   1.853842e+04
   3.626470e+05   6.606260e+05
  -8.525412e+05   1.122688e+06
  -1.620828e+06   7.155138e+05
  -1.322620e+06  -4.335583e+05
  -2.575084e+05  -1.374020e+06
   7.284495e+05  -1.329927e+06
   1.016568e+06  -5.011258e+05
   6.435754e+05   2.462235e+05
   1.145260e+05   3.463819e+05
  -1.014415e+05   3.877423e+04
   6.787213e+04  -4.484752e+04
   3.137935e+05   3.458689e+05
   2.604975e+05   7.867335e+05
  -1.786503e+05   6.531814e+05
  -6.695363e+05  -1.409366e+05
  -6.996327e+05  -9.462010e+05
  -7.674327e+04  -9.963612e+05
   7.513865e+05  -2.080713e+05
   9.967349e+05   7.280070e+05
   3.210989e+05   1.054982e+06
  -6.945000e+05   6.360482e+05
  -1.070532e+06  -7.606115e+04
  -5.018132e+05  -5.674725e+05
   2.710381e+05  -6.292227e+05
   3.376255e+05  -3.544723e+05
  -2.717264e+05  -2.237419e+04
  -6.399765e+05   3.571481e+04
  -1.336868e+05  -2.920582e+05
   8.004515e+05  -6.692244e+05
   1.197726e+06  -5.578674e+05
   7.131346e+05   1.416523e+05
  -9.129185e+04   8.337811e+05
  -5.046497e+05   8.251923e+05
  -3.804902e+05   1.394367e+05
  -3.725846e+04  -4.776311e+05
   2.351302e+05  -4.076618e+05
   3.430627e+05   1.690143e+05
   2.458273e+05   5.612717e+05
  -5.456826e+04   3.903265e+05
  -3.786092e+05  -5.337712e+04
  -4.561553e+05  -2.507137e+05
  -2.375230e+05  -7.539611e+04
   2.201248e+04   1.232969e+05
   8.376675e+04  -2.842939e+03
   2.590039e+04  -3.585736e+05
   9.712984e+04  -5.013872e+05
   3.225278e+05  -1.632582e+05
   4.092524e+05   3.961431e+05
   1.075275e+05   6.299635e+05
  -4.082933e+05   2.937943e+05
  -6.285813e+05  -2.848876e+05
  -2.354206e+05  -5.664766e+05
   4.835219e+05  -3.550722e+05
   8.424293e+05   7.954921e+04
   4.601930e+05   3.649904e+05
  -2.821307e+05   3.710625e+05
  -6.115229e+05   2.014260e+05
  -2.224581e+05   1.661376e+04
   3.638878e+05  -4.470199e+04
   4.060170e+05   9.026783e+04
  -1.871552e+05   3.000327e+05
  -7.606488e+05   2.640196e+05
