
 $NMID
 id='ANONYMOUS ', fmtdat='(2E16.6)'
 volume=1.0
 tramp=1.0
 $END
  -5.559293e+07  -1.932040e+06
  -3.210707e+07  -3.582175e+07
   8.874701e+06  -3.741654e+07
   2.780053e+07  -1.324173e+07
   1.588333e+07   7.742092e+06
  -3.715679e+06   9.058836e+06
  -9.596076e+06  -1.720174e+06
  -2.237174e+06  -9.742105e+06
   6.523828e+06  -8.815760e+06
   9.551399e+06  -1.499974e+06
   6.629689e+06   6.320261e+06
   5.108313e+05   8.420687e+06
  -3.990068e+06   2.584279e+06
  -2.372598e+06  -5.326353e+06
   3.939995e+06  -6.185318e+06
   7.670059e+06   1.654976e+06
   3.962101e+06   1.018911e+07
  -4.163510e+06   1.144212e+07
  -1.014892e+07   5.464065e+06
  -1.059536e+07  -2.352854e+06
  -6.343380e+06  -7.603912e+06
  -4.327885e+05  -8.635669e+06
   3.162920e+06  -5.951603e+06
   2.094261e+06  -2.537704e+06
  -9.166445e+05  -1.981281e+06
  -1.781896e+05  -3.973584e+06
   5.298646e+06  -4.144609e+06
   9.395233e+06  -2.610544e+05
   6.785784e+06   4.216399e+06
   1.832021e+05   4.981703e+06
  -3.626260e+06   2.480535e+06
  -2.435181e+06   5.567193e+04
   4.745028e+05  -8.185432e+05
   2.084856e+06  -4.507851e+05
   2.079329e+06   1.335313e+06
   6.468265e+05   3.785072e+06
  -1.845792e+06   3.757034e+06
  -3.246330e+06  -1.328068e+05
  -1.655063e+06  -3.641095e+06
   8.298412e+05  -1.974055e+06
   3.255931e+05   2.319074e+06
  -2.448275e+06   2.131112e+06
  -2.264598e+06  -3.239655e+06
   2.675183e+06  -5.946292e+06
   6.964724e+06  -7.272301e+05
   4.823224e+06   7.042193e+06
  -2.215348e+06   8.355258e+06
  -7.397629e+06   2.125908e+06
  -6.616241e+06  -4.600838e+06
  -1.540837e+06  -5.940365e+06
   3.491743e+06  -2.480432e+06
   5.028790e+06   1.713471e+06
   2.182847e+06   3.501103e+06
  -2.479341e+06   2.045593e+06
  -4.402805e+06  -1.092354e+06
  -1.793650e+06  -2.754617e+06
   1.742646e+06  -1.281533e+06
   1.638523e+06   1.069621e+06
  -1.376687e+06   8.109392e+05
  -2.357050e+06  -1.894358e+06
   8.158064e+05  -3.415204e+06
   4.697220e+06  -1.685581e+06
   5.169670e+06   1.579136e+06
   2.112930e+06   4.015072e+06
  -1.922976e+06   5.092032e+06
  -5.000322e+06   4.576649e+06
  -6.088742e+06   1.537205e+06
  -4.407631e+06  -3.205539e+06
  -7.435624e+05  -6.047998e+06
   2.004337e+06  -4.568135e+06
   1.789573e+06  -1.065241e+06
   1.081118e+05   3.238496e+05
  -9.808959e+04  -9.378082e+05
   1.534979e+06  -1.741351e+06
   2.722383e+06  -2.267933e+05
   1.939294e+06   1.868075e+06
   1.282942e+04   2.051757e+06
  -1.461280e+06   1.687942e+05
  -1.545064e+06  -2.023978e+06
   6.974529e+04  -2.831332e+06
   2.726065e+06  -1.548759e+06
   4.338348e+06   1.265530e+06
   3.062334e+06   3.773778e+06
  -1.586152e+05   4.168668e+06
  -2.339259e+06   2.615193e+06
  -2.255245e+06   1.034881e+06
  -1.825785e+06   5.783700e+05
  -2.874815e+06   3.437114e+05
  -4.192472e+06  -9.001610e+05
  -3.282979e+06  -2.806823e+06
   1.611335e+04  -4.002497e+06
   3.227324e+06  -3.673771e+06
   4.098486e+06  -1.940496e+06
   2.570087e+06   4.619534e+05
   2.316866e+05   2.166664e+06
  -1.103002e+06   1.857126e+06
  -5.501375e+05  -4.111915e+04
   1.088447e+06  -1.241386e+06
   1.872903e+06  -3.276127e+05
   8.715850e+05   1.207223e+06
  -5.274950e+05   1.063437e+06
  -3.799688e+05  -3.959368e+05
   1.092359e+06  -6.031698e+05
   1.754270e+06   1.393962e+06
   4.326377e+05   3.455557e+06
  -1.756176e+06   3.211355e+06
  -3.113600e+06   8.741714e+05
  -3.108264e+06  -1.570297e+06
  -2.049066e+06  -2.739401e+06
  -3.323004e+05  -2.514492e+06
   1.241196e+06  -1.373953e+06
   1.530564e+06  -1.769074e+05
   4.766465e+05   6.135849e+04
  -3.207317e+05  -7.442925e+05
   4.596706e+05  -1.299647e+06
   1.895310e+06  -4.962081e+05
   1.954953e+06   9.545412e+05
   3.131077e+05   1.406353e+06
  -1.165718e+06   5.070160e+05
  -8.310586e+05  -4.769045e+05
   8.557718e+05  -4.462971e+05
   2.081900e+06   4.243297e+05
   1.601026e+06   1.380135e+06
  -3.344443e+05   1.874684e+06
  -2.296342e+06   1.500405e+06
  -2.699631e+06   1.594288e+05
  -1.140089e+06  -1.284549e+06
   9.558464e+05  -1.445323e+06
   1.544849e+06  -1.328786e+05
   1.682077e+05   1.070187e+06
  -1.506511e+06   6.671476e+05
  -1.641378e+06  -8.329962e+05
  -2.480595e+05  -1.621725e+06
   1.114412e+06  -8.891436e+05
   1.204864e+06   3.751023e+05
   1.909095e+05   7.778278e+05
  -7.901686e+05   2.019966e+04
  -6.855082e+05  -1.055754e+06
   6.052456e+05  -1.370868e+06
   1.972072e+06  -4.660140e+05
   1.949320e+06   1.090051e+06
   3.002839e+05   2.037202e+06
  -1.469079e+06   1.547861e+06
  -1.691281e+06   1.333075e+05
  -4.477889e+05  -8.686796e+05
   6.754762e+05  -7.519743e+05
   6.068970e+05  -5.304029e+04
  -1.383953e+05   3.239560e+05
  -4.668357e+05   1.625922e+05
  -8.055657e+04  -6.057686e+04
   4.507125e+05   1.234170e+05
   4.669703e+05   6.978142e+05
  -2.628708e+05   1.150944e+06
  -1.383934e+06   8.156412e+05
  -2.010615e+06  -4.811887e+05
  -1.357546e+06  -1.944689e+06
   2.959558e+05  -2.341755e+06
   1.616894e+06  -1.298333e+06
   1.619648e+06   1.960034e+05
   7.753951e+05   8.846758e+05
   2.782355e+05   6.047116e+05
   4.776972e+05   2.063565e+05
   6.229375e+05   3.370362e+05
   6.409008e+04   7.626777e+05
  -8.920765e+05   8.391151e+05
  -1.413435e+06   2.497892e+05
  -9.750207e+05  -7.340434e+05
   3.071704e+05  -1.387217e+06
   1.708737e+06  -9.648601e+05
   2.158288e+06   5.543378e+05
   1.013618e+06   2.085608e+06
  -1.086320e+06   2.264150e+06
  -2.522898e+06   8.962734e+05
  -2.250146e+06  -7.467125e+05
  -8.503317e+05  -1.335171e+06
   2.496745e+05  -8.848952e+05
   3.769969e+05  -4.586898e+05
   6.911016e+04  -7.337914e+05
   1.306579e+05  -1.288224e+06
   7.033156e+05  -1.244394e+06
   1.279612e+06  -2.693071e+05
   1.268008e+06   1.094465e+06
   4.785066e+05   1.859461e+06
  -6.510049e+05   1.375493e+06
  -1.246950e+06  -5.148594e+04
  -7.377837e+05  -1.285918e+06
   4.454702e+05  -1.344069e+06
   1.162775e+06  -3.323329e+05
   7.647110e+05   7.370692e+05
  -1.795953e+05   1.057230e+06
  -5.757476e+05   7.362916e+05
  -1.078569e+05   3.897553e+05
   4.151399e+05   3.352462e+05
   4.868766e+04   3.721606e+05
  -1.133170e+06   1.601920e+05
  -2.007064e+06  -4.008193e+05
  -1.535762e+06  -1.073377e+06
   1.044468e+05  -1.405850e+06
   1.605035e+06  -1.058761e+06
   1.796796e+06  -1.931321e+05
   7.855281e+05   5.325556e+05
  -2.832740e+05   5.547172e+05
  -5.044085e+05   5.061262e+03
  -2.233603e+04  -4.251559e+05
   4.313299e+05  -2.413145e+05
   4.599019e+05   3.479330e+05
   2.418312e+05   7.065768e+05
   9.558648e+04   4.685286e+05
   1.338277e+05  -7.435677e+04
   2.656474e+05  -2.590688e+05
   2.560472e+05   2.370388e+05
  -1.600282e+05   9.478476e+05
  -9.103945e+05   1.010408e+06
  -1.353821e+06   1.381146e+05
  -8.224884e+05  -9.170275e+05
   4.413315e+05  -1.113387e+06
   1.248578e+06  -3.069463e+05
   6.986098e+05   5.739588e+05
  -7.093022e+05   6.023566e+05
  -1.530204e+06  -1.582486e+05
  -9.189493e+05  -8.772389e+05
   5.245585e+05  -9.253654e+05
   1.464900e+06  -3.832225e+05
   1.170321e+06   2.429611e+05
   1.014501e+05   4.981107e+05
  -6.425468e+05   2.285258e+05
  -3.712694e+05  -3.063526e+05
   5.744812e+05  -5.021658e+05
   1.151693e+06   9.626901e+04
   6.411648e+05   1.160448e+06
  -5.967563e+05   1.650447e+06
  -1.456723e+06   8.368938e+05
  -1.201279e+06  -7.631422e+05
  -1.483334e+05  -1.741651e+06
   7.571446e+05  -1.221162e+06
   8.875741e+05   2.168616e+05
   3.637687e+05   1.172691e+06
  -2.664309e+05   9.196223e+05
  -5.553887e+05   5.358995e+04
  -4.235224e+05  -3.757209e+05
  -1.348947e+05  -1.308151e+05
  -5.757968e+04   8.433258e+04
  -2.915114e+05  -3.111925e+05
  -4.770573e+05  -9.609083e+05
  -1.281658e+05  -1.047296e+06
   7.348091e+05  -3.558022e+05
   1.414948e+06   4.943516e+05
   1.194447e+06   8.493787e+05
   1.558010e+05   6.892705e+05
  -8.193712e+05   3.869593e+05
  -9.527586e+05   1.406622e+05
  -3.672273e+05  -7.661702e+04
   1.390293e+05  -2.182919e+05
   6.673512e+04  -1.830387e+05
  -2.267349e+05  -8.119602e+04
  -5.753376e+04  -1.297719e+05
   6.184139e+05  -2.264333e+05
   1.022942e+06   2.795075e+04
   4.489003e+05   6.924057e+05
  -8.195316e+05   1.146952e+06
  -1.695310e+06   7.177425e+05
  -1.403963e+06  -4.375810e+05
  -2.482745e+05  -1.370943e+06
   7.879190e+05  -1.331972e+06
   1.036558e+06  -5.220417e+05
   6.296607e+05   2.227735e+05
   1.361889e+05   3.535545e+05
  -4.334078e+04   8.405384e+04
   8.850281e+04   8.148485e+03
   2.684726e+05   3.739688e+05
   2.092924e+05   7.923010e+05
  -1.831417e+05   6.653603e+05
  -6.560392e+05  -1.091257e+05
  -7.218863e+05  -9.210702e+05
  -1.289859e+05  -1.013336e+06
   7.202355e+05  -2.604374e+05
   1.007279e+06   6.923523e+05
   3.405809e+05   1.071557e+06
  -7.039059e+05   6.718944e+05
  -1.105856e+06  -8.541336e+04
  -5.240248e+05  -6.311801e+05
   2.969054e+05  -6.858802e+05
   4.049229e+05  -3.567909e+05
  -2.110059e+05   1.332354e+02
  -6.259047e+05   3.143689e+04
  -1.473572e+05  -3.096153e+05
   8.174186e+05  -6.411465e+05
   1.262916e+06  -4.767928e+05
   7.690137e+05   2.140087e+05
  -1.083553e+05   8.580154e+05
  -5.825693e+05   8.351227e+05
  -4.505950e+05   1.708052e+05
  -6.122180e+04  -4.558950e+05
   2.359509e+05  -4.376915e+05
   3.404280e+05   1.210827e+05
   2.421504e+05   5.663631e+05
  -5.256352e+04   4.423304e+05
  -3.823560e+05  -3.760771e+04
  -4.676986e+05  -3.026303e+05
  -2.339432e+05  -1.163848e+05
   4.424689e+04   1.705339e+05
   7.769287e+04   9.088624e+04
  -4.732414e+04  -3.282706e+05
   1.855169e+03  -5.709365e+05
   2.989698e+05  -2.625679e+05
   4.818173e+05   3.441481e+05
   1.953711e+05   6.322441e+05
  -3.886336e+05   3.159095e+05
  -6.645988e+05  -2.639619e+05
  -2.547824e+05  -5.518234e+05
   5.098273e+05  -3.524918e+05
   8.782189e+05   7.454161e+04
   4.704641e+05   3.753381e+05
  -2.937961e+05   4.086943e+05
  -6.364158e+05   2.403918e+05
  -2.687981e+05   1.771818e+04
   3.062370e+05  -8.816491e+04
   3.851379e+05   3.292757e+04
  -1.393317e+05   2.624165e+05
  -6.832142e+05   2.576878e+05
