
 $NMID
 id='ANONYMOUS ', fmtdat='(2E16.6)'
 volume=1.0
 tramp=1.0
 $END
  -5.333439e+07   6.599514e+05
  -3.239640e+07  -3.282387e+07
   6.772270e+06  -3.623439e+07
   2.602241e+07  -1.398563e+07
   1.559159e+07   6.656185e+06
  -3.127246e+06   8.852340e+06
  -9.281745e+06  -1.185040e+06
  -2.611718e+06  -9.231421e+06
   5.838589e+06  -8.771389e+06
   9.089493e+06  -1.891478e+06
   6.645314e+06   5.760910e+06
   8.691537e+05   8.058226e+06
  -3.711203e+06   2.653320e+06
  -2.517228e+06  -5.016652e+06
   3.496894e+06  -6.126883e+06
   7.431550e+06   1.228483e+06
   4.267304e+06   9.587621e+06
  -3.467351e+06   1.116078e+07
  -9.478851e+06   5.696043e+06
  -1.025529e+07  -1.780969e+06
  -6.409874e+06  -6.997207e+06
  -7.997767e+05  -8.238965e+06
   2.745060e+06  -5.833248e+06
   1.863638e+06  -2.539045e+06
  -9.811798e+05  -1.889454e+06
  -3.360951e+05  -3.822842e+06
   4.918432e+06  -4.207972e+06
   9.011693e+06  -6.560225e+05
   6.693378e+06   3.747843e+06
   3.832347e+05   4.764924e+06
  -3.381399e+06   2.526337e+06
  -2.328922e+06   1.425347e+05
   4.453874e+05  -8.177221e+05
   2.007058e+06  -5.157793e+05
   2.056929e+06   1.211647e+06
   7.733763e+05   3.615291e+06
  -1.608271e+06   3.679312e+06
  -3.104208e+06   7.787029e+03
  -1.734980e+06  -3.411755e+06
   7.038387e+05  -1.911031e+06
   4.026318e+05   2.225828e+06
  -2.259951e+06   2.161559e+06
  -2.323291e+06  -3.000551e+06
   2.281539e+06  -5.821919e+06
   6.626081e+06  -1.019449e+06
   4.937301e+06   6.521235e+06
  -1.737642e+06   8.102818e+06
  -6.992224e+06   2.371527e+06
  -6.560926e+06  -4.114796e+06
  -1.756069e+06  -5.635594e+06
   3.239788e+06  -2.546849e+06
   4.914662e+06   1.411623e+06
   2.265261e+06   3.261236e+06
  -2.279359e+06   2.078985e+06
  -4.273048e+06  -8.431461e+05
  -1.849652e+06  -2.557405e+06
   1.611153e+06  -1.308345e+06
   1.625691e+06   9.519912e+05
  -1.275609e+06   8.490461e+05
  -2.350263e+06  -1.693912e+06
   6.092023e+05  -3.302505e+06
   4.411545e+06  -1.834767e+06
   5.027638e+06   1.267810e+06
   2.212970e+06   3.749024e+06
  -1.619314e+06   4.971827e+06
  -4.603512e+06   4.614092e+06
  -5.778023e+06   1.741782e+06
  -4.367265e+06  -2.883748e+06
  -9.804033e+05  -5.773602e+06
   1.714317e+06  -4.481217e+06
   1.666828e+06  -1.116784e+06
   1.285849e+05   2.932805e+05
  -1.163130e+05  -8.973754e+05
   1.411665e+06  -1.730001e+06
   2.608376e+06  -3.231880e+05
   1.940303e+06   1.722314e+06
   9.259610e+04   1.977113e+06
  -1.407305e+06   2.227619e+05
  -1.578343e+06  -1.886436e+06
  -5.481337e+04  -2.728712e+06
   2.553768e+06  -1.604674e+06
   4.220184e+06   1.028676e+06
   3.102794e+06   3.486391e+06
   3.270301e+04   4.002476e+06
  -2.123455e+06   2.610573e+06
  -2.112926e+06   1.096537e+06
  -1.726434e+06   6.427826e+05
  -2.750074e+06   4.631393e+05
  -4.074182e+06  -6.763563e+05
  -3.284964e+06  -2.553394e+06
  -1.631320e+05  -3.853196e+06
   2.944783e+06  -3.678923e+06
   3.860908e+06  -2.045329e+06
   2.491750e+06   3.360069e+05
   3.124424e+05   2.075732e+06
  -9.833273e+05   1.832753e+06
  -5.300930e+05  -1.698170e+04
   9.941120e+05  -1.241619e+06
   1.786305e+06  -3.980310e+05
   8.897789e+05   1.121497e+06
  -4.623023e+05   1.046688e+06
  -3.868739e+05  -3.642350e+05
   1.020060e+06  -6.358535e+05
   1.752943e+06   1.250673e+06
   5.833977e+05   3.300238e+06
  -1.533136e+06   3.178202e+06
  -2.955667e+06   9.960792e+05
  -3.071085e+06  -1.365714e+06
  -2.103481e+06  -2.549801e+06
  -4.335068e+05  -2.411228e+06
   1.135898e+06  -1.378169e+06
   1.466656e+06  -2.367313e+05
   4.616591e+05   3.787966e+04
  -3.419279e+05  -7.021203e+05
   3.830396e+05  -1.270167e+06
   1.799449e+06  -5.621997e+05
   1.923368e+06   8.289898e+05
   3.656996e+05   1.337865e+06
  -1.098925e+06   5.406881e+05
  -8.232777e+05  -4.223193e+05
   8.033379e+05  -4.715590e+05
   2.027295e+06   3.122219e+05
   1.608421e+06   1.258706e+06
  -2.365877e+05   1.824162e+06
  -2.145379e+06   1.549501e+06
  -2.592817e+06   2.743303e+05
  -1.154689e+06  -1.184474e+06
   8.544127e+05  -1.431846e+06
   1.478515e+06  -1.966098e+05
   2.083507e+05   1.020961e+06
  -1.419943e+06   7.087132e+05
  -1.617600e+06  -7.277139e+05
  -3.133496e+05  -1.550294e+06
   1.031699e+06  -9.082717e+05
   1.177764e+06   3.046887e+05
   2.206670e+05   7.395882e+05
  -7.583946e+05   5.506997e+04
  -7.060873e+05  -9.855180e+05
   5.225513e+05  -1.345990e+06
   1.877989e+06  -5.351402e+05
   1.924472e+06   9.632754e+05
   3.796145e+05   1.947488e+06
  -1.344553e+06   1.555584e+06
  -1.622048e+06   2.046571e+05
  -4.708288e+05  -8.158753e+05
   6.163380e+05  -7.546058e+05
   5.831011e+05  -7.765220e+04
  -1.183165e+05   3.205870e+05
  -4.447552e+05   1.792657e+05
  -8.401903e+04  -5.632227e+04
   4.382198e+05   9.494391e+04
   4.824619e+05   6.486539e+05
  -1.998853e+05   1.119831e+06
  -1.295660e+06   8.475162e+05
  -1.957281e+06  -3.736198e+05
  -1.393308e+06  -1.811894e+06
   1.810705e+05  -2.268396e+06
   1.499777e+06  -1.323731e+06
   1.570359e+06   1.156278e+05
   7.884958e+05   8.195839e+05
   2.949610e+05   5.742998e+05
   4.664791e+05   1.797173e+05
   6.123435e+05   2.954482e+05
   9.554649e+04   7.298263e+05
  -8.209974e+05   8.483685e+05
  -1.350865e+06   3.046567e+05
  -9.734627e+05  -6.644927e+05
   2.333244e+05  -1.352010e+06
   1.603160e+06  -1.006550e+06
   2.103875e+06   4.376777e+05
   1.069991e+06   1.962995e+06
  -9.433840e+05   2.228531e+06
  -2.388129e+06   9.768086e+05
  -2.201212e+06  -6.169665e+05
  -8.812128e+05  -1.248268e+06
   1.998986e+05  -8.660990e+05
   3.449724e+05  -4.605239e+05
   3.733219e+04  -7.086848e+05
   6.988754e+04  -1.243768e+06
   6.210532e+05  -1.227930e+06
   1.218955e+06  -3.157842e+05
   1.268939e+06   9.976884e+05
   5.429323e+05   1.769276e+06
  -5.661135e+05   1.353242e+06
  -1.203223e+06   6.145067e+03
  -7.682386e+05  -1.204540e+06
   3.675978e+05  -1.314076e+06
   1.103306e+06  -3.739029e+05
   7.693576e+05   6.727367e+05
  -1.236282e+05   1.024662e+06
  -5.191508e+05   7.353373e+05
  -8.565579e+04   3.813169e+05
   4.140642e+05   3.049071e+05
   6.304277e+04   3.564299e+05
  -1.083212e+06   2.050632e+05
  -1.949247e+06  -2.961373e+05
  -1.526539e+06  -9.645077e+05
   3.639906e+04  -1.357347e+06
   1.496493e+06  -1.090452e+06
   1.721031e+06  -2.670180e+05
   7.809691e+05   4.758584e+05
  -2.471109e+05   5.458549e+05
  -4.850624e+05   2.825183e+04
  -3.996948e+04  -4.070272e+05
   4.052543e+05  -2.510485e+05
   4.580424e+05   3.146114e+05
   2.625388e+05   6.698465e+05
   1.113000e+05   4.467543e+05
   1.259747e+05  -7.863974e+04
   2.458459e+05  -2.623768e+05
   2.574348e+05   2.168679e+05
  -1.130128e+05   9.202913e+05
  -8.317951e+05   1.012996e+06
  -1.295465e+06   1.921969e+05
  -8.307226e+05  -8.463382e+05
   3.753848e+05  -1.090154e+06
   1.187334e+06  -3.495358e+05
   6.978181e+05   5.221955e+05
  -6.559341e+05   6.119064e+05
  -1.481426e+06  -8.371143e+04
  -9.260839e+05  -8.039440e+05
   4.627248e+05  -9.160248e+05
   1.394518e+06  -4.362362e+05
   1.139463e+06   1.811269e+05
   1.205590e+05   4.757071e+05
  -6.085506e+05   2.493535e+05
  -3.706276e+05  -2.779481e+05
   5.316012e+05  -5.080547e+05
   1.112908e+06   4.292611e+04
   6.671744e+05   1.089455e+06
  -5.032535e+05   1.614797e+06
  -1.366407e+06   8.691141e+05
  -1.190411e+06  -6.823687e+05
  -2.196066e+05  -1.671052e+06
   6.753343e+05  -1.210418e+06
   8.648862e+05   1.686153e+05
   4.033200e+05   1.113353e+06
  -2.146972e+05   8.984761e+05
  -5.322169e+05   7.682050e+04
  -4.254577e+05  -3.435455e+05
  -1.367288e+05  -1.205801e+05
  -5.134372e+04   8.418940e+04
  -2.930430e+05  -2.857499e+05
  -5.013992e+05  -9.038721e+05
  -1.710719e+05  -1.003439e+06
   6.904297e+05  -3.756994e+05
   1.384798e+06   4.135911e+05
   1.189211e+06   7.654229e+05
   1.807455e+05   6.567060e+05
  -7.731075e+05   4.085789e+05
  -9.118684e+05   1.779481e+05
  -3.562425e+05  -5.671055e+04
   1.246459e+05  -2.161725e+05
   5.496553e+04  -1.801423e+05
  -2.232060e+05  -6.922816e+04
  -6.054506e+04  -1.224363e+05
   5.869863e+05  -2.445213e+05
   9.860806e+05  -1.778786e+04
   4.608005e+05   6.463819e+05
  -7.398213e+05   1.139551e+06
  -1.599801e+06   7.650626e+05
  -1.369423e+06  -3.599852e+05
  -2.989065e+05  -1.309426e+06
   6.996226e+05  -1.317016e+06
   9.750113e+05  -5.474339e+05
   6.162264e+05   1.876319e+05
   1.461041e+05   3.343422e+05
  -3.909531e+04   8.179622e+04
   8.531719e+04   2.919185e+03
   2.757356e+05   3.480083e+05
   2.369938e+05   7.538484e+05
  -1.472925e+05   6.484232e+05
  -6.366375e+05  -7.719914e+04
  -7.347016e+05  -8.559431e+05
  -1.673375e+05  -9.696951e+05
   6.826700e+05  -2.810393e+05
   9.997861e+05   6.235147e+05
   3.742605e+05   1.016659e+06
  -6.483152e+05   6.769634e+05
  -1.067940e+06  -3.386486e+04
  -5.317931e+05  -5.837156e+05
   2.554354e+05  -6.723514e+05
   3.730949e+05  -3.612916e+05
  -2.043064e+05   8.740987e+03
  -6.016368e+05   5.755557e+04
  -1.551549e+05  -2.913625e+05
   7.589654e+05  -6.535428e+05
   1.194305e+06  -5.158089e+05
   7.489312e+05   1.710719e+05
  -6.660530e+04   8.305053e+05
  -5.231079e+05   8.295323e+05
  -4.250398e+05   1.836570e+05
  -7.828127e+04  -4.367001e+05
   2.080730e+05  -4.311691e+05
   3.330199e+05   1.027109e+05
   2.579090e+05   5.347508e+05
  -3.127564e+04   4.272198e+05
  -3.697086e+05  -1.986794e+04
  -4.634407e+05  -2.700282e+05
  -2.305128e+05  -1.011062e+05
   4.971248e+04   1.613219e+05
   7.911845e+04   8.234388e+04
  -5.836850e+04  -3.144462e+05
  -2.139871e+04  -5.482805e+05
   2.766686e+05  -2.638787e+05
   4.774127e+05   3.112456e+05
   2.139598e+05   6.000523e+05
  -3.608114e+05   3.206430e+05
  -6.507159e+05  -2.255758e+05
  -2.689436e+05  -5.205277e+05
   4.750996e+05  -3.617318e+05
   8.482167e+05   3.357226e+04
   4.691894e+05   3.407296e+05
  -2.648008e+05   4.056340e+05
  -6.017852e+05   2.584926e+05
  -2.571698e+05   2.886338e+04
   2.920443e+05  -9.723819e+04
   3.725499e+05   1.609792e+04
  -1.237609e+05   2.593535e+05
  -6.481832e+05   2.777995e+05
