
 $NMID
 id='ANONYMOUS ', fmtdat='(2E16.6)'
 volume=1.0
 tramp=1.0
 $END
   3.246472e+07   2.916535e+06
   1.840039e+07   1.978126e+07
  -4.578399e+06   2.082947e+07
  -1.566434e+07   9.082513e+06
  -9.850624e+06  -2.564117e+06
   1.272117e+06  -5.290828e+06
   5.826472e+06  -3.454667e+05
   2.486486e+06   5.450502e+06
  -3.039800e+06   6.466563e+06
  -5.762639e+06   1.873331e+06
  -4.273652e+06  -4.146988e+06
  -2.041016e+05  -5.783094e+06
   2.811389e+06  -1.357821e+06
   1.785310e+06   4.282200e+06
  -2.259764e+06   4.784939e+06
  -4.798870e+06  -5.472777e+05
  -2.695789e+06  -6.266338e+06
   2.429263e+06  -7.136228e+06
   6.284224e+06  -3.103922e+06
   6.214531e+06   2.029448e+06
   2.980276e+06   4.825199e+06
  -4.769627e+05   4.489936e+06
  -1.432372e+06   2.625748e+06
   2.684650e+05   1.666837e+06
   1.660152e+06   2.616258e+06
  -3.350940e+05   3.789283e+06
  -4.776208e+06   2.679443e+06
  -7.039884e+06  -6.908515e+05
  -4.268370e+06  -3.455763e+06
   9.042842e+05  -3.312123e+06
   3.452545e+06  -9.977545e+05
   1.718014e+06   1.106850e+06
  -1.512406e+06   1.512769e+06
  -2.914033e+06   1.489144e+05
  -1.800775e+06  -2.110939e+06
   3.473996e+05  -3.446002e+06
   1.761296e+06  -2.137014e+06
   1.509417e+06   9.624730e+05
   9.287778e+04   2.375044e+06
  -7.200689e+05   2.418114e+05
   2.882756e+05  -2.545246e+06
   1.908838e+06  -1.820564e+06
   1.613659e+06   1.856565e+06
  -1.055179e+06   3.508101e+06
  -3.377504e+06   4.481404e+05
  -2.499676e+06  -3.979116e+06
   1.197722e+06  -4.719011e+06
   4.507576e+06  -1.120321e+06
   4.637730e+06   2.993314e+06
   1.545473e+06   4.114813e+06
  -2.301681e+06   2.125375e+06
  -3.894159e+06  -7.345977e+05
  -2.069668e+06  -2.216028e+06
   1.281919e+06  -1.478974e+06
   2.834499e+06   4.750303e+05
   1.322914e+06   1.591676e+06
  -1.040947e+06   8.186101e+05
  -1.354333e+06  -6.464608e+05
   3.713659e+05  -8.606788e+05
   1.478175e+06   3.782905e+05
   2.358443e+05   1.450715e+06
  -2.110082e+06   1.083232e+06
  -3.039715e+06  -4.615095e+05
  -1.476147e+06  -2.235775e+06
   1.542143e+06  -3.399239e+06
   4.033902e+06  -3.044211e+06
   4.462446e+06  -6.523771e+05
   2.694875e+06   2.629626e+06
   1.974790e+05   4.353632e+06
  -1.148428e+06   3.379590e+06
  -8.989909e+05   1.341723e+06
  -3.852113e+05   5.412812e+05
  -8.998208e+05   1.025340e+06
  -2.055284e+06   9.262848e+05
  -2.415647e+06  -6.239009e+05
  -1.318857e+06  -2.215504e+06
   4.897450e+05  -2.027166e+06
   1.714072e+06  -4.275887e+04
   1.469127e+06   2.017653e+06
  -2.404889e+05   2.443783e+06
  -2.313944e+06   9.185472e+05
  -3.071104e+06  -1.391716e+06
  -1.774333e+06  -2.826321e+06
   3.792055e+05  -2.607830e+06
   1.500063e+06  -1.460449e+06
   1.271091e+06  -6.885485e+05
   1.173058e+06  -6.514565e+05
   2.226474e+06  -5.002601e+05
   3.364074e+06   5.582944e+05
   2.711678e+06   2.196770e+06
   4.129154e+04   3.313284e+06
  -2.756159e+06   3.059801e+06
  -3.582757e+06   1.429779e+06
  -2.102295e+06  -6.980370e+05
   1.330458e+05  -1.938815e+06
   1.189832e+06  -1.424109e+06
   4.353019e+05   1.498216e+05
  -1.009256e+06   9.897620e+05
  -1.485818e+06   2.266697e+05
  -5.680179e+05  -9.656679e+05
   5.440784e+05  -9.098967e+05
   5.115807e+05   2.746583e+05
  -5.715260e+05   7.873245e+05
  -1.394521e+06  -4.461250e+05
  -9.470528e+05  -2.334671e+06
   5.848087e+05  -2.917774e+06
   2.217416e+06  -1.518137e+06
   2.944744e+06   7.741789e+05
   2.243454e+06   2.337349e+06
   4.662749e+05   2.346557e+06
  -1.133031e+06   1.203360e+06
  -1.362939e+06   8.793491e+04
  -4.034866e+05  -5.105290e+04
   2.810010e+05   6.156773e+05
  -3.094162e+05   1.004010e+06
  -1.434594e+06   4.021108e+05
  -1.560127e+06  -6.545844e+05
  -3.365396e+05  -1.060016e+06
   9.304169e+05  -4.760983e+05
   8.193272e+05   3.655570e+05
  -6.098586e+05   5.709941e+05
  -1.900298e+06  -7.993430e+04
  -1.665138e+06  -1.115436e+06
   9.154631e+04  -1.774123e+06
   1.942041e+06  -1.449128e+06
   2.305476e+06  -2.073037e+05
   9.466287e+05   1.003435e+06
  -7.518138e+05   1.099896e+06
  -1.163604e+06   7.916020e+04
  -6.679495e+04  -8.307256e+05
   1.236070e+06  -5.402064e+05
   1.392996e+06   6.202898e+05
   3.461951e+05   1.335410e+06
  -8.126354e+05   8.763515e+05
  -1.040930e+06  -1.444413e+05
  -2.794720e+05  -5.890084e+05
   5.845874e+05  -4.049526e+04
   5.465489e+05   8.641306e+05
  -5.379204e+05   1.134550e+06
  -1.672999e+06   3.558180e+05
  -1.622825e+06  -9.333022e+05
  -2.605266e+05  -1.690942e+06
   1.177282e+06  -1.305393e+06
   1.397390e+06  -1.734484e+05
   4.349754e+05   6.944233e+05
  -5.298041e+05   6.707359e+05
  -5.854824e+05   4.994842e+04
   3.849686e+04  -3.995238e+05
   4.850688e+05  -2.877802e+05
   2.866956e+05   6.590276e+04
  -2.527808e+05   7.477465e+04
  -4.500515e+05  -4.276863e+05
   1.068343e+05  -9.362656e+05
   1.117716e+06  -7.250111e+05
   1.696523e+06   3.703075e+05
   1.150396e+06   1.624141e+06
  -2.344498e+05   2.012345e+06
  -1.368176e+06   1.212547e+06
  -1.467562e+06  -6.679881e+04
  -8.250402e+05  -8.229138e+05
  -3.102268e+05  -7.352389e+05
  -3.001855e+05  -3.247111e+05
  -3.810952e+05  -2.416018e+05
  -2.993288e+04  -5.530129e+05
   6.998869e+05  -7.397311e+05
   1.217044e+06  -3.039730e+05
   9.423965e+05   6.310228e+05
  -1.675505e+05   1.293764e+06
  -1.446692e+06   9.212689e+05
  -1.882670e+06  -4.236641e+05
  -9.456099e+05  -1.729768e+06
   7.926576e+05  -1.909054e+06
   2.040197e+06  -8.522716e+05
   1.959496e+06   4.885629e+05
   9.008915e+05   1.104143e+06
  -9.931704e+04   8.884567e+05
  -4.058853e+05   5.350718e+05
  -2.416050e+05   6.240585e+05
  -2.053901e+05   9.873571e+05
  -5.651730e+05   9.703135e+05
  -1.027552e+06   2.020121e+05
  -1.055464e+06  -9.366972e+05
  -4.016100e+05  -1.585290e+06
   5.625159e+05  -1.173451e+06
   1.069210e+06   1.096733e+04
   6.623352e+05   1.028590e+06
  -2.803967e+05   1.126121e+06
  -8.703687e+05   3.869585e+05
  -6.256170e+05  -4.572534e+05
   4.042832e+04  -7.956482e+05
   3.380922e+05  -6.350646e+05
   2.492097e+04  -3.846347e+05
  -3.301256e+05  -3.172773e+05
  -2.657604e+04  -3.308501e+05
   9.090561e+05  -1.566478e+05
   1.632684e+06   3.056351e+05
   1.304017e+06   8.527302e+05
   1.895031e+03   1.117923e+06
  -1.254399e+06   8.676602e+05
  -1.480378e+06   2.361574e+05
  -6.921778e+05  -3.251256e+05
   1.951899e+05  -4.122499e+05
   3.916982e+05  -5.298067e+04
  -2.253995e+04   2.928354e+05
  -4.065637e+05   1.885736e+05
  -3.778075e+05  -2.982085e+05
  -1.208733e+05  -6.337003e+05
   4.065562e+02  -4.117165e+05
  -1.181580e+05   1.260770e+05
  -2.865421e+05   3.037244e+05
  -2.347307e+05  -1.890177e+05
   1.743161e+05  -8.411403e+05
   7.679824e+05  -8.446896e+05
   1.051387e+06  -5.248046e+04
   5.973516e+05   7.906836e+05
  -3.803336e+05   8.643635e+05
  -1.008741e+06   1.720204e+05
  -5.843047e+05  -5.173268e+05
   5.769214e+05  -5.315853e+05
   1.339899e+06   7.437045e+04
   9.051038e+05   7.090909e+05
  -3.479076e+05   8.586167e+05
  -1.261043e+06   4.634058e+05
  -1.076055e+06  -1.276131e+05
  -1.378134e+05  -4.421839e+05
   5.327440e+05  -2.405326e+05
   2.860709e+05   2.341078e+05
  -5.357652e+05   3.890333e+05
  -9.802665e+05  -1.499464e+05
  -4.680339e+05  -1.033240e+06
   6.114833e+05  -1.383442e+06
   1.299140e+06  -6.561103e+05
   1.026459e+06   6.907641e+05
   1.144930e+05   1.517321e+06
  -6.485743e+05   1.097893e+06
  -7.756092e+05  -1.273601e+05
  -3.734176e+05  -9.954175e+05
   1.481096e+05  -8.289588e+05
   4.520193e+05  -7.764340e+04
   4.220092e+05   3.316919e+05
   1.800914e+05   1.276464e+05
   2.398612e+04  -9.023230e+04
   1.579337e+05   2.316514e+05
   3.755379e+05   8.109280e+05
   1.875093e+05   9.097920e+05
  -5.446191e+05   3.137764e+05
  -1.231244e+06  -4.272405e+05
  -1.100156e+06  -7.259565e+05
  -1.415517e+05  -5.775377e+05
   7.690672e+05  -3.296403e+05
   8.421784e+05  -1.459509e+05
   2.602181e+05   3.288575e+04
  -1.452384e+05   1.827317e+05
   1.896520e+04   1.889256e+05
   2.768143e+05   1.075752e+05
   1.821957e+04   1.190242e+05
  -6.200225e+05   1.666056e+05
  -8.703517e+05  -5.676342e+04
  -2.629139e+05  -5.937572e+05
   7.925525e+05  -9.356653e+05
   1.413289e+06  -5.385560e+05
   1.106870e+06   4.413944e+05
   1.692325e+05   1.195707e+06
  -6.707885e+05   1.107786e+06
  -8.975310e+05   3.836503e+05
  -5.526973e+05  -2.410094e+05
  -7.908452e+04  -3.060417e+05
   1.091992e+05  -3.031048e+04
  -4.675004e+04   4.326268e+04
  -2.612960e+05  -2.974546e+05
  -2.026637e+05  -6.795049e+05
   1.818709e+05  -5.533540e+05
   5.807498e+05   1.529334e+05
   5.656280e+05   8.543118e+05
   1.218755e+04   8.690690e+05
  -6.728482e+05   1.439864e+05
  -8.352754e+05  -6.780547e+05
  -2.276182e+05  -9.238558e+05
   6.297505e+05  -5.119957e+05
   9.122306e+05   1.133002e+05
   3.943844e+05   5.010151e+05
  -2.641822e+05   5.159733e+05
  -2.923247e+05   2.799270e+05
   2.502661e+05   2.415708e+04
   5.561449e+05  -8.334550e+03
   9.767550e+04   2.563702e+05
  -7.096414e+05   5.482222e+05
  -1.028759e+06   4.384119e+05
  -5.855848e+05  -1.460868e+05
   1.132860e+05  -7.081323e+05
   4.547173e+05  -6.761667e+05
   3.252354e+05  -8.607663e+04
   1.177233e+04   4.226338e+05
  -2.246559e+05   3.361141e+05
  -2.984225e+05  -1.692287e+05
  -1.894076e+05  -4.928221e+05
   7.253889e+04  -3.244033e+05
   3.267439e+05   6.530685e+04
   3.720931e+05   2.262116e+05
   1.954921e+05   6.558905e+04
  -1.033792e+03  -1.015232e+05
  -5.705004e+04   1.951484e+04
  -4.660362e+04   3.277928e+05
  -1.361537e+05   4.315028e+05
  -3.075581e+05   1.115867e+05
  -3.315679e+05  -3.821838e+05
  -4.881903e+04  -5.633685e+05
   3.723795e+05  -2.360718e+05
   5.274598e+05   2.821001e+05
   1.789498e+05   5.050686e+05
  -4.259267e+05   2.828722e+05
  -7.176050e+05  -1.101288e+05
  -3.786008e+05  -3.334065e+05
   2.628444e+05  -2.991106e+05
   5.378775e+05  -1.367266e+05
   1.833652e+05   3.088960e+03
  -3.355842e+05   2.514267e+04
  -3.613808e+05  -1.024701e+05
   1.769027e+05  -2.677270e+05
   6.822563e+05  -2.122609e+05
