
 $NMID
 id='ANONYMOUS ', fmtdat='(2E16.6)'
 volume=1.0
 tramp=1.0
 $END
  -1.889418e+07   3.846241e+05
  -1.200049e+07  -1.044780e+07
   1.451086e+06  -1.254577e+07
   8.852153e+06  -6.176037e+06
   6.071402e+06   1.231238e+06
  -5.811591e+05   3.477349e+06
  -3.669774e+06   5.723894e+05
  -1.862887e+06  -3.251889e+06
   1.557791e+06  -4.138514e+06
   3.437907e+06  -1.409414e+06
   2.740327e+06   2.331728e+06
   3.019443e+05   3.485714e+06
  -1.712680e+06   9.475867e+05
  -1.321093e+06  -2.472522e+06
   1.099130e+06  -2.949414e+06
   2.843414e+06   8.501356e+04
   1.830704e+06   3.495247e+06
  -1.122315e+06   4.155655e+06
  -3.465036e+06   1.966637e+06
  -3.598067e+06  -9.205849e+05
  -1.915876e+06  -2.599909e+06
   1.619490e+04  -2.606052e+06
   7.159008e+05  -1.659717e+06
  -7.875851e+04  -9.948683e+05
  -9.208189e+05  -1.355043e+06
   1.800794e+04  -2.092495e+06
   2.530168e+06  -1.756103e+06
   4.069915e+06   2.048315e+04
   2.707732e+06   1.814105e+06
  -3.015297e+05   2.062181e+06
  -1.957767e+06   8.405884e+05
  -1.066511e+06  -4.974349e+05
   7.903601e+05  -8.700270e+05
   1.593667e+06  -1.287373e+05
   9.639065e+05   1.165225e+06
  -1.930980e+05   1.939891e+06
  -9.602349e+05   1.235613e+06
  -9.125159e+05  -5.069941e+05
  -2.109532e+05  -1.367988e+06
   3.297318e+05  -2.203918e+05
  -7.474857e+04   1.402906e+06
  -1.012135e+06   1.075053e+06
  -1.049888e+06  -1.060849e+06
   3.996263e+05  -2.183174e+06
   1.967952e+06  -5.467570e+05
   1.771368e+06   2.111294e+06
  -3.277041e+05   2.812343e+06
  -2.493070e+06   9.419424e+05
  -2.819204e+06  -1.452962e+06
  -1.068457e+06  -2.303208e+06
   1.281477e+06  -1.352389e+06
   2.320866e+06   2.841276e+05
   1.270372e+06   1.312823e+06
  -7.691794e+05   1.046181e+06
  -1.770206e+06  -1.353060e+05
  -8.847003e+05  -9.784913e+05
   5.984526e+05  -6.139995e+05
   8.480211e+05   3.618363e+05
  -2.303009e+05   6.173777e+05
  -9.971542e+05  -1.706541e+05
  -2.861539e+05  -9.762976e+05
   1.182606e+06  -8.359802e+05
   1.822251e+06   1.324301e+05
   9.650210e+05   1.236591e+06
  -7.292186e+05   1.941303e+06
  -2.130435e+06   1.808240e+06
  -2.455915e+06   5.354079e+05
  -1.615717e+06  -1.351438e+06
  -2.725135e+05  -2.470708e+06
   5.904359e+05  -1.996695e+06
   5.692857e+05  -7.518914e+05
   2.411279e+05  -1.847159e+05
   3.956586e+05  -5.038553e+05
   1.014590e+06  -6.051332e+05
   1.338188e+06   1.966182e+05
   8.398602e+05   1.172182e+06
  -1.927521e+05   1.180143e+06
  -9.890153e+05   9.947900e+04
  -9.291869e+05  -1.103129e+06
   4.140068e+04  -1.418719e+06
   1.279713e+06  -6.296092e+05
   1.791538e+06   6.537037e+05
   1.115128e+06   1.523243e+06
  -1.040275e+05   1.491509e+06
  -7.842777e+05   8.821606e+05
  -6.937568e+05   4.251635e+05
  -6.389393e+05   4.012490e+05
  -1.224211e+06   3.693424e+05
  -1.892720e+06  -1.799725e+05
  -1.592866e+06  -1.133596e+06
  -1.539947e+05  -1.859357e+06
   1.414316e+06  -1.810939e+06
   1.953305e+06  -9.284254e+05
   1.226246e+06   3.109838e+05
   1.252645e+04   1.097225e+06
  -6.401559e+05   8.613789e+05
  -2.963315e+05  -6.724573e+04
   5.229723e+05  -6.305788e+05
   8.741799e+05  -2.167187e+05
   3.953656e+05   5.441497e+05
  -2.955632e+05   5.879961e+05
  -3.512391e+05  -1.240553e+05
   2.843515e+05  -5.155109e+05
   8.436024e+05   1.594550e+05
   6.423449e+05   1.308033e+06
  -2.558628e+05   1.718394e+06
  -1.238775e+06   9.378973e+05
  -1.689817e+06  -3.819143e+05
  -1.318865e+06  -1.280298e+06
  -3.262886e+05  -1.306047e+06
   6.008225e+05  -6.966826e+05
   7.725765e+05  -7.947908e+04
   2.323864e+05   2.760757e+04
  -2.009667e+05  -3.352043e+05
   1.116410e+05  -6.025963e+05
   8.054117e+05  -3.197270e+05
   9.583776e+05   3.001510e+05
   2.784440e+05   6.261309e+05
  -5.066397e+05   3.645105e+05
  -5.162279e+05  -1.421188e+05
   2.795167e+05  -3.504376e+05
   1.052274e+06  -4.578427e+04
   9.774351e+05   5.552784e+05
   1.908732e+04   1.003030e+06
  -1.041835e+06   8.912909e+05
  -1.306338e+06   1.966341e+05
  -5.885663e+05  -5.521653e+05
   3.854305e+05  -6.776822e+05
   6.815968e+05  -1.013986e+05
   9.660143e+04   4.827375e+05
  -6.785522e+05   3.786890e+05
  -8.346998e+05  -2.934015e+05
  -2.616639e+05  -7.697835e+05
   4.424573e+05  -5.630682e+05
   6.363328e+05   2.902850e+04
   2.246426e+05   3.468634e+05
  -3.080157e+05   9.611422e+04
  -3.574473e+05  -4.174585e+05
   2.186754e+05  -6.387808e+05
   8.933812e+05  -2.737084e+05
   9.404623e+05   4.474050e+05
   2.163816e+05   9.422942e+05
  -6.220581e+05   7.900045e+05
  -8.098799e+05   1.444265e+05
  -2.976381e+05  -4.070653e+05
   2.749456e+05  -4.355412e+05
   3.575947e+05  -6.785390e+04
   2.980339e+04   2.332484e+05
  -2.409039e+05   1.996507e+05
  -1.677402e+05  -7.077090e+03
   1.159800e+05  -4.368328e+04
   2.465181e+05   2.117912e+05
  -2.691055e+04   5.051684e+05
  -5.826593e+05   4.325137e+05
  -9.465172e+05  -1.402502e+05
  -6.946457e+05  -8.568280e+05
   6.876666e+04  -1.136133e+06
   7.417898e+05  -7.324492e+05
   8.391905e+05   1.415206e+02
   4.842749e+05   4.677650e+05
   1.725839e+05   4.322254e+05
   1.484136e+05   1.761234e+05
   1.966023e+05   1.031137e+05
   1.998053e+04   2.799381e+05
  -3.637524e+05   4.087362e+05
  -6.436844e+05   1.906659e+05
  -5.149530e+05  -3.215198e+05
   6.011036e+04  -7.106308e+05
   7.600609e+05  -5.480234e+05
   1.051371e+06   1.696475e+05
   5.988676e+05   9.237202e+05
  -3.531867e+05   1.098552e+06
  -1.105053e+06   5.650118e+05
  -1.131633e+06  -1.977280e+05
  -5.629294e+05  -6.014498e+05
   2.424454e+04  -5.209139e+05
   2.258423e+05  -3.164601e+05
   1.310814e+05  -3.433315e+05
   8.670913e+04  -5.452892e+05
   2.783416e+05  -5.579549e+05
   5.611838e+05  -1.499159e+05
   6.199295e+05   4.859292e+05
   2.806049e+05   8.726734e+05
  -2.737205e+05   6.794771e+05
  -6.036285e+05   4.067284e+04
  -4.172100e+05  -5.430594e+05
   1.046207e+05  -6.442731e+05
   4.652302e+05  -2.691069e+05
   3.713615e+05   2.087371e+05
   2.648598e+04   4.380078e+05
  -1.437498e+05   3.787113e+05
   2.922710e+03   2.326250e+05
   1.773443e+05   1.716130e+05
   1.279347e+04   1.781554e+05
  -4.886980e+05   1.135030e+05
  -8.963924e+05  -1.099197e+05
  -7.545574e+05  -4.191539e+05
  -6.622582e+04  -6.148660e+05
   6.458610e+05  -5.299976e+05
   8.212053e+05  -1.971189e+05
   4.156118e+05   1.399436e+05
  -8.478362e+04   2.274866e+05
  -2.120680e+05   4.898924e+04
   1.700515e+04  -1.463753e+05
   2.357104e+05  -1.006515e+05
   2.126928e+05   1.631709e+05
   5.930730e+04   3.498456e+05
  -5.731988e+03   2.269932e+05
   6.697279e+04  -7.622551e+04
   1.558810e+05  -1.832027e+05
   1.230440e+05   8.579927e+04
  -8.464697e+04   4.560874e+05
  -3.844234e+05   4.796265e+05
  -5.429945e+05   6.024563e+04
  -3.312873e+05  -4.078634e+05
   1.770279e+05  -4.713388e+05
   5.355353e+05  -1.089930e+05
   3.321505e+05   2.783672e+05
  -3.066490e+05   3.149152e+05
  -7.592130e+05  -2.685374e+03
  -5.427827e+05  -3.746859e+05
   1.626740e+05  -5.035537e+05
   7.015004e+05  -3.126396e+05
   6.205501e+05   3.201050e+04
   9.769481e+04   2.494708e+05
  -2.902525e+05   1.638770e+05
  -1.672361e+05  -1.094971e+05
   2.861524e+05  -2.225419e+05
   5.426904e+05   6.262317e+04
   2.731901e+05   5.616943e+05
  -3.203998e+05   7.751933e+05
  -7.148606e+05   3.836633e+05
  -5.876047e+05  -3.688883e+05
  -9.656445e+04  -8.488420e+05
   3.378134e+05  -6.385042e+05
   4.419863e+05   3.927776e+04
   2.493235e+05   5.446390e+05
  -4.101434e+04   4.796924e+05
  -2.421846e+05   6.741422e+04
  -2.559035e+05  -1.757059e+05
  -1.190302e+05  -7.207047e+04
  -8.873811e+03   5.907335e+04
  -7.969236e+04  -1.074993e+05
  -2.291275e+05  -4.369329e+05
  -1.476133e+05  -5.150972e+05
   2.786056e+05  -2.015664e+05
   7.038948e+05   2.080355e+05
   6.491481e+05   3.821541e+05
   9.515146e+04   3.141716e+05
  -4.348682e+05   1.958265e+05
  -4.724176e+05   1.067416e+05
  -1.358793e+05  -2.049743e+02
   8.355402e+04  -1.050682e+05
  -2.531023e+04  -1.190392e+05
  -1.691083e+05  -6.350848e+04
  -7.872567e+03  -5.943917e+04
   3.542183e+05  -9.559488e+04
   4.811975e+05   1.095956e+04
   1.376513e+05   3.118790e+05
  -4.313237e+05   5.269047e+05
  -7.585951e+05   3.264892e+05
  -6.015024e+05  -2.227852e+05
  -1.142389e+05  -6.616179e+05
   3.376771e+05  -6.256959e+05
   4.810640e+05  -2.234366e+05
   3.105839e+05   1.268063e+05
   4.631461e+04   1.616977e+05
  -6.955434e+04   4.483379e+03
   2.236426e+04  -3.822219e+04
   1.625668e+05   1.540624e+05
   1.406522e+05   3.732995e+05
  -8.575331e+04   3.102582e+05
  -3.274663e+05  -7.897550e+04
  -3.257306e+05  -4.689482e+05
  -1.095485e+04  -4.780770e+05
   3.779808e+05  -7.783660e+04
   4.717626e+05   3.722934e+05
   1.368110e+05   5.046335e+05
  -3.370241e+05   2.850811e+05
  -4.982616e+05  -4.321638e+04
  -2.248374e+05  -2.514501e+05
   1.253973e+05  -2.761590e+05
   1.370766e+05  -1.654248e+05
  -1.537931e+05  -2.174465e+04
  -3.105037e+05   1.273445e+04
  -5.450791e+04  -1.353516e+05
   3.829354e+05  -3.244105e+05
   5.529809e+05  -2.847208e+05
   3.181411e+05   5.130175e+04
  -4.626670e+04   3.914101e+05
  -2.221971e+05   3.844983e+05
  -1.594416e+05   4.774593e+04
  -4.985553e+03  -2.387633e+05
   1.177688e+05  -1.814256e+05
   1.658278e+05   1.023196e+05
   1.138386e+05   2.694101e+05
  -3.297856e+04   1.679515e+05
  -1.814629e+05  -3.460760e+04
  -2.110670e+05  -1.062519e+05
  -1.126632e+05  -2.398940e+04
  -1.250754e+02   4.282898e+04
   3.807834e+04  -3.504718e+04
   4.037880e+04  -1.869414e+05
   8.940772e+04  -2.198905e+05
   1.706645e+05  -4.042475e+04
   1.693962e+05   2.170726e+05
   1.346930e+04   3.069864e+05
  -2.067407e+05   1.297114e+05
  -2.861940e+05  -1.516248e+05
  -1.013511e+05  -2.791850e+05
   2.247652e+05  -1.652750e+05
   3.905152e+05   4.854709e+04
   2.140404e+05   1.757889e+05
  -1.363642e+05   1.625472e+05
  -2.898188e+05   7.664657e+04
  -9.135638e+04   1.892425e+03
   1.993387e+05  -7.411868e+03
   2.067092e+05   6.660868e+04
  -1.075033e+05   1.601839e+05
  -3.964998e+05   1.274444e+05
