
 $NMID
 id='ANONYMOUS ', fmtdat='(2E16.6)'
 volume=1.0
 tramp=1.0
 $END
  -8.018907e+06  -1.172784e+06
  -4.511332e+06  -4.714483e+06
   1.019473e+06  -4.986177e+06
   3.850100e+06  -2.535555e+06
   2.640538e+06   2.663664e+05
  -1.397107e+05   1.346445e+06
  -1.548712e+06   3.489456e+05
  -8.646749e+05  -1.356406e+06
   6.577889e+05  -1.910498e+06
   1.515022e+06  -6.576166e+05
   1.122967e+06   1.153027e+06
  -1.368727e+04   1.619284e+06
  -7.987407e+05   2.812713e+05
  -4.759941e+05  -1.333573e+06
   6.080610e+05  -1.436777e+06
   1.277501e+06   6.945802e+04
   7.282418e+05   1.647395e+06
  -6.349532e+05   1.869133e+06
  -1.643239e+06   7.297341e+05
  -1.525471e+06  -6.568308e+05
  -5.656629e+05  -1.262364e+06
   2.618033e+05  -9.736196e+05
   2.430520e+05  -4.862807e+05
  -3.729283e+05  -5.091210e+05
  -5.935274e+05  -1.005154e+06
   2.379397e+05  -1.238467e+06
   1.561357e+06  -6.509330e+05
   2.050271e+06   4.226869e+05
   1.083468e+06   1.091664e+06
  -4.622138e+05   8.707948e+05
  -1.128619e+06   9.576593e+04
  -4.462639e+05  -5.319422e+05
   6.794306e+05  -5.473164e+05
   1.080862e+06   5.509190e+04
   5.195763e+05   8.316482e+05
  -2.917176e+05   1.091443e+06
  -5.847160e+05   4.913562e+05
  -2.591058e+05  -4.155664e+05
   1.761100e+05  -6.122450e+05
   1.964778e+05   1.425392e+05
  -2.218516e+05   8.679978e+05
  -6.015877e+05   5.541960e+05
  -4.605847e+05  -4.689921e+05
   1.648902e+05  -8.980482e+05
   6.979063e+05  -1.346311e+05
   5.524278e+05   9.576221e+05
  -2.824539e+05   1.143771e+06
  -1.161259e+06   2.374621e+05
  -1.302242e+06  -8.490039e+05
  -4.895027e+05  -1.188821e+06
   6.583230e+05  -6.578865e+05
   1.180737e+06   1.702258e+05
   6.722110e+05   6.212131e+05
  -2.982733e+05   4.308125e+05
  -7.664565e+05  -1.002251e+05
  -3.841417e+05  -4.055441e+05
   2.690274e+05  -2.150793e+05
   4.188378e+05   1.831964e+05
  -1.758794e+04   3.107874e+05
  -4.153443e+05   5.229039e+04
  -2.253570e+05  -2.731708e+05
   3.982586e+05  -3.094986e+05
   7.775840e+05   2.456097e+04
   4.184735e+05   5.458503e+05
  -4.948413e+05   9.187009e+05
  -1.259861e+06   7.885915e+05
  -1.295861e+06   6.882213e+04
  -6.640674e+05  -8.250856e+05
   3.976123e+04  -1.249905e+06
   3.141884e+05  -9.905361e+05
   2.214358e+05  -4.897333e+05
   1.911143e+05  -2.771341e+05
   4.460587e+05  -3.203410e+05
   7.563149e+05  -1.653627e+05
   7.480042e+05   3.507919e+05
   3.221056e+05   7.996441e+05
  -2.621300e+05   6.610137e+05
  -6.071915e+05  -3.668439e+04
  -4.508074e+05  -7.035035e+05
   1.364490e+05  -7.680686e+05
   7.316516e+05  -2.004070e+05
   8.520407e+05   5.107277e+05
   4.106024e+05   8.386918e+05
  -1.665157e+05   6.750185e+05
  -4.022899e+05   3.419618e+05
  -3.112216e+05   1.887696e+05
  -3.276550e+05   2.226055e+05
  -6.827852e+05   1.635974e+05
  -1.029882e+06  -1.861816e+05
  -8.190092e+05  -6.998090e+05
   2.145716e+04  -1.034064e+06
   9.108422e+05  -9.185453e+05
   1.157990e+06  -3.681725e+05
   6.337305e+05   2.910063e+05
  -1.187282e+05   6.154500e+05
  -4.272185e+05   4.038599e+05
  -1.273787e+05  -6.937579e+04
   3.425452e+05  -2.867210e+05
   4.549067e+05  -4.606192e+04
   1.421254e+05   2.991907e+05
  -1.982698e+05   2.775509e+05
  -1.864646e+05  -8.984283e+04
   1.464374e+05  -2.894832e+05
   4.387562e+05   5.013143e+04
   3.665249e+05   6.763188e+05
  -9.682767e+04   9.623889e+05
  -6.770338e+05   5.722230e+05
  -9.762093e+05  -2.098778e+05
  -7.485183e+05  -7.811068e+05
  -1.368401e+05  -7.813055e+05
   3.856246e+05  -3.674345e+05
   4.382329e+05   1.304724e+03
   1.262208e+05   2.130029e+04
  -8.186179e+04  -1.958739e+05
   9.707187e+04  -2.999619e+05
   4.319491e+05  -1.087908e+05
   4.722166e+05   2.025955e+05
   1.049398e+05   3.211293e+05
  -2.927119e+05   1.453667e+05
  -2.709502e+05  -1.239613e+05
   1.881387e+05  -2.030359e+05
   6.247098e+05   1.333242e+04
   5.559157e+05   3.737321e+05
  -2.946087e+04   5.895358e+05
  -6.350864e+05   4.562898e+05
  -7.331757e+05   4.431044e+04
  -2.837211e+05  -3.158321e+05
   2.400629e+05  -3.193859e+05
   3.453772e+05  -7.864399e+03
   4.998289e+02   2.495864e+05
  -3.901785e+05   1.507318e+05
  -4.327621e+05  -2.018554e+05
  -1.116048e+05  -4.230127e+05
   2.518506e+05  -2.860510e+05
   3.331187e+05   3.509975e+04
   9.863983e+04   1.822659e+05
  -1.733567e+05   1.038093e+04
  -1.565839e+05  -2.745423e+05
   1.876646e+05  -3.459168e+05
   5.312005e+05  -8.406029e+04
   4.942447e+05   3.164030e+05
   6.110089e+04   5.310762e+05
  -3.783122e+05   3.960044e+05
  -4.385451e+05   4.540133e+04
  -1.364394e+05  -2.199208e+05
   1.707975e+05  -2.098916e+05
   1.955580e+05  -6.436892e+03
  -9.457610e+03   1.458237e+05
  -1.738101e+05   1.037685e+05
  -1.210346e+05  -3.248268e+04
   6.644427e+04  -4.987495e+04
   1.483483e+05   1.181410e+05
  -2.808615e+04   2.908349e+05
  -3.545493e+05   2.199190e+05
  -5.293779e+05  -1.336021e+05
  -3.412879e+05  -5.234434e+05
   9.908654e+04  -6.350384e+05
   4.496681e+05  -3.798158e+05
   4.775213e+05   2.869174e+04
   2.711882e+05   2.849759e+05
   9.288170e+04   2.697524e+05
   7.119653e+04   1.251862e+05
   9.677889e+04   7.089690e+04
   1.174075e+03   1.603488e+05
  -2.226564e+05   2.293924e+05
  -3.925162e+05   9.273434e+04
  -3.052335e+05  -2.153699e+05
   5.938540e+04  -4.248538e+05
   4.703726e+05  -2.861559e+05
   5.963699e+05   1.531668e+05
   2.882943e+05   5.542992e+05
  -2.564324e+05   5.926720e+05
  -6.422324e+05   2.571050e+05
  -6.219296e+05  -1.605954e+05
  -2.957235e+05  -3.605290e+05
   3.051967e+04  -3.014794e+05
   1.512956e+05  -1.820609e+05
   1.110050e+05  -1.888573e+05
   8.888920e+04  -2.905756e+05
   1.843047e+05  -2.865809e+05
   3.173968e+05  -4.754772e+04
   3.168696e+05   3.099678e+05
   1.044422e+05   5.059407e+05
  -1.946773e+05   3.628767e+05
  -3.393003e+05  -1.341578e+04
  -2.018262e+05  -3.249778e+05
   8.898850e+04  -3.515997e+05
   2.654403e+05  -1.284875e+05
   1.921110e+05   1.275625e+05
  -4.544270e+03   2.384940e+05
  -9.362180e+04   2.010743e+05
  -4.844531e+03   1.303807e+05
   9.575826e+04   1.084516e+05
   1.519310e+03   1.063574e+05
  -2.814867e+05   4.167398e+04
  -5.012103e+05  -1.112013e+05
  -4.012270e+05  -2.778113e+05
  -6.527051e+02  -3.439729e+05
   3.906255e+05  -2.550671e+05
   4.651822e+05  -6.613825e+04
   2.208009e+05   9.416091e+04
  -5.893332e+04   1.200667e+05
  -1.201779e+05   1.947633e+04
   1.511408e+04  -8.099606e+04
   1.359174e+05  -5.055084e+04
   1.131397e+05   9.903696e+04
   1.658431e+04   2.038916e+05
  -1.776453e+04   1.295679e+05
   4.119973e+04  -4.715444e+04
   1.054303e+05  -1.024550e+05
   7.446099e+04   6.134373e+04
  -7.253368e+04   2.670880e+05
  -2.522947e+05   2.543743e+05
  -3.163582e+05  -4.131304e+03
  -1.629222e+05  -2.562632e+05
   1.300721e+05  -2.555952e+05
   3.104728e+05  -2.938318e+04
   1.751657e+05   1.749142e+05
  -1.857960e+05   1.633912e+05
  -4.287237e+05  -3.376955e+04
  -2.947396e+05  -2.337230e+05
   1.089794e+05  -2.790556e+05
   4.097957e+05  -1.486400e+05
   3.514335e+05   4.546415e+04
   4.444861e+04   1.453713e+05
  -1.705711e+05   7.570022e+04
  -8.354521e+04  -7.315710e+04
   1.800335e+05  -1.088343e+05
   3.055388e+05   7.027926e+04
   1.214284e+05   3.368141e+05
  -2.258455e+05   4.224706e+05
  -4.257186e+05   1.798951e+05
  -3.140369e+05  -2.377550e+05
  -1.311988e+04  -4.849641e+05
   2.215378e+05  -3.459912e+05
   2.474557e+05   4.292131e+04
   1.137030e+05   3.204502e+05
  -4.784107e+04   2.683731e+05
  -1.416145e+05   2.360195e+04
  -1.372491e+05  -1.137144e+05
  -6.404635e+04  -4.682542e+04
  -5.693457e+03   3.144250e+04
  -3.468073e+04  -6.805665e+04
  -1.033853e+05  -2.591348e+05
  -5.765379e+04  -2.943378e+05
   1.647802e+05  -9.540683e+04
   3.864306e+05   1.530173e+05
   3.492766e+05   2.465119e+05
   3.845927e+04   1.830580e+05
  -2.573598e+05   9.180368e+04
  -2.728834e+05   3.767084e+04
  -7.502682e+04  -7.817555e+03
   5.206700e+04  -5.451373e+04
  -1.343950e+04  -6.661921e+04
  -9.693868e+04  -4.543373e+04
   4.584141e+02  -3.824818e+04
   2.106293e+05  -3.801073e+04
   2.729691e+05   3.433450e+04
   5.777515e+04   1.883366e+05
  -2.752066e+05   2.762134e+05
  -4.469877e+05   1.413554e+05
  -3.288375e+05  -1.616598e+05
  -3.053844e+04  -3.825640e+05
   2.258562e+05  -3.368482e+05
   2.889457e+05  -9.992564e+04
   1.722314e+05   9.129943e+04
   1.544220e+04   9.741485e+04
  -4.414004e+04   2.608597e+02
   1.258048e+04  -2.099796e+04
   8.373284e+04   9.527238e+04
   5.819192e+04   2.185725e+05
  -6.824650e+04   1.696240e+05
  -1.828234e+05  -6.530503e+04
  -1.580968e+05  -2.859873e+05
   2.203469e+04  -2.727111e+05
   2.207383e+05  -2.362406e+04
   2.488866e+05   2.373156e+05
   5.016389e+04   2.945827e+05
  -2.083641e+05   1.436901e+05
  -2.810859e+05  -5.303815e+04
  -1.113082e+05  -1.568251e+05
   9.011819e+04  -1.492662e+05
   8.789784e+04  -8.241880e+04
  -8.809430e+04  -1.634952e+04
  -1.784593e+05  -8.091430e+03
  -2.359989e+04  -8.042565e+04
   2.333477e+05  -1.634308e+05
   3.247636e+05  -1.304174e+05
   1.738850e+05   4.694060e+04
  -4.769392e+04   2.181664e+05
  -1.457332e+05   2.033811e+05
  -9.382307e+04   1.586569e+04
   8.671609e+03  -1.373820e+05
   7.782849e+04  -9.718089e+04
   9.134994e+04   6.711696e+04
   5.046417e+04   1.591407e+05
  -2.982999e+04   9.317172e+04
  -1.015117e+05  -2.981253e+04
  -1.114812e+05  -7.118709e+04
  -6.117788e+04  -1.842134e+04
  -5.116098e+03   2.481699e+04
   1.956672e+04  -1.952232e+04
   3.287206e+04  -1.074056e+05
   6.659165e+04  -1.228940e+05
   1.031407e+05  -1.360039e+04
   8.581998e+04   1.357306e+05
  -9.682932e+03   1.788729e+05
  -1.257473e+05   6.366780e+04
  -1.556260e+05  -1.032974e+05
  -4.330426e+04  -1.658288e+05
   1.365856e+05  -8.130080e+04
   2.194181e+05   5.027899e+04
   1.114771e+05   1.117050e+05
  -8.748531e+04   8.350995e+04
  -1.691826e+05   2.626995e+04
  -5.079822e+04  -4.822999e+03
   1.156385e+05   5.764862e+03
   1.154527e+05   4.878187e+04
  -6.898641e+04   8.688930e+04
  -2.323859e+05   5.407162e+04
