
 $NMID
 id='ANONYMOUS ', fmtdat='(2E16.6)'
 volume=1.0
 tramp=1.0
 $END
  -2.815336e+07  -2.019084e+05
  -1.820693e+07  -1.432924e+07
   1.050099e+06  -1.805851e+07
   1.255784e+07  -1.066845e+07
   9.689447e+06  -5.152741e+04
   6.303970e+04   4.947072e+06
  -5.516435e+06   1.796919e+06
  -3.618675e+06  -4.598156e+06
   1.736433e+06  -7.047753e+06
   5.176122e+06  -2.892489e+06
   4.327109e+06   3.556783e+06
   5.235056e+05   5.575817e+06
  -2.598155e+06   1.253174e+06
  -2.013776e+06  -4.446261e+06
   1.696693e+06  -5.231809e+06
   4.553252e+06  -2.633751e+05
   3.221059e+06   5.456696e+06
  -1.425287e+06   6.776651e+06
  -5.333561e+06   3.241412e+06
  -5.478788e+06  -1.534722e+06
  -2.527518e+06  -3.955378e+06
   2.954684e+05  -3.398340e+06
   4.720016e+05  -1.945283e+06
  -1.404498e+06  -1.887874e+06
  -2.171029e+06  -3.357534e+06
   5.193439e+05  -4.245370e+06
   5.085142e+06  -2.642546e+06
   7.077461e+06   7.805517e+05
   4.063452e+06   3.306651e+06
  -1.232174e+06   3.024877e+06
  -3.723072e+06   6.144502e+05
  -1.555338e+06  -1.638494e+06
   2.247273e+06  -1.906897e+06
   3.658989e+06   2.765399e+04
   1.881554e+06   2.685766e+06
  -7.186684e+05   3.702857e+06
  -1.750092e+06   1.841552e+06
  -9.344327e+05  -1.194593e+06
   3.256112e+05  -2.022748e+06
   5.493367e+05   3.932382e+05
  -5.801826e+05   2.954414e+06
  -1.922454e+06   2.077979e+06
  -1.811166e+06  -1.484539e+06
   1.964416e+05  -3.315832e+06
   2.423819e+06  -9.397477e+05
   2.429515e+06   3.026776e+06
  -4.172891e+05   4.157675e+06
  -3.902094e+06   1.347057e+06
  -4.830294e+06  -2.487724e+06
  -2.090698e+06  -4.006948e+06
   2.112898e+06  -2.503401e+06
   4.190623e+06   2.575757e+05
   2.540751e+06   2.005867e+06
  -9.184942e+05   1.655614e+06
  -2.739504e+06  -6.169098e+04
  -1.508495e+06  -1.297965e+06
   8.574147e+05  -8.668550e+05
   1.514621e+06   5.272538e+05
  -3.044473e+04   1.157397e+06
  -1.570132e+06   3.035745e+05
  -9.763449e+05  -1.036342e+06
   1.308221e+06  -1.393279e+06
   2.815635e+06  -2.445637e+05
   1.721598e+06   1.762871e+06
  -1.349804e+06   3.317777e+06
  -4.019115e+06   3.084836e+06
  -4.371508e+06   6.786592e+05
  -2.536909e+06  -2.537645e+06
  -2.920322e+05  -4.271250e+06
   7.810334e+05  -3.554547e+06
   6.984824e+05  -1.787985e+06
   6.594483e+05  -9.377271e+05
   1.435096e+06  -1.099901e+06
   2.464712e+06  -7.039719e+05
   2.565969e+06   9.906875e+05
   1.255204e+06   2.604358e+06
  -7.454854e+05   2.273236e+06
  -2.070281e+06  -1.879441e+04
  -1.692850e+06  -2.307498e+06
   2.678306e+05  -2.650693e+06
   2.414470e+06  -8.912455e+05
   3.039739e+06   1.449408e+06
   1.695870e+06   2.685882e+06
  -2.805450e+05   2.358367e+06
  -1.216512e+06   1.356037e+06
  -1.013149e+06   8.078310e+05
  -1.093477e+06   8.883524e+05
  -2.329142e+06   7.610393e+05
  -3.611340e+06  -3.486599e+05
  -3.017401e+06  -2.180333e+06
  -2.076892e+05  -3.562467e+06
   2.873914e+06  -3.392566e+06
   3.847184e+06  -1.562929e+06
   2.219004e+06   8.151272e+05
  -2.471172e+05   2.103627e+06
  -1.336924e+06   1.472132e+06
  -4.446107e+05  -2.010998e+05
   1.092446e+06  -1.067811e+06
   1.549620e+06  -2.889044e+05
   5.776042e+05   9.746787e+05
  -6.102240e+05   9.934182e+05
  -6.679490e+05  -2.859774e+05
   4.708119e+05  -1.067319e+06
   1.609825e+06   6.734753e+04
   1.487120e+06   2.308994e+06
  -1.302547e+05   3.425004e+06
  -2.273959e+06   2.165868e+06
  -3.456192e+06  -5.150235e+05
  -2.754362e+06  -2.539215e+06
  -6.452313e+05  -2.658177e+06
   1.226822e+06  -1.350871e+06
   1.493779e+06  -1.041180e+05
   4.378902e+05   4.041682e+04
  -3.348315e+05  -6.533497e+05
   2.459262e+05  -1.069418e+06
   1.459279e+06  -5.079374e+05
   1.696676e+06   5.673118e+05
   4.565745e+05   1.090938e+06
  -9.774492e+05   5.834309e+05
  -9.675510e+05  -3.699765e+05
   6.161807e+05  -7.577197e+05
   2.176137e+06  -9.830933e+04
   2.004702e+06   1.171784e+06
   2.828686e+04   2.047850e+06
  -2.079262e+06   1.728907e+06
  -2.511759e+06   3.403523e+05
  -1.066129e+06  -1.010870e+06
   7.289323e+05  -1.170113e+06
   1.185049e+06  -1.340783e+05
   7.807160e+04   8.522884e+05
  -1.299356e+06   6.263403e+05
  -1.549137e+06  -5.827216e+05
  -4.937021e+05  -1.440849e+06
   8.097497e+05  -1.059756e+06
   1.174075e+06   4.233399e+04
   3.910161e+05   6.189595e+05
  -6.002679e+05   9.370857e+04
  -6.184593e+05  -8.972004e+05
   5.458133e+05  -1.236804e+06
   1.795513e+06  -4.326372e+05
   1.780145e+06   9.502418e+05
   3.540846e+05   1.808184e+06
  -1.195606e+06   1.466391e+06
  -1.501182e+06   2.717189e+05
  -5.279827e+05  -7.290991e+05
   5.384792e+05  -7.703967e+05
   6.702405e+05  -6.381424e+04
  -9.703469e+03   5.114346e+05
  -5.844603e+05   3.898779e+05
  -4.178251e+05  -1.037725e+05
   2.375148e+05  -2.001172e+05
   5.576621e+05   3.747258e+05
  -1.630618e+04   1.018676e+06
  -1.161811e+06   8.545312e+05
  -1.855771e+06  -3.168593e+05
  -1.312681e+06  -1.704947e+06
   1.757972e+05  -2.205103e+06
   1.455888e+06  -1.417877e+06
   1.653852e+06  -1.277493e+04
   9.898009e+05   9.237364e+05
   3.591747e+05   9.022521e+05
   2.616060e+05   3.923351e+05
   3.603422e+05   1.994074e+05
   5.945119e+04   5.472923e+05
  -7.055287e+05   8.506330e+05
  -1.329379e+06   4.185791e+05
  -1.098601e+06  -6.684883e+05
   1.062421e+05  -1.478977e+06
   1.547692e+06  -1.104136e+06
   2.089589e+06   3.735801e+05
   1.138762e+06   1.836293e+06
  -7.244601e+05   2.117647e+06
  -2.149213e+06   1.061718e+06
  -2.192092e+06  -3.972769e+05
  -1.107616e+06  -1.181822e+06
   4.532609e+04  -1.052022e+06
   4.860132e+05  -6.494588e+05
   3.255704e+05  -6.543306e+05
   2.125635e+05  -1.011267e+06
   5.469997e+05  -1.037775e+06
   1.074511e+06  -2.548979e+05
   1.168422e+06   9.766036e+05
   4.912581e+05   1.707119e+06
  -5.725407e+05   1.294916e+06
  -1.171684e+06   4.143404e+04
  -7.853978e+05  -1.067692e+06
   2.132061e+05  -1.242206e+06
   8.930746e+05  -5.227062e+05
   7.146272e+05   3.882199e+05
   5.738670e+04   8.361295e+05
  -2.733318e+05   7.335184e+05
   8.737635e+03   4.554686e+05
   3.529263e+05   3.420670e+05
   3.199505e+04   3.610929e+05
  -9.573711e+05   2.236779e+05
  -1.753802e+06  -2.396140e+05
  -1.457049e+06  -8.477625e+05
  -1.009451e+05  -1.193677e+06
   1.271043e+06  -9.932278e+05
   1.588628e+06  -3.532681e+05
   7.979671e+05   2.716684e+05
  -1.638573e+05   4.345866e+05
  -4.138786e+05   1.019899e+05
   2.064767e+04  -2.771980e+05
   4.489532e+05  -2.033628e+05
   4.132296e+05   3.079266e+05
   1.081694e+05   6.820918e+05
  -2.651170e+04   4.377959e+05
   1.362361e+05  -1.700578e+05
   3.429597e+05  -3.696641e+05
   2.729225e+05   1.915560e+05
  -1.803855e+05   9.279661e+05
  -7.948181e+05   9.405817e+05
  -1.079560e+06   8.540661e+04
  -6.278530e+05  -8.213351e+05
   3.671348e+05  -9.121564e+05
   1.045970e+06  -1.920111e+05
   6.426888e+05   5.512236e+05
  -5.970059e+05   6.115780e+05
  -1.484848e+06  -9.673957e+03
  -1.073061e+06  -7.402825e+05
   3.118491e+05  -9.956390e+05
   1.382781e+06  -6.117443e+05
   1.224803e+06   7.568756e+04
   1.869007e+05   4.928944e+05
  -5.715585e+05   3.052146e+05
  -3.104708e+05  -2.257778e+05
   5.821692e+05  -4.159013e+05
   1.057349e+06   1.584139e+05
   5.011995e+05   1.111316e+06
  -6.575790e+05   1.494540e+06
  -1.402998e+06   7.220284e+05
  -1.133128e+06  -7.319544e+05
  -1.679895e+05  -1.656205e+06
   6.759025e+05  -1.242005e+06
   8.664957e+05   8.603467e+04
   4.730386e+05   1.076963e+06
  -1.012237e+05   9.421142e+05
  -4.840609e+05   1.205893e+05
  -4.975625e+05  -3.613750e+05
  -2.283126e+05  -1.520195e+05
  -1.456524e+04   1.120592e+05
  -1.437627e+05  -2.130984e+05
  -4.243695e+05  -8.574692e+05
  -2.704122e+05  -1.004042e+06
   5.435034e+05  -3.808831e+05
   1.363302e+06   4.264265e+05
   1.259438e+06   7.641139e+05
   1.810465e+05   6.185529e+05
  -8.560181e+05   3.727017e+05
  -9.280652e+05   1.961336e+05
  -2.648045e+05  -8.521705e+02
   1.632803e+05  -1.969648e+05
  -5.702963e+04  -2.337760e+05
  -3.371715e+05  -1.400599e+05
  -8.617415e+03  -1.268668e+05
   7.059113e+05  -1.741996e+05
   9.405458e+05   4.473818e+04
   2.502608e+05   6.144172e+05
  -8.629012e+05   1.007700e+06
  -1.486184e+06   6.079859e+05
  -1.162722e+06  -4.540133e+05
  -2.026391e+05  -1.296804e+06
   6.817613e+05  -1.214790e+06
   9.554599e+05  -4.184912e+05
   6.073609e+05   2.681884e+05
   7.923008e+04   3.248441e+05
  -1.437709e+05   4.120802e+03
   4.496939e+04  -7.782029e+04
   3.141986e+05   3.093737e+05
   2.559659e+05   7.372823e+05
  -1.869398e+05   5.966888e+05
  -6.356702e+05  -1.770504e+05
  -6.093136e+05  -9.306363e+05
   2.218264e+03  -9.276226e+05
   7.386601e+05  -1.330257e+05
   9.042698e+05   7.428372e+05
   2.494755e+05   9.878958e+05
  -6.675179e+05   5.448203e+05
  -9.727767e+05  -1.027186e+05
  -4.292492e+05  -5.021777e+05
   2.599897e+05  -5.357989e+05
   2.778251e+05  -3.136263e+05
  -3.009381e+05  -4.182972e+04
  -6.106209e+05   1.669040e+04
  -1.037213e+05  -2.658271e+05
   7.568801e+05  -6.196843e+05
   1.084542e+06  -5.378284e+05
   6.149825e+05   1.069184e+05
  -1.026698e+05   7.581593e+05
  -4.424602e+05   7.418619e+05
  -3.108976e+05   8.842419e+04
  -2.806590e+03  -4.668115e+05
   2.356095e+05  -3.512934e+05
   3.216112e+05   2.054374e+05
   2.138546e+05   5.296601e+05
  -7.002155e+04   3.248325e+05
  -3.513502e+05  -7.483186e+04
  -4.057550e+05  -2.120829e+05
  -2.190663e+05  -4.744846e+04
  -4.151626e+03   8.268093e+04
   7.515082e+04  -7.075719e+04
   8.865708e+04  -3.639564e+05
   1.851929e+05  -4.221555e+05
   3.336137e+05  -6.947518e+04
   3.199138e+05   4.298727e+05
   1.352317e+04   5.992478e+05
  -4.087425e+05   2.465946e+05
  -5.538969e+05  -3.064312e+05
  -1.883944e+05  -5.509574e+05
   4.446183e+05  -3.161820e+05
   7.598887e+05   1.093255e+05
   4.102451e+05   3.503020e+05
  -2.711226e+05   3.088578e+05
  -5.641074e+05   1.367438e+05
  -1.740639e+05   3.253593e+03
   3.894662e+05  -1.914167e+03
   3.978174e+05   1.395516e+05
  -2.181448e+05   3.071262e+05
  -7.788977e+05   2.331493e+05
