
 $NMID
 id='ANONYMOUS ', fmtdat='(2E16.6)'
 volume=1.0
 tramp=1.0
 $END
   4.698940e+07  -1.549047e+06
   2.994382e+07   2.682487e+07
  -3.915341e+06   3.170875e+07
  -2.219868e+07   1.454248e+07
  -1.474595e+07  -3.888711e+06
   1.723178e+06  -8.113513e+06
   8.586375e+06  -3.407816e+05
   3.618585e+06   8.014649e+06
  -4.358370e+06   9.082695e+06
  -8.219664e+06   2.785703e+06
  -6.399922e+06  -5.206024e+06
  -9.610577e+05  -7.752043e+06
   3.528388e+06  -2.372653e+06
   2.638068e+06   5.224915e+06
  -2.918323e+06   6.436276e+06
  -6.909959e+06  -5.034632e+05
  -4.418622e+06  -8.586634e+06
   2.672271e+06  -1.035621e+07
   8.428319e+06  -5.321489e+06
   9.111948e+06   1.650121e+06
   5.396417e+06   6.145472e+06
   5.752409e+05   6.791315e+06
  -1.805352e+06   4.715948e+06
  -4.993249e+05   2.624416e+06
   1.593869e+06   2.804931e+06
  -1.466450e+04   4.380673e+06
  -5.414570e+06   3.945316e+06
  -8.992203e+06   1.987307e+05
  -6.225032e+06  -3.784770e+06
   2.116725e+05  -4.408115e+06
   3.803607e+06  -1.940961e+06
   2.160275e+06   6.190576e+05
  -1.358981e+06   1.365004e+06
  -2.975161e+06   2.759884e+05
  -2.154118e+06  -2.033121e+06
  -1.658389e+05  -4.009088e+06
   1.778967e+06  -3.216286e+06
   2.390445e+06   4.730907e+05
   1.028028e+06   3.044208e+06
  -6.150646e+05   1.037455e+06
   2.288917e+04  -2.765674e+06
   2.321736e+06  -2.370789e+06
   2.407626e+06   2.568836e+06
  -1.399488e+06   5.332388e+06
  -5.320135e+06   1.277555e+06
  -4.433792e+06  -5.422058e+06
   1.100801e+06  -7.128561e+06
   6.203895e+06  -2.285863e+06
   6.505283e+06   3.662913e+06
   2.191511e+06   5.450312e+06
  -3.023225e+06   2.863290e+06
  -5.139680e+06  -9.463906e+05
  -2.712974e+06  -3.014742e+06
   1.835884e+06  -2.186042e+06
   4.039289e+06   4.632588e+05
   1.966082e+06   2.212681e+06
  -1.389627e+06   1.290202e+06
  -1.776068e+06  -8.315158e+05
   8.122447e+05  -1.145133e+06
   2.311825e+06   8.737278e+05
   1.912867e+05   2.632327e+06
  -3.372096e+06   1.952990e+06
  -4.571122e+06  -5.810352e+05
  -2.302622e+06  -3.175449e+06
   1.585585e+06  -4.727967e+06
   4.740508e+06  -4.416837e+06
   5.675853e+06  -1.500079e+06
   3.991068e+06   2.938212e+06
   8.474124e+05   5.648949e+06
  -1.397423e+06   4.567534e+06
  -1.415152e+06   1.598363e+06
  -4.515070e+05   2.309414e+05
  -6.042176e+05   1.020196e+06
  -1.996524e+06   1.397042e+06
  -2.807040e+06  -2.354386e+05
  -1.810558e+06  -2.274607e+06
   2.760728e+05  -2.300022e+06
   1.855837e+06  -1.339887e+05
   1.806979e+06   2.266441e+06
  -6.026946e+04   2.970046e+06
  -2.719734e+06   1.466456e+06
  -4.102434e+06  -1.265799e+06
  -2.815218e+06  -3.412759e+06
   3.541852e+04  -3.640384e+06
   1.867376e+06  -2.333490e+06
   1.804855e+06  -1.118237e+06
   1.612621e+06  -8.523801e+05
   2.839779e+06  -6.807247e+05
   4.288980e+06   5.529205e+05
   3.527105e+06   2.613762e+06
   2.383328e+05   4.114360e+06
  -3.180402e+06   3.945126e+06
  -4.226901e+06   2.059561e+06
  -2.614716e+06  -5.647346e+05
  -1.012134e+05  -2.284916e+06
   1.227018e+06  -1.859326e+06
   5.460391e+05   9.010547e+04
  -1.121487e+06   1.297252e+06
  -1.854426e+06   4.204821e+05
  -8.572312e+05  -1.149931e+06
   5.624731e+05  -1.141041e+06
   5.671951e+05   3.583016e+05
  -8.646460e+05   9.291704e+05
  -1.904175e+06  -7.981809e+05
  -1.123667e+06  -3.196103e+06
   1.012511e+06  -3.681533e+06
   2.969629e+06  -1.693671e+06
   3.610695e+06   1.101326e+06
   2.650311e+06   2.819509e+06
   5.877813e+05   2.782416e+06
  -1.289492e+06   1.513479e+06
  -1.630831e+06   2.092674e+05
  -5.014950e+05  -3.983902e+04
   3.829428e+05   7.454987e+05
  -3.361331e+05   1.312890e+06
  -1.815556e+06   6.246136e+05
  -2.034414e+06  -7.607499e+05
  -4.760073e+05  -1.356568e+06
   1.141725e+06  -6.357502e+05
   9.794552e+05   4.272255e+05
  -7.961709e+05   6.579439e+05
  -2.313063e+06  -1.418660e+05
  -1.969852e+06  -1.344435e+06
   1.278304e+05  -2.125036e+06
   2.328534e+06  -1.812996e+06
   2.825868e+06  -3.581304e+05
   1.252692e+06   1.214231e+06
  -8.615419e+05   1.471914e+06
  -1.492632e+06   2.134862e+05
  -1.877777e+05  -1.040168e+06
   1.498278e+06  -7.616788e+05
   1.764954e+06   7.155728e+05
   4.524493e+05   1.662277e+06
  -1.026464e+06   1.094448e+06
  -1.309728e+06  -1.946983e+05
  -3.418555e+05  -7.571817e+05
   7.519854e+05  -9.129301e+04
   7.415493e+05   1.029629e+06
  -5.728183e+05   1.427987e+06
  -2.020989e+06   5.544851e+05
  -2.060133e+06  -1.037564e+06
  -4.265418e+05  -2.079269e+06
   1.398729e+06  -1.691986e+06
   1.738085e+06  -2.775668e+05
   5.638322e+05   8.565620e+05
  -6.315747e+05   8.517334e+05
  -6.835536e+05   8.921836e+04
   7.636151e+04  -4.406881e+05
   5.536416e+05  -2.947248e+05
   2.448119e+05   8.875627e+04
  -3.964206e+05   3.612843e+04
  -5.743660e+05  -5.886042e+05
   1.284585e+05  -1.191783e+06
   1.361577e+06  -9.464026e+05
   2.113269e+06   3.713411e+05
   1.512535e+06   1.937289e+06
  -1.803484e+05   2.476703e+06
  -1.628643e+06   1.520471e+06
  -1.780307e+06  -5.750412e+04
  -9.730463e+05  -9.579278e+05
  -3.538420e+05  -7.949676e+05
  -4.122625e+05  -2.953263e+05
  -5.561747e+05  -2.728443e+05
  -9.124148e+04  -7.180564e+05
   8.512210e+05  -9.419948e+05
   1.482090e+06  -3.920180e+05
   1.133352e+06   7.377343e+05
  -1.965938e+05   1.555825e+06
  -1.739697e+06   1.163735e+06
  -2.317341e+06  -4.406790e+05
  -1.228988e+06  -2.098171e+06
   9.170057e+05  -2.415619e+06
   2.515154e+06  -1.141185e+06
   2.435513e+06   5.583652e+05
   1.093743e+06   1.344040e+06
  -1.432570e+05   1.050196e+06
  -4.495551e+05   5.987961e+05
  -1.740962e+05   7.512072e+05
  -1.324851e+05   1.260305e+06
  -6.377208e+05   1.271201e+06
  -1.272959e+06   3.311643e+05
  -1.360286e+06  -1.080093e+06
  -5.890501e+05  -1.918136e+06
   6.161143e+05  -1.470300e+06
   1.312773e+06  -3.456960e+04
   8.672859e+05   1.257292e+06
  -3.201594e+05   1.421182e+06
  -1.115446e+06   4.962827e+05
  -8.313803e+05  -5.987543e+05
   3.897061e+04  -1.043224e+06
   4.480191e+05  -8.176015e+05
   4.622388e+04  -4.597294e+05
  -4.284018e+05  -3.533612e+05
  -5.475115e+04  -3.960081e+05
   1.134922e+06  -2.424516e+05
   2.059192e+06   2.862840e+05
   1.659004e+06   9.967120e+05
   3.884726e+04   1.419144e+06
  -1.532804e+06   1.169576e+06
  -1.835370e+06   3.521705e+05
  -8.770245e+05  -4.195100e+05
   2.277880e+05  -5.512243e+05
   5.020276e+05  -7.053556e+04
   1.687792e+04   3.871908e+05
  -4.698469e+05   2.569194e+05
  -4.875357e+05  -3.424856e+05
  -2.183220e+05  -7.446122e+05
  -5.886362e+04  -4.877622e+05
  -1.458808e+05   1.312249e+05
  -3.176077e+05   3.404341e+05
  -2.895695e+05  -2.273350e+05
   1.555511e+05  -1.018737e+06
   8.933440e+05  -1.085616e+06
   1.320574e+06  -1.682456e+05
   8.224655e+05   9.152001e+05
  -4.021851e+05   1.118673e+06
  -1.239139e+06   3.172662e+05
  -7.474048e+05  -5.869275e+05
   6.927591e+05  -6.813018e+05
   1.641042e+06   4.714258e+04
   1.100925e+06   8.536257e+05
  -4.334865e+05   1.055993e+06
  -1.534454e+06   5.767548e+05
  -1.302509e+06  -1.419975e+05
  -1.687914e+05  -5.336727e+05
   6.520483e+05  -3.078446e+05
   3.819788e+05   2.770459e+05
  -6.068352e+05   5.184430e+05
  -1.200594e+06  -9.558413e+04
  -6.629015e+05  -1.208025e+06
   6.198236e+05  -1.727852e+06
   1.521608e+06  -8.976346e+05
   1.292441e+06   7.704573e+05
   2.286398e+05   1.838397e+06
  -7.390576e+05   1.357775e+06
  -9.579552e+05  -1.402219e+05
  -4.871841e+05  -1.209570e+06
   1.752180e+05  -1.015153e+06
   5.629374e+05  -1.097023e+05
   5.069943e+05   3.853319e+05
   1.966095e+05   1.474062e+05
   3.802742e+04  -1.078730e+05
   2.525132e+05   2.766423e+05
   5.230911e+05   9.715390e+05
   2.457999e+05   1.108399e+06
  -6.877026e+05   4.236533e+05
  -1.522860e+06  -4.535098e+05
  -1.354098e+06  -8.376415e+05
  -2.039489e+05  -7.058744e+05
   8.927697e+05  -4.385424e+05
   1.014547e+06  -2.115011e+05
   3.492783e+05   3.257034e+04
  -1.550243e+05   2.307870e+05
  -4.946260e+03   2.272299e+05
   3.018286e+05   1.104036e+05
   4.137235e+04   1.358381e+05
  -7.048265e+05   2.382245e+05
  -1.065997e+06  -4.015247e+03
  -4.099334e+05  -6.939530e+05
   8.693646e+05  -1.198879e+06
   1.705781e+06  -7.797348e+05
   1.413479e+06   4.340387e+05
   2.915239e+05   1.438372e+06
  -7.551396e+05   1.409074e+06
  -1.062857e+06   5.471696e+05
  -6.763616e+05  -2.427155e+05
  -1.303488e+05  -3.625535e+05
   9.356778e+04  -5.142176e+04
  -7.484401e+04   3.715584e+04
  -3.257856e+05  -3.635410e+05
  -2.765701e+05  -8.223299e+05
   1.766061e+05  -6.913493e+05
   7.022608e+05   1.294378e+05
   7.558415e+05   9.760841e+05
   1.088509e+05   1.048798e+06
  -7.792972e+05   2.424781e+05
  -1.061761e+06  -7.404369e+05
  -3.591173e+05  -1.106291e+06
   7.208239e+05  -6.870898e+05
   1.132741e+06   6.390426e+04
   5.408001e+05   6.003418e+05
  -2.792380e+05   6.764796e+05
  -3.617453e+05   3.782686e+05
   2.738463e+05   1.464338e+04
   6.686751e+05  -4.702610e+04
   1.479615e+05   3.082960e+05
  -8.329752e+05   7.108391e+05
  -1.262082e+06   5.897459e+05
  -7.631733e+05  -1.516323e+05
   8.516047e+04  -8.825810e+05
   5.322750e+05  -8.774526e+05
   4.118498e+05  -1.591269e+05
   5.200183e+04   4.967916e+05
  -2.404928e+05   4.382360e+05
  -3.627274e+05  -1.621015e+05
  -2.668663e+05  -5.865209e+05
   5.037465e+04  -4.216324e+05
   3.994429e+05   4.630941e+04
   4.859087e+05   2.662421e+05
   2.501408e+05   8.372475e+04
  -2.979351e+04  -1.387034e+05
  -8.669312e+04  -1.484721e+04
  -5.992124e+03   3.708901e+05
  -7.394655e+04   5.427803e+05
  -3.313691e+05   1.974813e+05
  -4.516651e+05  -3.986250e+05
  -1.415897e+05  -6.605243e+05
   4.199874e+05  -3.199598e+05
   6.723856e+05   2.845087e+05
   2.606316e+05   5.879982e+05
  -5.073320e+05   3.804159e+05
  -8.934988e+05  -6.833353e+04
  -4.917112e+05  -3.776784e+05
   2.923706e+05  -4.024251e+05
   6.442131e+05  -2.302148e+05
   2.432866e+05  -2.140679e+04
  -3.694907e+05   6.246669e+04
  -4.239927e+05  -7.586004e+04
   1.813833e+05  -3.107406e+05
   7.786105e+05  -2.891945e+05
