
 $NMID
 id='ANONYMOUS ', fmtdat='(2E16.6)'
 volume=1.0
 tramp=1.0
 $END
  -4.364193e+07  -1.449492e+06
  -2.605797e+07  -2.611504e+07
   5.233001e+06  -2.877016e+07
   2.099284e+07  -1.250217e+07
   1.333701e+07   3.855092e+06
  -1.834529e+06   7.278083e+06
  -7.869198e+06   1.514596e+05
  -3.136952e+06  -7.435387e+06
   4.232201e+06  -8.363818e+06
   7.681076e+06  -2.362829e+06
   5.739063e+06   5.202071e+06
   5.214828e+05   7.380905e+06
  -3.487359e+06   1.984920e+06
  -2.325944e+06  -5.201786e+06
   2.933634e+06  -6.048099e+06
   6.388860e+06   7.031434e+05
   3.752651e+06   8.190490e+06
  -2.943359e+06   9.525942e+06
  -8.123551e+06   4.501815e+06
  -8.382149e+06  -2.122246e+06
  -4.535153e+06  -6.090168e+06
   3.131334e+04  -6.228686e+06
   1.882364e+06  -4.020195e+06
   2.226266e+05  -2.301920e+06
  -1.726406e+06  -2.912269e+06
   2.148022e+05  -4.428006e+06
   5.579146e+06  -3.564800e+06
   8.741176e+06   3.584280e+05
   5.683785e+06   4.027740e+06
  -6.480498e+05   4.222468e+06
  -3.965902e+06   1.577893e+06
  -2.121108e+06  -9.347928e+05
   1.525490e+06  -1.532795e+06
   3.159020e+06  -2.239278e+05
   2.134518e+06   2.224830e+06
  -1.024616e+05   4.035379e+06
  -1.953065e+06   2.917307e+06
  -2.154671e+06  -7.903524e+05
  -6.028418e+05  -2.990396e+06
   7.578343e+05  -7.362102e+05
  -1.711272e+05   2.868721e+06
  -2.323533e+06   2.246638e+06
  -2.143114e+06  -2.460378e+06
   1.462778e+06  -4.813371e+06
   4.825165e+06  -8.414831e+05
   3.724065e+06   5.248923e+06
  -1.389517e+06   6.492825e+06
  -5.911508e+06   1.776539e+06
  -6.026127e+06  -3.732366e+06
  -1.943996e+06  -5.240915e+06
   2.943094e+06  -2.655549e+06
   4.887059e+06   1.003045e+06
   2.532364e+06   2.882559e+06
  -1.752997e+06   1.948876e+06
  -3.740955e+06  -5.922096e+05
  -1.742074e+06  -2.110382e+06
   1.357015e+06  -1.122310e+06
   1.679310e+06   8.325711e+05
  -6.863147e+05   1.053877e+06
  -2.041021e+06  -7.620692e+05
  -1.377800e+05  -2.253588e+06
   3.070018e+06  -1.591245e+06
   4.152358e+06   6.660334e+05
   2.007814e+06   3.003559e+06
  -1.757717e+06   4.422406e+06
  -4.818465e+06   4.025727e+06
  -5.546099e+06   1.122545e+06
  -3.629578e+06  -3.078069e+06
  -5.091006e+05  -5.461896e+06
   1.453830e+06  -4.296296e+06
   1.278283e+06  -1.550922e+06
   4.241082e+05  -3.942728e+05
   7.875029e+05  -1.117821e+06
   2.200889e+06  -1.272717e+06
   2.843024e+06   4.691449e+05
   1.690458e+06   2.440773e+06
  -4.239789e+05   2.338890e+06
  -1.922866e+06   8.026802e+04
  -1.746200e+06  -2.333300e+06
   1.926573e+05  -2.934271e+06
   2.751628e+06  -1.273984e+06
   3.900346e+06   1.483658e+06
   2.474450e+06   3.435738e+06
  -2.672044e+05   3.421345e+06
  -1.875484e+06   2.057461e+06
  -1.701928e+06   9.604581e+05
  -1.529785e+06   7.895343e+05
  -2.761183e+06   6.014158e+05
  -4.151162e+06  -6.565724e+05
  -3.356899e+06  -2.653015e+06
  -1.040771e+05  -4.034223e+06
   3.262998e+06  -3.769506e+06
   4.256614e+06  -1.855837e+06
   2.556969e+06   7.061062e+05
  -3.163768e+04   2.293175e+06
  -1.324422e+06   1.771662e+06
  -5.307298e+05  -1.369459e+05
   1.171462e+06  -1.229644e+06
   1.820421e+06  -3.251342e+05
   7.610606e+05   1.162685e+06
  -6.131745e+05   1.101451e+06
  -5.723905e+05  -3.552431e+05
   8.031157e+05  -9.069582e+05
   1.777579e+06   7.265823e+05
   1.059773e+06   3.026095e+06
  -9.368332e+05   3.546902e+06
  -2.835395e+06   1.676073e+06
  -3.522891e+06  -1.068758e+06
  -2.604679e+06  -2.814960e+06
  -5.385295e+05  -2.777290e+06
   1.324941e+06  -1.459632e+06
   1.622114e+06  -1.464300e+05
   4.889432e+05   5.430047e+04
  -3.504184e+05  -7.447562e+05
   3.718980e+05  -1.256135e+06
   1.778304e+06  -5.324211e+05
   1.940583e+06   8.015629e+05
   4.155092e+05   1.321569e+06
  -1.137929e+06   5.847717e+05
  -9.674633e+05  -4.466490e+05
   7.748203e+05  -6.540635e+05
   2.279733e+06   1.526627e+05
   1.947456e+06   1.355075e+06
  -1.470278e+05   2.106011e+06
  -2.334730e+06   1.737658e+06
  -2.784330e+06   2.724612e+05
  -1.176255e+06  -1.219819e+06
   8.968570e+05  -1.386864e+06
   1.447549e+06  -1.385718e+05
   1.251273e+05   1.021520e+06
  -1.495421e+06   6.881955e+05
  -1.702849e+06  -7.493710e+05
  -4.063639e+05  -1.630549e+06
   1.015149e+06  -1.048511e+06
   1.269109e+06   2.086320e+05
   3.191781e+05   7.376874e+05
  -7.343723e+05   6.041451e+04
  -6.916277e+05  -1.041100e+06
   6.181918e+05  -1.389779e+06
   2.013075e+06  -4.754758e+05
   1.989353e+06   1.091811e+06
   3.489614e+05   2.051288e+06
  -1.418525e+06   1.608595e+06
  -1.702012e+06   2.208942e+05
  -5.255996e+05  -8.487729e+05
   6.437127e+05  -8.149385e+05
   6.868093e+05  -6.470192e+04
  -7.129316e+04   4.530540e+05
  -5.653738e+05   3.066970e+05
  -2.819436e+05  -8.552804e+04
   3.556642e+05  -5.142499e+04
   5.483607e+05   5.609127e+05
  -1.422997e+05   1.154375e+06
  -1.356132e+06   8.928670e+05
  -2.063998e+06  -4.249134e+05
  -1.425065e+06  -1.948635e+06
   2.511479e+05  -2.431023e+06
   1.639977e+06  -1.459414e+06
   1.754753e+06   8.915087e+04
   9.574548e+05   9.694977e+05
   3.502048e+05   8.214457e+05
   3.895286e+05   3.336944e+05
   5.130271e+05   2.865710e+05
   6.159100e+04   6.938546e+05
  -8.502058e+05   9.036359e+05
  -1.466194e+06   3.627891e+05
  -1.116325e+06  -7.497301e+05
   2.133709e+05  -1.538874e+06
   1.738996e+06  -1.111787e+06
   2.272372e+06   4.928412e+05
   1.154598e+06   2.091149e+06
  -9.587462e+05   2.337068e+06
  -2.487083e+06   1.050306e+06
  -2.374401e+06  -5.998608e+05
  -1.058967e+06  -1.339550e+06
   1.468544e+05  -1.043244e+06
   4.653327e+05  -6.045748e+05
   2.251059e+05  -7.450195e+05
   1.928442e+05  -1.222287e+06
   6.675048e+05  -1.212114e+06
   1.253870e+06  -2.765850e+05
   1.299894e+06   1.107937e+06
   5.172596e+05   1.906264e+06
  -6.547058e+05   1.427102e+06
  -1.292191e+06  -3.039869e+03
  -8.147902e+05  -1.252178e+06
   3.452079e+05  -1.378662e+06
   1.087577e+06  -4.621839e+05
   7.850448e+05   5.891925e+05
  -5.916467e+04   1.001617e+06
  -4.422167e+05   7.828184e+05
  -4.680120e+04   4.544174e+05
   4.092890e+05   3.653846e+05
   4.191614e+04   3.935694e+05
  -1.112980e+06   2.049780e+05
  -2.003331e+06  -3.422736e+05
  -1.597384e+06  -1.022779e+06
  -2.871618e+03  -1.381035e+06
   1.529435e+06  -1.091031e+06
   1.803986e+06  -2.960454e+05
   8.452371e+05   4.196074e+05
  -2.369396e+05   5.231290e+05
  -4.870163e+05   5.990921e+04
   3.926025e+03  -3.713472e+05
   4.742668e+05  -2.373492e+05
   4.658215e+05   3.512657e+05
   1.810223e+05   7.468091e+05
   3.082100e+04   4.871805e+05
   1.436656e+05  -1.354450e+05
   3.284167e+05  -3.431400e+05
   2.832541e+05   2.284309e+05
  -1.851897e+05   1.006002e+06
  -9.119156e+05   1.040512e+06
  -1.294096e+06   1.112619e+05
  -7.668575e+05  -9.324879e+05
   4.348044e+05  -1.075995e+06
   1.224335e+06  -2.580991e+05
   7.165624e+05   6.041809e+05
  -6.960595e+05   6.495563e+05
  -1.613235e+06  -8.494300e+04
  -1.073042e+06  -8.596339e+05
   4.385254e+05  -1.030075e+06
   1.520517e+06  -5.419868e+05
   1.284464e+06   1.631223e+05
   1.582357e+05   5.299959e+05
  -6.467559e+05   2.882217e+05
  -3.612114e+05  -2.829807e+05
   6.227210e+05  -4.882761e+05
   1.181863e+06   1.418298e+05
   6.050410e+05   1.219501e+06
  -6.794051e+05   1.681269e+06
  -1.534571e+06   8.297120e+05
  -1.248732e+06  -8.026329e+05
  -1.683016e+05  -1.819193e+06
   7.655187e+05  -1.320839e+06
   9.377249e+05   1.574828e+05
   4.515013e+05   1.200914e+06
  -1.898911e+05   9.965744e+05
  -5.531880e+05   9.468945e+04
  -4.969635e+05  -3.936942e+05
  -1.993351e+05  -1.509427e+05
  -3.619352e+04   1.058683e+05
  -2.247970e+05  -2.797124e+05
  -4.789285e+05  -9.720810e+05
  -2.191568e+05  -1.096024e+06
   6.768371e+05  -3.925317e+05
   1.486947e+06   4.925287e+05
   1.317715e+06   8.612542e+05
   1.801838e+05   6.982439e+05
  -9.011929e+05   4.073284e+05
  -1.007155e+06   1.823018e+05
  -3.330673e+05  -4.026961e+04
   1.637125e+05  -2.223253e+05
  -1.314942e+03  -2.237542e+05
  -3.085027e+05  -1.195371e+05
  -3.294763e+04  -1.384687e+05
   7.156941e+05  -2.138131e+05
   1.050009e+06   4.184822e+04
   3.643049e+05   7.015800e+05
  -9.078104e+05   1.150252e+06
  -1.700011e+06   7.016949e+05
  -1.366446e+06  -4.843762e+05
  -2.378228e+05  -1.429138e+06
   7.867404e+05  -1.358803e+06
   1.067423e+06  -4.977734e+05
   6.633414e+05   2.663247e+05
   1.121366e+05   3.637746e+05
  -1.065094e+05   4.546270e+04
   6.804822e+04  -4.040261e+04
   3.132463e+05   3.630107e+05
   2.502710e+05   8.173181e+05
  -2.002624e+05   6.738849e+05
  -6.932202e+05  -1.573116e+05
  -7.088848e+05  -9.963172e+05
  -6.007824e+04  -1.040047e+06
   7.861177e+05  -2.054239e+05
   1.021706e+06   7.747429e+05
   3.104278e+05   1.103177e+06
  -7.369862e+05   6.460922e+05
  -1.109592e+06  -1.048320e+05
  -5.043538e+05  -6.043388e+05
   3.003859e+05  -6.477614e+05
   3.614909e+05  -3.550311e+05
  -2.797128e+05  -2.264148e+04
  -6.631553e+05   2.450929e+04
  -1.317666e+05  -3.077359e+05
   8.426736e+05  -6.740667e+05
   1.250541e+06  -5.432730e+05
   7.335411e+05   1.705834e+05
  -1.151988e+05   8.625364e+05
  -5.458032e+05   8.390595e+05
  -4.039533e+05   1.324900e+05
  -3.171283e+04  -4.967886e+05
   2.549063e+05  -4.193375e+05
   3.559727e+05   1.795707e+05
   2.424452e+05   5.871109e+05
  -6.900655e+04   4.066321e+05
  -3.929701e+05  -6.275627e+04
  -4.640247e+05  -2.734294e+05
  -2.410747e+05  -8.516923e+04
   1.755285e+04   1.327962e+05
   7.878707e+04   3.541509e+03
   2.780504e+04  -3.756500e+05
   1.117436e+05  -5.296232e+05
   3.447983e+05  -1.699698e+05
   4.243584e+05   4.225020e+05
   1.029337e+05   6.628722e+05
  -4.302622e+05   2.988939e+05
  -6.494988e+05  -3.104363e+05
  -2.344838e+05  -5.930964e+05
   5.100623e+05  -3.556589e+05
   8.742282e+05   1.029033e+05
   4.691924e+05   3.895711e+05
  -3.041374e+05   3.799368e+05
  -6.429527e+05   1.960638e+05
  -2.336724e+05   8.728275e+03
   3.786755e+05  -4.590148e+04
   4.226995e+05   9.723829e+04
  -1.945979e+05   3.090470e+05
  -7.894264e+05   2.638132e+05
