
 $NMID
 id='ANONYMOUS ', fmtdat='(2E16.6)'
 volume=1.0
 tramp=1.0
 $END
   3.450869e+07   1.639537e+06
   2.103423e+07   1.935052e+07
  -3.068328e+06   2.223012e+07
  -1.613755e+07   1.137013e+07
  -1.125925e+07  -1.421611e+06
   6.870950e+05  -5.907620e+06
   6.569532e+06  -1.243247e+06
   3.533465e+06   5.802781e+06
  -2.775970e+06   7.792120e+06
  -6.300913e+06   2.738627e+06
  -4.898716e+06  -4.420522e+06
  -3.724864e+05  -6.491526e+06
   3.095416e+06  -1.462647e+06
   2.132929e+06   5.024620e+06
  -2.300997e+06   5.747984e+06
  -5.362994e+06  -1.535652e+05
  -3.386081e+06  -6.693610e+06
   2.189604e+06  -7.935470e+06
   6.599893e+06  -3.611616e+06
   6.628514e+06   2.018150e+06
   3.124513e+06   4.957213e+06
  -4.050958e+05   4.452570e+06
  -1.031577e+06   2.619355e+06
   9.637104e+05   2.093814e+06
   2.135913e+06   3.463235e+06
  -5.450769e+05   4.577710e+06
  -5.645502e+06   2.979996e+06
  -8.038238e+06  -8.984848e+05
  -4.723850e+06  -3.880023e+06
   1.247598e+06  -3.587231e+06
   4.098725e+06  -8.651467e+05
   1.825997e+06   1.591769e+06
  -2.205726e+06   1.908762e+06
  -3.758976e+06  -7.563118e+03
  -2.034750e+06  -2.771151e+06
   6.781665e+05  -4.046152e+06
   2.001013e+06  -2.228465e+06
   1.342637e+06   1.223682e+06
  -1.493787e+05   2.471144e+06
  -6.792432e+05  -1.035473e+05
   5.496406e+05  -3.126177e+06
   2.208673e+06  -2.211484e+06
   1.964080e+06   1.919363e+06
  -6.955712e+05   3.931414e+06
  -3.304805e+06   8.469449e+05
  -2.842338e+06  -3.969077e+06
   8.819467e+05  -5.078312e+06
   4.787043e+06  -1.423669e+06
   5.411933e+06   3.144620e+06
   2.067685e+06   4.665608e+06
  -2.551983e+06   2.644688e+06
  -4.642288e+06  -5.988809e+05
  -2.630603e+06  -2.449668e+06
   1.277840e+06  -1.809001e+06
   3.201705e+06   3.127445e+05
   1.620524e+06   1.669034e+06
  -1.092918e+06   9.700657e+05
  -1.643326e+06  -6.910217e+05
   2.490494e+05  -1.185255e+06
   1.785910e+06   3.891734e+04
   7.331119e+05   1.460103e+06
  -1.945796e+06   1.461332e+06
  -3.364853e+06  -1.078033e+05
  -1.840677e+06  -2.284474e+06
   1.656646e+06  -3.813316e+06
   4.602020e+06  -3.452857e+06
   5.025579e+06  -7.286942e+05
   2.954025e+06   2.946675e+06
   2.491229e+05   4.912255e+06
  -1.127915e+06   3.963711e+06
  -9.425149e+05   1.794057e+06
  -6.281937e+05   8.268312e+05
  -1.352558e+06   1.171363e+06
  -2.577597e+06   8.856660e+05
  -2.816803e+06  -9.555758e+05
  -1.424870e+06  -2.767325e+06
   7.464163e+05  -2.443006e+06
   2.170587e+06   2.395145e+04
   1.778024e+06   2.503336e+06
  -3.244786e+05   2.908347e+06
  -2.704198e+06   1.005097e+06
  -3.462468e+06  -1.642554e+06
  -1.955674e+06  -3.140441e+06
   3.782798e+05  -2.817280e+06
   1.538037e+06  -1.601059e+06
   1.298953e+06  -8.594082e+05
   1.303620e+06  -8.810449e+05
   2.614633e+06  -7.072581e+05
   3.985976e+06   5.450169e+05
   3.255566e+06   2.527540e+06
   1.094151e+05   3.933529e+06
  -3.249434e+06   3.658038e+06
  -4.257549e+06   1.664547e+06
  -2.453794e+06  -8.914242e+05
   2.457029e+05  -2.301734e+06
   1.462533e+06  -1.631837e+06
   5.013145e+05   2.095421e+05
  -1.214152e+06   1.165359e+06
  -1.742105e+06   2.802086e+05
  -6.457760e+05  -1.114541e+06
   6.783047e+05  -1.082219e+06
   6.815198e+05   3.351302e+05
  -6.129704e+05   1.074825e+06
  -1.743488e+06  -2.965045e+05
  -1.392969e+06  -2.682419e+06
   4.440467e+05  -3.655662e+06
   2.610533e+06  -2.102450e+06
   3.670493e+06   7.788466e+05
   2.831300e+06   2.833117e+06
   6.020592e+05   2.874693e+06
  -1.364335e+06   1.443061e+06
  -1.632546e+06   8.895023e+04
  -4.798117e+05  -5.831012e+04
   3.476864e+05   7.304746e+05
  -3.243874e+05   1.187935e+06
  -1.660860e+06   5.123274e+05
  -1.864751e+06  -7.145523e+05
  -4.480487e+05  -1.242123e+06
   1.102142e+06  -6.033634e+05
   1.026778e+06   4.335724e+05
  -7.093283e+05   7.632654e+05
  -2.341258e+06  -8.492270e+03
  -2.092634e+06  -1.335396e+06
   5.959700e+04  -2.193951e+06
   2.322396e+06  -1.798064e+06
   2.760787e+06  -2.857664e+05
   1.142190e+06   1.164237e+06
  -8.568842e+05   1.292458e+06
  -1.344651e+06   1.121873e+05
  -7.616428e+04  -9.634204e+05
   1.457131e+06  -6.565215e+05
   1.681161e+06   7.044217e+05
   4.674172e+05   1.599695e+06
  -9.447474e+05   1.106172e+06
  -1.276190e+06  -1.192993e+05
  -3.826627e+05  -7.028301e+05
   6.800513e+05  -7.940284e+04
   6.624502e+05   1.008955e+06
  -6.266911e+05   1.350385e+06
  -1.984025e+06   4.352199e+05
  -1.935529e+06  -1.092400e+06
  -3.342930e+05  -2.004258e+06
   1.372177e+06  -1.574410e+06
   1.663330e+06  -2.380400e+05
   5.448187e+05   8.252554e+05
  -6.221981e+05   8.232731e+05
  -7.237962e+05   5.535841e+04
   3.258474e+04  -5.282744e+05
   6.207446e+05  -3.844001e+05
   4.063528e+05   1.064248e+05
  -2.829206e+05   1.621988e+05
  -5.766473e+05  -4.607937e+05
   7.625580e+04  -1.117769e+06
   1.309110e+06  -8.930176e+05
   2.026878e+06   4.091488e+05
   1.391036e+06   1.914107e+06
  -2.586046e+05   2.408701e+06
  -1.633800e+06   1.488962e+06
  -1.788448e+06  -5.168149e+04
  -1.024572e+06  -1.017011e+06
  -3.630433e+05  -9.456403e+05
  -3.079758e+05  -4.096814e+05
  -4.199664e+05  -2.472092e+05
  -4.856015e+04  -6.235035e+05
   8.093969e+05  -9.011050e+05
   1.458336e+06  -4.001435e+05
   1.157736e+06   7.548537e+05
  -1.732799e+05   1.585219e+06
  -1.722567e+06   1.142782e+06
  -2.266861e+06  -4.765439e+05
  -1.176250e+06  -2.051268e+06
   8.847362e+05  -2.299234e+06
   2.406949e+06  -1.077808e+06
   2.375461e+06   5.289921e+05
   1.139661e+06   1.325480e+06
  -9.740800e+04   1.115554e+06
  -5.236634e+05   6.704619e+05
  -3.341038e+05   7.192727e+05
  -2.471052e+05   1.133875e+06
  -6.426478e+05   1.141416e+06
  -1.201739e+06   2.518804e+05
  -1.260024e+06  -1.104622e+06
  -4.923567e+05  -1.886566e+06
   6.626289e+05  -1.404743e+06
   1.283306e+06  -5.896926e+03
   8.202926e+05   1.206198e+06
  -2.922642e+05   1.355201e+06
  -1.015452e+06   5.181210e+05
  -7.688310e+05  -4.855575e+05
  -8.189132e+03  -9.357161e+05
   3.539001e+05  -7.865986e+05
   1.551842e+04  -4.846359e+05
  -3.834404e+05  -3.793463e+05
  -2.834042e+04  -3.939431e+05
   1.066973e+06  -2.098587e+05
   1.930555e+06   3.246640e+05
   1.571291e+06   9.845253e+05
   5.306846e+04   1.324634e+06
  -1.448760e+06   1.054984e+06
  -1.760041e+06   3.238273e+05
  -8.556828e+05  -3.479075e+05
   2.056504e+05  -4.825679e+05
   4.622516e+05  -8.695875e+04
  -2.607930e+04   3.205637e+05
  -4.909599e+05   2.150627e+05
  -4.470320e+05  -3.504782e+05
  -1.189217e+05  -7.486895e+05
   2.303660e+04  -4.811911e+05
  -1.496092e+05   1.683473e+05
  -3.676893e+05   3.805561e+05
  -2.883254e+05  -2.184172e+05
   2.137878e+05  -1.005416e+06
   8.994262e+05  -1.011399e+06
   1.211004e+06  -7.235082e+04
   6.881520e+05   9.213826e+05
  -4.318613e+05   1.008211e+06
  -1.169076e+06   1.971410e+05
  -6.925995e+05  -6.173151e+05
   6.774092e+05  -6.476881e+05
   1.616471e+06   6.494652e+04
   1.125940e+06   8.442123e+05
  -3.886866e+05   1.061429e+06
  -1.523229e+06   6.015039e+05
  -1.318949e+06  -1.310195e+05
  -1.805834e+05  -5.390893e+05
   6.362709e+05  -3.079139e+05
   3.396892e+05   2.637007e+05
  -6.417223e+05   4.507911e+05
  -1.158859e+06  -1.885507e+05
  -5.376491e+05  -1.227301e+06
   7.425405e+05  -1.630682e+06
   1.549729e+06  -7.669928e+05
   1.223008e+06   8.263776e+05
   1.408504e+05   1.814280e+06
  -7.729137e+05   1.330001e+06
  -9.401739e+05  -1.305670e+05
  -4.739623e+05  -1.191555e+06
   1.521703e+05  -1.015981e+06
   5.367499e+05  -1.106598e+05
   5.226655e+05   4.042808e+05
   2.329927e+05   1.660184e+05
   2.384235e+04  -1.172433e+05
   1.696165e+05   2.497976e+05
   4.473920e+05   9.558498e+05
   2.518354e+05   1.101039e+06
  -6.241305e+05   3.956019e+05
  -1.477563e+06  -5.040187e+05
  -1.341245e+06  -8.690524e+05
  -1.782390e+05  -6.848638e+05
   9.338804e+05  -3.877562e+05
   1.015142e+06  -1.844244e+05
   2.999301e+05   1.840219e+04
  -1.792737e+05   2.135893e+05
   4.078615e+04   2.467038e+05
   3.494717e+05   1.499856e+05
   1.324674e+04   1.387691e+05
  -7.598578e+05   1.815821e+05
  -1.032033e+06  -6.854432e+04
  -2.831556e+05  -6.863495e+05
   9.567429e+05  -1.094495e+06
   1.657738e+06  -6.383925e+05
   1.284919e+06   5.210187e+05
   1.956774e+05   1.423883e+06
  -7.836077e+05   1.318161e+06
  -1.059345e+06   4.456998e+05
  -6.574150e+05  -2.990227e+05
  -8.615615e+04  -3.591066e+05
   1.440689e+05  -1.329795e+04
  -5.501137e+04   7.157070e+04
  -3.275254e+05  -3.508803e+05
  -2.549205e+05  -8.134092e+05
   2.168553e+05  -6.535720e+05
   6.905994e+05   1.977397e+05
   6.563365e+05   1.025402e+06
  -7.339829e+03   1.021306e+06
  -8.052228e+05   1.448885e+05
  -9.800489e+05  -8.225837e+05
  -2.593914e+05  -1.091349e+06
   7.441791e+05  -5.929399e+05
   1.072231e+06   1.331471e+05
   4.657226e+05   5.733792e+05
  -3.012733e+05   5.954299e+05
  -3.260491e+05   3.386381e+05
   3.147364e+05   4.575830e+04
   6.658532e+05  -6.005635e+03
   1.116725e+05   2.974769e+05
  -8.447220e+05   6.581507e+05
  -1.213196e+06   5.492768e+05
  -6.844815e+05  -1.464600e+05
   1.309925e+05  -8.345781e+05
   5.173307e+05  -8.062365e+05
   3.592367e+05  -9.775571e+04
   2.038357e+02   5.066442e+05
  -2.652105e+05   3.875722e+05
  -3.483821e+05  -2.197521e+05
  -2.235201e+05  -5.855332e+05
   8.284816e+04  -3.670034e+05
   3.847350e+05   8.484131e+04
   4.429536e+05   2.524555e+05
   2.378721e+05   6.583928e+04
   1.221619e+03  -1.019564e+05
  -8.127495e+04   5.393281e+04
  -8.621099e+04   3.907732e+05
  -1.889365e+05   4.766947e+05
  -3.623738e+05   9.370512e+04
  -3.603187e+05  -4.654913e+05
  -2.444045e+04  -6.583519e+05
   4.480290e+05  -2.680029e+05
   6.099370e+05   3.414826e+05
   2.009224e+05   6.038676e+05
  -4.992450e+05   3.372715e+05
  -8.391770e+05  -1.330804e+05
  -4.453993e+05  -3.940668e+05
   3.060469e+05  -3.423003e+05
   6.271608e+05  -1.483409e+05
   2.018765e+05   4.719961e+01
  -4.137189e+05   5.900660e+03
  -4.291406e+05  -1.465476e+05
   2.330222e+05  -3.242002e+05
   8.395292e+05  -2.403373e+05
