
 $NMID
 id='ANONYMOUS ', fmtdat='(2E16.6)'
 volume=1.0
 tramp=1.0
 $END
  -3.162256e+07  -1.850422e+06
  -1.888880e+07  -1.813628e+07
   3.254076e+06  -2.033380e+07
   1.487641e+07  -9.991344e+06
   1.009647e+07   1.603763e+06
  -7.688546e+05   5.318006e+06
  -5.880589e+06   9.284975e+05
  -3.008811e+06  -5.276952e+06
   2.620643e+06  -6.881240e+06
   5.699385e+06  -2.329734e+06
   4.411362e+06   4.019554e+06
   3.373604e+05   5.850836e+06
  -2.792144e+06   1.355646e+06
  -1.909025e+06  -4.454569e+06
   2.110166e+06  -5.086979e+06
   4.839672e+06   2.418034e+05
   2.981131e+06   6.119230e+06
  -2.095459e+06   7.194715e+06
  -6.074842e+06   3.252224e+06
  -6.090202e+06  -1.873524e+06
  -2.893185e+06  -4.593980e+06
   3.931983e+05  -4.175527e+06
   1.074401e+06  -2.447920e+06
  -7.127120e+05  -1.828074e+06
  -1.875698e+06  -2.988935e+06
   4.345348e+05  -4.054040e+06
   5.014995e+06  -2.713284e+06
   7.219727e+06   7.526057e+05
   4.290913e+06   3.477763e+06
  -1.047882e+06   3.266986e+06
  -3.629098e+06   8.600337e+05
  -1.678231e+06  -1.338394e+06
   1.849939e+06  -1.681317e+06
   3.273040e+06  -5.873032e+04
   1.859806e+06   2.394008e+06
  -5.115686e+05   3.622699e+06
  -1.794976e+06   2.073319e+06
  -1.314465e+06  -1.061827e+06
   6.151953e+04  -2.282162e+06
   6.531369e+05  -1.574830e+03
  -4.248914e+05   2.759134e+06
  -1.970835e+06   1.962788e+06
  -1.738908e+06  -1.761993e+06
   7.421411e+05  -3.537880e+06
   3.097383e+06  -6.728534e+05
   2.551213e+06   3.701584e+06
  -9.126117e+05   4.630109e+06
  -4.385953e+06   1.245173e+06
  -4.833622e+06  -2.879229e+06
  -1.793823e+06  -4.188939e+06
   2.295325e+06  -2.327623e+06
   4.116447e+06   5.774724e+05
   2.309873e+06   2.202062e+06
  -1.173432e+06   1.593015e+06
  -2.875233e+06  -3.232410e+05
  -1.435833e+06  -1.519685e+06
   9.941084e+05  -8.609119e+05
   1.452856e+06   6.201043e+05
  -2.535000e+05   1.006408e+06
  -1.567262e+06  -1.224394e+05
  -5.428862e+05  -1.341270e+06
   1.855065e+06  -1.249251e+06
   3.044168e+06   1.932574e+05
   1.618227e+06   2.113199e+06
  -1.508015e+06   3.453710e+06
  -4.133551e+06   3.129219e+06
  -4.537870e+06   6.741857e+05
  -2.697334e+06  -2.657574e+06
  -2.361384e+05  -4.430460e+06
   1.040720e+06  -3.540092e+06
   8.566362e+05  -1.555932e+06
   5.160180e+05  -7.034519e+05
   1.137333e+06  -1.062801e+06
   2.261253e+06  -8.454192e+05
   2.521216e+06   7.914168e+05
   1.311668e+06   2.421268e+06
  -6.106546e+05   2.164527e+06
  -1.892710e+06   8.060193e+03
  -1.581726e+06  -2.187350e+06
   2.653430e+05  -2.582678e+06
   2.409445e+06  -9.243671e+05
   3.129898e+06   1.451464e+06
   1.786917e+06   2.840591e+06
  -3.465609e+05   2.576038e+06
  -1.425166e+06   1.461003e+06
  -1.205955e+06   7.574850e+05
  -1.178306e+06   7.605327e+05
  -2.328807e+06   6.080098e+05
  -3.547746e+06  -5.022253e+05
  -2.894719e+06  -2.256585e+06
  -9.558538e+04  -3.495949e+06
   2.883399e+06  -3.256897e+06
   3.779403e+06  -1.504259e+06
   2.194711e+06   7.665233e+05
  -1.881555e+05   2.046754e+06
  -1.278956e+06   1.472310e+06
  -4.474498e+05  -1.732746e+05
   1.069122e+06  -1.040130e+06
   1.547763e+06  -2.534153e+05
   5.841585e+05   9.926601e+05
  -5.851897e+05   9.620975e+05
  -5.835686e+05  -2.896866e+05
   5.539157e+05  -9.170689e+05
   1.521081e+06   3.165624e+05
   1.178818e+06   2.397111e+06
  -4.381929e+05   3.198963e+06
  -2.313152e+06   1.804378e+06
  -3.223569e+06  -7.095492e+05
  -2.490200e+06  -2.490648e+06
  -5.359218e+05  -2.531555e+06
   1.203487e+06  -1.286560e+06
   1.448237e+06  -9.131677e+04
   4.272786e+05   4.943616e+04
  -3.067494e+05  -6.468299e+05
   2.950464e+05  -1.054525e+06
   1.481675e+06  -4.504518e+05
   1.652204e+06   6.412463e+05
   3.897496e+05   1.100161e+06
  -9.736551e+05   5.263959e+05
  -8.953316e+05  -3.808066e+05
   6.334633e+05  -6.557040e+05
   2.058879e+06   2.328837e+04
   1.834942e+06   1.176493e+06
  -5.707725e+04   1.927310e+06
  -2.052638e+06   1.587223e+06
  -2.446197e+06   2.558326e+05
  -1.015124e+06  -1.034791e+06
   7.639557e+05  -1.153514e+06
   1.201399e+06  -1.008800e+05
   7.121270e+04   8.589913e+05
  -1.293374e+06   5.833249e+05
  -1.487744e+06  -6.264167e+05
  -4.079905e+05  -1.412999e+06
   8.365312e+05  -9.682739e+05
   1.120142e+06   1.123360e+05
   3.283103e+05   6.172205e+05
  -6.055011e+05   6.001688e+04
  -5.845242e+05  -9.009642e+05
   5.594251e+05  -1.200412e+06
   1.764368e+06  -3.878457e+05
   1.721748e+06   9.696543e+05
   2.977510e+05   1.780766e+06
  -1.219088e+06   1.398027e+06
  -1.474787e+06   2.119784e+05
  -4.804510e+05  -7.271192e+05
   5.488934e+05  -7.246745e+05
   6.325706e+05  -5.394424e+04
  -3.206566e+04   4.527510e+05
  -5.386701e+05   3.305136e+05
  -3.432168e+05  -8.641660e+04
   2.569985e+05  -1.250989e+05
   5.038476e+05   4.217307e+05
  -7.828792e+04   9.939450e+05
  -1.167404e+06   7.902059e+05
  -1.801163e+06  -3.658170e+05
  -1.237127e+06  -1.701871e+06
   2.254036e+05  -2.138322e+06
   1.443013e+06  -1.318358e+06
   1.578484e+06   4.413810e+04
   9.064805e+05   8.879304e+05
   3.322684e+05   8.205132e+05
   2.905908e+05   3.590866e+05
   3.829813e+05   2.318164e+05
   4.104619e+04   5.658678e+05
  -7.240892e+05   8.002264e+05
  -1.295096e+06   3.508796e+05
  -1.024878e+06  -6.675727e+05
   1.550504e+05  -1.399655e+06
   1.528535e+06  -1.010103e+06
   2.010454e+06   4.233454e+05
   1.038358e+06   1.820319e+06
  -7.941694e+05   2.037394e+06
  -2.139426e+06   9.486009e+05
  -2.099738e+06  -4.738177e+05
  -1.000035e+06  -1.167892e+06
   8.601465e+04  -9.751790e+05
   4.507775e+05  -5.903907e+05
   2.821661e+05  -6.490575e+05
   2.155691e+05  -1.020690e+06
   5.753447e+05  -1.020065e+06
   1.072858e+06  -2.246577e+05
   1.122961e+06   9.799550e+05
   4.407738e+05   1.674724e+06
  -5.851805e+05   1.248484e+06
  -1.136556e+06   4.859541e+03
  -7.236953e+05  -1.073257e+06
   2.659136e+05  -1.200121e+06
   9.044373e+05  -4.471039e+05
   6.762850e+05   4.450258e+05
  -5.941478e+03   8.331820e+05
  -3.247184e+05   6.896836e+05
  -1.455969e+04   4.223412e+05
   3.462941e+05   3.362043e+05
   2.802920e+04   3.513283e+05
  -9.525548e+05   1.837189e+05
  -1.721535e+06  -2.937558e+05
  -1.394356e+06  -8.780391e+05
  -3.636794e+04  -1.177119e+06
   1.296606e+06  -9.350476e+05
   1.562152e+06  -2.824075e+05
   7.508364e+05   3.159453e+05
  -1.892978e+05   4.315246e+05
  -4.113061e+05   7.204202e+04
   2.261892e+04  -2.944651e+05
   4.340408e+05  -1.977542e+05
   4.005086e+05   3.109471e+05
   1.169357e+05   6.686536e+05
  -1.178602e+04   4.317612e+05
   1.294141e+05  -1.457624e+05
   3.176946e+05  -3.350320e+05
   2.549192e+05   1.965052e+05
  -1.848791e+05   8.958120e+05
  -8.017673e+05   9.007947e+05
  -1.089721e+06   6.336722e+04
  -6.219067e+05  -8.245802e+05
   3.877255e+05  -9.041490e+05
   1.049554e+06  -1.812561e+05
   6.200761e+05   5.458895e+05
  -6.019116e+05   5.745243e+05
  -1.431088e+06  -5.664179e+04
  -9.910381e+05  -7.442152e+05
   3.471540e+05  -9.334573e+05
   1.343872e+06  -5.276465e+05
   1.161528e+06   1.158319e+05
   1.584127e+05   4.741701e+05
  -5.628227e+05   2.697283e+05
  -3.022379e+05  -2.378234e+05
   5.686264e+05  -4.071415e+05
   1.034335e+06   1.605870e+05
   4.890584e+05   1.091196e+06
  -6.497110e+05   1.459375e+06
  -1.374829e+06   6.937267e+05
  -1.091644e+06  -7.282540e+05
  -1.324547e+05  -1.610781e+06
   6.805209e+05  -1.179636e+06
   8.308871e+05   1.179533e+05
   4.177112e+05   1.054782e+06
  -1.376498e+05   8.940943e+05
  -4.767893e+05   9.449380e+04
  -4.605609e+05  -3.538550e+05
  -2.024808e+05  -1.414803e+05
  -2.146474e+04   1.010730e+05
  -1.562420e+05  -2.304904e+05
  -4.013538e+05  -8.511081e+05
  -2.207192e+05  -9.710382e+05
   5.598329e+05  -3.464705e+05
   1.312634e+06   4.426884e+05
   1.187419e+06   7.642794e+05
   1.584156e+05   6.091315e+05
  -8.237011e+05   3.515484e+05
  -8.979626e+05   1.657150e+05
  -2.691237e+05  -2.204368e+04
   1.564558e+05  -1.922830e+05
  -3.301240e+04  -2.117998e+05
  -3.062893e+05  -1.245720e+05
  -1.444646e+04  -1.249806e+05
   6.694929e+05  -1.708937e+05
   9.196266e+05   5.673573e+04
   2.630500e+05   6.172212e+05
  -8.431157e+05   9.843538e+05
  -1.479768e+06   5.747379e+05
  -1.155492e+06  -4.608983e+05
  -1.820969e+05  -1.266160e+06
   6.964609e+05  -1.175626e+06
   9.442534e+05  -4.038093e+05
   5.868100e+05   2.598742e+05
   8.005114e+04   3.212679e+05
  -1.249655e+05   2.011452e+04
   4.795265e+04  -5.760558e+04
   2.874454e+05   3.111272e+05
   2.258214e+05   7.203816e+05
  -1.903976e+05   5.835597e+05
  -6.158744e+05  -1.683668e+05
  -5.936632e+05  -9.074200e+05
  -4.089851e+03  -9.135288e+05
   7.154665e+05  -1.408790e+05
   8.806190e+05   7.232782e+05
   2.387628e+05   9.729957e+05
  -6.620850e+05   5.357052e+05
  -9.587823e+05  -1.151889e+05
  -4.166862e+05  -5.157478e+05
   2.708660e+05  -5.362141e+05
   2.953725e+05  -2.995404e+05
  -2.759100e+05  -3.292630e+04
  -5.915427e+05   9.602573e+03
  -1.017834e+05  -2.669127e+05
   7.483430e+05  -5.874067e+05
   1.079111e+06  -4.847176e+05
   6.121987e+05   1.364855e+05
  -1.144470e+05   7.454073e+05
  -4.641850e+05   7.179560e+05
  -3.282803e+05   8.869657e+04
  -6.967472e+03  -4.503528e+05
   2.356380e+05  -3.498886e+05
   3.140359e+05   1.885510e+05
   2.019654e+05   5.204378e+05
  -7.415065e+04   3.327417e+05
  -3.442553e+05  -7.176001e+04
  -3.942932e+05  -2.279028e+05
  -2.097406e+05  -6.108973e+04
  -8.709504e+02   9.676254e+04
   6.636598e+04  -3.933314e+04
   6.531155e+04  -3.492898e+05
   1.593066e+05  -4.378167e+05
   3.249992e+05  -9.712807e+04
   3.339335e+05   4.108474e+05
   3.463912e+04   5.911221e+05
  -3.966151e+05   2.447382e+05
  -5.501054e+05  -3.003089e+05
  -1.852633e+05  -5.362245e+05
   4.452087e+05  -3.016685e+05
   7.519898e+05   1.149375e+05
   3.994363e+05   3.497843e+05
  -2.735459e+05   3.097779e+05
  -5.619943e+05   1.386317e+05
  -1.845850e+05  -9.331559e+02
   3.645263e+05  -1.520726e+04
   3.837850e+05   1.207261e+05
  -1.985188e+05   2.886412e+05
  -7.376902e+05   2.226380e+05
