
 $NMID
 id='ANONYMOUS ', fmtdat='(2E16.6)'
 volume=1.0
 tramp=1.0
 $END
  -2.078745e+07   4.256314e+05
  -1.436650e+07  -9.039286e+06
  -6.867485e+05  -1.308857e+07
   8.680002e+06  -9.483134e+06
   7.839038e+06  -1.555475e+06
   8.218072e+05   3.823230e+06
  -4.327003e+06   2.354004e+06
  -3.633934e+06  -3.267101e+06
   6.707111e+05  -6.183404e+06
   3.947002e+06  -2.965525e+06
   3.588814e+06   2.717322e+06
   5.348088e+05   4.594084e+06
  -2.105807e+06   9.386446e+05
  -1.800453e+06  -3.892925e+06
   1.122264e+06  -4.640022e+06
   3.621440e+06  -6.282587e+05
   2.869308e+06   4.130233e+06
  -7.612673e+05   5.396366e+06
  -3.998555e+06   2.621923e+06
  -4.108467e+06  -1.206110e+06
  -1.663758e+06  -2.926020e+06
   3.478604e+05  -2.156160e+06
  -1.012200e+05  -1.084505e+06
  -1.932180e+06  -1.654481e+06
  -2.201749e+06  -3.344746e+06
   6.060484e+05  -3.930702e+06
   4.599461e+06  -2.149688e+06
   6.046748e+06   8.706850e+05
   3.242848e+06   2.820969e+06
  -1.349707e+06   2.396145e+06
  -3.395709e+06   2.310094e+05
  -1.245639e+06  -1.792395e+06
   2.389571e+06  -1.928738e+06
   3.637735e+06   1.252797e+05
   1.684979e+06   2.711256e+06
  -8.988339e+05   3.377922e+06
  -1.569504e+06   1.350227e+06
  -4.332102e+05  -1.260724e+06
   6.365037e+05  -1.537207e+06
   4.277988e+05   7.904027e+05
  -7.015231e+05   2.814715e+06
  -1.666506e+06   1.901346e+06
  -1.600330e+06  -1.030610e+06
  -3.064626e+05  -2.577781e+06
   1.387753e+06  -9.462034e+05
   1.826012e+06   2.008062e+06
  -1.119302e+04   3.052488e+06
  -2.924973e+06   1.125271e+06
  -4.117478e+06  -1.871576e+06
  -2.037947e+06  -3.321525e+06
   1.678132e+06  -2.316267e+06
   3.701167e+06  -4.639300e+04
   2.419983e+06   1.564948e+06
  -5.382677e+05   1.467555e+06
  -2.214239e+06   1.600682e+05
  -1.355540e+06  -9.130980e+05
   6.102757e+05  -7.298417e+05
   1.373864e+06   3.764305e+05
   2.242367e+05   1.137260e+06
  -1.314563e+06   6.960376e+05
  -1.252640e+06  -5.242345e+05
   5.709094e+05  -1.255616e+06
   2.169255e+06  -5.838436e+05
   1.530567e+06   1.199820e+06
  -1.118089e+06   2.726280e+06
  -3.495703e+06   2.568540e+06
  -3.688452e+06   4.831950e+05
  -1.993129e+06  -2.186503e+06
  -2.082442e+05  -3.588859e+06
   4.774180e+05  -3.091366e+06
   4.499590e+05  -1.789816e+06
   7.256312e+05  -1.088495e+06
   1.602635e+06  -1.019519e+06
   2.416927e+06  -4.416176e+05
   2.307327e+06   1.128739e+06
   1.019545e+06   2.510358e+06
  -8.177761e+05   2.115007e+06
  -2.002841e+06  -5.269366e+04
  -1.578156e+06  -2.162002e+06
   2.741900e+05  -2.393349e+06
   2.146649e+06  -7.034558e+05
   2.549147e+06   1.346194e+06
   1.319473e+06   2.250452e+06
  -2.601867e+05   1.832910e+06
  -8.999912e+05   1.026390e+06
  -7.030653e+05   7.118309e+05
  -8.730562e+05   8.774964e+05
  -2.038696e+06   7.778548e+05
  -3.208903e+06  -2.145285e+05
  -2.724089e+06  -1.881676e+06
  -2.366334e+05  -3.185893e+06
   2.566101e+06  -3.061024e+06
   3.475954e+06  -1.368433e+06
   1.966540e+06   8.039062e+05
  -3.105498e+05   1.910311e+06
  -1.260322e+06   1.280251e+06
  -3.859992e+05  -2.074229e+05
   9.959853e+05  -9.463083e+05
   1.356815e+06  -2.654403e+05
   4.803493e+05   8.438491e+05
  -5.668133e+05   8.982318e+05
  -6.626968e+05  -2.395764e+05
   3.183416e+05  -1.065376e+06
   1.456249e+06  -1.824184e+05
   1.566353e+06   1.914915e+06
   1.795019e+05   3.193149e+06
  -1.941262e+06   2.230192e+06
  -3.244022e+06  -2.811225e+05
  -2.659127e+06  -2.296464e+06
  -6.488491e+05  -2.465609e+06
   1.122117e+06  -1.235738e+06
   1.362941e+06  -8.502842e+04
   3.956594e+05   3.196531e+04
  -3.100943e+05  -5.802373e+05
   1.820902e+05  -9.375457e+05
   1.254208e+06  -4.728467e+05
   1.509735e+06   4.414743e+05
   4.506415e+05   9.381377e+05
  -8.560503e+05   5.494153e+05
  -9.081915e+05  -3.170423e+05
   5.239955e+05  -7.486615e+05
   2.013800e+06  -1.824751e+05
   1.910975e+06   1.038552e+06
   9.110900e+04   1.910065e+06
  -1.866270e+06   1.628725e+06
  -2.268945e+06   3.496017e+05
  -9.684021e+05  -8.732153e+05
   6.206982e+05  -1.024763e+06
   1.018997e+06  -1.296889e+05
   5.898777e+04   7.377543e+05
  -1.149564e+06   5.689956e+05
  -1.404397e+06  -4.843535e+05
  -5.017384e+05  -1.287081e+06
   6.837153e+05  -1.005741e+06
   1.070885e+06  -2.615477e+04
   3.975501e+05   5.351800e+05
  -5.119542e+05   9.828686e+04
  -5.517029e+05  -7.917761e+05
   4.899850e+05  -1.106429e+06
   1.612291e+06  -3.897714e+05
   1.600961e+06   8.436580e+05
   3.373745e+05   1.614966e+06
  -1.043098e+06   1.332665e+06
  -1.342024e+06   2.795853e+05
  -5.024072e+05  -6.399600e+05
   4.646414e+05  -7.100897e+05
   6.231435e+05  -6.276408e+04
   1.280583e+04   4.998286e+05
  -5.569697e+05   3.949892e+05
  -4.412059e+05  -1.056124e+05
   1.832814e+05  -2.415589e+05
   5.297467e+05   2.880188e+05
   2.895796e+04   9.124261e+05
  -1.026200e+06   7.912882e+05
  -1.674050e+06  -2.601432e+05
  -1.196917e+06  -1.519054e+06
   1.367986e+05  -1.998067e+06
   1.304602e+06  -1.324636e+06
   1.524585e+06  -5.155198e+04
   9.492480e+05   8.547405e+05
   3.450550e+05   8.826697e+05
   2.005685e+05   3.936982e+05
   2.831311e+05   1.582358e+05
   5.352094e+04   4.648861e+05
  -6.155208e+05   7.840687e+05
  -1.207073e+06   4.133154e+05
  -1.030768e+06  -6.045725e+05
   6.286331e+04  -1.375179e+06
   1.392110e+06  -1.037862e+06
   1.904574e+06   3.097994e+05
   1.067979e+06   1.637871e+06
  -5.967245e+05   1.915611e+06
  -1.901877e+06   1.006140e+06
  -2.000665e+06  -2.980666e+05
  -1.064225e+06  -1.054962e+06
   3.858208e+03  -9.954965e+05
   4.657004e+05  -6.303044e+05
   3.443629e+05  -5.851988e+05
   2.077353e+05  -8.772304e+05
   4.713298e+05  -9.152896e+05
   9.476170e+05  -2.327311e+05
   1.054351e+06   8.726356e+05
   4.546785e+05   1.536851e+06
  -5.088874e+05   1.173106e+06
  -1.060020e+06   5.620971e+04
  -7.296876e+05  -9.384351e+05
   1.519590e+05  -1.120928e+06
   7.694677e+05  -5.148372e+05
   6.467094e+05   2.922981e+05
   9.631636e+04   7.267624e+05
  -1.951427e+05   6.721061e+05
   3.009120e+04   4.295613e+05
   3.132824e+05   3.155767e+05
   2.632941e+04   3.301656e+05
  -8.470631e+05   2.172149e+05
  -1.563453e+06  -1.901553e+05
  -1.322484e+06  -7.356198e+05
  -1.303696e+05  -1.055310e+06
   1.104156e+06  -8.996211e+05
   1.418388e+06  -3.550123e+05
   7.339255e+05   2.005595e+05
  -1.285587e+05   3.770887e+05
  -3.634034e+05   1.112891e+05
   2.658711e+04  -2.288305e+05
   4.156221e+05  -1.814192e+05
   3.719042e+05   2.750199e+05
   7.628159e+04   6.222996e+05
  -4.563070e+04   3.965421e+05
   1.257885e+05  -1.735511e+05
   3.285438e+05  -3.586326e+05
   2.528574e+05   1.690349e+05
  -1.698997e+05   8.487256e+05
  -7.087025e+05   8.497843e+05
  -9.409933e+05   6.783330e+04
  -5.410329e+05  -7.365875e+05
   3.233718e+05  -8.006139e+05
   9.236020e+05  -1.559807e+05
   5.805518e+05   5.012378e+05
  -5.268851e+05   5.637038e+05
  -1.354494e+06   1.982249e+04
  -1.013306e+06  -6.533147e+05
   2.466784e+05  -9.266726e+05
   1.253019e+06  -6.040559e+05
   1.133267e+06   3.787683e+04
   1.874691e+05   4.507887e+05
  -5.105308e+05   2.942333e+05
  -2.733645e+05  -1.920624e+05
   5.352038e+05  -3.661546e+05
   9.529870e+05   1.557142e+05
   4.356807e+05   1.010411e+06
  -6.127127e+05   1.344313e+06
  -1.277140e+06   6.438694e+05
  -1.028759e+06  -6.646001e+05
  -1.598957e+05  -1.504332e+06
   6.039169e+05  -1.144212e+06
   7.909473e+05   5.446758e+04
   4.544865e+05   9.699178e+05
  -6.205959e+04   8.674822e+05
  -4.307152e+05   1.225039e+05
  -4.698687e+05  -3.281178e+05
  -2.262602e+05  -1.423906e+05
  -5.108001e+03   1.077683e+05
  -1.049752e+05  -1.781966e+05
  -3.806422e+05  -7.674663e+05
  -2.752230e+05  -9.121675e+05
   4.633855e+05  -3.539605e+05
   1.242006e+06   3.771475e+05
   1.168165e+06   6.837641e+05
   1.711090e+05   5.547519e+05
  -7.918372e+05   3.409401e+05
  -8.467125e+05   1.910892e+05
  -2.243144e+05   1.266723e+04
   1.537225e+05  -1.773982e+05
  -7.531457e+04  -2.233647e+05
  -3.293759e+05  -1.384795e+05
   1.277755e+03  -1.160478e+05
   6.636015e+05  -1.514797e+05
   8.480551e+05   4.332174e+04
   1.942515e+05   5.502177e+05
  -7.986454e+05   9.009467e+05
  -1.325635e+06   5.393283e+05
  -1.024331e+06  -4.190788e+05
  -1.791617e+05  -1.176684e+06
   6.056516e+05  -1.093953e+06
   8.621639e+05  -3.658695e+05
   5.535241e+05   2.538446e+05
   6.234064e+04   2.929367e+05
  -1.504140e+05  -1.016670e+04
   3.299792e+04  -8.669572e+04
   2.964523e+05   2.716569e+05
   2.437667e+05   6.657106e+05
  -1.715415e+05   5.349635e+05
  -5.797032e+05  -1.739200e+05
  -5.399873e+05  -8.549480e+05
   2.453803e+04  -8.361367e+05
   6.813442e+05  -1.004005e+05
   8.125866e+05   6.897677e+05
   2.135835e+05   8.915753e+05
  -6.059087e+05   4.778479e+05
  -8.688840e+05  -9.681955e+04
  -3.766073e+05  -4.375264e+05
   2.321494e+05  -4.645531e+05
   2.317040e+05  -2.793862e+05
  -2.929095e+05  -4.494238e+04
  -5.577652e+05   1.330277e+04
  -8.749083e+04  -2.362496e+05
   6.827807e+05  -5.655787e+05
   9.619202e+05  -5.052225e+05
   5.362760e+05   7.863305e+04
  -9.244560e+04   6.778428e+05
  -3.801783e+05   6.639613e+05
  -2.605489e+05   6.604917e+04
   7.178327e+03  -4.307087e+05
   2.161819e+05  -3.071932e+05
   2.925472e+05   2.033668e+05
   1.917189e+05   4.792983e+05
  -6.752426e+04   2.771377e+05
  -3.170828e+05  -7.494762e+04
  -3.610395e+05  -1.779501e+05
  -1.981448e+05  -3.088096e+04
  -1.289625e+04   6.024993e+04
   6.758857e+04  -9.412136e+04
   1.050829e+05  -3.411583e+05
   2.029822e+05  -3.618129e+05
   3.132204e+05  -2.976414e+04
   2.655561e+05   4.101887e+05
  -1.958005e+04   5.448876e+05
  -3.787469e+05   2.145081e+05
  -4.890288e+05  -2.886802e+05
  -1.616245e+05  -5.055386e+05
   3.960646e+05  -2.838591e+05
   6.762924e+05   1.061307e+05
   3.659660e+05   3.166061e+05
  -2.446555e+05   2.657144e+05
  -5.048507e+05   1.074225e+05
  -1.428626e+05   3.091754e+02
   3.725568e+05   1.272330e+04
   3.680004e+05   1.463988e+05
  -2.135345e+05   2.904866e+05
  -7.315913e+05   2.112067e+05
