
 $NMID
 id='ANONYMOUS ', fmtdat='(2E16.6)'
 volume=1.0
 tramp=1.0
 $END
   3.894896e+03   4.270337e+00
   2.444838e+03   2.135147e+03
  -2.793769e+02   2.471278e+03
  -1.671681e+03   1.194925e+03
  -1.018380e+03  -1.224947e+02
   2.339356e+02  -3.677265e+02
   6.027234e+02   2.368106e+02
   3.665554e+01   7.933065e+02
  -6.296166e+02   7.026411e+02
  -8.078520e+02   2.354974e+01
  -4.716096e+02  -6.845558e+02
   8.948536e+01  -7.918984e+02
   4.575179e+02  -1.740406e+02
   3.210918e+02   5.641159e+02
  -1.823605e+02   6.639840e+02
  -5.142925e+02   5.331457e+01
  -3.115355e+02  -5.975010e+02
   2.103731e+02  -6.726692e+02
   5.469842e+02  -2.239626e+02
   4.529935e+02   2.568226e+02
   9.700854e+01   4.167869e+02
  -1.770552e+02   2.714846e+02
  -1.332355e+02   6.118567e+01
   1.651080e+02   3.123562e+01
   3.453018e+02   2.292680e+02
   6.938115e+01   4.121421e+02
  -4.963402e+02   2.732921e+02
  -7.424657e+02  -1.538897e+02
  -3.213037e+02  -4.604592e+02
   3.707163e+02  -3.288063e+02
   6.323020e+02   1.012790e+02
   2.653216e+02   4.343982e+02
  -2.871380e+02   4.408920e+02
  -5.294066e+02   1.671618e+02
  -3.820700e+02  -1.970082e+02
  -8.545827e+01  -3.973823e+02
   1.001944e+02  -2.380688e+02
   4.441194e+01   1.461409e+02
  -1.843376e+02   2.815817e+02
  -3.139155e+02  -9.987065e+01
  -1.095558e+02  -6.008231e+02
   2.929415e+02  -5.763668e+02
   4.614966e+02  -3.245111e+00
   1.869587e+02   4.320473e+02
  -2.167028e+02   2.233432e+02
  -2.717593e+02  -3.088272e+02
   1.012599e+02  -4.776971e+02
   5.174223e+02  -9.312862e+01
   5.608144e+02   4.096216e+02
   1.699355e+02   5.642178e+02
  -3.514877e+02   3.174427e+02
  -5.962178e+02  -7.122102e+01
  -3.773082e+02  -3.215100e+02
   9.168143e+01  -2.988635e+02
   3.701263e+02  -7.917178e+01
   2.429584e+02   9.806343e+01
  -4.163794e+01   6.006669e+01
  -9.184935e+01  -9.303952e+01
   1.307186e+02  -1.152101e+02
   2.911415e+02   6.003941e+01
   1.407979e+02   2.483447e+02
  -1.824275e+02   2.679249e+02
  -3.610799e+02   1.199806e+02
  -2.552967e+02  -9.951234e+01
   2.527482e+01  -3.030303e+02
   2.854210e+02  -3.730033e+02
   3.800650e+02  -1.935978e+02
   2.721041e+02   1.630433e+02
   6.394078e+01   4.132232e+02
  -7.009943e+01   3.654089e+02
  -6.350303e+01   1.600468e+02
  -3.299036e+01   6.597629e+01
  -1.093347e+02   1.112744e+02
  -2.443062e+02   8.758202e+01
  -2.710269e+02  -1.017676e+02
  -1.229134e+02  -2.792652e+02
   9.246746e+01  -2.301401e+02
   2.173998e+02   2.378833e+01
   1.675938e+02   2.585865e+02
  -3.683128e+01   2.830219e+02
  -2.699257e+02   8.694843e+01
  -3.474778e+02  -1.821461e+02
  -1.858336e+02  -3.384391e+02
   7.407893e+01  -2.987230e+02
   2.016622e+02  -1.507898e+02
   1.584940e+02  -5.522183e+01
   1.386708e+02  -5.919557e+01
   2.782495e+02  -4.961871e+01
   4.323499e+02   8.763095e+01
   3.439038e+02   3.123929e+02
  -1.891998e+01   4.667031e+02
  -3.980934e+02   4.262478e+02
  -5.129015e+02   1.935394e+02
  -3.236498e+02  -1.049093e+02
  -3.343235e+01  -2.838000e+02
   1.145207e+02  -2.312177e+02
   4.012339e+01  -3.657427e+01
  -1.221549e+02   6.892047e+01
  -1.643958e+02  -2.815663e+01
  -2.473182e+01  -1.722166e+02
   1.423225e+02  -1.373329e+02
   1.436755e+02   5.949192e+01
  -2.643391e+01   1.636870e+02
  -1.845409e+02   1.230850e+01
  -1.648709e+02  -2.551879e+02
   2.693701e+01  -3.660686e+02
   2.533821e+02  -2.142523e+02
   3.676768e+02   6.711063e+01
   2.950624e+02   2.710373e+02
   7.644890e+01   2.882644e+02
  -1.319419e+02   1.563847e+02
  -1.709756e+02   1.121736e+01
  -4.632770e+01  -2.222716e+01
   6.136555e+01   5.693377e+01
   8.127780e+00   1.255695e+02
  -1.325535e+02   8.295945e+01
  -1.683598e+02  -2.410029e+01
  -4.325781e+01  -6.570005e+01
   8.689206e+01   2.737097e+00
   4.700595e+01   9.200193e+01
  -1.491566e+02   9.256966e+01
  -3.134040e+02  -1.660427e+01
  -2.749718e+02  -1.711132e+02
  -4.033017e+01  -2.769069e+02
   2.133144e+02  -2.579739e+02
   2.919211e+02  -1.125324e+02
   1.584795e+02   5.180099e+01
  -3.037329e+01   9.503756e+01
  -7.861578e+01  -6.500332e-01
   4.940297e+01  -9.327133e+01
   2.010145e+02  -4.418625e+01
   2.088352e+02   1.110055e+02
   6.348058e+01   2.075679e+02
  -9.719654e+01   1.520651e+02
  -1.402009e+02   2.170575e+01
  -5.794540e+01  -4.100324e+01
   3.981194e+01   1.371216e+01
   3.249619e+01   1.072057e+02
  -9.436345e+01   1.234926e+02
  -2.197348e+02   1.847241e+01
  -1.964947e+02  -1.399263e+02
  -1.413807e+01  -2.253383e+02
   1.699105e+02  -1.641582e+02
   1.927518e+02  -9.061963e+00
   6.189150e+01   1.082876e+02
  -6.789727e+01   1.068590e+02
  -7.943625e+01   2.802083e+01
  -7.423933e+00  -2.696355e+01
   3.401920e+01  -1.289631e+01
  -9.700230e+00   2.091360e+01
  -8.773502e+01  -1.935862e+00
  -1.055270e+02  -9.419999e+01
  -1.263394e+01  -1.806741e+02
   1.463853e+02  -1.622409e+02
   2.519052e+02  -1.537092e+01
   2.070738e+02   1.664431e+02
   4.007192e+01   2.460991e+02
  -1.111580e+02   1.727795e+02
  -1.397755e+02   3.101266e+01
  -7.704051e+01  -5.126783e+01
  -3.395661e+01  -3.337629e+01
  -5.837998e+01   1.434964e+01
  -9.046291e+01   7.022462e+00
  -5.472637e+01  -5.839269e+01
   4.351365e+01  -1.064045e+02
   1.235291e+02  -6.754523e+01
   1.062129e+02   4.434328e+01
  -1.741393e+01   1.312968e+02
  -1.666651e+02   9.398433e+01
  -2.156893e+02  -6.545405e+01
  -9.486628e+01  -2.228887e+02
   1.272123e+02  -2.375825e+02
   2.845045e+02  -9.047921e+01
   2.637040e+02   9.562873e+01
   1.078150e+02   1.826987e+02
  -4.277226e+01   1.494761e+02
  -9.639868e+01   8.589042e+01
  -7.757304e+01   7.373534e+01
  -6.516853e+01   9.890944e+01
  -9.689719e+01   8.239940e+01
  -1.385664e+02  -2.100631e+01
  -1.255169e+02  -1.637538e+02
  -2.844137e+01  -2.397170e+02
   1.065703e+02  -1.783307e+02
   1.825140e+02  -1.455606e+01
   1.370897e+02   1.336466e+02
   1.258514e+01   1.670314e+02
  -7.765499e+01   8.940955e+01
  -6.569681e+01  -1.024026e+01
   1.248719e+00  -5.319873e+01
   2.290531e+01  -3.765229e+01
  -3.203047e+01  -1.496239e+01
  -8.784533e+01  -2.084072e+01
  -5.121779e+01  -4.212266e+01
   7.460069e+01  -4.116542e+01
   1.789944e+02   9.978868e-01
   1.526234e+02   6.379344e+01
   4.448362e+00   1.007628e+02
  -1.382817e+02   7.767556e+01
  -1.543251e+02   7.909019e+00
  -4.824877e+01  -5.036227e+01
   6.383083e+01  -4.422527e+01
   8.214186e+01   1.967829e+01
   1.624639e+01   7.651497e+01
  -5.229914e+01   6.722975e+01
  -7.110670e+01   1.011537e+00
  -5.670983e+01  -5.371600e+01
  -4.935448e+01  -4.566794e+01
  -6.076327e+01  -2.222468e+00
  -6.931899e+01  -1.171108e+00
  -4.393649e+01  -7.543649e+01
   3.084995e+01  -1.597527e+02
   1.305339e+02  -1.530174e+02
   1.862632e+02  -3.507398e+01
   1.360215e+02   9.966327e+01
   3.449220e+00   1.390052e+02
  -9.627264e+01   7.082611e+01
  -6.534225e+01  -1.284898e+01
   6.196685e+01  -2.160558e+01
   1.428731e+02   4.485340e+01
   7.623114e+01   1.130694e+02
  -8.786310e+01   1.163529e+02
  -2.008443e+02   4.868081e+01
  -1.675541e+02  -4.135126e+01
  -3.434806e+01  -9.069965e+01
   6.707228e+01  -6.752599e+01
   5.160768e+01  -1.451397e+00
  -4.212485e+01   3.152253e+01
  -9.759731e+01  -2.158451e+01
  -4.015832e+01  -1.234667e+02
   8.762410e+01  -1.647641e+02
   1.700458e+02  -7.237630e+01
   1.342096e+02   9.939475e+01
   1.561141e+01   2.050961e+02
  -8.782356e+01   1.498937e+02
  -1.101554e+02  -1.058538e+01
  -5.995188e+01  -1.264990e+02
   1.022735e+01  -1.099481e+02
   5.270389e+01  -1.730972e+01
   5.019997e+01   3.383658e+01
   2.087641e+01   8.244810e+00
   5.603163e+00  -1.956214e+01
   2.882501e+01   2.040764e+01
   6.039966e+01   9.476437e+01
   3.723956e+01   1.125643e+02
  -5.609251e+01   4.574309e+01
  -1.443659e+02  -4.009642e+01
  -1.322123e+02  -7.387466e+01
  -1.917409e+01  -5.511430e+01
   8.761471e+01  -2.618457e+01
   9.204186e+01  -6.706310e+00
   1.618867e+01   1.083692e+01
  -3.776444e+01   2.299441e+01
  -1.877042e+01   1.534977e+01
   1.788753e+01  -3.369224e+00
  -4.003194e+00  -7.075524e+00
  -7.300271e+01  -4.195921e-01
  -9.793450e+01  -2.342465e+01
  -1.874039e+01  -8.541655e+01
   1.169546e+02  -1.240268e+02
   1.979775e+02  -6.829798e+01
   1.581500e+02   6.433619e+01
   3.259046e+01   1.692342e+02
  -8.405036e+01   1.626518e+02
  -1.224040e+02   6.752046e+01
  -8.531325e+01  -2.075709e+01
  -2.760240e+01  -3.924455e+01
  -8.107259e-01  -1.237810e+01
  -1.345684e+01  -7.443481e+00
  -3.305109e+01  -5.074176e+01
  -2.070596e+01  -9.594500e+01
   3.071680e+01  -7.596687e+01
   8.387669e+01   1.670089e+01
   8.404204e+01   1.093057e+02
   1.225968e+01   1.172442e+02
  -8.146733e+01   3.157694e+01
  -1.111956e+02  -7.154738e+01
  -4.029781e+01  -1.089021e+02
   6.811462e+01  -6.551041e+01
   1.079172e+02   8.960849e+00
   4.644859e+01   5.867975e+01
  -3.548953e+01   6.206511e+01
  -3.938409e+01   3.073885e+01
   3.023927e+01  -4.579557e+00
   7.252268e+01  -9.053213e+00
   1.840156e+01   2.801404e+01
  -8.290300e+01   6.977234e+01
  -1.258724e+02   5.854927e+01
  -7.290456e+01  -1.593846e+01
   1.465890e+01  -8.933835e+01
   5.928052e+01  -8.693864e+01
   4.485726e+01  -1.141865e+01
   6.011266e+00   5.640699e+01
  -2.541318e+01   4.933883e+01
  -3.884292e+01  -1.334388e+01
  -2.982945e+01  -5.676941e+01
   1.238125e+00  -3.975177e+01
   3.522167e+01   6.280062e+00
   4.375434e+01   2.516876e+01
   2.197799e+01   3.783591e+00
  -3.151392e+00  -1.908545e+01
  -7.151682e+00  -5.080082e+00
   7.715597e-01   3.522387e+01
  -6.072945e+00   5.301058e+01
  -3.008232e+01   1.857049e+01
  -3.988816e+01  -4.002700e+01
  -8.993659e+00  -6.346088e+01
   4.385845e+01  -2.575723e+01
   6.443725e+01   3.658583e+01
   1.943982e+01   6.457935e+01
  -5.926906e+01   3.780642e+01
  -9.723860e+01  -1.280445e+01
  -5.348762e+01  -4.568789e+01
   3.002644e+01  -4.677195e+01
   6.874992e+01  -2.794698e+01
   2.900662e+01  -6.834306e+00
  -3.294508e+01   1.863519e+00
  -3.685826e+01  -9.656093e+00
   2.686355e+01  -2.891268e+01
   8.692921e+01  -2.228891e+01
