
 $NMID
 id='ANONYMOUS ', fmtdat='(2E16.6)'
 volume=1.0
 tramp=1.0
 $END
  -4.053921e+03  -2.463347e+00
  -2.344654e+03  -2.438923e+03
   7.004976e+02  -2.548556e+03
   1.961287e+03  -8.029530e+02
   8.566262e+02   6.213783e+02
  -6.308995e+02   5.244951e+02
  -8.265630e+02  -4.230610e+02
   2.187156e+01  -9.986680e+02
   7.815273e+02  -7.191784e+02
   8.721246e+02   9.965740e+01
   4.093288e+02   8.087311e+02
  -2.347433e+02   8.246073e+02
  -5.961308e+02   9.701836e+01
  -3.520411e+02  -6.779820e+02
   2.586110e+02  -6.970815e+02
   5.666652e+02   1.284372e+01
   2.490517e+02   6.373237e+02
  -3.038038e+02   5.861184e+02
  -5.398611e+02   8.057183e+01
  -3.557240e+02  -3.278594e+02
  -1.279846e+01  -4.043752e+02
   2.264505e+02  -2.426543e+02
   1.977277e+02  -1.178677e+01
  -1.099850e+02   8.443583e+01
  -3.849702e+02  -1.055260e+02
  -1.868280e+02  -4.071192e+02
   4.332255e+02  -3.880002e+02
   7.962160e+02   7.296965e+01
   3.995881e+02   5.178453e+02
  -3.726331e+02   4.531166e+02
  -6.996975e+02  -3.628948e+01
  -3.233239e+02  -4.536366e+02
   2.659763e+02  -4.848721e+02
   5.300507e+02  -1.877267e+02
   3.879633e+02   2.142765e+02
   6.299336e+01   4.437934e+02
  -1.892043e+02   2.625116e+02
  -1.600172e+02  -2.089864e+02
   1.595402e+02  -4.117606e+02
   4.220481e+02   2.048983e+01
   2.285198e+02   6.426518e+02
  -3.022974e+02   6.576200e+02
  -5.677461e+02  -7.804419e-01
  -2.402575e+02  -5.226366e+02
   2.769844e+02  -2.982677e+02
   3.623419e+02   3.059461e+02
  -6.384392e+01   5.132774e+02
  -5.194931e+02   1.280283e+02
  -5.557973e+02  -3.790613e+02
  -1.548154e+02  -5.457916e+02
   3.574540e+02  -3.231402e+02
   5.874330e+02   6.910478e+01
   3.475587e+02   3.590894e+02
  -1.467698e+02   3.404354e+02
  -4.147892e+02   4.980397e+01
  -2.227797e+02  -1.854980e+02
   1.144008e+02  -9.942867e+01
   1.345681e+02   1.469865e+02
  -1.567335e+02   1.766572e+02
  -3.261128e+02  -7.046029e+01
  -1.313024e+02  -2.813339e+02
   1.907484e+02  -2.409738e+02
   3.058408e+02  -6.725345e+01
   1.802396e+02   7.701835e+01
  -2.108996e+01   2.036506e+02
  -1.989724e+02   3.021252e+02
  -3.108367e+02   2.067815e+02
  -2.732880e+02  -1.242995e+02
  -7.620706e+01  -4.065875e+02
   1.078572e+02  -3.582944e+02
   1.137446e+02  -1.022654e+02
   2.091105e+01   1.369764e+01
   3.527148e+01  -8.168762e+01
   1.787553e+02  -1.256837e+02
   2.614897e+02   4.432680e+01
   1.526667e+02   2.509704e+02
  -6.427506e+01   2.418832e+02
  -2.135210e+02   1.335439e+01
  -1.880416e+02  -2.225742e+02
   6.335326e+00  -2.759138e+02
   2.476261e+02  -1.122497e+02
   3.380119e+02   1.526694e+02
   1.759409e+02   3.261093e+02
  -9.181809e+01   2.860922e+02
  -2.110866e+02   1.121671e+02
  -1.386637e+02   3.396272e+00
  -8.907689e+01   3.253074e+01
  -2.138896e+02   6.346664e+01
  -3.704487e+02  -4.770819e+01
  -3.096737e+02  -2.597246e+02
  -2.594504e+00  -4.090614e+02
   3.278602e+02  -3.851768e+02
   4.497287e+02  -1.904240e+02
   3.136879e+02   8.389263e+01
   5.362923e+01   2.741017e+02
  -1.209039e+02   2.369190e+02
  -7.841087e+01   2.651551e+01
   1.019927e+02  -1.038065e+02
   1.857801e+02   3.851696e+00
   4.917231e+01   1.848541e+02
  -1.517861e+02   1.631143e+02
  -1.698993e+02  -5.655875e+01
   1.523856e+01  -1.823440e+02
   1.822655e+02  -3.290368e+01
   1.536773e+02   2.288180e+02
  -2.724743e+01   3.230265e+02
  -2.105803e+02   1.787154e+02
  -2.992711e+02  -5.510182e+01
  -2.576709e+02  -2.162686e+02
  -9.123238e+01  -2.421600e+02
   1.029590e+02  -1.501806e+02
   1.657243e+02  -2.100847e+01
   5.562155e+01   3.086984e+01
  -6.627802e+01  -3.431352e+01
  -2.988727e+01  -1.167884e+02
   1.145546e+02  -9.520461e+01
   1.674448e+02   1.013416e+01
   5.569674e+01   6.832426e+01
  -7.425338e+01   1.771263e+01
  -5.293636e+01  -6.604696e+01
   1.112002e+02  -8.113245e+01
   2.581416e+02  -3.514893e+00
   2.440233e+02   1.246171e+02
   5.959192e+01   2.340605e+02
  -1.665159e+02   2.440395e+02
  -2.620457e+02   1.206291e+02
  -1.596389e+02  -4.719565e+01
   2.195250e+01  -1.038315e+02
   8.616831e+01  -8.868767e+00
  -2.828400e+01   9.592247e+01
  -1.813907e+02   5.822071e+01
  -1.997552e+02  -9.305531e+01
  -6.645000e+01  -1.930952e+02
   8.664439e+01  -1.483130e+02
   1.344453e+02  -2.857974e+01
   6.722946e+01   3.876157e+01
  -2.502954e+01   5.251427e+00
  -3.654614e+01  -7.408008e+01
   6.236233e+01  -1.043757e+02
   1.806272e+02  -3.007723e+01
   1.782246e+02   1.105783e+02
   2.248202e+01   2.014104e+02
  -1.510690e+02   1.538026e+02
  -1.805487e+02   6.917915e+00
  -6.179700e+01  -1.070550e+02
   6.138532e+01  -1.049751e+02
   7.795228e+01  -2.926513e+01
   1.872439e+01   2.439753e+01
  -1.865095e+01   1.855810e+01
   8.381515e+00  -6.016454e+00
   6.315089e+01   7.507146e+00
   8.040577e+01   7.268018e+01
   1.625250e+01   1.431884e+02
  -1.123552e+02   1.411131e+02
  -2.135988e+02   2.764311e+01
  -1.876870e+02  -1.347537e+02
  -4.124729e+01  -2.183007e+02
   9.935619e+01  -1.580074e+02
   1.252812e+02  -2.594387e+01
   6.492854e+01   5.136677e+01
   2.600113e+01   3.312867e+01
   4.858319e+01  -1.154080e+01
   7.234286e+01  -6.819495e+00
   3.788567e+01   4.402424e+01
  -3.741920e+01   7.923930e+01
  -9.104986e+01   5.117405e+01
  -7.705706e+01  -3.005164e+01
   1.010762e+01  -9.949043e+01
   1.264782e+02  -8.045547e+01
   1.805452e+02   4.268897e+01
   9.598544e+01   1.825279e+02
  -9.322078e+01   2.116998e+02
  -2.438984e+02   9.251907e+01
  -2.385014e+02  -7.590457e+01
  -1.033417e+02  -1.620463e+02
   3.419433e+01  -1.364647e+02
   8.661765e+01  -7.840453e+01
   7.292511e+01  -6.418978e+01
   6.090063e+01  -8.337679e+01
   8.383740e+01  -6.824056e+01
   1.171448e+02   1.913222e+01
   1.089899e+02   1.398082e+02
   2.961212e+01   2.068274e+02
  -8.868217e+01   1.592903e+02
  -1.613283e+02   2.124228e+01
  -1.272115e+02  -1.100644e+02
  -1.989673e+01  -1.467088e+02
   6.052800e+01  -8.646496e+01
   5.540953e+01  -2.379130e+00
   5.878868e+00   3.850747e+01
  -8.051115e+00   3.216782e+01
   3.364862e+01   1.711519e+01
   7.206712e+01   2.023297e+01
   4.088833e+01   3.418001e+01
  -5.708803e+01   3.439594e+01
  -1.432207e+02   5.082500e+00
  -1.316554e+02  -4.457567e+01
  -1.631461e+01  -8.063593e+01
   1.084879e+02  -6.933768e+01
   1.327726e+02  -1.428182e+01
   4.532373e+01   3.643961e+01
  -5.437396e+01   3.438096e+01
  -6.932066e+01  -1.659422e+01
  -7.172953e+00  -6.162392e+01
   5.067375e+01  -5.253172e+01
   5.732234e+01   1.396643e+00
   3.989719e+01   4.477304e+01
   3.980481e+01   3.756754e+01
   5.637352e+01   1.804390e+00
   6.048261e+01   3.018272e-03
   3.233540e+01   6.074137e+01
  -2.869564e+01   1.324555e+02
  -1.039946e+02   1.298468e+02
  -1.483315e+02   3.241203e+01
  -1.128921e+02  -8.136142e+01
  -7.761676e+00  -1.146812e+02
   7.710158e+01  -5.666374e+01
   5.448968e+01   1.328011e+01
  -5.377428e+01   1.878864e+01
  -1.260288e+02  -3.858870e+01
  -7.064722e+01  -9.747250e+01
   7.242028e+01  -1.036882e+02
   1.742206e+02  -4.976490e+01
   1.495181e+02   2.901336e+01
   3.531996e+01   7.914049e+01
  -5.505979e+01   6.545679e+01
  -4.507890e+01   7.745923e+00
   3.479833e+01  -2.471486e+01
   8.254061e+01   1.972475e+01
   3.067183e+01   1.077971e+02
  -8.250183e+01   1.409675e+02
  -1.523463e+02   5.757419e+01
  -1.161620e+02  -9.102811e+01
  -1.072945e+01  -1.801654e+02
   7.698783e+01  -1.324461e+02
   9.574837e+01   4.802601e+00
   5.698213e+01   1.070910e+02
   2.468012e-02   9.792082e+01
  -4.147975e+01   1.949250e+01
  -4.826577e+01  -2.816755e+01
  -2.431530e+01  -8.060770e+00
  -3.389459e+00   1.910460e+01
  -1.851794e+01  -1.273393e+01
  -5.155829e+01  -8.003929e+01
  -3.988818e+01  -1.001304e+02
   4.182116e+01  -4.224900e+01
   1.265857e+02   3.502744e+01
   1.196065e+02   6.401006e+01
   1.656328e+01   4.491173e+01
  -8.038419e+01   2.044447e+01
  -8.075588e+01   7.829970e+00
  -9.675197e+00  -6.056669e+00
   3.530732e+01  -2.060507e+01
   1.258509e+01  -1.730340e+01
  -1.983638e+01   1.115262e+00
   5.348227e+00   8.600419e+00
   6.806479e+01   3.649961e+00
   8.337076e+01   2.113794e+01
   7.393840e+00   7.246080e+01
  -1.077479e+02   1.041492e+02
  -1.680352e+02   5.409559e+01
  -1.283205e+02  -6.052561e+01
  -2.403914e+01  -1.472424e+02
   7.052976e+01  -1.366857e+02
   1.030645e+02  -5.367488e+01
   7.344924e+01   1.921438e+01
   2.290747e+01   3.179423e+01
  -2.869270e+00   7.418565e+00
   9.231834e+00   3.152787e+00
   3.081285e+01   4.120014e+01
   2.174902e+01   8.187063e+01
  -2.605075e+01   6.539271e+01
  -7.402459e+01  -1.665475e+01
  -7.040368e+01  -9.841159e+01
  -3.880712e+00  -1.018146e+02
   7.498710e+01  -2.131872e+01
   9.363274e+01   6.860456e+01
   2.924361e+01   9.367132e+01
  -5.994124e+01   5.030414e+01
  -8.848972e+01  -1.023543e+01
  -3.576040e+01  -4.498443e+01
   2.896951e+01  -4.664449e+01
   2.759594e+01  -2.609286e+01
  -3.131296e+01  -3.959720e-02
  -6.298026e+01   6.354233e+00
  -1.356135e+01  -2.243091e+01
   7.166281e+01  -6.055363e+01
   1.045092e+02  -5.467592e+01
   5.775922e+01   9.792543e+00
  -1.389646e+01   7.535311e+01
  -4.715914e+01   7.244140e+01
  -3.276281e+01   5.158497e+00
  -1.157002e+00  -5.083599e+01
   2.308031e+01  -3.865790e+01
   3.287627e+01   1.696667e+01
   2.431258e+01   4.885704e+01
  -2.247025e+00   2.929182e+01
  -3.000323e+01  -7.796465e+00
  -3.618201e+01  -1.848717e+01
  -1.884558e+01  -5.898703e-01
   7.292482e-01   1.233326e+01
   6.602031e+00  -3.526272e+00
   6.620052e+00  -3.321859e+01
   1.547954e+01  -3.965854e+01
   2.909998e+01  -6.042983e+00
   2.669615e+01   4.100333e+01
  -2.545673e+00   5.494151e+01
  -4.053270e+01   1.843676e+01
  -5.091218e+01  -3.555442e+01
  -1.307680e+01  -5.725516e+01
   4.944808e+01  -3.111839e+01
   8.033021e+01   1.364929e+01
   4.467509e+01   3.974709e+01
  -2.578896e+01   3.683674e+01
  -5.846852e+01   1.932182e+01
  -2.158227e+01   4.546176e+00
   3.424697e+01   2.492731e+00
   3.430969e+01   1.484810e+01
  -2.844949e+01   2.868217e+01
  -8.357933e+01   1.786741e+01
