
 $NMID
 id='ANONYMOUS ', fmtdat='(2E16.6)'
 volume=1.0
 tramp=1.0
 $END
   2.612158e+03   3.275560e+01
   1.939667e+03   1.124524e+03
   4.225213e+02   1.707213e+03
  -8.068806e+02   1.473662e+03
  -1.012415e+03   6.599428e+02
  -4.395782e+02  -4.243828e+01
   1.039867e+02  -1.151331e+02
   1.176290e+02   2.695284e+02
  -2.341908e+02   4.903009e+02
  -4.987261e+02   2.016776e+02
  -4.401621e+02  -3.180048e+02
  -1.515257e+02  -5.352745e+02
   1.274510e+02  -2.470192e+02
   1.875594e+02   2.406960e+02
  -2.122540e+01   4.374939e+02
  -2.998030e+02   1.381109e+02
  -3.206450e+02  -3.820869e+02
   2.003427e+01  -6.276193e+02
   4.193017e+02  -3.790628e+02
   4.817282e+02   8.696048e+01
   1.961860e+02   3.286303e+02
  -5.751536e+01   2.436181e+02
  -1.253366e+00   1.218743e+02
   2.008994e+02   2.036300e+02
   1.857967e+02   3.591431e+02
  -1.327641e+02   3.060486e+02
  -4.586286e+02   1.804534e+01
  -4.576943e+02  -2.410722e+02
  -1.139206e+02  -2.494501e+02
   2.669685e+02  -4.755480e+01
   3.570529e+02   1.766388e+02
   1.027294e+02   2.890906e+02
  -2.450303e+02   2.526697e+02
  -3.878355e+02   8.661636e+01
  -2.701137e+02  -1.209970e+02
  -9.548762e+01  -2.218336e+02
  -6.184195e+01  -1.396278e+02
  -1.434417e+02   6.862641e+00
  -1.706210e+02   4.497650e+00
  -6.063911e+01  -1.934328e+02
   1.054522e+02  -3.728878e+02
   2.022566e+02  -2.959956e+02
   1.757612e+02  -8.669157e+00
   5.519311e+01   1.775483e+02
  -6.557825e+01   4.940555e+01
  -5.774870e+01  -2.297335e+02
   1.342700e+02  -2.934829e+02
   3.756954e+02  -1.052028e+01
   4.142959e+02   3.521075e+02
   1.423181e+02   4.439553e+02
  -2.510504e+02   2.212950e+02
  -4.499593e+02  -6.082872e+01
  -3.209567e+02  -1.824711e+02
  -1.623853e+01  -1.567479e+02
   2.047346e+02  -1.016197e+02
   2.115477e+02  -5.926309e+01
   8.194826e+01  -1.387417e+01
  -3.141973e+00   1.528384e+01
   5.463571e+01   9.800689e+00
   1.597791e+02   2.919066e+01
   1.169421e+02   1.330953e+02
  -1.242941e+02   2.365306e+02
  -3.524142e+02   1.636388e+02
  -3.005217e+02  -1.124272e+02
   3.125805e+01  -3.741119e+02
   3.475819e+02  -3.764413e+02
   3.859018e+02  -1.159309e+02
   1.948672e+02   1.811726e+02
   2.435094e+01   3.132415e+02
   3.105683e+00   2.796746e+02
   2.689026e+01   2.072594e+02
  -4.626771e+01   1.697315e+02
  -1.957184e+02   1.232084e+02
  -2.788851e+02   1.295795e+00
  -2.103165e+02  -1.652886e+02
  -4.110822e+01  -2.480426e+02
   1.125011e+02  -1.489107e+02
   1.637486e+02   7.633980e+01
   8.801259e+01   2.454346e+02
  -7.639412e+01   2.169557e+02
  -2.318724e+02   2.186426e+01
  -2.666436e+02  -1.820178e+02
  -1.481007e+02  -2.689972e+02
   3.013382e+01  -2.384398e+02
   1.361599e+02  -1.684055e+02
   1.490278e+02  -1.178201e+02
   1.791836e+02  -8.122115e+01
   3.025452e+02  -1.038308e+01
   4.096287e+02   1.314190e+02
   2.999951e+02   3.139651e+02
  -5.295733e+01   4.295667e+02
  -4.046744e+02   3.694698e+02
  -4.746410e+02   1.399721e+02
  -2.509031e+02  -1.122375e+02
   9.195644e+00  -2.224774e+02
   7.592695e+01  -1.600796e+02
  -2.856078e+01  -4.334015e+01
  -1.197294e+02  -4.714445e+00
  -8.661928e+01  -5.846884e+01
   2.029248e+01  -1.061984e+02
   9.004128e+01  -6.035023e+01
   6.455347e+01   4.833864e+01
  -3.721418e+01   9.078875e+01
  -1.381275e+02  -2.417706e+01
  -1.348950e+02  -2.293397e+02
   2.399142e+01  -3.341612e+02
   2.545316e+02  -2.078010e+02
   3.734021e+02   7.329837e+01
   2.692960e+02   2.865670e+02
   2.922819e+01   2.821057e+02
  -1.427130e+02   1.219680e+02
  -1.331400e+02  -8.419445e+00
  -1.986748e+01  -3.094168e+00
   3.613360e+01   7.674135e+01
  -2.877500e+01   1.047764e+02
  -1.250132e+02   4.026768e+01
  -1.241215e+02  -4.052792e+01
  -1.220284e+01  -4.404851e+01
   8.228500e+01   3.455408e+01
   2.362262e+01   1.074055e+02
  -1.687456e+02   8.270997e+01
  -3.135859e+02  -4.773776e+01
  -2.458473e+02  -2.002078e+02
   3.899356e+00  -2.683113e+02
   2.308290e+02  -2.069444e+02
   2.604756e+02  -6.651559e+01
   1.138179e+02   4.633371e+01
  -3.564457e+01   5.563669e+01
  -4.570691e+01  -1.544079e+01
   6.927354e+01  -6.311407e+01
   1.773078e+02  -8.456164e+00
   1.654278e+02   1.110065e+02
   3.969876e+01   1.748007e+02
  -8.886426e+01   1.160330e+02
  -1.115459e+02   3.981877e+00
  -2.783145e+01  -3.363890e+01
   5.101183e+01   4.000806e+01
   1.546556e+01   1.294904e+02
  -1.199939e+02   1.178398e+02
  -2.207655e+02  -7.569763e+00
  -1.697870e+02  -1.499214e+02
   5.224750e+00  -2.017000e+02
   1.552358e+02  -1.340924e+02
   1.601929e+02  -7.842576e+00
   4.456665e+01   8.181697e+01
  -6.073739e+01   8.042243e+01
  -6.071028e+01   1.791329e+01
   1.219720e+01  -2.333877e+01
   4.838921e+01   8.744568e-02
  -9.872900e+00   3.803103e+01
  -1.021979e+02   5.448385e+00
  -1.142647e+02  -1.038883e+02
  -7.778613e-01  -1.898913e+02
   1.616511e+02  -1.488178e+02
   2.430754e+02   1.110777e+01
   1.789431e+02   1.730845e+02
   2.445472e+01   2.233438e+02
  -1.016077e+02   1.479433e+02
  -1.251545e+02   2.878018e+01
  -7.462124e+01  -3.854849e+01
  -3.679844e+01  -2.543987e+01
  -5.804672e+01   1.396324e+01
  -9.416556e+01   4.012185e+00
  -6.489858e+01  -6.593243e+01
   4.316981e+01  -1.190507e+02
   1.415365e+02  -7.234454e+01
   1.216438e+02   5.641279e+01
  -2.627454e+01   1.445895e+02
  -1.850927e+02   8.672041e+01
  -2.105956e+02  -8.602671e+01
  -6.444010e+01  -2.260393e+02
   1.483488e+02  -2.115118e+02
   2.715234e+02  -5.928324e+01
   2.304290e+02   1.035221e+02
   8.358847e+01   1.666900e+02
  -4.626032e+01   1.288569e+02
  -8.668032e+01   7.326746e+01
  -6.498588e+01   6.786369e+01
  -5.574657e+01   9.561609e+01
  -9.229280e+01   8.080490e+01
  -1.341818e+02  -2.025347e+01
  -1.150744e+02  -1.584499e+02
  -1.579510e+01  -2.263676e+02
   1.077783e+02  -1.583631e+02
   1.661632e+02   1.913048e+00
   1.136397e+02   1.356632e+02
  -4.153268e+00   1.534479e+02
  -8.405117e+01   6.876955e+01
  -6.337290e+01  -2.778923e+01
   1.284171e+01  -6.124051e+01
   4.008229e+01  -3.525822e+01
  -2.096197e+01  -7.881489e+00
  -8.839194e+01  -1.755031e+01
  -5.272847e+01  -4.388008e+01
   8.214003e+01  -3.926667e+01
   1.858282e+02   1.291127e+01
   1.427776e+02   7.830545e+01
  -1.653238e+01   1.043152e+02
  -1.480208e+02   6.743975e+01
  -1.460116e+02  -6.082755e+00
  -3.890969e+01  -5.878045e+01
   6.204066e+01  -4.661736e+01
   7.959486e+01   2.033270e+01
   2.460812e+01   7.940324e+01
  -4.196191e+01   7.131636e+01
  -7.336134e+01   3.311001e+00
  -6.655445e+01  -5.420512e+01
  -5.013139e+01  -4.667623e+01
  -5.124698e+01  -2.948883e+00
  -6.431485e+01  -3.567487e+00
  -4.880173e+01  -7.864139e+01
   2.830153e+01  -1.586265e+02
   1.385491e+02  -1.456018e+02
   1.950995e+02  -2.679206e+01
   1.336481e+02   1.031452e+02
  -6.171198e+00   1.390653e+02
  -1.011020e+02   7.209849e+01
  -6.445032e+01  -9.722376e+00
   5.828009e+01  -1.932644e+01
   1.299585e+02   4.433078e+01
   6.290981e+01   1.076629e+02
  -8.955022e+01   1.033980e+02
  -1.884365e+02   3.133332e+01
  -1.496821e+02  -5.132241e+01
  -2.249439e+01  -8.447169e+01
   6.823640e+01  -5.166452e+01
   4.762032e+01   9.263409e+00
  -4.263829e+01   3.291348e+01
  -9.438339e+01  -2.006925e+01
  -4.234897e+01  -1.152412e+02
   7.438937e+01  -1.563458e+02
   1.529787e+02  -7.364858e+01
   1.249101e+02   8.751669e+01
   1.625530e+01   1.889064e+02
  -8.292527e+01   1.354954e+02
  -1.025407e+02  -1.809698e+01
  -4.670981e+01  -1.231139e+02
   2.459126e+01  -9.857616e+01
   5.590828e+01  -8.478733e+00
   3.927344e+01   3.399445e+01
   9.961570e+00   6.373748e+00
   7.683079e+00  -1.491418e+01
   3.646798e+01   2.735557e+01
   5.648032e+01   9.289415e+01
   2.182773e+01   1.018055e+02
  -6.351685e+01   3.788285e+01
  -1.325725e+02  -3.905839e+01
  -1.152655e+02  -7.087692e+01
  -1.720955e+01  -5.630718e+01
   7.576137e+01  -2.698327e+01
   8.479829e+01  -1.992433e+00
   2.157929e+01   1.565401e+01
  -3.174041e+01   2.011054e+01
  -2.329730e+01   7.869482e+00
   1.024336e+01  -5.847085e+00
  -8.722063e-01  -2.834417e+00
  -6.121467e+01   3.839817e+00
  -9.384358e+01  -2.205699e+01
  -2.991808e+01  -8.307173e+01
   1.016631e+02  -1.200679e+02
   1.921630e+02  -6.904081e+01
   1.609867e+02   5.547561e+01
   3.474169e+01   1.583889e+02
  -8.470230e+01   1.578342e+02
  -1.204810e+02   6.896232e+01
  -8.050269e+01  -1.875240e+01
  -2.682117e+01  -4.060309e+01
  -5.941671e+00  -1.682197e+01
  -1.611655e+01  -1.230605e+01
  -2.687587e+01  -5.219122e+01
  -1.224294e+01  -9.205427e+01
   3.071385e+01  -7.147083e+01
   7.645714e+01   1.339675e+01
   8.118895e+01   9.806699e+01
   2.025664e+01   1.100335e+02
  -7.032034e+01   3.794085e+01
  -1.077322e+02  -5.857378e+01
  -4.499301e+01  -1.039495e+02
   6.359724e+01  -7.045357e+01
   1.088730e+02   6.262228e+00
   4.942403e+01   6.480909e+01
  -3.712027e+01   6.859351e+01
  -4.737712e+01   2.888091e+01
   2.074097e+01  -1.022159e+01
   6.797828e+01  -9.801550e+00
   2.046257e+01   2.943494e+01
  -7.895000e+01   6.416286e+01
  -1.256729e+02   4.699739e+01
  -7.629884e+01  -2.229219e+01
   1.319936e+01  -8.678553e+01
   6.332336e+01  -8.500474e+01
   5.175768e+01  -1.713000e+01
   1.115976e+01   5.013156e+01
  -2.302904e+01   5.224228e+01
  -3.764906e+01  -4.786276e+00
  -2.954832e+01  -5.421113e+01
   9.256904e-02  -4.520419e+01
   3.382723e+01   2.775607e+00
   4.322166e+01   2.934902e+01
   2.076279e+01   7.972076e+00
  -5.606153e+00  -2.445936e+01
  -5.718157e+00  -1.699412e+01
   1.151935e+01   2.918667e+01
   9.009385e+00   5.963453e+01
  -2.419337e+01   3.252254e+01
  -4.916215e+01  -2.868895e+01
  -2.341959e+01  -6.009958e+01
   3.774957e+01  -2.960840e+01
   6.762639e+01   2.946200e+01
   2.318305e+01   5.898080e+01
  -5.908023e+01   3.709889e+01
  -9.713412e+01  -9.553773e+00
  -5.211391e+01  -4.338858e+01
   2.928045e+01  -4.910650e+01
   6.672765e+01  -3.274042e+01
   3.279010e+01  -7.992189e+00
  -2.234247e+01   7.812974e+00
  -3.104649e+01   4.683313e-01
   1.752024e+01  -2.138681e+01
   6.922950e+01  -2.225864e+01
