
 $NMID
 id='ANONYMOUS ', fmtdat='(2E16.6)'
 volume=1.0
 tramp=1.0
 $END
  -2.458553e+03   4.295935e+01
  -1.753368e+03  -1.085470e+03
  -2.664338e+02  -1.555927e+03
   7.852658e+02  -1.199796e+03
   8.107840e+02  -4.456506e+02
   2.345246e+02   6.355665e+01
  -1.702319e+02   1.987237e+01
  -7.993895e+01  -3.223159e+02
   2.613587e+02  -4.538295e+02
   4.688502e+02  -1.468641e+02
   3.805088e+02   3.236699e+02
   9.514124e+01   4.898361e+02
  -1.600460e+02   1.907208e+02
  -1.848126e+02  -2.624109e+02
   3.845228e+01  -4.101143e+02
   2.873346e+02  -1.060781e+02
   2.781692e+02   3.521636e+02
  -3.087730e+01   5.350343e+02
  -3.605010e+02   3.031990e+02
  -4.005397e+02  -8.710181e+01
  -1.569468e+02  -2.847155e+02
   6.314063e+01  -2.103478e+02
   2.022037e+01  -8.781295e+01
  -1.754563e+02  -1.302625e+02
  -2.051769e+02  -2.758582e+02
   6.442080e+01  -2.898547e+02
   4.013535e+02  -8.105607e+01
   4.536030e+02   1.772459e+02
   1.401816e+02   2.529416e+02
  -2.515998e+02   1.019000e+02
  -3.638712e+02  -1.286341e+02
  -1.253743e+02  -2.729946e+02
   2.107735e+02  -2.582322e+02
   3.541652e+02  -9.979406e+01
   2.525953e+02   1.096910e+02
   8.253748e+01   2.175462e+02
   2.369380e+01   1.303079e+02
   8.856209e+01  -4.327641e+01
   1.542828e+02  -6.344130e+01
   1.101078e+02   1.500723e+02
  -3.959190e+01   3.691968e+02
  -1.848216e+02   3.096995e+02
  -2.033007e+02   5.253699e+00
  -7.199138e+01  -2.007272e+02
   8.745536e+01  -7.375745e+01
   9.678656e+01   2.131380e+02
  -1.009407e+02   2.897718e+02
  -3.468980e+02   3.537332e+01
  -3.905413e+02  -2.969767e+02
  -1.394090e+02  -3.939404e+02
   2.258234e+02  -2.125761e+02
   4.107792e+02   4.019242e+01
   2.855000e+02   1.703848e+02
  -4.955984e+00   1.564299e+02
  -2.005544e+02   8.494739e+01
  -1.784156e+02   2.699507e+01
  -4.290706e+01   3.953962e+00
   1.625188e+01   1.027086e+01
  -6.465619e+01   1.586567e+01
  -1.607494e+02  -2.808947e+01
  -1.054608e+02  -1.309661e+02
   1.081267e+02  -2.092586e+02
   2.922391e+02  -1.432080e+02
   2.500590e+02   7.984884e+01
  -9.027748e+00   3.040041e+02
  -2.674290e+02   3.326634e+02
  -3.228790e+02   1.279565e+02
  -1.871223e+02  -1.443457e+02
  -3.750903e+01  -2.843299e+02
   3.125102e+00  -2.509451e+02
  -1.450851e+01  -1.626710e+02
   2.724898e+01  -1.256380e+02
   1.437946e+02  -1.117240e+02
   2.314559e+02  -2.936387e+01
   1.976215e+02   1.211126e+02
   5.919876e+01   2.164288e+02
  -8.777431e+01   1.464532e+02
  -1.531767e+02  -4.960192e+01
  -9.882461e+01  -2.088798e+02
   5.045515e+01  -2.002163e+02
   2.043556e+02  -3.889357e+01
   2.480503e+02   1.459345e+02
   1.409341e+02   2.362333e+02
  -2.647376e+01   2.132298e+02
  -1.208601e+02   1.424441e+02
  -1.216414e+02   9.299918e+01
  -1.399987e+02   7.239177e+01
  -2.518232e+02   2.859383e+01
  -3.570037e+02  -8.761879e+01
  -2.742237e+02  -2.549071e+02
   2.277852e+01  -3.733781e+02
   3.283379e+02  -3.390665e+02
   4.048569e+02  -1.458348e+02
   2.307099e+02   8.586921e+01
   7.302394e+00   2.014811e+02
  -6.745973e+01   1.509585e+02
   1.273835e+01   3.238615e+01
   1.038960e+02  -1.474256e+01
   9.132138e+01   4.238930e+01
  -6.197543e+00   1.045470e+02
  -8.601335e+01   6.791995e+01
  -7.140767e+01  -4.270711e+01
   2.789323e+01  -9.256178e+01
   1.276805e+02   9.376025e+00
   1.279353e+02   1.945782e+02
  -8.931742e+00   2.895771e+02
  -2.072413e+02   1.867445e+02
  -3.176328e+02  -4.634103e+01
  -2.440919e+02  -2.297268e+02
  -4.446190e+01  -2.399121e+02
   1.148708e+02  -1.155392e+02
   1.207466e+02  -7.393220e-01
   2.150671e+01   6.267308e+00
  -3.890138e+01  -6.037458e+01
   1.376469e+01  -9.471990e+01
   1.067894e+02  -4.687242e+01
   1.154979e+02   2.755138e+01
   1.741128e+01   4.180422e+01
  -7.265934e+01  -2.005477e+01
  -2.901899e+01  -8.758419e+01
   1.360191e+02  -7.883717e+01
   2.678187e+02   2.235142e+01
   2.219734e+02   1.550685e+02
   1.527637e+01   2.299042e+02
  -1.852820e+02   1.941611e+02
  -2.250413e+02   7.424673e+01
  -1.064943e+02  -3.709276e+01
   2.806523e+01  -5.616087e+01
   4.599593e+01   9.346591e+00
  -5.314829e+01   6.238364e+01
  -1.551608e+02   2.019046e+01
  -1.525197e+02  -8.871766e+01
  -4.396240e+01  -1.532691e+02
   7.329221e+01  -1.082521e+02
   1.001872e+02  -1.027986e+01
   3.043532e+01   2.962011e+01
  -4.322148e+01  -2.650039e+01
  -2.192714e+01  -1.050717e+02
   9.216765e+01  -1.060303e+02
   1.874863e+02  -7.103624e+00
   1.547438e+02   1.190765e+02
   6.397885e+00   1.758539e+02
  -1.297895e+02   1.247407e+02
  -1.414827e+02   1.211529e+01
  -4.344431e+01  -7.306126e+01
   5.038328e+01  -7.524148e+01
   5.454208e+01  -1.891450e+01
  -5.732478e+00   2.143548e+01
  -3.850227e+01   4.674461e+00
   6.395049e+00  -2.923942e+01
   8.322223e+01  -7.486866e+00
   9.918026e+01   8.137111e+01
   1.046516e+01   1.590931e+02
  -1.284203e+02   1.350395e+02
  -2.084029e+02   4.782252e+00
  -1.635568e+02  -1.389996e+02
  -3.162559e+01  -1.927485e+02
   8.277820e+01  -1.335306e+02
   1.076167e+02  -2.916234e+01
   6.469994e+01   3.226239e+01
   3.132809e+01   2.155902e+01
   4.862700e+01  -1.409537e+01
   7.884377e+01  -7.678943e+00
   5.564612e+01   5.153951e+01
  -3.167204e+01   9.987648e+01
  -1.133139e+02   6.615798e+01
  -1.023758e+02  -4.030012e+01
   1.461304e+01  -1.209515e+02
   1.498430e+02  -8.232177e+01
   1.829229e+02   6.085402e+01
   6.910369e+01   1.888994e+02
  -1.139818e+02   1.901474e+02
  -2.306945e+02   6.619448e+01
  -2.054595e+02  -7.810201e+01
  -8.130774e+01  -1.415078e+02
   3.407378e+01  -1.148118e+02
   7.271430e+01  -6.744842e+01
   5.494583e+01  -6.066739e+01
   4.538945e+01  -8.337060e+01
   7.588544e+01  -7.204751e+01
   1.150707e+02   1.225521e+01
   1.052484e+02   1.308941e+02
   2.410039e+01   1.937410e+02
  -8.538882e+01   1.419307e+02
  -1.441906e+02   7.477454e+00
  -1.058722e+02  -1.106199e+02
  -5.223419e+00  -1.329970e+02
   6.777062e+01  -6.552905e+01
   5.557947e+01   1.774991e+01
  -6.059388e+00   5.104170e+01
  -2.929531e+01   3.227856e+01
   1.997203e+01   7.529711e+00
   7.522481e+01   1.207796e+01
   4.602517e+01   3.470821e+01
  -6.655430e+01   3.692090e+01
  -1.566427e+02  -1.320115e+00
  -1.260304e+02  -5.821936e+01
   5.841516e+00  -8.873010e+01
   1.209892e+02  -6.493588e+01
   1.256907e+02  -2.920087e+00
   3.718475e+01   4.684655e+01
  -5.096024e+01   4.128608e+01
  -6.859634e+01  -1.409023e+01
  -2.231364e+01  -6.542017e+01
   3.463901e+01  -6.084486e+01
   6.141302e+01  -5.225500e+00
   5.646927e+01   4.292875e+01
   4.405729e+01   3.733666e+01
   4.530586e+01   6.502131e-01
   5.555473e+01   2.282792e-01
   4.342702e+01   6.388364e+01
  -1.838336e+01   1.353726e+02
  -1.102437e+02   1.300792e+02
  -1.624780e+02   3.196301e+01
  -1.175192e+02  -8.150035e+01
  -1.963060e+00  -1.180852e+02
   8.176950e+01  -6.472504e+01
   5.496125e+01   6.382239e+00
  -4.931770e+01   1.891390e+01
  -1.140736e+02  -3.296481e+01
  -5.974462e+01  -9.004126e+01
   7.179552e+01  -9.341161e+01
   1.610160e+02  -3.672114e+01
   1.322620e+02   3.623146e+01
   2.437439e+01   7.209556e+01
  -5.593183e+01   4.939462e+01
  -4.168480e+01  -4.050906e+00
   3.465994e+01  -2.921060e+01
   8.116185e+01   1.373823e+01
   3.957716e+01   9.735968e+01
  -5.970496e+01   1.363254e+02
  -1.298054e+02   6.742711e+01
  -1.104515e+02  -7.177135e+01
  -2.041338e+01  -1.622320e+02
   6.627477e+01  -1.204007e+02
   8.907902e+01   1.013539e+01
   4.667627e+01   1.033350e+02
  -1.455844e+01   8.688623e+01
  -4.657508e+01   1.110151e+01
  -3.662568e+01  -2.750997e+01
  -1.072373e+01  -5.666075e+00
  -5.650995e+00   1.385970e+01
  -3.059946e+01  -2.018852e+01
  -5.202362e+01  -7.686049e+01
  -2.503787e+01  -8.775037e+01
   5.104282e+01  -3.618530e+01
   1.158519e+02   2.847524e+01
   1.033757e+02   5.656294e+01
   1.712002e+01   4.678001e+01
  -6.530013e+01   2.524221e+01
  -7.315869e+01   5.643984e+00
  -1.793791e+01  -1.133554e+01
   2.731217e+01  -1.861432e+01
   1.872931e+01  -9.113210e+00
  -9.846485e+00   4.650837e+00
   1.335219e+00   3.267089e+00
   5.377817e+01  -4.448158e+00
   8.095473e+01   1.543513e+01
   2.625879e+01   6.925270e+01
  -8.443331e+01   1.057748e+02
  -1.609602e+02   6.543824e+01
  -1.374724e+02  -4.238322e+01
  -3.473224e+01  -1.346451e+02
   6.559103e+01  -1.376609e+02
   9.957591e+01  -6.259872e+01
   6.966823e+01   1.329380e+01
   2.442298e+01   3.306796e+01
   4.798795e+00   1.300089e+01
   1.371856e+01   8.778851e+00
   2.595637e+01   4.299417e+01
   1.540463e+01   7.835694e+01
  -2.335973e+01   6.248203e+01
  -6.651041e+01  -9.241343e+00
  -7.265609e+01  -8.206828e+01
  -1.960253e+01  -9.344803e+01
   5.999209e+01  -3.324517e+01
   9.366108e+01   4.800657e+01
   4.098631e+01   8.701011e+01
  -5.182123e+01   6.093612e+01
  -9.204942e+01  -1.622981e+00
  -4.386794e+01  -5.164954e+01
   2.827275e+01  -5.821065e+01
   3.746624e+01  -2.681204e+01
  -1.882819e+01   8.090880e+00
  -5.796681e+01   1.062289e+01
  -1.807151e+01  -2.377790e+01
   6.522255e+01  -5.825618e+01
   1.048273e+02  -4.677769e+01
   6.489213e+01   1.461209e+01
  -8.190896e+00   7.434773e+01
  -4.956717e+01   7.479045e+01
  -4.162579e+01   1.555208e+01
  -1.019204e+01  -4.303753e+01
   1.785585e+01  -4.443461e+01
   3.201887e+01   4.290408e+00
   2.704720e+01   4.521348e+01
   1.579022e+00   3.714660e+01
  -2.888592e+01  -1.766551e+00
  -3.788976e+01  -2.237191e+01
  -1.821129e+01  -5.171330e+00
   5.349192e+00   1.936539e+01
   6.086192e+00   1.189147e+01
  -8.620136e+00  -2.511389e+01
  -7.170295e+00  -4.839655e+01
   1.997177e+01  -2.557574e+01
   4.057391e+01   2.431520e+01
   1.922952e+01   5.018325e+01
  -3.186370e+01   2.557391e+01
  -5.750646e+01  -2.361398e+01
  -2.098776e+01  -4.996809e+01
   4.859622e+01  -3.376529e+01
   8.243820e+01   4.991135e+00
   4.593322e+01   3.517739e+01
  -2.296161e+01   4.217645e+01
  -5.543453e+01   2.926081e+01
  -2.666104e+01   7.892934e+00
   2.047948e+01  -6.026041e+00
   2.708307e+01   5.274278e-01
  -1.600484e+01   1.995507e+01
  -6.110826e+01   2.099809e+01
