
 $NMID
 id='ANONYMOUS ', fmtdat='(2E16.6)'
 volume=1.0
 tramp=1.0
 $END
  -1.075060e+03  -3.273476e+01
  -6.232071e+02  -6.317643e+02
   1.516463e+02  -6.629531e+02
   4.862306e+02  -2.494497e+02
   2.362274e+02   1.017994e+02
  -1.244390e+02   1.057225e+02
  -1.853354e+02  -1.007014e+02
   1.021772e+01  -2.405313e+02
   1.960980e+02  -1.829420e+02
   2.232312e+02   1.785414e+01
   1.103904e+02   2.030230e+02
  -5.023650e+01   2.131624e+02
  -1.410307e+02   2.897299e+01
  -8.338263e+01  -1.711437e+02
   6.521696e+01  -1.802841e+02
   1.443252e+02  -2.701205e-01
   7.047006e+01   1.670260e+02
  -7.117019e+01   1.657687e+02
  -1.437452e+02   3.780457e+01
  -1.053323e+02  -7.886880e+01
  -1.248803e+01  -1.089253e+02
   5.542825e+01  -6.670652e+01
   4.348750e+01  -6.843700e+00
  -4.089681e+01   7.832554e+00
  -1.013192e+02  -4.904433e+01
  -3.193525e+01  -1.152093e+02
   1.314656e+02  -8.809462e+01
   2.097362e+02   3.758939e+01
   9.240131e+01   1.370849e+02
  -1.069319e+02   1.030876e+02
  -1.815975e+02  -2.520688e+01
  -7.597934e+01  -1.238432e+02
   7.929747e+01  -1.239385e+02
   1.451240e+02  -4.436205e+01
   1.022312e+02   5.841501e+01
   1.583998e+01   1.135749e+02
  -4.151855e+01   6.403600e+01
  -2.447710e+01  -5.215308e+01
   5.279326e+01  -9.326309e+01
   1.014410e+02   2.208250e+01
   4.015836e+01   1.728791e+02
  -8.714089e+01   1.645435e+02
  -1.390271e+02  -6.353356e+00
  -5.178131e+01  -1.321182e+02
   7.075561e+01  -6.701187e+01
   8.369843e+01   8.802965e+01
  -2.679731e+01   1.345726e+02
  -1.420488e+02   2.629783e+01
  -1.492662e+02  -1.103465e+02
  -4.071031e+01  -1.508020e+02
   9.823680e+01  -8.404808e+01
   1.596899e+02   2.274665e+01
   9.462104e+01   9.360515e+01
  -3.563683e+01   8.397763e+01
  -1.056932e+02   1.345440e+01
  -5.942132e+01  -3.927326e+01
   2.277840e+01  -1.883242e+01
   2.816029e+01   3.447980e+01
  -4.169832e+01   3.767621e+01
  -8.270754e+01  -2.079350e+01
  -3.401813e+01  -7.226159e+01
   5.139289e+01  -6.733152e+01
   8.930037e+01  -2.474823e+01
   5.903545e+01   2.312401e+01
  -5.018059e+00   6.856907e+01
  -6.574990e+01   9.230953e+01
  -9.525584e+01   5.387006e+01
  -7.395170e+01  -4.078390e+01
  -1.635641e+01  -1.117352e+02
   2.629359e+01  -9.615336e+01
   2.309916e+01  -3.340972e+01
   5.087376e+00  -7.305098e+00
   1.937981e+01  -2.784917e+01
   5.913630e+01  -2.934552e+01
   7.325910e+01   2.132655e+01
   3.629770e+01   7.356832e+01
  -2.317886e+01   6.414873e+01
  -5.936651e+01  -2.787284e+00
  -4.753073e+01  -6.692930e+01
   7.548873e+00  -7.637300e+01
   7.145511e+01  -2.583290e+01
   9.246887e+01   4.735595e+01
   4.704768e+01   9.082845e+01
  -2.403815e+01   7.801291e+01
  -5.555758e+01   3.390629e+01
  -3.885182e+01   7.547817e+00
  -3.035148e+01   1.313741e+01
  -6.741040e+01   1.554133e+01
  -1.093643e+02  -1.920913e+01
  -8.805753e+01  -7.861764e+01
   3.474937e+00  -1.190835e+02
   9.976938e+01  -1.094155e+02
   1.314603e+02  -5.055453e+01
   8.619950e+01   2.742186e+01
   1.015383e+01   7.636929e+01
  -3.360286e+01   6.232248e+01
  -1.591921e+01   6.988643e+00
   3.196581e+01  -2.318032e+01
   4.796919e+01   6.179353e+00
   8.384895e+00   4.927236e+01
  -4.156969e+01   3.933516e+01
  -4.208825e+01  -1.755250e+01
   7.381522e+00  -4.698439e+01
   5.038654e+01  -4.920866e+00
   4.223744e+01   6.623226e+01
  -8.383079e+00   9.304155e+01
  -6.305581e+01   5.288113e+01
  -9.020146e+01  -1.675687e+01
  -7.477142e+01  -6.670963e+01
  -2.224740e+01  -7.279002e+01
   3.264955e+01  -4.153939e+01
   4.594823e+01  -3.363564e+00
   1.334307e+01   7.801507e+00
  -1.762923e+01  -1.293933e+01
  -4.565262e+00  -3.356884e+01
   3.440937e+01  -2.378837e+01
   4.572316e+01   5.755599e+00
   1.284091e+01   1.883585e+01
  -2.246920e+01   1.841989e+00
  -1.375437e+01  -2.191332e+01
   3.548974e+01  -2.375472e+01
   7.790309e+01   2.072227e+00
   7.060750e+01   4.087023e+01
   1.304785e+01   7.005973e+01
  -5.269808e+01   6.802166e+01
  -7.598539e+01   3.054190e+01
  -4.282837e+01  -1.451073e+01
   8.023881e+00  -2.696695e+01
   2.259655e+01  -3.177119e-01
  -1.124582e+01   2.595707e+01
  -5.250631e+01   1.312866e+01
  -5.511514e+01  -2.873154e+01
  -1.664248e+01  -5.473409e+01
   2.578301e+01  -4.032185e+01
   3.752932e+01  -6.034614e+00
   1.672020e+01   1.149483e+01
  -9.320493e+00  -9.348606e-01
  -9.712180e+00  -2.489970e+01
   2.142274e+01  -3.126053e+01
   5.469243e+01  -6.368944e+00
   5.072395e+01   3.463041e+01
   4.212574e+00   5.811252e+01
  -4.419960e+01   4.248648e+01
  -5.049032e+01   1.258361e+00
  -1.603395e+01  -2.954575e+01
   1.815545e+01  -2.840880e+01
   2.152134e+01  -7.256350e+00
   3.431089e+00   7.376670e+00
  -7.411548e+00   4.532180e+00
   2.091484e+00  -3.630826e+00
   2.022629e+01   1.049611e+00
   2.524369e+01   2.246614e+01
   3.926594e+00   4.403772e+01
  -3.541903e+01   4.118561e+01
  -6.350402e+01   5.374008e+00
  -5.333317e+01  -4.152327e+01
  -1.025138e+01  -6.314494e+01
   2.916464e+01  -4.438920e+01
   3.590284e+01  -7.239915e+00
   1.885853e+01   1.400199e+01
   7.896340e+00   8.960954e+00
   1.447826e+01  -3.433600e+00
   2.207432e+01  -1.861710e+00
   1.262051e+01   1.367277e+01
  -1.076814e+01   2.503590e+01
  -2.895903e+01   1.631282e+01
  -2.498429e+01  -9.821727e+00
   3.559133e+00  -3.136325e+01
   3.986569e+01  -2.381125e+01
   5.393281e+01   1.493751e+01
   2.564405e+01   5.554682e+01
  -3.059169e+01   6.105605e+01
  -7.218273e+01   2.416995e+01
  -6.795237e+01  -2.416825e+01
  -2.800974e+01  -4.722824e+01
   1.099923e+01  -3.868003e+01
   2.509581e+01  -2.189781e+01
   2.054240e+01  -1.828924e+01
   1.720935e+01  -2.436531e+01
   2.454286e+01  -2.016159e+01
   3.452136e+01   5.658191e+00
   3.141530e+01   4.137817e+01
   7.317973e+00   6.065407e+01
  -2.699984e+01   4.555101e+01
  -4.684438e+01   4.302502e+00
  -3.563342e+01  -3.358341e+01
  -3.930059e+00  -4.277970e+01
   1.921245e+01  -2.383379e+01
   1.673941e+01   1.175673e+00
   7.498149e-01   1.264367e+01
  -4.270529e+00   9.787644e+00
   8.708747e+00   4.609317e+00
   2.151876e+01   5.627005e+00
   1.244374e+01   1.032972e+01
  -1.787820e+01   1.030198e+01
  -4.380313e+01   5.245113e-01
  -3.867297e+01  -1.500975e+01
  -2.786376e+00  -2.497607e+01
   3.364843e+01  -1.994413e+01
   3.911377e+01  -2.666330e+00
   1.278056e+01   1.198102e+01
  -1.596696e+01   1.052024e+01
  -2.046440e+01  -5.039249e+00
  -3.150382e+00  -1.850225e+01
   1.389580e+01  -1.590713e+01
   1.730704e+01   7.411555e-02
   1.301150e+01   1.315217e+01
   1.202575e+01   1.128090e+01
   1.584553e+01   8.119700e-01
   1.759383e+01   3.363802e-01
   1.030165e+01   1.834095e+01
  -8.231341e+00   3.940428e+01
  -3.200798e+01   3.827336e+01
  -4.543265e+01   9.128682e+00
  -3.361630e+01  -2.465116e+01
  -1.379466e+00  -3.449740e+01
   2.347265e+01  -1.723869e+01
   1.611386e+01   3.616226e+00
  -1.571356e+01   5.317367e+00
  -3.628663e+01  -1.170055e+01
  -1.962150e+01  -2.882066e+01
   2.205934e+01  -2.968867e+01
   5.111644e+01  -1.283675e+01
   4.302950e+01   1.006413e+01
   9.191096e+00   2.324646e+01
  -1.691817e+01   1.793298e+01
  -1.330221e+01   1.106386e+00
   1.039676e+01  -7.569184e+00
   2.429066e+01   5.750211e+00
   9.269750e+00   3.124763e+01
  -2.334126e+01   4.094367e+01
  -4.361665e+01   1.702064e+01
  -3.348003e+01  -2.607283e+01
  -3.002666e+00  -5.207012e+01
   2.273718e+01  -3.796477e+01
   2.798112e+01   2.354051e+00
   1.560534e+01   3.191721e+01
  -1.733853e+00   2.839696e+01
  -1.293756e+01   4.992347e+00
  -1.327859e+01  -8.667580e+00
  -6.060172e+00  -2.462527e+00
  -1.335734e+00   5.266079e+00
  -6.527987e+00  -4.339979e+00
  -1.499599e+01  -2.376963e+01
  -1.007930e+01  -2.911916e+01
   1.344815e+01  -1.199880e+01
   3.655697e+01   1.055352e+01
   3.389574e+01   1.913580e+01
   4.801116e+00   1.357969e+01
  -2.271471e+01   5.955990e+00
  -2.346323e+01   1.715736e+00
  -3.588669e+00  -2.180981e+00
   9.961955e+00  -5.723818e+00
   4.415085e+00  -4.494029e+00
  -5.048765e+00   4.212831e-01
   1.164835e+00   2.191403e+00
   1.897316e+01   8.802246e-01
   2.444994e+01   6.209302e+00
   3.393944e+00   2.111176e+01
  -3.057957e+01   3.038770e+01
  -4.951742e+01   1.621681e+01
  -3.845735e+01  -1.697154e+01
  -7.247958e+00  -4.275743e+01
   2.115755e+01  -4.038509e+01
   3.050700e+01  -1.621484e+01
   2.139230e+01   5.592048e+00
   6.816769e+00   9.644809e+00
  -1.945207e-01   2.563715e+00
   3.164364e+00   1.386707e+00
   8.612887e+00   1.259269e+01
   5.558561e+00   2.423647e+01
  -7.845464e+00   1.907404e+01
  -2.125206e+01  -4.753576e+00
  -2.051920e+01  -2.821954e+01
  -1.906110e+00  -2.944374e+01
   2.103854e+01  -6.823518e+00
   2.732804e+01   1.912907e+01
   9.181011e+00   2.731533e+01
  -1.726433e+01   1.548464e+01
  -2.647545e+01  -2.681375e+00
  -1.118473e+01  -1.399012e+01
   8.630609e+00  -1.469066e+01
   9.121820e+00  -7.815723e+00
  -8.201591e+00   3.755730e-01
  -1.830593e+01   1.910855e+00
  -4.322340e+00  -6.790560e+00
   2.108109e+01  -1.744503e+01
   3.144489e+01  -1.517388e+01
   1.778053e+01   3.475059e+00
  -4.003950e+00   2.221116e+01
  -1.451284e+01   2.156870e+01
  -1.037576e+01   2.345072e+00
  -7.750098e-01  -1.438812e+01
   6.539896e+00  -1.181456e+01
   9.492897e+00   4.162375e+00
   7.204756e+00   1.431109e+01
  -3.919766e-01   9.303807e+00
  -8.732401e+00  -1.968393e+00
  -1.086906e+01  -5.954389e+00
  -5.604772e+00  -6.387535e-01
   6.221372e-01   4.194867e+00
   2.113502e+00   2.464513e-01
   9.587346e-01  -9.017174e+00
   2.823579e+00  -1.218800e+01
   7.713604e+00  -3.165877e+00
   8.710118e+00   1.079028e+01
   7.326602e-01   1.569661e+01
  -1.134773e+01   5.795171e+00
  -1.539668e+01  -9.745198e+00
  -4.207534e+00  -1.640397e+01
   1.474564e+01  -9.251776e+00
   2.391390e+01   3.674736e+00
   1.317077e+01   1.162965e+01
  -7.538992e+00   1.125273e+01
  -1.711660e+01   6.274813e+00
  -6.817791e+00   1.591370e+00
   8.954554e+00   3.498187e-01
   9.388670e+00   3.476569e+00
  -7.669528e+00   7.554492e+00
  -2.306899e+01   4.954665e+00
