
 $NMID
 id='ANONYMOUS ', fmtdat='(2E16.6)'
 volume=1.0
 tramp=1.0
 $END
   4.584269e+03   1.190453e+02
   2.531346e+03   2.853326e+03
  -9.395283e+02   2.832845e+03
  -2.255285e+03   7.570645e+02
  -8.837014e+02  -8.061104e+02
   8.084119e+02  -5.778276e+02
   9.486317e+02   5.466754e+02
  -7.490313e+01   1.156947e+03
  -9.269761e+02   7.809597e+02
  -9.816560e+02  -1.625413e+02
  -4.188089e+02  -9.391367e+02
   3.152888e+02  -9.172943e+02
   6.939541e+02  -6.986051e+01
   3.764240e+02   7.946060e+02
  -3.255321e+02   7.778025e+02
  -6.421028e+02  -4.530063e+01
  -2.485125e+02  -7.261878e+02
   3.691981e+02  -6.279490e+02
   5.982178e+02  -4.924098e+01
   3.678595e+02   3.851914e+02
  -1.164163e+01   4.469266e+02
  -2.684282e+02   2.579963e+02
  -2.316990e+02  -5.466362e+00
   1.224198e+02  -1.175789e+02
   4.449923e+02   1.074129e+02
   2.219861e+02   4.686016e+02
  -4.919084e+02   4.503766e+02
  -9.078228e+02  -9.075844e+01
  -4.466538e+02  -6.081018e+02
   4.386317e+02  -5.228954e+02
   8.019921e+02   5.092346e+01
   3.611697e+02   5.253866e+02
  -3.102175e+02   5.474079e+02
  -6.017484e+02   2.008252e+02
  -4.302070e+02  -2.545848e+02
  -5.187242e+01  -5.076639e+02
   2.380379e+02  -2.890251e+02
   1.924921e+02   2.582373e+02
  -1.934215e+02   4.848431e+02
  -4.992395e+02  -2.565296e+01
  -2.599838e+02  -7.433504e+02
   3.637441e+02  -7.457402e+02
   6.578483e+02   2.322715e+01
   2.606876e+02   6.140981e+02
  -3.352245e+02   3.383555e+02
  -4.165154e+02  -3.583070e+02
   8.026997e+01  -5.840393e+02
   5.894870e+02  -1.367047e+02
   6.152909e+02   4.342482e+02
   1.577890e+02   6.126774e+02
  -4.115285e+02   3.542922e+02
  -6.564853e+02  -9.213023e+01
  -3.729051e+02  -4.178574e+02
   1.869865e+02  -3.830767e+02
   4.739703e+02  -3.660555e+01
   2.360326e+02   2.297398e+02
  -1.475357e+02   1.116808e+02
  -1.521140e+02  -1.816646e+02
   1.895336e+02  -2.044721e+02
   3.705206e+02   9.191289e+01
   1.362046e+02   3.252086e+02
  -2.205200e+02   2.599742e+02
  -3.314297e+02   6.083344e+01
  -1.874437e+02  -8.225519e+01
   2.203997e+01  -2.094045e+02
   2.104477e+02  -3.259429e+02
   3.421475e+02  -2.309471e+02
   3.063568e+02   1.394599e+02
   7.766885e+01   4.582141e+02
  -1.373817e+02   3.959065e+02
  -1.364863e+02   9.765988e+01
  -1.583550e+01  -3.046304e+01
  -2.571724e+01   8.978197e+01
  -1.939092e+02   1.478764e+02
  -2.943203e+02  -4.506139e+01
  -1.723574e+02  -2.823617e+02
   7.389178e+01  -2.740260e+02
   2.417731e+02  -1.674726e+01
   2.115382e+02   2.493342e+02
  -8.085132e+00   3.103055e+02
  -2.784131e+02   1.258171e+02
  -3.756924e+02  -1.741430e+02
  -1.879225e+02  -3.679626e+02
   1.132809e+02  -3.154171e+02
   2.394583e+02  -1.124444e+02
   1.488084e+02   8.535493e+00
   8.973801e+01  -3.218060e+01
   2.304512e+02  -7.233797e+01
   4.054865e+02   5.181643e+01
   3.377419e+02   2.876564e+02
  -1.248153e-01   4.498508e+02
  -3.623833e+02   4.205456e+02
  -4.978760e+02   2.054132e+02
  -3.495561e+02  -9.783830e+01
  -5.750655e+01  -3.087082e+02
   1.436256e+02  -2.636411e+02
   9.549079e+01  -2.340031e+01
  -1.156113e+02   1.218706e+02
  -2.142027e+02  -5.890160e+00
  -5.426778e+01  -2.128889e+02
   1.782178e+02  -1.835832e+02
   1.945700e+02   6.907862e+01
  -2.093441e+01   2.087013e+02
  -2.064527e+02   3.625551e+01
  -1.661020e+02  -2.553164e+02
   3.647935e+01  -3.538603e+02
   2.308172e+02  -1.910645e+02
   3.223480e+02   6.319573e+01
   2.799964e+02   2.368738e+02
   1.018221e+02   2.664975e+02
  -1.136589e+02   1.666068e+02
  -1.863134e+02   2.144285e+01
  -6.290926e+01  -3.837767e+01
   7.590128e+01   3.625676e+01
   3.522011e+01   1.316485e+02
  -1.284963e+02   1.074001e+02
  -1.885189e+02  -1.305470e+01
  -6.298709e+01  -7.949391e+01
   8.272742e+01  -2.265366e+01
   6.048310e+01   7.097544e+01
  -1.190511e+02   8.838573e+01
  -2.807177e+02   4.464772e+00
  -2.677973e+02  -1.355527e+02
  -6.714926e+01  -2.574713e+02
   1.836222e+02  -2.699948e+02
   2.923035e+02  -1.320236e+02
   1.785884e+02   5.640489e+01
  -2.632588e+01   1.182675e+02
  -9.906831e+01   9.048277e+00
   3.041075e+01  -1.088318e+02
   2.023992e+02  -6.454215e+01
   2.213134e+02   1.057753e+02
   7.103405e+01   2.160602e+02
  -9.897180e+01   1.642574e+02
  -1.510984e+02   3.024280e+01
  -7.641855e+01  -4.545973e+01
   2.660292e+01  -9.800494e+00
   4.194796e+01   7.807487e+01
  -6.546628e+01   1.139350e+02
  -1.969123e+02   3.369997e+01
  -1.956164e+02  -1.221321e+02
  -2.304785e+01  -2.227657e+02
   1.694814e+02  -1.679795e+02
   2.005159e+02  -3.370083e+00
   6.665721e+01   1.216377e+02
  -7.034957e+01   1.163472e+02
  -8.812621e+01   3.115295e+01
  -2.271839e+01  -2.811194e+01
   1.884495e+01  -2.240102e+01
  -8.389808e+00   3.762848e+00
  -6.567608e+01  -9.627712e+00
  -8.493213e+01  -7.806055e+01
  -1.752313e+01  -1.543062e+02
   1.220748e+02  -1.536271e+02
   2.340803e+02  -3.017594e+01
   2.055412e+02   1.490182e+02
   4.254901e+01   2.410420e+02
  -1.125780e+02   1.727770e+02
  -1.383132e+02   2.577843e+01
  -6.925243e+01  -5.867096e+01
  -2.682456e+01  -3.735296e+01
  -5.282229e+01   1.175822e+01
  -7.795342e+01   6.849170e+00
  -3.906543e+01  -4.664139e+01
   4.125240e+01  -8.319439e+01
   9.637028e+01  -5.397574e+01
   8.106721e+01   3.122258e+01
  -1.058428e+01   1.058466e+02
  -1.356364e+02   8.696135e+01
  -1.963624e+02  -4.614242e+01
  -1.057511e+02  -1.998867e+02
   1.021495e+02  -2.325056e+02
   2.687427e+02  -1.004341e+02
   2.623065e+02   8.618258e+01
   1.122497e+02   1.805041e+02
  -3.954374e+01   1.504295e+02
  -9.701658e+01   8.496647e+01
  -8.211764e+01   6.864393e+01
  -6.881458e+01   8.934092e+01
  -9.258043e+01   7.254754e+01
  -1.270924e+02  -2.287662e+01
  -1.170734e+02  -1.542885e+02
  -3.009843e+01  -2.268713e+02
   9.918784e+01  -1.740605e+02
   1.781316e+02  -2.222094e+01
   1.395768e+02   1.218422e+02
   2.116030e+01   1.618788e+02
  -6.679727e+01   9.603709e+01
  -6.111869e+01   4.277001e+00
  -7.874838e+00  -4.103725e+01
   6.698858e+00  -3.579776e+01
  -3.752255e+01  -2.062483e+01
  -7.743149e+01  -2.352207e+01
  -4.354482e+01  -3.730161e+01
   6.124996e+01  -3.692961e+01
   1.545306e+02  -5.340384e+00
   1.438927e+02   4.854081e+01
   1.973677e+01   8.788778e+01
  -1.174530e+02   7.529278e+01
  -1.457822e+02   1.511668e+01
  -5.026120e+01  -3.927208e+01
   5.955386e+01  -3.589132e+01
   7.516400e+01   1.907218e+01
   5.625346e+00   6.598751e+01
  -5.707400e+01   5.495719e+01
  -6.155862e+01  -2.678355e+00
  -4.097176e+01  -4.857776e+01
  -4.239797e+01  -4.109671e+01
  -6.246043e+01  -3.156137e+00
  -6.631755e+01  -8.192383e-01
  -3.341624e+01  -6.553808e+01
   3.360132e+01  -1.429297e+02
   1.136959e+02  -1.403321e+02
   1.600309e+02  -3.436289e+01
   1.213763e+02   8.940866e+01
   8.046759e+00   1.246286e+02
  -8.353717e+01   6.010173e+01
  -5.874975e+01  -1.575631e+01
   5.915130e+01  -1.966126e+01
   1.377118e+02   4.440948e+01
   7.669513e+01   1.080089e+02
  -8.032491e+01   1.131014e+02
  -1.919712e+02   5.318598e+01
  -1.644998e+02  -3.303259e+01
  -3.850005e+01  -8.767090e+01
   6.113759e+01  -7.243121e+01
   4.998145e+01  -9.129530e+00
  -3.790864e+01   2.599804e+01
  -8.942620e+01  -2.303178e+01
  -3.077557e+01  -1.182966e+02
   9.391462e+01  -1.519318e+02
   1.683249e+02  -5.892952e+01
   1.251489e+02   1.025761e+02
   7.931482e+00   1.975737e+02
  -8.679731e+01   1.440795e+02
  -1.050247e+02  -5.905684e+00
  -6.183156e+01  -1.178859e+02
  -1.680908e-01  -1.083276e+02
   4.509037e+01  -2.192372e+01
   5.345817e+01   3.170247e+01
   2.777199e+01   9.874000e+00
   3.856993e+00  -2.142129e+01
   1.896834e+01   1.267570e+01
   5.503236e+01   8.788775e+01
   4.345527e+01   1.113058e+02
  -4.513377e+01   4.657840e+01
  -1.381769e+02  -4.059470e+01
  -1.308664e+02  -7.237028e+01
  -1.755986e+01  -4.876490e+01
   8.908741e+01  -2.020018e+01
   8.882384e+01  -7.590389e+00
   9.757980e+00   5.734377e+00
  -3.958210e+01   2.191142e+01
  -1.352781e+01   1.986652e+01
   2.254431e+01  -1.766857e-01
  -5.943973e+00  -1.017798e+01
  -7.521151e+01  -6.202441e+00
  -9.044271e+01  -2.458995e+01
  -5.031417e+00  -7.839545e+01
   1.207656e+02  -1.109165e+02
   1.835460e+02  -5.548885e+01
   1.370649e+02   6.877090e+01
   2.286125e+01   1.612764e+02
  -7.860761e+01   1.475456e+02
  -1.126099e+02   5.613236e+01
  -7.981993e+01  -2.247944e+01
  -2.445982e+01  -3.459482e+01
   3.814280e+00  -7.076625e+00
  -9.744711e+00  -2.697643e+00
  -3.369409e+01  -4.512077e+01
  -2.335486e+01  -8.990252e+01
   2.942815e+01  -7.103267e+01
   8.082596e+01   2.003207e+01
   7.455833e+01   1.094562e+02
   1.036294e+00   1.109867e+02
  -8.290962e+01   2.041086e+01
  -1.001864e+02  -7.786557e+01
  -2.921495e+01  -1.023780e+02
   6.613785e+01  -5.252257e+01
   9.532446e+01   1.285725e+01
   3.779083e+01   4.817741e+01
  -3.155506e+01   4.908249e+01
  -2.913386e+01   2.842875e+01
   3.508985e+01   1.821558e+00
   6.891350e+01  -5.558483e+00
   1.406337e+01   2.418017e+01
  -7.936009e+01   6.506713e+01
  -1.144937e+02   5.925779e+01
  -6.210167e+01  -1.039526e+01
   1.657315e+01  -8.164291e+01
   5.164958e+01  -7.810808e+01
   3.422722e+01  -4.486994e+00
  -6.213100e-01   5.576225e+01
  -2.582869e+01   4.091373e+01
  -3.511236e+01  -2.024585e+01
  -2.546033e+01  -5.365830e+01
   2.835137e+00  -3.077488e+01
   3.240152e+01   9.512201e+00
   3.912130e+01   1.996423e+01
   2.075220e+01   3.503989e-01
  -4.517605e-01  -1.242670e+01
  -7.940923e+00   5.472222e+00
  -9.602880e+00   3.629354e+01
  -1.940186e+01   4.099223e+01
  -3.187584e+01   3.680840e+00
  -2.631725e+01  -4.612443e+01
   5.986516e+00  -5.929347e+01
   4.492005e+01  -1.844677e+01
   5.372375e+01   4.023519e+01
   1.241925e+01   6.285606e+01
  -5.406212e+01   3.298425e+01
  -8.657911e+01  -1.655218e+01
  -4.781782e+01  -4.413339e+01
   2.850465e+01  -3.905874e+01
   6.367492e+01  -1.915312e+01
   2.279591e+01  -4.563540e+00
  -3.838122e+01  -4.618184e+00
  -3.733581e+01  -1.841827e+01
   3.300161e+01  -3.132634e+01
   9.343528e+01  -1.723182e+01
