
 $NMID
 id='ANONYMOUS ', fmtdat='(2E16.6)'
 volume=1.0
 tramp=1.0
 $END
   3.054041e+02   2.386139e+01
   1.794886e+02   1.706163e+02
  -2.381769e+01   1.826094e+02
  -1.206200e+02   9.144309e+01
  -7.298195e+01   4.248087e+00
   1.236565e+01  -1.350699e+01
   3.541668e+01   2.181071e+01
  -4.389672e+00   5.569803e+01
  -4.948044e+01   4.852812e+01
  -5.944956e+01  -4.381687e-02
  -3.292622e+01  -5.157802e+01
   7.514722e+00  -5.801908e+01
   3.120288e+01  -1.045228e+01
   1.897950e+01   4.386094e+01
  -1.636678e+01   4.907002e+01
  -3.799736e+01   2.368124e+00
  -2.271674e+01  -4.638864e+01
   1.514795e+01  -5.281238e+01
   4.133544e+01  -1.960887e+01
   3.596540e+01   1.815733e+01
   8.492454e+00   3.196127e+01
  -1.325066e+01   2.037806e+01
  -7.739495e+00   4.096153e+00
   1.753445e+01   5.442558e+00
   2.822711e+01   2.471665e+01
   3.398717e-02   3.624151e+01
  -4.565723e+01   1.737823e+01
  -5.874476e+01  -1.975851e+01
  -1.948811e+01  -3.849115e+01
   3.420287e+01  -2.052212e+01
   4.942637e+01   1.487408e+01
   1.672171e+01   3.678462e+01
  -2.680961e+01   3.287005e+01
  -4.349108e+01   1.002245e+01
  -2.883359e+01  -1.722828e+01
  -4.340729e+00  -3.011391e+01
   7.088214e+00  -1.550641e+01
  -2.252958e+00   1.283407e+01
  -2.007673e+01   1.818146e+01
  -2.320298e+01  -1.461439e+01
  -1.077834e+00  -5.009032e+01
   2.795413e+01  -4.174460e+01
   3.345692e+01   4.572761e+00
   8.861534e+00   3.393031e+01
  -1.841654e+01   1.293745e+01
  -1.742811e+01  -2.829503e+01
   1.247343e+01  -3.739048e+01
   4.247886e+01  -3.717572e+00
   4.352221e+01   3.623145e+01
   1.162199e+01   4.596708e+01
  -2.954412e+01   2.319953e+01
  -4.744417e+01  -8.504869e+00
  -2.840356e+01  -2.561968e+01
   8.166302e+00  -2.071588e+01
   2.779305e+01  -4.228816e+00
   1.729495e+01   5.881605e+00
  -2.395038e+00   1.576382e+00
  -4.216166e+00  -7.300295e+00
   1.172820e+01  -6.015736e+00
   2.156920e+01   6.794282e+00
   9.436091e+00   1.925004e+01
  -1.494942e+01   2.103168e+01
  -2.971740e+01   1.071349e+01
  -2.266194e+01  -8.018963e+00
   1.187683e+00  -2.711582e+01
   2.545223e+01  -3.256781e+01
   3.365937e+01  -1.483586e+01
   2.178062e+01   1.554904e+01
   2.815912e+00   3.373495e+01
  -6.094918e+00   2.802663e+01
  -2.903900e+00   1.292648e+01
  -1.342947e+00   7.798521e+00
  -1.076915e+01   1.104954e+01
  -2.282450e+01   6.228065e+00
  -2.279073e+01  -1.096257e+01
  -8.193176e+00  -2.445158e+01
   9.661521e+00  -1.821066e+01
   1.823497e+01   4.010464e+00
   1.232833e+01   2.303068e+01
  -5.096735e+00   2.332821e+01
  -2.323565e+01   5.361341e+00
  -2.777938e+01  -1.690311e+01
  -1.370972e+01  -2.801130e+01
   6.545971e+00  -2.336018e+01
   1.557094e+01  -1.193219e+01
   1.221069e+01  -5.663780e+00
   1.217725e+01  -6.058485e+00
   2.469872e+01  -3.738406e+00
   3.685734e+01   8.813806e+00
   2.816742e+01   2.734385e+01
  -3.063006e+00   3.935116e+01
  -3.494271e+01   3.493934e+01
  -4.364997e+01   1.450803e+01
  -2.607343e+01  -1.036445e+01
  -8.709661e-01  -2.356456e+01
   1.022756e+01  -1.750935e+01
   1.970903e+00  -2.064311e+00
  -1.155046e+01   4.323003e+00
  -1.290885e+01  -4.332488e+00
  -5.365656e-02  -1.406454e+01
   1.237723e+01  -9.209316e+00
   1.042417e+01   6.198242e+00
  -3.727538e+00   1.261767e+01
  -1.533917e+01  -5.105604e-01
  -1.284565e+01  -2.166838e+01
   2.900187e+00  -3.031255e+01
   2.166382e+01  -1.793193e+01
   3.131249e+01   5.849797e+00
   2.463270e+01   2.379053e+01
   5.342970e+00   2.510196e+01
  -1.201357e+01   1.270137e+01
  -1.407483e+01  -1.288275e-01
  -3.082333e+00  -1.971928e+00
   5.015558e+00   5.647760e+00
  -4.215662e-01   1.084741e+01
  -1.182080e+01   6.019833e+00
  -1.366221e+01  -3.162440e+00
  -2.674519e+00  -5.678886e+00
   7.796804e+00   9.575809e-01
   3.748362e+00   8.494780e+00
  -1.320611e+01   7.914156e+00
  -2.704740e+01  -2.127465e+00
  -2.313289e+01  -1.564190e+01
  -2.306987e+00  -2.402927e+01
   1.934966e+01  -2.106078e+01
   2.491703e+01  -7.997185e+00
   1.244117e+01   5.087519e+00
  -3.368284e+00   7.359985e+00
  -6.265902e+00  -9.211980e-01
   5.106262e+00  -7.625330e+00
   1.717238e+01  -2.575214e+00
   1.679616e+01   1.020389e+01
   4.285546e+00   1.736019e+01
  -8.728434e+00   1.199921e+01
  -1.161924e+01   9.613989e-01
  -4.184310e+00  -3.854347e+00
   4.020244e+00   1.497535e+00
   2.751714e+00   9.803006e+00
  -8.626365e+00   1.073560e+01
  -1.906321e+01   9.912940e-01
  -1.622965e+01  -1.256156e+01
  -3.393574e-01  -1.894769e+01
   1.466649e+01  -1.300370e+01
   1.571187e+01  -1.240979e-01
   4.419986e+00   8.969038e+00
  -6.092813e+00   8.388878e+00
  -6.542489e+00   1.832842e+00
  -1.782130e-01  -2.543027e+00
   3.379336e+00  -1.067376e+00
  -5.469288e-01   2.100204e+00
  -7.582438e+00   1.857418e-01
  -9.226697e+00  -8.057161e+00
  -9.232044e-01  -1.567564e+01
   1.297489e+01  -1.367210e+01
   2.160209e+01  -5.430162e-01
   1.703128e+01   1.476941e+01
   2.613680e+00   2.066989e+01
  -9.708006e+00   1.394324e+01
  -1.159940e+01   2.283059e+00
  -6.242432e+00  -4.164933e+00
  -2.783798e+00  -2.637977e+00
  -4.947705e+00   1.178735e+00
  -7.782529e+00   5.625251e-01
  -4.932203e+00  -4.940505e+00
   3.507657e+00  -9.228946e+00
   1.075150e+01  -6.062677e+00
   9.473459e+00   3.771167e+00
  -1.475085e+00   1.151260e+01
  -1.462303e+01   8.057785e+00
  -1.847806e+01  -6.108320e+00
  -7.407715e+00  -1.947442e+01
   1.170609e+01  -1.991119e+01
   2.438983e+01  -6.727878e+00
   2.177458e+01   8.907126e+00
   8.319589e+00   1.560361e+01
  -4.091286e+00   1.229662e+01
  -8.217227e+00   6.826794e+00
  -6.450644e+00   5.887787e+00
  -5.428582e+00   8.126398e+00
  -8.172733e+00   6.829544e+00
  -1.162452e+01  -1.891444e+00
  -1.027062e+01  -1.398353e+01
  -1.846074e+00  -2.025718e+01
   9.448410e+00  -1.468866e+01
   1.541514e+01  -5.691785e-01
   1.113304e+01   1.179804e+01
   4.494258e-01   1.416168e+01
  -7.077114e+00   7.246221e+00
  -5.805502e+00  -1.270603e+00
   2.163764e-01  -4.851883e+00
   2.325684e+00  -3.418897e+00
  -2.373504e+00  -1.327203e+00
  -7.383801e+00  -1.726102e+00
  -4.377697e+00  -3.594705e+00
   6.508754e+00  -3.544609e+00
   1.548298e+01   2.710113e-01
   1.294699e+01   5.905162e+00
  -9.161766e-03   8.950563e+00
  -1.209562e+01   6.485882e+00
  -1.314019e+01   1.996364e-01
  -4.024689e+00  -4.600890e+00
   5.346355e+00  -3.735014e+00
   6.907530e+00   1.753326e+00
   1.554979e+00   6.399821e+00
  -4.185780e+00   5.576992e+00
  -6.024971e+00   1.397173e-01
  -4.977903e+00  -4.414629e+00
  -4.191881e+00  -3.891867e+00
  -4.971180e+00  -3.849731e-01
  -5.810927e+00  -2.562712e-01
  -3.837183e+00  -6.383918e+00
   2.643980e+00  -1.344711e+01
   1.138900e+01  -1.289256e+01
   1.609056e+01  -2.883323e+00
   1.148769e+01   8.597241e+00
   5.239819e-02   1.193036e+01
  -8.249718e+00   6.062974e+00
  -5.456930e+00  -1.067903e+00
   5.221006e+00  -1.698999e+00
   1.181874e+01   4.058733e+00
   6.061041e+00   9.719629e+00
  -7.732569e+00   9.592906e+00
  -1.707114e+01   3.499590e+00
  -1.398885e+01  -4.057507e+00
  -2.538957e+00  -7.769097e+00
   5.991768e+00  -5.402850e+00
   4.471172e+00   1.710477e-01
  -3.565102e+00   2.687348e+00
  -8.166021e+00  -1.889989e+00
  -3.255926e+00  -1.027213e+01
   7.367331e+00  -1.352968e+01
   1.407238e+01  -5.799581e+00
   1.094414e+01   8.392652e+00
   9.829716e-01   1.704460e+01
  -7.639279e+00   1.229441e+01
  -9.299114e+00  -1.211711e+00
  -4.712948e+00  -1.088781e+01
   1.376450e+00  -9.323514e+00
   4.677716e+00  -1.327449e+00
   4.027781e+00   3.069608e+00
   1.521875e+00   8.522470e-01
   5.998141e-01  -1.598710e+00
   2.695772e+00   1.745553e+00
   4.968767e+00   8.075169e+00
   2.630729e+00   9.593011e+00
  -5.041092e+00   3.822301e+00
  -1.196004e+01  -3.627950e+00
  -1.078561e+01  -6.530775e+00
  -1.583412e+00  -4.728990e+00
   7.184798e+00  -1.999651e+00
   7.733011e+00  -3.194657e-01
   1.550738e+00   9.268229e-01
  -3.137681e+00   1.775386e+00
  -1.807373e+00   1.223067e+00
   1.326491e+00  -1.984247e-01
  -2.047923e-01  -5.708699e-01
  -5.880859e+00  -1.787656e-01
  -8.179360e+00  -2.063389e+00
  -1.729637e+00  -7.006221e+00
   9.720023e+00  -1.012142e+01
   1.666154e+01  -5.620989e+00
   1.326944e+01   5.289937e+00
   2.552770e+00   1.409356e+01
  -7.272168e+00   1.365370e+01
  -1.032722e+01   5.663394e+00
  -7.087442e+00  -1.832312e+00
  -2.328770e+00  -3.372328e+00
  -2.370924e-01  -1.048360e+00
  -1.268809e+00  -6.849566e-01
  -2.682790e+00  -4.439562e+00
  -1.486582e+00  -8.196312e+00
   2.705179e+00  -6.331820e+00
   6.895323e+00   1.506829e+00
   6.828630e+00   9.116625e+00
   1.025801e+00   9.657070e+00
  -6.587258e+00   2.577874e+00
  -9.101364e+00  -5.907622e+00
  -3.376505e+00  -9.060674e+00
   5.622081e+00  -5.538938e+00
   9.105406e+00   7.329362e-01
   4.068748e+00   5.054454e+00
  -2.951236e+00   5.393402e+00
  -3.531542e+00   2.684191e+00
   2.283927e+00  -3.262025e-01
   6.042532e+00  -6.764253e-01
   1.610269e+00   2.371761e+00
  -7.062731e+00   5.699431e+00
  -1.086755e+01   4.680303e+00
  -6.336988e+00  -1.444027e+00
   1.290503e+00  -7.483304e+00
   5.162898e+00  -7.366426e+00
   3.839770e+00  -1.174532e+00
   4.813752e-01   4.570180e+00
  -2.076181e+00   4.182976e+00
  -3.116976e+00  -9.994731e-01
  -2.454667e+00  -4.772709e+00
   7.288519e-03  -3.450847e+00
   2.893698e+00   5.010582e-01
   3.753535e+00   2.237497e+00
   1.905466e+00   4.301603e-01
  -3.964166e-01  -1.679731e+00
  -7.746311e-01  -6.869932e-01
   1.583205e-01   2.686018e+00
  -1.329467e-01   4.361291e+00
  -2.207142e+00   1.731465e+00
  -3.350792e+00  -3.030198e+00
  -9.589782e-01  -5.069897e+00
   3.540557e+00  -2.135585e+00
   5.383093e+00   2.931573e+00
   1.599076e+00   5.303821e+00
  -5.040352e+00   3.160280e+00
  -8.170216e+00  -1.061142e+00
  -4.444978e+00  -3.867181e+00
   2.506848e+00  -3.980225e+00
   5.711787e+00  -2.397594e+00
   2.511961e+00  -6.526702e-01
  -2.485443e+00   8.271899e-02
  -2.835034e+00  -7.333362e-01
   2.230585e+00  -2.135566e+00
   7.026114e+00  -1.556513e+00
