
 $NMID
 id='ANONYMOUS ', fmtdat='(2E16.6)'
 volume=1.0
 tramp=1.0
 $END
   3.360587e+03   2.527650e+01
   2.028183e+03   1.935244e+03
  -4.011892e+02   2.126226e+03
  -1.532201e+03   8.667688e+02
  -8.103961e+02  -2.891805e+02
   3.404154e+02  -3.701007e+02
   5.912678e+02   2.686834e+02
   7.394600e+00   7.468115e+02
  -5.922893e+02   5.995453e+02
  -7.094981e+02  -2.817889e+01
  -3.749173e+02  -6.283717e+02
   1.321176e+02  -6.842559e+02
   4.392323e+02  -1.187715e+02
   2.810378e+02   5.207175e+02
  -1.855676e+02   5.746524e+02
  -4.558706e+02   1.904785e+01
  -2.387753e+02  -5.235361e+02
   2.166461e+02  -5.394477e+02
   4.642230e+02  -1.355611e+02
   3.487833e+02   2.468417e+02
   4.966522e+01   3.505492e+02
  -1.697074e+02   2.194365e+02
  -1.368171e+02   3.413472e+01
   1.191482e+02  -1.311430e+01
   3.044415e+02   1.521973e+02
   9.806996e+01   3.471303e+02
  -3.991627e+02   2.690007e+02
  -6.472397e+02  -1.057821e+02
  -2.981487e+02  -4.122381e+02
   3.159785e+02  -3.209032e+02
   5.591168e+02   6.601464e+01
   2.432360e+02   3.764115e+02
  -2.383260e+02   3.876970e+02
  -4.501517e+02   1.458880e+02
  -3.251690e+02  -1.755468e+02
  -6.251773e+01  -3.543509e+02
   1.178830e+02  -2.108932e+02
   7.851283e+01   1.454904e+02
  -1.480235e+02   2.838135e+02
  -3.033912e+02  -5.736091e+01
  -1.319862e+02  -5.240883e+02
   2.545766e+02  -5.161389e+02
   4.293474e+02   4.810257e-01
   1.757874e+02   3.993669e+02
  -2.059217e+02   2.153720e+02
  -2.608435e+02  -2.617460e+02
   7.516812e+01  -4.169114e+02
   4.399023e+02  -8.827214e+01
   4.711567e+02   3.400902e+02
   1.351493e+02   4.732577e+02
  -3.021781e+02   2.692221e+02
  -5.021926e+02  -6.339574e+01
  -3.078828e+02  -2.887015e+02
   9.880060e+01  -2.682855e+02
   3.306355e+02  -5.487901e+01
   1.991643e+02   1.159736e+02
  -6.119692e+01   6.540298e+01
  -9.306327e+01  -9.826927e+01
   1.202583e+02  -1.190441e+02
   2.591508e+02   5.608380e+01
   1.148592e+02   2.233606e+02
  -1.596122e+02   2.166576e+02
  -2.878943e+02   8.028203e+01
  -1.890418e+02  -7.869734e+01
   2.276082e+01  -2.215115e+02
   2.143317e+02  -2.886276e+02
   2.988394e+02  -1.659297e+02
   2.298784e+02   1.261798e+02
   5.601358e+01   3.484514e+02
  -7.520201e+01   3.073809e+02
  -7.327830e+01   1.153064e+02
  -2.485792e+01   2.730514e+01
  -6.736531e+01   8.248795e+01
  -1.840949e+02   8.572675e+01
  -2.253456e+02  -6.764420e+01
  -1.128727e+02  -2.273014e+02
   6.970565e+01  -1.985699e+02
   1.825387e+02   8.332925e+00
   1.475171e+02   2.073768e+02
  -2.219443e+01   2.370414e+02
  -2.213343e+02   8.089442e+01
  -2.900017e+02  -1.462451e+02
  -1.519352e+02  -2.839446e+02
   7.110107e+01  -2.486317e+02
   1.757173e+02  -1.130321e+02
   1.282322e+02  -2.724724e+01
   1.006098e+02  -3.940456e+01
   2.133138e+02  -4.469760e+01
   3.438223e+02   6.337443e+01
   2.771400e+02   2.486995e+02
  -1.180479e+01   3.750769e+02
  -3.157201e+02   3.438660e+02
  -4.138358e+02   1.593272e+02
  -2.701656e+02  -8.359359e+01
  -3.371682e+01  -2.373088e+02
   1.007789e+02  -1.975320e+02
   4.797844e+01  -2.757017e+01
  -9.653785e+01   6.993559e+01
  -1.466595e+02  -1.603870e+01
  -2.874309e+01  -1.505043e+02
   1.246918e+02  -1.248925e+02
   1.308178e+02   5.005053e+01
  -1.926307e+01   1.452245e+02
  -1.556146e+02   1.661760e+01
  -1.340639e+02  -2.082116e+02
   2.561420e+01  -2.950629e+02
   2.013700e+02  -1.671470e+02
   2.870396e+02   5.556457e+01
   2.348158e+02   2.126018e+02
   6.790480e+01   2.284592e+02
  -1.026321e+02   1.293689e+02
  -1.431456e+02   1.190269e+01
  -4.255347e+01  -2.212418e+01
   5.323861e+01   4.057789e+01
   1.378349e+01   1.032377e+02
  -1.064321e+02   7.374734e+01
  -1.422131e+02  -1.651443e+01
  -4.074439e+01  -5.681225e+01
   6.900122e+01  -4.300321e+00
   4.117288e+01   6.904236e+01
  -1.137029e+02   7.318105e+01
  -2.459067e+02  -9.376153e+00
  -2.207557e+02  -1.305940e+02
  -3.895912e+01  -2.197197e+02
   1.660184e+02  -2.121283e+02
   2.376199e+02  -9.626933e+01
   1.344901e+02   4.326287e+01
  -2.326681e+01   8.348253e+01
  -6.928150e+01   2.426692e+00
   3.494049e+01  -7.956041e+01
   1.636754e+02  -4.105804e+01
   1.730738e+02   8.914514e+01
   5.349841e+01   1.712916e+02
  -7.966442e+01   1.269666e+02
  -1.169521e+02   1.994563e+01
  -5.218585e+01  -3.425093e+01
   2.824746e+01   5.271194e+00
   2.803327e+01   7.931806e+01
  -6.960329e+01   9.707338e+01
  -1.724904e+02   1.807873e+01
  -1.590494e+02  -1.096367e+02
  -1.335343e+01  -1.826490e+02
   1.385364e+02  -1.343515e+02
   1.592468e+02  -5.628155e+00
   5.179493e+01   9.180181e+01
  -5.595259e+01   8.950077e+01
  -6.701759e+01   2.371267e+01
  -1.012841e+01  -2.189719e+01
   2.341566e+01  -1.259842e+01
  -8.030718e+00   1.236925e+01
  -6.572159e+01  -4.397233e+00
  -7.979875e+01  -7.314129e+01
  -1.053925e+01  -1.399731e+02
   1.132681e+02  -1.288906e+02
   2.000403e+02  -1.549605e+01
   1.674417e+02   1.313735e+02
   3.263871e+01   1.991110e+02
  -9.129604e+01   1.405208e+02
  -1.136540e+02   2.351055e+01
  -6.073214e+01  -4.411359e+01
  -2.576873e+01  -2.850933e+01
  -4.615342e+01   1.072230e+01
  -7.033854e+01   5.157435e+00
  -3.993802e+01  -4.491965e+01
   3.565663e+01  -8.027425e+01
   9.380589e+01  -5.040682e+01
   7.931966e+01   3.346213e+01
  -1.328188e+01   9.988736e+01
  -1.277906e+02   7.350845e+01
  -1.698479e+02  -4.908319e+01
  -7.912222e+01  -1.752881e+02
   9.752391e+01  -1.912292e+02
   2.274341e+02  -7.534893e+01
   2.139605e+02   7.596048e+01
   8.855237e+01   1.483392e+02
  -3.427160e+01   1.218281e+02
  -7.889302e+01   6.951430e+01
  -6.469476e+01   5.863484e+01
  -5.451870e+01   7.793969e+01
  -7.819224e+01   6.414431e+01
  -1.097790e+02  -1.820654e+01
  -9.936495e+01  -1.313207e+02
  -2.276093e+01  -1.918148e+02
   8.531398e+01  -1.436810e+02
   1.473151e+02  -1.340657e+01
   1.117353e+02   1.059168e+02
   1.206012e+01   1.344701e+02
  -6.035714e+01   7.415926e+01
  -5.188711e+01  -4.698118e+00
  -1.009792e+00  -3.982596e+01
   1.442915e+01  -2.970653e+01
  -2.767642e+01  -1.363892e+01
  -6.877294e+01  -1.815207e+01
  -3.943942e+01  -3.331972e+01
   5.737061e+01  -3.188780e+01
   1.390502e+02   1.221278e-01
   1.214365e+02   4.841444e+01
   7.185279e+00   7.823025e+01
  -1.072607e+02   6.179393e+01
  -1.232342e+02   7.825264e+00
  -3.944711e+01  -3.809262e+01
   5.114871e+01  -3.353289e+01
   6.496996e+01   1.622169e+01
   9.942719e+00   5.979689e+01
  -4.433984e+01   5.146673e+01
  -5.544549e+01  -5.661077e-01
  -4.171134e+01  -4.289444e+01
  -3.811298e+01  -3.625218e+01
  -4.996641e+01  -2.150481e+00
  -5.564154e+01  -1.086860e+00
  -3.254158e+01  -5.914539e+01
   2.664332e+01  -1.255981e+02
   1.024495e+02  -1.205085e+02
   1.447533e+02  -2.730239e+01
   1.063735e+02   7.908803e+01
   3.376082e+00   1.092448e+02
  -7.541752e+01   5.427046e+01
  -5.149471e+01  -1.155724e+01
   4.981136e+01  -1.686814e+01
   1.148727e+02   3.685645e+01
   6.183906e+01   9.088845e+01
  -6.987413e+01   9.351112e+01
  -1.611927e+02   4.019731e+01
  -1.353487e+02  -3.188739e+01
  -2.881744e+01  -7.302934e+01
   5.305705e+01  -5.602067e+01
   4.140469e+01  -3.092131e+00
  -3.338645e+01   2.399068e+01
  -7.728568e+01  -1.839033e+01
  -2.978566e+01  -9.949947e+01
   7.374617e+01  -1.307189e+02
   1.385387e+02  -5.492077e+01
   1.067415e+02   8.233488e+01
   1.001219e+01   1.652569e+02
  -7.173076e+01   1.203068e+02
  -8.819947e+01  -7.734642e+00
  -4.884054e+01  -1.008002e+02
   5.816792e+00  -8.882946e+01
   4.080071e+01  -1.503017e+01
   4.163524e+01   2.701255e+01
   1.888076e+01   7.023278e+00
   4.089696e+00  -1.637631e+01
   2.058692e+01   1.485727e+01
   4.737063e+01   7.560483e+01
   3.172466e+01   9.126760e+01
  -4.281970e+01   3.708068e+01
  -1.158467e+02  -3.326461e+01
  -1.071248e+02  -6.008864e+01
  -1.490142e+01  -4.326638e+01
   7.196691e+01  -1.956492e+01
   7.409458e+01  -5.417235e+00
   1.130343e+01   7.654009e+00
  -3.132520e+01   1.840159e+01
  -1.379764e+01   1.354202e+01
   1.590966e+01  -1.965567e+00
  -3.845812e+00  -6.556253e+00
  -6.020025e+01  -1.999209e+00
  -7.773173e+01  -1.979676e+01
  -1.121385e+01  -6.807374e+01
   9.688742e+01  -9.733683e+01
   1.578471e+02  -5.138593e+01
   1.231169e+02   5.447513e+01
   2.335778e+01   1.360198e+02
  -6.773469e+01   1.280963e+02
  -9.750167e+01   5.141750e+01
  -6.800901e+01  -1.769539e+01
  -2.143327e+01  -3.085475e+01
   7.448473e-01  -8.776312e+00
  -9.825623e+00  -4.910799e+00
  -2.683898e+01  -3.987359e+01
  -1.721384e+01  -7.650004e+01
   2.496352e+01  -6.044837e+01
   6.754533e+01   1.475880e+01
   6.566785e+01   8.949394e+01
   6.553520e+00   9.412502e+01
  -6.709541e+01   2.257674e+01
  -8.761353e+01  -6.049599e+01
  -2.943957e+01  -8.731631e+01
   5.542103e+01  -4.966771e+01
   8.459246e+01   8.901844e+00
   3.510949e+01   4.529287e+01
  -2.831422e+01   4.688426e+01
  -2.944860e+01   2.406880e+01
   2.610648e+01  -2.066884e+00
   5.820778e+01  -6.184334e+00
   1.366312e+01   2.193725e+01
  -6.684353e+01   5.529332e+01
  -9.957324e+01   4.731427e+01
  -5.630053e+01  -1.192572e+01
   1.284487e+01  -7.071367e+01
   4.664674e+01  -6.811370e+01
   3.387987e+01  -7.068717e+00
   2.973827e+00   4.595176e+01
  -2.113263e+01   3.787658e+01
  -3.078109e+01  -1.290347e+01
  -2.291843e+01  -4.557830e+01
   1.752940e+00  -3.000246e+01
   2.799832e+01   6.132492e+00
   3.420485e+01   1.931414e+01
   1.747578e+01   2.237983e+00
  -1.629984e+00  -1.383066e+01
  -5.757455e+00  -1.296677e+00
  -2.209874e+00   2.924291e+01
  -8.950816e+00   4.027221e+01
  -2.540349e+01   1.110316e+01
  -2.890861e+01  -3.467320e+01
  -3.054025e+00  -5.096918e+01
   3.625005e+01  -1.894537e+01
   4.961696e+01   3.119314e+01
   1.376172e+01   5.235733e+01
  -4.707980e+01   2.923504e+01
  -7.640234e+01  -1.191997e+01
  -4.190202e+01  -3.705560e+01
   2.434562e+01  -3.591786e+01
   5.491697e+01  -2.011966e+01
   2.202893e+01  -4.734742e+00
  -2.846387e+01  -1.579686e-01
  -3.035116e+01  -1.028838e+01
   2.353175e+01  -2.429565e+01
   7.272947e+01  -1.677082e+01
