
 $NMID
 id='ANONYMOUS ', fmtdat='(2E16.6)'
 volume=1.0
 tramp=1.0
 $END
   2.793142e+03   6.720466e+01
   1.955066e+03   1.273628e+03
   2.873390e+02   1.759366e+03
  -8.927376e+02   1.373868e+03
  -9.421242e+02   5.475108e+02
  -3.090622e+02  -4.200746e+01
   1.567590e+02  -2.794837e+01
   7.428545e+01   3.423533e+02
  -2.998911e+02   4.975684e+02
  -5.279236e+02   1.601301e+02
  -4.226834e+02  -3.674761e+02
  -1.045602e+02  -5.526284e+02
   1.693650e+02  -2.139730e+02
   1.899336e+02   2.949948e+02
  -5.374848e+01   4.591081e+02
  -3.230346e+02   1.146278e+02
  -3.087773e+02  -4.065571e+02
   4.213515e+01  -6.170175e+02
   4.191223e+02  -3.500121e+02
   4.632827e+02   1.029027e+02
   1.786273e+02   3.297799e+02
  -7.351499e+01   2.390090e+02
  -1.601806e+01   1.026463e+02
   2.081267e+02   1.689040e+02
   2.237944e+02   3.426855e+02
  -1.014432e+02   3.354176e+02
  -4.767526e+02   6.341213e+01
  -5.081991e+02  -2.359491e+02
  -1.360578e+02  -2.920167e+02
   2.984132e+02  -8.920564e+01
   4.051016e+02   1.750438e+02
   1.228599e+02   3.182239e+02
  -2.574294e+02   2.814599e+02
  -4.104236e+02   9.588314e+01
  -2.824229e+02  -1.345929e+02
  -8.538026e+01  -2.452217e+02
  -3.171673e+01  -1.422832e+02
  -1.215071e+02   4.340244e+01
  -1.892078e+02   5.010732e+01
  -1.093632e+02  -1.924125e+02
   7.914950e+01  -4.212246e+02
   2.279577e+02  -3.350257e+02
   2.186938e+02   7.885168e+00
   6.189643e+01   2.236861e+02
  -9.928158e+01   6.763638e+01
  -8.968866e+01  -2.530793e+02
   1.348793e+02  -3.242872e+02
   3.998413e+02  -2.058091e+01
   4.358736e+02   3.605160e+02
   1.450837e+02   4.582920e+02
  -2.671224e+02   2.321672e+02
  -4.693059e+02  -6.381353e+01
  -3.209875e+02  -2.009617e+02
   7.503869e+00  -1.704255e+02
   2.257642e+02  -8.987214e+01
   2.033464e+02  -3.548549e+01
   5.669278e+01  -1.153487e+01
  -9.777872e+00  -7.640142e+00
   7.443401e+01  -5.954643e+00
   1.775225e+02   3.963121e+01
   1.144012e+02   1.496248e+02
  -1.303687e+02   2.376702e+02
  -3.449926e+02   1.606971e+02
  -2.934389e+02  -1.013435e+02
   1.906637e+01  -3.604666e+02
   3.280575e+02  -3.824496e+02
   3.846007e+02  -1.340435e+02
   2.095322e+02   1.784115e+02
   2.916908e+01   3.283382e+02
  -9.295936e+00   2.858462e+02
   1.899403e+01   1.916164e+02
  -3.412880e+01   1.535072e+02
  -1.774834e+02   1.291601e+02
  -2.765230e+02   2.185514e+01
  -2.249245e+02  -1.541818e+02
  -5.579713e+01  -2.553579e+02
   1.110967e+02  -1.635783e+02
   1.754420e+02   6.809127e+01
   1.030612e+02   2.489868e+02
  -7.009773e+01   2.292815e+02
  -2.396470e+02   3.337343e+01
  -2.800552e+02  -1.811430e+02
  -1.527509e+02  -2.774626e+02
   3.666882e+01  -2.434411e+02
   1.412528e+02  -1.621586e+02
   1.431062e+02  -1.088078e+02
   1.683785e+02  -8.269455e+01
   2.983733e+02  -2.317998e+01
   4.145999e+02   1.178747e+02
   3.096363e+02   3.086661e+02
  -4.225565e+01   4.346648e+02
  -3.974303e+02   3.823767e+02
  -4.775121e+02   1.527051e+02
  -2.624850e+02  -1.105563e+02
   2.618693e+00  -2.330668e+02
   8.324153e+01  -1.686206e+02
  -1.865838e+01  -3.692903e+01
  -1.239075e+02   8.799607e+00
  -1.010568e+02  -5.676238e+01
   1.551457e+01  -1.189180e+02
   1.014559e+02  -7.005754e+01
   7.653051e+01   5.371730e+01
  -3.838778e+01   1.027885e+02
  -1.469813e+02  -1.889200e+01
  -1.406077e+02  -2.310131e+02
   2.065318e+01  -3.363957e+02
   2.489582e+02  -2.113361e+02
   3.707851e+02   6.496272e+01
   2.767997e+02   2.786550e+02
   4.078454e+01   2.831159e+02
  -1.399052e+02   1.294123e+02
  -1.393234e+02  -5.456640e+00
  -2.266413e+01  -7.466275e+00
   4.237350e+01   7.396046e+01
  -2.228026e+01   1.099992e+02
  -1.271728e+02   4.825882e+01
  -1.317300e+02  -3.835140e+01
  -1.632246e+01  -4.887786e+01
   8.492717e+01   2.813607e+01
   2.991690e+01   1.051342e+02
  -1.633812e+02   8.765412e+01
  -3.135712e+02  -3.707686e+01
  -2.535103e+02  -1.915519e+02
  -7.091449e+00  -2.701963e+02
   2.258071e+02  -2.181736e+02
   2.649538e+02  -7.553404e+01
   1.202590e+02   4.775641e+01
  -3.611534e+01   6.229044e+01
  -5.170455e+01  -1.433937e+01
   6.641328e+01  -6.976464e+01
   1.816296e+02  -1.547075e+01
   1.726589e+02   1.100294e+02
   4.391758e+01   1.792651e+02
  -8.975629e+01   1.216290e+02
  -1.161427e+02   6.763376e+00
  -3.241582e+01  -3.598500e+01
   5.117824e+01   3.391178e+01
   2.165469e+01   1.256610e+02
  -1.132472e+02   1.213721e+02
  -2.204401e+02   4.096967e-01
  -1.756582e+02  -1.458587e+02
   2.476613e-01  -2.049579e+02
   1.558352e+02  -1.392980e+02
   1.638271e+02  -8.559605e+00
   4.655841e+01   8.562333e+01
  -6.167672e+01   8.442680e+01
  -6.346839e+01   1.915434e+01
   8.836776e+00  -2.518380e+01
   4.653664e+01  -3.714347e+00
  -7.997988e+00   3.517072e+01
  -9.842675e+01   6.909638e+00
  -1.142514e+02  -9.892173e+01
  -6.457007e+00  -1.874891e+02
   1.561431e+02  -1.533268e+02
   2.441911e+02   3.291483e+00
   1.851303e+02   1.692791e+02
   2.899895e+01   2.255210e+02
  -1.013073e+02   1.516250e+02
  -1.259892e+02   3.004226e+01
  -7.415621e+01  -3.909816e+01
  -3.593413e+01  -2.565257e+01
  -5.736537e+01   1.486056e+01
  -9.286284e+01   6.287298e+00
  -6.432033e+01  -6.238921e+01
   3.999455e+01  -1.166964e+02
   1.358874e+02  -7.450850e+01
   1.198600e+02   5.093757e+01
  -2.132634e+01   1.422164e+02
  -1.795272e+02   9.142099e+01
  -2.123002e+02  -7.877394e+01
  -7.268959e+01  -2.243974e+02
   1.417964e+02  -2.176058e+02
   2.721511e+02  -6.742116e+01
   2.358659e+02   9.960775e+01
   8.843588e+01   1.678724e+02
  -4.445288e+01   1.319568e+02
  -8.701129e+01   7.543319e+01
  -6.561610e+01   6.846002e+01
  -5.532309e+01   9.560596e+01
  -9.092194e+01   8.159343e+01
  -1.339593e+02  -1.820108e+01
  -1.180242e+02  -1.565891e+02
  -2.061277e+01  -2.269892e+02
   1.052340e+02  -1.619890e+02
   1.683483e+02  -2.450473e+00
   1.187419e+02   1.337252e+02
   2.374733e-01   1.553670e+02
  -8.246526e+01   7.324320e+01
  -6.478210e+01  -2.385175e+01
   9.338387e+00  -6.039486e+01
   3.657385e+01  -3.711561e+01
  -2.218968e+01  -9.291341e+00
  -8.759367e+01  -1.637706e+01
  -5.287409e+01  -4.221636e+01
   7.967124e+01  -4.109537e+01
   1.840738e+02   7.323926e+00
   1.453157e+02   7.353569e+01
  -1.107911e+01   1.044629e+02
  -1.446779e+02   7.158811e+01
  -1.470213e+02  -1.890318e+00
  -4.157505e+01  -5.687382e+01
   6.081859e+01  -4.675596e+01
   7.966706e+01   1.886344e+01
   2.460316e+01   7.727231e+01
  -4.173809e+01   7.006906e+01
  -7.214018e+01   4.309078e+00
  -6.535517e+01  -5.187144e+01
  -5.041460e+01  -4.519714e+01
  -5.238227e+01  -2.558845e+00
  -6.474091e+01  -2.393590e+00
  -4.913759e+01  -7.628500e+01
   2.583318e+01  -1.576903e+02
   1.340546e+02  -1.483298e+02
   1.920369e+02  -3.173752e+01
   1.347941e+02   9.955790e+01
  -2.239246e+00   1.385353e+02
  -9.812661e+01   7.327714e+01
  -6.397211e+01  -9.093182e+00
   5.815727e+01  -2.025933e+01
   1.315409e+02   4.265232e+01
   6.591508e+01   1.073468e+02
  -8.756951e+01   1.061360e+02
  -1.892938e+02   3.617023e+01
  -1.526696e+02  -4.791630e+01
  -2.518561e+01  -8.508309e+01
   6.759588e+01  -5.493066e+01
   4.867447e+01   6.944542e+00
  -4.152534e+01   3.315425e+01
  -9.428188e+01  -1.873694e+01
  -4.304046e+01  -1.146396e+02
   7.370314e+01  -1.566643e+02
   1.529598e+02  -7.426711e+01
   1.259612e+02   8.708876e+01
   1.815533e+01   1.894396e+02
  -8.159159e+01   1.376310e+02
  -1.036133e+02  -1.550857e+01
  -5.024183e+01  -1.226097e+02
   2.117669e+01  -1.008325e+02
   5.533153e+01  -1.094980e+01
   4.122780e+01   3.370934e+01
   1.157766e+01   7.152853e+00
   7.336075e+00  -1.577781e+01
   3.585168e+01   2.489923e+01
   5.804217e+01   9.165075e+01
   2.508432e+01   1.032177e+02
  -6.164529e+01   4.034006e+01
  -1.338318e+02  -3.739128e+01
  -1.179041e+02  -6.986101e+01
  -1.839614e+01  -5.544878e+01
   7.643765e+01  -2.712704e+01
   8.544945e+01  -3.682770e+00
   2.111476e+01   1.403762e+01
  -3.225070e+01   2.052969e+01
  -2.272807e+01   9.666637e+00
   1.109503e+01  -5.080102e+00
  -1.129560e+00  -3.666084e+00
  -6.217853e+01   3.404358e+00
  -9.392838e+01  -2.074978e+01
  -2.914323e+01  -8.145889e+01
   1.013800e+02  -1.203387e+02
   1.901313e+02  -7.118084e+01
   1.594546e+02   5.345916e+01
   3.606859e+01   1.579433e+02
  -8.147597e+01   1.586509e+02
  -1.184371e+02   7.003137e+01
  -8.072344e+01  -1.784824e+01
  -2.747948e+01  -3.961997e+01
  -5.654274e+00  -1.553580e+01
  -1.607762e+01  -1.098298e+01
  -2.858577e+01  -5.143971e+01
  -1.477290e+01  -9.218226e+01
   2.951930e+01  -7.205634e+01
   7.694995e+01   1.298390e+01
   8.183829e+01   9.776475e+01
   2.021002e+01   1.093154e+02
  -7.038631e+01   3.706305e+01
  -1.074565e+02  -5.849010e+01
  -4.528783e+01  -1.027261e+02
   6.222075e+01  -6.982464e+01
   1.076732e+02   4.723574e+00
   5.000795e+01   6.222894e+01
  -3.494180e+01   6.768307e+01
  -4.532304e+01   3.023700e+01
   2.151015e+01  -8.973981e+00
   6.786765e+01  -1.045175e+01
   2.054512e+01   2.846524e+01
  -7.814000e+01   6.554992e+01
  -1.245289e+02   5.051129e+01
  -7.586894e+01  -1.957654e+01
   1.200582e+01  -8.653543e+01
   6.080183e+01  -8.588088e+01
   4.954273e+01  -1.740251e+01
   1.068939e+01   5.014476e+01
  -2.212297e+01   5.154986e+01
  -3.702239e+01  -5.530983e+00
  -3.007897e+01  -5.364383e+01
  -8.488706e-01  -4.386545e+01
   3.356142e+01   2.820175e+00
   4.368618e+01   2.772850e+01
   2.117516e+01   6.967703e+00
  -5.933361e+00  -2.313785e+01
  -6.956132e+00  -1.496068e+01
   9.824158e+00   2.898022e+01
   7.994179e+00   5.691986e+01
  -2.344395e+01   3.005858e+01
  -4.700690e+01  -2.878003e+01
  -2.173598e+01  -5.875228e+01
   3.761973e+01  -2.897738e+01
   6.655102e+01   2.896540e+01
   2.301990e+01   5.869544e+01
  -5.799563e+01   3.786553e+01
  -9.622681e+01  -8.340446e+00
  -5.244705e+01  -4.256655e+01
   2.815024e+01  -4.874452e+01
   6.557883e+01  -3.268992e+01
   3.168815e+01  -8.539892e+00
  -2.329202e+01   6.493865e+00
  -3.101568e+01  -9.830113e-01
   1.896196e+01  -2.206868e+01
   7.101963e+01  -2.208423e+01
