
 $NMID
 id='ANONYMOUS ', fmtdat='(2E16.6)'
 volume=1.0
 tramp=1.0
 $END
   1.726683e+03  -8.489447e+00
   1.190924e+03   8.118755e+02
   1.096046e+02   1.092149e+03
  -5.974087e+02   7.676016e+02
  -5.428708e+02   2.286576e+02
  -1.043690e+02  -6.956329e+01
   1.509859e+02   1.449564e+01
   4.433030e+01   2.539796e+02
  -2.071643e+02   3.147236e+02
  -3.356497e+02   7.975261e+01
  -2.518609e+02  -2.457693e+02
  -4.047535e+01  -3.451699e+02
   1.328625e+02  -1.197130e+02
   1.303905e+02   1.999480e+02
  -4.131883e+01   2.887049e+02
  -2.077201e+02   6.139230e+01
  -1.805482e+02  -2.523226e+02
   3.987085e+01  -3.579206e+02
   2.516159e+02  -1.859611e+02
   2.626554e+02   7.438565e+01
   9.392317e+01   1.969549e+02
  -5.284118e+01   1.410406e+02
  -2.425291e+01   5.356540e+01
   1.121831e+02   7.504422e+01
   1.452673e+02   1.748420e+02
  -3.010769e+01   1.993059e+02
  -2.693838e+02   6.919121e+01
  -3.203562e+02  -1.149412e+02
  -1.063564e+02  -1.846952e+02
   1.752781e+02  -8.645988e+01
   2.606374e+02   8.276735e+01
   9.290741e+01   1.929350e+02
  -1.451505e+02   1.833900e+02
  -2.462923e+02   6.898801e+01
  -1.748982e+02  -8.073095e+01
  -5.205385e+01  -1.582280e+02
  -2.341192e+00  -9.418108e+01
  -4.480565e+01   3.815789e+01
  -1.036231e+02   6.149162e+01
  -9.056041e+01  -9.320957e+01
   1.331480e+01  -2.613077e+02
   1.320111e+02  -2.247484e+02
   1.563555e+02  -1.421958e+00
   5.599660e+01   1.527928e+02
  -6.989318e+01   6.132335e+01
  -7.834105e+01  -1.479441e+02
   6.699091e+01  -2.049635e+02
   2.408717e+02  -2.651407e+01
   2.671353e+02   2.047504e+02
   9.085354e+01   2.714786e+02
  -1.591818e+02   1.460992e+02
  -2.829279e+02  -3.118963e+01
  -1.919990e+02  -1.260818e+02
   1.277206e+01  -1.144622e+02
   1.462348e+02  -5.286625e+01
   1.210388e+02  -4.359647e+00
   1.922991e+01   3.487514e+00
  -1.747229e+01  -1.504366e+01
   4.861954e+01  -1.940428e+01
   1.162172e+02   2.234444e+01
   7.056763e+01   9.647842e+01
  -7.801339e+01   1.400953e+02
  -1.957604e+02   8.885324e+01
  -1.615582e+02  -5.437696e+01
   8.498078e+00  -1.960449e+02
   1.757383e+02  -2.176257e+02
   2.147090e+02  -8.758835e+01
   1.284595e+02   9.601173e+01
   2.523944e+01   1.963156e+02
  -9.896546e+00   1.728387e+02
   1.203020e+00   1.044878e+02
  -1.835933e+01   7.517660e+01
  -8.986962e+01   7.169672e+01
  -1.509976e+02   2.373192e+01
  -1.343482e+02  -7.730554e+01
  -4.337755e+01  -1.462887e+02
   5.798062e+01  -1.023415e+02
   1.050490e+02   3.031852e+01
   6.952821e+01   1.403017e+02
  -3.229920e+01   1.371687e+02
  -1.386249e+02   2.877971e+01
  -1.691177e+02  -9.901833e+01
  -9.407837e+01  -1.631200e+02
   2.283179e+01  -1.456696e+02
   8.642165e+01  -9.199959e+01
   8.228729e+01  -5.577105e+01
   9.044871e+01  -4.494755e+01
   1.653124e+02  -1.948932e+01
   2.374621e+02   5.814921e+01
   1.826416e+02   1.714045e+02
  -1.604922e+01   2.500296e+02
  -2.203022e+02   2.258865e+02
  -2.725651e+02   9.688407e+01
  -1.575789e+02  -5.848689e+01
  -6.197623e+00  -1.381961e+02
   4.899043e+01  -1.048184e+02
  -2.947917e+00  -2.114540e+01
  -6.911354e+01   1.433811e+01
  -6.596093e+01  -2.660213e+01
   1.641868e+00  -7.417018e+01
   6.152376e+01  -5.005720e+01
   5.290163e+01   2.974910e+01
  -1.848371e+01   6.657266e+01
  -8.800303e+01  -4.632404e+00
  -8.523077e+01  -1.321067e+02
   8.867857e+00  -1.942596e+02
   1.390472e+02  -1.222886e+02
   2.096518e+02   3.327902e+01
   1.615275e+02   1.533932e+02
   3.075287e+01   1.598575e+02
  -7.639132e+01   7.807190e+01
  -8.287336e+01   8.589384e-01
  -1.620990e+01  -5.775468e+00
   2.709265e+01   3.886844e+01
  -7.221469e+00   6.418188e+01
  -7.175382e+01   3.327803e+01
  -7.961114e+01  -1.807816e+01
  -1.350605e+01  -2.947615e+01
   4.828431e+01   1.158024e+01
   2.014835e+01   5.714319e+01
  -8.941864e+01   5.168314e+01
  -1.772560e+02  -1.501716e+01
  -1.478177e+02  -1.026717e+02
  -1.128047e+01  -1.531330e+02
   1.232843e+02  -1.307593e+02
   1.521929e+02  -5.057063e+01
   7.360629e+01   2.596745e+01
  -1.869995e+01   3.992320e+01
  -3.286489e+01  -5.484729e+00
   3.429272e+01  -4.309719e+01
   1.047871e+02  -1.462336e+01
   1.035209e+02   6.021217e+01
   2.950561e+01   1.044548e+02
  -5.020230e+01   7.377872e+01
  -6.864670e+01   7.224876e+00
  -2.216936e+01  -2.044779e+01
   2.752451e+01   1.600430e+01
   1.479529e+01   6.815398e+01
  -6.016086e+01   6.980137e+01
  -1.242322e+02   4.886127e+00
  -1.034366e+02  -7.961845e+01
  -4.049950e+00  -1.183825e+02
   8.829071e+01  -8.372598e+01
   9.634620e+01  -6.807336e+00
   2.943272e+01   5.081873e+01
  -3.462478e+01   5.139218e+01
  -3.773350e+01   1.279836e+01
   2.520255e+00  -1.440694e+01
   2.446759e+01  -3.696566e+00
  -4.521176e+00   1.802821e+01
  -5.414861e+01   3.598603e+00
  -6.429443e+01  -5.415623e+01
  -6.306504e+00  -1.048415e+02
   8.523975e+01  -8.928015e+01
   1.388171e+02  -3.191065e+00
   1.091989e+02   9.315918e+01
   2.032694e+01   1.297579e+02
  -5.683346e+01   8.960012e+01
  -7.270784e+01   1.848735e+01
  -4.277185e+01  -2.295687e+01
  -2.035294e+01  -1.518929e+01
  -3.238955e+01   8.909023e+00
  -5.204950e+01   4.562272e+00
  -3.561748e+01  -3.413240e+01
   2.198220e+01  -6.494436e+01
   7.438252e+01  -4.239143e+01
   6.629641e+01   2.679137e+01
  -1.018242e+01   7.901769e+01
  -9.870467e+01   5.366653e+01
  -1.210278e+02  -4.052000e+01
  -4.629561e+01  -1.255950e+02
   7.573910e+01  -1.268918e+02
   1.544855e+02  -4.404349e+01
   1.379391e+02   5.309495e+01
   5.438740e+01   9.575061e+01
  -2.339418e+01   7.732584e+01
  -4.955857e+01   4.497494e+01
  -3.793993e+01   4.014327e+01
  -3.158588e+01   5.508463e+01
  -5.132954e+01   4.715623e+01
  -7.648505e+01  -9.271049e+00
  -6.930636e+01  -8.815004e+01
  -1.509626e+01  -1.296376e+02
   5.783727e+01  -9.476505e+01
   9.685929e+01  -4.841506e+00
   7.088660e+01   7.415291e+01
   3.471645e+00   8.920958e+01
  -4.504023e+01   4.433842e+01
  -3.682753e+01  -1.096826e+01
   3.635951e+00  -3.315532e+01
   1.842681e+01  -2.127912e+01
  -1.400784e+01  -5.703971e+00
  -4.970698e+01  -8.970435e+00
  -3.005987e+01  -2.331226e+01
   4.389409e+01  -2.397357e+01
   1.032849e+02   1.474893e+00
   8.370823e+01   3.868432e+01
  -3.137933e+00   5.846696e+01
  -8.006674e+01   4.265049e+01
  -8.395022e+01   1.802141e+00
  -2.489638e+01  -3.076036e+01
   3.430761e+01  -2.670105e+01
   4.552378e+01   9.940478e+00
   1.353330e+01   4.336428e+01
  -2.432224e+01   3.970098e+01
  -4.058732e+01   2.703067e+00
  -3.627680e+01  -2.896434e+01
  -2.878659e+01  -2.509146e+01
  -3.074008e+01  -7.981156e-01
  -3.719521e+01  -4.945937e-01
  -2.780553e+01  -4.251953e+01
   1.366485e+01  -8.963906e+01
   7.369766e+01  -8.571966e+01
   1.073221e+02  -2.025414e+01
   7.729265e+01   5.487352e+01
   9.022068e-01   7.827289e+01
  -5.445121e+01   4.202116e+01
  -3.643861e+01  -4.988498e+00
   3.314427e+01  -1.224232e+01
   7.627003e+01   2.296227e+01
   3.975215e+01   6.064385e+01
  -4.833630e+01   6.220609e+01
  -1.079916e+02   2.412668e+01
  -8.865785e+01  -2.450427e+01
  -1.636933e+01  -4.847583e+01
   3.743906e+01  -3.340187e+01
   2.788068e+01   2.269852e+00
  -2.321385e+01   1.892570e+01
  -5.390817e+01  -9.989788e+00
  -2.514813e+01  -6.553062e+01
   4.186107e+01  -9.043771e+01
   8.796715e+01  -4.337654e+01
   7.323840e+01   4.950926e+01
   1.195300e+01   1.089454e+02
  -4.542930e+01   8.026278e+01
  -5.951298e+01  -6.991988e+00
  -3.095571e+01  -6.917832e+01
   9.382228e+00  -5.829400e+01
   3.072579e+01  -7.577549e+00
   2.483791e+01   1.855992e+01
   7.878917e+00   3.987898e+00
   3.716029e+00  -9.481043e+00
   1.950611e+01   1.315619e+01
   3.404747e+01   5.157662e+01
   1.693290e+01   5.919652e+01
  -3.360861e+01   2.408344e+01
  -7.740739e+01  -2.004345e+01
  -6.926121e+01  -3.868419e+01
  -1.104889e+01  -3.107747e+01
   4.441686e+01  -1.606062e+01
   4.908584e+01  -3.407001e+00
   1.137018e+01   7.326221e+00
  -1.873155e+01   1.230123e+01
  -1.215193e+01   6.421649e+00
   7.149643e+00  -2.809611e+00
  -1.094251e+00  -2.494922e+00
  -3.658048e+01   2.126710e+00
  -5.382072e+01  -1.110054e+01
  -1.590454e+01  -4.633957e+01
   5.811999e+01  -6.961865e+01
   1.077488e+02  -4.179035e+01
   9.050974e+01   3.007225e+01
   2.158740e+01   9.039527e+01
  -4.473142e+01   9.098147e+01
  -6.674269e+01   4.043619e+01
  -4.641519e+01  -9.621092e+00
  -1.593054e+01  -2.204718e+01
  -2.665505e+00  -8.332810e+00
  -8.803800e+00  -5.585284e+00
  -1.725909e+01  -2.862877e+01
  -1.010639e+01  -5.236765e+01
   1.607383e+01  -4.153052e+01
   4.455880e+01   7.000407e+00
   4.760226e+01   5.593249e+01
   1.150703e+01   6.267697e+01
  -4.092711e+01   2.099520e+01
  -6.189673e+01  -3.368622e+01
  -2.598853e+01  -5.843986e+01
   3.527363e+01  -3.952746e+01
   6.092665e+01   2.156728e+00
   2.835388e+01   3.419237e+01
  -1.917734e+01   3.781953e+01
  -2.448373e+01   1.754675e+01
   1.327858e+01  -4.767397e+00
   3.886576e+01  -6.437097e+00
   1.159475e+01   1.582726e+01
  -4.407759e+01   3.841886e+01
  -6.992981e+01   3.087807e+01
  -4.260985e+01  -9.827186e+00
   6.244519e+00  -4.939459e+01
   3.325907e+01  -4.924188e+01
   2.722345e+01  -9.474120e+00
   5.963553e+00   2.910128e+01
  -1.244090e+01   2.906519e+01
  -2.128022e+01  -3.792844e+00
  -1.752044e+01  -3.041827e+01
  -6.010472e-01  -2.422619e+01
   1.923778e+01   1.708864e+00
   2.493679e+01   1.487337e+01
   1.210890e+01   3.283932e+00
  -3.170619e+00  -1.248371e+01
  -4.017015e+00  -7.039795e+00
   4.669822e+00   1.719391e+01
   3.147624e+00   3.166157e+01
  -1.393911e+01   1.571536e+01
  -2.597322e+01  -1.736712e+01
  -1.118307e+01  -3.371307e+01
   2.182774e+01  -1.636293e+01
   3.765772e+01   1.673968e+01
   1.315841e+01   3.374529e+01
  -3.254524e+01   2.197086e+01
  -5.460466e+01  -4.338241e+00
  -3.021604e+01  -2.392544e+01
   1.567944e+01  -2.756110e+01
   3.717862e+01  -1.850707e+01
   1.746224e+01  -4.886566e+00
  -1.443700e+01   3.360987e+00
  -1.839438e+01  -1.365260e+00
   1.149539e+01  -1.365097e+01
   4.203813e+01  -1.335583e+01
