
 $NMID
 id='ANONYMOUS ', fmtdat='(2E16.6)'
 volume=1.0
 tramp=1.0
 $END
  -4.664833e+03   1.523673e+02
  -2.807077e+03  -2.715303e+03
   6.931372e+02  -2.975118e+03
   2.233227e+03  -1.024422e+03
   1.035315e+03   6.700567e+02
  -6.855034e+02   6.360619e+02
  -9.658292e+02  -4.410162e+02
  -2.168074e+01  -1.145339e+03
   8.672119e+02  -8.625116e+02
   1.010602e+03   7.524779e+01
   5.086679e+02   9.140641e+02
  -2.329359e+02   9.629447e+02
  -6.805483e+02   1.421077e+02
  -4.336277e+02  -7.624402e+02
   2.679527e+02  -8.142730e+02
   6.537727e+02  -1.074987e+01
   3.145135e+02   7.259233e+02
  -3.278956e+02   6.936279e+02
  -6.247816e+02   1.183440e+02
  -4.286307e+02  -3.654216e+02
  -3.263194e+01  -4.691562e+02
   2.510553e+02  -2.909860e+02
   2.266132e+02  -2.530910e+01
  -1.215515e+02   9.453439e+01
  -4.412223e+02  -1.110080e+02
  -2.252705e+02  -4.580458e+02
   4.832044e+02  -4.559777e+02
   9.149292e+02   5.606104e+01
   4.784586e+02   5.767063e+02
  -4.079572e+02   5.308232e+02
  -8.023972e+02  -1.618446e+01
  -3.876165e+02  -5.078531e+02
   2.878449e+02  -5.659174e+02
   6.030658e+02  -2.350214e+02
   4.553483e+02   2.316916e+02
   9.159502e+01   5.080009e+02
  -2.037829e+02   3.117949e+02
  -1.896981e+02  -2.280093e+02
   1.648095e+02  -4.740776e+02
   4.796688e+02   7.268691e+00
   2.836813e+02   7.259354e+02
  -3.206856e+02   7.659273e+02
  -6.500344e+02   2.416049e+01
  -2.973081e+02  -5.876703e+02
   3.029013e+02  -3.530817e+02
   4.249712e+02   3.359183e+02
  -5.486315e+01   5.909391e+02
  -5.925033e+02   1.653074e+02
  -6.534678e+02  -4.177627e+02
  -1.984268e+02  -6.245364e+02
   3.995337e+02  -3.855107e+02
   6.797258e+02   5.840854e+01
   4.163477e+02   4.005505e+02
  -1.527650e+02   3.980491e+02
  -4.753957e+02   7.554626e+01
  -2.676470e+02  -2.027128e+02
   1.237010e+02  -1.198979e+02
   1.607464e+02   1.606013e+02
  -1.707265e+02   2.077892e+02
  -3.773310e+02  -6.744120e+01
  -1.632884e+02  -3.183473e+02
   2.115925e+02  -2.861178e+02
   3.541862e+02  -8.885404e+01
   2.127633e+02   8.584586e+01
  -2.069776e+01   2.393641e+02
  -2.243515e+02   3.551354e+02
  -3.529071e+02   2.465877e+02
  -3.179874e+02  -1.347096e+02
  -1.020373e+02  -4.655165e+02
   1.098043e+02  -4.185428e+02
   1.274057e+02  -1.262840e+02
   2.808248e+01   1.219740e+01
   4.178233e+01  -9.386555e+01
   2.026117e+02  -1.473891e+02
   3.011856e+02   4.416053e+01
   1.828806e+02   2.836157e+02
  -6.587137e+01   2.795510e+02
  -2.443153e+02   2.158361e+01
  -2.226897e+02  -2.502572e+02
  -1.344928e+00  -3.173174e+02
   2.811716e+02  -1.365923e+02
   3.943980e+02   1.650352e+02
   2.146921e+02   3.701721e+02
  -9.500996e+01   3.342293e+02
  -2.401648e+02   1.389631e+02
  -1.624134e+02   1.040399e+01
  -1.044794e+02   4.000121e+01
  -2.462489e+02   7.803022e+01
  -4.296687e+02  -4.528768e+01
  -3.658338e+02  -2.913186e+02
  -1.501331e+01  -4.728246e+02
   3.680273e+02  -4.549680e+02
   5.139174e+02  -2.337504e+02
   3.641737e+02   8.635110e+01
   7.070084e+01   3.135131e+02
  -1.301155e+02   2.774605e+02
  -8.818237e+01   3.528985e+01
   1.132223e+02  -1.211859e+02
   2.124280e+02  -2.208937e+00
   6.294098e+01   2.097616e+02
  -1.675405e+02   1.928445e+02
  -1.966723e+02  -5.805210e+01
   1.060307e+01  -2.094912e+02
   2.081341e+02  -4.369806e+01
   1.849813e+02   2.595081e+02
  -2.109978e+01   3.750049e+02
  -2.391573e+02   2.135438e+02
  -3.492363e+02  -5.552759e+01
  -3.043613e+02  -2.433643e+02
  -1.117119e+02  -2.770182e+02
   1.145298e+02  -1.760136e+02
   1.900388e+02  -2.971367e+01
   6.517242e+01   3.281963e+01
  -7.658661e+01  -3.784220e+01
  -3.751888e+01  -1.330191e+02
   1.287741e+02  -1.127466e+02
   1.928340e+02   6.117381e+00
   6.628399e+01   7.610465e+01
  -8.466180e+01   2.183247e+01
  -6.221509e+01  -7.499874e+01
   1.271337e+02  -9.663130e+01
   2.988404e+02  -1.066145e+01
   2.853051e+02   1.376760e+02
   7.489263e+01   2.685490e+02
  -1.853300e+02   2.861576e+02
  -2.984345e+02   1.472009e+02
  -1.854702e+02  -4.864905e+01
   2.148729e+01  -1.197772e+02
   9.829843e+01  -1.328589e+01
  -2.982565e+01   1.106729e+02
  -2.071512e+02   7.245754e+01
  -2.333053e+02  -1.009469e+02
  -8.301834e+01  -2.205386e+02
   9.495111e+01  -1.738509e+02
   1.538471e+02  -3.738672e+01
   7.843131e+01   4.193266e+01
  -2.854379e+01   5.640969e+00
  -4.343288e+01  -8.522371e+01
   7.004522e+01  -1.221540e+02
   2.081985e+02  -3.936902e+01
   2.090908e+02   1.227438e+02
   3.208537e+01   2.319262e+02
  -1.695730e+02   1.825098e+02
  -2.083726e+02   1.425225e+01
  -7.510956e+01  -1.211374e+02
   6.720555e+01  -1.230571e+02
   8.876077e+01  -3.648678e+01
   2.191492e+01   2.710530e+01
  -2.122626e+01   2.126311e+01
   1.004893e+01  -7.803267e+00
   7.426282e+01   7.017373e+00
   9.555270e+01   8.261240e+01
   2.244825e+01   1.657998e+02
  -1.264575e+02   1.663344e+02
  -2.462235e+02   3.778128e+01
  -2.208428e+02  -1.503905e+02
  -5.447975e+01  -2.511252e+02
   1.097062e+02  -1.858953e+02
   1.441906e+02  -3.417430e+01
   7.720984e+01   5.724837e+01
   3.149848e+01   3.752484e+01
   5.606459e+01  -1.483597e+01
   8.386058e+01  -9.851835e+00
   4.542959e+01   5.055449e+01
  -4.146784e+01   9.357187e+01
  -1.049782e+02   6.177577e+01
  -9.056031e+01  -3.346952e+01
   9.474482e+00  -1.160463e+02
   1.449334e+02  -9.641616e+01
   2.102033e+02   4.479185e+01
   1.157683e+02   2.084056e+02
  -1.019856e+02   2.471632e+02
  -2.792260e+02   1.139875e+02
  -2.779158e+02  -8.043407e+01
  -1.244587e+02  -1.839347e+02
   3.521538e+01  -1.587201e+02
   9.760358e+01  -9.347649e+01
   8.221583e+01  -7.686941e+01
   6.786212e+01  -9.879559e+01
   9.515892e+01  -8.181302e+01
   1.364994e+02   1.861112e+01
   1.305192e+02   1.586886e+02
   4.045930e+01   2.385422e+02
  -9.776899e+01   1.869275e+02
  -1.857349e+02   2.935127e+01
  -1.501612e+02  -1.234795e+02
  -2.726900e+01  -1.688795e+02
   6.737474e+01  -1.013419e+02
   6.370984e+01  -3.879008e+00
   7.349444e+00   4.449124e+01
  -8.907497e+00   3.703176e+01
   3.941804e+01   1.833347e+01
   8.441280e+01   2.127636e+01
   4.850068e+01   3.859267e+01
  -6.548793e+01   4.135849e+01
  -1.660859e+02   9.541415e+00
  -1.534884e+02  -4.808974e+01
  -2.052810e+01  -9.269689e+01
   1.239917e+02  -8.311909e+01
   1.531132e+02  -2.027803e+01
   5.316687e+01   4.100084e+01
  -6.214579e+01   4.166938e+01
  -8.089989e+01  -1.717535e+01
  -1.034930e+01  -7.169615e+01
   5.707411e+01  -6.294093e+01
   6.675983e+01  -8.412100e-02
   4.797727e+01   5.111959e+01
   4.733901e+01   4.251327e+01
   6.519014e+01   1.844817e-01
   7.001302e+01  -1.845139e+00
   3.942254e+01   6.983908e+01
  -2.929885e+01   1.547247e+02
  -1.170077e+02   1.534088e+02
  -1.713847e+02   4.149930e+01
  -1.333454e+02  -9.121252e+01
  -1.207915e+01  -1.326977e+02
   8.807452e+01  -6.799600e+01
   6.373907e+01   1.368476e+01
  -6.171381e+01   2.343933e+01
  -1.471007e+02  -4.071216e+01
  -8.464151e+01  -1.105647e+02
   8.073908e+01  -1.220882e+02
   1.999732e+02  -6.271877e+01
   1.736359e+02   2.910716e+01
   4.314105e+01   9.033051e+01
  -6.160486e+01   7.708853e+01
  -5.169105e+01   1.008304e+01
   3.974358e+01  -2.976536e+01
   9.638617e+01   2.032930e+01
   3.911553e+01   1.240834e+02
  -9.097677e+01   1.662601e+02
  -1.747091e+02   7.189804e+01
  -1.376332e+02  -1.016329e+02
  -1.826542e+01  -2.084154e+02
   8.493329e+01  -1.557631e+02
   1.108821e+02   2.784621e+00
   6.899939e+01   1.222098e+02
   2.763711e+00   1.129425e+02
  -4.745786e+01   2.347876e+01
  -5.652102e+01  -3.098479e+01
  -2.816744e+01  -8.271464e+00
  -3.309968e+00   2.207488e+01
  -2.194250e+01  -1.469244e+01
  -6.216954e+01  -9.126582e+01
  -4.907654e+01  -1.143220e+02
   4.735089e+01  -4.983236e+01
   1.476945e+02   3.657403e+01
   1.403278e+02   7.023058e+01
   2.046480e+01   5.165819e+01
  -9.238553e+01   2.648347e+01
  -9.318757e+01   1.152783e+01
  -1.145988e+01  -7.063017e+00
   4.011607e+01  -2.504964e+01
   1.404501e+01  -2.009026e+01
  -2.282092e+01   2.181284e+00
   6.481519e+00   9.600291e+00
   7.888922e+01   1.751361e+00
   9.735856e+01   2.192617e+01
   1.116879e+01   8.418115e+01
  -1.214446e+02   1.244503e+02
  -1.933954e+02   6.798400e+01
  -1.511742e+02  -6.629172e+01
  -3.265023e+01  -1.700049e+02
   7.776497e+01  -1.606594e+02
   1.180968e+02  -6.548893e+01
   8.577227e+01   1.994338e+01
   2.748073e+01   3.627442e+01
  -3.067929e+00   8.995529e+00
   1.076649e+01   3.627336e+00
   3.675737e+01   4.681538e+01
   2.750660e+01   9.407684e+01
  -2.819748e+01   7.657053e+01
  -8.631451e+01  -1.683590e+01
  -8.490222e+01  -1.117647e+02
  -7.987320e+00  -1.181252e+02
   8.627283e+01  -2.750557e+01
   1.110303e+02   7.638335e+01
   3.703027e+01   1.078996e+02
  -6.812280e+01   6.049084e+01
  -1.031886e+02  -9.210856e+00
  -4.278881e+01  -5.148096e+01
   3.250906e+01  -5.520381e+01
   3.149555e+01  -3.083201e+01
  -3.621249e+01   1.337496e+00
  -7.283083e+01   9.394797e+00
  -1.644226e+01  -2.575814e+01
   8.115344e+01  -7.237245e+01
   1.194338e+02  -6.621063e+01
   6.730770e+01   9.976370e+00
  -1.379291e+01   8.788650e+01
  -5.271401e+01   8.535173e+01
  -3.829348e+01   6.954394e+00
  -3.196008e+00  -5.894625e+01
   2.566764e+01  -4.574642e+01
   3.888888e+01   1.841478e+01
   2.974472e+01   5.593391e+01
  -1.861026e+00   3.430272e+01
  -3.513086e+01  -8.012148e+00
  -4.243372e+01  -2.052806e+01
  -2.174630e+01  -2.340167e-01
   1.140864e+00   1.455259e+01
   7.177587e+00  -3.932783e+00
   6.176636e+00  -3.888097e+01
   1.649088e+01  -4.716914e+01
   3.381923e+01  -8.512350e+00
   3.285013e+01   4.671928e+01
  -7.556010e-01   6.418498e+01
  -4.643762e+01   2.291332e+01
  -6.049197e+01  -3.964341e+01
  -1.716382e+01  -6.603251e+01
   5.648650e+01  -3.758534e+01
   9.379270e+01   1.336840e+01
   5.308202e+01   4.472914e+01
  -2.890609e+01   4.364567e+01
  -6.740677e+01   2.438661e+01
  -2.509219e+01   5.849088e+00
   3.966449e+01   1.383415e+00
   4.038116e+01   1.572824e+01
  -3.166947e+01   3.416727e+01
  -9.595356e+01   2.372296e+01
