
 $NMID
 id='ANONYMOUS ', fmtdat='(2E16.6)'
 volume=1.0
 tramp=1.0
 $END
   3.234248e+03   5.863088e+00
   2.071313e+03   1.692822e+03
  -1.084850e+02   2.025534e+03
  -1.286376e+03   1.105355e+03
  -8.661410e+02   6.227904e+01
   8.998661e+01  -2.311990e+02
   4.263129e+02   1.602842e+02
   3.394795e+01   6.020507e+02
  -4.843329e+02   5.764970e+02
  -6.513079e+02   5.381842e+01
  -4.078555e+02  -5.331648e+02
   3.229102e+01  -6.458435e+02
   3.372055e+02  -1.597151e+02
   2.536166e+02   4.428112e+02
  -1.316047e+02   5.438475e+02
  -4.120950e+02   6.194085e+01
  -2.796720e+02  -4.855147e+02
   1.402802e+02  -5.856653e+02
   4.506600e+02  -2.337913e+02
   4.057442e+02   1.858813e+02
   1.091623e+02   3.477370e+02
  -1.312570e+02   2.338569e+02
  -8.874611e+01   6.146664e+01
   1.651409e+02   5.597523e+01
   2.898170e+02   2.324570e+02
   2.489643e+01   3.581381e+02
  -4.456597e+02   2.025053e+02
  -6.165267e+02  -1.561277e+02
  -2.439311e+02  -3.762429e+02
   3.209674e+02  -2.407382e+02
   5.181705e+02   1.084616e+02
   2.058708e+02   3.642129e+02
  -2.505813e+02   3.608677e+02
  -4.470604e+02   1.361637e+02
  -3.193143e+02  -1.601997e+02
  -7.609169e+01  -3.188463e+02
   5.907855e+01  -1.863001e+02
  -1.893683e+00   1.136187e+02
  -1.725441e+02   2.008322e+02
  -2.388835e+02  -1.158252e+02
  -5.501555e+01  -5.030952e+02
   2.489836e+02  -4.613827e+02
   3.566935e+02   3.393714e+00
   1.354271e+02   3.407138e+02
  -1.700046e+02   1.614591e+02
  -2.029825e+02  -2.676722e+02
   9.804211e+01  -3.951821e+02
   4.379186e+02  -6.934356e+01
   4.776989e+02   3.522529e+02
   1.508400e+02   4.791818e+02
  -2.939127e+02   2.662882e+02
  -5.053596e+02  -5.820384e+01
  -3.246759e+02  -2.561263e+02
   6.328271e+01  -2.351375e+02
   2.958599e+02  -7.292540e+01
   2.039010e+02   5.410125e+01
  -1.633574e+01   3.301157e+01
  -6.046854e+01  -6.545995e+01
   1.070292e+02  -7.693143e+01
   2.341589e+02   4.947881e+01
   1.195004e+02   1.981889e+02
  -1.482439e+02   2.336604e+02
  -3.161235e+02   1.224245e+02
  -2.396961e+02  -8.372102e+01
   1.356826e+01  -2.854889e+02
   2.595085e+02  -3.433732e+02
   3.414707e+02  -1.659150e+02
   2.325412e+02   1.482843e+02
   5.193618e+01   3.509691e+02
  -4.612398e+01   3.071330e+02
  -3.328931e+01   1.482339e+02
  -2.472418e+01   8.052242e+01
  -1.115601e+02   1.089696e+02
  -2.283228e+02   6.843817e+01
  -2.361913e+02  -1.013819e+02
  -9.776878e+01  -2.458413e+02
   8.664320e+01  -1.929583e+02
   1.874324e+02   3.021891e+01
   1.387705e+02   2.298407e+02
  -3.876567e+01   2.431855e+02
  -2.359181e+02   6.828295e+01
  -2.985360e+02  -1.605190e+02
  -1.615211e+02  -2.875043e+02
   5.521279e+01  -2.542416e+02
   1.635063e+02  -1.384265e+02
   1.350918e+02  -6.411839e+01
   1.293407e+02  -6.230414e+01
   2.546971e+02  -4.371363e+01
   3.863233e+02   7.948980e+01
   3.052061e+02   2.751939e+02
  -1.633358e+01   4.122931e+02
  -3.518649e+02   3.783142e+02
  -4.502519e+02   1.706351e+02
  -2.776949e+02  -9.293772e+01
  -2.373273e+01  -2.435737e+02
   9.437738e+01  -1.929188e+02
   2.141801e+01  -3.082070e+01
  -1.116057e+02   4.962278e+01
  -1.341754e+02  -3.226957e+01
  -1.298768e+01  -1.432420e+02
   1.187887e+02  -1.076324e+02
   1.136158e+02   5.272779e+01
  -2.667294e+01   1.333206e+02
  -1.578128e+02   4.923314e+00
  -1.451528e+02  -2.215176e+02
   1.803580e+01  -3.213744e+02
   2.227875e+02  -1.953826e+02
   3.314435e+02   5.349948e+01
   2.650525e+02   2.408612e+02
   6.457970e+01   2.576688e+02
  -1.188888e+02   1.363662e+02
  -1.463961e+02   7.442029e+00
  -3.561092e+01  -1.676458e+01
   5.224294e+01   5.496584e+01
   1.412551e+00   1.101804e+02
  -1.178324e+02   6.808333e+01
  -1.433364e+02  -2.392646e+01
  -3.269915e+01  -5.546043e+01
   7.867160e+01   7.146735e+00
   4.021254e+01   8.563582e+01
  -1.358372e+02   8.494622e+01
  -2.822960e+02  -1.460140e+01
  -2.452328e+02  -1.547757e+02
  -3.250815e+01  -2.475935e+02
   1.918602e+02  -2.259639e+02
   2.552416e+02  -9.567121e+01
   1.337071e+02   4.466134e+01
  -2.855525e+01   7.821694e+01
  -6.475592e+01  -3.786419e+00
   4.789465e+01  -7.965839e+01
   1.762595e+02  -3.520897e+01
   1.804597e+02   9.755954e+01
   5.437712e+01   1.792809e+02
  -8.430827e+01   1.303891e+02
  -1.203493e+02   1.710476e+01
  -4.634443e+01  -3.580883e+01
   3.955587e+01   1.591010e+01
   2.917885e+01   1.004812e+02
  -8.717197e+01   1.126560e+02
  -1.977417e+02   1.591394e+01
  -1.738266e+02  -1.246255e+02
  -1.201636e+01  -1.976650e+02
   1.474825e+02  -1.434413e+02
   1.658580e+02  -9.828970e+00
   5.258900e+01   9.142184e+01
  -5.869512e+01   9.132660e+01
  -6.739493e+01   2.358719e+01
  -3.159138e+00  -2.438693e+01
   3.368882e+01  -1.052257e+01
  -7.292479e+00   2.221650e+01
  -8.083352e+01   2.295215e+00
  -9.846113e+01  -8.345851e+01
  -1.314053e+01  -1.637106e+02
   1.313352e+02  -1.462216e+02
   2.246708e+02  -1.312848e+01
   1.833420e+02   1.475470e+02
   3.638902e+01   2.156565e+02
  -9.548723e+01   1.512836e+02
  -1.216061e+02   2.923334e+01
  -6.867756e+01  -4.195650e+01
  -3.110887e+01  -2.744889e+01
  -5.185128e+01   1.389897e+01
  -8.160869e+01   7.716679e+00
  -5.249268e+01  -5.196965e+01
   3.596478e+01  -9.840790e+01
   1.122745e+02  -6.481797e+01
   9.951338e+01   3.895608e+01
  -1.388652e+01   1.207942e+02
  -1.510823e+02   8.699684e+01
  -1.942990e+02  -5.847553e+01
  -8.353113e+01  -1.996985e+02
   1.145638e+02  -2.110667e+02
   2.517749e+02  -7.975702e+01
   2.316173e+02   8.366140e+01
   9.439212e+01   1.594420e+02
  -3.711362e+01   1.306615e+02
  -8.329171e+01   7.568531e+01
  -6.576028e+01   6.558750e+01
  -5.463394e+01   8.852389e+01
  -8.415917e+01   7.501051e+01
  -1.233777e+02  -1.611301e+01
  -1.131296e+02  -1.434315e+02
  -2.698773e+01  -2.118366e+02
   9.307977e+01  -1.577219e+02
   1.606255e+02  -1.251754e+01
   1.207734e+02   1.184643e+02
   1.055460e+01   1.473788e+02
  -7.005842e+01   7.783584e+01
  -5.949232e+01  -1.137736e+01
   1.834179e+00  -4.980649e+01
   2.319020e+01  -3.464401e+01
  -2.637088e+01  -1.200175e+01
  -7.884869e+01  -1.620108e+01
  -4.701609e+01  -3.687854e+01
   6.742778e+01  -3.835483e+01
   1.620229e+02  -7.733465e-01
   1.366239e+02   5.735263e+01
   2.127964e+00   9.187954e+01
  -1.245265e+02   7.077199e+01
  -1.369780e+02   6.959348e+00
  -4.280927e+01  -4.622370e+01
   5.568214e+01  -4.116537e+01
   7.335648e+01   1.622067e+01
   1.784044e+01   6.813987e+01
  -4.315908e+01   6.132920e+01
  -6.383934e+01   2.902789e+00
  -5.369947e+01  -4.640152e+01
  -4.523578e+01  -3.998188e+01
  -5.255162e+01  -1.464270e+00
  -6.114973e+01  -4.156054e-01
  -4.190873e+01  -6.688643e+01
   2.395041e+01  -1.430388e+02
   1.155969e+02  -1.384051e+02
   1.679761e+02  -3.398045e+01
   1.233116e+02   8.717270e+01
   4.000313e+00   1.247446e+02
  -8.549567e+01   6.575696e+01
  -5.830597e+01  -9.623219e+00
   5.437156e+01  -1.989449e+01
   1.260630e+02   3.788104e+01
   6.749982e+01   9.926207e+01
  -7.728465e+01   1.033394e+02
  -1.771425e+02   4.344341e+01
  -1.477002e+02  -3.658000e+01
  -2.985408e+01  -7.986088e+01
   5.974522e+01  -5.868779e+01
   4.594652e+01  -1.992675e-02
  -3.704003e+01   2.931698e+01
  -8.695360e+01  -1.723329e+01
  -3.831048e+01  -1.078300e+02
   7.294582e+01  -1.466192e+02
   1.471570e+02  -6.734760e+01
   1.194525e+02   8.439174e+01
   1.724066e+01   1.798270e+02
  -7.538513e+01   1.326557e+02
  -9.762831e+01  -9.157028e+00
  -5.335048e+01  -1.119785e+02
   1.038806e+01  -9.710463e+01
   4.789470e+01  -1.499865e+01
   4.343577e+01   2.990396e+01
   1.659898e+01   7.222068e+00
   5.289961e+00  -1.681604e+01
   2.805742e+01   1.856823e+01
   5.501205e+01   8.335790e+01
   3.192286e+01   9.867355e+01
  -5.111700e+01   4.091343e+01
  -1.274896e+02  -3.343437e+01
  -1.161890e+02  -6.378750e+01
  -1.792825e+01  -4.922344e+01
   7.544186e+01  -2.462331e+01
   8.100219e+01  -6.500314e+00
   1.601115e+01   9.983932e+00
  -3.229329e+01   2.039901e+01
  -1.778205e+01   1.290694e+01
   1.429437e+01  -3.406277e+00
  -2.866329e+00  -5.603195e+00
  -6.272547e+01   1.227087e+00
  -8.713025e+01  -1.895078e+01
  -2.049017e+01  -7.486803e+01
   9.931871e+01  -1.115400e+02
   1.744172e+02  -6.481097e+01
   1.426784e+02   5.245864e+01
   3.230188e+01   1.483829e+02
  -7.227816e+01   1.461636e+02
  -1.075988e+02   6.296608e+01
  -7.561943e+01  -1.673708e+01
  -2.538329e+01  -3.483389e+01
  -2.225038e+00  -1.161164e+01
  -1.297456e+01  -7.172712e+00
  -2.944243e+01  -4.533175e+01
  -1.855873e+01  -8.507862e+01
   2.619602e+01  -6.764184e+01
   7.367294e+01   1.303967e+01
   7.609791e+01   9.400349e+01
   1.443500e+01   1.026862e+02
  -6.965363e+01   3.044042e+01
  -9.939390e+01  -5.941077e+01
  -3.881950e+01  -9.529877e+01
   5.840848e+01  -6.061241e+01
   9.666517e+01   5.272431e+00
   4.362211e+01   5.253569e+01
  -3.041726e+01   5.754465e+01
  -3.624505e+01   2.836550e+01
   2.476711e+01  -5.241191e+00
   6.371550e+01  -9.423590e+00
   1.748978e+01   2.482720e+01
  -7.226280e+01   6.270362e+01
  -1.119663e+02   5.259687e+01
  -6.650820e+01  -1.382340e+01
   1.118075e+01  -7.956463e+01
   5.214310e+01  -7.875127e+01
   4.087238e+01  -1.261103e+01
   7.135372e+00   4.878105e+01
  -2.109705e+01   4.503239e+01
  -3.425698e+01  -9.559692e+00
  -2.759407e+01  -4.966456e+01
  -2.267227e-01  -3.654618e+01
   3.113324e+01   4.310064e+00
   3.975042e+01   2.246269e+01
   1.972703e+01   3.825119e+00
  -3.986195e+00  -1.789553e+01
  -6.906891e+00  -6.791383e+00
   3.128239e+00   2.967360e+01
  -1.058661e+00   4.791246e+01
  -2.456501e+01   1.956428e+01
  -3.759367e+01  -3.224190e+01
  -1.191043e+01  -5.505324e+01
   3.727777e+01  -2.429158e+01
   5.853136e+01   2.984553e+01
   1.906806e+01   5.602983e+01
  -5.222352e+01   3.482869e+01
  -8.695979e+01  -8.875847e+00
  -4.832145e+01  -3.940033e+01
   2.562245e+01  -4.281504e+01
   6.022006e+01  -2.716635e+01
   2.645627e+01  -7.132629e+00
  -2.700789e+01   2.863249e+00
  -3.142284e+01  -6.267208e+00
   2.205717e+01  -2.437800e+01
   7.382129e+01  -2.062773e+01
