
 $NMID
 id='ANONYMOUS ', fmtdat='(2E16.6)'
 volume=1.0
 tramp=1.0
 $END
   2.031704e+03  -9.140021e+01
   1.242627e+03   1.190761e+03
  -3.060373e+02   1.325394e+03
  -1.005939e+03   4.527849e+02
  -4.773802e+02  -3.216893e+02
   3.035579e+02  -3.121214e+02
   4.435124e+02   1.821039e+02
   2.400872e+01   5.105776e+02
  -3.797147e+02   3.880420e+02
  -4.501579e+02  -3.094649e+01
  -2.290658e+02  -4.051423e+02
   1.026843e+02  -4.299699e+02
   3.065793e+02  -6.950419e+01
   1.996696e+02   3.328349e+02
  -1.151091e+02   3.609397e+02
  -2.906236e+02   7.130476e+00
  -1.385424e+02  -3.201664e+02
   1.503186e+02  -3.043385e+02
   2.801081e+02  -4.616416e+01
   1.874271e+02   1.671085e+02
   1.087444e+01   2.086112e+02
  -1.123017e+02   1.290587e+02
  -1.045996e+02   1.371215e+01
   4.215454e+01  -4.310569e+01
   1.854281e+02   3.839518e+01
   1.043415e+02   1.900251e+02
  -1.977069e+02   2.005459e+02
  -3.944062e+02  -1.411898e+01
  -2.169715e+02  -2.462728e+02
   1.671947e+02  -2.376033e+02
   3.471367e+02  -3.012607e+00
   1.738253e+02   2.162509e+02
  -1.192539e+02   2.471778e+02
  -2.596978e+02   1.048956e+02
  -1.998087e+02  -9.956324e+01
  -4.340413e+01  -2.238915e+02
   8.999262e+01  -1.430775e+02
   9.264431e+01   9.356474e+01
  -6.018992e+01   2.106980e+02
  -2.079521e+02   9.276405e+00
  -1.337393e+02  -3.082072e+02
   1.318104e+02  -3.378789e+02
   2.873052e+02  -1.944103e+01
   1.394334e+02   2.548152e+02
  -1.281705e+02   1.617333e+02
  -1.895397e+02  -1.382897e+02
   1.784992e+01  -2.558340e+02
   2.544362e+02  -7.536431e+01
   2.826757e+02   1.782201e+02
   8.613914e+01   2.706342e+02
  -1.721242e+02   1.692503e+02
  -2.946847e+02  -2.372725e+01
  -1.831066e+02  -1.763154e+02
   6.485204e+01  -1.788848e+02
   2.101693e+02  -3.589779e+01
   1.217280e+02   9.258112e+01
  -5.407283e+01   5.913620e+01
  -7.587838e+01  -6.886256e+01
   7.055654e+01  -9.533092e+01
   1.663266e+02   2.624238e+01
   7.363873e+01   1.398504e+02
  -9.314913e+01   1.241589e+02
  -1.544280e+02   3.351795e+01
  -8.762255e+01  -4.058170e+01
   1.470102e+01  -9.906071e+01
   9.700366e+01  -1.457650e+02
   1.483156e+02  -1.041135e+02
   1.359105e+02   5.560147e+01
   4.586807e+01   2.006219e+02
  -4.859441e+01   1.842197e+02
  -6.111970e+01   5.588943e+01
  -1.700244e+01  -9.724931e+00
  -1.637879e+01   3.453684e+01
  -8.188678e+01   6.199190e+01
  -1.265838e+02  -1.619634e+01
  -7.975710e+01  -1.192316e+02
   2.562393e+01  -1.202100e+02
   1.033160e+02  -1.159879e+01
   9.598335e+01   1.048916e+02
   2.515252e+00   1.353625e+02
  -1.188921e+02   5.985113e+01
  -1.692980e+02  -6.967193e+01
  -9.305920e+01  -1.601035e+02
   4.187272e+01  -1.459774e+02
   1.068431e+02  -5.990199e+01
   7.301591e+01  -1.281190e+00
   4.470517e+01  -1.312581e+01
   1.027247e+02  -3.097149e+01
   1.810949e+02   2.060845e+01
   1.545860e+02   1.251569e+02
   5.129653e+00   2.010714e+02
  -1.578174e+02   1.920210e+02
  -2.196201e+02   9.868944e+01
  -1.564769e+02  -3.603809e+01
  -3.195633e+01  -1.340645e+02
   5.553149e+01  -1.215374e+02
   4.062403e+01  -1.768947e+01
  -4.549461e+01   5.322995e+01
  -9.157064e+01   4.184015e+00
  -2.995853e+01  -8.980792e+01
   7.083866e+01  -8.606503e+01
   8.657592e+01   2.269364e+01
  -2.179438e+00   9.108692e+01
  -8.872475e+01   2.042266e+01
  -7.881684e+01  -1.115929e+02
   1.088878e+01  -1.608640e+02
   1.035358e+02  -8.891802e+01
   1.477799e+02   2.703883e+01
   1.274650e+02   1.046464e+02
   4.695410e+01   1.167631e+02
  -4.823317e+01   7.452998e+01
  -8.149871e+01   1.359377e+01
  -2.940357e+01  -1.382310e+01
   3.207583e+01   1.480599e+01
   1.712495e+01   5.575747e+01
  -5.388883e+01   4.870609e+01
  -8.274581e+01  -1.466178e+00
  -2.976412e+01  -3.211786e+01
   3.472370e+01  -9.845912e+00
   2.577720e+01   3.075614e+01
  -5.388426e+01   3.926651e+01
  -1.257666e+02   2.793289e+00
  -1.197181e+02  -5.878236e+01
  -3.137201e+01  -1.130532e+02
   7.831151e+01  -1.210082e+02
   1.271523e+02  -6.320155e+01
   8.040533e+01   2.024791e+01
  -7.973180e+00   5.190474e+01
  -4.234170e+01   7.022147e+00
   1.144140e+01  -4.684225e+01
   8.784046e+01  -3.143600e+01
   9.996182e+01   4.286494e+01
   3.589187e+01   9.459971e+01
  -4.043493e+01   7.487891e+01
  -6.593677e+01   1.664220e+01
  -3.445781e+01  -1.723158e+01
   1.041432e+01  -2.430047e+00
   1.708826e+01   3.504522e+01
  -2.981559e+01   5.020897e+01
  -8.765392e+01   1.565812e+01
  -8.832750e+01  -5.248693e+01
  -1.343533e+01  -9.890127e+01
   7.285612e+01  -7.800724e+01
   8.998098e+01  -5.918196e+00
   3.289357e+01   5.229808e+01
  -2.861229e+01   5.310167e+01
  -3.826299e+01   1.607298e+01
  -9.951302e+00  -1.082118e+01
   8.053028e+00  -8.530064e+00
  -5.274181e+00   2.636748e+00
  -3.148648e+01  -4.720886e+00
  -3.912368e+01  -3.624361e+01
  -7.918077e+00  -6.991275e+01
   5.420555e+01  -6.933285e+01
   1.041573e+02  -1.517205e+01
   9.330602e+01   6.441694e+01
   2.262306e+01   1.074654e+02
  -4.748225e+01   7.955640e+01
  -6.214830e+01   1.407645e+01
  -3.313612e+01  -2.542570e+01
  -1.340272e+01  -1.671195e+01
  -2.402229e+01   5.827565e+00
  -3.554143e+01   3.314402e+00
  -1.813103e+01  -2.226231e+01
   1.924479e+01  -3.907383e+01
   4.496101e+01  -2.420474e+01
   3.709995e+01   1.553406e+01
  -5.541696e+00   4.843263e+01
  -6.164764e+01   3.898178e+01
  -8.822317e+01  -2.008298e+01
  -4.824994e+01  -8.814995e+01
   4.365147e+01  -1.041238e+02
   1.188240e+02  -4.772388e+01
   1.183930e+02   3.481925e+01
   5.300584e+01   7.879262e+01
  -1.526423e+01   6.782620e+01
  -4.212256e+01   3.987631e+01
  -3.587170e+01   3.286760e+01
  -2.999153e+01   4.208733e+01
  -4.139206e+01   3.427562e+01
  -5.818655e+01  -9.001277e+00
  -5.477627e+01  -6.846910e+01
  -1.615668e+01  -1.018104e+02
   4.229996e+01  -7.936088e+01
   7.909786e+01  -1.221120e+01
   6.352662e+01   5.269602e+01
   1.134177e+01   7.178608e+01
  -2.833029e+01   4.291571e+01
  -2.631878e+01   1.780504e+00
  -2.676477e+00  -1.812848e+01
   3.427166e+00  -1.485212e+01
  -1.738708e+01  -7.827225e+00
  -3.593277e+01  -1.000132e+01
  -2.016037e+01  -1.692336e+01
   2.793630e+01  -1.666854e+01
   6.999192e+01  -2.545672e+00
   6.451227e+01   2.090668e+01
   8.403618e+00   3.844199e+01
  -5.273479e+01   3.408240e+01
  -6.496973e+01   8.131980e+00
  -2.213746e+01  -1.717984e+01
   2.706552e+01  -1.718955e+01
   3.436690e+01   7.918767e+00
   3.295847e+00   3.100405e+01
  -2.548744e+01   2.670590e+01
  -2.849833e+01  -7.910199e-01
  -1.960340e+01  -2.275033e+01
  -1.969406e+01  -1.856924e+01
  -2.806579e+01  -1.516699e-01
  -2.989575e+01   4.814241e-01
  -1.580556e+01  -3.028584e+01
   1.396434e+01  -6.583878e+01
   5.062938e+01  -6.409937e+01
   7.267765e+01  -1.588288e+01
   5.586369e+01   3.987542e+01
   4.227921e+00   5.614233e+01
  -3.807567e+01   2.784640e+01
  -2.723400e+01  -6.488777e+00
   2.652291e+01  -9.686756e+00
   6.277611e+01   1.805085e+01
   3.578058e+01   4.737807e+01
  -3.479632e+01   5.162320e+01
  -8.529662e+01   2.611459e+01
  -7.379605e+01  -1.272789e+01
  -1.827879e+01  -3.847293e+01
   2.608067e+01  -3.275325e+01
   2.168099e+01  -4.393454e+00
  -1.727406e+01   1.223658e+01
  -4.107691e+01  -9.446330e+00
  -1.587435e+01  -5.364601e+01
   4.032877e+01  -7.100221e+01
   7.578098e+01  -2.987873e+01
   5.865941e+01   4.450739e+01
   6.680384e+00   8.957803e+01
  -3.704690e+01   6.633971e+01
  -4.708211e+01  -1.559327e+00
  -2.889336e+01  -5.212914e+01
  -1.222931e+00  -4.777059e+01
   1.985860e+01  -9.689147e+00
   2.416121e+01   1.313948e+01
   1.240034e+01   3.263836e+00
   1.295650e+00  -9.422930e+00
   8.576710e+00   6.642527e+00
   2.587269e+01   3.932963e+01
   2.094941e+01   4.871557e+01
  -1.996852e+01   2.065995e+01
  -6.305751e+01  -1.637108e+01
  -5.988423e+01  -3.043374e+01
  -8.239232e+00  -2.205989e+01
   4.006791e+01  -1.103202e+01
   3.981410e+01  -4.590468e+00
   4.373082e+00   3.243990e+00
  -1.738114e+01   1.072258e+01
  -5.615290e+00   8.441083e+00
   1.014094e+01  -1.043526e+00
  -3.008122e+00  -4.127972e+00
  -3.423599e+01  -9.957068e-01
  -4.149832e+01  -1.008358e+01
  -3.714268e+00  -3.666330e+01
   5.323173e+01  -5.285724e+01
   8.329442e+01  -2.744578e+01
   6.418392e+01   3.012569e+01
   1.283096e+01   7.324272e+01
  -3.436567e+01   6.786639e+01
  -5.108640e+01   2.685508e+01
  -3.663830e+01  -9.112766e+00
  -1.132413e+01  -1.562801e+01
   1.807207e+00  -3.929946e+00
  -4.200714e+00  -1.624298e+00
  -1.535800e+01  -1.991282e+01
  -1.133873e+01  -4.002596e+01
   1.249255e+01  -3.252057e+01
   3.705789e+01   7.697092e+00
   3.583757e+01   4.865659e+01
   2.411386e+00   5.109363e+01
  -3.774890e+01   1.129661e+01
  -4.741891e+01  -3.384997e+01
  -1.487522e+01  -4.675294e+01
   3.002030e+01  -2.521451e+01
   4.400157e+01   5.037549e+00
   1.731908e+01   2.229191e+01
  -1.466897e+01   2.290941e+01
  -1.333798e+01   1.247568e+01
   1.607423e+01  -5.502391e-01
   3.132155e+01  -3.540036e+00
   6.618138e+00   1.119415e+01
  -3.509579e+01   3.048591e+01
  -5.090236e+01   2.750115e+01
  -2.813115e+01  -4.849329e+00
   6.614809e+00  -3.749042e+01
   2.302302e+01  -3.572664e+01
   1.645702e+01  -2.036465e+00
   9.717409e-01   2.564310e+01
  -1.160614e+01   1.928396e+01
  -1.690304e+01  -8.440640e+00
  -1.229888e+01  -2.418825e+01
   1.448616e+00  -1.447651e+01
   1.513312e+01   3.788632e+00
   1.768340e+01   8.974834e+00
   9.080571e+00   9.502466e-02
   2.448868e-02  -6.161338e+00
  -2.501320e+00   2.093272e+00
  -3.038455e+00   1.729834e+01
  -8.343652e+00   2.053496e+01
  -1.544705e+01   3.151392e+00
  -1.385630e+01  -2.110657e+01
   1.235915e+00  -2.823996e+01
   2.042170e+01  -9.527226e+00
   2.568297e+01   1.787788e+01
   6.869251e+00   2.869505e+01
  -2.439330e+01   1.552168e+01
  -4.002443e+01  -6.682764e+00
  -2.237283e+01  -1.956437e+01
   1.287981e+01  -1.828930e+01
   2.928296e+01  -9.705401e+00
   1.068141e+01  -2.013277e+00
  -1.757415e+01  -5.925745e-01
  -1.780666e+01  -7.113922e+00
   1.372987e+01  -1.502534e+01
   4.171762e+01  -1.016618e+01
