
 $NMID
 id='ANONYMOUS ', fmtdat='(2E16.6)'
 volume=1.0
 tramp=1.0
 $END
   3.620628e+03  -1.216716e+02
   2.262412e+03   2.032199e+03
  -3.852147e+02   2.332712e+03
  -1.666136e+03   9.671711e+02
  -8.961413e+02  -3.441950e+02
   3.838835e+02  -4.554283e+02
   6.827343e+02   2.695289e+02
   4.592002e+01   8.273205e+02
  -6.262775e+02   6.790728e+02
  -7.772410e+02  -1.067932e+01
  -4.289965e+02  -6.763945e+02
   1.277588e+02  -7.523809e+02
   4.868185e+02  -1.460382e+02
   3.338120e+02   5.573344e+02
  -1.817027e+02   6.324380e+02
  -4.982402e+02   3.518471e+01
  -2.730108e+02  -5.600869e+02
   2.265618e+02  -5.836183e+02
   5.009576e+02  -1.476042e+02
   3.777694e+02   2.649352e+02
   5.722052e+01   3.780102e+02
  -1.804479e+02   2.422456e+02
  -1.559020e+02   4.100322e+01
   1.130316e+02  -2.826090e+01
   3.285667e+02   1.339386e+02
   1.322741e+02   3.594376e+02
  -4.018150e+02   3.133283e+02
  -6.985756e+02  -7.402922e+01
  -3.492061e+02  -4.307507e+02
   3.172362e+02  -3.710703e+02
   6.051305e+02   3.589019e+01
   2.839876e+02   3.916723e+02
  -2.341457e+02   4.288131e+02
  -4.751441e+02   1.771722e+02
  -3.575399e+02  -1.763700e+02
  -8.214963e+01  -3.839987e+02
   1.261008e+02  -2.396952e+02
   1.074740e+02   1.519333e+02
  -1.353270e+02   3.232779e+02
  -3.343268e+02  -3.268652e+01
  -1.792439e+02  -5.528999e+02
   2.472079e+02  -5.734362e+02
   4.724687e+02  -2.387262e+01
   2.169766e+02   4.274309e+02
  -2.135788e+02   2.518531e+02
  -3.003360e+02  -2.633321e+02
   5.681773e+01  -4.513788e+02
   4.657033e+02  -1.167211e+02
   5.162476e+02   3.420724e+02
   1.612718e+02   5.006259e+02
  -3.131152e+02   3.019742e+02
  -5.396873e+02  -4.772659e+01
  -3.410042e+02  -3.030824e+02
   9.829142e+01  -3.000466e+02
   3.591679e+02  -7.209087e+01
   2.218914e+02   1.274018e+02
  -6.845308e+01   8.202149e+01
  -1.122814e+02  -1.046946e+02
   1.227592e+02  -1.412401e+02
   2.847115e+02   4.828139e+01
   1.334306e+02   2.390611e+02
  -1.649676e+02   2.362635e+02
  -3.026120e+02   8.810573e+01
  -1.958059e+02  -7.917523e+01
   2.162533e+01  -2.268114e+02
   2.129416e+02  -3.042040e+02
   3.047528e+02  -1.868489e+02
   2.490340e+02   1.213507e+02
   7.524601e+01   3.695717e+02
  -7.275935e+01   3.342904e+02
  -8.343777e+01   1.234751e+02
  -2.959313e+01   2.044603e+01
  -6.245995e+01   8.276651e+01
  -1.837768e+02   9.925870e+01
  -2.392887e+02  -5.741720e+01
  -1.317209e+02  -2.337553e+02
   6.258021e+01  -2.150792e+02
   1.930049e+02  -2.485884e+00
   1.664555e+02   2.107434e+02
  -1.110916e+01   2.520747e+02
  -2.296524e+02   9.710898e+01
  -3.137212e+02  -1.421672e+02
  -1.725120e+02  -2.973737e+02
   6.888340e+01  -2.691676e+02
   1.873959e+02  -1.246172e+02
   1.376103e+02  -2.724121e+01
   1.024239e+02  -3.995417e+01
   2.185633e+02  -5.382046e+01
   3.613637e+02   5.354113e+01
   2.997511e+02   2.515667e+02
   1.217929e+00   3.944858e+02
  -3.191420e+02   3.720388e+02
  -4.300685e+02   1.830542e+02
  -2.904158e+02  -7.682375e+01
  -4.748320e+01  -2.504801e+02
   1.002491e+02  -2.169161e+02
   5.530890e+01  -3.298930e+01
  -9.593790e+01   8.148013e+01
  -1.586008e+02  -6.971328e+00
  -4.059981e+01  -1.598878e+02
   1.278327e+02  -1.425258e+02
   1.450218e+02   4.616017e+01
  -1.215494e+01   1.577810e+02
  -1.644371e+02   2.636104e+01
  -1.491499e+02  -2.154393e+02
   1.833367e+01  -3.124371e+02
   2.065534e+02  -1.804515e+02
   3.013556e+02   5.109913e+01
   2.524097e+02   2.145912e+02
   8.066507e+01   2.358457e+02
  -1.018402e+02   1.401778e+02
  -1.516671e+02   1.937163e+01
  -4.815457e+01  -2.231147e+01
   5.773365e+01   3.841400e+01
   2.086510e+01   1.076026e+02
  -1.081756e+02   8.355731e+01
  -1.520378e+02  -1.035459e+01
  -4.758216e+01  -5.866730e+01
   7.095107e+01  -8.887170e+00
   4.585611e+01   6.896868e+01
  -1.153498e+02   7.920750e+01
  -2.563118e+02  -1.467621e+00
  -2.352737e+02  -1.277712e+02
  -5.001317e+01  -2.277281e+02
   1.648958e+02  -2.293828e+02
   2.467936e+02  -1.117913e+02
   1.457302e+02   4.025617e+01
  -1.996285e+01   9.084640e+01
  -7.435818e+01   7.031889e+00
   3.161764e+01  -8.555982e+01
   1.705600e+02  -5.095954e+01
   1.868937e+02   8.703886e+01
   6.370448e+01   1.795508e+02
  -7.924047e+01   1.381970e+02
  -1.234065e+02   2.655398e+01
  -5.823121e+01  -3.368310e+01
   2.752413e+01   3.355503e+00
   3.149270e+01   7.983731e+01
  -6.830449e+01   1.025448e+02
  -1.789109e+02   2.508816e+01
  -1.708853e+02  -1.089133e+02
  -2.110704e+01  -1.919318e+02
   1.415471e+02  -1.472115e+02
   1.692088e+02  -1.148216e+01
   5.917843e+01   9.613370e+01
  -5.569196e+01   9.755821e+01
  -7.060202e+01   2.819984e+01
  -1.285566e+01  -2.199201e+01
   2.245481e+01  -1.405368e+01
  -8.967496e+00   1.181073e+01
  -6.821687e+01  -4.327505e+00
  -8.421163e+01  -7.439959e+01
  -1.488251e+01  -1.450978e+02
   1.137065e+02  -1.380684e+02
   2.085887e+02  -2.357924e+01
   1.804843e+02   1.316773e+02
   4.137568e+01   2.088361e+02
  -9.176193e+01   1.518686e+02
  -1.195522e+02   2.829228e+01
  -6.553427e+01  -4.562806e+01
  -2.786917e+01  -3.001396e+01
  -4.810927e+01   1.239665e+01
  -7.313848e+01   7.150311e+00
  -4.175895e+01  -4.603017e+01
   3.609010e+01  -8.400665e+01
   9.591455e+01  -5.379940e+01
   8.210909e+01   3.298582e+01
  -1.148579e+01   1.035026e+02
  -1.303254e+02   7.974684e+01
  -1.785178e+02  -4.546834e+01
  -8.935484e+01  -1.799818e+02
   9.460689e+01  -2.036998e+02
   2.359336e+02  -8.753498e+01
   2.282290e+02   7.213223e+01
   9.906962e+01   1.533238e+02
  -3.165620e+01   1.299171e+02
  -8.110994e+01   7.622086e+01
  -6.705989e+01   6.409623e+01
  -5.581413e+01   8.371799e+01
  -8.066338e+01   6.945825e+01
  -1.158511e+02  -1.626435e+01
  -1.083725e+02  -1.350911e+02
  -3.014220e+01  -2.008455e+02
   8.482392e+01  -1.541122e+02
   1.544836e+02  -1.971573e+01
   1.213663e+02   1.069448e+02
   1.787595e+01   1.408270e+02
  -5.991281e+01   8.045201e+01
  -5.377797e+01  -2.183548e+00
  -2.517956e+00  -4.049406e+01
   1.294119e+01  -3.079536e+01
  -3.055118e+01  -1.361660e+01
  -7.262527e+01  -1.764441e+01
  -4.192428e+01  -3.390089e+01
   5.866151e+01  -3.456598e+01
   1.445712e+02  -3.813608e+00
   1.284508e+02   4.616927e+01
   1.087537e+01   8.046278e+01
  -1.096238e+02   6.764690e+01
  -1.288833e+02   1.268668e+01
  -4.255762e+01  -3.783423e+01
   5.304683e+01  -3.627605e+01
   6.863583e+01   1.524945e+01
   1.106392e+01   6.261489e+01
  -4.623163e+01   5.520309e+01
  -5.805224e+01   4.522111e-01
  -4.394993e+01  -4.439879e+01
  -4.070027e+01  -3.702706e+01
  -5.311479e+01  -5.095848e-01
  -5.859937e+01   6.443159e-01
  -3.498511e+01  -6.118527e+01
   2.502753e+01  -1.324674e+02
   1.034417e+02  -1.289216e+02
   1.499122e+02  -3.230349e+01
   1.133818e+02   7.991218e+01
   6.922824e+00   1.138995e+02
  -7.740308e+01   5.834477e+01
  -5.446509e+01  -1.106578e+01
   5.195987e+01  -1.924192e+01
   1.222927e+02   3.523476e+01
   6.830469e+01   9.349293e+01
  -7.017351e+01   1.005978e+02
  -1.680263e+02   4.799271e+01
  -1.434852e+02  -2.846442e+01
  -3.319891e+01  -7.571484e+01
   5.335098e+01  -6.116078e+01
   4.308093e+01  -5.277162e+00
  -3.443481e+01   2.581017e+01
  -8.175480e+01  -1.736009e+01
  -3.385773e+01  -1.042934e+02
   7.472583e+01  -1.400792e+02
   1.452371e+02  -6.165630e+01
   1.151621e+02   8.415403e+01
   1.524882e+01   1.742177e+02
  -7.191290e+01   1.291657e+02
  -9.282086e+01  -5.004481e+00
  -5.481527e+01  -1.040391e+02
   2.255247e+00  -9.338169e+01
   4.169387e+01  -1.726154e+01
   4.512404e+01   2.673547e+01
   2.089980e+01   6.498082e+00
   3.492913e+00  -1.751617e+01
   2.098336e+01   1.491506e+01
   5.186282e+01   7.802640e+01
   3.719207e+01   9.492930e+01
  -4.299685e+01   4.012693e+01
  -1.231652e+02  -3.154439e+01
  -1.151747e+02  -5.975501e+01
  -1.675205e+01  -4.478440e+01
   7.590299e+01  -2.277506e+01
   7.783594e+01  -8.199077e+00
   1.136515e+01   7.643773e+00
  -3.270401e+01   2.056765e+01
  -1.339979e+01   1.487804e+01
   1.734498e+01  -2.636550e+00
  -4.646630e+00  -6.949824e+00
  -6.426372e+01  -3.782275e-01
  -8.231712e+01  -1.876722e+01
  -1.264034e+01  -7.180760e+01
   1.001660e+02  -1.054146e+02
   1.646499e+02  -5.789142e+01
   1.305491e+02   5.494355e+01
   2.813947e+01   1.429186e+02
  -6.758848e+01   1.362035e+02
  -1.011481e+02   5.621638e+01
  -7.216679e+01  -1.681341e+01
  -2.319606e+01  -3.166806e+01
   1.193381e+00  -9.126674e+00
  -9.961169e+00  -4.663497e+00
  -2.949442e+01  -4.070834e+01
  -2.074133e+01  -7.962069e+01
   2.447154e+01  -6.429424e+01
   7.187921e+01   1.371710e+01
   7.176087e+01   9.292307e+01
   8.879986e+00   9.943682e+01
  -7.095170e+01   2.534348e+01
  -9.419168e+01  -6.211235e+01
  -3.284019e+01  -9.140680e+01
   5.747564e+01  -5.322473e+01
   8.891653e+01   7.544153e+00
   3.734114e+01   4.628433e+01
  -2.873948e+01   4.921938e+01
  -2.955899e+01   2.567261e+01
   2.833173e+01  -2.835700e+00
   6.123582e+01  -8.056791e+00
   1.461393e+01   2.265022e+01
  -6.873175e+01   6.019011e+01
  -1.026271e+02   5.289357e+01
  -5.869644e+01  -1.081271e+01
   1.173703e+01  -7.468005e+01
   4.682091e+01  -7.244558e+01
   3.508034e+01  -7.430768e+00
   4.140897e+00   4.882824e+01
  -2.156190e+01   4.009296e+01
  -3.309081e+01  -1.338502e+01
  -2.526661e+01  -4.739107e+01
   1.477216e+00  -3.111275e+01
   2.977181e+01   5.952884e+00
   3.613814e+01   1.905933e+01
   1.824919e+01   1.534946e+00
  -1.578928e+00  -1.415776e+01
  -5.574257e+00  -2.177538e-01
  -2.143143e+00   3.170935e+01
  -9.918057e+00   4.266024e+01
  -2.751508e+01   1.145668e+01
  -3.097810e+01  -3.698725e+01
  -3.475041e+00  -5.432506e+01
   3.819819e+01  -2.073517e+01
   5.285510e+01   3.220453e+01
   1.567506e+01   5.515603e+01
  -4.860550e+01   3.183527e+01
  -8.051802e+01  -1.089394e+01
  -4.502487e+01  -3.792686e+01
   2.481937e+01  -3.807973e+01
   5.745865e+01  -2.213641e+01
   2.273190e+01  -5.211700e+00
  -3.095731e+01   5.931122e-01
  -3.301660e+01  -1.054416e+01
   2.441985e+01  -2.708540e+01
   7.718377e+01  -2.022568e+01
