
 $NMID
 id='ANONYMOUS ', fmtdat='(2E16.6)'
 volume=1.0
 tramp=1.0
 $END
   4.935516e+03   1.648707e+01
   2.811274e+03   3.034112e+03
  -9.534539e+02   3.112971e+03
  -2.458794e+03   8.827444e+02
  -1.017147e+03  -8.777675e+02
   8.496484e+02  -6.846282e+02
   1.056704e+03   5.484152e+02
  -3.586271e+01   1.256741e+03
  -9.824766e+02   8.756886e+02
  -1.073783e+03  -1.504964e+02
  -4.816746e+02  -1.010897e+03
   3.200049e+02  -1.009371e+03
   7.563526e+02  -1.026236e+02
   4.341720e+02   8.460083e+02
  -3.322441e+02   8.521135e+02
  -6.997846e+02  -3.137139e+01
  -2.850269e+02  -7.834731e+02
   3.956447e+02  -6.909553e+02
   6.576390e+02  -6.114951e+01
   4.089281e+02   4.188319e+02
  -6.629197e+00   4.896677e+02
  -2.876136e+02   2.876321e+02
  -2.561137e+02   4.727932e+00
   1.154094e+02  -1.256632e+02
   4.682302e+02   9.918445e+01
   2.505224e+02   4.864906e+02
  -5.058061e+02   4.902365e+02
  -9.705478e+02  -7.122771e+01
  -5.008352e+02  -6.375717e+02
   4.474941e+02  -5.743925e+02
   8.579696e+02   2.945903e+01
   4.026069e+02   5.516962e+02
  -3.170728e+02   5.937461e+02
  -6.407320e+02   2.288708e+02
  -4.698541e+02  -2.646784e+02
  -7.072505e+01  -5.483481e+02
   2.494425e+02  -3.259025e+02
   2.217938e+02   2.626618e+02
  -1.833401e+02   5.256738e+02
  -5.312787e+02  -3.760962e+00
  -3.021433e+02  -7.820762e+02
   3.672226e+02  -8.122901e+02
   7.107795e+02   3.117801e-02
   3.040029e+02   6.513212e+02
  -3.467981e+02   3.790051e+02
  -4.570455e+02  -3.668498e+02
   6.958464e+01  -6.264527e+02
   6.273450e+02  -1.601557e+02
   6.671367e+02   4.541419e+02
   1.799230e+02   6.567935e+02
  -4.347634e+02   3.902184e+02
  -7.073952e+02  -8.647571e+01
  -4.129666e+02  -4.457612e+02
   1.899686e+02  -4.227103e+02
   5.131380e+02  -5.326586e+01
   2.675415e+02   2.464077e+02
  -1.537756e+02   1.319248e+02
  -1.741441e+02  -1.888435e+02
   1.935511e+02  -2.280156e+02
   4.022602e+02   8.767051e+01
   1.565047e+02   3.486989e+02
  -2.348991e+02   2.843665e+02
  -3.595755e+02   6.501995e+01
  -1.990744e+02  -9.220892e+01
   3.006721e+01  -2.228710e+02
   2.252728e+02  -3.438078e+02
   3.601359e+02  -2.481812e+02
   3.281290e+02   1.426386e+02
   9.250539e+01   4.896485e+02
  -1.412374e+02   4.324788e+02
  -1.521867e+02   1.119257e+02
  -2.600829e+01  -3.559003e+01
  -2.729595e+01   8.836081e+01
  -1.998247e+02   1.567823e+02
  -3.109701e+02  -4.210502e+01
  -1.887694e+02  -2.962058e+02
   7.189694e+01  -2.934033e+02
   2.555250e+02  -2.342108e+01
   2.291702e+02   2.607143e+02
  -2.376986e+00   3.303754e+02
  -2.935382e+02   1.391888e+02
  -4.041573e+02  -1.798778e+02
  -2.080769e+02  -3.926012e+02
   1.171093e+02  -3.431337e+02
   2.595876e+02  -1.259623e+02
   1.653487e+02   9.470646e+00
   9.757448e+01  -3.045639e+01
   2.433283e+02  -7.587158e+01
   4.313318e+02   5.316442e+01
   3.625942e+02   3.048671e+02
   3.367310e+00   4.800687e+02
  -3.838540e+02   4.511091e+02
  -5.300264e+02   2.242037e+02
  -3.753888e+02  -9.861298e+01
  -6.760278e+01  -3.283652e+02
   1.485540e+02  -2.872765e+02
   1.041810e+02  -3.104182e+01
  -1.175656e+02   1.320519e+02
  -2.283208e+02   9.514574e-01
  -6.466900e+01  -2.254535e+02
   1.852933e+02  -2.026994e+02
   2.109367e+02   6.737177e+01
  -1.593888e+01   2.240717e+02
  -2.189735e+02   4.346234e+01
  -1.807453e+02  -2.717339e+02
   3.662346e+01  -3.802993e+02
   2.471328e+02  -2.047387e+02
   3.450389e+02   6.846279e+01
   2.991539e+02   2.517405e+02
   1.103176e+02   2.818058e+02
  -1.187946e+02   1.782083e+02
  -1.987235e+02   2.654666e+01
  -6.958911e+01  -3.916847e+01
   8.002660e+01   3.636998e+01
   4.013304e+01   1.382789e+02
  -1.342224e+02   1.164654e+02
  -2.014526e+02  -9.937228e+00
  -6.993892e+01  -8.289965e+01
   8.598364e+01  -2.516581e+01
   6.382311e+01   7.383310e+01
  -1.265599e+02   9.311228e+01
  -2.983079e+02   5.050770e+00
  -2.849988e+02  -1.425320e+02
  -7.330455e+01  -2.724028e+02
   1.923263e+02  -2.887122e+02
   3.100359e+02  -1.449281e+02
   1.927279e+02   5.674932e+01
  -2.472894e+01   1.270086e+02
  -1.054882e+02   1.280597e+01
   2.968649e+01  -1.154275e+02
   2.143414e+02  -7.176406e+01
   2.380023e+02   1.097601e+02
   7.932724e+01   2.302166e+02
  -1.032114e+02   1.774341e+02
  -1.609795e+02   3.516311e+01
  -8.308185e+01  -4.625470e+01
   2.600719e+01  -9.923808e+00
   4.321709e+01   8.188572e+01
  -6.938401e+01   1.199515e+02
  -2.088865e+02   3.631814e+01
  -2.092577e+02  -1.286086e+02
  -2.696450e+01  -2.376119e+02
   1.794788e+02  -1.818347e+02
   2.154994e+02  -6.374264e+00
   7.404313e+01   1.294111e+02
  -7.330956e+01   1.258079e+02
  -9.395445e+01   3.517940e+01
  -2.499177e+01  -2.847822e+01
   1.883367e+01  -2.294177e+01
  -1.052815e+01   3.730151e+00
  -7.085422e+01  -1.179604e+01
  -9.001941e+01  -8.441712e+01
  -1.803726e+01  -1.643068e+02
   1.296113e+02  -1.635307e+02
   2.488728e+02  -3.339513e+01
   2.202031e+02   1.573824e+02
   4.772452e+01   2.575510e+02
  -1.188325e+02   1.864840e+02
  -1.484144e+02   2.887548e+01
  -7.540468e+01  -6.298132e+01
  -2.940159e+01  -4.047140e+01
  -5.663636e+01   1.260306e+01
  -8.328584e+01   6.999434e+00
  -4.101904e+01  -5.084296e+01
   4.545162e+01  -8.901819e+01
   1.035399e+02  -5.612313e+01
   8.559008e+01   3.473554e+01
  -1.248258e+01   1.125071e+02
  -1.445986e+02   9.163134e+01
  -2.088193e+02  -4.886109e+01
  -1.134784e+02  -2.117108e+02
   1.070796e+02  -2.478347e+02
   2.857571e+02  -1.091714e+02
   2.811140e+02   8.955469e+01
   1.220740e+02   1.917981e+02
  -4.064052e+01   1.613420e+02
  -1.031616e+02   9.212742e+01
  -8.781834e+01   7.477755e+01
  -7.374534e+01   9.666225e+01
  -9.929368e+01   7.817168e+01
  -1.364356e+02  -2.426472e+01
  -1.260855e+02  -1.647384e+02
  -3.349295e+01  -2.424512e+02
   1.047287e+02  -1.868303e+02
   1.898761e+02  -2.541634e+01
   1.498105e+02   1.286734e+02
   2.404969e+01   1.723732e+02
  -6.977586e+01   1.027200e+02
  -6.402819e+01   5.033785e+00
  -7.885069e+00  -4.285310e+01
   6.717076e+00  -3.689493e+01
  -4.104377e+01  -2.128153e+01
  -8.331551e+01  -2.539762e+01
  -4.649125e+01  -4.015110e+01
   6.543147e+01  -3.891567e+01
   1.645715e+02  -5.184129e+00
   1.531600e+02   5.106499e+01
   2.112464e+01   9.234906e+01
  -1.249642e+02   7.995674e+01
  -1.552615e+02   1.706484e+01
  -5.327785e+01  -4.119074e+01
   6.414912e+01  -3.856592e+01
   8.058600e+01   2.028126e+01
   5.581476e+00   7.147997e+01
  -6.179820e+01   5.975296e+01
  -6.619159e+01  -3.164140e+00
  -4.369735e+01  -5.300886e+01
  -4.533705e+01  -4.416748e+01
  -6.708290e+01  -2.575716e+00
  -7.099804e+01  -4.479552e-01
  -3.541902e+01  -7.070379e+01
   3.610186e+01  -1.535196e+02
   1.212698e+02  -1.498263e+02
   1.707867e+02  -3.606908e+01
   1.298369e+02   9.572956e+01
   8.679330e+00   1.328188e+02
  -8.968368e+01   6.394014e+01
  -6.329382e+01  -1.692133e+01
   6.331772e+01  -2.140517e+01
   1.479280e+02   4.660327e+01
   8.287293e+01   1.148109e+02
  -8.506404e+01   1.213047e+02
  -2.046024e+02   5.827902e+01
  -1.758141e+02  -3.380689e+01
  -4.197242e+01  -9.310950e+01
   6.419902e+01  -7.779419e+01
   5.272492e+01  -1.028337e+01
  -4.079726e+01   2.778376e+01
  -9.608470e+01  -2.451655e+01
  -3.360760e+01  -1.272388e+02
   1.003249e+02  -1.641994e+02
   1.809856e+02  -6.456745e+01
   1.353590e+02   1.094911e+02
   9.775967e+00   2.122431e+02
  -9.201230e+01   1.551375e+02
  -1.120960e+02  -5.618318e+00
  -6.674053e+01  -1.253658e+02
  -1.342469e+00  -1.150937e+02
   4.753900e+01  -2.333646e+01
   5.747742e+01   3.306939e+01
   3.012675e+01   9.669838e+00
   3.705315e+00  -2.286361e+01
   1.958694e+01   1.417937e+01
   5.918365e+01   9.399275e+01
   4.773092e+01   1.182208e+02
  -4.762325e+01   4.938716e+01
  -1.484576e+02  -4.262075e+01
  -1.408502e+02  -7.626807e+01
  -1.871891e+01  -5.212319e+01
   9.583675e+01  -2.263657e+01
   9.497466e+01  -8.791349e+00
   9.941707e+00   6.560605e+00
  -4.231499e+01   2.405394e+01
  -1.378308e+01   2.101612e+01
   2.452829e+01  -8.123777e-01
  -6.797413e+00  -1.071205e+01
  -8.123972e+01  -5.733396e+00
  -9.717498e+01  -2.610786e+01
  -5.354883e+00  -8.512599e+01
   1.295222e+02  -1.202951e+02
   1.970747e+02  -5.986775e+01
   1.476979e+02   7.427711e+01
   2.531738e+01   1.733707e+02
  -8.399528e+01   1.582077e+02
  -1.209896e+02   6.025860e+01
  -8.585194e+01  -2.378149e+01
  -2.609716e+01  -3.703363e+01
   4.578945e+00  -7.971779e+00
  -9.971165e+00  -3.058771e+00
  -3.607378e+01  -4.784783e+01
  -2.546140e+01  -9.575451e+01
   3.122201e+01  -7.623712e+01
   8.709230e+01   2.094580e+01
   8.092765e+01   1.173932e+02
   1.529673e+00   1.198753e+02
  -8.969632e+01   2.271256e+01
  -1.086072e+02  -8.350586e+01
  -3.161333e+01  -1.103333e+02
   7.149795e+01  -5.659993e+01
   1.024563e+02   1.400075e+01
   3.989573e+01   5.186978e+01
  -3.444257e+01   5.236391e+01
  -3.097377e+01   2.978382e+01
   3.829589e+01   1.228179e+00
   7.406108e+01  -6.297279e+00
   1.490246e+01   2.610733e+01
  -8.473821e+01   7.016785e+01
  -1.218235e+02   6.367030e+01
  -6.597564e+01  -1.140012e+01
   1.764081e+01  -8.772613e+01
   5.522388e+01  -8.340338e+01
   3.711082e+01  -4.072751e+00
  -2.380305e-01   6.037201e+01
  -2.803637e+01   4.402586e+01
  -3.842753e+01  -2.177961e+01
  -2.749582e+01  -5.759082e+01
   3.572900e+00  -3.301784e+01
   3.508092e+01   1.016323e+01
   4.157873e+01   2.132923e+01
   2.190376e+01   2.154713e-01
   4.664807e-02  -1.345923e+01
  -7.481159e+00   6.187833e+00
  -9.968871e+00   3.997922e+01
  -2.168572e+01   4.518833e+01
  -3.553594e+01   4.216271e+00
  -2.904752e+01  -5.050987e+01
   6.409407e+00  -6.493554e+01
   4.864046e+01  -2.022950e+01
   5.817201e+01   4.360307e+01
   1.370564e+01   6.785486e+01
  -5.795300e+01   3.536077e+01
  -9.314005e+01  -1.787084e+01
  -5.147871e+01  -4.729170e+01
   3.082701e+01  -4.189707e+01
   6.877346e+01  -2.059061e+01
   2.449483e+01  -4.518302e+00
  -4.186947e+01  -4.136958e+00
  -4.103026e+01  -1.943467e+01
   3.490515e+01  -3.453097e+01
   1.005203e+02  -1.998514e+01
