
 $NMID
 id='ANONYMOUS ', fmtdat='(2E16.6)'
 volume=1.0
 tramp=1.0
 $END
   4.805092e+03  -6.214662e+00
   2.751254e+03   2.937499e+03
  -9.096723e+02   3.032366e+03
  -2.384381e+03   8.736459e+02
  -9.929443e+02  -8.433108e+02
   8.209615e+02  -6.661680e+02
   1.027897e+03   5.286501e+02
  -2.980281e+01   1.221418e+03
  -9.511185e+02   8.562219e+02
  -1.044874e+03  -1.405674e+02
  -4.736997e+02  -9.804028e+02
   3.054847e+02  -9.831378e+02
   7.340319e+02  -1.033858e+02
   4.256915e+02   8.208361e+02
  -3.189220e+02   8.305399e+02
  -6.806143e+02  -2.687440e+01
  -2.817187e+02  -7.607826e+02
   3.803708e+02  -6.750918e+02
   6.392267e+02  -6.432534e+01
   4.008143e+02   4.044640e+02
  -3.102809e+00   4.764496e+02
  -2.779847e+02   2.814558e+02
  -2.483329e+02   5.900372e+00
   1.132582e+02  -1.220495e+02
   4.569487e+02   9.603734e+01
   2.450297e+02   4.735221e+02
  -4.918206e+02   4.790366e+02
  -9.455611e+02  -6.604970e+01
  -4.895110e+02  -6.184932e+02
   4.339768e+02  -5.601392e+02
   8.354533e+02   2.582793e+01
   3.939408e+02   5.356008e+02
  -3.065364e+02   5.794297e+02
  -6.230732e+02   2.257116e+02
  -4.586636e+02  -2.553924e+02
  -7.139690e+01  -5.330280e+02
   2.405756e+02  -3.176653e+02
   2.155125e+02   2.549006e+02
  -1.772849e+02   5.115658e+02
  -5.168145e+02  -2.809646e+00
  -2.963500e+02  -7.606420e+02
   3.542722e+02  -7.918740e+02
   6.910276e+02  -2.616786e+00
   2.979142e+02   6.322679e+02
  -3.358269e+02   3.694936e+02
  -4.458800e+02  -3.558011e+02
   6.546829e+01  -6.103191e+02
   6.104506e+02  -1.585557e+02
   6.521704e+02   4.394284e+02
   1.786528e+02   6.389001e+02
  -4.215432e+02   3.819981e+02
  -6.894661e+02  -8.081810e+01
  -4.043687e+02  -4.315361e+02
   1.826953e+02  -4.117222e+02
   4.987884e+02  -5.431534e+01
   2.613199e+02   2.375894e+02
  -1.486155e+02   1.282458e+02
  -1.696303e+02  -1.828017e+02
   1.875776e+02  -2.221144e+02
   3.917186e+02   8.361137e+01
   1.539440e+02   3.384231e+02
  -2.271313e+02   2.783036e+02
  -3.501162e+02   6.602151e+01
  -1.953180e+02  -8.856028e+01
   2.754557e+01  -2.183355e+02
   2.182069e+02  -3.373282e+02
   3.504280e+02  -2.437768e+02
   3.205166e+02   1.377980e+02
   9.233094e+01   4.765992e+02
  -1.350265e+02   4.216720e+02
  -1.467049e+02   1.100051e+02
  -2.505213e+01  -3.356415e+01
  -2.677168e+01   8.705466e+01
  -1.948738e+02   1.536965e+02
  -3.035832e+02  -4.009812e+01
  -1.851282e+02  -2.881136e+02
   6.902639e+01  -2.861663e+02
   2.490621e+02  -2.363962e+01
   2.244663e+02   2.533739e+02
  -1.032370e+00   3.220700e+02
  -2.856521e+02   1.368341e+02
  -3.947895e+02  -1.735238e+02
  -2.047144e+02  -3.814361e+02
   1.121346e+02  -3.347503e+02
   2.518310e+02  -1.242705e+02
   1.609229e+02   7.717105e+00
   9.524133e+01  -3.078371e+01
   2.374368e+02  -7.536406e+01
   4.213121e+02   4.972042e+01
   3.553489e+02   2.955274e+02
   5.741790e+00   4.683274e+02
  -3.721786e+02   4.421343e+02
  -5.158144e+02   2.213690e+02
  -3.663291e+02  -9.441787e+01
  -6.724574e+01  -3.197334e+02
   1.432844e+02  -2.803785e+02
   1.008168e+02  -3.055966e+01
  -1.143499e+02   1.289251e+02
  -2.222998e+02   1.585341e+00
  -6.368941e+01  -2.193028e+02
   1.795794e+02  -1.979365e+02
   2.054842e+02   6.483590e+01
  -1.471894e+01   2.181765e+02
  -2.132303e+02   4.315668e+01
  -1.776383e+02  -2.639981e+02
   3.354369e+01  -3.710291e+02
   2.399299e+02  -2.012794e+02
   3.372117e+02   6.467197e+01
   2.933616e+02   2.440883e+02
   1.089508e+02   2.745508e+02
  -1.151259e+02   1.744043e+02
  -1.935433e+02   2.672787e+01
  -6.779356e+01  -3.778776e+01
   7.822221e+01   3.532830e+01
   3.956530e+01   1.347374e+02
  -1.304571e+02   1.140602e+02
  -1.963567e+02  -8.869382e+00
  -6.835097e+01  -8.046636e+01
   8.391076e+01  -2.478272e+01
   6.263242e+01   7.193564e+01
  -1.231546e+02   9.168871e+01
  -2.912634e+02   6.515841e+00
  -2.789248e+02  -1.377509e+02
  -7.278504e+01  -2.655654e+02
   1.863561e+02  -2.825910e+02
   3.016509e+02  -1.427486e+02
   1.879907e+02   5.441285e+01
  -2.363813e+01   1.237766e+02
  -1.026611e+02   1.281224e+01
   2.861775e+01  -1.126821e+02
   2.087297e+02  -7.089759e+01
   2.325472e+02   1.058993e+02
   7.842436e+01   2.240168e+02
  -9.976590e+01   1.734147e+02
  -1.567272e+02   3.497631e+01
  -8.104750e+01  -4.474596e+01
   2.558427e+01  -9.685496e+00
   4.267540e+01   7.994212e+01
  -6.722045e+01   1.175981e+02
  -2.037843e+02   3.651951e+01
  -2.048273e+02  -1.244524e+02
  -2.747189e+01  -2.316123e+02
   1.740669e+02  -1.781967e+02
   2.099676e+02  -7.344794e+00
   7.273659e+01   1.256965e+02
  -7.085808e+01   1.229428e+02
  -9.136197e+01   3.470513e+01
  -2.436823e+01  -2.772754e+01
   1.844552e+01  -2.248195e+01
  -1.014180e+01   3.858113e+00
  -6.929465e+01  -1.091041e+01
  -8.850854e+01  -8.184331e+01
  -1.858064e+01  -1.603781e+02
   1.256775e+02  -1.603638e+02
   2.427374e+02  -3.384949e+01
   2.156534e+02   1.524416e+02
   4.789304e+01   2.509234e+02
  -1.148700e+02   1.824344e+02
  -1.445299e+02   2.898951e+01
  -7.387087e+01  -6.089066e+01
  -2.891718e+01  -3.922069e+01
  -5.518749e+01   1.264609e+01
  -8.127997e+01   7.347006e+00
  -4.048263e+01  -4.935868e+01
   4.371262e+01  -8.725850e+01
   1.008140e+02  -5.556999e+01
   8.395081e+01   3.336898e+01
  -1.147162e+01   1.100385e+02
  -1.407394e+02   9.037164e+01
  -2.041609e+02  -4.659104e+01
  -1.118061e+02  -2.061058e+02
   1.032978e+02  -2.424142e+02
   2.782505e+02  -1.079548e+02
   2.746304e+02   8.591830e+01
   1.200013e+02   1.864118e+02
  -3.881421e+01   1.575335e+02
  -1.000869e+02   9.036893e+01
  -8.515425e+01   7.338421e+01
  -7.129648e+01   9.469495e+01
  -9.637399e+01   7.685697e+01
  -1.332437e+02  -2.284806e+01
  -1.239376e+02  -1.599876e+02
  -3.399815e+01  -2.363417e+02
   1.011690e+02  -1.827965e+02
   1.850866e+02  -2.573573e+01
   1.467958e+02   1.247951e+02
   2.430832e+01   1.680417e+02
  -6.763654e+01   1.005296e+02
  -6.254045e+01   5.141442e+00
  -7.910910e+00  -4.191309e+01
   6.491688e+00  -3.613373e+01
  -4.004053e+01  -2.051922e+01
  -8.144267e+01  -2.423089e+01
  -4.564204e+01  -3.889578e+01
   6.368504e+01  -3.841442e+01
   1.606960e+02  -6.024194e+00
   1.497806e+02   4.906588e+01
   2.102727e+01   9.014999e+01
  -1.215949e+02   7.877477e+01
  -1.514164e+02   1.744377e+01
  -5.221783e+01  -3.999654e+01
   6.232581e+01  -3.804313e+01
   7.874524e+01   1.931007e+01
   5.985009e+00   6.968821e+01
  -5.981308e+01   5.866315e+01
  -6.461564e+01  -2.639773e+00
  -4.306149e+01  -5.139524e+01
  -4.452950e+01  -4.282031e+01
  -6.539707e+01  -2.162405e+00
  -6.925488e+01  -4.745265e-02
  -3.506720e+01  -6.876988e+01
   3.425550e+01  -1.500056e+02
   1.175205e+02  -1.469454e+02
   1.665625e+02  -3.624595e+01
   1.272955e+02   9.265021e+01
   9.213489e+00   1.296147e+02
  -8.715022e+01   6.299562e+01
  -6.184066e+01  -1.609523e+01
   6.163484e+01  -2.123873e+01
   1.445236e+02   4.463148e+01
   8.143249e+01   1.115548e+02
  -8.234799e+01   1.187979e+02
  -1.992922e+02   5.791307e+01
  -1.716790e+02  -3.209523e+01
  -4.139345e+01  -9.061682e+01
   6.227314e+01  -7.618052e+01
   5.141917e+01  -1.024328e+01
  -3.963281e+01   2.738197e+01
  -9.387569e+01  -2.333132e+01
  -3.355526e+01  -1.238650e+02
   9.681098e+01  -1.606948e+02
   1.760464e+02  -6.403678e+01
   1.326100e+02   1.059532e+02
   1.076556e+01   2.069017e+02
  -8.886813e+01   1.518008e+02
  -1.094009e+02  -4.898335e+00
  -6.576980e+01  -1.219725e+02
  -1.828072e+00  -1.122935e+02
   4.632872e+01  -2.301119e+01
   5.619805e+01   3.198255e+01
   2.934992e+01   9.301569e+00
   3.521294e+00  -2.230603e+01
   1.931393e+01   1.372655e+01
   5.829209e+01   9.135886e+01
   4.710879e+01   1.150677e+02
  -4.627946e+01   4.846807e+01
  -1.450221e+02  -4.073021e+01
  -1.377504e+02  -7.362701e+01
  -1.858172e+01  -5.076895e+01
   9.326772e+01  -2.261801e+01
   9.258905e+01  -9.083123e+00
   9.820822e+00   6.347865e+00
  -4.110676e+01   2.367202e+01
  -1.340669e+01   2.055678e+01
   2.384648e+01  -9.185795e-01
  -6.644919e+00  -1.039317e+01
  -7.917909e+01  -5.125886e+00
  -9.494273e+01  -2.488428e+01
  -5.840323e+00  -8.294123e+01
   1.255293e+02  -1.180607e+02
   1.918787e+02  -5.961875e+01
   1.445574e+02   7.146252e+01
   2.573621e+01   1.689100e+02
  -8.101337e+01   1.548671e+02
  -1.176612e+02   5.955658e+01
  -8.386856e+01  -2.268381e+01
  -2.569890e+01  -3.599215e+01
   4.344534e+00  -7.813883e+00
  -9.803859e+00  -2.948489e+00
  -3.545459e+01  -4.651802e+01
  -2.534326e+01  -9.329976e+01
   3.002005e+01  -7.454835e+01
   8.502981e+01   1.991423e+01
   7.960547e+01   1.139680e+02
   2.265063e+00   1.168514e+02
  -8.724581e+01   2.270760e+01
  -1.063876e+02  -8.071610e+01
  -3.154691e+01  -1.073936e+02
   6.934388e+01  -5.569187e+01
   1.000568e+02   1.299283e+01
   3.932019e+01   5.040145e+01
  -3.325531e+01   5.138060e+01
  -3.012144e+01   2.929169e+01
   3.725711e+01   9.706503e-01
   7.218561e+01  -6.584522e+00
   1.473230e+01   2.538226e+01
  -8.225205e+01   6.892457e+01
  -1.185523e+02   6.278713e+01
  -6.452198e+01  -1.074711e+01
   1.667026e+01  -8.568258e+01
   5.341604e+01  -8.173971e+01
   3.621220e+01  -4.300656e+00
   1.496440e-01   5.882481e+01
  -2.704385e+01   4.314638e+01
  -3.756851e+01  -2.094508e+01
  -2.717126e+01  -5.600559e+01
   3.235302e+00  -3.228244e+01
   3.426105e+01   9.676506e+00
   4.072838e+01   2.059433e+01
   2.139152e+01   1.184330e-01
  -9.469849e-02  -1.316576e+01
  -7.325486e+00   5.970291e+00
  -9.422054e+00   3.895207e+01
  -2.070335e+01   4.419242e+01
  -3.450847e+01   4.421580e+00
  -2.866933e+01  -4.894718e+01
   5.743235e+00  -6.328264e+01
   4.725909e+01  -2.003855e+01
   5.701961e+01   4.210205e+01
   1.379470e+01   6.605469e+01
  -5.633362e+01   3.485970e+01
  -9.097714e+01  -1.682938e+01
  -5.050186e+01  -4.581521e+01
   2.979843e+01  -4.109198e+01
   6.693300e+01  -2.055115e+01
   2.390024e+01  -4.596416e+00
  -4.075067e+01  -3.791158e+00
  -4.004275e+01  -1.865642e+01
   3.381123e+01  -3.378705e+01
   9.780817e+01  -2.001503e+01
