
 $NMID
 id='ANONYMOUS ', fmtdat='(2E16.6)'
 volume=1.0
 tramp=1.0
 $END
  -2.916992e+03   1.790217e+01
  -1.930211e+03  -1.483058e+03
   8.338503e+00  -1.855793e+03
   1.136566e+03  -1.101029e+03
   8.471205e+02  -1.424651e+02
   7.085389e-01   2.052772e+02
  -3.588815e+02  -9.711602e+01
  -5.617185e+01  -5.140993e+02
   4.098910e+02  -5.330531e+02
   5.884188e+02  -7.816578e+01
   3.924613e+02   4.647499e+02
   1.910709e+00   5.908703e+02
  -2.855613e+02   1.690830e+02
  -2.339152e+02  -3.796282e+02
   1.016068e+02  -4.943425e+02
   3.693574e+02  -7.338080e+01
   2.706465e+02   4.373515e+02
  -1.130962e+02   5.553465e+02
  -4.190659e+02   2.407799e+02
  -3.923210e+02  -1.601500e+02
  -1.156670e+02  -3.234124e+02
   1.111584e+02  -2.217360e+02
   7.162877e+01  -6.914645e+01
  -1.540752e+02  -7.459274e+01
  -2.506297e+02  -2.307975e+02
  -2.504027e+00  -3.202569e+02
   4.099738e+02  -1.618250e+02
   5.477973e+02   1.511699e+02
   2.128764e+02   3.266255e+02
  -2.837716e+02   1.980999e+02
  -4.564157e+02  -1.044854e+02
  -1.796573e+02  -3.239844e+02
   2.279836e+02  -3.205716e+02
   4.053258e+02  -1.222994e+02
   2.915035e+02   1.410111e+02
   7.752183e+01   2.829172e+02
  -3.529798e+01   1.706418e+02
   1.872831e+01  -8.533322e+01
   1.532929e+02  -1.584716e+02
   1.937583e+02   1.127127e+02
   3.301499e+01   4.435124e+02
  -2.183466e+02   4.070736e+02
  -3.057385e+02   5.371135e+00
  -1.203674e+02  -2.901159e+02
   1.387897e+02  -1.376153e+02
   1.693608e+02   2.382182e+02
  -9.233734e+01   3.517478e+02
  -3.962063e+02   5.885184e+01
  -4.358650e+02  -3.246293e+02
  -1.412348e+02  -4.400703e+02
   2.651273e+02  -2.431780e+02
   4.620867e+02   5.166642e+01
   3.045057e+02   2.267146e+02
  -4.412371e+01   2.100550e+02
  -2.627111e+02   7.569664e+01
  -1.947215e+02  -3.355249e+01
  -8.468564e-01  -2.715057e+01
   5.067901e+01   4.702624e+01
  -8.884500e+01   6.082134e+01
  -2.077279e+02  -4.010342e+01
  -1.133799e+02  -1.745195e+02
   1.340355e+02  -2.189152e+02
   3.005682e+02  -1.193750e+02
   2.311426e+02   8.364835e+01
  -1.759838e+01   2.780502e+02
  -2.547699e+02   3.219061e+02
  -3.222134e+02   1.462429e+02
  -2.100311e+02  -1.410580e+02
  -4.624414e+01  -3.199795e+02
   3.415599e+01  -2.834627e+02
   2.381640e+01  -1.486474e+02
   2.897695e+01  -8.733137e+01
   1.163916e+02  -1.008894e+02
   2.174654e+02  -5.260162e+01
   2.140275e+02   1.023559e+02
   8.307711e+01   2.269624e+02
  -8.254400e+01   1.723788e+02
  -1.694338e+02  -3.370988e+01
  -1.216111e+02  -2.141538e+02
   4.021852e+01  -2.212331e+02
   2.172152e+02  -5.733424e+01
   2.726848e+02   1.508302e+02
   1.495084e+02   2.640024e+02
  -4.664995e+01   2.351750e+02
  -1.488346e+02   1.344305e+02
  -1.293943e+02   6.733891e+01
  -1.281524e+02   5.933960e+01
  -2.427841e+02   3.470079e+01
  -3.612769e+02  -8.156882e+01
  -2.824590e+02  -2.609326e+02
   2.031045e+01  -3.849374e+02
   3.340562e+02  -3.496317e+02
   4.211182e+02  -1.543568e+02
   2.539792e+02   8.784308e+01
   1.844812e+01   2.223776e+02
  -8.361583e+01   1.754802e+02
  -1.295287e+01   3.222257e+01
   1.031145e+02  -3.815420e+01
   1.170520e+02   3.200717e+01
   8.728757e+00   1.267013e+02
  -1.045082e+02   9.440542e+01
  -9.876479e+01  -4.654661e+01
   2.467317e+01  -1.175047e+02
   1.429593e+02  -1.288920e+00
   1.337312e+02   2.066091e+02
  -1.743061e+01   3.007164e+02
  -2.119540e+02   1.829944e+02
  -3.139726e+02  -5.340904e+01
  -2.461863e+02  -2.304035e+02
  -5.460529e+01  -2.420059e+02
   1.133506e+02  -1.242075e+02
   1.337169e+02  -5.336232e+00
   3.131328e+01   1.299533e+01
  -4.562820e+01  -5.368992e+01
   2.709829e+00  -1.007079e+02
   1.096172e+02  -5.926333e+01
   1.300351e+02   2.376454e+01
   2.791004e+01   4.917605e+01
  -7.282498e+01  -1.063022e+01
  -3.442698e+01  -8.223240e+01
   1.309614e+02  -7.788158e+01
   2.661579e+02   1.891803e+01
   2.270490e+02   1.501893e+02
   2.471513e+01   2.321161e+02
  -1.831281e+02   2.065326e+02
  -2.370753e+02   8.507713e+01
  -1.215174e+02  -4.086359e+01
   2.669548e+01  -6.928186e+01
   5.707331e+01   4.465370e+00
  -4.698284e+01   7.107040e+01
  -1.631798e+02   2.915604e+01
  -1.654419e+02  -9.187391e+01
  -4.895130e+01  -1.655443e+02
   7.836495e+01  -1.192257e+02
   1.102081e+02  -1.452670e+01
   4.054816e+01   3.228639e+01
  -3.771043e+01  -1.863905e+01
  -2.437164e+01  -9.722446e+01
   8.586266e+01  -1.046552e+02
   1.865376e+02  -1.099363e+01
   1.605419e+02   1.191738e+02
   8.916432e+00   1.838976e+02
  -1.377512e+02   1.321247e+02
  -1.533956e+02   9.377909e+00
  -4.825715e+01  -8.327526e+01
   5.436028e+01  -8.342071e+01
   6.148616e+01  -2.147254e+01
   7.714166e-01   2.201676e+01
  -3.312428e+01   7.811596e+00
   7.646133e+00  -2.291794e+01
   7.844050e+01  -2.048351e+00
   9.341191e+01   8.097342e+01
   9.870078e+00   1.557151e+02
  -1.264299e+02   1.356777e+02
  -2.108952e+02   8.500313e+00
  -1.693805e+02  -1.405039e+02
  -3.228529e+01  -2.013002e+02
   8.932056e+01  -1.402517e+02
   1.135872e+02  -2.725943e+01
   6.496717e+01   3.859558e+01
   2.990034e+01   2.537050e+01
   4.912454e+01  -1.283898e+01
   7.763021e+01  -6.382202e+00
   5.029718e+01   5.070764e+01
  -3.500784e+01   9.441739e+01
  -1.088706e+02   6.066029e+01
  -9.532801e+01  -3.934180e+01
   1.528651e+01  -1.154901e+02
   1.453681e+02  -8.007093e+01
   1.823626e+02   5.859655e+01
   7.444145e+01   1.888544e+02
  -1.111319e+02   1.955438e+02
  -2.363005e+02   7.105258e+01
  -2.148265e+02  -8.024238e+01
  -8.631758e+01  -1.488548e+02
   3.554711e+01  -1.210713e+02
   7.775699e+01  -7.011760e+01
   6.101246e+01  -6.151459e+01
   5.105171e+01  -8.347519e+01
   7.953538e+01  -7.053754e+01
   1.162683e+02   1.570968e+01
   1.053287e+02   1.354859e+02
   2.341107e+01   1.987936e+02
  -8.845856e+01   1.465346e+02
  -1.497496e+02   9.669857e+00
  -1.109857e+02  -1.122580e+02
  -7.758374e+00  -1.374976e+02
   6.677381e+01  -7.076274e+01
   5.539546e+01   1.300149e+01
  -3.601696e+00   4.765269e+01
  -2.400371e+01   3.180567e+01
   2.390372e+01   1.032821e+01
   7.474734e+01   1.543023e+01
   4.442196e+01   3.543381e+01
  -6.484464e+01   3.546403e+01
  -1.537774e+02  -1.754234e+00
  -1.274327e+02  -5.636226e+01
   9.860423e-01  -8.668052e+01
   1.190494e+02  -6.482459e+01
   1.283185e+02  -4.537717e+00
   3.893183e+01   4.463088e+01
  -5.283732e+01   3.899981e+01
  -6.906060e+01  -1.575445e+01
  -1.735299e+01  -6.523827e+01
   4.018848e+01  -5.865197e+01
   6.079969e+01  -2.571912e+00
   5.168012e+01   4.463637e+01
   4.266233e+01   3.825241e+01
   4.865558e+01   1.430261e+00
   5.725293e+01   8.308919e-01
   3.974533e+01   6.409969e+01
  -2.315229e+01   1.352711e+02
  -1.108766e+02   1.292939e+02
  -1.599525e+02   2.999534e+01
  -1.158870e+02  -8.354267e+01
  -2.004467e+00  -1.178138e+02
   8.191174e+01  -6.176170e+01
   5.516454e+01   9.055036e+00
  -5.110077e+01   1.840584e+01
  -1.177204e+02  -3.606511e+01
  -6.204836e+01  -9.329479e+01
   7.349666e+01  -9.590148e+01
   1.659759e+02  -3.862458e+01
   1.372914e+02   3.596319e+01
   2.670421e+01   7.467198e+01
  -5.647857e+01   5.340996e+01
  -4.268380e+01  -1.305870e+00
   3.534343e+01  -2.769175e+01
   8.193058e+01   1.652171e+01
   3.620668e+01   1.014682e+02
  -6.810787e+01   1.379388e+02
  -1.378413e+02   6.368690e+01
  -1.120042e+02  -7.891609e+01
  -1.595667e+01  -1.685731e+02
   7.106989e+01  -1.237388e+02
   9.127299e+01   9.797228e+00
   4.851767e+01   1.054872e+02
  -1.160068e+01   9.010798e+01
  -4.548807e+01   1.282782e+01
  -3.972573e+01  -2.819550e+01
  -1.451302e+01  -6.339852e+00
  -5.175217e+00   1.529739e+01
  -2.708209e+01  -1.878836e+01
  -5.124830e+01  -7.889166e+01
  -2.831520e+01  -9.186274e+01
   4.919339e+01  -3.731054e+01
   1.192404e+02   3.184362e+01
   1.078580e+02   6.012118e+01
   1.643799e+01   4.677563e+01
  -7.026616e+01   2.339728e+01
  -7.575675e+01   5.423831e+00
  -1.554418e+01  -1.027395e+01
   2.991339e+01  -1.902048e+01
   1.715887e+01  -1.112161e+01
  -1.277980e+01   3.691226e+00
   2.478085e+00   4.734751e+00
   5.822229e+01  -1.702106e+00
   8.198432e+01   1.813501e+01
   2.032413e+01   7.113278e+01
  -9.280799e+01   1.051489e+02
  -1.648887e+02   6.068028e+01
  -1.354369e+02  -4.957192e+01
  -3.037728e+01  -1.395375e+02
   6.916286e+01  -1.374322e+02
   1.020709e+02  -5.925006e+01
   7.103830e+01   1.587763e+01
   2.370513e+01   3.325185e+01
   2.464819e+00   1.168702e+01
   1.237538e+01   7.504876e+00
   2.687929e+01   4.303699e+01
   1.627985e+01   7.993100e+01
  -2.502608e+01   6.339703e+01
  -6.896733e+01  -1.212828e+01
  -7.160184e+01  -8.807185e+01
  -1.424641e+01  -9.678086e+01
   6.509156e+01  -2.954005e+01
   9.384602e+01   5.522971e+01
   3.692667e+01   9.006123e+01
  -5.530948e+01   5.778139e+01
  -9.170428e+01  -5.262510e+00
  -4.113310e+01  -5.078406e+01
   2.953531e+01  -5.499716e+01
   3.531446e+01  -2.616834e+01
  -2.260822e+01   5.791206e+00
  -5.989898e+01   8.809627e+00
  -1.660473e+01  -2.383857e+01
   6.813520e+01  -5.847578e+01
   1.058892e+02  -4.788338e+01
   6.305974e+01   1.429540e+01
  -1.077858e+01   7.504036e+01
  -5.020251e+01   7.391882e+01
  -3.974896e+01   1.211529e+01
  -7.282456e+00  -4.570333e+01
   2.006137e+01  -4.293325e+01
   3.254845e+01   8.238117e+00
   2.590855e+01   4.688361e+01
  -5.092430e-02   3.526084e+01
  -2.942107e+01  -3.811950e+00
  -3.730808e+01  -2.194444e+01
  -1.837507e+01  -4.161705e+00
   3.763428e+00   1.765845e+01
   5.925006e+00   7.761294e+00
  -4.217349e+00  -2.781032e+01
  -1.972682e-01  -4.663452e+01
   2.319342e+01  -2.016490e+01
   3.685713e+01   2.978652e+01
   1.271216e+01   5.232106e+01
  -3.488037e+01   2.344002e+01
  -5.586398e+01  -2.789689e+01
  -1.835904e+01  -5.266113e+01
   4.959915e+01  -3.261397e+01
   8.239396e+01   8.521117e+00
   4.546055e+01   3.727142e+01
  -2.449872e+01   4.068710e+01
  -5.711360e+01   2.599737e+01
  -2.555780e+01   6.604308e+00
   2.460304e+01  -3.600160e+00
   2.941775e+01   4.767033e+00
  -1.970727e+01   2.243838e+01
  -6.802188e+01   1.973354e+01
