
 $NMID
 id='ANONYMOUS ', fmtdat='(2E16.6)'
 volume=1.0
 tramp=1.0
 $END
   3.796179e+03   2.841736e-01
   2.322250e+03   2.155685e+03
  -4.078521e+02   2.409538e+03
  -1.711604e+03   1.023158e+03
  -9.349397e+02  -2.880566e+02
   3.543867e+02  -4.141173e+02
   6.579989e+02   2.852470e+02
   1.990362e+01   8.323099e+02
  -6.555694e+02   6.839251e+02
  -8.004248e+02  -1.727748e+01
  -4.349489e+02  -7.007229e+02
   1.339410e+02  -7.749883e+02
   4.876699e+02  -1.443587e+02
   3.212863e+02   5.795819e+02
  -2.000912e+02   6.507507e+02
  -5.131425e+02   3.017604e+01
  -2.792926e+02  -5.888366e+02
   2.352558e+02  -6.194175e+02
   5.262657e+02  -1.670836e+02
   4.042537e+02   2.726182e+02
   6.477690e+01   3.981386e+02
  -1.872876e+02   2.522755e+02
  -1.506521e+02   4.361098e+01
   1.378104e+02  -7.535149e+00
   3.425231e+02   1.781016e+02
   1.058606e+02   3.919410e+02
  -4.534790e+02   2.996893e+02
  -7.298056e+02  -1.197088e+02
  -3.361542e+02  -4.600808e+02
   3.543166e+02  -3.576112e+02
   6.288377e+02   7.419314e+01
   2.747736e+02   4.226925e+02
  -2.679533e+02   4.379662e+02
  -5.085519e+02   1.675240e+02
  -3.694971e+02  -1.949908e+02
  -7.556581e+01  -3.978863e+02
   1.255685e+02  -2.388175e+02
   8.267124e+01   1.590616e+02
  -1.661434e+02   3.136398e+02
  -3.361992e+02  -6.716614e+01
  -1.459484e+02  -5.889110e+02
   2.829686e+02  -5.812665e+02
   4.791370e+02  -3.975344e+00
   1.993808e+02   4.444051e+02
  -2.268668e+02   2.409564e+02
  -2.914043e+02  -2.939375e+02
   8.406107e+01  -4.701910e+02
   4.972115e+02  -1.012048e+02
   5.366170e+02   3.835403e+02
   1.578498e+02   5.363684e+02
  -3.396664e+02   3.070849e+02
  -5.699810e+02  -6.793416e+01
  -3.534144e+02  -3.221771e+02
   1.056808e+02  -3.022660e+02
   3.712520e+02  -6.717885e+01
   2.285521e+02   1.239241e+02
  -6.354308e+01   7.241213e+01
  -1.036849e+02  -1.065747e+02
   1.330476e+02  -1.318180e+02
   2.917057e+02   6.046334e+01
   1.328111e+02   2.499005e+02
  -1.786666e+02   2.486266e+02
  -3.296170e+02   9.649635e+01
  -2.197529e+02  -8.967651e+01
   2.496929e+01  -2.578699e+02
   2.468502e+02  -3.329290e+02
   3.418079e+02  -1.890058e+02
   2.610765e+02   1.437027e+02
   6.540266e+01   3.946337e+02
  -8.015831e+01   3.495637e+02
  -7.904786e+01   1.355163e+02
  -2.932511e+01   3.648969e+01
  -8.090743e+01   9.548697e+01
  -2.120515e+02   9.554282e+01
  -2.560655e+02  -7.878371e+01
  -1.274789e+02  -2.582889e+02
   7.918863e+01  -2.245043e+02
   2.068485e+02   1.051831e+01
   1.671426e+02   2.360295e+02
  -2.534585e+01   2.689691e+02
  -2.514117e+02   9.155197e+01
  -3.301399e+02  -1.653856e+02
  -1.750102e+02  -3.213260e+02
   7.739718e+01  -2.832149e+02
   1.977609e+02  -1.321765e+02
   1.467596e+02  -3.530847e+01
   1.172252e+02  -4.692643e+01
   2.455744e+02  -5.096805e+01
   3.939406e+02   7.215662e+01
   3.179314e+02   2.833089e+02
  -1.219716e+01   4.287651e+02
  -3.599344e+02   3.944065e+02
  -4.718303e+02   1.836184e+02
  -3.072536e+02  -9.400154e+01
  -3.867728e+01  -2.690668e+02
   1.120778e+02  -2.242386e+02
   5.158134e+01  -3.257949e+01
  -1.099186e+02   7.748280e+01
  -1.646328e+02  -1.848385e+01
  -3.220480e+01  -1.692203e+02
   1.394049e+02  -1.407980e+02
   1.467848e+02   5.564719e+01
  -2.127197e+01   1.633125e+02
  -1.761536e+02   1.866789e+01
  -1.541390e+02  -2.366498e+02
   2.689760e+01  -3.373955e+02
   2.299249e+02  -1.931061e+02
   3.301957e+02   6.191122e+01
   2.698942e+02   2.429279e+02
   7.744544e+01   2.612887e+02
  -1.172315e+02   1.476021e+02
  -1.623468e+02   1.394229e+01
  -4.781064e+01  -2.405979e+01
   6.014302e+01   4.704332e+01
   1.490568e+01   1.172806e+02
  -1.211081e+02   8.344292e+01
  -1.611961e+02  -1.851048e+01
  -4.578624e+01  -6.375772e+01
   7.884768e+01  -3.946784e+00
   4.661358e+01   7.960641e+01
  -1.308796e+02   8.433698e+01
  -2.822697e+02  -1.038505e+01
  -2.529182e+02  -1.495340e+02
  -4.430204e+01  -2.513699e+02
   1.896330e+02  -2.422691e+02
   2.703738e+02  -1.102226e+02
   1.525897e+02   4.821975e+01
  -2.619006e+01   9.409755e+01
  -7.787866e+01   2.716006e+00
   4.035656e+01  -9.007935e+01
   1.863172e+02  -4.674486e+01
   1.972754e+02   1.008647e+02
   6.169136e+01   1.945700e+02
  -8.995728e+01   1.446568e+02
  -1.326646e+02   2.303579e+01
  -5.874451e+01  -3.846197e+01
   3.291694e+01   7.141057e+00
   3.189048e+01   9.185663e+01
  -8.037701e+01   1.116098e+02
  -1.978377e+02   2.081396e+01
  -1.821025e+02  -1.250350e+02
  -1.587391e+01  -2.083700e+02
   1.571997e+02  -1.538938e+02
   1.811964e+02  -7.731588e+00
   5.941771e+01   1.036558e+02
  -6.311243e+01   1.019237e+02
  -7.581661e+01   2.731143e+01
  -1.086161e+01  -2.481790e+01
   2.743218e+01  -1.396656e+01
  -9.191896e+00   1.508530e+01
  -7.620322e+01  -4.239655e+00
  -9.255424e+01  -8.385198e+01
  -1.256562e+01  -1.610094e+02
   1.297341e+02  -1.481305e+02
   2.290076e+02  -1.807261e+01
   1.918458e+02   1.497578e+02
   3.831635e+01   2.271762e+02
  -1.031865e+02   1.608493e+02
  -1.295809e+02   2.780116e+01
  -6.998385e+01  -4.955621e+01
  -2.996424e+01  -3.215862e+01
  -5.288398e+01   1.264429e+01
  -8.087604e+01   6.300425e+00
  -4.665566e+01  -5.166010e+01
   4.034666e+01  -9.303653e+01
   1.081865e+02  -5.875231e+01
   9.201531e+01   3.844247e+01
  -1.495671e+01   1.153805e+02
  -1.470025e+02   8.494959e+01
  -1.950413e+02  -5.602228e+01
  -9.069365e+01  -2.006699e+02
   1.114228e+02  -2.189441e+02
   2.597814e+02  -8.677903e+01
   2.445728e+02   8.583170e+01
   1.016781e+02   1.687591e+02
  -3.850910e+01   1.391129e+02
  -8.952472e+01   7.982941e+01
  -7.319354e+01   6.756668e+01
  -6.152546e+01   8.976386e+01
  -8.904570e+01   7.417320e+01
  -1.259548e+02  -2.001036e+01
  -1.145880e+02  -1.497029e+02
  -2.703180e+01  -2.193392e+02
   9.683021e+01  -1.646290e+02
   1.681680e+02  -1.577919e+01
   1.279427e+02   1.207530e+02
   1.411280e+01   1.535649e+02
  -6.895923e+01   8.457822e+01
  -5.942894e+01  -5.834407e+00
  -8.772697e-01  -4.605935e+01
   1.715683e+01  -3.403830e+01
  -3.136733e+01  -1.506636e+01
  -7.912655e+01  -2.015595e+01
  -4.559716e+01  -3.803892e+01
   6.597350e+01  -3.692764e+01
   1.599164e+02  -3.249385e-01
   1.392525e+02   5.531616e+01
   7.823248e+00   8.985092e+01
  -1.230952e+02   7.123135e+01
  -1.409620e+02   9.279573e+00
  -4.509670e+01  -4.380164e+01
   5.838352e+01  -3.900753e+01
   7.458337e+01   1.814840e+01
   1.226407e+01   6.873778e+01
  -5.002397e+01   5.965434e+01
  -6.377134e+01  -1.230790e-01
  -4.868443e+01  -4.898076e+01
  -4.406407e+01  -4.137684e+01
  -5.691593e+01  -2.089031e+00
  -6.363443e+01  -9.206579e-01
  -3.803260e+01  -6.782036e+01
   2.949944e+01  -1.443426e+02
   1.170499e+02  -1.387397e+02
   1.663629e+02  -3.201948e+01
   1.225930e+02   9.013827e+01
   4.246854e+00   1.253550e+02
  -8.640030e+01   6.292263e+01
  -5.917116e+01  -1.272020e+01
   5.686814e+01  -1.964791e+01
   1.315330e+02   4.136290e+01
   7.106154e+01   1.035593e+02
  -7.953623e+01   1.072531e+02
  -1.840815e+02   4.658464e+01
  -1.547261e+02  -3.599059e+01
  -3.309035e+01  -8.327520e+01
   6.048184e+01  -6.394794e+01
   4.727916e+01  -3.363596e+00
  -3.817323e+01   2.786131e+01
  -8.871352e+01  -2.043699e+01
  -3.508780e+01  -1.136072e+02
   8.299349e+01  -1.502666e+02
   1.578023e+02  -6.422706e+01
   1.227594e+02   9.309876e+01
   1.284369e+01   1.888576e+02
  -8.114050e+01   1.379815e+02
  -1.009178e+02  -8.540846e+00
  -5.621207e+01  -1.151349e+02
   6.651617e+00  -1.014216e+02
   4.684760e+01  -1.712963e+01
   4.747593e+01   3.066167e+01
   2.120896e+01   7.790520e+00
   4.653943e+00  -1.859984e+01
   2.409132e+01   1.725968e+01
   5.477609e+01   8.632734e+01
   3.641134e+01   1.039596e+02
  -4.920353e+01   4.249090e+01
  -1.326795e+02  -3.721111e+01
  -1.226304e+02  -6.795911e+01
  -1.733848e+01  -4.960587e+01
   8.189880e+01  -2.308957e+01
   8.465259e+01  -6.583010e+00
   1.327780e+01   8.950974e+00
  -3.551993e+01   2.124591e+01
  -1.592830e+01   1.527541e+01
   1.788918e+01  -2.523777e+00
  -4.328777e+00  -7.281915e+00
  -6.857077e+01  -1.589076e+00
  -8.919356e+01  -2.205223e+01
  -1.394029e+01  -7.798729e+01
   1.097306e+02  -1.123434e+02
   1.805354e+02  -6.025241e+01
   1.419197e+02   6.117833e+01
   2.799496e+01   1.554546e+02
  -7.679401e+01   1.473356e+02
  -1.114495e+02   5.984770e+01
  -7.798351e+01  -1.968103e+01
  -2.479852e+01  -3.531967e+01
   5.560647e-01  -1.031256e+01
  -1.142858e+01  -5.805892e+00
  -3.081288e+01  -4.561761e+01
  -1.995148e+01  -8.747249e+01
   2.818004e+01  -6.936783e+01
   7.730752e+01   1.624181e+01
   7.597079e+01   1.016842e+02
   8.652920e+00   1.076839e+02
  -7.633659e+01   2.677558e+01
  -1.009190e+02  -6.814162e+01
  -3.470679e+01  -9.979012e+01
   6.304212e+01  -5.769501e+01
   9.723407e+01   9.445879e+00
   4.077351e+01   5.203269e+01
  -3.224697e+01   5.434768e+01
  -3.400128e+01   2.773856e+01
   2.951574e+01  -2.876883e+00
   6.655784e+01  -7.596110e+00
   1.594711e+01   2.515472e+01
  -7.610278e+01   6.372997e+01
  -1.138973e+02   5.452103e+01
  -6.486483e+01  -1.357808e+01
   1.412610e+01  -8.115825e+01
   5.321720e+01  -7.844274e+01
   3.919167e+01  -8.625139e+00
   4.034826e+00   5.244444e+01
  -2.386552e+01   4.379130e+01
  -3.540674e+01  -1.416122e+01
  -2.665359e+01  -5.202368e+01
   1.746626e+00  -3.472239e+01
   3.213334e+01   6.652329e+00
   3.937412e+01   2.211047e+01
   2.000600e+01   2.633240e+00
  -2.076668e+00  -1.613230e+01
  -6.509234e+00  -2.013718e+00
  -1.774687e+00   3.333337e+01
  -9.263638e+00   4.667137e+01
  -2.884221e+01   1.363299e+01
  -3.393755e+01  -3.906890e+01
  -4.602248e+00  -5.837613e+01
   4.118853e+01  -2.223264e+01
   5.737604e+01   3.509767e+01
   1.639805e+01   5.974324e+01
  -5.381181e+01   3.388770e+01
  -8.780582e+01  -1.294297e+01
  -4.832773e+01  -4.210340e+01
   2.764593e+01  -4.153422e+01
   6.280902e+01  -2.375470e+01
   2.543894e+01  -5.646524e+00
  -3.218683e+01   3.594276e-01
  -3.467608e+01  -1.107101e+01
   2.635219e+01  -2.774039e+01
   8.251099e+01  -1.986802e+01
