
 $NMID
 id='ANONYMOUS ', fmtdat='(2E16.6)'
 volume=1.0
 tramp=1.0
 $END
   4.459031e+03   9.293967e+00
   2.567701e+03   2.711674e+03
  -8.081261e+02   2.816495e+03
  -2.193656e+03   8.538271e+02
  -9.446965e+02  -7.320746e+02
   7.198832e+02  -6.024535e+02
   9.312504e+02   4.728022e+02
  -2.361253e+01   1.114524e+03
  -8.713113e+02   7.938031e+02
  -9.665289e+02  -1.196589e+02
  -4.462564e+02  -9.010965e+02
   2.707737e+02  -9.122814e+02
   6.687071e+02  -1.038186e+02
   3.911143e+02   7.528166e+02
  -2.908287e+02   7.695274e+02
  -6.284760e+02  -1.923616e+01
  -2.675424e+02  -7.056420e+02
   3.463817e+02  -6.385330e+02
   5.976703e+02  -7.448262e+01
   3.839689e+02   3.706047e+02
   5.257590e+00   4.459800e+02
  -2.544089e+02   2.650428e+02
  -2.242434e+02   1.086852e+01
   1.115836e+02  -9.949867e+01
   4.200199e+02   1.051615e+02
   2.130327e+02   4.418475e+02
  -4.664648e+02   4.309533e+02
  -8.740751e+02  -7.375362e+01
  -4.453554e+02  -5.707401e+02
   4.051885e+02  -5.060414e+02
   7.701238e+02   3.395873e+01
   3.586802e+02   4.977644e+02
  -2.897335e+02   5.336462e+02
  -5.811368e+02   2.058651e+02
  -4.259815e+02  -2.374540e+02
  -6.769357e+01  -4.916747e+02
   2.146916e+02  -2.929679e+02
   1.869281e+02   2.301324e+02
  -1.689063e+02   4.607660e+02
  -4.684356e+02  -1.285274e+01
  -2.600424e+02  -7.040955e+02
   3.311111e+02  -7.273136e+02
   6.315767e+02  -1.333820e+00
   2.699102e+02   5.792392e+02
  -3.066283e+02   3.348685e+02
  -4.037287e+02  -3.327502e+02
   6.715158e+01  -5.640992e+02
   5.688881e+02  -1.416676e+02
   6.066344e+02   4.152361e+02
   1.659913e+02   5.981932e+02
  -3.933433e+02   3.539364e+02
  -6.432105e+02  -7.790440e+01
  -3.790947e+02  -3.992850e+02
   1.649064e+02  -3.785792e+02
   4.599628e+02  -5.268272e+01
   2.456631e+02   2.122081e+02
  -1.301635e+02   1.149162e+02
  -1.528475e+02  -1.643271e+02
   1.720802e+02  -1.993660e+02
   3.607346e+02   7.776087e+01
   1.436574e+02   3.120852e+02
  -2.117859e+02   2.617768e+02
  -3.332657e+02   6.612975e+01
  -1.903058e+02  -8.630270e+01
   2.755438e+01  -2.149159e+02
   2.150092e+02  -3.212849e+02
   3.353300e+02  -2.239905e+02
   2.978107e+02   1.339768e+02
   8.298034e+01   4.451090e+02
  -1.228699e+02   3.935660e+02
  -1.316061e+02   1.090948e+02
  -2.518111e+01  -2.215521e+01
  -3.406863e+01   8.397800e+01
  -1.894824e+02   1.376877e+02
  -2.834787e+02  -4.513223e+01
  -1.678930e+02  -2.721853e+02
   6.847757e+01  -2.648710e+02
   2.323638e+02  -1.684602e+01
   2.056971e+02   2.409068e+02
  -5.633805e+00   3.007346e+02
  -2.690626e+02   1.234584e+02
  -3.682063e+02  -1.665061e+02
  -1.905633e+02  -3.576196e+02
   1.036205e+02  -3.131524e+02
   2.342411e+02  -1.195291e+02
   1.525907e+02   1.819420e+00
   9.481254e+01  -3.114075e+01
   2.289097e+02  -6.738828e+01
   3.993727e+02   5.280277e+01
   3.337781e+02   2.829334e+02
   8.972143e-01   4.429957e+02
  -3.567415e+02   4.150716e+02
  -4.887733e+02   2.045019e+02
  -3.420637e+02  -9.171521e+01
  -5.918076e+01  -2.991557e+02
   1.336658e+02  -2.601698e+02
   8.965189e+01  -2.957385e+01
  -1.090968e+02   1.155546e+02
  -2.044950e+02  -1.948538e+00
  -5.585710e+01  -2.029270e+02
   1.667179e+02  -1.809075e+02
   1.881860e+02   6.126267e+01
  -1.561831e+01   2.010054e+02
  -1.989645e+02   3.709120e+01
  -1.657791e+02  -2.497420e+02
   3.274466e+01  -3.506455e+02
   2.294731e+02  -1.906145e+02
   3.219026e+02   6.324663e+01
   2.765412e+02   2.350611e+02
   9.857715e+01   2.614713e+02
  -1.112775e+02   1.626606e+02
  -1.809850e+02   2.308666e+01
  -6.202240e+01  -3.436673e+01
   7.204704e+01   3.578299e+01
   3.382540e+01   1.265604e+02
  -1.239580e+02   1.043030e+02
  -1.829547e+02  -1.055068e+01
  -6.199275e+01  -7.481817e+01
   7.960774e+01  -2.034571e+01
   5.725713e+01   7.022503e+01
  -1.195657e+02   8.610564e+01
  -2.777358e+02   2.385103e+00
  -2.627467e+02  -1.349163e+02
  -6.440655e+01  -2.525682e+02
   1.801404e+02  -2.640165e+02
   2.849901e+02  -1.308705e+02
   1.748295e+02   5.185686e+01
  -2.335962e+01   1.141790e+02
  -9.476102e+01   1.053985e+01
   2.948462e+01  -1.044540e+02
   1.969292e+02  -6.360314e+01
   2.172808e+02   1.016065e+02
   7.189068e+01   2.106739e+02
  -9.479648e+01   1.616286e+02
  -1.467844e+02   3.123165e+01
  -7.427713e+01  -4.216329e+01
   2.546683e+01  -6.629886e+00
   3.880444e+01   7.846801e+01
  -6.688824e+01   1.113701e+02
  -1.944942e+02   3.173591e+01
  -1.923826e+02  -1.201936e+02
  -2.369562e+01  -2.186481e+02
   1.650595e+02  -1.665514e+02
   1.971166e+02  -6.314216e+00
   6.736392e+01   1.175143e+02
  -6.720801e+01   1.145027e+02
  -8.541409e+01   3.188108e+01
  -2.128065e+01  -2.614087e+01
   1.901565e+01  -2.012416e+01
  -9.718003e+00   5.288805e+00
  -6.743812e+01  -9.914106e+00
  -8.498573e+01  -7.923687e+01
  -1.610575e+01  -1.538523e+02
   1.217527e+02  -1.512472e+02
   2.306853e+02  -2.904622e+01
   2.024921e+02   1.465914e+02
   4.346993e+01   2.372104e+02
  -1.091213e+02   1.712592e+02
  -1.364980e+02   2.702613e+01
  -7.004571e+01  -5.705593e+01
  -2.774140e+01  -3.672604e+01
  -5.262854e+01   1.186182e+01
  -7.787728e+01   6.477158e+00
  -3.942469e+01  -4.791744e+01
   4.191718e+01  -8.429030e+01
   9.802308e+01  -5.313528e+01
   8.141885e+01   3.323652e+01
  -1.212220e+01   1.061572e+02
  -1.362216e+02   8.504863e+01
  -1.940315e+02  -4.698460e+01
  -1.030966e+02  -1.971245e+02
   1.011987e+02  -2.283335e+02
   2.643610e+02  -9.915932e+01
   2.584289e+02   8.344327e+01
   1.115840e+02   1.765410e+02
  -3.777946e+01   1.481249e+02
  -9.475536e+01   8.468290e+01
  -8.019985e+01   6.918036e+01
  -6.735374e+01   8.978487e+01
  -9.167804e+01   7.285981e+01
  -1.265694e+02  -2.209667e+01
  -1.167223e+02  -1.523966e+02
  -3.053661e+01  -2.241699e+02
   9.709376e+01  -1.720983e+02
   1.749796e+02  -2.244407e+01
   1.373667e+02   1.195914e+02
   2.110351e+01   1.589870e+02
  -6.537605e+01   9.367962e+01
  -5.940794e+01   3.042787e+00
  -6.302178e+00  -4.074635e+01
   7.937618e+00  -3.418766e+01
  -3.706908e+01  -1.899160e+01
  -7.764561e+01  -2.302741e+01
  -4.355182e+01  -3.739177e+01
   6.155856e+01  -3.625475e+01
   1.538905e+02  -4.128827e+00
   1.417216e+02   4.860064e+01
   1.777517e+01   8.634016e+01
  -1.170971e+02   7.377125e+01
  -1.436219e+02   1.486315e+01
  -4.877218e+01  -3.908611e+01
   5.937269e+01  -3.632628e+01
   7.478695e+01   1.870162e+01
   6.302247e+00   6.675493e+01
  -5.621983e+01   5.616791e+01
  -6.182533e+01  -2.487137e+00
  -4.185452e+01  -4.919120e+01
  -4.241013e+01  -4.105820e+01
  -6.144095e+01  -2.310612e+00
  -6.555599e+01  -4.701952e-01
  -3.370105e+01  -6.599006e+01
   3.285468e+01  -1.428338e+02
   1.132480e+02  -1.390594e+02
   1.597683e+02  -3.327537e+01
   1.208826e+02   8.904733e+01
   7.487600e+00   1.236160e+02
  -8.374929e+01   5.993291e+01
  -5.883971e+01  -1.522675e+01
   5.847802e+01  -1.985916e+01
   1.364448e+02   4.291339e+01
   7.605642e+01   1.060769e+02
  -7.901497e+01   1.117982e+02
  -1.889955e+02   5.299697e+01
  -1.618885e+02  -3.203774e+01
  -3.807940e+01  -8.591807e+01
   5.969536e+01  -7.094072e+01
   4.866649e+01  -8.596441e+00
  -3.792225e+01   2.612769e+01
  -8.914155e+01  -2.237146e+01
  -3.185619e+01  -1.174239e+02
   9.150379e+01  -1.521585e+02
   1.664222e+02  -6.069250e+01
   1.252657e+02   1.002687e+02
   9.744797e+00   1.957729e+02
  -8.469570e+01   1.431184e+02
  -1.035673e+02  -5.699324e+00
  -6.109625e+01  -1.161588e+02
  -5.421640e-02  -1.059774e+02
   4.454055e+01  -2.095833e+01
   5.244817e+01   3.066291e+01
   2.691637e+01   8.763109e+00
   3.616436e+00  -2.081218e+01
   1.910112e+01   1.381929e+01
   5.494599e+01   8.710117e+01
   4.312263e+01   1.088118e+02
  -4.497281e+01   4.532112e+01
  -1.370395e+02  -3.914668e+01
  -1.295187e+02  -7.030081e+01
  -1.738168e+01  -4.857685e+01
   8.786694e+01  -2.138662e+01
   8.761573e+01  -7.949104e+00
   9.857066e+00   6.549081e+00
  -3.868592e+01   2.218379e+01
  -1.326875e+01   1.884139e+01
   2.201219e+01  -1.052713e+00
  -6.011042e+00  -9.519943e+00
  -7.436231e+01  -4.696328e+00
  -9.007035e+01  -2.386853e+01
  -6.401480e+00  -7.889395e+01
   1.185725e+02  -1.118507e+02
   1.825835e+02  -5.637016e+01
   1.379174e+02   6.771764e+01
   2.426872e+01   1.601030e+02
  -7.775721e+01   1.469765e+02
  -1.121866e+02   5.658893e+01
  -7.944873e+01  -2.167627e+01
  -2.432435e+01  -3.452428e+01
   3.679050e+00  -7.869826e+00
  -9.589139e+00  -3.308790e+00
  -3.307960e+01  -4.459213e+01
  -2.308901e+01  -8.865752e+01
   2.883679e+01  -7.056795e+01
   8.031568e+01   1.891127e+01
   7.531657e+01   1.078259e+02
   2.594695e+00   1.107490e+02
  -8.219900e+01   2.202178e+01
  -1.008949e+02  -7.602942e+01
  -3.022512e+01  -1.020281e+02
   6.585772e+01  -5.338236e+01
   9.546635e+01   1.242253e+01
   3.762551e+01   4.876510e+01
  -3.202354e+01   4.952097e+01
  -2.957091e+01   2.765662e+01
   3.462046e+01   4.825277e-01
   6.841748e+01  -6.145913e+00
   1.417010e+01   2.438455e+01
  -7.824680e+01   6.495155e+01
  -1.131959e+02   5.842031e+01
  -6.181175e+01  -1.104776e+01
   1.600210e+01  -8.141158e+01
   5.155741e+01  -7.759815e+01
   3.521018e+01  -4.534913e+00
   4.721496e-01   5.549779e+01
  -2.568799e+01   4.134463e+01
  -3.565813e+01  -1.926032e+01
  -2.572257e+01  -5.323783e+01
   3.075278e+00  -3.129716e+01
   3.251205e+01   8.989301e+00
   3.872106e+01   2.015584e+01
   2.027642e+01   5.748508e-01
  -2.810582e-01  -1.307204e+01
  -6.851681e+00   4.532198e+00
  -8.061217e+00   3.654949e+01
  -1.843301e+01   4.273133e+01
  -3.237034e+01   5.459064e+00
  -2.809678e+01  -4.568156e+01
   4.274680e+00  -6.002115e+01
   4.454149e+01  -1.934641e+01
   5.456252e+01   3.963341e+01
   1.332706e+01   6.249472e+01
  -5.379942e+01   3.300941e+01
  -8.669632e+01  -1.600044e+01
  -4.789417e+01  -4.361208e+01
   2.846491e+01  -3.932129e+01
   6.369559e+01  -1.986365e+01
   2.316719e+01  -4.420105e+00
  -3.783815e+01  -3.151471e+00
  -3.758358e+01  -1.692981e+01
   3.143540e+01  -3.140935e+01
   9.162802e+01  -1.881863e+01
