
 $NMID
 id='ANONYMOUS ', fmtdat='(2E16.6)'
 volume=1.0
 tramp=1.0
 $END
  -4.833971e+03   5.983034e+01
  -2.780582e+03  -2.967471e+03
   9.450558e+02  -3.077173e+03
   2.444296e+03  -8.490831e+02
   1.001444e+03   9.224816e+02
  -8.705826e+02   7.197696e+02
  -1.078907e+03  -5.376036e+02
   1.713746e+01  -1.258384e+03
   9.671740e+02  -8.762503e+02
   1.063568e+03   1.472028e+02
   4.797185e+02   9.996988e+02
  -3.179630e+02   9.994327e+02
  -7.596790e+02   1.051965e+02
  -4.445117e+02  -8.340316e+02
   3.218203e+02  -8.433640e+02
   6.931347e+02   2.835984e+01
   2.811642e+02   7.682742e+02
  -3.936588e+02   6.701768e+02
  -6.453355e+02   4.715051e+01
  -3.930572e+02  -4.173272e+02
   1.269316e+01  -4.791864e+02
   2.849088e+02  -2.822216e+02
   2.612874e+02  -3.671975e+00
  -9.746958e+01   1.388232e+02
  -4.581741e+02  -7.004726e+01
  -2.681382e+02  -4.647511e+02
   4.717412e+02  -4.990770e+02
   9.513218e+02   4.155037e+01
   5.111273e+02   6.194978e+02
  -4.229684e+02   5.845675e+02
  -8.437455e+02  -4.172590e+00
  -4.095125e+02  -5.323981e+02
   2.956928e+02  -5.886803e+02
   6.204750e+02  -2.350524e+02
   4.632406e+02   2.537281e+02
   7.526106e+01   5.413185e+02
  -2.507132e+02   3.286361e+02
  -2.397340e+02  -2.571572e+02
   1.619756e+02  -5.331090e+02
   5.304043e+02  -2.025475e+01
   3.248430e+02   7.590014e+02
  -3.444216e+02   8.092460e+02
  -7.086809e+02   1.392550e+01
  -3.172337e+02  -6.416610e+02
   3.383776e+02  -3.879745e+02
   4.638616e+02   3.467731e+02
  -5.198935e+01   6.151538e+02
  -6.079656e+02   1.700856e+02
  -6.544297e+02  -4.290191e+02
  -1.814368e+02  -6.355471e+02
   4.189341e+02  -3.874666e+02
   6.892430e+02   7.451358e+01
   4.059185e+02   4.355853e+02
  -1.856161e+02   4.232110e+02
  -5.072888e+02   5.665414e+01
  -2.650231e+02  -2.502937e+02
   1.571064e+02  -1.397526e+02
   1.810594e+02   1.877569e+02
  -1.866276e+02   2.351812e+02
  -3.989154e+02  -7.986035e+01
  -1.574215e+02  -3.429829e+02
   2.273997e+02  -2.767803e+02
   3.436612e+02  -5.811861e+01
   1.831758e+02   8.705825e+01
  -2.994886e+01   2.026987e+02
  -2.050562e+02   3.238964e+02
  -3.366884e+02   2.458050e+02
  -3.202565e+02  -1.286519e+02
  -9.849610e+01  -4.744078e+02
   1.375530e+02  -4.240669e+02
   1.567611e+02  -1.048329e+02
   2.755046e+01   4.667970e+01
   1.568222e+01  -7.885276e+01
   1.811692e+02  -1.583563e+02
   2.997225e+02   2.860535e+01
   1.912696e+02   2.805545e+02
  -6.129113e+01   2.874591e+02
  -2.465051e+02   3.172230e+01
  -2.284311e+02  -2.446656e+02
  -6.491908e+00  -3.196268e+02
   2.797295e+02  -1.425132e+02
   3.936993e+02   1.657315e+02
   2.062452e+02   3.783452e+02
  -1.125514e+02   3.349564e+02
  -2.543410e+02   1.210570e+02
  -1.606165e+02  -1.549298e+01
  -8.848507e+01   2.490436e+01
  -2.259359e+02   7.655756e+01
  -4.101808e+02  -4.261014e+01
  -3.502356e+02  -2.857719e+02
  -1.061948e+01  -4.583350e+02
   3.592163e+02  -4.358152e+02
   5.042141e+02  -2.226462e+02
   3.648289e+02   8.820711e+01
   7.302492e+01   3.167624e+02
  -1.414841e+02   2.831762e+02
  -1.072285e+02   3.189193e+01
   1.082196e+02  -1.346264e+02
   2.246172e+02  -8.649326e+00
   7.034529e+01   2.196324e+02
  -1.780420e+02   2.043726e+02
  -2.102818e+02  -6.114034e+01
   9.936698e+00  -2.208820e+02
   2.115676e+02  -4.836107e+01
   1.771165e+02   2.588999e+02
  -3.234131e+01   3.647800e+02
  -2.332204e+02   1.958240e+02
  -3.265523e+02  -6.314873e+01
  -2.871055e+02  -2.347034e+02
  -1.116051e+02  -2.656257e+02
   1.092715e+02  -1.731424e+02
   1.921000e+02  -2.985904e+01
   7.012622e+01   3.808062e+01
  -7.823619e+01  -3.076081e+01
  -4.388095e+01  -1.319512e+02
   1.259860e+02  -1.164021e+02
   1.957273e+02   4.850604e+00
   7.127773e+01   7.966540e+01
  -8.067676e+01   2.820251e+01
  -6.296967e+01  -6.695862e+01
   1.169213e+02  -8.914391e+01
   2.815795e+02  -9.629665e+00
   2.731105e+02   1.294090e+02
   7.620862e+01   2.572630e+02
  -1.770952e+02   2.799339e+02
  -2.953600e+02   1.454501e+02
  -1.885942e+02  -5.189374e+01
   2.069866e+01  -1.250634e+02
   1.033349e+02  -1.569248e+01
  -2.407676e+01   1.123758e+02
  -2.043731e+02   7.414410e+01
  -2.313508e+02  -1.013984e+02
  -8.032022e+01  -2.209906e+02
   9.672224e+01  -1.733448e+02
   1.552476e+02  -3.727670e+01
   8.289537e+01   4.318439e+01
  -2.218203e+01   1.219855e+01
  -4.240468e+01  -7.411183e+01
   6.204486e+01  -1.136285e+02
   1.967648e+02  -3.830565e+01
   2.017334e+02   1.188804e+02
   2.977190e+01   2.272871e+02
  -1.700521e+02   1.773502e+02
  -2.082231e+02   8.355397e+00
  -7.389515e+01  -1.249172e+02
   6.881505e+01  -1.230680e+02
   9.080509e+01  -3.571254e+01
   2.631775e+01   2.653042e+01
  -1.550698e+01   2.278643e+01
   1.066773e+01  -1.513097e+00
   6.581581e+01   1.241793e+01
   8.423467e+01   7.893192e+01
   1.875485e+01   1.541626e+02
  -1.199243e+02   1.565514e+02
  -2.358663e+02   3.614723e+01
  -2.125326e+02  -1.464731e+02
  -4.904831e+01  -2.461718e+02
   1.121195e+02  -1.806919e+02
   1.423167e+02  -2.881764e+01
   7.257321e+01   6.088046e+01
   2.802654e+01   3.934778e+01
   5.369274e+01  -1.222360e+01
   7.839391e+01  -7.153969e+00
   3.755434e+01   4.758916e+01
  -4.334858e+01   8.309123e+01
  -9.602983e+01   5.228199e+01
  -7.894557e+01  -3.182314e+01
   1.091385e+01  -1.047833e+02
   1.342836e+02  -8.754306e+01
   1.979819e+02   4.288172e+01
   1.119352e+02   1.987189e+02
  -9.700666e+01   2.376979e+02
  -2.708685e+02   1.088932e+02
  -2.706163e+02  -8.155133e+01
  -1.200714e+02  -1.823627e+02
   3.666337e+01  -1.555035e+02
   9.813864e+01  -8.968278e+01
   8.427846e+01  -7.247979e+01
   7.057776e+01  -9.274135e+01
   9.436955e+01  -7.489318e+01
   1.300480e+02   2.241406e+01
   1.216712e+02   1.559750e+02
   3.474367e+01   2.308979e+02
  -9.765321e+01   1.799324e+02
  -1.812645e+02   2.747357e+01
  -1.452950e+02  -1.202574e+02
  -2.602890e+01  -1.643255e+02
   6.416341e+01  -9.989333e+01
   6.025164e+01  -7.217416e+00
   8.693311e+00   3.916213e+01
  -4.069859e+00   3.458524e+01
   4.063252e+01   2.041882e+01
   7.918535e+01   2.419703e+01
   4.398754e+01   3.776022e+01
  -6.092751e+01   3.706380e+01
  -1.547453e+02   6.672264e+00
  -1.460260e+02  -4.570750e+01
  -2.274965e+01  -8.620257e+01
   1.166244e+02  -7.711870e+01
   1.476041e+02  -1.879001e+01
   5.145248e+01   3.746632e+01
  -6.101320e+01   3.660266e+01
  -7.678404e+01  -1.875111e+01
  -4.433209e+00  -6.777637e+01
   5.980277e+01  -5.684285e+01
   6.261531e+01   3.126144e+00
   4.043730e+01   5.046677e+01
   4.302729e+01   4.163301e+01
   6.474589e+01   1.708114e+00
   6.783918e+01  -3.360494e-01
   3.313597e+01   6.674502e+01
  -3.392962e+01   1.459787e+02
  -1.131866e+02   1.431048e+02
  -1.604370e+02   3.546737e+01
  -1.236357e+02  -8.979345e+01
  -9.877721e+00  -1.255270e+02
   8.429465e+01  -6.062028e+01
   6.033069e+01   1.615219e+01
  -6.032050e+01   2.096446e+01
  -1.420458e+02  -4.317300e+01
  -8.085203e+01  -1.086742e+02
   7.948195e+01  -1.168503e+02
   1.945989e+02  -5.863650e+01
   1.686023e+02   2.946466e+01
   4.183832e+01   8.840385e+01
  -5.979540e+01   7.587738e+01
  -4.999795e+01   1.140297e+01
   3.858688e+01  -2.631368e+01
   9.167020e+01   2.294323e+01
   3.242786e+01   1.216325e+02
  -9.577945e+01   1.576697e+02
  -1.735165e+02   6.247122e+01
  -1.303996e+02  -1.043801e+02
  -1.066000e+01  -2.032336e+02
   8.667710e+01  -1.494134e+02
   1.069362e+02   3.691317e+00
   6.549652e+01   1.185051e+02
   3.902271e+00   1.099179e+02
  -4.424594e+01   2.323608e+01
  -5.594211e+01  -3.067410e+01
  -2.999870e+01  -8.826959e+00
  -2.984824e+00   2.216957e+01
  -1.742015e+01  -1.286093e+01
  -5.702946e+01  -8.898654e+01
  -4.801030e+01  -1.125941e+02
   4.376288e+01  -4.765026e+01
   1.424202e+02   3.950278e+01
   1.360311e+02   7.146269e+01
   1.813298e+01   4.914017e+01
  -9.226806e+01   2.222532e+01
  -9.071703e+01   9.560069e+00
  -8.603919e+00  -5.832492e+00
   4.064652e+01  -2.356929e+01
   1.213710e+01  -2.069250e+01
  -2.428255e+01   8.840086e-01
   7.040440e+00   1.051279e+01
   7.866616e+01   5.154274e+00
   9.280934e+01   2.439396e+01
   4.149832e+00   8.146618e+01
  -1.240679e+02   1.156882e+02
  -1.874193e+02   5.766578e+01
  -1.403871e+02  -7.108215e+01
  -2.485077e+01  -1.657292e+02
   7.879666e+01  -1.509120e+02
   1.148182e+02  -5.750723e+01
   8.217473e+01   2.227594e+01
   2.492566e+01   3.483107e+01
  -5.115842e+00   7.258717e+00
   8.945058e+00   2.391270e+00
   3.507214e+01   4.481369e+01
   2.568331e+01   9.083494e+01
  -2.914111e+01   7.296170e+01
  -8.370850e+01  -1.962871e+01
  -7.800330e+01  -1.122698e+02
  -1.236769e+00  -1.148890e+02
   8.659229e+01  -2.157641e+01
   1.042758e+02   8.021021e+01
   3.003571e+01   1.053179e+02
  -6.835068e+01   5.354168e+01
  -9.722281e+01  -1.326294e+01
  -3.741649e+01  -4.843515e+01
   3.254971e+01  -4.893864e+01
   2.822786e+01  -2.825115e+01
  -3.770303e+01  -1.302721e+00
  -7.079574e+01   6.347726e+00
  -1.392365e+01  -2.462134e+01
   8.034794e+01  -6.770318e+01
   1.148450e+02  -6.223497e+01
   6.194163e+01   9.946335e+00
  -1.647407e+01   8.363541e+01
  -5.149990e+01   7.937014e+01
  -3.459216e+01   3.025138e+00
   3.574628e-01  -5.822916e+01
   2.683530e+01  -4.161052e+01
   3.702855e+01   2.149201e+01
   2.643245e+01   5.481447e+01
  -3.632212e+00   3.072130e+01
  -3.362385e+01  -9.871603e+00
  -3.940253e+01  -1.955052e+01
  -2.074552e+01   4.310095e-01
  -5.143596e-01   1.222252e+01
   6.745525e+00  -7.387903e+00
   1.034482e+01  -3.913005e+01
   2.248928e+01  -4.277445e+01
   3.497972e+01  -2.701142e+00
   2.709770e+01   4.954802e+01
  -7.430339e+00   6.261878e+01
  -4.695232e+01   1.915993e+01
  -5.524913e+01  -4.212815e+01
  -1.303537e+01  -6.513420e+01
   5.482626e+01  -3.384511e+01
   8.855188e+01   1.698992e+01
   4.926077e+01   4.488062e+01
  -2.926928e+01   3.960158e+01
  -6.559423e+01   1.929270e+01
  -2.280883e+01   4.078549e+00
   4.124867e+01   4.038912e+00
   4.010880e+01   1.925312e+01
  -3.378426e+01   3.417529e+01
  -9.738759e+01   2.007251e+01
