
 $NMID
 id='ANONYMOUS ', fmtdat='(2E16.6)'
 volume=1.0
 tramp=1.0
 $END
  -4.176031e+03  -8.301428e+01
  -2.428789e+03  -2.472325e+03
   6.246859e+02  -2.601504e+03
   1.937449e+03  -9.356370e+02
   9.204353e+02   4.718182e+02
  -5.285478e+02   4.599405e+02
  -7.641951e+02  -3.981041e+02
   2.857232e+01  -9.639756e+02
   7.736958e+02  -7.241096e+02
   8.796916e+02   7.698213e+01
   4.304665e+02   8.031834e+02
  -2.075977e+02   8.383160e+02
  -5.694718e+02   1.127928e+02
  -3.388590e+02  -6.737603e+02
   2.558673e+02  -7.077551e+02
   5.692229e+02   1.442457e+00
   2.701133e+02   6.525360e+02
  -2.891265e+02   6.346003e+02
  -5.613387e+02   1.280517e+02
  -3.985108e+02  -3.179495e+02
  -3.796774e+01  -4.233244e+02
   2.212241e+02  -2.578314e+02
   1.805377e+02  -2.408744e+01
  -1.422614e+02   4.592519e+01
  -3.913605e+02  -1.648566e+02
  -1.445854e+02  -4.359947e+02
   4.882726e+02  -3.580111e+02
   8.143263e+02   1.229610e+02
   3.764749e+02   5.304828e+02
  -4.024670e+02   4.205114e+02
  -7.083454e+02  -7.765124e+01
  -3.072581e+02  -4.752445e+02
   2.964125e+02  -4.864606e+02
   5.577958e+02  -1.789967e+02
   3.984728e+02   2.246394e+02
   6.404802e+01   4.464729e+02
  -1.704705e+02   2.576281e+02
  -1.176184e+02  -2.032782e+02
   1.893018e+02  -3.801842e+02
   4.041434e+02   6.343655e+01
   1.811812e+02   6.654851e+02
  -3.278643e+02   6.510233e+02
  -5.534942e+02  -1.442500e+01
  -2.176555e+02  -5.191617e+02
   2.758262e+02  -2.760374e+02
   3.396058e+02   3.313828e+02
  -9.139477e+01   5.236169e+02
  -5.458435e+02   1.114374e+02
  -5.771475e+02  -4.170055e+02
  -1.584620e+02  -5.790548e+02
   3.772371e+02  -3.288019e+02
   6.157920e+02   8.304520e+01
   3.659483e+02   3.659975e+02
  -1.409134e+02   3.350242e+02
  -4.162633e+02   5.342900e+01
  -2.328106e+02  -1.643853e+02
   9.614053e+01  -8.382387e+01
   1.195871e+02   1.379439e+02
  -1.601130e+02   1.577435e+02
  -3.259622e+02  -7.719744e+01
  -1.341245e+02  -2.835616e+02
   1.992189e+02  -2.579385e+02
   3.387182e+02  -8.694118e+01
   2.158046e+02   8.850282e+01
  -2.256547e+01   2.494226e+02
  -2.419926e+02   3.424016e+02
  -3.547000e+02   2.088216e+02
  -2.846498e+02  -1.491510e+02
  -6.811780e+01  -4.291405e+02
   1.047302e+02  -3.732428e+02
   9.931106e+01  -1.238811e+02
   2.235105e+01  -1.543192e+01
   6.438732e+01  -9.914623e+01
   2.150754e+02  -1.170449e+02
   2.786028e+02   7.182860e+01
   1.452969e+02   2.767890e+02
  -8.246658e+01   2.485034e+02
  -2.264723e+02  -3.452380e+00
  -1.865707e+02  -2.501824e+02
   2.251834e+01  -2.921867e+02
   2.701424e+02  -1.045051e+02
   3.552741e+02   1.760072e+02
   1.822263e+02   3.479221e+02
  -9.385272e+01   3.010850e+02
  -2.172118e+02   1.272934e+02
  -1.498457e+02   2.122297e+01
  -1.107804e+02   4.460501e+01
  -2.490918e+02   6.036175e+01
  -4.109680e+02  -6.835692e+01
  -3.340303e+02  -2.947799e+02
   9.868840e+00  -4.497612e+02
   3.734996e+02  -4.150490e+02
   4.964943e+02  -1.950170e+02
   3.308788e+02   1.005641e+02
   4.409746e+01   2.918422e+02
  -1.284299e+02   2.429295e+02
  -6.771512e+01   2.823910e+01
   1.175104e+02  -9.462830e+01
   1.872151e+02   1.735329e+01
   3.841444e+01   1.904441e+02
  -1.591721e+02   1.576864e+02
  -1.668895e+02  -6.443121e+01
   2.419773e+01  -1.838203e+02
   1.928005e+02  -2.358961e+01
   1.618439e+02   2.510347e+02
  -3.209765e+01   3.529154e+02
  -2.373839e+02   1.981230e+02
  -3.375854e+02  -6.415384e+01
  -2.817512e+02  -2.490864e+02
  -8.766165e+01  -2.723935e+02
   1.206951e+02  -1.587083e+02
   1.759062e+02  -1.560452e+01
   5.370346e+01   3.047053e+01
  -6.786271e+01  -4.564765e+01
  -2.147940e+01  -1.268126e+02
   1.286177e+02  -9.371374e+01
   1.757352e+02   1.871101e+01
   5.222906e+01   7.197832e+01
  -8.353013e+01   1.018623e+01
  -5.313762e+01  -7.984468e+01
   1.311556e+02  -8.879031e+01
   2.911700e+02   5.808630e+00
   2.663524e+02   1.503318e+02
   5.293925e+01   2.623690e+02
  -1.950106e+02   2.593259e+02
  -2.873599e+02   1.197368e+02
  -1.657119e+02  -5.391384e+01
   2.832006e+01  -1.052097e+02
   8.781934e+01  -3.843701e+00
  -3.921511e+01   9.970705e+01
  -1.984652e+02   5.329816e+01
  -2.112238e+02  -1.070073e+02
  -6.554876e+01  -2.084109e+02
   9.689790e+01  -1.552763e+02
   1.434159e+02  -2.517747e+01
   6.620209e+01   4.295807e+01
  -3.261111e+01  -1.301760e+00
  -3.690515e+01  -9.051552e+01
   7.798317e+01  -1.165124e+02
   2.042778e+02  -2.572451e+01
   1.923609e+02   1.287257e+02
   1.791812e+01   2.200713e+02
  -1.670628e+02   1.626987e+02
  -1.931609e+02   5.372032e+00
  -6.273960e+01  -1.133913e+02
   6.832661e+01  -1.095716e+02
   8.256437e+01  -2.878933e+01
   1.505441e+01   2.730182e+01
  -2.577970e+01   1.767370e+01
   8.654940e+00  -1.172230e+01
   7.469410e+01   5.752121e+00
   9.302411e+01   8.416586e+01
   1.483629e+01   1.639450e+02
  -1.315225e+02   1.548393e+02
  -2.384126e+02   2.230840e+01
  -2.023383e+02  -1.549657e+02
  -4.005992e+01  -2.391506e+02
   1.102980e+02  -1.693224e+02
   1.364774e+02  -2.742569e+01
   7.139918e+01   5.421558e+01
   2.953335e+01   3.479154e+01
   5.446071e+01  -1.268973e+01
   8.240611e+01  -6.756811e+00
   4.571053e+01   5.120689e+01
  -4.149279e+01   9.247064e+01
  -1.073085e+02   5.942698e+01
  -9.144436e+01  -3.670420e+01
   1.355498e+01  -1.158915e+02
   1.478331e+02  -8.869066e+01
   2.019463e+02   5.461455e+01
   9.848978e+01   2.074133e+02
  -1.125560e+02   2.306815e+02
  -2.715968e+02   9.344369e+01
  -2.580689e+02  -8.968511e+01
  -1.076915e+02  -1.785771e+02
   4.072844e+01  -1.471762e+02
   9.516196e+01  -8.359487e+01
   7.860416e+01  -6.951318e+01
   6.596379e+01  -9.197428e+01
   9.297986e+01  -7.565487e+01
   1.300676e+02   2.176902e+01
   1.186133e+02   1.561038e+02
   2.834984e+01   2.288453e+02
  -1.012276e+02   1.727209e+02
  -1.770824e+02   1.782459e+01
  -1.356965e+02  -1.255331e+02
  -1.640745e+01  -1.614951e+02
   7.098794e+01  -9.114035e+01
   6.233254e+01   2.701864e+00
   3.498636e+00   4.611434e+01
  -1.423690e+01   3.619014e+01
   3.414512e+01   1.775722e+01
   8.080483e+01   2.190918e+01
   4.630730e+01   3.889821e+01
  -6.642937e+01   3.824390e+01
  -1.632598e+02   2.173701e+00
  -1.454159e+02  -5.506121e+01
  -1.214580e+01  -9.254816e+01
   1.252295e+02  -7.498564e+01
   1.472486e+02  -1.119615e+01
   4.843428e+01   4.390227e+01
  -6.046221e+01   3.903997e+01
  -7.701987e+01  -1.911575e+01
  -1.045597e+01  -6.960200e+01
   5.378889e+01  -5.950090e+01
   6.485697e+01   9.433660e-01
   4.753417e+01   5.001416e+01
   4.483313e+01   4.251269e+01
   6.050658e+01   2.840327e+00
   6.651557e+01   1.101837e+00
   3.768619e+01   6.893799e+01
  -3.186160e+01   1.480837e+02
  -1.197138e+02   1.436260e+02
  -1.694775e+02   3.397590e+01
  -1.259171e+02  -9.271419e+01
  -5.601446e+00  -1.291644e+02
   8.800301e+01  -6.396857e+01
   6.069101e+01   1.417748e+01
  -5.941761e+01   2.009655e+01
  -1.375091e+02  -4.409554e+01
  -7.486429e+01  -1.086092e+02
   8.263903e+01  -1.124467e+02
   1.928139e+02  -4.972324e+01
   1.629445e+02   3.670825e+01
   3.566600e+01   8.763754e+01
  -6.304485e+01   6.872745e+01
  -4.994631e+01   5.258719e+00
   3.919193e+01  -2.806551e+01
   9.154615e+01   2.206324e+01
   3.437015e+01   1.185259e+02
  -8.948724e+01   1.548565e+02
  -1.660487e+02   6.374560e+01
  -1.268108e+02  -9.942409e+01
  -1.097181e+01  -1.974207e+02
   8.599111e+01  -1.439656e+02
   1.055527e+02   8.195667e+00
   5.962617e+01   1.199492e+02
  -4.960479e+00   1.072349e+02
  -4.794492e+01   1.933883e+01
  -5.090147e+01  -3.229859e+01
  -2.399063e+01  -9.083804e+00
  -4.681271e+00   2.017065e+01
  -2.329958e+01  -1.599653e+01
  -5.640117e+01  -8.958101e+01
  -3.948284e+01  -1.100493e+02
   4.957198e+01  -4.535358e+01
   1.384456e+02   3.989791e+01
   1.289430e+02   7.207115e+01
   1.794756e+01   5.087465e+01
  -8.675183e+01   2.239067e+01
  -8.874041e+01   6.850412e+00
  -1.263867e+01  -7.967762e+00
   3.805121e+01  -2.189652e+01
   1.584128e+01  -1.741661e+01
  -1.991389e+01   1.555876e+00
   4.863421e+00   8.577348e+00
   7.271958e+01   3.598136e+00
   9.222531e+01   2.373577e+01
   1.124583e+01   8.010265e+01
  -1.169022e+02   1.146812e+02
  -1.869448e+02   6.018238e+01
  -1.442128e+02  -6.553506e+01
  -2.668659e+01  -1.620031e+02
   7.991727e+01  -1.517947e+02
   1.151494e+02  -6.027341e+01
   8.085894e+01   2.139974e+01
   2.545323e+01   3.616622e+01
  -1.532807e+00   9.365793e+00
   1.135566e+01   4.851838e+00
   3.273062e+01   4.702385e+01
   2.153161e+01   9.118364e+01
  -2.961642e+01   7.198846e+01
  -8.068943e+01  -1.827520e+01
  -7.736016e+01  -1.074647e+02
  -6.067297e+00  -1.117611e+02
   8.063956e+01  -2.504079e+01
   1.032417e+02   7.360830e+01
   3.369106e+01   1.035077e+02
  -6.583522e+01   5.750348e+01
  -9.940453e+01  -1.088923e+01
  -4.115990e+01  -5.221039e+01
   3.279178e+01  -5.423508e+01
   3.344835e+01  -2.904068e+01
  -3.209627e+01   1.062836e+00
  -6.931903e+01   6.962011e+00
  -1.582324e+01  -2.551870e+01
   7.968080e+01  -6.592451e+01
   1.178938e+02  -5.768967e+01
   6.606873e+01   1.283081e+01
  -1.548961e+01   8.369290e+01
  -5.437463e+01   8.077928e+01
  -3.851052e+01   7.692193e+00
  -2.362784e+00  -5.496589e+01
   2.516602e+01  -4.404305e+01
   3.608511e+01   1.668807e+01
   2.694314e+01   5.414902e+01
  -2.006192e+00   3.439200e+01
  -3.306848e+01  -7.873290e+00
  -4.058920e+01  -2.208192e+01
  -2.098792e+01  -1.990287e+00
   1.756144e+00   1.528791e+01
   7.566491e+00  -3.998248e-01
   4.673147e+00  -3.498173e+01
   1.276477e+01  -4.566513e+01
   3.028533e+01  -1.048579e+01
   3.200372e+01   4.233124e+01
   1.038823e+00   5.996925e+01
  -4.356260e+01   2.140763e+01
  -5.761595e+01  -3.780006e+01
  -1.534201e+01  -6.246399e+01
   5.554091e+01  -3.456604e+01
   8.990557e+01   1.458728e+01
   4.950756e+01   4.411004e+01
  -2.870443e+01   4.190482e+01
  -6.483383e+01   2.282168e+01
  -2.527363e+01   5.560283e+00
   3.504522e+01   1.660387e+00
   3.627922e+01   1.407847e+01
  -2.963280e+01   2.946680e+01
  -8.866618e+01   1.897083e+01
