
 $NMID
 id='ANONYMOUS ', fmtdat='(2E16.6)'
 volume=1.0
 tramp=1.0
 $END
  -4.689473e+03  -7.400449e+01
  -2.636504e+03  -2.901907e+03
   9.264185e+02  -2.935246e+03
   2.325099e+03  -8.198610e+02
   9.490481e+02   8.211826e+02
  -8.049174e+02   6.235007e+02
  -9.847216e+02  -5.328189e+02
   5.180904e+01  -1.185331e+03
   9.387027e+02  -8.171435e+02
   1.013599e+03   1.518916e+02
   4.459600e+02   9.601173e+02
  -3.106059e+02   9.510483e+02
  -7.128025e+02   8.818849e+01
  -3.991551e+02  -8.060639e+02
   3.233138e+02  -8.034481e+02
   6.613098e+02   3.641144e+01
   2.639731e+02   7.449641e+02
  -3.774507e+02   6.536517e+02
  -6.221473e+02   5.701859e+01
  -3.861963e+02  -3.970241e+02
   7.847278e+00  -4.636709e+02
   2.738814e+02  -2.701604e+02
   2.396107e+02  -1.673389e+00
  -1.169952e+02   1.154472e+02
  -4.467434e+02  -1.055944e+02
  -2.285954e+02  -4.694710e+02
   4.926612e+02  -4.584007e+02
   9.230703e+02   8.315208e+01
   4.647231e+02   6.122021e+02
  -4.358010e+02   5.366727e+02
  -8.153635e+02  -4.199159e+01
  -3.741969e+02  -5.303164e+02
   3.103117e+02  -5.604174e+02
   6.127183e+02  -2.100093e+02
   4.434122e+02   2.563965e+02
   6.081067e+01   5.199377e+02
  -2.380748e+02   3.036181e+02
  -2.016147e+02  -2.534383e+02
   1.851927e+02  -4.937753e+02
   5.036399e+02   1.587095e+01
   2.729876e+02   7.494472e+02
  -3.603422e+02   7.653676e+02
  -6.719187e+02  -1.087923e+01
  -2.772478e+02  -6.210531e+02
   3.340087e+02  -3.519866e+02
   4.273857e+02   3.569357e+02
  -7.557339e+01   5.950518e+02
  -5.996340e+02   1.441589e+02
  -6.310127e+02  -4.403516e+02
  -1.652848e+02  -6.271088e+02
   4.178094e+02  -3.661708e+02
   6.725386e+02   8.971703e+01
   3.881128e+02   4.261454e+02
  -1.844215e+02   3.967531e+02
  -4.861010e+02   4.490864e+01
  -2.499488e+02  -2.332170e+02
   1.460755e+02  -1.200061e+02
   1.602558e+02   1.807511e+02
  -1.875122e+02   2.115944e+02
  -3.800671e+02  -8.843931e+01
  -1.444859e+02  -3.318480e+02
   2.253849e+02  -2.688392e+02
   3.433620e+02  -6.182098e+01
   1.921111e+02   8.841486e+01
  -2.805261e+01   2.158152e+02
  -2.192580e+02   3.302283e+02
  -3.485012e+02   2.339010e+02
  -3.118329e+02  -1.408336e+02
  -8.245293e+01  -4.675267e+02
   1.373199e+02  -4.090563e+02
   1.421889e+02  -1.055704e+02
   2.233657e+01   3.059134e+01
   2.894176e+01  -8.728430e+01
   1.956236e+02  -1.475609e+02
   2.976064e+02   4.540237e+01
   1.761159e+02   2.859253e+02
  -7.306360e+01   2.788039e+02
  -2.446961e+02   1.817099e+01
  -2.155515e+02  -2.526071e+02
   6.816044e+00  -3.155541e+02
   2.824737e+02  -1.289595e+02
   3.839013e+02   1.763814e+02
   1.945222e+02   3.759670e+02
  -1.140226e+02   3.251580e+02
  -2.467549e+02   1.182881e+02
  -1.563790e+02  -8.107870e+00
  -9.430184e+01   3.054668e+01
  -2.353321e+02   7.103658e+01
  -4.135395e+02  -5.487892e+01
  -3.447227e+02  -2.949991e+02
   1.018453e+00  -4.597717e+02
   3.715906e+02  -4.289134e+02
   5.091320e+02  -2.097131e+02
   3.571596e+02   9.839881e+01
   6.027973e+01   3.141756e+02
  -1.443669e+02   2.713005e+02
  -9.761795e+01   2.760713e+01
   1.151829e+02  -1.236187e+02
   2.171606e+02   3.197978e+00
   5.772709e+01   2.154724e+02
  -1.789193e+02   1.895366e+02
  -1.990185e+02  -6.731842e+01
   1.861490e+01  -2.126318e+02
   2.095508e+02  -3.824195e+01
   1.703147e+02   2.611902e+02
  -3.758202e+01   3.631464e+02
  -2.379307e+02   1.948947e+02
  -3.306515e+02  -6.718795e+01
  -2.851271e+02  -2.437512e+02
  -1.027839e+02  -2.716161e+02
   1.159088e+02  -1.694343e+02
   1.898800e+02  -2.288958e+01
   6.514659e+01   3.796607e+01
  -7.626535e+01  -3.652272e+01
  -3.610308e+01  -1.330332e+02
   1.300647e+02  -1.094423e+02
   1.920417e+02   1.215526e+01
   6.507176e+01   7.991663e+01
  -8.322745e+01   2.260006e+01
  -6.050867e+01  -7.215718e+01
   1.225718e+02  -8.887606e+01
   2.867140e+02  -2.524807e+00
   2.723206e+02   1.395649e+02
   6.738831e+01   2.622814e+02
  -1.875292e+02   2.746488e+02
  -2.979928e+02   1.351654e+02
  -1.828585e+02  -5.629339e+01
   2.551047e+01  -1.204911e+02
   1.005043e+02  -1.042983e+01
  -3.041468e+01   1.100627e+02
  -2.059332e+02   6.602660e+01
  -2.261906e+02  -1.074283e+02
  -7.332982e+01  -2.205662e+02
   1.004173e+02  -1.681885e+02
   1.539895e+02  -3.162691e+01
   7.825064e+01   4.528683e+01
  -2.603668e+01   8.871574e+00
  -4.111649e+01  -7.982289e+01
   6.798241e+01  -1.151476e+02
   2.010598e+02  -3.306979e+01
   1.993624e+02   1.252164e+02
   2.351267e+01   2.275830e+02
  -1.731520e+02   1.720763e+02
  -2.055252e+02   4.209232e+00
  -6.909521e+01  -1.239738e+02
   7.130797e+01  -1.191896e+02
   8.987121e+01  -3.245521e+01
   2.310221e+01   2.782297e+01
  -1.895676e+01   2.188292e+01
   9.641228e+00  -4.069995e+00
   6.809079e+01   1.099272e+01
   8.641570e+01   8.135675e+01
   1.642417e+01   1.581312e+02
  -1.257737e+02   1.561054e+02
  -2.390626e+02   2.980554e+01
  -2.095842e+02  -1.527696e+02
  -4.345692e+01  -2.467068e+02
   1.150808e+02  -1.771086e+02
   1.419388e+02  -2.653034e+01
   7.154380e+01   6.035248e+01
   2.786218e+01   3.858355e+01
   5.432458e+01  -1.180023e+01
   8.003322e+01  -6.339203e+00
   3.960164e+01   4.885960e+01
  -4.359367e+01   8.547960e+01
  -9.989706e+01   5.395499e+01
  -8.267059e+01  -3.362451e+01
   1.238074e+01  -1.084068e+02
   1.397419e+02  -8.742584e+01
   2.002702e+02   4.854267e+01
   1.069107e+02   2.042995e+02
  -1.050941e+02   2.367481e+02
  -2.747436e+02   1.019850e+02
  -2.681250e+02  -8.823239e+01
  -1.149066e+02  -1.844857e+02
   4.034040e+01  -1.538590e+02
   9.930145e+01  -8.714790e+01
   8.424672e+01  -7.072633e+01
   7.088953e+01  -9.192685e+01
   9.539136e+01  -7.428013e+01
   1.304624e+02   2.395946e+01
   1.195987e+02   1.585349e+02
   3.023942e+01   2.323890e+02
  -1.017734e+02   1.779516e+02
  -1.819866e+02   2.253437e+01
  -1.422849e+02  -1.246712e+02
  -2.137085e+01  -1.653039e+02
   6.808593e+01  -9.763668e+01
   6.178073e+01  -3.919924e+00
   7.218368e+00   4.166690e+01
  -7.207818e+00   3.571698e+01
   3.868961e+01   2.065641e+01
   7.964423e+01   2.459141e+01
   4.446224e+01   3.869481e+01
  -6.315917e+01   3.714099e+01
  -1.582537e+02   4.040276e+00
  -1.466132e+02  -5.034383e+01
  -1.926362e+01  -8.926837e+01
   1.206842e+02  -7.599624e+01
   1.489669e+02  -1.498572e+01
   5.080151e+01   4.022814e+01
  -6.151789e+01   3.669107e+01
  -7.706260e+01  -1.988556e+01
  -5.368985e+00  -6.837762e+01
   5.904525e+01  -5.682184e+01
   6.341720e+01   3.195168e+00
   4.195480e+01   5.073415e+01
   4.329465e+01   4.253457e+01
   6.398651e+01   3.052930e+00
   6.793515e+01   9.606870e-01
   3.386091e+01   6.787369e+01
  -3.523262e+01   1.468320e+02
  -1.173268e+02   1.430020e+02
  -1.643113e+02   3.377478e+01
  -1.239977e+02  -9.248414e+01
  -7.418585e+00  -1.275688e+02
   8.633751e+01  -6.103549e+01
   6.045717e+01   1.642418e+01
  -6.071244e+01   2.005283e+01
  -1.411118e+02  -4.565634e+01
  -7.832422e+01  -1.105767e+02
   8.245967e+01  -1.154882e+02
   1.963928e+02  -5.403694e+01
   1.680207e+02   3.398626e+01
   3.925533e+01   8.953307e+01
  -6.233486e+01   7.378536e+01
  -5.073424e+01   9.170163e+00
   3.919403e+01  -2.649634e+01
   9.181371e+01   2.396340e+01
   3.147401e+01   1.217500e+02
  -9.668144e+01   1.562546e+02
  -1.731353e+02   6.062657e+01
  -1.285885e+02  -1.054016e+02
  -7.990255e+00  -2.028842e+02
   8.910177e+01  -1.476492e+02
   1.073491e+02   6.331897e+00
   6.287690e+01   1.206791e+02
   5.880858e-03   1.103223e+02
  -4.599846e+01   2.195692e+01
  -5.458577e+01  -3.224895e+01
  -2.842884e+01  -9.640920e+00
  -3.845824e+00   2.180158e+01
  -1.913481e+01  -1.368361e+01
  -5.611175e+01  -9.037647e+01
  -4.442416e+01  -1.135750e+02
   4.630239e+01  -4.706392e+01
   1.416583e+02   4.179582e+01
   1.340020e+02   7.408134e+01
   1.767276e+01   5.011886e+01
  -9.153590e+01   2.095975e+01
  -9.094363e+01   7.650263e+00
  -9.797963e+00  -6.334788e+00
   4.054299e+01  -2.260217e+01
   1.364838e+01  -1.996400e+01
  -2.319787e+01   5.367578e-01
   6.250369e+00   1.024697e+01
   7.732910e+01   6.047566e+00
   9.282771e+01   2.552172e+01
   5.035793e+00   8.121021e+01
  -1.242736e+02   1.141390e+02
  -1.888989e+02   5.634266e+01
  -1.410340e+02  -7.147815e+01
  -2.325020e+01  -1.658341e+02
   8.134599e+01  -1.510804e+02
   1.161007e+02  -5.718762e+01
   8.194856e+01   2.324143e+01
   2.485201e+01   3.566629e+01
  -4.140172e+00   7.617072e+00
   9.757271e+00   3.055761e+00
   3.419565e+01   4.622367e+01
   2.359358e+01   9.197392e+01
  -3.038194e+01   7.276711e+01
  -8.303214e+01  -2.056049e+01
  -7.661822e+01  -1.125721e+02
  -9.810855e-01  -1.144232e+02
   8.552239e+01  -2.125454e+01
   1.032258e+02   8.018849e+01
   2.980753e+01   1.055769e+02
  -6.848478e+01   5.394342e+01
  -9.806484e+01  -1.376457e+01
  -3.825570e+01  -4.999118e+01
   3.310998e+01  -5.026931e+01
   3.011459e+01  -2.855958e+01
  -3.623555e+01  -1.431585e+00
  -7.082873e+01   5.600206e+00
  -1.426567e+01  -2.507074e+01
   8.153909e+01  -6.656797e+01
   1.173251e+02  -6.009140e+01
   6.344612e+01   1.132672e+01
  -1.732128e+01   8.385791e+01
  -5.346935e+01   7.971724e+01
  -3.563778e+01   4.104316e+00
   5.092949e-01  -5.750780e+01
   2.690721e+01  -4.208476e+01
   3.645070e+01   2.080500e+01
   2.600826e+01   5.523318e+01
  -3.386478e+00   3.176111e+01
  -3.342834e+01  -9.823810e+00
  -3.984182e+01  -2.077016e+01
  -2.106328e+01  -4.699138e-01
   1.192238e-01   1.299796e+01
   7.477331e+00  -5.481434e+00
   9.558914e+00  -3.777824e+01
   2.032606e+01  -4.299638e+01
   3.350142e+01  -4.157824e+00
   2.758696e+01   4.791745e+01
  -6.071463e+00   6.169032e+01
  -4.639961e+01   1.911876e+01
  -5.544854e+01  -4.172957e+01
  -1.279197e+01  -6.480016e+01
   5.570175e+01  -3.359415e+01
   8.907235e+01   1.744263e+01
   4.900720e+01   4.551060e+01
  -2.963869e+01   4.005943e+01
  -6.579501e+01   1.951587e+01
  -2.357806e+01   4.359328e+00
   3.960347e+01   4.255354e+00
   3.876695e+01   1.864701e+01
  -3.351284e+01   3.243743e+01
  -9.585049e+01   1.821195e+01
