
 $NMID
 id='ANONYMOUS ', fmtdat='(2E16.6)'
 volume=1.0
 tramp=1.0
 $END
   3.888076e+03  -2.180301e+00
   2.435724e+03   2.161852e+03
  -3.191765e+02   2.488838e+03
  -1.715694e+03   1.162312e+03
  -1.024290e+03  -1.841542e+02
   2.652245e+02  -4.048420e+02
   6.331827e+02   2.423172e+02
   4.164875e+01   8.134696e+02
  -6.413168e+02   7.085114e+02
  -8.169213e+02   1.363323e+01
  -4.689625e+02  -6.974328e+02
   1.028556e+02  -7.989568e+02
   4.738935e+02  -1.726513e+02
   3.285939e+02   5.710943e+02
  -1.878329e+02   6.677622e+02
  -5.205799e+02   4.872290e+01
  -3.049855e+02  -6.019629e+02
   2.244444e+02  -6.648561e+02
   5.514779e+02  -2.067806e+02
   4.440368e+02   2.687262e+02
   8.657198e+01   4.179656e+02
  -1.830495e+02   2.695783e+02
  -1.421059e+02   5.930067e+01
   1.515960e+02   2.228289e+01
   3.400033e+02   2.129073e+02
   8.064051e+01   4.023652e+02
  -4.802985e+02   2.795969e+02
  -7.388099e+02  -1.419490e+02
  -3.305502e+02  -4.593959e+02
   3.617154e+02  -3.396645e+02
   6.317019e+02   9.044088e+01
   2.705821e+02   4.306371e+02
  -2.809852e+02   4.413961e+02
  -5.252332e+02   1.679384e+02
  -3.812484e+02  -1.975869e+02
  -8.498864e+01  -4.012291e+02
   1.076678e+02  -2.443009e+02
   5.978390e+01   1.451466e+02
  -1.732810e+02   2.919268e+02
  -3.186494e+02  -8.491808e+01
  -1.233133e+02  -5.947595e+02
   2.878825e+02  -5.817296e+02
   4.700824e+02  -8.629880e+00
   1.963508e+02   4.359778e+02
  -2.175232e+02   2.331828e+02
  -2.791997e+02  -3.016138e+02
   9.503818e+01  -4.763000e+02
   5.125785e+02  -9.594102e+01
   5.548319e+02   4.046955e+02
   1.658255e+02   5.599194e+02
  -3.499193e+02   3.162107e+02
  -5.915464e+02  -7.154590e+01
  -3.738718e+02  -3.255377e+02
   9.470741e+01  -3.045558e+02
   3.743504e+02  -7.793707e+01
   2.444030e+02   1.079852e+02
  -4.675652e+01   6.802657e+01
  -9.883511e+01  -9.571080e+01
   1.291700e+02  -1.223604e+02
   2.936147e+02   5.896022e+01
   1.406877e+02   2.509689e+02
  -1.839804e+02   2.638421e+02
  -3.562978e+02   1.102509e+02
  -2.445279e+02  -1.011282e+02
   3.070351e+01  -2.905539e+02
   2.790797e+02  -3.581004e+02
   3.699271e+02  -1.894934e+02
   2.682159e+02   1.581546e+02
   6.413439e+01   4.093876e+02
  -7.432649e+01   3.646171e+02
  -7.186496e+01   1.559169e+02
  -3.621649e+01   5.651706e+01
  -1.027390e+02   1.031174e+02
  -2.338346e+02   8.703917e+01
  -2.649830e+02  -9.591327e+01
  -1.234263e+02  -2.729948e+02
   8.845872e+01  -2.282768e+02
   2.135110e+02   2.015415e+01
   1.664323e+02   2.522088e+02
  -3.405305e+01   2.787785e+02
  -2.645697e+02   8.756731e+01
  -3.425481e+02  -1.787905e+02
  -1.827049e+02  -3.358401e+02
   7.645718e+01  -2.965858e+02
   2.038037e+02  -1.462375e+02
   1.585280e+02  -4.819217e+01
   1.342488e+02  -5.305765e+01
   2.690810e+02  -4.680909e+01
   4.208911e+02   8.686629e+01
   3.349542e+02   3.072687e+02
  -2.027177e+01   4.566085e+02
  -3.910797e+02   4.150003e+02
  -5.035492e+02   1.879796e+02
  -3.193632e+02  -1.029122e+02
  -3.456059e+01  -2.799347e+02
   1.143494e+02  -2.307108e+02
   4.450208e+01  -3.749968e+01
  -1.173366e+02   7.088904e+01
  -1.642113e+02  -2.432810e+01
  -2.774241e+01  -1.711033e+02
   1.410655e+02  -1.396473e+02
   1.453409e+02   5.741373e+01
  -2.414536e+01   1.639856e+02
  -1.820076e+02   1.411391e+01
  -1.609792e+02  -2.516785e+02
   2.959642e+01  -3.593684e+02
   2.496194e+02  -2.065631e+02
   3.575655e+02   6.971764e+01
   2.859847e+02   2.660874e+02
   7.463090e+01   2.809120e+02
  -1.286011e+02   1.530094e+02
  -1.688402e+02   1.173636e+01
  -4.750800e+01  -2.249315e+01
   6.015116e+01   5.398770e+01
   9.747166e+00   1.226382e+02
  -1.292276e+02   8.259308e+01
  -1.664235e+02  -2.267843e+01
  -4.440162e+01  -6.489041e+01
   8.385681e+01   1.384115e+00
   4.576291e+01   8.842641e+01
  -1.450289e+02   8.849384e+01
  -3.045602e+02  -1.785867e+01
  -2.672474e+02  -1.672373e+02
  -3.939558e+01  -2.696748e+02
   2.081506e+02  -2.520811e+02
   2.866618e+02  -1.107402e+02
   1.573427e+02   5.106401e+01
  -2.887216e+01   9.487428e+01
  -7.838020e+01   7.282767e-01
   4.681542e+01  -9.172230e+01
   1.969741e+02  -4.409188e+01
   2.055028e+02   1.091524e+02
   6.240764e+01   2.046860e+02
  -9.584613e+01   1.500717e+02
  -1.383751e+02   2.185119e+01
  -5.840709e+01  -4.002756e+01
   3.691262e+01   1.253713e+01
   3.071433e+01   1.028871e+02
  -9.165809e+01   1.188170e+02
  -2.136653e+02   1.712968e+01
  -1.915892e+02  -1.372326e+02
  -1.335919e+01  -2.210096e+02
   1.676506e+02  -1.608627e+02
   1.904515e+02  -7.923839e+00
   6.135496e+01   1.075630e+02
  -6.700142e+01   1.055898e+02
  -7.875412e+01   2.783512e+01
  -8.391431e+00  -2.588161e+01
   3.188801e+01  -1.249063e+01
  -1.038724e+01   1.914548e+01
  -8.495988e+01  -4.005716e+00
  -1.009410e+02  -9.292761e+01
  -1.061536e+01  -1.754687e+02
   1.433028e+02  -1.569643e+02
   2.456854e+02  -1.413829e+01
   2.018312e+02   1.634188e+02
   3.814630e+01   2.416783e+02
  -1.102505e+02   1.694254e+02
  -1.377402e+02   2.934470e+01
  -7.527760e+01  -5.173539e+01
  -3.288050e+01  -3.363957e+01
  -5.717968e+01   1.335443e+01
  -8.804221e+01   5.834574e+00
  -5.175510e+01  -5.756189e+01
   4.427849e+01  -1.025363e+02
   1.203957e+02  -6.344184e+01
   1.016599e+02   4.436128e+01
  -1.849783e+01   1.267436e+02
  -1.623219e+02   8.953784e+01
  -2.093442e+02  -6.489234e+01
  -9.189325e+01  -2.173386e+02
   1.245839e+02  -2.313739e+02
   2.785024e+02  -8.756678e+01
   2.582647e+02   9.466295e+01
   1.053573e+02   1.797868e+02
  -4.249146e+01   1.466865e+02
  -9.529973e+01   8.394851e+01
  -7.723439e+01   7.196411e+01
  -6.531191e+01   9.639268e+01
  -9.583785e+01   7.958913e+01
  -1.353694e+02  -2.203829e+01
  -1.215151e+02  -1.613261e+02
  -2.629366e+01  -2.347931e+02
   1.053063e+02  -1.741462e+02
   1.788257e+02  -1.379401e+01
   1.337586e+02   1.310594e+02
   1.196255e+01   1.634883e+02
  -7.563834e+01   8.750868e+01
  -6.348446e+01  -9.508229e+00
   1.391717e+00  -5.092713e+01
   2.156233e+01  -3.597065e+01
  -3.212143e+01  -1.502857e+01
  -8.561655e+01  -2.163845e+01
  -4.933528e+01  -4.168001e+01
   7.274720e+01  -3.913353e+01
   1.738243e+02   2.576274e+00
   1.483471e+02   6.273898e+01
   4.413786e+00   9.736604e+01
  -1.348812e+02   7.449670e+01
  -1.507805e+02   7.154518e+00
  -4.680431e+01  -4.881143e+01
   6.306598e+01  -4.233049e+01
   8.011342e+01   2.004744e+01
   1.427392e+01   7.503904e+01
  -5.272300e+01   6.515397e+01
  -6.937929e+01  -1.037155e-01
  -5.404895e+01  -5.348073e+01
  -4.755279e+01  -4.514071e+01
  -5.991373e+01  -2.467945e+00
  -6.791014e+01  -1.609815e+00
  -4.154583e+01  -7.415607e+01
   3.215193e+01  -1.557900e+02
   1.284419e+02  -1.480305e+02
   1.813604e+02  -3.223355e+01
   1.316441e+02   9.860252e+01
   2.356499e+00   1.353790e+02
  -9.456894e+01   6.772969e+01
  -6.383032e+01  -1.349923e+01
   6.091897e+01  -2.065659e+01
   1.398551e+02   4.502006e+01
   7.419474e+01   1.111440e+02
  -8.654797e+01   1.133637e+02
  -1.968296e+02   4.679746e+01
  -1.639128e+02  -4.099202e+01
  -3.350089e+01  -8.891672e+01
   6.558624e+01  -6.615371e+01
   5.025012e+01  -1.681291e+00
  -4.152644e+01   3.016238e+01
  -9.531212e+01  -2.221238e+01
  -3.791761e+01  -1.216704e+02
   8.807542e+01  -1.609209e+02
   1.680923e+02  -6.923213e+01
   1.309531e+02   9.907787e+01
   1.339737e+01   2.015547e+02
  -8.729497e+01   1.464712e+02
  -1.076431e+02  -1.084070e+01
  -5.805438e+01  -1.239295e+02
   9.878603e+00  -1.074262e+02
   5.110011e+01  -1.674030e+01
   4.934057e+01   3.319212e+01
   2.109393e+01   7.992190e+00
   5.379767e+00  -1.926384e+01
   2.711156e+01   2.010464e+01
   5.818231e+01   9.321712e+01
   3.648263e+01   1.104635e+02
  -5.450201e+01   4.422938e+01
  -1.413143e+02  -4.047231e+01
  -1.294696e+02  -7.323583e+01
  -1.814959e+01  -5.388334e+01
   8.668738e+01  -2.493843e+01
   9.024922e+01  -6.055575e+00
   1.512363e+01   1.066345e+01
  -3.743787e+01   2.243435e+01
  -1.790901e+01   1.508765e+01
   1.811796e+01  -3.212773e+00
  -4.203165e+00  -7.117470e+00
  -7.223616e+01  -1.098949e+00
  -9.567259e+01  -2.396839e+01
  -1.662088e+01  -8.422393e+01
   1.165432e+02  -1.205774e+02
   1.945377e+02  -6.450691e+01
   1.538097e+02   6.541029e+01
   3.008958e+01   1.664419e+02
  -8.376911e+01   1.581083e+02
  -1.205050e+02   6.444695e+01
  -8.345480e+01  -2.122778e+01
  -2.648180e+01  -3.852447e+01
  -1.226744e-01  -1.199982e+01
  -1.267871e+01  -7.206275e+00
  -3.202423e+01  -4.959523e+01
  -1.979759e+01  -9.385278e+01
   3.071872e+01  -7.410991e+01
   8.232756e+01   1.723427e+01
   8.139278e+01   1.083695e+02
   1.032086e+01   1.154243e+02
  -8.092246e+01   2.987424e+01
  -1.084650e+02  -7.191882e+01
  -3.792908e+01  -1.073304e+02
   6.778689e+01  -6.299846e+01
   1.053050e+02   1.025464e+01
   4.420954e+01   5.755320e+01
  -3.554015e+01   5.967288e+01
  -3.820894e+01   2.935203e+01
   3.044268e+01  -4.107911e+00
   7.125372e+01  -8.105085e+00
   1.743827e+01   2.755795e+01
  -8.182064e+01   6.767131e+01
  -1.231537e+02   5.645235e+01
  -7.051307e+01  -1.613780e+01
   1.537433e+01  -8.728398e+01
   5.856806e+01  -8.414951e+01
   4.369622e+01  -9.956710e+00
   5.099491e+00   5.577318e+01
  -2.567657e+01   4.777021e+01
  -3.818634e+01  -1.402021e+01
  -2.856904e+01  -5.594549e+01
   1.975750e+00  -3.847694e+01
   3.454797e+01   6.732026e+00
   4.229153e+01   2.479344e+01
   2.132975e+01   3.626107e+00
  -2.471385e+00  -1.840804e+01
  -6.546542e+00  -4.186786e+00
  -1.503413e-01   3.523367e+01
  -7.838702e+00   5.183865e+01
  -3.054262e+01   1.706810e+01
  -3.829474e+01  -4.068779e+01
  -7.187594e+00  -6.286766e+01
   4.369357e+01  -2.460946e+01
   6.254766e+01   3.709561e+01
   1.818135e+01   6.381134e+01
  -5.830481e+01   3.626267e+01
  -9.492604e+01  -1.387538e+01
  -5.186393e+01  -4.534678e+01
   3.001754e+01  -4.518233e+01
   6.778577e+01  -2.622553e+01
   2.819447e+01  -6.099438e+00
  -3.313873e+01   1.446842e+00
  -3.666534e+01  -1.031825e+01
   2.690425e+01  -2.878672e+01
   8.633222e+01  -2.143043e+01
