
 $NMID
 id='ANONYMOUS ', fmtdat='(2E16.6)'
 volume=1.0
 tramp=1.0
 $END
   3.938656e+03  -5.152272e+01
   2.441464e+03   2.197624e+03
  -3.801510e+02   2.501957e+03
  -1.752081e+03   1.093294e+03
  -9.738564e+02  -2.721684e+02
   3.541485e+02  -4.271782e+02
   6.800155e+02   2.847300e+02
   3.171702e+01   8.585071e+02
  -6.676698e+02   7.175633e+02
  -8.286906e+02  -4.321911e+00
  -4.618316e+02  -7.179389e+02
   1.249795e+02  -8.044603e+02
   5.002652e+02  -1.572489e+02
   3.399148e+02   5.949385e+02
  -1.971157e+02   6.770650e+02
  -5.305417e+02   3.964457e+01
  -2.994696e+02  -6.059865e+02
   2.324302e+02  -6.477586e+02
   5.428981e+02  -1.845071e+02
   4.253186e+02   2.747003e+02
   7.506361e+01   4.120104e+02
  -1.894523e+02   2.648343e+02
  -1.537660e+02   4.795647e+01
   1.455471e+02  -7.515071e+00
   3.585399e+02   1.835625e+02
   1.126541e+02   4.068855e+02
  -4.694516e+02   3.154846e+02
  -7.591451e+02  -1.165626e+02
  -3.530984e+02  -4.724838e+02
   3.641645e+02  -3.733400e+02
   6.531478e+02   7.046717e+01
   2.897107e+02   4.352405e+02
  -2.730774e+02   4.577697e+02
  -5.259894e+02   1.806401e+02
  -3.861668e+02  -1.969399e+02
  -8.415636e+01  -4.107970e+02
   1.251254e+02  -2.482830e+02
   8.463720e+01   1.636835e+02
  -1.700687e+02   3.251533e+02
  -3.482852e+02  -6.806203e+01
  -1.565447e+02  -6.097570e+02
   2.862913e+02  -6.055838e+02
   4.949197e+02  -9.887596e+00
   2.110998e+02   4.570657e+02
  -2.315167e+02   2.509968e+02
  -3.046014e+02  -3.021616e+02
   8.195254e+01  -4.890170e+02
   5.152589e+02  -1.112408e+02
   5.631424e+02   3.914556e+02
   1.720503e+02   5.551128e+02
  -3.483450e+02   3.235083e+02
  -5.931448e+02  -6.248213e+01
  -3.719163e+02  -3.283945e+02
   1.045795e+02  -3.138279e+02
   3.832260e+02  -7.525694e+01
   2.387022e+02   1.231426e+02
  -6.360321e+01   7.439257e+01
  -1.075885e+02  -1.083458e+02
   1.363155e+02  -1.370096e+02
   3.028428e+02   5.878851e+01
   1.413447e+02   2.567604e+02
  -1.815705e+02   2.612993e+02
  -3.417673e+02   1.067128e+02
  -2.315472e+02  -8.981396e+01
   2.137951e+01  -2.706262e+02
   2.530525e+02  -3.518555e+02
   3.541421e+02  -2.014975e+02
   2.735340e+02   1.465191e+02
   7.325401e+01   4.092114e+02
  -7.732910e+01   3.639533e+02
  -7.836772e+01   1.427460e+02
  -2.941755e+01   4.037487e+01
  -8.418141e+01   1.017892e+02
  -2.208674e+02   1.019585e+02
  -2.678682e+02  -7.951383e+01
  -1.355980e+02  -2.674436e+02
   7.988494e+01  -2.342773e+02
   2.154459e+02   8.874113e+00
   1.767829e+02   2.438597e+02
  -2.320270e+01   2.801804e+02
  -2.606158e+02   9.823625e+01
  -3.457295e+02  -1.677294e+02
  -1.866519e+02  -3.314446e+02
   7.582765e+01  -2.953481e+02
   2.028950e+02  -1.409025e+02
   1.518702e+02  -4.020399e+01
   1.220172e+02  -5.154612e+01
   2.560326e+02  -5.671665e+01
   4.120606e+02   6.972389e+01
   3.355537e+02   2.906812e+02
  -6.557665e+00   4.470898e+02
  -3.695404e+02   4.164035e+02
  -4.889374e+02   1.980697e+02
  -3.208803e+02  -9.370504e+01
  -4.356722e+01  -2.793370e+02
   1.131411e+02  -2.342571e+02
   5.207430e+01  -3.441415e+01
  -1.139132e+02   8.137539e+01
  -1.709678e+02  -1.768817e+01
  -3.510549e+01  -1.752323e+02
   1.428285e+02  -1.474643e+02
   1.526182e+02   5.606447e+01
  -2.025493e+01   1.695677e+02
  -1.829475e+02   2.139131e+01
  -1.639588e+02  -2.441273e+02
   2.273042e+01  -3.518255e+02
   2.367445e+02  -2.050951e+02
   3.455861e+02   5.923489e+01
   2.851944e+02   2.494393e+02
   8.422585e+01   2.715443e+02
  -1.203129e+02   1.553924e+02
  -1.686367e+02   1.658280e+01
  -4.967741e+01  -2.419831e+01
   6.323680e+01   4.861077e+01
   1.669288e+01   1.220287e+02
  -1.251648e+02   8.825240e+01
  -1.678361e+02  -1.728338e+01
  -4.811955e+01  -6.563392e+01
   8.234929e+01  -4.841501e+00
   4.965416e+01   8.271141e+01
  -1.355435e+02   9.010059e+01
  -2.948496e+02  -6.730510e+00
  -2.660059e+02  -1.525492e+02
  -4.952255e+01  -2.616768e+02
   1.945259e+02  -2.551000e+02
   2.800536e+02  -1.183908e+02
   1.591700e+02   4.805232e+01
  -2.616908e+01   9.796592e+01
  -8.075603e+01   3.608657e+00
   4.118461e+01  -9.427252e+01
   1.934626e+02  -5.103176e+01
   2.067066e+02   1.023169e+02
   6.688742e+01   2.015838e+02
  -9.160494e+01   1.517002e+02
  -1.376646e+02   2.568481e+01
  -6.134769e+01  -3.926667e+01
   3.484131e+01   7.262757e+00
   3.465560e+01   9.579672e+01
  -8.248594e+01   1.178390e+02
  -2.062424e+02   2.452291e+01
  -1.916304e+02  -1.278160e+02
  -1.946446e+01  -2.168470e+02
   1.614434e+02  -1.624868e+02
   1.883472e+02  -1.076052e+01
   6.318369e+01   1.068431e+02
  -6.424823e+01   1.068547e+02
  -7.840314e+01   2.941749e+01
  -1.138101e+01  -2.580003e+01
   2.872538e+01  -1.491132e+01
  -9.212806e+00   1.617284e+01
  -7.974214e+01  -2.941070e+00
  -9.813656e+01  -8.604635e+01
  -1.561560e+01  -1.679892e+02
   1.332597e+02  -1.565327e+02
   2.386398e+02  -2.209064e+01
   2.021489e+02   1.534001e+02
   4.325139e+01   2.360825e+02
  -1.050332e+02   1.689847e+02
  -1.344851e+02   3.097114e+01
  -7.367392e+01  -5.035346e+01
  -3.176881e+01  -3.290032e+01
  -5.495416e+01   1.404594e+01
  -8.434417e+01   7.873962e+00
  -4.973992e+01  -5.317115e+01
   4.046041e+01  -9.791580e+01
   1.121521e+02  -6.327393e+01
   9.696105e+01   3.867651e+01
  -1.375878e+01   1.208888e+02
  -1.523122e+02   9.103788e+01
  -2.044389e+02  -5.562713e+01
  -9.740448e+01  -2.081219e+02
   1.131950e+02  -2.299334e+02
   2.695826e+02  -9.415204e+01
   2.560264e+02   8.591558e+01
   1.082966e+02   1.742887e+02
  -3.810856e+01   1.454230e+02
  -9.201210e+01   8.445093e+01
  -7.507800e+01   7.148287e+01
  -6.257663e+01   9.451323e+01
  -9.160571e+01   7.876621e+01
  -1.316331e+02  -1.883248e+01
  -1.217631e+02  -1.542724e+02
  -3.147382e+01  -2.282264e+02
   9.848313e+01  -1.729870e+02
   1.750128e+02  -1.881181e+01
   1.350589e+02   1.240779e+02
   1.685130e+01   1.598557e+02
  -7.081259e+01   8.905776e+01
  -6.218216e+01  -5.423709e+00
  -1.537312e+00  -4.825356e+01
   1.764413e+01  -3.587828e+01
  -3.272721e+01  -1.516925e+01
  -8.285132e+01  -1.967067e+01
  -4.822405e+01  -3.895011e+01
   6.835338e+01  -3.962551e+01
   1.670101e+02  -2.810116e+00
   1.461080e+02   5.573906e+01
   9.308478e+00   9.381637e+01
  -1.274766e+02   7.622076e+01
  -1.468555e+02   1.168968e+01
  -4.766649e+01  -4.516375e+01
   6.021366e+01  -4.167083e+01
   7.805811e+01   1.774046e+01
   1.407942e+01   7.148423e+01
  -5.100027e+01   6.303356e+01
  -6.654238e+01   9.710367e-01
  -5.175275e+01  -5.022803e+01
  -4.666152e+01  -4.245015e+01
  -5.925053e+01  -1.332627e+00
  -6.632759e+01   2.839498e-03
  -4.088789e+01  -7.013760e+01
   2.837471e+01  -1.510095e+02
   1.200154e+02  -1.465741e+02
   1.732213e+02  -3.605239e+01
   1.293402e+02   9.209370e+01
   6.321695e+00   1.307642e+02
  -8.916575e+01   6.710753e+01
  -6.189125e+01  -1.225476e+01
   5.895403e+01  -2.135940e+01
   1.376608e+02   4.108346e+01
   7.555624e+01   1.068725e+02
  -8.133693e+01   1.129753e+02
  -1.911806e+02   5.122128e+01
  -1.617636e+02  -3.531298e+01
  -3.563436e+01  -8.631049e+01
   6.218351e+01  -6.743896e+01
   4.927792e+01  -4.073156e+00
  -3.936068e+01   2.971429e+01
  -9.280708e+01  -1.986536e+01
  -3.843327e+01  -1.177763e+02
   8.395555e+01  -1.578608e+02
   1.632592e+02  -6.946889e+01
   1.293290e+02   9.497605e+01
   1.637503e+01   1.965137e+02
  -8.240866e+01   1.449799e+02
  -1.053385e+02  -7.440939e+00
  -6.027293e+01  -1.192232e+02
   5.605120e+00  -1.058231e+02
   4.870793e+01  -1.851214e+01
   4.984337e+01   3.129282e+01
   2.205437e+01   7.831740e+00
   4.620474e+00  -1.941625e+01
   2.559311e+01   1.766664e+01
   5.847064e+01   8.915108e+01
   3.934297e+01   1.077839e+02
  -5.081324e+01   4.505381e+01
  -1.388035e+02  -3.671674e+01
  -1.287235e+02  -6.896154e+01
  -1.887422e+01  -5.149546e+01
   8.484758e+01  -2.534779e+01
   8.810942e+01  -8.118163e+00
   1.412354e+01   9.158495e+00
  -3.662504e+01   2.264885e+01
  -1.649780e+01   1.610458e+01
   1.847255e+01  -2.908060e+00
  -4.549820e+00  -7.478260e+00
  -7.132347e+01  -5.546359e-01
  -9.332075e+01  -2.155156e+01
  -1.598611e+01  -8.099615e+01
   1.123975e+02  -1.187990e+02
   1.872290e+02  -6.577248e+01
   1.490182e+02   6.132321e+01
   3.169885e+01   1.615004e+02
  -7.774077e+01   1.548686e+02
  -1.152312e+02   6.426107e+01
  -8.157175e+01  -1.925652e+01
  -2.644302e+01  -3.646499e+01
   2.915860e-01  -1.080097e+01
  -1.209793e+01  -5.929808e+00
  -3.279594e+01  -4.715132e+01
  -2.207227e+01  -9.091674e+01
   2.829389e+01  -7.274438e+01
   8.075685e+01   1.567844e+01
   8.077627e+01   1.046586e+02
   1.086650e+01   1.120027e+02
  -7.895435e+01   2.919989e+01
  -1.062274e+02  -6.923749e+01
  -3.787656e+01  -1.034052e+02
   6.470217e+01  -6.126176e+01
   1.015755e+02   8.209257e+00
   4.347946e+01   5.368775e+01
  -3.272466e+01   5.733969e+01
  -3.516055e+01   2.952117e+01
   3.053933e+01  -3.505232e+00
   6.922117e+01  -8.990569e+00
   1.709155e+01   2.598597e+01
  -7.831743e+01   6.759899e+01
  -1.180001e+02   5.854136e+01
  -6.798862e+01  -1.318166e+01
   1.340193e+01  -8.483426e+01
   5.430964e+01  -8.269405e+01
   4.081124e+01  -9.786604e+00
   5.104868e+00   5.449502e+01
  -2.411553e+01   4.609981e+01
  -3.707929e+01  -1.405861e+01
  -2.862976e+01  -5.378956e+01
   1.192671e+00  -3.632993e+01
   3.357729e+01   6.365408e+00
   4.145654e+01   2.249295e+01
   2.092339e+01   2.498480e+00
  -2.512396e+00  -1.686454e+01
  -6.890278e+00  -2.203676e+00
  -1.172673e+00   3.461622e+01
  -8.596738e+00   4.882968e+01
  -2.965717e+01   1.488027e+01
  -3.610768e+01  -3.993738e+01
  -5.970914e+00  -6.065057e+01
   4.246877e+01  -2.388256e+01
   6.042242e+01   3.552830e+01
   1.810227e+01   6.192818e+01
  -5.557916e+01   3.621606e+01
  -9.177613e+01  -1.201035e+01
  -5.105963e+01  -4.309959e+01
   2.812753e+01  -4.381038e+01
   6.505729e+01  -2.587117e+01
   2.649736e+01  -6.354639e+00
  -3.334600e+01   9.196289e-01
  -3.617752e+01  -1.085644e+01
   2.693605e+01  -2.917036e+01
   8.544774e+01  -2.193871e+01
