
 $NMID
 id='ANONYMOUS ', fmtdat='(2E16.6)'
 volume=1.0
 tramp=1.0
 $END
   3.286307e+03   7.146809e+01
   2.025193e+03   1.798013e+03
  -2.296888e+02   2.039128e+03
  -1.359032e+03   1.005445e+03
  -8.273999e+02  -4.337059e+01
   1.750013e+02  -2.487696e+02
   4.629868e+02   2.115316e+02
   5.483027e+00   6.439527e+02
  -5.278213e+02   5.697948e+02
  -6.652013e+02   1.656726e+01
  -3.849786e+02  -5.661505e+02
   7.324892e+01  -6.514189e+02
   3.664654e+02  -1.356216e+02
   2.493932e+02   4.731407e+02
  -1.582346e+02   5.490198e+02
  -4.239900e+02   4.044325e+01
  -2.593430e+02  -4.997519e+02
   1.673909e+02  -5.677452e+02
   4.524384e+02  -1.998877e+02
   3.843872e+02   2.053312e+02
   8.774076e+01   3.472534e+02
  -1.450594e+02   2.260004e+02
  -1.012436e+02   4.888439e+01
   1.582561e+02   3.586622e+01
   2.986673e+02   2.172432e+02
   4.072742e+01   3.636465e+02
  -4.440166e+02   2.191301e+02
  -6.304095e+02  -1.551148e+02
  -2.515883e+02  -3.966605e+02
   3.318244e+02  -2.598278e+02
   5.343910e+02   1.087021e+02
   2.108064e+02   3.759804e+02
  -2.564180e+02   3.675668e+02
  -4.534125e+02   1.325247e+02
  -3.190505e+02  -1.707720e+02
  -6.491873e+01  -3.305692e+02
   8.062029e+01  -1.883869e+02
   1.596773e+01   1.297769e+02
  -1.767512e+02   2.243770e+02
  -2.612311e+02  -1.093458e+02
  -6.718084e+01  -5.190880e+02
   2.636254e+02  -4.749385e+02
   3.790794e+02   1.413758e+01
   1.372738e+02   3.643806e+02
  -1.879117e+02   1.717269e+02
  -2.165713e+02  -2.755222e+02
   1.001541e+02  -4.038949e+02
   4.436517e+02  -6.809902e+01
   4.742632e+02   3.577190e+02
   1.405041e+02   4.813310e+02
  -3.022417e+02   2.634442e+02
  -5.060889e+02  -6.747656e+01
  -3.152612e+02  -2.702229e+02
   7.986122e+01  -2.417531e+02
   3.068262e+02  -6.090893e+01
   1.977864e+02   7.429052e+01
  -3.206287e+01   3.818701e+01
  -6.610941e+01  -7.857240e+01
   1.160050e+02  -8.629735e+01
   2.411306e+02   5.727373e+01
   1.137675e+02   2.077602e+02
  -1.544249e+02   2.270830e+02
  -3.085075e+02   1.089589e+02
  -2.261889e+02  -8.227586e+01
   1.524704e+01  -2.684497e+02
   2.492124e+02  -3.299803e+02
   3.341927e+02  -1.651901e+02
   2.327178e+02   1.463711e+02
   4.818713e+01   3.534459e+02
  -5.918350e+01   3.058532e+02
  -4.409242e+01   1.361302e+02
  -2.170731e+01   6.585769e+01
  -9.943261e+01   1.042356e+02
  -2.198882e+02   7.380304e+01
  -2.358119e+02  -9.534837e+01
  -1.002894e+02  -2.448923e+02
   8.588508e+01  -1.957132e+02
   1.885241e+02   2.680244e+01
   1.403408e+02   2.278119e+02
  -3.762300e+01   2.436803e+02
  -2.353469e+02   6.976482e+01
  -2.966289e+02  -1.613702e+02
  -1.556847e+02  -2.898686e+02
   6.337119e+01  -2.519915e+02
   1.678477e+02  -1.286673e+02
   1.318883e+02  -5.277415e+01
   1.211817e+02  -5.673010e+01
   2.454654e+02  -4.377658e+01
   3.769146e+02   7.787869e+01
   2.971845e+02   2.718006e+02
  -1.840455e+01   4.045035e+02
  -3.468344e+02   3.685757e+02
  -4.444560e+02   1.646129e+02
  -2.765723e+02  -9.452590e+01
  -2.341758e+01  -2.444482e+02
   1.000453e+02  -1.933336e+02
   2.910206e+01  -2.755731e+01
  -1.105341e+02   5.507898e+01
  -1.392690e+02  -3.106152e+01
  -1.462252e+01  -1.475971e+02
   1.242042e+02  -1.107221e+02
   1.184535e+02   5.547020e+01
  -2.781437e+01   1.375995e+02
  -1.591697e+02   5.950892e+00
  -1.406305e+02  -2.204226e+02
   2.298271e+01  -3.150429e+02
   2.187957e+02  -1.870585e+02
   3.200735e+02   5.577222e+01
   2.568709e+02   2.359823e+02
   6.435232e+01   2.523419e+02
  -1.165868e+02   1.347481e+02
  -1.468313e+02   6.743506e+00
  -3.703669e+01  -1.947180e+01
   5.317663e+01   5.218460e+01
   3.733965e+00   1.099491e+02
  -1.168758e+02   6.918775e+01
  -1.441073e+02  -2.411976e+01
  -3.415315e+01  -5.732923e+01
   7.729349e+01   4.419781e+00
   4.077940e+01   8.223397e+01
  -1.308186e+02   8.193845e+01
  -2.740657e+02  -1.454197e+01
  -2.395138e+02  -1.507022e+02
  -3.300394e+01  -2.423461e+02
   1.881328e+02  -2.226496e+02
   2.533608e+02  -9.394070e+01
   1.341307e+02   4.665170e+01
  -2.889594e+01   8.013158e+01
  -6.684486e+01  -3.458851e+00
   4.579943e+01  -8.043738e+01
   1.748247e+02  -3.537525e+01
   1.786641e+02   9.795083e+01
   5.236181e+01   1.788702e+02
  -8.522841e+01   1.292900e+02
  -1.206061e+02   1.642585e+01
  -4.781138e+01  -3.678351e+01
   3.729509e+01   1.272070e+01
   2.925109e+01   9.555484e+01
  -8.324306e+01   1.091186e+02
  -1.923195e+02   1.567320e+01
  -1.700772e+02  -1.226351e+02
  -1.067210e+01  -1.949487e+02
   1.473058e+02  -1.402364e+02
   1.647902e+02  -6.726200e+00
   5.123867e+01   9.279911e+01
  -5.952643e+01   9.067802e+01
  -6.805422e+01   2.275533e+01
  -4.940908e+00  -2.446799e+01
   3.137321e+01  -1.149725e+01
  -7.060013e+00   1.944424e+01
  -7.659429e+01   4.724879e-01
  -9.344105e+01  -8.104212e+01
  -1.195995e+01  -1.580705e+02
   1.278943e+02  -1.417580e+02
   2.195510e+02  -1.246247e+01
   1.790834e+02   1.454140e+02
   3.362816e+01   2.125714e+02
  -9.630692e+01   1.480632e+02
  -1.200812e+02   2.661288e+01
  -6.605123e+01  -4.319018e+01
  -2.930032e+01  -2.793474e+01
  -5.052267e+01   1.277817e+01
  -7.886576e+01   6.738324e+00
  -4.910900e+01  -5.007850e+01
   3.608851e+01  -9.342938e+01
   1.076049e+02  -6.101687e+01
   9.435676e+01   3.750603e+01
  -1.391270e+01   1.155412e+02
  -1.457195e+02   8.338595e+01
  -1.885383e+02  -5.715978e+01
  -8.176178e+01  -1.950112e+02
   1.120971e+02  -2.064571e+02
   2.473512e+02  -7.716048e+01
   2.274275e+02   8.409951e+01
   9.179891e+01   1.582549e+02
  -3.781231e+01   1.286398e+02
  -8.320479e+01   7.350261e+01
  -6.627471e+01   6.312119e+01
  -5.539667e+01   8.527644e+01
  -8.324133e+01   7.164066e+01
  -1.199050e+02  -1.754808e+01
  -1.087798e+02  -1.414997e+02
  -2.438862e+01  -2.075823e+02
   9.272106e+01  -1.539656e+02
   1.581370e+02  -1.147878e+01
   1.181970e+02   1.167778e+02
   9.845173e+00   1.449459e+02
  -6.866673e+01   7.700160e+01
  -5.811273e+01  -9.873185e+00
   9.903430e-01  -4.753973e+01
   2.101861e+01  -3.385122e+01
  -2.656486e+01  -1.303865e+01
  -7.610397e+01  -1.720689e+01
  -4.492040e+01  -3.619752e+01
   6.508345e+01  -3.658854e+01
   1.565371e+02   4.429895e-02
   1.330739e+02   5.604230e+01
   3.267468e+00   8.908596e+01
  -1.208053e+02   6.822204e+01
  -1.341450e+02   6.281190e+00
  -4.209403e+01  -4.461693e+01
   5.474578e+01  -3.881271e+01
   7.120997e+01   1.674285e+01
   1.540503e+01   6.584027e+01
  -4.385673e+01   5.819207e+01
  -6.164030e+01   1.677751e+00
  -5.027004e+01  -4.552518e+01
  -4.322206e+01  -3.928200e+01
  -5.206085e+01  -2.254469e+00
  -5.991655e+01  -1.084077e+00
  -3.917507e+01  -6.499347e+01
   2.557882e+01  -1.384457e+02
   1.132603e+02  -1.335712e+02
   1.624837e+02  -3.168317e+01
   1.186704e+02   8.592157e+01
   3.226376e+00   1.211846e+02
  -8.325298e+01   6.248360e+01
  -5.644872e+01  -1.054268e+01
   5.347730e+01  -1.871664e+01
   1.231985e+02   3.882063e+01
   6.549688e+01   9.808359e+01
  -7.644854e+01   1.006473e+02
  -1.741492e+02   4.140497e+01
  -1.449653e+02  -3.673152e+01
  -2.908300e+01  -7.880412e+01
   5.891837e+01  -5.792937e+01
   4.521137e+01  -5.438791e-01
  -3.624939e+01   2.774734e+01
  -8.441919e+01  -1.818361e+01
  -3.520962e+01  -1.060263e+02
   7.451768e+01  -1.418789e+02
   1.456227e+02  -6.275445e+01
   1.155002e+02   8.508710e+01
   1.379084e+01   1.764973e+02
  -7.581865e+01   1.291518e+02
  -9.556101e+01  -9.529820e+00
  -5.162259e+01  -1.099755e+02
   9.983830e+00  -9.559732e+01
   4.644058e+01  -1.494999e+01
   4.297080e+01   2.979361e+01
   1.723303e+01   7.653935e+00
   5.209788e+00  -1.681060e+01
   2.617497e+01   1.745649e+01
   5.258052e+01   8.190222e+01
   3.115499e+01   9.766849e+01
  -4.942427e+01   3.999554e+01
  -1.245052e+02  -3.456913e+01
  -1.136811e+02  -6.416219e+01
  -1.693429e+01  -4.788214e+01
   7.487382e+01  -2.249603e+01
   7.956848e+01  -5.569635e+00
   1.484084e+01   9.250125e+00
  -3.235939e+01   1.954885e+01
  -1.703269e+01   1.321667e+01
   1.475704e+01  -2.672872e+00
  -2.988829e+00  -6.025339e+00
  -6.214006e+01  -4.123331e-01
  -8.467103e+01  -1.985006e+01
  -1.745591e+01  -7.296230e+01
   9.975116e+01  -1.069304e+02
   1.707163e+02  -6.017050e+01
   1.371143e+02   5.388290e+01
   2.876324e+01   1.455703e+02
  -7.217835e+01   1.412758e+02
  -1.054311e+02   5.932147e+01
  -7.361334e+01  -1.762685e+01
  -2.423305e+01  -3.399453e+01
  -1.473209e+00  -1.068037e+01
  -1.225591e+01  -6.524671e+00
  -2.865077e+01  -4.431815e+01
  -1.770214e+01  -8.336907e+01
   2.644605e+01  -6.574223e+01
   7.205968e+01   1.421238e+01
   7.258258e+01   9.359951e+01
   1.147199e+01   1.004758e+02
  -6.916153e+01   2.758235e+01
  -9.570482e+01  -6.060102e+01
  -3.564817e+01  -9.345533e+01
   5.793886e+01  -5.728445e+01
   9.349868e+01   6.786958e+00
   4.131397e+01   5.079496e+01
  -3.000674e+01   5.463380e+01
  -3.465039e+01   2.734960e+01
   2.509787e+01  -3.900390e+00
   6.243447e+01  -8.061444e+00
   1.639082e+01   2.412052e+01
  -7.152656e+01   6.035669e+01
  -1.095508e+02   5.075198e+01
  -6.401249e+01  -1.354883e+01
   1.219100e+01  -7.726433e+01
   5.124628e+01  -7.591891e+01
   3.890455e+01  -1.110393e+01
   5.510651e+00   4.804329e+01
  -2.132468e+01   4.298464e+01
  -3.306757e+01  -1.077787e+01
  -2.603685e+01  -4.885509e+01
   3.363462e-01  -3.478421e+01
   3.022753e+01   5.056799e+00
   3.836238e+01   2.186929e+01
   1.929142e+01   3.523051e+00
  -3.420520e+00  -1.673831e+01
  -6.982098e+00  -5.319058e+00
   1.247930e+00   2.932980e+01
  -3.350143e+00   4.540036e+01
  -2.453532e+01   1.688699e+01
  -3.470839e+01  -3.295619e+01
  -9.021170e+00  -5.368647e+01
   3.713704e+01  -2.246482e+01
   5.583116e+01   3.054815e+01
   1.715442e+01   5.518843e+01
  -5.117060e+01   3.310797e+01
  -8.415013e+01  -1.022637e+01
  -4.641401e+01  -3.918671e+01
   2.550031e+01  -4.086592e+01
   5.893067e+01  -2.488914e+01
   2.529318e+01  -6.472406e+00
  -2.736019e+01   1.506926e+00
  -3.087708e+01  -7.810708e+00
   2.296115e+01  -2.403509e+01
   7.394272e+01  -1.863640e+01
