
 $NMID
 id='ANONYMOUS ', fmtdat='(2E16.6)'
 volume=1.0
 tramp=1.0
 $END
  -4.118539e+03  -2.371579e+01
  -2.422038e+03  -2.437609e+03
   6.222007e+02  -2.595895e+03
   1.945842e+03  -9.186147e+02
   9.233467e+02   5.139755e+02
  -5.449856e+02   4.982026e+02
  -7.894978e+02  -3.876352e+02
   1.043483e+01  -9.717449e+02
   7.661474e+02  -7.310415e+02
   8.789965e+02   7.423375e+01
   4.331925e+02   8.004562e+02
  -2.071871e+02   8.379680e+02
  -5.769519e+02   1.178895e+02
  -3.506819e+02  -6.676259e+02
   2.489800e+02  -7.061062e+02
   5.684947e+02  -1.525079e+00
   2.687892e+02   6.456904e+02
  -2.915795e+02   6.234056e+02
  -5.578890e+02   1.170360e+02
  -3.893947e+02  -3.209511e+02
  -3.273397e+01  -4.192057e+02
   2.211519e+02  -2.558241e+02
   1.866840e+02  -2.460553e+01
  -1.264421e+02   5.523696e+01
  -3.827448e+02  -1.422825e+02
  -1.587536e+02  -4.188288e+02
   4.619266e+02  -3.651218e+02
   8.017381e+02   9.982100e+01
   3.873828e+02   5.177777e+02
  -3.830287e+02   4.304918e+02
  -6.995101e+02  -5.733644e+01
  -3.143495e+02  -4.616458e+02
   2.806666e+02  -4.843818e+02
   5.445762e+02  -1.843437e+02
   3.955876e+02   2.174662e+02
   6.855912e+01   4.438988e+02
  -1.721120e+02   2.629412e+02
  -1.335700e+02  -1.976653e+02
   1.710341e+02  -3.874072e+02
   4.038859e+02   4.288975e+01
   2.003533e+02   6.485151e+02
  -3.105192e+02   6.520608e+02
  -5.549219e+02  -1.723220e+00
  -2.307417e+02  -5.134212e+02
   2.693292e+02  -2.856533e+02
   3.464599e+02   3.157172e+02
  -7.773378e+01   5.166643e+02
  -5.328804e+02   1.194149e+02
  -5.692220e+02  -4.001008e+02
  -1.595865e+02  -5.659188e+02
   3.669857e+02  -3.281994e+02
   6.047023e+02   7.482046e+01
   3.628495e+02   3.609399e+02
  -1.376626e+02   3.382950e+02
  -4.145946e+02   5.696751e+01
  -2.338184e+02  -1.689927e+02
   9.852117e+01  -9.192874e+01
   1.267236e+02   1.370289e+02
  -1.543479e+02   1.646638e+02
  -3.252495e+02  -7.100684e+01
  -1.360241e+02  -2.809235e+02
   1.952054e+02  -2.533530e+02
   3.292231e+02  -8.047059e+01
   2.038742e+02   8.673512e+01
  -2.496200e+01   2.347590e+02
  -2.292048e+02   3.264778e+02
  -3.380461e+02   2.062670e+02
  -2.790181e+02  -1.391688e+02
  -7.267371e+01  -4.192535e+02
   1.028916e+02  -3.693533e+02
   1.048155e+02  -1.199494e+02
   2.541615e+01  -6.489585e+00
   5.630596e+01  -9.053486e+01
   2.008210e+02  -1.173146e+02
   2.699459e+02   6.203502e+01
   1.471947e+02   2.654450e+02
  -7.452773e+01   2.444843e+02
  -2.197883e+02   2.783041e+00
  -1.859968e+02  -2.386185e+02
   1.606903e+01  -2.846221e+02
   2.602735e+02  -1.069661e+02
   3.481617e+02   1.663394e+02
   1.811861e+02   3.389519e+02
  -9.131812e+01   2.965678e+02
  -2.152032e+02   1.241191e+02
  -1.480623e+02   1.602406e+01
  -1.048289e+02   3.930027e+01
  -2.364877e+02   5.961707e+01
  -3.956003e+02  -6.211550e+01
  -3.246952e+02  -2.823678e+02
   5.857854e+00  -4.345947e+02
   3.573663e+02  -4.033892e+02
   4.790842e+02  -1.930322e+02
   3.238050e+02   9.342410e+01
   4.813533e+01   2.838849e+02
  -1.236544e+02   2.410353e+02
  -7.072911e+01   2.982378e+01
   1.101159e+02  -9.663113e+01
   1.847736e+02   1.108984e+01
   4.319575e+01   1.863988e+02
  -1.539101e+02   1.599198e+02
  -1.671578e+02  -5.945743e+01
   1.936431e+01  -1.820412e+02
   1.875871e+02  -2.735426e+01
   1.590632e+02   2.426683e+02
  -3.014648e+01   3.425721e+02
  -2.286498e+02   1.910301e+02
  -3.245241e+02  -6.209434e+01
  -2.723735e+02  -2.380687e+02
  -8.791078e+01  -2.608772e+02
   1.141210e+02  -1.548415e+02
   1.714429e+02  -1.802629e+01
   5.457674e+01   2.962805e+01
  -6.629118e+01  -4.142923e+01
  -2.424605e+01  -1.220638e+02
   1.226447e+02  -9.366762e+01
   1.718579e+02   1.498317e+01
   5.355885e+01   6.959978e+01
  -7.936875e+01   1.228762e+01
  -5.212167e+01  -7.477882e+01
   1.245952e+02  -8.520619e+01
   2.791223e+02   3.686210e+00
   2.572864e+02   1.417111e+02
   5.435381e+01   2.514903e+02
  -1.845980e+02   2.526266e+02
  -2.772847e+02   1.198917e+02
  -1.632042e+02  -5.050575e+01
   2.520365e+01  -1.040404e+02
   8.639746e+01  -6.222331e+00
  -3.503931e+01   9.735215e+01
  -1.914302e+02   5.485974e+01
  -2.066418e+02  -1.013850e+02
  -6.618461e+01  -2.022647e+02
   9.253117e+01  -1.525792e+02
   1.395507e+02  -2.672504e+01
   6.632712e+01   4.063178e+01
  -2.936277e+01   1.371799e-01
  -3.566926e+01  -8.482381e+01
   7.313781e+01  -1.113991e+02
   1.956030e+02  -2.640229e+01
   1.867229e+02   1.223240e+02
   1.951186e+01   2.129624e+02
  -1.609098e+02   1.594873e+02
  -1.885238e+02   6.522870e+00
  -6.283280e+01  -1.105238e+02
   6.529523e+01  -1.078035e+02
   8.052940e+01  -2.925816e+01
   1.610161e+01   2.568506e+01
  -2.319086e+01   1.729304e+01
   9.143210e+00  -1.000120e+01
   7.124117e+01   6.871431e+00
   8.842733e+01   8.092365e+01
   1.452548e+01   1.567721e+02
  -1.251953e+02   1.493239e+02
  -2.292081e+02   2.355631e+01
  -1.965646e+02  -1.478083e+02
  -4.050315e+01  -2.314884e+02
   1.060776e+02  -1.653194e+02
   1.325448e+02  -2.709149e+01
   6.950642e+01   5.317990e+01
   2.857205e+01   3.429291e+01
   5.250747e+01  -1.219852e+01
   7.900676e+01  -6.449706e+00
   4.287040e+01   4.932352e+01
  -4.072933e+01   8.812977e+01
  -1.023761e+02   5.592333e+01
  -8.636019e+01  -3.531825e+01
   1.318242e+01  -1.102606e+02
   1.408748e+02  -8.494806e+01
   1.939576e+02   5.113804e+01
   9.674884e+01   1.983619e+02
  -1.059936e+02   2.231065e+02
  -2.613741e+02   9.260845e+01
  -2.506861e+02  -8.464115e+01
  -1.060888e+02  -1.723025e+02
   3.822901e+01  -1.431499e+02
   9.195618e+01  -8.182324e+01
   7.650928e+01  -6.790649e+01
   6.424327e+01  -8.922946e+01
   8.997632e+01  -7.311396e+01
   1.256768e+02   2.100859e+01
   1.151179e+02   1.505062e+02
   2.857183e+01   2.209791e+02
  -9.676690e+01   1.677419e+02
  -1.711264e+02   1.892486e+01
  -1.322501e+02  -1.199161e+02
  -1.747143e+01  -1.558844e+02
   6.709516e+01  -8.897287e+01
   5.941926e+01   1.273193e+00
   3.796607e+00   4.330416e+01
  -1.237793e+01   3.423284e+01
   3.403633e+01   1.717014e+01
   7.795363e+01   2.149535e+01
   4.437783e+01   3.748900e+01
  -6.341939e+01   3.655347e+01
  -1.562693e+02   2.439166e+00
  -1.401162e+02  -5.172055e+01
  -1.297517e+01  -8.796001e+01
   1.195817e+02  -7.239887e+01
   1.418835e+02  -1.201818e+01
   4.691815e+01   4.131133e+01
  -5.856554e+01   3.744473e+01
  -7.435626e+01  -1.835974e+01
  -9.222781e+00  -6.726435e+01
   5.287865e+01  -5.744473e+01
   6.244009e+01   1.274816e+00
   4.498310e+01   4.868668e+01
   4.304188e+01   4.099178e+01
   5.898088e+01   2.321807e+00
   6.435987e+01   7.409514e-01
   3.571094e+01   6.647499e+01
  -3.104541e+01   1.428659e+02
  -1.146207e+02   1.384248e+02
  -1.623253e+02   3.271398e+01
  -1.212320e+02  -8.915040e+01
  -5.934717e+00  -1.240284e+02
   8.459504e+01  -6.120469e+01
   5.868031e+01   1.393738e+01
  -5.745605e+01   1.962722e+01
  -1.334424e+02  -4.211919e+01
  -7.324190e+01  -1.045492e+02
   7.906220e+01  -1.091368e+02
   1.859957e+02  -4.952499e+01
   1.578437e+02   3.402164e+01
   3.542469e+01   8.441498e+01
  -6.002270e+01   6.727294e+01
  -4.793678e+01   5.983781e+00
   3.783411e+01  -2.686500e+01
   8.850205e+01   2.135070e+01
   3.318024e+01   1.149847e+02
  -8.704375e+01   1.503560e+02
  -1.614382e+02   6.190509e+01
  -1.233173e+02  -9.643903e+01
  -1.101027e+01  -1.915039e+02
   8.275918e+01  -1.399218e+02
   1.019255e+02   7.127761e+00
   5.844121e+01   1.153097e+02
  -3.326308e+00   1.035110e+02
  -4.557947e+01   1.907920e+01
  -4.981570e+01  -3.067377e+01
  -2.400774e+01  -8.416677e+00
  -4.166977e+00   1.968105e+01
  -2.153765e+01  -1.528686e+01
  -5.460959e+01  -8.636214e+01
  -3.954887e+01  -1.061897e+02
   4.691406e+01  -4.387774e+01
   1.342911e+02   3.816602e+01
   1.255649e+02   6.906339e+01
   1.731670e+01   4.887142e+01
  -8.455318e+01   2.195249e+01
  -8.584730e+01   7.169285e+00
  -1.154220e+01  -7.588580e+00
   3.701387e+01  -2.154538e+01
   1.460339e+01  -1.710847e+01
  -1.987826e+01   1.644337e+00
   5.106394e+00   8.442410e+00
   7.115148e+01   3.334314e+00
   8.921272e+01   2.291148e+01
   1.000406e+01   7.790623e+01
  -1.137695e+02   1.113656e+02
  -1.807075e+02   5.795656e+01
  -1.390888e+02  -6.414626e+01
  -2.584122e+01  -1.570660e+02
   7.695042e+01  -1.465019e+02
   1.112618e+02  -5.790908e+01
   7.834563e+01   2.065852e+01
   2.447413e+01   3.475028e+01
  -2.079853e+00   8.932070e+00
   1.051143e+01   4.453125e+00
   3.187005e+01   4.496501e+01
   2.143686e+01   8.779708e+01
  -2.843020e+01   6.966905e+01
  -7.844166e+01  -1.762220e+01
  -7.514101e+01  -1.043731e+02
  -5.434305e+00  -1.086222e+02
   7.887371e+01  -2.406710e+01
   1.002558e+02   7.188239e+01
   3.220697e+01   1.003839e+02
  -6.409116e+01   5.516771e+01
  -9.583499e+01  -1.087609e+01
  -3.908576e+01  -5.005337e+01
   3.185893e+01  -5.165816e+01
   3.159137e+01  -2.770549e+01
  -3.190354e+01   1.003268e+00
  -6.718519e+01   6.770452e+00
  -1.499373e+01  -2.460421e+01
   7.691077e+01  -6.402393e+01
   1.131678e+02  -5.630315e+01
   6.310254e+01   1.214071e+01
  -1.503169e+01   8.089112e+01
  -5.211968e+01   7.772683e+01
  -3.687527e+01   6.612201e+00
  -2.110888e+00  -5.368135e+01
   2.462597e+01  -4.230427e+01
   3.524050e+01   1.671361e+01
   2.603087e+01   5.239738e+01
  -2.320545e+00   3.278768e+01
  -3.212450e+01  -7.828851e+00
  -3.892957e+01  -2.099951e+01
  -2.011809e+01  -1.577997e+00
   1.237530e+00   1.444941e+01
   6.842796e+00  -1.329628e+00
   5.070477e+00  -3.465686e+01
   1.379717e+01  -4.420018e+01
   3.029038e+01  -9.298798e+00
   3.062190e+01   4.211605e+01
   7.444430e-04   5.871729e+01
  -4.264528e+01   2.056877e+01
  -5.556701e+01  -3.718642e+01
  -1.468165e+01  -6.080896e+01
   5.355273e+01  -3.329621e+01
   8.678065e+01   1.441844e+01
   4.785908e+01   4.268359e+01
  -2.788433e+01   4.020471e+01
  -6.288558e+01   2.164122e+01
  -2.413573e+01   5.060728e+00
   3.483831e+01   1.596468e+00
   3.584841e+01   1.410015e+01
  -2.894210e+01   2.935324e+01
  -8.679025e+01   1.898896e+01
