
 $NMID
 id='ANONYMOUS ', fmtdat='(2E16.6)'
 volume=1.0
 tramp=1.0
 $END
   3.769146e+03  -1.634536e+00
   2.364566e+03   2.082687e+03
  -2.922240e+02   2.404791e+03
  -1.644663e+03   1.140012e+03
  -9.906821e+02  -1.538308e+02
   2.441973e+02  -3.782162e+02
   6.017427e+02   2.319657e+02
   3.904218e+01   7.801402e+02
  -6.162881e+02   6.845469e+02
  -7.879552e+02   1.758907e+01
  -4.558359e+02  -6.704053e+02
   9.394641e+01  -7.714300e+02
   4.526404e+02  -1.682104e+02
   3.157852e+02   5.502838e+02
  -1.794394e+02   6.455789e+02
  -5.018855e+02   4.932620e+01
  -2.983666e+02  -5.813153e+02
   2.116802e+02  -6.473712e+02
   5.325526e+02  -2.073353e+02
   4.339004e+02   2.555505e+02
   8.815826e+01   4.045000e+02
  -1.748728e+02   2.620510e+02
  -1.342044e+02   5.834293e+01
   1.520329e+02   2.511533e+01
   3.313908e+02   2.124787e+02
   7.386672e+01   3.934354e+02
  -4.713084e+02   2.685110e+02
  -7.170999e+02  -1.417898e+02
  -3.168638e+02  -4.451829e+02
   3.536188e+02  -3.249368e+02
   6.121351e+02   9.149093e+01
   2.602769e+02   4.184424e+02
  -2.743513e+02   4.274965e+02
  -5.103414e+02   1.626303e+02
  -3.697645e+02  -1.909894e+02
  -8.276872e+01  -3.871534e+02
   1.012065e+02  -2.343751e+02
   5.201109e+01   1.408143e+02
  -1.719031e+02   2.787689e+02
  -3.067509e+02  -8.785607e+01
  -1.143751e+02  -5.783265e+02
   2.804851e+02  -5.615705e+02
   4.519974e+02  -6.605040e+00
   1.868382e+02   4.206273e+02
  -2.101844e+02   2.221970e+02
  -2.676749e+02  -2.947671e+02
   9.424235e+01  -4.619474e+02
   4.983616e+02  -9.207871e+01
   5.399861e+02   3.937209e+02
   1.624997e+02   5.440409e+02
  -3.394342e+02   3.069800e+02
  -5.749154e+02  -6.891041e+01
  -3.637371e+02  -3.136306e+02
   9.035201e+01  -2.929062e+02
   3.609794e+02  -7.622401e+01
   2.363583e+02   1.006093e+02
  -4.319199e+01   6.288281e+01
  -9.310947e+01  -9.156010e+01
   1.255990e+02  -1.158124e+02
   2.834985e+02   5.735446e+01
   1.364944e+02   2.420309e+02
  -1.775246e+02   2.572968e+02
  -3.470560e+02   1.107311e+02
  -2.411401e+02  -9.731308e+01
   2.759978e+01  -2.863904e+02
   2.727739e+02  -3.527876e+02
   3.622427e+02  -1.852663e+02
   2.613815e+02   1.550047e+02
   6.223792e+01   3.980467e+02
  -7.017231e+01   3.536105e+02
  -6.632614e+01   1.527690e+02
  -3.389295e+01   5.847717e+01
  -1.021149e+02   1.030550e+02
  -2.305537e+02   8.455361e+01
  -2.590443e+02  -9.510658e+01
  -1.194554e+02  -2.668276e+02
   8.714687e+01  -2.218749e+02
   2.083244e+02   2.085925e+01
   1.617557e+02   2.467262e+02
  -3.395946e+01   2.717057e+02
  -2.583288e+02   8.468036e+01
  -3.338214e+02  -1.743701e+02
  -1.783661e+02  -3.262859e+02
   7.300457e+01  -2.882113e+02
   1.965677e+02  -1.435666e+02
   1.536029e+02  -4.950318e+01
   1.318026e+02  -5.381352e+01
   2.642360e+02  -4.649335e+01
   4.122286e+02   8.433357e+01
   3.280787e+02   2.995634e+02
  -1.896543e+01   4.462843e+02
  -3.814685e+02   4.065427e+02
  -4.913985e+02   1.844449e+02
  -3.110836e+02  -1.003416e+02
  -3.315520e+01  -2.726580e+02
   1.107228e+02  -2.237572e+02
   4.138062e+01  -3.603484e+01
  -1.154842e+02   6.792481e+01
  -1.591266e+02  -2.496867e+01
  -2.578692e+01  -1.661440e+02
   1.370473e+02  -1.344473e+02
   1.401620e+02   5.633226e+01
  -2.418868e+01   1.587352e+02
  -1.772784e+02   1.304466e+01
  -1.575616e+02  -2.451275e+02
   2.750984e+01  -3.507822e+02
   2.432437e+02  -2.031927e+02
   3.503822e+02   6.643176e+01
   2.806690e+02   2.596291e+02
   7.308444e+01   2.749669e+02
  -1.258304e+02   1.495755e+02
  -1.643817e+02   1.123805e+01
  -4.557931e+01  -2.164969e+01
   5.874342e+01   5.342455e+01
   8.850787e+00   1.199232e+02
  -1.264401e+02   8.019129e+01
  -1.619729e+02  -2.245134e+01
  -4.259655e+01  -6.314186e+01
   8.240290e+01   1.851006e+00
   4.482840e+01   8.703954e+01
  -1.420922e+02   8.734965e+01
  -2.984998e+02  -1.673532e+01
  -2.619486e+02  -1.634479e+02
  -3.860220e+01  -2.640445e+02
   2.035733e+02  -2.465542e+02
   2.797040e+02  -1.080787e+02
   1.528872e+02   4.968074e+01
  -2.850354e+01   9.197348e+01
  -7.600824e+01   2.099058e-01
   4.632337e+01  -8.945752e+01
   1.923651e+02  -4.281724e+01
   2.004157e+02   1.063828e+02
   6.095626e+01   1.993855e+02
  -9.331390e+01   1.461944e+02
  -1.347467e+02   2.116850e+01
  -5.641432e+01  -3.911968e+01
   3.688081e+01   1.261028e+01
   3.046005e+01   1.013504e+02
  -8.982625e+01   1.169433e+02
  -2.093497e+02   1.717194e+01
  -1.875551e+02  -1.339349e+02
  -1.332116e+01  -2.157846e+02
   1.632345e+02  -1.571840e+02
   1.853999e+02  -8.198600e+00
   5.969677e+01   1.044550e+02
  -6.521097e+01   1.028102e+02
  -7.654464e+01   2.707312e+01
  -7.756628e+00  -2.547915e+01
   3.171672e+01  -1.225427e+01
  -9.802602e+00   1.924643e+01
  -8.340526e+01  -3.057573e+00
  -9.960586e+01  -9.050807e+01
  -1.111168e+01  -1.720213e+02
   1.399888e+02  -1.541560e+02
   2.404281e+02  -1.424705e+01
   1.976189e+02   1.594289e+02
   3.778940e+01   2.358410e+02
  -1.070988e+02   1.654841e+02
  -1.342266e+02   2.913003e+01
  -7.364235e+01  -4.991345e+01
  -3.229170e+01  -3.247870e+01
  -5.586152e+01   1.334285e+01
  -8.623962e+01   6.137601e+00
  -5.131499e+01  -5.608681e+01
   4.257995e+01  -1.008660e+02
   1.178563e+02  -6.308775e+01
   1.002759e+02   4.295751e+01
  -1.747470e+01   1.245721e+02
  -1.589315e+02   8.851227e+01
  -2.052964e+02  -6.303161e+01
  -9.023941e+01  -2.126820e+02
   1.216474e+02  -2.265965e+02
   2.721116e+02  -8.605316e+01
   2.523481e+02   9.199358e+01
   1.030880e+02   1.752665e+02
  -4.122074e+01   1.432061e+02
  -9.272201e+01   8.212000e+01
  -7.493064e+01   7.044153e+01
  -6.318760e+01   9.439458e+01
  -9.323874e+01   7.823495e+01
  -1.324028e+02  -2.090679e+01
  -1.193355e+02  -1.572010e+02
  -2.638486e+01  -2.293750e+02
   1.024532e+02  -1.703739e+02
   1.746699e+02  -1.371937e+01
   1.309179e+02   1.279290e+02
   1.188411e+01   1.597551e+02
  -7.402936e+01   8.553341e+01
  -6.235795e+01  -9.482885e+00
   1.287389e+00  -5.022027e+01
   2.140729e+01  -3.549837e+01
  -3.109093e+01  -1.451497e+01
  -8.382620e+01  -2.062783e+01
  -4.854299e+01  -4.054115e+01
   7.119253e+01  -3.872109e+01
   1.704174e+02   1.839259e+00
   1.453959e+02   6.114968e+01
   4.308587e+00   9.564079e+01
  -1.319779e+02   7.344308e+01
  -1.474489e+02   7.270737e+00
  -4.591393e+01  -4.787737e+01
   6.138782e+01  -4.177026e+01
   7.841217e+01   1.925408e+01
   1.462026e+01   7.327886e+01
  -5.089568e+01   6.395679e+01
  -6.789309e+01   3.533913e-01
  -5.342017e+01  -5.189754e+01
  -4.678584e+01  -4.392673e+01
  -5.837504e+01  -2.271436e+00
  -6.634028e+01  -1.366196e+00
  -4.120375e+01  -7.233691e+01
   3.059590e+01  -1.524908e+02
   1.252094e+02  -1.453905e+02
   1.776076e+02  -3.237969e+01
   1.292734e+02   9.590480e+01
   2.744992e+00   1.325663e+02
  -9.226905e+01   6.685037e+01
  -6.243650e+01  -1.280503e+01
   5.942033e+01  -2.040234e+01
   1.366827e+02   4.350236e+01
   7.270826e+01   1.083984e+02
  -8.432214e+01   1.110160e+02
  -1.922311e+02   4.613355e+01
  -1.602234e+02  -3.979768e+01
  -3.281356e+01  -8.682075e+01
   6.409160e+01  -6.464023e+01
   4.920397e+01  -1.553246e+00
  -4.045814e+01   2.976473e+01
  -9.323932e+01  -2.124515e+01
  -3.765123e+01  -1.185672e+02
   8.509819e+01  -1.574368e+02
   1.635912e+02  -6.836159e+01
   1.281760e+02   9.606569e+01
   1.391299e+01   1.966459e+02
  -8.472657e+01   1.432652e+02
  -1.052634e+02  -1.036920e+01
  -5.701897e+01  -1.210419e+02
   9.672094e+00  -1.050506e+02
   5.012275e+01  -1.645024e+01
   4.814403e+01   3.238696e+01
   2.035200e+01   7.827072e+00
   5.290963e+00  -1.877840e+01
   2.693788e+01   1.959615e+01
   5.726061e+01   9.089525e+01
   3.567556e+01   1.078151e+02
  -5.340757e+01   4.344907e+01
  -1.381090e+02  -3.901499e+01
  -1.265222e+02  -7.115218e+01
  -1.799745e+01  -5.267781e+01
   8.433715e+01  -2.468088e+01
   8.812825e+01  -6.150302e+00
   1.506885e+01   1.039983e+01
  -3.638808e+01   2.196780e+01
  -1.767843e+01   1.471920e+01
   1.746197e+01  -3.185167e+00
  -3.998347e+00  -6.874509e+00
  -7.028360e+01  -7.691880e-01
  -9.357959e+01  -2.297855e+01
  -1.695872e+01  -8.206678e+01
   1.130294e+02  -1.182080e+02
   1.897965e+02  -6.403515e+01
   1.507348e+02   6.290812e+01
   3.018335e+01   1.623332e+02
  -8.121946e+01   1.549747e+02
  -1.174720e+02   6.367340e+01
  -8.158470e+01  -2.035462e+01
  -2.610330e+01  -3.759691e+01
  -3.889614e-01  -1.177842e+01
  -1.258637e+01  -7.073986e+00
  -3.143789e+01  -4.848347e+01
  -1.956195e+01  -9.173070e+01
   2.973610e+01  -7.253183e+01
   8.037096e+01   1.645915e+01
   7.992763e+01   1.053284e+02
   1.079608e+01   1.125374e+02
  -7.860559e+01   2.964045e+01
  -1.061784e+02  -6.949499e+01
  -3.770655e+01  -1.045893e+02
   6.578623e+01  -6.203891e+01
   1.030470e+02   9.400185e+00
   4.371786e+01   5.619023e+01
  -3.440092e+01   5.875706e+01
  -3.746911e+01   2.898266e+01
   2.941459e+01  -4.181178e+00
   6.952475e+01  -8.246187e+00
   1.727796e+01   2.687389e+01
  -7.966806e+01   6.640624e+01
  -1.203511e+02   5.554262e+01
  -6.924916e+01  -1.554133e+01
   1.458886e+01  -8.536956e+01
   5.699632e+01  -8.262789e+01
   4.279060e+01  -1.022579e+01
   5.318261e+00   5.428250e+01
  -2.476131e+01   4.690313e+01
  -3.726216e+01  -1.330507e+01
  -2.818801e+01  -5.451405e+01
   1.619101e+00  -3.777802e+01
   3.373804e+01   6.333972e+00
   4.154786e+01   2.415588e+01
   2.091542e+01   3.568803e+00
  -2.661674e+00  -1.810125e+01
  -6.570607e+00  -4.405410e+00
   2.316521e-01   3.413777e+01
  -6.891123e+00   5.069534e+01
  -2.941468e+01   1.713938e+01
  -3.774541e+01  -3.915432e+01
  -7.692805e+00  -6.114709e+01
   4.239000e+01  -2.430824e+01
   6.135201e+01   3.572290e+01
   1.812900e+01   6.211792e+01
  -5.685278e+01   3.575118e+01
  -9.287577e+01  -1.299703e+01
  -5.089501e+01  -4.404998e+01
   2.907402e+01  -4.440397e+01
   6.604453e+01  -2.610190e+01
   2.763275e+01  -6.201614e+00
  -3.203107e+01   1.583276e+00
  -3.560641e+01  -9.720607e+00
   2.603330e+01  -2.795088e+01
   8.386284e+01  -2.113492e+01
