
 $NMID
 id='ANONYMOUS ', fmtdat='(2E16.6)'
 volume=1.0
 tramp=1.0
 $END
  -4.324117e+03   1.550360e+02
  -2.729164e+03  -2.460908e+03
   4.775200e+02  -2.845305e+03
   2.062053e+03  -1.169899e+03
   1.132549e+03   4.624000e+02
  -4.559587e+02   6.078726e+02
  -8.514995e+02  -3.000909e+02
  -7.903819e+01  -1.005261e+03
   7.542340e+02  -8.303974e+02
   9.478684e+02   1.229527e+01
   5.240815e+02   8.232923e+02
  -1.575262e+02   9.194771e+02
  -5.991418e+02   1.888858e+02
  -4.141865e+02  -6.667323e+02
   2.178846e+02  -7.661281e+02
   6.064400e+02  -4.450935e+01
   3.261107e+02   6.798884e+02
  -2.896954e+02   7.043376e+02
  -6.185371e+02   1.658779e+02
  -4.549697e+02  -3.351336e+02
  -6.076461e+01  -4.626378e+02
   2.227301e+02  -2.939499e+02
   1.965045e+02  -5.535271e+01
  -1.150233e+02   3.089210e+01
  -3.748785e+02  -1.488714e+02
  -1.614429e+02  -4.113783e+02
   4.600825e+02  -3.683991e+02
   8.231987e+02   7.889784e+01
   4.270327e+02   5.060922e+02
  -3.612993e+02   4.476267e+02
  -7.149814e+02  -3.186320e+01
  -3.427927e+02  -4.603570e+02
   2.731755e+02  -5.093608e+02
   5.640599e+02  -2.105389e+02
   4.283906e+02   2.115741e+02
   1.022199e+02   4.636862e+02
  -1.520455e+02   2.996163e+02
  -1.425846e+02  -1.675821e+02
   1.420761e+02  -3.876860e+02
   3.920851e+02   2.029835e+01
   2.237006e+02   6.442837e+02
  -2.853069e+02   6.880736e+02
  -5.691893e+02   4.217116e+01
  -2.730762e+02  -5.069824e+02
   2.474859e+02  -3.120561e+02
   3.611202e+02   3.015172e+02
  -6.230464e+01   5.341069e+02
  -5.505344e+02   1.394379e+02
  -6.093541e+02  -4.089230e+02
  -1.868956e+02  -5.986938e+02
   3.738398e+02  -3.599622e+02
   6.424099e+02   6.010695e+01
   4.094262e+02   3.688346e+02
  -1.149020e+02   3.675090e+02
  -4.349807e+02   8.972021e+01
  -2.759319e+02  -1.600382e+02
   7.972292e+01  -1.102210e+02
   1.435464e+02   1.216051e+02
  -1.390909e+02   1.748091e+02
  -3.424931e+02  -5.397806e+01
  -1.625579e+02  -2.885207e+02
   2.019299e+02  -2.809069e+02
   3.660924e+02  -9.311080e+01
   2.260543e+02   1.050746e+02
  -4.109096e+01   2.647211e+02
  -2.611341e+02   3.455369e+02
  -3.585873e+02   2.120300e+02
  -2.907479e+02  -1.434850e+02
  -8.794429e+01  -4.386918e+02
   9.091824e+01  -4.034405e+02
   1.109592e+02  -1.514142e+02
   4.651316e+01  -1.850818e+01
   7.544286e+01  -8.602051e+01
   2.105533e+02  -1.098554e+02
   2.760761e+02   6.788684e+01
   1.534488e+02   2.733414e+02
  -7.226684e+01   2.525759e+02
  -2.244061e+02   3.518380e+00
  -1.933377e+02  -2.470291e+02
   1.371705e+01  -2.955902e+02
   2.692768e+02  -1.128679e+02
   3.686182e+02   1.705759e+02
   2.022168e+02   3.559794e+02
  -8.587051e+01   3.225947e+02
  -2.300253e+02   1.473152e+02
  -1.708041e+02   2.644721e+01
  -1.237099e+02   3.859377e+01
  -2.554903e+02   5.452709e+01
  -4.215878e+02  -7.232703e+01
  -3.468972e+02  -3.034342e+02
   7.463726e+00  -4.642062e+02
   3.843934e+02  -4.298812e+02
   5.106647e+02  -2.071185e+02
   3.423058e+02   9.309012e+01
   5.523884e+01   2.953001e+02
  -1.197922e+02   2.594275e+02
  -6.944808e+01   4.426875e+01
   1.085142e+02  -9.553170e+01
   1.865130e+02   4.536567e+00
   5.088172e+01   1.877696e+02
  -1.495839e+02   1.721020e+02
  -1.735754e+02  -5.155174e+01
   1.176860e+01  -1.873157e+02
   1.929638e+02  -3.149810e+01
   1.725373e+02   2.577136e+02
  -2.939527e+01   3.702756e+02
  -2.500132e+02   2.062452e+02
  -3.538603e+02  -7.154243e+01
  -2.901344e+02  -2.595418e+02
  -8.920425e+01  -2.769643e+02
   1.213964e+02  -1.621308e+02
   1.791616e+02  -2.223643e+01
   5.905849e+01   2.583578e+01
  -6.558347e+01  -4.415565e+01
  -2.425724e+01  -1.246970e+02
   1.265602e+02  -9.715299e+01
   1.790919e+02   1.235217e+01
   5.750816e+01   6.840771e+01
  -8.096244e+01   9.481467e+00
  -5.086868e+01  -8.021765e+01
   1.375974e+02  -8.781445e+01
   2.998092e+02   9.865501e+00
   2.715750e+02   1.554442e+02
   5.339993e+01   2.666740e+02
  -1.971500e+02   2.652168e+02
  -2.919273e+02   1.283301e+02
  -1.729460e+02  -4.813325e+01
   2.241953e+01  -1.074146e+02
   8.763686e+01  -9.693048e+00
  -3.656691e+01   9.888831e+01
  -2.004588e+02   5.791001e+01
  -2.193597e+02  -1.049018e+02
  -7.327803e+01  -2.131142e+02
   9.500528e+01  -1.626973e+02
   1.459058e+02  -3.068430e+01
   6.942054e+01   3.888822e+01
  -2.926165e+01  -5.340288e+00
  -3.255364e+01  -9.304011e+01
   8.303462e+01  -1.163066e+02
   2.097043e+02  -2.404116e+01
   1.980542e+02   1.317060e+02
   2.132501e+01   2.264489e+02
  -1.698740e+02   1.716568e+02
  -2.014583e+02   1.114493e+01
  -6.999720e+01  -1.147713e+02
   6.670730e+01  -1.150312e+02
   8.400981e+01  -3.319421e+01
   1.542664e+01   2.446786e+01
  -2.521843e+01   1.468209e+01
   1.286750e+01  -1.310839e+01
   8.089960e+01   9.321153e+00
   9.567762e+01   9.164034e+01
   1.184358e+01   1.706186e+02
  -1.374853e+02   1.580830e+02
  -2.450177e+02   2.228275e+01
  -2.090102e+02  -1.589262e+02
  -4.449443e+01  -2.475412e+02
   1.115474e+02  -1.782140e+02
   1.426452e+02  -3.088569e+01
   7.736070e+01   5.642989e+01
   3.267619e+01   3.704494e+01
   5.732197e+01  -1.301101e+01
   8.633911e+01  -5.564417e+00
   4.664623e+01   5.679721e+01
  -4.704287e+01   9.775215e+01
  -1.153356e+02   5.816202e+01
  -9.419247e+01  -4.322063e+01
   1.841091e+01  -1.206744e+02
   1.556489e+02  -8.796774e+01
   2.075212e+02   5.892359e+01
   9.993925e+01   2.127072e+02
  -1.156673e+02   2.361597e+02
  -2.792500e+02   9.756984e+01
  -2.676244e+02  -8.957878e+01
  -1.142505e+02  -1.827735e+02
   3.971627e+01  -1.528354e+02
   9.759114e+01  -8.873879e+01
   8.135708e+01  -7.499330e+01
   6.892779e+01  -9.818347e+01
   9.785515e+01  -7.986246e+01
   1.366962e+02   2.289119e+01
   1.243215e+02   1.626892e+02
   3.038160e+01   2.377207e+02
  -1.036121e+02   1.798034e+02
  -1.821846e+02   2.012903e+01
  -1.403014e+02  -1.282224e+02
  -1.814565e+01  -1.658490e+02
   7.130228e+01  -9.300390e+01
   6.172274e+01   3.694222e+00
   1.036216e+00   4.649640e+01
  -1.561145e+01   3.419523e+01
   3.676621e+01   1.621470e+01
   8.563144e+01   2.360432e+01
   4.816186e+01   4.169803e+01
  -7.018411e+01   3.806219e+01
  -1.696712e+02  -9.738157e-01
  -1.490659e+02  -5.765556e+01
  -1.028268e+01  -9.320236e+01
   1.306777e+02  -7.541445e+01
   1.516692e+02  -1.177616e+01
   4.838831e+01   4.499809e+01
  -6.435287e+01   4.115772e+01
  -8.066656e+01  -2.017449e+01
  -1.030372e+01  -7.527946e+01
   5.740649e+01  -6.465964e+01
   6.887193e+01   1.833419e+00
   5.006645e+01   5.512696e+01
   4.670663e+01   4.529704e+01
   6.303356e+01   1.433716e+00
   6.924352e+01   6.978051e-01
   3.872750e+01   7.404782e+01
  -3.425311e+01   1.561367e+02
  -1.258898e+02   1.482219e+02
  -1.773279e+02   3.221354e+01
  -1.310039e+02  -9.818733e+01
  -4.449649e+00  -1.339521e+02
   9.362301e+01  -6.572442e+01
   6.440692e+01   1.501877e+01
  -6.201891e+01   2.139297e+01
  -1.438838e+02  -4.463466e+01
  -7.849206e+01  -1.117521e+02
   8.512799e+01  -1.167447e+02
   1.989903e+02  -5.270415e+01
   1.682159e+02   3.651670e+01
   3.763332e+01   8.966145e+01
  -6.353355e+01   7.083085e+01
  -5.012019e+01   5.479114e+00
   4.178491e+01  -2.921735e+01
   9.636657e+01   2.313069e+01
   3.718356e+01   1.250703e+02
  -9.286025e+01   1.647605e+02
  -1.746653e+02   6.960308e+01
  -1.348301e+02  -1.029955e+02
  -1.360090e+01  -2.072132e+02
   8.824417e+01  -1.512345e+02
   1.090575e+02   8.152148e+00
   6.194003e+01   1.236974e+02
  -4.302962e+00   1.091952e+02
  -4.888465e+01   1.887235e+01
  -5.275704e+01  -3.204239e+01
  -2.503364e+01  -7.307593e+00
  -4.186628e+00   2.051761e+01
  -2.331103e+01  -1.899742e+01
  -5.891672e+01  -9.377781e+01
  -4.227581e+01  -1.122901e+02
   5.120976e+01  -4.539160e+01
   1.450675e+02   4.043653e+01
   1.349867e+02   7.303245e+01
   1.816534e+01   5.332540e+01
  -9.105323e+01   2.551129e+01
  -9.208743e+01   7.871986e+00
  -1.248900e+01  -9.877740e+00
   3.929246e+01  -2.391348e+01
   1.543244e+01  -1.686953e+01
  -2.111598e+01   3.253286e+00
   5.805150e+00   8.179449e+00
   7.683552e+01   1.581660e+00
   9.699315e+01   2.471614e+01
   1.232087e+01   8.667563e+01
  -1.222744e+02   1.229353e+02
  -1.970938e+02   6.326493e+01
  -1.533672e+02  -7.019887e+01
  -2.933560e+01  -1.706393e+02
   8.423933e+01  -1.588193e+02
   1.218654e+02  -6.308919e+01
   8.514506e+01   2.198758e+01
   2.619857e+01   3.815893e+01
  -2.372324e+00   1.117115e+01
   1.101286e+01   6.006379e+00
   3.348640e+01   4.849219e+01
   2.240075e+01   9.413490e+01
  -3.074095e+01   7.533501e+01
  -8.513505e+01  -1.807309e+01
  -8.290702e+01  -1.125092e+02
  -7.517447e+00  -1.190358e+02
   8.586500e+01  -2.847714e+01
   1.107396e+02   7.684064e+01
   3.600555e+01   1.099582e+02
  -7.055131e+01   6.126721e+01
  -1.051855e+02  -1.225779e+01
  -4.178497e+01  -5.620891e+01
   3.639514e+01  -5.683369e+01
   3.543067e+01  -2.852074e+01
  -3.451912e+01   3.202443e+00
  -7.294978e+01   7.831476e+00
  -1.627036e+01  -2.749146e+01
   8.295861e+01  -6.937383e+01
   1.220429e+02  -5.932087e+01
   6.826703e+01   1.503890e+01
  -1.629767e+01   8.816952e+01
  -5.762086e+01   8.367204e+01
  -4.216709e+01   6.629034e+00
  -3.688866e+00  -5.866063e+01
   2.731382e+01  -4.683568e+01
   3.963349e+01   1.714111e+01
   2.849868e+01   5.700775e+01
  -3.471950e+00   3.671035e+01
  -3.543123e+01  -8.053704e+00
  -4.164363e+01  -2.364016e+01
  -2.112079e+01  -2.201398e+00
   7.116229e-01   1.690387e+01
   5.346134e+00  -6.729271e-02
   3.337985e+00  -3.878263e+01
   1.442265e+01  -5.153958e+01
   3.464294e+01  -1.278458e+01
   3.627580e+01   4.620319e+01
   2.106124e+00   6.605061e+01
  -4.652714e+01   2.371861e+01
  -6.205941e+01  -4.053301e+01
  -1.708055e+01  -6.638231e+01
   5.855781e+01  -3.598424e+01
   9.522348e+01   1.582617e+01
   5.221397e+01   4.638468e+01
  -3.098437e+01   4.417959e+01
  -6.933796e+01   2.422494e+01
  -2.708509e+01   4.917418e+00
   3.761313e+01  -5.660960e-01
   3.995767e+01   1.332798e+01
  -2.932448e+01   3.241850e+01
  -9.256917e+01   2.310606e+01
