
 $NMID
 id='ANONYMOUS ', fmtdat='(2E16.6)'
 volume=1.0
 tramp=1.0
 $END
   4.232698e+03   5.985217e+01
   2.465368e+03   2.498160e+03
  -6.343766e+02   2.634800e+03
  -1.962376e+03   9.392209e+02
  -9.220534e+02  -4.906969e+02
   5.502082e+02  -4.708196e+02
   7.829821e+02   4.083085e+02
  -2.764339e+01   9.834823e+02
  -7.848942e+02   7.364974e+02
  -8.919179e+02  -7.828791e+01
  -4.365808e+02  -8.145267e+02
   2.112784e+02  -8.493039e+02
   5.804465e+02  -1.129232e+02
   3.470785e+02   6.847314e+02
  -2.580613e+02   7.182680e+02
  -5.774329e+02  -1.268064e+00
  -2.743136e+02  -6.595732e+02
   2.915664e+02  -6.392852e+02
   5.653305e+02  -1.271541e+02
   4.003748e+02   3.211415e+02
   3.766866e+01   4.266672e+02
  -2.239910e+02   2.605141e+02
  -1.846693e+02   2.272534e+01
   1.426429e+02  -5.276716e+01
   4.000309e+02   1.596803e+02
   1.539364e+02   4.413529e+02
  -4.904845e+02   3.707408e+02
  -8.278682e+02  -1.166090e+02
  -3.868446e+02  -5.376933e+02
   4.060857e+02  -4.331362e+02
   7.207429e+02   7.222986e+01
   3.160411e+02   4.804181e+02
  -2.965228e+02   4.961238e+02
  -5.635562e+02   1.854163e+02
  -4.046420e+02  -2.256225e+02
  -6.612319e+01  -4.530547e+02
   1.748704e+02  -2.617753e+02
   1.243881e+02   2.088466e+02
  -1.895954e+02   3.915507e+02
  -4.146987e+02  -5.957661e+01
  -1.919331e+02  -6.753039e+02
   3.290093e+02  -6.640473e+02
   5.645222e+02   1.250942e+01
   2.246675e+02   5.283265e+02
  -2.807216e+02   2.834700e+02
  -3.494815e+02  -3.340885e+02
   8.807576e+01  -5.322824e+02
   5.520968e+02  -1.175626e+02
   5.866966e+02   4.170554e+02
   1.634948e+02   5.840086e+02
  -3.799882e+02   3.352046e+02
  -6.232652e+02  -8.003801e+01
  -3.708998e+02  -3.693110e+02
   1.432616e+02  -3.409918e+02
   4.224040e+02  -5.492353e+01
   2.347869e+02   1.683105e+02
  -1.002219e+02   8.624975e+01
  -1.230420e+02  -1.415540e+02
   1.627940e+02  -1.628741e+02
   3.316449e+02   7.691542e+01
   1.367104e+02   2.873626e+02
  -2.000363e+02   2.610161e+02
  -3.393195e+02   8.848019e+01
  -2.160357e+02  -8.645711e+01
   2.002430e+01  -2.484316e+02
   2.383697e+02  -3.459598e+02
   3.548799e+02  -2.148003e+02
   2.894225e+02   1.475610e+02
   7.216202e+01   4.336668e+02
  -1.051568e+02   3.776050e+02
  -1.011775e+02   1.230081e+02
  -2.114228e+01   1.257153e+01
  -6.113157e+01   1.003034e+02
  -2.145941e+02   1.220682e+02
  -2.825853e+02  -6.846344e+01
  -1.502799e+02  -2.783228e+02
   8.086432e+01  -2.527584e+02
   2.294260e+02   5.053362e-01
   1.915763e+02   2.507222e+02
  -1.963208e+01   2.958302e+02
  -2.720500e+02   1.087122e+02
  -3.605053e+02  -1.745674e+02
  -1.862622e+02  -3.502993e+02
   9.370313e+01  -3.045150e+02
   2.189679e+02  -1.284355e+02
   1.500966e+02  -2.046320e+01
   1.094620e+02  -4.525484e+01
   2.491472e+02  -6.390120e+01
   4.141277e+02   6.428528e+01
   3.389687e+02   2.936428e+02
  -5.676408e+00   4.529941e+02
  -3.719892e+02   4.213434e+02
  -4.985137e+02   2.009641e+02
  -3.352407e+02  -9.872700e+01
  -4.737155e+01  -2.948487e+02
   1.287791e+02  -2.467711e+02
   6.982561e+01  -2.815327e+01
  -1.178635e+02   9.814981e+01
  -1.906992e+02  -1.562557e+01
  -4.092520e+01  -1.932592e+02
   1.607616e+02  -1.615087e+02
   1.703899e+02   6.432965e+01
  -2.308752e+01   1.870487e+02
  -1.950725e+02   2.594313e+01
  -1.651393e+02  -2.517908e+02
   2.983598e+01  -3.555047e+02
   2.368026e+02  -2.009322e+02
   3.392715e+02   6.157576e+01
   2.856788e+02   2.476086e+02
   9.150710e+01   2.733261e+02
  -1.198712e+02   1.613970e+02
  -1.777848e+02   1.734218e+01
  -5.482026e+01  -3.096151e+01
   6.940267e+01   4.488237e+01
   2.351986e+01   1.280574e+02
  -1.289493e+02   9.632745e+01
  -1.780501e+02  -1.725531e+01
  -5.378200e+01  -7.275481e+01
   8.415668e+01  -1.181310e+01
   5.479341e+01   7.944841e+01
  -1.304571e+02   9.059557e+01
  -2.925808e+02  -2.632792e+00
  -2.696640e+02  -1.481931e+02
  -5.646147e+01  -2.635822e+02
   1.936196e+02  -2.635415e+02
   2.888732e+02  -1.235985e+02
   1.681091e+02   5.334974e+01
  -2.775176e+01   1.070907e+02
  -8.925574e+01   4.745193e+00
   3.821426e+01  -1.014743e+02
   1.998270e+02  -5.595678e+01
   2.142097e+02   1.061237e+02
   6.789721e+01   2.099075e+02
  -9.660664e+01   1.576766e+02
  -1.447969e+02   2.671196e+01
  -6.766355e+01  -4.306695e+01
   3.259939e+01   1.641870e-01
   3.843504e+01   9.002718e+01
  -7.664612e+01   1.179326e+02
  -2.050417e+02   2.820523e+01
  -1.950004e+02  -1.276410e+02
  -2.010140e+01  -2.216664e+02
   1.671403e+02  -1.654372e+02
   1.948869e+02  -6.674971e+00
   6.419425e+01   1.142957e+02
  -6.816774e+01   1.112866e+02
  -8.331735e+01   2.970926e+01
  -1.590002e+01  -2.754997e+01
   2.539906e+01  -1.844714e+01
  -8.466462e+00   1.130960e+01
  -7.453144e+01  -5.320004e+00
  -9.383910e+01  -8.341735e+01
  -1.658848e+01  -1.642777e+02
   1.304769e+02  -1.569838e+02
   2.396431e+02  -2.497862e+01
   2.052376e+02   1.540208e+02
   4.236805e+01   2.405952e+02
  -1.099057e+02   1.715274e+02
  -1.372675e+02   2.854319e+01
  -7.207608e+01  -5.428797e+01
  -2.977044e+01  -3.492373e+01
  -5.458962e+01   1.316777e+01
  -8.258547e+01   7.537192e+00
  -4.602656e+01  -5.074861e+01
   4.086090e+01  -9.276062e+01
   1.066825e+02  -6.047115e+01
   9.169987e+01   3.565900e+01
  -1.234558e+01   1.161067e+02
  -1.472173e+02   9.053536e+01
  -2.034669e+02  -5.268020e+01
  -1.014303e+02  -2.075971e+02
   1.107659e+02  -2.334097e+02
   2.725728e+02  -9.676221e+01
   2.608519e+02   8.805541e+01
   1.101136e+02   1.791205e+02
  -3.980155e+01   1.487263e+02
  -9.528433e+01   8.497060e+01
  -7.880815e+01   7.047745e+01
  -6.582901e+01   9.287350e+01
  -9.291570e+01   7.668142e+01
  -1.308740e+02  -2.090951e+01
  -1.205607e+02  -1.560436e+02
  -3.051118e+01  -2.300283e+02
   1.004066e+02  -1.747995e+02
   1.782642e+02  -1.964186e+01
   1.379300e+02   1.250931e+02
   1.812807e+01   1.625436e+02
  -7.052135e+01   9.272576e+01
  -6.279916e+01  -1.710462e+00
  -4.283248e+00  -4.610673e+01
   1.350375e+01  -3.664245e+01
  -3.470344e+01  -1.786401e+01
  -8.124877e+01  -2.147064e+01
  -4.675452e+01  -3.862918e+01
   6.617768e+01  -3.901903e+01
   1.637609e+02  -3.855097e+00
   1.468196e+02   5.378507e+01
   1.357691e+01   9.286366e+01
  -1.249197e+02   7.662976e+01
  -1.480989e+02   1.274136e+01
  -4.931142e+01  -4.351206e+01
   6.043616e+01  -3.957117e+01
   7.755189e+01   1.859697e+01
   1.079655e+01   6.964347e+01
  -5.382963e+01   5.994546e+01
  -6.503197e+01  -5.021940e-01
  -4.780596e+01  -4.975647e+01
  -4.531939e+01  -4.229765e+01
  -6.106360e+01  -2.434256e+00
  -6.695636e+01  -5.579150e-01
  -3.823825e+01  -6.878359e+01
   3.093413e+01  -1.489247e+02
   1.188865e+02  -1.453971e+02
   1.696699e+02  -3.573289e+01
   1.272224e+02   9.201943e+01
   6.913265e+00   1.296969e+02
  -8.769783e+01   6.489281e+01
  -6.104213e+01  -1.386898e+01
   5.962614e+01  -2.067510e+01
   1.387805e+02   4.332244e+01
   7.636270e+01   1.087240e+02
  -8.214206e+01   1.139340e+02
  -1.936972e+02   5.184275e+01
  -1.644890e+02  -3.542455e+01
  -3.679827e+01  -8.798604e+01
   6.284504e+01  -6.997818e+01
   5.030365e+01  -5.963505e+00
  -3.910351e+01   2.843797e+01
  -9.216219e+01  -2.151596e+01
  -3.528816e+01  -1.189627e+02
   8.911622e+01  -1.563124e+02
   1.667245e+02  -6.510695e+01
   1.282704e+02   9.927254e+01
   1.239351e+01   1.986030e+02
  -8.547809e+01   1.455977e+02
  -1.063192e+02  -7.241295e+00
  -6.116465e+01  -1.201629e+02
   3.797590e+00  -1.081495e+02
   4.795095e+01  -2.007877e+01
   5.168661e+01   3.210977e+01
   2.447634e+01   9.073338e+00
   4.514951e+00  -2.044407e+01
   2.333035e+01   1.560962e+01
   5.741791e+01   8.958477e+01
   4.087830e+01   1.106220e+02
  -4.924729e+01   4.620941e+01
  -1.396500e+02  -3.910869e+01
  -1.305016e+02  -7.157958e+01
  -1.847848e+01  -5.091382e+01
   8.727819e+01  -2.303324e+01
   8.929318e+01  -7.651122e+00
   1.261939e+01   7.713638e+00
  -3.823855e+01   2.231904e+01
  -1.568561e+01   1.787035e+01
   2.019669e+01  -1.582261e+00
  -5.013311e+00  -8.727208e+00
  -7.336319e+01  -3.271287e+00
  -9.288495e+01  -2.319178e+01
  -1.154486e+01  -8.031926e+01
   1.169778e+02  -1.160381e+02
   1.873878e+02  -6.179022e+01
   1.451290e+02   6.493407e+01
   2.789071e+01   1.627502e+02
  -7.907848e+01   1.531573e+02
  -1.151855e+02   6.133670e+01
  -8.147348e+01  -2.095896e+01
  -2.586526e+01  -3.607616e+01
   1.591638e+00  -9.239559e+00
  -1.139173e+01  -4.614223e+00
  -3.342126e+01  -4.695754e+01
  -2.254881e+01  -9.155773e+01
   2.921216e+01  -7.263661e+01
   8.134988e+01   1.788278e+01
   7.849433e+01   1.076576e+02
   6.651306e+00   1.123149e+02
  -8.105859e+01   2.548080e+01
  -1.042228e+02  -7.352730e+01
  -3.443812e+01  -1.037716e+02
   6.575317e+01  -5.804968e+01
   9.982839e+01   1.024320e+01
   4.167671e+01   5.188778e+01
  -3.240453e+01   5.451112e+01
  -3.312397e+01   2.952816e+01
   3.246417e+01  -1.069927e+00
   6.967132e+01  -7.465780e+00
   1.602868e+01   2.543800e+01
  -7.964911e+01   6.693896e+01
  -1.180038e+02   5.917639e+01
  -6.636901e+01  -1.215230e+01
   1.497037e+01  -8.420768e+01
   5.385633e+01  -8.160351e+01
   3.834766e+01  -7.894051e+00
   2.589955e+00   5.531793e+01
  -2.497766e+01   4.430223e+01
  -3.632814e+01  -1.674795e+01
  -2.745490e+01  -5.423472e+01
   1.744320e+00  -3.436600e+01
   3.327552e+01   7.767906e+00
   4.096547e+01   2.173161e+01
   2.115390e+01   1.716831e+00
  -1.844961e+00  -1.515082e+01
  -7.725490e+00   8.154078e-01
  -4.797715e+00   3.526075e+01
  -1.287831e+01   4.562669e+01
  -3.040103e+01   1.028704e+01
  -3.208543e+01  -4.253091e+01
  -1.035550e+00  -6.019267e+01
   4.372797e+01  -2.166285e+01
   5.798157e+01   3.770046e+01
   1.572596e+01   6.273518e+01
  -5.550371e+01   3.514907e+01
  -9.034918e+01  -1.405364e+01
  -5.006604e+01  -4.398298e+01
   2.850021e+01  -4.221248e+01
   6.493899e+01  -2.324738e+01
   2.520494e+01  -5.768912e+00
  -3.547731e+01  -1.658927e+00
  -3.663336e+01  -1.420907e+01
   2.986543e+01  -2.997240e+01
   8.941231e+01  -1.959688e+01
