
 $NMID
 id='ANONYMOUS ', fmtdat='(2E16.6)'
 volume=1.0
 tramp=1.0
 $END
  -4.868552e+03   5.777275e+01
  -2.830382e+03  -2.978646e+03
   9.133715e+02  -3.122323e+03
   2.462766e+03  -9.097011e+02
   1.054115e+03   8.904862e+02
  -8.309447e+02   7.302985e+02
  -1.075506e+03  -5.139472e+02
   2.893831e+00  -1.253132e+03
   9.624789e+02  -8.898140e+02
   1.074396e+03   1.346783e+02
   4.958418e+02   1.001643e+03
  -3.064787e+02   1.013724e+03
  -7.574795e+02   1.202334e+02
  -4.502050e+02  -8.301797e+02
   3.173091e+02  -8.522109e+02
   6.984704e+02   2.040944e+01
   2.911638e+02   7.762510e+02
  -3.941697e+02   6.906250e+02
  -6.608214e+02   6.097622e+01
  -4.104285e+02  -4.204059e+02
   5.678686e+00  -4.901251e+02
   2.849133e+02  -2.902958e+02
   2.599143e+02  -1.183577e+01
  -9.840395e+01   1.248348e+02
  -4.519823e+02  -8.280905e+01
  -2.572043e+02  -4.644827e+02
   4.783815e+02  -4.877278e+02
   9.512643e+02   4.984308e+01
   5.099490e+02   6.169403e+02
  -4.218763e+02   5.767421e+02
  -8.420468e+02  -9.394065e+00
  -4.075380e+02  -5.338211e+02
   3.000509e+02  -5.884535e+02
   6.264302e+02  -2.339810e+02
   4.678925e+02   2.553416e+02
   7.970966e+01   5.435448e+02
  -2.433796e+02   3.337820e+02
  -2.328443e+02  -2.475251e+02
   1.605034e+02  -5.232685e+02
   5.203351e+02  -1.669351e+01
   3.162112e+02   7.569452e+02
  -3.445534e+02   8.089547e+02
  -7.052070e+02   1.862278e+01
  -3.183879e+02  -6.367280e+02
   3.324235e+02  -3.866457e+02
   4.582421e+02   3.469277e+02
  -5.599439e+01   6.157787e+02
  -6.127113e+02   1.669107e+02
  -6.592783e+02  -4.385939e+02
  -1.825096e+02  -6.454916e+02
   4.233379e+02  -3.903422e+02
   6.972154e+02   7.758971e+01
   4.144191e+02   4.387776e+02
  -1.804747e+02   4.258608e+02
  -5.096695e+02   6.161992e+01
  -2.741364e+02  -2.453917e+02
   1.492573e+02  -1.406454e+02
   1.809467e+02   1.821406e+02
  -1.830695e+02   2.321500e+02
  -3.998314e+02  -7.862899e+01
  -1.610986e+02  -3.440096e+02
   2.310307e+02  -2.825062e+02
   3.561556e+02  -6.054318e+01
   1.916583e+02   9.485125e+01
  -3.655625e+01   2.150883e+02
  -2.209773e+02   3.296988e+02
  -3.474543e+02   2.424999e+02
  -3.211428e+02  -1.347968e+02
  -9.679391e+01  -4.797168e+02
   1.363744e+02  -4.310568e+02
   1.564730e+02  -1.144291e+02
   3.332892e+01   3.945113e+01
   2.547934e+01  -7.878070e+01
   1.883423e+02  -1.520378e+02
   3.007443e+02   3.620090e+01
   1.879739e+02   2.853641e+02
  -6.495494e+01   2.876038e+02
  -2.475990e+02   2.734745e+01
  -2.261812e+02  -2.505005e+02
  -2.210229e+00  -3.221421e+02
   2.840241e+02  -1.394974e+02
   3.969112e+02   1.720340e+02
   2.079490e+02   3.846835e+02
  -1.133220e+02   3.405572e+02
  -2.584153e+02   1.263620e+02
  -1.671951e+02  -1.160903e+01
  -9.618129e+01   2.510642e+01
  -2.345836e+02   7.190089e+01
  -4.188414e+02  -5.158690e+01
  -3.540781e+02  -2.970485e+02
  -4.279002e+00  -4.681750e+02
   3.737018e+02  -4.401726e+02
   5.169485e+02  -2.207646e+02
   3.684226e+02   9.274953e+01
   7.040820e+01   3.202321e+02
  -1.426541e+02   2.856030e+02
  -1.049295e+02   3.512293e+01
   1.099274e+02  -1.310210e+02
   2.234435e+02  -6.807313e+00
   6.868278e+01   2.194670e+02
  -1.780062e+02   2.039166e+02
  -2.094394e+02  -6.116488e+01
   1.072630e+01  -2.206245e+02
   2.130542e+02  -4.608355e+01
   1.781629e+02   2.654594e+02
  -3.582066e+01   3.731611e+02
  -2.426088e+02   1.988183e+02
  -3.364768e+02  -6.954604e+01
  -2.906155e+02  -2.456858e+02
  -1.081189e+02  -2.727910e+02
   1.142379e+02  -1.738204e+02
   1.942372e+02  -2.841323e+01
   7.026731e+01   3.722778e+01
  -7.725222e+01  -3.339851e+01
  -4.126325e+01  -1.332074e+02
   1.288372e+02  -1.150782e+02
   1.971379e+02   6.881388e+00
   7.067645e+01   7.972476e+01
  -8.183144e+01   2.546594e+01
  -6.145183e+01  -7.024429e+01
   1.230101e+02  -8.898005e+01
   2.893615e+02  -3.961568e+00
   2.764788e+02   1.380144e+02
   7.206719e+01   2.636703e+02
  -1.853343e+02   2.814460e+02
  -3.015616e+02   1.438424e+02
  -1.901078e+02  -5.330411e+01
   2.162237e+01  -1.249578e+02
   1.031540e+02  -1.502205e+01
  -2.668521e+01   1.120910e+02
  -2.080358e+02   7.191325e+01
  -2.335676e+02  -1.054016e+02
  -7.956810e+01  -2.248973e+02
   9.947013e+01  -1.747917e+02
   1.572215e+02  -3.627625e+01
   8.257233e+01   4.356897e+01
  -2.298564e+01   9.467708e+00
  -4.046285e+01  -7.828786e+01
   6.739124e+01  -1.149871e+02
   2.024602e+02  -3.491401e+01
   2.039520e+02   1.247065e+02
   2.738662e+01   2.318555e+02
  -1.748246e+02   1.789221e+02
  -2.118651e+02   7.532224e+00
  -7.433691e+01  -1.265508e+02
   7.062146e+01  -1.240653e+02
   9.194242e+01  -3.567132e+01
   2.520029e+01   2.653312e+01
  -1.704610e+01   2.156120e+01
   1.173076e+01  -3.011739e+00
   6.939342e+01   1.344171e+01
   8.644562e+01   8.360473e+01
   1.618729e+01   1.596207e+02
  -1.263085e+02   1.583366e+02
  -2.418514e+02   3.261544e+01
  -2.147941e+02  -1.529260e+02
  -4.737459e+01  -2.517834e+02
   1.157770e+02  -1.832815e+02
   1.457061e+02  -2.854936e+01
   7.449353e+01   6.233967e+01
   2.906359e+01   4.028740e+01
   5.548175e+01  -1.199743e+01
   8.117472e+01  -6.090459e+00
   3.885080e+01   5.061548e+01
  -4.611668e+01   8.642339e+01
  -1.014985e+02   5.259355e+01
  -8.202733e+01  -3.543550e+01
   1.376664e+01  -1.088467e+02
   1.409029e+02  -8.742315e+01
   2.024796e+02   4.810722e+01
   1.103650e+02   2.053047e+02
  -1.035870e+02   2.409044e+02
  -2.781905e+02   1.070140e+02
  -2.749085e+02  -8.649451e+01
  -1.202848e+02  -1.870079e+02
   3.902380e+01  -1.579867e+02
   1.008297e+02  -9.067436e+01
   8.635023e+01  -7.381645e+01
   7.283428e+01  -9.497985e+01
   9.769518e+01  -7.626575e+01
   1.335474e+02   2.430944e+01
   1.230611e+02   1.613447e+02
   3.267788e+01   2.368540e+02
  -1.020310e+02   1.826700e+02
  -1.851375e+02   2.549372e+01
  -1.463334e+02  -1.249032e+02
  -2.405308e+01  -1.678898e+02
   6.704927e+01  -1.001927e+02
   6.131567e+01  -5.261666e+00
   7.145222e+00   4.076926e+01
  -6.063418e+00   3.472059e+01
   4.096265e+01   2.041359e+01
   8.161048e+01   2.555479e+01
   4.503291e+01   3.966350e+01
  -6.388247e+01   3.708706e+01
  -1.598671e+02   3.806734e+00
  -1.486548e+02  -4.970037e+01
  -2.044654e+01  -8.866153e+01
   1.216497e+02  -7.694115e+01
   1.511552e+02  -1.680857e+01
   5.146962e+01   3.961643e+01
  -6.328089e+01   3.738270e+01
  -7.874879e+01  -2.014777e+01
  -4.479864e+00  -7.057608e+01
   6.153706e+01  -5.877907e+01
   6.486472e+01   3.794317e+00
   4.204851e+01   5.295392e+01
   4.396239e+01   4.354976e+01
   6.587278e+01   2.157015e+00
   6.943421e+01   4.184071e-01
   3.376857e+01   6.971581e+01
  -3.633179e+01   1.502283e+02
  -1.187852e+02   1.453845e+02
  -1.663874e+02   3.370438e+01
  -1.262037e+02  -9.422350e+01
  -7.920555e+00  -1.292280e+02
   8.812809e+01  -6.153382e+01
   6.210820e+01   1.700437e+01
  -6.203051e+01   2.090368e+01
  -1.449023e+02  -4.553408e+01
  -8.120915e+01  -1.119703e+02
   8.291736e+01  -1.184158e+02
   1.995648e+02  -5.725652e+01
   1.715702e+02   3.244906e+01
   4.135121e+01   9.061201e+01
  -6.199032e+01   7.611558e+01
  -5.090673e+01   1.038891e+01
   4.020240e+01  -2.682945e+01
   9.408672e+01   2.440996e+01
   3.264996e+01   1.251740e+02
  -9.899101e+01   1.613699e+02
  -1.781814e+02   6.334681e+01
  -1.330054e+02  -1.076529e+02
  -9.473918e+00  -2.083246e+02
   9.003460e+01  -1.520648e+02
   1.092781e+02   5.368968e+00
   6.518451e+01   1.221327e+02
   1.953770e+00   1.118148e+02
  -4.584085e+01   2.254254e+01
  -5.636440e+01  -3.183416e+01
  -2.992300e+01  -8.823094e+00
  -3.326837e+00   2.232704e+01
  -1.825249e+01  -1.440874e+01
  -5.757091e+01  -9.210249e+01
  -4.730819e+01  -1.150755e+02
   4.603895e+01  -4.765393e+01
   1.454530e+02   4.174966e+01
   1.381147e+02   7.426269e+01
   1.793715e+01   5.092663e+01
  -9.437691e+01   2.246633e+01
  -9.283843e+01   8.723195e+00
  -9.113366e+00  -6.773369e+00
   4.152251e+01  -2.384659e+01
   1.286332e+01  -2.034276e+01
  -2.445825e+01   1.181915e+00
   7.031155e+00   1.040635e+01
   8.018870e+01   5.314901e+00
   9.515929e+01   2.589728e+01
   4.507624e+00   8.432878e+01
  -1.277043e+02   1.182407e+02
  -1.934857e+02   5.773205e+01
  -1.446706e+02  -7.417902e+01
  -2.444965e+01  -1.703413e+02
   8.281945e+01  -1.543547e+02
   1.189696e+02  -5.827484e+01
   8.417071e+01   2.350733e+01
   2.520475e+01   3.630222e+01
  -5.065464e+00   8.048834e+00
   9.250062e+00   3.120593e+00
   3.506264e+01   4.650289e+01
   2.487517e+01   9.329448e+01
  -3.068542e+01   7.453821e+01
  -8.559471e+01  -2.056799e+01
  -7.942988e+01  -1.155352e+02
  -1.038418e+00  -1.182017e+02
   8.880439e+01  -2.234291e+01
   1.069016e+02   8.256514e+01
   3.045975e+01   1.087188e+02
  -7.088958e+01   5.512256e+01
  -1.003534e+02  -1.454401e+01
  -3.809407e+01  -5.106577e+01
   3.453384e+01  -5.066508e+01
   3.009342e+01  -2.834077e+01
  -3.823715e+01  -8.556741e-01
  -7.272016e+01   6.021910e+00
  -1.422571e+01  -2.576869e+01
   8.304775e+01  -6.860660e+01
   1.186822e+02  -6.188659e+01
   6.384934e+01   1.166551e+01
  -1.767928e+01   8.592726e+01
  -5.429896e+01   8.097549e+01
  -3.658724e+01   2.986394e+00
   2.823281e-01  -5.970044e+01
   2.804160e+01  -4.299665e+01
   3.820113e+01   2.174473e+01
   2.674370e+01   5.659498e+01
  -4.200763e+00   3.220248e+01
  -3.459364e+01  -1.017565e+01
  -4.021714e+01  -2.096680e+01
  -2.112608e+01  -1.200546e-01
  -6.567907e-01   1.319784e+01
   6.426573e+00  -6.509280e+00
   9.870092e+00  -4.013487e+01
   2.255277e+01  -4.510145e+01
   3.614003e+01  -3.923663e+00
   2.872254e+01   5.074773e+01
  -6.891758e+00   6.479476e+01
  -4.824418e+01   1.985133e+01
  -5.711691e+01  -4.354445e+01
  -1.330198e+01  -6.697711e+01
   5.688956e+01  -3.425592e+01
   9.129154e+01   1.819985e+01
   5.029347e+01   4.657749e+01
  -3.065828e+01   4.077864e+01
  -6.789221e+01   1.970438e+01
  -2.397122e+01   3.910028e+00
   4.177578e+01   3.644606e+00
   4.104205e+01   1.913782e+01
  -3.406641e+01   3.457123e+01
  -9.906336e+01   2.034922e+01
