
 $NMID
 id='ANONYMOUS ', fmtdat='(2E16.6)'
 volume=1.0
 tramp=1.0
 $END
   4.758524e+03   3.715044e+01
   2.673643e+03   2.932876e+03
  -9.487344e+02   2.967713e+03
  -2.353351e+03   8.060758e+02
  -9.338113e+02  -8.578550e+02
   8.486717e+02  -6.356124e+02
   1.012756e+03   5.547536e+02
  -5.460528e+01   1.214792e+03
  -9.556150e+02   8.307411e+02
  -1.027341e+03  -1.572659e+02
  -4.498286e+02  -9.752026e+02
   3.190207e+02  -9.619630e+02
   7.289936e+02  -8.371907e+01
   4.094020e+02   8.226902e+02
  -3.273916e+02   8.155898e+02
  -6.711536e+02  -3.839594e+01
  -2.671008e+02  -7.520435e+02
   3.801821e+02  -6.536517e+02
   6.224524e+02  -5.158046e+01
   3.832526e+02   4.001492e+02
  -1.026726e+01   4.646831e+02
  -2.775865e+02   2.714218e+02
  -2.458897e+02  -2.885891e+00
   1.172633e+02  -1.299927e+02
   4.613460e+02   9.368705e+01
   2.458899e+02   4.771354e+02
  -4.933735e+02   4.807151e+02
  -9.424858e+02  -7.073602e+01
  -4.802424e+02  -6.230520e+02
   4.410515e+02  -5.575501e+02
   8.336542e+02   3.201791e+01
   3.877076e+02   5.369844e+02
  -3.086507e+02   5.744777e+02
  -6.187853e+02   2.199379e+02
  -4.507951e+02  -2.569387e+02
  -6.260239e+01  -5.284821e+02
   2.465863e+02  -3.078723e+02
   2.136591e+02   2.645495e+02
  -1.858808e+02   5.133836e+02
  -5.221062e+02  -8.941450e+00
  -2.916580e+02  -7.640196e+02
   3.614554e+02  -7.842313e+02
   6.887605e+02   9.350201e+00
   2.871857e+02   6.355851e+02
  -3.427813e+02   3.631758e+02
  -4.435654e+02  -3.605153e+02
   6.912153e+01  -6.072557e+02
   6.068690e+02  -1.543612e+02
   6.433188e+02   4.367579e+02
   1.725556e+02   6.306905e+02
  -4.199880e+02   3.746086e+02
  -6.805644e+02  -8.391582e+01
  -3.925800e+02  -4.294751e+02
   1.892338e+02  -4.044265e+02
   4.939708e+02  -4.567933e+01
   2.497889e+02   2.402326e+02
  -1.544555e+02   1.231855e+02
  -1.652793e+02  -1.876891e+02
   1.924239e+02  -2.200099e+02
   3.878924e+02   8.821074e+01
   1.471391e+02   3.367932e+02
  -2.251092e+02   2.714551e+02
  -3.399395e+02   6.350606e+01
  -1.896920e+02  -8.268287e+01
   2.196974e+01  -2.102895e+02
   2.084708e+02  -3.335974e+02
   3.450020e+02  -2.438312e+02
   3.184645e+02   1.362938e+02
   8.911778e+01   4.721393e+02
  -1.380156e+02   4.129808e+02
  -1.448008e+02   1.011717e+02
  -1.862473e+01  -3.704500e+01
  -2.094384e+01   8.905254e+01
  -1.924744e+02   1.570253e+02
  -3.030197e+02  -3.785318e+01
  -1.845388e+02  -2.864013e+02
   6.937091e+01  -2.848871e+02
   2.485553e+02  -2.400474e+01
   2.236410e+02   2.512888e+02
  -1.044936e+00   3.199298e+02
  -2.836828e+02   1.361771e+02
  -3.904233e+02  -1.719388e+02
  -1.999762e+02  -3.770758e+02
   1.133027e+02  -3.282258e+02
   2.477625e+02  -1.183077e+02
   1.544878e+02   1.035173e+01
   8.980459e+01  -3.152374e+01
   2.324830e+02  -7.786368e+01
   4.152179e+02   4.572421e+01
   3.507284e+02   2.893264e+02
   7.455790e+00   4.611014e+02
  -3.642460e+02   4.367487e+02
  -5.075900e+02   2.192327e+02
  -3.622526e+02  -9.399875e+01
  -6.604730e+01  -3.172671e+02
   1.442809e+02  -2.760485e+02
   1.013560e+02  -2.643558e+01
  -1.150610e+02   1.299349e+02
  -2.225336e+02   9.078028e-03
  -6.199528e+01  -2.195133e+02
   1.810804e+02  -1.952427e+02
   2.043281e+02   6.704888e+01
  -1.663789e+01   2.173327e+02
  -2.122777e+02   4.250364e+01
  -1.748672e+02  -2.599366e+02
   3.289452e+01  -3.640525e+02
   2.337867e+02  -1.981052e+02
   3.297921e+02   6.107207e+01
   2.897720e+02   2.377325e+02
   1.096619e+02   2.704875e+02
  -1.129476e+02   1.731446e+02
  -1.918297e+02   2.598660e+01
  -6.670548e+01  -3.891157e+01
   7.883382e+01   3.450283e+01
   3.998471e+01   1.343796e+02
  -1.295164e+02   1.137139e+02
  -1.948846e+02  -9.266507e+00
  -6.753566e+01  -8.096644e+01
   8.373729e+01  -2.590136e+01
   6.344968e+01   7.045777e+01
  -1.194668e+02   9.162622e+01
  -2.861375e+02   9.200869e+00
  -2.760526e+02  -1.334174e+02
  -7.401557e+01  -2.618355e+02
   1.825834e+02  -2.803216e+02
   2.979813e+02  -1.414406e+02
   1.858060e+02   5.488836e+01
  -2.431553e+01   1.232278e+02
  -1.026091e+02   1.200054e+01
   2.804275e+01  -1.127145e+02
   2.066114e+02  -7.072207e+01
   2.297911e+02   1.046600e+02
   7.709525e+01   2.213375e+02
  -9.895845e+01   1.712010e+02
  -1.552772e+02   3.426068e+01
  -8.047144e+01  -4.526598e+01
   2.576494e+01  -1.143610e+01
   4.403340e+01   7.770708e+01
  -6.419064e+01   1.167956e+02
  -2.002301e+02   3.791743e+01
  -2.024948e+02  -1.215627e+02
  -2.760431e+01  -2.283151e+02
   1.715307e+02  -1.755895e+02
   2.067561e+02  -6.498835e+00
   7.110678e+01   1.246630e+02
  -7.038967e+01   1.213528e+02
  -9.053913e+01   3.384359e+01
  -2.470077e+01  -2.816995e+01
   1.789121e+01  -2.342197e+01
  -8.999259e+00   2.990737e+00
  -6.666571e+01  -9.960790e+00
  -8.691698e+01  -7.864133e+01
  -1.992777e+01  -1.567715e+02
   1.220173e+02  -1.586844e+02
   2.388024e+02  -3.499618e+01
   2.130941e+02   1.490966e+02
   4.750617e+01   2.468541e+02
  -1.131561e+02   1.794735e+02
  -1.419042e+02   2.832705e+01
  -7.190786e+01  -5.990282e+01
  -2.788084e+01  -3.842872e+01
  -5.389824e+01   1.260522e+01
  -7.935378e+01   7.881352e+00
  -3.966816e+01  -4.714992e+01
   4.167929e+01  -8.481603e+01
   9.712245e+01  -5.544204e+01
   8.204313e+01   3.084029e+01
  -9.595519e+00   1.073711e+02
  -1.365759e+02   9.023220e+01
  -2.009876e+02  -4.386344e+01
  -1.118068e+02  -2.022828e+02
   1.001502e+02  -2.396668e+02
   2.736114e+02  -1.075732e+02
   2.707314e+02   8.404180e+01
   1.184342e+02   1.836171e+02
  -3.810817e+01   1.552707e+02
  -9.850459e+01   8.885459e+01
  -8.378266e+01   7.171639e+01
  -6.986041e+01   9.251285e+01
  -9.411951e+01   7.536369e+01
  -1.304583e+02  -2.198661e+01
  -1.220428e+02  -1.565500e+02
  -3.420604e+01  -2.320589e+02
   9.899340e+01  -1.800840e+02
   1.823625e+02  -2.593416e+01
   1.452284e+02   1.223787e+02
   2.461886e+01   1.655950e+02
  -6.638388e+01   9.985790e+01
  -6.209883e+01   6.038788e+00
  -8.897023e+00  -4.112112e+01
   5.467433e+00  -3.633562e+01
  -3.938568e+01  -2.078356e+01
  -7.948313e+01  -2.343959e+01
  -4.478502e+01  -3.763291e+01
   6.177944e+01  -3.829947e+01
   1.572575e+02  -7.541129e+00
   1.477868e+02   4.706630e+01
   2.215404e+01   8.889340e+01
  -1.185000e+02   7.851192e+01
  -1.489844e+02   1.797569e+01
  -5.208660e+01  -3.891468e+01
   6.068574e+01  -3.724012e+01
   7.717981e+01   1.861168e+01
   5.902937e+00   6.748718e+01
  -5.846660e+01   5.685116e+01
  -6.291380e+01  -2.284028e+00
  -4.184887e+01  -4.948818e+01
  -4.371276e+01  -4.154658e+01
  -6.440430e+01  -2.274486e+00
  -6.803049e+01   1.234237e-01
  -3.449905e+01  -6.662425e+01
   3.297564e+01  -1.466349e+02
   1.141510e+02  -1.448709e+02
   1.625683e+02  -3.702120e+01
   1.250814e+02   8.990107e+01
   1.005603e+01   1.270877e+02
  -8.456290e+01   6.212692e+01
  -6.037358e+01  -1.564537e+01
   6.041969e+01  -2.094835e+01
   1.420039e+02   4.364773e+01
   8.043171e+01   1.095753e+02
  -8.050750e+01   1.171553e+02
  -1.959503e+02   5.768207e+01
  -1.692618e+02  -3.102263e+01
  -4.110500e+01  -8.926281e+01
   6.126127e+01  -7.554168e+01
   5.093840e+01  -1.055480e+01
  -3.850186e+01   2.688961e+01
  -9.190100e+01  -2.261249e+01
  -3.280977e+01  -1.211542e+02
   9.494177e+01  -1.571630e+02
   1.724769e+02  -6.241358e+01
   1.298778e+02   1.039796e+02
   1.058151e+01   2.028522e+02
  -8.712441e+01   1.491591e+02
  -1.076666e+02  -4.321176e+00
  -6.527640e+01  -1.197214e+02
  -2.403212e+00  -1.109991e+02
   4.546022e+01  -2.328590e+01
   5.559013e+01   3.155103e+01
   2.915182e+01   9.610302e+00
   3.478734e+00  -2.214276e+01
   1.891836e+01   1.259141e+01
   5.745730e+01   8.929008e+01
   4.673824e+01   1.135302e+02
  -4.504208e+01   4.832800e+01
  -1.423923e+02  -3.980110e+01
  -1.355854e+02  -7.233586e+01
  -1.854014e+01  -4.956175e+01
   9.155789e+01  -2.186679e+01
   9.101588e+01  -9.146268e+00
   9.609907e+00   5.645022e+00
  -4.049752e+01   2.314216e+01
  -1.317188e+01   2.074236e+01
   2.353839e+01  -4.894803e-01
  -6.472386e+00  -1.049246e+01
  -7.773604e+01  -5.467833e+00
  -9.300081e+01  -2.416305e+01
  -5.413959e+00  -8.054558e+01
   1.230616e+02  -1.153148e+02
   1.874447e+02  -5.877499e+01
   1.409605e+02   6.945460e+01
   2.523972e+01   1.653285e+02
  -7.867165e+01   1.519398e+02
  -1.147080e+02   5.854732e+01
  -8.217344e+01  -2.213113e+01
  -2.537821e+01  -3.502346e+01
   4.229876e+00  -7.172622e+00
  -9.713324e+00  -2.462626e+00
  -3.522426e+01  -4.553753e+01
  -2.539142e+01  -9.166746e+01
   2.922698e+01  -7.318848e+01
   8.335546e+01   1.961792e+01
   7.784691e+01   1.116846e+02
   1.977021e+00   1.140934e+02
  -8.535232e+01   2.169280e+01
  -1.038041e+02  -7.919258e+01
  -3.082056e+01  -1.047819e+02
   6.746417e+01  -5.424978e+01
   9.762951e+01   1.232619e+01
   3.881464e+01   4.861412e+01
  -3.184342e+01   5.011553e+01
  -2.900417e+01   2.925692e+01
   3.657616e+01   1.545748e+00
   7.067930e+01  -6.486795e+00
   1.448084e+01   2.455700e+01
  -8.053341e+01   6.777917e+01
  -1.161509e+02   6.242909e+01
  -6.324998e+01  -9.725391e+00
   1.610456e+01  -8.383696e+01
   5.172364e+01  -8.040391e+01
   3.472975e+01  -4.442878e+00
  -1.638066e-01   5.751167e+01
  -2.619434e+01   4.201184e+01
  -3.641549e+01  -2.077286e+01
  -2.668019e+01  -5.473508e+01
   2.790036e+00  -3.123041e+01
   3.340401e+01   9.542564e+00
   4.012654e+01   1.976179e+01
   2.117572e+01  -1.216447e-01
  -3.096645e-01  -1.247439e+01
  -7.815074e+00   6.371934e+00
  -9.865121e+00   3.783812e+01
  -2.042091e+01   4.216869e+01
  -3.326177e+01   3.491998e+00
  -2.719374e+01  -4.776628e+01
   6.202339e+00  -6.127275e+01
   4.618122e+01  -1.928767e+01
   5.537531e+01   4.105997e+01
   1.330346e+01   6.455359e+01
  -5.492767e+01   3.433646e+01
  -8.879890e+01  -1.619700e+01
  -4.949524e+01  -4.471781e+01
   2.884446e+01  -4.012931e+01
   6.515303e+01  -2.004206e+01
   2.308625e+01  -4.737207e+00
  -4.003999e+01  -4.357684e+00
  -3.896647e+01  -1.884034e+01
   3.372540e+01  -3.304648e+01
   9.633306e+01  -1.908260e+01
