
 $NMID
 id='ANONYMOUS ', fmtdat='(2E16.6)'
 volume=1.0
 tramp=1.0
 $END
  -4.334489e+03   8.193342e+01
  -2.603356e+03  -2.561293e+03
   6.583292e+02  -2.790645e+03
   2.110920e+03  -9.690838e+02
   1.007509e+03   6.221772e+02
  -6.087919e+02   6.060817e+02
  -8.940623e+02  -3.941074e+02
  -2.391240e+01  -1.058441e+03
   8.096746e+02  -8.014960e+02
   9.462739e+02   7.242831e+01
   4.740062e+02   8.564170e+02
  -2.198211e+02   9.033925e+02
  -6.336049e+02   1.386896e+02
  -3.996274e+02  -7.065455e+02
   2.544848e+02  -7.583433e+02
   6.112099e+02  -8.543121e+00
   2.888346e+02   6.836657e+02
  -3.177965e+02   6.543174e+02
  -5.965576e+02   1.089091e+02
  -4.057589e+02  -3.509261e+02
  -2.729766e+01  -4.454642e+02
   2.376598e+02  -2.731145e+02
   2.115403e+02  -2.883753e+01
  -1.080265e+02   7.376687e+01
  -3.955317e+02  -1.148092e+02
  -1.944407e+02  -4.199487e+02
   4.510067e+02  -4.038739e+02
   8.402343e+02   6.714958e+01
   4.362748e+02   5.338337e+02
  -3.771023e+02   4.798401e+02
  -7.366302e+02  -2.602019e+01
  -3.507508e+02  -4.725472e+02
   2.744016e+02  -5.175611e+02
   5.632609e+02  -2.079733e+02
   4.213589e+02   2.212513e+02
   8.276406e+01   4.733297e+02
  -1.867399e+02   2.932818e+02
  -1.710550e+02  -2.010282e+02
   1.510655e+02  -4.281322e+02
   4.324485e+02   9.960287e+00
   2.486028e+02   6.670951e+02
  -3.028881e+02   7.035115e+02
  -5.989992e+02   2.181801e+01
  -2.720016e+02  -5.412312e+02
   2.770741e+02  -3.243634e+02
   3.841956e+02   3.116442e+02
  -5.970208e+01   5.436505e+02
  -5.509723e+02   1.424442e+02
  -5.993413e+02  -4.016443e+02
  -1.741921e+02  -5.870392e+02
   3.771376e+02  -3.527105e+02
   6.322143e+02   6.603286e+01
   3.864691e+02   3.796511e+02
  -1.412930e+02   3.702931e+02
  -4.434437e+02   6.863149e+01
  -2.549416e+02  -1.890732e+02
   1.088920e+02  -1.135192e+02
   1.490894e+02   1.448073e+02
  -1.551311e+02   1.890555e+02
  -3.488519e+02  -6.499980e+01
  -1.504855e+02  -2.976396e+02
   2.033315e+02  -2.654717e+02
   3.393208e+02  -7.565389e+01
   1.995671e+02   9.133437e+01
  -3.206746e+01   2.285404e+02
  -2.262797e+02   3.240141e+02
  -3.357281e+02   2.170254e+02
  -2.903989e+02  -1.328261e+02
  -8.624867e+01  -4.343125e+02
   1.070268e+02  -3.916664e+02
   1.224420e+02  -1.236913e+02
   3.373860e+01   7.721249e+00
   4.776136e+01  -8.211101e+01
   1.918194e+02  -1.257743e+02
   2.752369e+02   5.041779e+01
   1.613489e+02   2.661183e+02
  -6.652687e+01   2.559543e+02
  -2.247570e+02   1.349041e+01
  -1.988561e+02  -2.370112e+02
   6.359732e+00  -2.931878e+02
   2.631159e+02  -1.191124e+02
   3.625525e+02   1.626040e+02
   1.935557e+02   3.496552e+02
  -9.369804e+01   3.120074e+02
  -2.285578e+02   1.288834e+02
  -1.571947e+02   8.715116e+00
  -1.034385e+02   3.294144e+01
  -2.334014e+02   6.218746e+01
  -3.997438e+02  -5.697629e+01
  -3.335219e+02  -2.833847e+02
  -3.782297e-02  -4.422163e+02
   3.579378e+02  -4.141796e+02
   4.864532e+02  -2.041129e+02
   3.364375e+02   8.837668e+01
   5.870051e+01   2.918166e+02
  -1.245997e+02   2.564241e+02
  -8.106208e+01   3.547435e+01
   1.055468e+02  -1.069966e+02
   1.942662e+02   9.900938e-01
   5.480926e+01   1.932971e+02
  -1.561348e+02   1.760386e+02
  -1.802144e+02  -5.503333e+01
   1.226454e+01  -1.926592e+02
   1.927781e+02  -3.585771e+01
   1.664968e+02   2.471883e+02
  -2.934011e+01   3.515630e+02
  -2.318975e+02   1.935323e+02
  -3.275829e+02  -6.400787e+01
  -2.770747e+02  -2.381854e+02
  -9.460099e+01  -2.613172e+02
   1.118155e+02  -1.598900e+02
   1.768546e+02  -2.356103e+01
   6.031082e+01   3.020730e+01
  -6.838884e+01  -3.746583e+01
  -3.064602e+01  -1.230730e+02
   1.217431e+02  -1.005456e+02
   1.782429e+02   9.726174e+00
   5.992851e+01   7.063052e+01
  -7.817320e+01   1.655345e+01
  -5.406361e+01  -7.195317e+01
   1.233324e+02  -8.534166e+01
   2.801546e+02   9.621648e-01
   2.613190e+02   1.383981e+02
   6.045757e+01   2.522466e+02
  -1.812952e+02   2.602346e+02
  -2.813563e+02   1.291584e+02
  -1.714049e+02  -4.841603e+01
   2.166653e+01  -1.098526e+02
   9.039147e+01  -1.086352e+01
  -3.064444e+01   1.005246e+02
  -1.940145e+02   6.154235e+01
  -2.145940e+02  -9.961861e+01
  -7.232877e+01  -2.072852e+02
   9.215072e+01  -1.596499e+02
   1.435743e+02  -3.142013e+01
   7.155236e+01   3.960342e+01
  -2.594585e+01   2.275613e+00
  -3.590791e+01  -8.180262e+01
   7.088384e+01  -1.110231e+02
   1.959369e+02  -2.916609e+01
   1.912980e+02   1.210704e+02
   2.355643e+01   2.172174e+02
  -1.628691e+02   1.662268e+02
  -1.951756e+02   9.036356e+00
  -6.790126e+01  -1.140428e+02
   6.509393e+01  -1.130396e+02
   8.319085e+01  -3.235086e+01
   1.901708e+01   2.475024e+01
  -2.058921e+01   1.774066e+01
   1.087380e+01  -7.950218e+00
   7.109664e+01   9.510669e+00
   8.737079e+01   8.201398e+01
   1.474307e+01   1.567984e+02
  -1.244047e+02   1.512097e+02
  -2.311989e+02   2.711409e+01
  -2.016667e+02  -1.472419e+02
  -4.422167e+01  -2.363244e+02
   1.071270e+02  -1.712297e+02
   1.361489e+02  -2.858405e+01
   7.175939e+01   5.557306e+01
   2.921994e+01   3.614606e+01
   5.330444e+01  -1.224331e+01
   7.940864e+01  -6.263497e+00
   4.131316e+01   5.018852e+01
  -4.286578e+01   8.766667e+01
  -1.022372e+02   5.404526e+01
  -8.439690e+01  -3.607650e+01
   1.392513e+01  -1.092870e+02
   1.402267e+02  -8.479855e+01
   1.952344e+02   4.958236e+01
   1.008493e+02   1.983415e+02
  -1.033181e+02   2.271506e+02
  -2.641750e+02   9.799041e+01
  -2.573305e+02  -8.276180e+01
  -1.114211e+02  -1.749195e+02
   3.699066e+01  -1.472805e+02
   9.362743e+01  -8.509601e+01
   7.889035e+01  -7.046436e+01
   6.637753e+01  -9.152220e+01
   9.196589e+01  -7.441917e+01
   1.279902e+02   2.148975e+01
   1.179500e+02   1.527868e+02
   3.092138e+01   2.247180e+02
  -9.679916e+01   1.721192e+02
  -1.741436e+02   2.209006e+01
  -1.363946e+02  -1.197128e+02
  -2.045385e+01  -1.583092e+02
   6.568614e+01  -9.195668e+01
   5.892229e+01  -8.840163e-01
   4.385443e+00   4.185389e+01
  -1.031861e+01   3.337891e+01
   3.648934e+01   1.740884e+01
   7.920795e+01   2.256877e+01
   4.450653e+01   3.811435e+01
  -6.334241e+01   3.636076e+01
  -1.565335e+02   2.715361e+00
  -1.417838e+02  -5.027919e+01
  -1.510706e+01  -8.687077e+01
   1.193944e+02  -7.333105e+01
   1.436838e+02  -1.414767e+01
   4.780833e+01   4.016424e+01
  -5.998694e+01   3.761020e+01
  -7.559397e+01  -1.859516e+01
  -7.775385e+00  -6.866477e+01
   5.552394e+01  -5.849434e+01
   6.324934e+01   2.035054e+00
   4.415141e+01   5.040236e+01
   4.329892e+01   4.168723e+01
   6.092908e+01   1.616016e+00
   6.567170e+01   2.425495e-01
   3.504939e+01   6.760562e+01
  -3.226228e+01   1.451416e+02
  -1.150999e+02   1.401176e+02
  -1.628801e+02   3.275534e+01
  -1.225707e+02  -9.023472e+01
  -6.727301e+00  -1.249093e+02
   8.554707e+01  -6.113146e+01
   5.985643e+01   1.467434e+01
  -5.859659e+01   2.030452e+01
  -1.368278e+02  -4.211184e+01
  -7.603209e+01  -1.057611e+02
   7.920173e+01  -1.118334e+02
   1.887695e+02  -5.280967e+01
   1.612556e+02   3.222510e+01
   3.765160e+01   8.543135e+01
  -5.952436e+01   6.986401e+01
  -4.814612e+01   7.588208e+00
   3.853979e+01  -2.687458e+01
   9.021223e+01   2.189381e+01
   3.368347e+01   1.179737e+02
  -8.974425e+01   1.544174e+02
  -1.662184e+02   6.356438e+01
  -1.269437e+02  -9.891476e+01
  -1.182833e+01  -1.963410e+02
   8.376234e+01  -1.438290e+02
   1.035970e+02   5.986666e+00
   6.078266e+01   1.163700e+02
  -9.332584e-01   1.050559e+02
  -4.508202e+01   1.997740e+01
  -5.175141e+01  -3.027367e+01
  -2.585222e+01  -7.854723e+00
  -3.613476e+00   2.033192e+01
  -2.018372e+01  -1.542622e+01
  -5.570502e+01  -8.767069e+01
  -4.261236e+01  -1.077678e+02
   4.609533e+01  -4.460983e+01
   1.376116e+02   3.827424e+01
   1.294658e+02   6.934277e+01
   1.750442e+01   4.930030e+01
  -8.739221e+01   2.292643e+01
  -8.756002e+01   8.191872e+00
  -1.055594e+01  -7.637726e+00
   3.810904e+01  -2.262221e+01
   1.361944e+01  -1.780964e+01
  -2.135110e+01   1.986505e+00
   5.929204e+00   8.822711e+00
   7.401317e+01   3.104142e+00
   9.102281e+01   2.337990e+01
   8.657716e+00   8.037518e+01
  -1.173642e+02   1.144025e+02
  -1.842887e+02   5.850936e+01
  -1.412689e+02  -6.697250e+01
  -2.632201e+01  -1.609454e+02
   7.808951e+01  -1.488136e+02
   1.134382e+02  -5.828753e+01
   8.015976e+01   2.106532e+01
   2.465549e+01   3.509630e+01
  -3.197164e+00   8.969186e+00
   9.860227e+00   4.195541e+00
   3.278190e+01   4.497439e+01
   2.281233e+01   8.882755e+01
  -2.869155e+01   7.110528e+01
  -8.071556e+01  -1.790757e+01
  -7.718923e+01  -1.072876e+02
  -4.750084e+00  -1.118220e+02
   8.206718e+01  -2.433210e+01
   1.030243e+02   7.459659e+01
   3.213803e+01   1.029848e+02
  -6.623760e+01   5.549545e+01
  -9.727826e+01  -1.183358e+01
  -3.850248e+01  -5.042444e+01
   3.291329e+01  -5.129633e+01
   3.097621e+01  -2.746596e+01
  -3.406855e+01   1.064808e+00
  -6.880001e+01   6.928237e+00
  -1.471975e+01  -2.502442e+01
   7.822680e+01  -6.569383e+01
   1.139474e+02  -5.811677e+01
   6.293539e+01   1.208067e+01
  -1.550958e+01   8.243069e+01
  -5.247907e+01   7.848908e+01
  -3.708854e+01   5.207931e+00
  -1.865861e+00  -5.571021e+01
   2.570786e+01  -4.266326e+01
   3.661415e+01   1.804867e+01
   2.646448e+01   5.353528e+01
  -3.130215e+00   3.266662e+01
  -3.304673e+01  -8.375477e+00
  -3.907757e+01  -2.087808e+01
  -2.016105e+01  -1.043451e+00
   3.940326e-01   1.421381e+01
   6.022049e+00  -2.943894e+00
   6.064349e+00  -3.687638e+01
   1.666533e+01  -4.533806e+01
   3.278262e+01  -8.111059e+00
   3.077830e+01   4.510833e+01
  -1.723670e+00   6.130286e+01
  -4.444991e+01   2.077524e+01
  -5.646688e+01  -3.911742e+01
  -1.469952e+01  -6.277360e+01
   5.439988e+01  -3.366221e+01
   8.826550e+01   1.536132e+01
   4.875251e+01   4.363664e+01
  -2.874658e+01   4.044077e+01
  -6.455696e+01   2.128724e+01
  -2.413118e+01   4.542439e+00
   3.720113e+01   1.519573e+00
   3.796335e+01   1.516939e+01
  -2.993951e+01   3.145987e+01
  -9.030365e+01   2.055661e+01
