
 $NMID
 id='ANONYMOUS ', fmtdat='(2E16.6)'
 volume=1.0
 tramp=1.0
 $END
   4.138151e+03   6.450643e+01
   2.417512e+03   2.420940e+03
  -5.877391e+02   2.564586e+03
  -1.887244e+03   9.468231e+02
  -9.032244e+02  -4.321465e+02
   5.094620e+02  -4.354534e+02
   7.423309e+02   3.911204e+02
  -2.849072e+01   9.447113e+02
  -7.571114e+02   7.161568e+02
  -8.653901e+02  -6.800424e+01
  -4.298048e+02  -7.861342e+02
   1.955148e+02  -8.256799e+02
   5.547105e+02  -1.131952e+02
   3.340658e+02   6.626215e+02
  -2.475292e+02   6.992498e+02
  -5.597357e+02   2.905307e+00
  -2.733008e+02  -6.415871e+02
   2.751202e+02  -6.318538e+02
   5.507544e+02  -1.376069e+02
   3.991325e+02   3.057496e+02
   4.475322e+01   4.170325e+02
  -2.144852e+02   2.565435e+02
  -1.738902e+02   2.463670e+01
   1.484501e+02  -4.319022e+01
   3.927443e+02   1.689376e+02
   1.406661e+02   4.371025e+02
  -4.904081e+02   3.553997e+02
  -8.098655e+02  -1.233886e+02
  -3.706595e+02  -5.248808e+02
   4.021476e+02  -4.137369e+02
   7.030741e+02   7.884790e+01
   3.042046e+02   4.714379e+02
  -2.942171e+02   4.834003e+02
  -5.534566e+02   1.799564e+02
  -3.958509e+02  -2.200468e+02
  -6.534025e+01  -4.396276e+02
   1.644448e+02  -2.518187e+02
   1.097586e+02   2.029263e+02
  -1.923227e+02   3.732895e+02
  -3.996816e+02  -6.893859e+01
  -1.763050e+02  -6.624978e+02
   3.245664e+02  -6.438620e+02
   5.442249e+02   1.532260e+01
   2.127487e+02   5.119368e+02
  -2.724161e+02   2.694983e+02
  -3.348295e+02  -3.308783e+02
   9.091977e+01  -5.201581e+02
   5.425257e+02  -1.120767e+02
   5.768781e+02   4.117760e+02
   1.622139e+02   5.740955e+02
  -3.724646e+02   3.280799e+02
  -6.122499e+02  -7.852733e+01
  -3.652588e+02  -3.580805e+02
   1.369974e+02  -3.290727e+02
   4.094974e+02  -5.502605e+01
   2.293570e+02   1.567509e+02
  -9.309720e+01   7.882440e+01
  -1.152005e+02  -1.354254e+02
   1.593340e+02  -1.534815e+02
   3.218960e+02   7.567228e+01
   1.338789e+02   2.786940e+02
  -1.946929e+02   2.581563e+02
  -3.361411e+02   9.315442e+01
  -2.192846e+02  -8.449969e+01
   1.694863e+01  -2.526632e+02
   2.393556e+02  -3.483422e+02
   3.547277e+02  -2.116535e+02
   2.850026e+02   1.482791e+02
   6.984014e+01   4.264062e+02
  -9.964075e+01   3.698618e+02
  -9.300512e+01   1.242158e+02
  -1.932544e+01   1.978337e+01
  -6.563884e+01   1.033293e+02
  -2.175464e+02   1.183782e+02
  -2.798443e+02  -7.200996e+01
  -1.456208e+02  -2.764979e+02
   8.223755e+01  -2.477784e+02
   2.265694e+02   3.709450e+00
   1.872041e+02   2.498232e+02
  -2.179167e+01   2.917873e+02
  -2.696663e+02   1.050524e+02
  -3.553862e+02  -1.736274e+02
  -1.839303e+02  -3.444548e+02
   8.999904e+01  -2.992787e+02
   2.127811e+02  -1.290955e+02
   1.473881e+02  -2.527354e+01
   1.109598e+02  -4.829552e+01
   2.505698e+02  -6.342859e+01
   4.129901e+02   6.473951e+01
   3.371647e+02   2.917217e+02
  -5.749028e+00   4.501732e+02
  -3.699378e+02   4.191176e+02
  -4.945814e+02   1.993163e+02
  -3.303934e+02  -9.845792e+01
  -4.493398e+01  -2.907432e+02
   1.259806e+02  -2.413536e+02
   6.478749e+01  -2.730408e+01
  -1.185191e+02   9.379685e+01
  -1.859314e+02  -1.818537e+01
  -3.755119e+01  -1.892328e+02
   1.576957e+02  -1.558274e+02
   1.649029e+02   6.421332e+01
  -2.425526e+01   1.821818e+02
  -1.922137e+02   2.366122e+01
  -1.637787e+02  -2.490221e+02
   2.795177e+01  -3.525547e+02
   2.350233e+02  -2.015691e+02
   3.392629e+02   5.938720e+01
   2.852415e+02   2.466420e+02
   8.985232e+01   2.727011e+02
  -1.199979e+02   1.597666e+02
  -1.751799e+02   1.627912e+01
  -5.267764e+01  -2.990424e+01
   6.834675e+01   4.620260e+01
   2.139440e+01   1.270865e+02
  -1.284942e+02   9.395079e+01
  -1.751802e+02  -1.816700e+01
  -5.156131e+01  -7.153568e+01
   8.432021e+01  -1.015395e+01
   5.402361e+01   8.043721e+01
  -1.310050e+02   9.105478e+01
  -2.925552e+02  -2.688597e+00
  -2.687159e+02  -1.485806e+02
  -5.497490e+01  -2.629875e+02
   1.937011e+02  -2.612010e+02
   2.863072e+02  -1.214180e+02
   1.649457e+02   5.280706e+01
  -2.826366e+01   1.045325e+02
  -8.718624e+01   3.559539e+00
   3.946227e+01  -9.996360e+01
   1.982183e+02  -5.422839e+01
   2.114881e+02   1.054502e+02
   6.676207e+01   2.073058e+02
  -9.561468e+01   1.553268e+02
  -1.427744e+02   2.575078e+01
  -6.561587e+01  -4.274800e+01
   3.388518e+01   1.388583e+00
   3.836569e+01   9.139045e+01
  -7.745238e+01   1.183766e+02
  -2.049842e+02   2.782827e+01
  -1.938131e+02  -1.272807e+02
  -1.969118e+01  -2.198414e+02
   1.653385e+02  -1.637745e+02
   1.921998e+02  -7.089355e+00
   6.300286e+01   1.122393e+02
  -6.740872e+01   1.095310e+02
  -8.190870e+01   2.906726e+01
  -1.466990e+01  -2.760974e+01
   2.646101e+01  -1.806982e+01
  -7.958875e+00   1.245764e+01
  -7.512314e+01  -3.967442e+00
  -9.494580e+01  -8.297253e+01
  -1.709741e+01  -1.645997e+02
   1.303832e+02  -1.569189e+02
   2.388770e+02  -2.457328e+01
   2.040239e+02   1.533336e+02
   4.228922e+01   2.385336e+02
  -1.084297e+02   1.699301e+02
  -1.357913e+02   2.888222e+01
  -7.177002e+01  -5.287988e+01
  -2.991335e+01  -3.403783e+01
  -5.433623e+01   1.346452e+01
  -8.261968e+01   7.965245e+00
  -4.708839e+01  -5.054096e+01
   3.979101e+01  -9.359399e+01
   1.070370e+02  -6.177386e+01
   9.298719e+01   3.535371e+01
  -1.178406e+01   1.169508e+02
  -1.475793e+02   9.124858e+01
  -2.034234e+02  -5.263428e+01
  -1.006313e+02  -2.072861e+02
   1.109069e+02  -2.323161e+02
   2.710764e+02  -9.596772e+01
   2.587339e+02   8.738651e+01
   1.090348e+02   1.774269e+02
  -3.942343e+01   1.473163e+02
  -9.412096e+01   8.431083e+01
  -7.743546e+01   7.011834e+01
  -6.448574e+01   9.261053e+01
  -9.187876e+01   7.687477e+01
  -1.303438e+02  -2.002951e+01
  -1.204605e+02  -1.547063e+02
  -3.081892e+01  -2.286178e+02
   9.951893e+01  -1.737108e+02
   1.769689e+02  -1.930871e+01
   1.369025e+02   1.245223e+02
   1.774365e+01   1.614898e+02
  -7.062436e+01   9.174863e+01
  -6.291306e+01  -2.487161e+00
  -4.020619e+00  -4.675846e+01
   1.440073e+01  -3.689503e+01
  -3.382988e+01  -1.738917e+01
  -8.112118e+01  -2.063608e+01
  -4.702528e+01  -3.828478e+01
   6.626960e+01  -3.941540e+01
   1.640156e+02  -4.334027e+00
   1.464829e+02   5.383721e+01
   1.287925e+01   9.325881e+01
  -1.249426e+02   7.682499e+01
  -1.473988e+02   1.258343e+01
  -4.906201e+01  -4.383776e+01
   5.982571e+01  -3.997931e+01
   7.730977e+01   1.812883e+01
   1.185164e+01   6.936024e+01
  -5.250069e+01   6.015367e+01
  -6.494462e+01   1.418270e-01
  -4.866209e+01  -4.908694e+01
  -4.555253e+01  -4.192166e+01
  -6.030528e+01  -2.297489e+00
  -6.650469e+01  -3.854033e-01
  -3.899015e+01  -6.842461e+01
   2.970765e+01  -1.485805e+02
   1.182823e+02  -1.455017e+02
   1.697358e+02  -3.644878e+01
   1.274156e+02   9.119272e+01
   7.138617e+00   1.295275e+02
  -8.730094e+01   6.550238e+01
  -6.082992e+01  -1.323743e+01
   5.913544e+01  -2.077892e+01
   1.378272e+02   4.255059e+01
   7.587729e+01   1.078798e+02
  -8.157413e+01   1.133625e+02
  -1.924215e+02   5.156253e+01
  -1.633438e+02  -3.530906e+01
  -3.635981e+01  -8.737612e+01
   6.266351e+01  -6.919714e+01
   5.012484e+01  -5.487197e+00
  -3.880256e+01   2.872481e+01
  -9.180215e+01  -2.081601e+01
  -3.593093e+01  -1.178019e+02
   8.715778e+01  -1.556005e+02
   1.646746e+02  -6.571092e+01
   1.276807e+02   9.758445e+01
   1.333951e+01   1.968911e+02
  -8.429303e+01   1.447046e+02
  -1.057572e+02  -7.183681e+00
  -6.085329e+01  -1.195190e+02
   4.277059e+00  -1.074815e+02
   4.810762e+01  -1.984642e+01
   5.104790e+01   3.195049e+01
   2.370990e+01   9.028480e+00
   4.614639e+00  -2.016451e+01
   2.403965e+01   1.567601e+01
   5.755774e+01   8.892222e+01
   4.023714e+01   1.097125e+02
  -4.947666e+01   4.607952e+01
  -1.387266e+02  -3.828164e+01
  -1.294373e+02  -7.072143e+01
  -1.866993e+01  -5.077338e+01
   8.608535e+01  -2.331748e+01
   8.863433e+01  -7.744569e+00
   1.310618e+01   7.790009e+00
  -3.765865e+01   2.217775e+01
  -1.600063e+01   1.754792e+01
   1.956944e+01  -1.688318e+00
  -4.749516e+00  -8.468665e+00
  -7.230559e+01  -2.779343e+00
  -9.248047e+01  -2.251341e+01
  -1.272548e+01  -7.959025e+01
   1.149686e+02  -1.158670e+02
   1.860506e+02  -6.278332e+01
   1.451283e+02   6.312859e+01
   2.878176e+01   1.613466e+02
  -7.798854e+01   1.529620e+02
  -1.142903e+02   6.198670e+01
  -8.102325e+01  -2.033953e+01
  -2.601770e+01  -3.590938e+01
   1.080982e+00  -9.389164e+00
  -1.168378e+01  -4.777356e+00
  -3.327550e+01  -4.684759e+01
  -2.245298e+01  -9.110330e+01
   2.875217e+01  -7.233613e+01
   8.067702e+01   1.725176e+01
   7.853700e+01   1.061646e+02
   7.733673e+00   1.112893e+02
  -7.977655e+01   2.609733e+01
  -1.038818e+02  -7.185831e+01
  -3.522496e+01  -1.028115e+02
   6.476297e+01  -5.854183e+01
   9.961464e+01   9.343780e+00
   4.225356e+01   5.179027e+01
  -3.189423e+01   5.504313e+01
  -3.340070e+01   2.974264e+01
   3.160744e+01  -1.421231e+00
   6.911116e+01  -7.850864e+00
   1.632435e+01   2.530154e+01
  -7.885562e+01   6.682395e+01
  -1.175461e+02   5.904452e+01
  -6.664262e+01  -1.200425e+01
   1.432962e+01  -8.387044e+01
   5.346881e+01  -8.171013e+01
   3.849847e+01  -8.671948e+00
   3.137311e+00   5.460979e+01
  -2.438317e+01   4.447766e+01
  -3.605163e+01  -1.592700e+01
  -2.766173e+01  -5.373832e+01
   1.300057e+00  -3.460991e+01
   3.305781e+01   7.327673e+00
   4.106463e+01   2.168170e+01
   2.112949e+01   1.873283e+00
  -2.233653e+00  -1.538711e+01
  -7.896508e+00   5.145195e-02
  -3.992829e+00   3.453677e+01
  -1.138787e+01   4.564923e+01
  -2.952045e+01   1.123011e+01
  -3.261000e+01  -4.122839e+01
  -2.297600e+00  -5.944459e+01
   4.296667e+01  -2.199831e+01
   5.810689e+01   3.666175e+01
   1.621122e+01   6.199666e+01
  -5.511732e+01   3.537308e+01
  -9.010473e+01  -1.319718e+01
  -5.007572e+01  -4.340691e+01
   2.803089e+01  -4.242037e+01
   6.435171e+01  -2.388263e+01
   2.531459e+01  -6.090533e+00
  -3.455081e+01  -1.286698e+00
  -3.599880e+01  -1.340387e+01
   2.915427e+01  -2.936882e+01
   8.787489e+01  -1.970773e+01
