
 $NMID
 id='ANONYMOUS ', fmtdat='(2E16.6)'
 volume=1.0
 tramp=1.0
 $END
  -3.376739e+03   6.111694e+01
  -2.225562e+03  -1.759480e+03
   8.435121e+01  -2.177889e+03
   1.391311e+03  -1.203604e+03
   9.721793e+02  -4.098952e+01
  -7.704383e+01   3.045693e+02
  -4.795525e+02  -1.328343e+02
  -7.242589e+01  -6.409486e+02
   4.985041e+02  -6.305884e+02
   6.982352e+02  -7.148791e+01
   4.494062e+02   5.626719e+02
  -2.356878e+01   6.962014e+02
  -3.641687e+02   1.897356e+02
  -2.880148e+02  -4.565400e+02
   1.268321e+02  -5.810078e+02
   4.399488e+02  -7.632366e+01
   3.026368e+02   5.127368e+02
  -1.533553e+02   6.244305e+02
  -4.878149e+02   2.454749e+02
  -4.338443e+02  -2.043968e+02
  -1.147265e+02  -3.733104e+02
   1.391520e+02  -2.522712e+02
   1.005371e+02  -7.363876e+01
  -1.546350e+02  -6.152289e+01
  -2.881140e+02  -2.297362e+02
  -3.285845e+01  -3.557547e+02
   4.436570e+02  -2.106530e+02
   6.344677e+02   1.446503e+02
   2.698128e+02   3.789270e+02
  -3.132209e+02   2.586529e+02
  -5.339142e+02  -9.463481e+01
  -2.238517e+02  -3.689787e+02
   2.494775e+02  -3.776813e+02
   4.614031e+02  -1.486426e+02
   3.378801e+02   1.623016e+02
   8.997945e+01   3.359231e+02
  -5.760638e+01   2.087984e+02
  -1.156817e+01  -1.029788e+02
   1.574641e+02  -2.112275e+02
   2.415782e+02   9.974765e+01
   7.317279e+01   5.074185e+02
  -2.416828e+02   4.878740e+02
  -3.751741e+02   1.684866e+01
  -1.604683e+02  -3.478103e+02
   1.655109e+02  -1.813558e+02
   2.170469e+02   2.630043e+02
  -9.077493e+01   4.088110e+02
  -4.506940e+02   7.937955e+01
  -4.983574e+02  -3.609329e+02
  -1.607261e+02  -4.995119e+02
   3.022351e+02  -2.827152e+02
   5.273305e+02   5.511145e+01
   3.469168e+02   2.680105e+02
  -5.800079e+01   2.551976e+02
  -3.129681e+02   8.594471e+01
  -2.257964e+02  -5.871584e+01
   1.251718e+01  -4.630807e+01
   7.291552e+01   6.243834e+01
  -1.021471e+02   8.697597e+01
  -2.472508e+02  -4.352965e+01
  -1.319500e+02  -2.072666e+02
   1.556191e+02  -2.462875e+02
   3.345033e+02  -1.225664e+02
   2.460263e+02   9.460144e+01
  -2.483546e+01   2.949575e+02
  -2.744019e+02   3.472080e+02
  -3.503052e+02   1.677707e+02
  -2.388526e+02  -1.504127e+02
  -5.822790e+01  -3.633746e+02
   4.589483e+01  -3.263432e+02
   4.242184e+01  -1.610831e+02
   3.615177e+01  -8.064355e+01
   1.174793e+02  -1.035414e+02
   2.300316e+02  -6.571023e+01
   2.390150e+02   1.025827e+02
   1.018299e+02   2.500204e+02
  -8.535409e+01   1.985415e+02
  -1.903251e+02  -2.867104e+01
  -1.430178e+02  -2.339661e+02
   3.746433e+01  -2.494911e+02
   2.408683e+02  -7.172131e+01
   3.089601e+02   1.640696e+02
   1.702955e+02   2.988321e+02
  -5.642722e+01   2.682220e+02
  -1.745716e+02   1.470555e+02
  -1.471932e+02   6.454687e+01
  -1.368051e+02   5.878785e+01
  -2.614757e+02   3.988037e+01
  -3.966372e+02  -8.585235e+01
  -3.134623e+02  -2.866783e+02
   1.944168e+01  -4.256820e+02
   3.662443e+02  -3.879964e+02
   4.662402e+02  -1.746705e+02
   2.875447e+02   9.414171e+01
   2.709726e+01   2.505068e+02
  -9.513217e+01   2.035570e+02
  -2.431224e+01   3.783788e+01
   1.101077e+02  -5.112057e+01
   1.373002e+02   2.811188e+01
   1.792587e+01   1.459163e+02
  -1.188595e+02   1.158686e+02
  -1.193989e+02  -4.952101e+01
   2.299960e+01  -1.382002e+02
   1.614347e+02  -7.423242e+00
   1.502315e+02   2.300913e+02
  -2.081345e+01   3.344446e+02
  -2.339336e+02   1.996362e+02
  -3.430082e+02  -6.110947e+01
  -2.707352e+02  -2.518303e+02
  -6.439538e+01  -2.645882e+02
   1.223763e+02  -1.394126e+02
   1.510151e+02  -9.200625e+00
   3.886144e+01   1.583834e+01
  -5.201322e+01  -5.535878e+01
  -2.186190e+00  -1.114780e+02
   1.197401e+02  -7.023953e+01
   1.477361e+02   2.281830e+01
   3.553580e+01   5.562910e+01
  -7.883326e+01  -7.766540e+00
  -3.941377e+01  -8.727953e+01
   1.413064e+02  -8.456679e+01
   2.903406e+02   1.907618e+01
   2.502717e+02   1.615626e+02
   3.139660e+01   2.539314e+02
  -1.979859e+02   2.310363e+02
  -2.630069e+02   9.902234e+01
  -1.394025e+02  -4.449046e+01
   2.722762e+01  -8.093023e+01
   6.636473e+01   1.734006e+00
  -4.798193e+01   8.067801e+01
  -1.808190e+02   3.654669e+01
  -1.866689e+02  -1.002202e+02
  -5.707540e+01  -1.854638e+02
   8.646766e+01  -1.354853e+02
   1.241369e+02  -1.878241e+01
   4.870927e+01   3.529835e+01
  -3.832428e+01  -1.778664e+01
  -2.700563e+01  -1.030187e+02
   9.144942e+01  -1.135036e+02
   2.033803e+02  -1.378453e+01
   1.782191e+02   1.296222e+02
   1.187820e+01   2.041940e+02
  -1.529549e+02   1.485743e+02
  -1.728745e+02   1.064552e+01
  -5.590042e+01  -9.462142e+01
   6.010351e+01  -9.503847e+01
   6.975168e+01  -2.532277e+01
   3.514826e+00   2.366526e+01
  -3.379409e+01   9.299770e+00
   9.469264e+00  -2.272130e+01
   8.451152e+01   2.679980e-01
   1.000510e+02   8.890221e+01
   1.048107e+01   1.691406e+02
  -1.373035e+02   1.487615e+02
  -2.314243e+02   1.137766e+01
  -1.880817e+02  -1.535084e+02
  -3.680041e+01  -2.235930e+02
   9.943845e+01  -1.569827e+02
   1.268362e+02  -2.987753e+01
   7.192173e+01   4.461670e+01
   3.259090e+01   2.937346e+01
   5.407152e+01  -1.368688e+01
   8.460895e+01  -6.476864e+00
   5.293285e+01   5.563227e+01
  -4.003686e+01   1.015778e+02
  -1.178612e+02   6.394539e+01
  -1.015159e+02  -4.324044e+01
   1.736277e+01  -1.243381e+02
   1.574338e+02  -8.653334e+01
   1.992455e+02   6.299730e+01
   8.389858e+01   2.060219e+02
  -1.196362e+02   2.160575e+02
  -2.602445e+02   8.065257e+01
  -2.391914e+02  -8.736708e+01
  -9.745317e+01  -1.651817e+02
   3.865387e+01  -1.352022e+02
   8.671604e+01  -7.844341e+01
   6.899368e+01  -6.838235e+01
   5.797056e+01  -9.206715e+01
   8.853547e+01  -7.710975e+01
   1.281097e+02   1.824845e+01
   1.160073e+02   1.499283e+02
   2.619326e+01   2.196161e+02
  -9.732505e+01   1.626666e+02
  -1.658663e+02   1.226460e+01
  -1.238530e+02  -1.228142e+02
  -1.018019e+01  -1.520056e+02
   7.204167e+01  -7.953249e+01
   6.009731e+01   1.227767e+01
  -3.235064e+00   5.057120e+01
  -2.417313e+01   3.412629e+01
   2.802149e+01   1.197309e+01
   8.199009e+01   1.814108e+01
   4.811846e+01   3.916009e+01
  -7.038668e+01   3.817264e+01
  -1.672256e+02  -2.129342e+00
  -1.399375e+02  -6.060145e+01
  -7.778431e-01  -9.357019e+01
   1.294387e+02  -7.090732e+01
   1.413159e+02  -6.086288e+00
   4.315188e+01   4.773033e+01
  -5.874295e+01   4.205921e+01
  -7.596752e+01  -1.774123e+01
  -1.711850e+01  -7.180864e+01
   4.631051e+01  -6.395853e+01
   6.656948e+01  -1.802460e+00
   5.491638e+01   4.993335e+01
   4.629893e+01   4.230212e+01
   5.466258e+01   1.453244e+00
   6.339967e+01   8.807369e-01
   4.217238e+01   7.055293e+01
  -2.701573e+01   1.485404e+02
  -1.214739e+02   1.414518e+02
  -1.742225e+02   3.205890e+01
  -1.265406e+02  -9.222257e+01
  -2.377327e+00  -1.288350e+02
   8.990999e+01  -6.657614e+01
   6.074616e+01   1.085736e+01
  -5.665821e+01   2.021022e+01
  -1.306664e+02  -4.013624e+01
  -6.931046e+01  -1.030647e+02
   8.070569e+01  -1.062466e+02
   1.833708e+02  -4.380770e+01
   1.522920e+02   3.851806e+01
   3.053616e+01   8.246921e+01
  -6.153698e+01   6.019708e+01
  -4.683691e+01  -1.703927e-01
   3.906356e+01  -2.983581e+01
   9.028966e+01   1.897192e+01
   3.888007e+01   1.129689e+02
  -7.748059e+01   1.525831e+02
  -1.543273e+02   6.927093e+01
  -1.240629e+02  -8.886132e+01
  -1.662379e+01  -1.874446e+02
   7.914224e+01  -1.373616e+02
   1.007508e+02   1.021552e+01
   5.422588e+01   1.160429e+02
  -1.104969e+01   9.961918e+01
  -4.916062e+01   1.468841e+01
  -4.482440e+01  -3.075114e+01
  -1.746408e+01  -6.796518e+00
  -5.304541e+00   1.727271e+01
  -2.813802e+01  -2.032294e+01
  -5.612238e+01  -8.714714e+01
  -3.285917e+01  -1.017940e+02
   5.293502e+01  -4.117591e+01
   1.322482e+02   3.564560e+01
   1.202889e+02   6.657879e+01
   1.779855e+01   5.123749e+01
  -7.902309e+01   2.549955e+01
  -8.395958e+01   6.238708e+00
  -1.597474e+01  -1.104255e+01
   3.369804e+01  -2.129312e+01
   1.793639e+01  -1.283664e+01
  -1.524064e+01   3.979644e+00
   3.321890e+00   5.643042e+00
   6.576163e+01  -1.323934e+00
   9.044592e+01   2.067799e+01
   2.020430e+01   7.917086e+01
  -1.047862e+02   1.158452e+02
  -1.824135e+02   6.520411e+01
  -1.482460e+02  -5.708708e+01
  -3.225249e+01  -1.550568e+02
   7.691077e+01  -1.508098e+02
   1.129494e+02  -6.394712e+01
   7.858452e+01   1.814474e+01
   2.573524e+01   3.650158e+01
   1.659417e+00   1.250483e+01
   1.289619e+01   7.826038e+00
   2.986085e+01   4.698368e+01
   1.845730e+01   8.799364e+01
  -2.785359e+01   6.996260e+01
  -7.677273e+01  -1.405389e+01
  -7.870854e+01  -9.876257e+01
  -1.397126e+01  -1.077696e+02
   7.359124e+01  -3.149150e+01
   1.036157e+02   6.313615e+01
   3.926888e+01   1.001340e+02
  -6.214399e+01   6.244019e+01
  -1.006147e+02  -7.084527e+00
  -4.393423e+01  -5.545188e+01
   3.306295e+01  -5.910059e+01
   3.782282e+01  -2.822650e+01
  -2.646612e+01   5.849914e+00
  -6.649567e+01   9.219885e+00
  -1.763908e+01  -2.623764e+01
   7.560981e+01  -6.449881e+01
   1.161271e+02  -5.313014e+01
   6.828628e+01   1.560347e+01
  -1.262753e+01   8.268863e+01
  -5.516592e+01   8.070832e+01
  -4.309261e+01   1.177455e+01
  -7.165475e+00  -5.136269e+01
   2.291262e+01  -4.665447e+01
   3.624981e+01   1.047216e+01
   2.815400e+01   5.204944e+01
  -8.346118e-01   3.801306e+01
  -3.262824e+01  -4.879057e+00
  -4.059703e+01  -2.384700e+01
  -2.008097e+01  -4.108347e+00
   3.346891e+00   1.880684e+01
   6.014005e+00   6.866314e+00
  -3.193017e+00  -3.194742e+01
   2.647010e+00  -5.105382e+01
   2.717825e+01  -2.029466e+01
   3.947511e+01   3.508537e+01
   1.163725e+01   5.875486e+01
  -3.955003e+01   2.517523e+01
  -6.097581e+01  -3.230426e+01
  -1.941451e+01  -5.894209e+01
   5.474772e+01  -3.542485e+01
   9.053769e+01   1.059255e+01
   4.984502e+01   4.159648e+01
  -2.750726e+01   4.414012e+01
  -6.346591e+01   2.742777e+01
  -2.765697e+01   6.648389e+00
   2.880198e+01  -3.440031e+00
   3.356182e+01   6.610127e+00
  -2.274631e+01   2.595161e+01
  -7.728477e+01   2.191365e+01
