
 $NMID
 id='ANONYMOUS ', fmtdat='(2E16.6)'
 volume=1.0
 tramp=1.0
 $END
   3.554186e+03   4.364928e+01
   2.221285e+03   1.925183e+03
  -2.178400e+02   2.222783e+03
  -1.469587e+03   1.120453e+03
  -9.182746e+02  -3.316755e+01
   1.716155e+02  -2.812428e+02
   5.041201e+02   2.122274e+02
   2.035077e+01   6.940128e+02
  -5.621120e+02   6.264334e+02
  -7.228326e+02   2.904667e+01
  -4.276683e+02  -6.087408e+02
   6.889116e+01  -7.102747e+02
   3.948619e+02  -1.569167e+02
   2.773657e+02   5.060842e+02
  -1.634958e+02   5.976310e+02
  -4.597318e+02   5.096620e+01
  -2.880380e+02  -5.400683e+02
   1.771555e+02  -6.216267e+02
   4.934759e+02  -2.236112e+02
   4.229103e+02   2.207452e+02
   9.962108e+01   3.785476e+02
  -1.549098e+02   2.484177e+02
  -1.093497e+02   5.737111e+01
   1.688251e+02   4.240174e+01
   3.196877e+02   2.343239e+02
   4.403881e+01   3.891921e+02
  -4.762456e+02   2.358187e+02
  -6.794907e+02  -1.626466e+02
  -2.758455e+02  -4.229799e+02
   3.524515e+02  -2.810378e+02
   5.753817e+02   1.123221e+02
   2.306485e+02   4.026393e+02
  -2.733984e+02   3.982227e+02
  -4.889599e+02   1.468339e+02
  -3.473272e+02  -1.815047e+02
  -7.534662e+01  -3.569540e+02
   8.253675e+01  -2.072408e+02
   1.775112e+01   1.345747e+02
  -1.853379e+02   2.402213e+02
  -2.781209e+02  -1.142316e+02
  -7.566217e+01  -5.560045e+02
   2.781629e+02  -5.146871e+02
   4.079625e+02   8.119109e+00
   1.536529e+02   3.890761e+02
  -1.977236e+02   1.878014e+02
  -2.344080e+02  -2.932138e+02
   1.046376e+02  -4.358417e+02
   4.783858e+02  -7.669493e+01
   5.154890e+02   3.841700e+02
   1.559196e+02   5.208920e+02
  -3.245964e+02   2.878444e+02
  -5.485972e+02  -6.910893e+01
  -3.457097e+02  -2.899796e+02
   8.149594e+01  -2.633435e+02
   3.315793e+02  -7.091443e+01
   2.184326e+02   7.726291e+01
  -3.111867e+01   4.325867e+01
  -7.311542e+01  -8.158424e+01
   1.219619e+02  -9.380266e+01
   2.610234e+02   5.841664e+01
   1.263681e+02   2.234570e+02
  -1.660089e+02   2.481318e+02
  -3.363615e+02   1.199120e+02
  -2.466466e+02  -9.043390e+01
   1.793027e+01  -2.931047e+02
   2.717345e+02  -3.580045e+02
   3.616508e+02  -1.788324e+02
   2.517449e+02   1.574105e+02
   5.462637e+01   3.819424e+02
  -6.076894e+01   3.331616e+02
  -4.740046e+01   1.510288e+02
  -2.613439e+01   7.305522e+01
  -1.096994e+02   1.117500e+02
  -2.376896e+02   7.842947e+01
  -2.542524e+02  -1.030097e+02
  -1.088784e+02  -2.638944e+02
   9.159562e+01  -2.112856e+02
   2.030695e+02   2.848861e+01
   1.520465e+02   2.455950e+02
  -3.968198e+01   2.631949e+02
  -2.538309e+02   7.608206e+01
  -3.216663e+02  -1.732558e+02
  -1.708118e+02  -3.131475e+02
   6.646716e+01  -2.743013e+02
   1.817740e+02  -1.420391e+02
   1.447101e+02  -5.884521e+01
   1.329249e+02  -6.132112e+01
   2.664843e+02  -4.679756e+01
   4.088157e+02   8.435263e+01
   3.229928e+02   2.942842e+02
  -1.911302e+01   4.387363e+02
  -3.755973e+02   4.004536e+02
  -4.814618e+02   1.797783e+02
  -2.997036e+02  -1.008672e+02
  -2.657156e+01  -2.639453e+02
   1.062910e+02  -2.102372e+02
   3.066790e+01  -3.172385e+01
  -1.184355e+02   5.895570e+01
  -1.496112e+02  -3.227808e+01
  -1.692832e+01  -1.584538e+02
   1.323422e+02  -1.206146e+02
   1.279379e+02   5.816402e+01
  -2.854477e+01   1.483206e+02
  -1.715721e+02   7.195368e+00
  -1.534464e+02  -2.384974e+02
   2.375026e+01  -3.423507e+02
   2.376389e+02  -2.037130e+02
   3.482700e+02   6.043580e+01
   2.790490e+02   2.560195e+02
   6.976952e+01   2.732582e+02
  -1.260228e+02   1.459729e+02
  -1.586753e+02   8.113306e+00
  -4.033948e+01  -2.020855e+01
   5.706727e+01   5.643378e+01
   4.110629e+00   1.184283e+02
  -1.259474e+02   7.493396e+01
  -1.557283e+02  -2.526973e+01
  -3.724255e+01  -6.125443e+01
   8.329073e+01   5.101435e+00
   4.375568e+01   8.911728e+01
  -1.422962e+02   8.873054e+01
  -2.974856e+02  -1.592114e+01
  -2.596696e+02  -1.634029e+02
  -3.575257e+01  -2.624593e+02
   2.034582e+02  -2.412909e+02
   2.739417e+02  -1.025674e+02
   1.454071e+02   4.943539e+01
  -3.049297e+01   8.646661e+01
  -7.185762e+01  -3.141477e+00
   4.933325e+01  -8.663617e+01
   1.889454e+02  -3.871904e+01
   1.938291e+02   1.052996e+02
   5.760909e+01   1.934515e+02
  -9.156708e+01   1.404037e+02
  -1.303207e+02   1.842711e+01
  -5.175669e+01  -3.913326e+01
   4.016842e+01   1.446875e+01
   3.117631e+01   1.038857e+02
  -9.068897e+01   1.181597e+02
  -2.086329e+02   1.689372e+01
  -1.845622e+02  -1.327166e+02
  -1.213519e+01  -2.112567e+02
   1.591260e+02  -1.526489e+02
   1.787259e+02  -8.296886e+00
   5.621772e+01   1.000597e+02
  -6.390196e+01   9.848384e+01
  -7.347202e+01   2.512874e+01
  -5.178736e+00  -2.610109e+01
   3.404864e+01  -1.201325e+01
  -8.051101e+00   2.143844e+01
  -8.373795e+01   4.128582e-01
  -1.017009e+02  -8.839290e+01
  -1.284271e+01  -1.718364e+02
   1.388733e+02  -1.538518e+02
   2.380959e+02  -1.366208e+01
   1.944493e+02   1.573993e+02
   3.717756e+01   2.304968e+02
  -1.038318e+02   1.610544e+02
  -1.303198e+02   2.943551e+01
  -7.218267e+01  -4.663066e+01
  -3.214965e+01  -3.028660e+01
  -5.493492e+01   1.397922e+01
  -8.578552e+01   7.314311e+00
  -5.349478e+01  -5.476915e+01
   3.941196e+01  -1.019166e+02
   1.173847e+02  -6.620704e+01
   1.026855e+02   4.121795e+01
  -1.541570e+01   1.257386e+02
  -1.585474e+02   9.039642e+01
  -2.046550e+02  -6.212351e+01
  -8.868168e+01  -2.113960e+02
   1.213920e+02  -2.238801e+02
   2.680698e+02  -8.411418e+01
   2.468439e+02   9.051889e+01
   1.000908e+02   1.712241e+02
  -4.052739e+01   1.396014e+02
  -8.996761e+01   8.011488e+01
  -7.167308e+01   6.897030e+01
  -5.991570e+01   9.302730e+01
  -9.034796e+01   7.814914e+01
  -1.304284e+02  -1.880008e+01
  -1.185161e+02  -1.534613e+02
  -2.694801e+01  -2.253032e+02
   1.002082e+02  -1.673006e+02
   1.713894e+02  -1.283624e+01
   1.283454e+02   1.263675e+02
   1.097088e+01   1.570786e+02
  -7.422015e+01   8.339770e+01
  -6.279733e+01  -1.088540e+01
   1.380193e+00  -5.158614e+01
   2.304001e+01  -3.642506e+01
  -2.890664e+01  -1.377586e+01
  -8.291111e+01  -1.856713e+01
  -4.891069e+01  -3.937912e+01
   7.083379e+01  -3.969981e+01
   1.701460e+02   1.658910e-01
   1.443719e+02   6.078234e+01
   3.266204e+00   9.649202e+01
  -1.312544e+02   7.401408e+01
  -1.454813e+02   6.999695e+00
  -4.551866e+01  -4.840026e+01
   5.953161e+01  -4.238951e+01
   7.744451e+01   1.806175e+01
   1.692692e+01   7.185092e+01
  -4.755658e+01   6.368303e+01
  -6.715132e+01   1.902148e+00
  -5.490903e+01  -4.969188e+01
  -4.707297e+01  -4.270846e+01
  -5.647451e+01  -2.166935e+00
  -6.505401e+01  -1.013251e+00
  -4.272343e+01  -7.081845e+01
   2.755623e+01  -1.507067e+02
   1.229855e+02  -1.451877e+02
   1.766851e+02  -3.437458e+01
   1.291214e+02   9.330674e+01
   3.533736e+00   1.316215e+02
  -9.059311e+01   6.801444e+01
  -6.148938e+01  -1.131514e+01
   5.804270e+01  -2.049161e+01
   1.339001e+02   4.174593e+01
   7.131581e+01   1.062211e+02
  -8.275317e+01   1.093688e+02
  -1.888094e+02   4.531411e+01
  -1.572562e+02  -3.949556e+01
  -3.171182e+01  -8.532006e+01
   6.366837e+01  -6.283105e+01
   4.887646e+01  -5.780562e-01
  -3.943824e+01   3.025346e+01
  -9.185759e+01  -1.955912e+01
  -3.869134e+01  -1.152211e+02
   8.045474e+01  -1.546441e+02
   1.580965e+02  -6.890854e+01
   1.259145e+02   9.199501e+01
   1.565202e+01   1.917603e+02
  -8.188556e+01   1.405095e+02
  -1.036869e+02  -1.017140e+01
  -5.619291e+01  -1.192146e+02
   1.068916e+01  -1.035079e+02
   5.035224e+01  -1.611770e+01
   4.661595e+01   3.210102e+01
   1.862762e+01   8.019006e+00
   5.569282e+00  -1.817430e+01
   2.846697e+01   1.924272e+01
   5.730902e+01   8.890981e+01
   3.404151e+01   1.056857e+02
  -5.365187e+01   4.328957e+01
  -1.353455e+02  -3.713600e+01
  -1.235751e+02  -6.919822e+01
  -1.843629e+01  -5.204403e+01
   8.125550e+01  -2.487411e+01
   8.633544e+01  -6.269531e+00
   1.613619e+01   1.024456e+01
  -3.501356e+01   2.140991e+01
  -1.841189e+01   1.417932e+01
   1.598531e+01  -3.146939e+00
  -3.308292e+00  -6.410071e+00
  -6.751649e+01  -1.453881e-02
  -9.211648e+01  -2.135393e+01
  -1.933546e+01  -7.957712e+01
   1.080305e+02  -1.167777e+02
   1.855716e+02  -6.586569e+01
   1.495104e+02   5.834246e+01
   3.179655e+01   1.582110e+02
  -7.821828e+01   1.537215e+02
  -1.146222e+02   6.476604e+01
  -8.008560e+01  -1.892460e+01
  -2.637192e+01  -3.695360e+01
  -1.598881e+00  -1.180851e+01
  -1.327456e+01  -7.220695e+00
  -3.110442e+01  -4.805573e+01
  -1.933708e+01  -9.041986e+01
   2.857118e+01  -7.149379e+01
   7.837803e+01   1.513063e+01
   7.932250e+01   1.014798e+02
   1.292710e+01   1.093682e+02
  -7.517317e+01   3.047310e+01
  -1.044605e+02  -6.550112e+01
  -3.911453e+01  -1.016542e+02
   6.299309e+01  -6.259571e+01
   1.018138e+02   7.223467e+00
   4.493119e+01   5.537096e+01
  -3.274317e+01   5.955364e+01
  -3.774489e+01   2.959278e+01
   2.727745e+01  -4.591912e+00
   6.786007e+01  -8.980958e+00
   1.786944e+01   2.628920e+01
  -7.753682e+01   6.577485e+01
  -1.188444e+02   5.519870e+01
  -6.957315e+01  -1.482698e+01
   1.306605e+01  -8.407364e+01
   5.566317e+01  -8.255068e+01
   4.255502e+01  -1.207160e+01
   6.295479e+00   5.228019e+01
  -2.316574e+01   4.690080e+01
  -3.617199e+01  -1.151105e+01
  -2.845525e+01  -5.306734e+01
   4.217865e-01  -3.796011e+01
   3.295337e+01   5.367847e+00
   4.166520e+01   2.379178e+01
   2.087761e+01   3.843939e+00
  -3.661775e+00  -1.834974e+01
  -7.305579e+00  -5.936151e+00
   1.714828e+00   3.205979e+01
  -3.486759e+00   4.985625e+01
  -2.689667e+01   1.877124e+01
  -3.822376e+01  -3.583567e+01
  -1.020587e+01  -5.867645e+01
   4.036171e+01  -2.470043e+01
   6.100572e+01   3.311165e+01
   1.893607e+01   6.001515e+01
  -5.560451e+01   3.609031e+01
  -9.164343e+01  -1.094598e+01
  -5.058740e+01  -4.249679e+01
   2.772526e+01  -4.455476e+01
   6.415727e+01  -2.729120e+01
   2.759711e+01  -7.010766e+00
  -2.973166e+01   2.021728e+00
  -3.374592e+01  -8.153891e+00
   2.462061e+01  -2.627866e+01
   8.013452e+01  -2.079533e+01
