
 $NMID
 id='ANONYMOUS ', fmtdat='(2E16.6)'
 volume=1.0
 tramp=1.0
 $END
   4.267526e+03   5.265907e+01
   2.463938e+03   2.550096e+03
  -6.964188e+02   2.661123e+03
  -2.017456e+03   8.885470e+02
  -9.087534e+02  -5.701991e+02
   6.091504e+02  -5.034716e+02
   8.228577e+02   4.331431e+02
  -3.209671e+01   1.018409e+03
  -8.090613e+02   7.442923e+02
  -9.061902e+02  -9.532549e+01
  -4.311109e+02  -8.361978e+02
   2.326149e+02  -8.591564e+02
   6.043364e+02  -1.044115e+02
   3.553548e+02   7.029682e+02
  -2.690706e+02   7.267006e+02
  -5.880337e+02  -9.904767e+00
  -2.667841e+02  -6.681112e+02
   3.074564e+02  -6.295322e+02
   5.680063e+02  -1.059560e+02
   3.880300e+02   3.341038e+02
   2.508069e+01   4.272496e+02
  -2.323474e+02   2.578300e+02
  -1.958406e+02   1.652780e+01
   1.324819e+02  -6.979596e+01
   4.050971e+02   1.400256e+02
   1.726633e+02   4.394683e+02
  -4.796522e+02   3.886199e+02
  -8.368498e+02  -1.027270e+02
  -4.013344e+02  -5.460514e+02
   4.047742e+02  -4.536884e+02
   7.317829e+02   6.054880e+01
   3.265266e+02   4.832179e+02
  -2.927436e+02   5.040151e+02
  -5.644987e+02   1.896059e+02
  -4.070729e+02  -2.283110e+02
  -6.411446e+01  -4.616053e+02
   1.882423e+02  -2.678943e+02
   1.437079e+02   2.168446e+02
  -1.835982e+02   4.122137e+02
  -4.309587e+02  -4.526006e+01
  -2.120403e+02  -6.811070e+02
   3.291638e+02  -6.786266e+02
   5.822703e+02   1.073157e+01
   2.355001e+02   5.423468e+02
  -2.890524e+02   2.969802e+02
  -3.645051e+02  -3.325376e+02
   8.140265e+01  -5.384817e+02
   5.530483e+02  -1.237934e+02
   5.872657e+02   4.128969e+02
   1.618531e+02   5.827256e+02
  -3.814003e+02   3.373935e+02
  -6.235018e+02  -7.943280e+01
  -3.682886e+02  -3.761205e+02
   1.509813e+02  -3.493059e+02
   4.307430e+02  -5.176841e+01
   2.339713e+02   1.822305e+02
  -1.108391e+02   9.386152e+01
  -1.309724e+02  -1.492956e+02
   1.659432e+02  -1.733055e+02
   3.380788e+02   7.775510e+01
   1.364601e+02   2.931510e+02
  -2.020097e+02   2.578804e+02
  -3.325267e+02   8.000382e+01
  -2.047689e+02  -8.431543e+01
   2.091413e+01  -2.337716e+02
   2.266035e+02  -3.346922e+02
   3.447055e+02  -2.165019e+02
   2.897918e+02   1.416773e+02
   7.454256e+01   4.334335e+02
  -1.109403e+02   3.782122e+02
  -1.100048e+02   1.154410e+02
  -2.072124e+01   2.110735e-01
  -5.035377e+01   9.478992e+01
  -2.042961e+02   1.272791e+02
  -2.808895e+02  -5.971506e+01
  -1.549961e+02  -2.740049e+02
   7.628510e+01  -2.547708e+02
   2.287508e+02  -5.346828e+00
   1.948067e+02   2.452746e+02
  -1.483408e+01   2.949596e+02
  -2.687546e+02   1.127422e+02
  -3.596080e+02  -1.702834e+02
  -1.853468e+02  -3.492590e+02
   9.656272e+01  -3.037363e+02
   2.214949e+02  -1.232236e+02
   1.483130e+02  -1.238280e+01
   1.025558e+02  -4.052876e+01
   2.395988e+02  -6.530983e+01
   4.050381e+02   5.898940e+01
   3.339418e+02   2.865545e+02
  -2.941496e+00   4.449144e+02
  -3.624398e+02   4.152452e+02
  -4.899193e+02   2.003864e+02
  -3.342757e+02  -9.558576e+01
  -5.071138e+01  -2.936906e+02
   1.297248e+02  -2.484950e+02
   7.600860e+01  -2.742073e+01
  -1.143585e+02   1.035027e+02
  -1.940367e+02  -1.137552e+01
  -4.518560e+01  -1.952038e+02
   1.619943e+02  -1.661837e+02
   1.748406e+02   6.340909e+01
  -2.091491e+01   1.901958e+02
  -1.948199e+02   2.931940e+01
  -1.636278e+02  -2.484012e+02
   3.034742e+01  -3.498256e+02
   2.312478e+02  -1.954790e+02
   3.294851e+02   6.073759e+01
   2.799529e+02   2.401941e+02
   9.347002e+01   2.665889e+02
  -1.156727e+02   1.604611e+02
  -1.772309e+02   1.897314e+01
  -5.656101e+01  -3.214389e+01
   6.997727e+01   4.137274e+01
   2.688708e+01   1.266252e+02
  -1.261997e+02   9.825732e+01
  -1.781232e+02  -1.499441e+01
  -5.593927e+01  -7.306478e+01
   8.206007e+01  -1.483906e+01
   5.546474e+01   7.551041e+01
  -1.250735e+02   8.853775e+01
  -2.844910e+02  -2.251809e-01
  -2.649288e+02  -1.417042e+02
  -5.907072e+01  -2.572774e+02
   1.869059e+02  -2.614377e+02
   2.847440e+02  -1.249153e+02
   1.686752e+02   5.258542e+01
  -2.626865e+01   1.085830e+02
  -9.046184e+01   6.436921e+00
   3.492503e+01  -1.018011e+02
   1.970131e+02  -5.810458e+01
   2.131421e+02   1.035776e+02
   6.847989e+01   2.080883e+02
  -9.513453e+01   1.574049e+02
  -1.441258e+02   2.787703e+01
  -6.925694e+01  -4.259939e+01
   3.008531e+01  -2.514966e+00
   3.866368e+01   8.506646e+01
  -7.214804e+01   1.148154e+02
  -1.993273e+02   2.957794e+01
  -1.923010e+02  -1.235822e+02
  -2.123629e+01  -2.183828e+02
   1.646799e+02  -1.641003e+02
   1.935294e+02  -6.347808e+00
   6.443253e+01   1.143255e+02
  -6.725867e+01   1.112282e+02
  -8.324383e+01   3.003171e+01
  -1.765312e+01  -2.701176e+01
   2.299060e+01  -1.911750e+01
  -8.533729e+00   9.041555e+00
  -7.105278e+01  -6.539580e+00
  -8.993251e+01  -8.067036e+01
  -1.669638e+01  -1.588621e+02
   1.257963e+02  -1.536741e+02
   2.341284e+02  -2.649463e+01
   2.023783e+02   1.496776e+02
   4.241169e+01   2.368680e+02
  -1.084531e+02   1.695938e+02
  -1.354458e+02   2.772369e+01
  -7.045570e+01  -5.457524e+01
  -2.865658e+01  -3.508055e+01
  -5.325955e+01   1.265456e+01
  -8.001002e+01   7.292407e+00
  -4.336179e+01  -4.892031e+01
   4.040808e+01  -8.876423e+01
   1.021956e+02  -5.765478e+01
   8.724776e+01   3.397371e+01
  -1.169407e+01   1.114071e+02
  -1.415700e+02   8.813515e+01
  -1.982429e+02  -4.973032e+01
  -1.013585e+02  -2.018056e+02
   1.060481e+02  -2.295411e+02
   2.668928e+02  -9.688151e+01
   2.573810e+02   8.542699e+01
   1.095216e+02   1.763659e+02
  -3.866218e+01   1.469912e+02
  -9.406587e+01   8.395979e+01
  -7.838579e+01   6.918826e+01
  -6.551455e+01   9.071609e+01
  -9.131402e+01   7.456859e+01
  -1.279046e+02  -2.091500e+01
  -1.180676e+02  -1.529273e+02
  -3.042536e+01  -2.255074e+02
   9.806963e+01  -1.721045e+02
   1.753229e+02  -2.052556e+01
   1.364730e+02   1.218225e+02
   1.910292e+01   1.596863e+02
  -6.802968e+01   9.227638e+01
  -6.116024e+01   1.022549e-01
  -5.175945e+00  -4.384185e+01
   1.132062e+01  -3.564753e+01
  -3.509254e+01  -1.817439e+01
  -7.904394e+01  -2.162335e+01
  -4.518854e+01  -3.764081e+01
   6.373737e+01  -3.784021e+01
   1.585762e+02  -4.337944e+00
   1.436900e+02   5.119139e+01
   1.517088e+01   8.978962e+01
  -1.207327e+02   7.514890e+01
  -1.450394e+02   1.352306e+01
  -4.878641e+01  -4.148816e+01
   5.926851e+01  -3.805746e+01
   7.574471e+01   1.831551e+01
   9.244471e+00   6.768201e+01
  -5.390908e+01   5.786855e+01
  -6.312383e+01  -1.046728e+00
  -4.524350e+01  -4.875435e+01
  -4.387026e+01  -4.128203e+01
  -6.053715e+01  -2.390890e+00
  -6.574845e+01  -4.666293e-01
  -3.636931e+01  -6.686628e+01
   3.100562e+01  -1.451054e+02
   1.153720e+02  -1.418649e+02
   1.642894e+02  -3.492384e+01
   1.237681e+02   8.971792e+01
   7.298047e+00   1.262094e+02
  -8.515934e+01   6.263848e+01
  -5.955222e+01  -1.409662e+01
   5.854672e+01  -2.021226e+01
   1.364778e+02   4.262296e+01
   7.553413e+01   1.066235e+02
  -8.008502e+01   1.120894e+02
  -1.900262e+02   5.186874e+01
  -1.619533e+02  -3.377019e+01
  -3.692551e+01  -8.637857e+01
   6.112551e+01  -6.968815e+01
   4.931205e+01  -6.879371e+00
  -3.816782e+01   2.737739e+01
  -9.007300e+01  -2.145339e+01
  -3.376967e+01  -1.169861e+02
   8.880817e+01  -1.530546e+02
   1.646173e+02  -6.286095e+01
   1.257776e+02   9.842084e+01
   1.144294e+01   1.953475e+02
  -8.418618e+01   1.431825e+02
  -1.042816e+02  -6.517000e+00
  -6.064408e+01  -1.174768e+02
   2.336964e+00  -1.063994e+02
   4.629184e+01  -2.031547e+01
   5.145159e+01   3.130212e+01
   2.506940e+01   8.982754e+00
   4.174313e+00  -2.039041e+01
   2.169136e+01   1.462900e+01
   5.603951e+01   8.764662e+01
   4.128010e+01   1.089030e+02
  -4.719721e+01   4.558933e+01
  -1.372227e+02  -3.859739e+01
  -1.287936e+02  -7.033296e+01
  -1.799790e+01  -4.950370e+01
   8.646293e+01  -2.217334e+01
   8.775768e+01  -7.735780e+00
   1.157743e+01   7.101367e+00
  -3.797563e+01   2.200409e+01
  -1.472483e+01   1.812167e+01
   2.058270e+01  -1.295427e+00
  -5.267116e+00  -8.953743e+00
  -7.284761e+01  -3.785846e+00
  -9.086730e+01  -2.305863e+01
  -9.691068e+00  -7.871942e+01
   1.160854e+02  -1.132382e+02
   1.834495e+02  -5.943531e+01
   1.409180e+02   6.488380e+01
   2.643131e+01   1.599046e+02
  -7.750049e+01   1.494028e+02
  -1.126871e+02   5.914704e+01
  -7.985185e+01  -2.089872e+01
  -2.511668e+01  -3.507980e+01
   2.236293e+00  -8.568585e+00
  -1.070261e+01  -4.030615e+00
  -3.304213e+01  -4.561724e+01
  -2.261155e+01  -8.958707e+01
   2.868041e+01  -7.114462e+01
   8.005906e+01   1.800920e+01
   7.651840e+01   1.064130e+02
   5.229220e+00   1.103683e+02
  -8.041920e+01   2.394175e+01
  -1.018134e+02  -7.345867e+01
  -3.266968e+01  -1.018529e+02
   6.486999e+01  -5.578814e+01
   9.713196e+01   1.070130e+01
   3.995638e+01   5.006250e+01
  -3.169961e+01   5.220306e+01
  -3.145141e+01   2.871747e+01
   3.278819e+01  -4.167672e-01
   6.842129e+01  -6.975052e+00
   1.525536e+01   2.471386e+01
  -7.821710e+01   6.557697e+01
  -1.150307e+02   5.847623e+01
  -6.411837e+01  -1.143788e+01
   1.504908e+01  -8.227546e+01
   5.230291e+01  -7.942777e+01
   3.669117e+01  -6.782718e+00
   1.811821e+00   5.468325e+01
  -2.482337e+01   4.276037e+01
  -3.558413e+01  -1.741135e+01
  -2.659471e+01  -5.322512e+01
   2.050724e+00  -3.286819e+01
   3.259273e+01   8.076592e+00
   3.981233e+01   2.085246e+01
   2.067240e+01   1.265127e+00
  -1.376157e+00  -1.419446e+01
  -7.509450e+00   2.133748e+00
  -5.940824e+00   3.517442e+01
  -1.453734e+01   4.387148e+01
  -3.053365e+01   8.407489e+00
  -3.020435e+01  -4.298292e+01
   8.167302e-01  -5.923663e+01
   4.343223e+01  -2.058148e+01
   5.607346e+01   3.781262e+01
   1.472611e+01   6.186329e+01
  -5.421757e+01   3.409649e+01
  -8.801153e+01  -1.442100e+01
  -4.878089e+01  -4.328459e+01
   2.805203e+01  -4.075002e+01
   6.365146e+01  -2.187029e+01
   2.416413e+01  -5.328784e+00
  -3.584189e+01  -2.271522e+00
  -3.643838e+01  -1.504661e+01
   3.015565e+01  -3.006898e+01
   8.917713e+01  -1.900029e+01
