
 $NMID
 id='ANONYMOUS ', fmtdat='(2E16.6)'
 volume=1.0
 tramp=1.0
 $END
  -4.507575e+03  -3.971575e+01
  -2.563475e+03  -2.762809e+03
   8.526455e+02  -2.830547e+03
   2.221713e+03  -8.243043e+02
   9.293033e+02   7.620752e+02
  -7.515011e+02   6.004488e+02
  -9.421192e+02  -4.965928e+02
   3.824793e+01  -1.132236e+03
   8.911790e+02  -7.928811e+02
   9.744761e+02   1.335072e+02
   4.391916e+02   9.159532e+02
  -2.858616e+02   9.168866e+02
  -6.796236e+02   9.391522e+01
  -3.887406e+02  -7.679131e+02
   3.022621e+02  -7.744743e+02
   6.348097e+02   2.735791e+01
   2.621249e+02   7.139362e+02
  -3.552310e+02   6.362703e+02
  -5.996884e+02   6.558067e+01
  -3.792959e+02  -3.769251e+02
   6.784863e-01  -4.474658e+02
   2.597600e+02  -2.634868e+02
   2.279416e+02  -5.832924e+00
  -1.137851e+02   1.062306e+02
  -4.282329e+02  -1.042475e+02
  -2.176631e+02  -4.500319e+02
   4.735619e+02  -4.388476e+02
   8.862237e+02   7.745638e+01
   4.480800e+02   5.832125e+02
  -4.152396e+02   5.137437e+02
  -7.817222e+02  -3.772214e+01
  -3.611236e+02  -5.068588e+02
   2.957968e+02  -5.393788e+02
   5.883333e+02  -2.052362e+02
   4.283684e+02   2.430894e+02
   6.324930e+01   4.981090e+02
  -2.229349e+02   2.932105e+02
  -1.907381e+02  -2.390986e+02
   1.754710e+02  -4.703838e+02
   4.794893e+02   1.505890e+01
   2.624241e+02   7.170870e+02
  -3.409935e+02   7.354496e+02
  -6.420087e+02  -5.291292e+00
  -2.690033e+02  -5.915602e+02
   3.160232e+02  -3.378999e+02
   4.095564e+02   3.404442e+02
  -7.039230e+01   5.714819e+02
  -5.760224e+02   1.411001e+02
  -6.104128e+02  -4.212312e+02
  -1.638242e+02  -6.035639e+02
   3.995106e+02  -3.550129e+02
   6.484254e+02   8.211017e+01
   3.780119e+02   4.061227e+02
  -1.721520e+02   3.815345e+02
  -4.657587e+02   4.802954e+01
  -2.435739e+02  -2.189321e+02
   1.362422e+02  -1.150646e+02
   1.537787e+02   1.702145e+02
  -1.775786e+02   2.022209e+02
  -3.648992e+02  -8.197029e+01
  -1.418931e+02  -3.170403e+02
   2.149773e+02  -2.615807e+02
   3.330014e+02  -6.390189e+01
   1.888786e+02   8.531960e+01
  -2.634075e+01   2.125336e+02
  -2.133195e+02   3.221482e+02
  -3.371027e+02   2.264578e+02
  -3.008479e+02  -1.353264e+02
  -8.183290e+01  -4.497795e+02
   1.278033e+02  -3.952323e+02
   1.341825e+02  -1.055240e+02
   2.270868e+01   2.567388e+01
   3.089170e+01  -8.517624e+01
   1.901859e+02  -1.412022e+02
   2.869202e+02   4.447690e+01
   1.698786e+02   2.752486e+02
  -6.975315e+01   2.681764e+02
  -2.354185e+02   1.735093e+01
  -2.080131e+02  -2.433254e+02
   5.949053e+00  -3.039830e+02
   2.719814e+02  -1.246994e+02
   3.710057e+02   1.687050e+02
   1.901168e+02   3.612902e+02
  -1.068847e+02   3.144564e+02
  -2.365502e+02   1.173354e+02
  -1.518061e+02  -4.486693e+00
  -9.303277e+01   3.098508e+01
  -2.289941e+02   6.892574e+01
  -4.011167e+02  -5.231970e+01
  -3.350859e+02  -2.843673e+02
  -7.117328e-01  -4.451759e+02
   3.584023e+02  -4.168561e+02
   4.917078e+02  -2.050149e+02
   3.448213e+02   9.341777e+01
   5.909735e+01   3.023940e+02
  -1.368742e+02   2.618935e+02
  -9.207388e+01   2.789693e+01
   1.108157e+02  -1.180290e+02
   2.079500e+02   2.664323e+00
   5.592107e+01   2.063307e+02
  -1.704178e+02   1.824925e+02
  -1.907997e+02  -6.349219e+01
   1.694253e+01  -2.038909e+02
   2.014712e+02  -3.721944e+01
   1.660426e+02   2.516138e+02
  -3.402626e+01   3.518403e+02
  -2.299595e+02   1.905908e+02
  -3.218600e+02  -6.345350e+01
  -2.775135e+02  -2.355373e+02
  -9.978459e+01  -2.628638e+02
   1.118529e+02  -1.639971e+02
   1.828334e+02  -2.279580e+01
   6.258129e+01   3.566959e+01
  -7.330448e+01  -3.568236e+01
  -3.456873e+01  -1.281183e+02
   1.252610e+02  -1.055418e+02
   1.849195e+02   1.109665e+01
   6.260456e+01   7.631691e+01
  -8.044595e+01   2.128253e+01
  -5.830339e+01  -7.023935e+01
   1.192406e+02  -8.668140e+01
   2.784502e+02  -3.066998e+00
   2.642495e+02   1.349029e+02
   6.545904e+01   2.539332e+02
  -1.809812e+02   2.660138e+02
  -2.873283e+02   1.315314e+02
  -1.763242e+02  -5.320194e+01
   2.411075e+01  -1.157069e+02
   9.628192e+01  -1.029956e+01
  -2.952378e+01   1.059139e+02
  -1.986482e+02   6.415115e+01
  -2.187750e+02  -1.028212e+02
  -7.181990e+01  -2.125100e+02
   9.607873e+01  -1.626854e+02
   1.482647e+02  -3.110449e+01
   7.518400e+01   4.313642e+01
  -2.558703e+01   7.748651e+00
  -3.973231e+01  -7.808928e+01
   6.628276e+01  -1.120045e+02
   1.950902e+02  -3.239623e+01
   1.934272e+02   1.207014e+02
   2.360555e+01   2.200001e+02
  -1.664953e+02   1.671648e+02
  -1.984064e+02   5.430042e+00
  -6.732656e+01  -1.189526e+02
   6.817881e+01  -1.152601e+02
   8.636682e+01  -3.176688e+01
   2.188372e+01   2.668935e+01
  -1.878750e+01   2.084203e+01
   9.399129e+00  -4.665170e+00
   6.679374e+01   1.001512e+01
   8.476953e+01   7.889342e+01
   1.647014e+01   1.538419e+02
  -1.217545e+02   1.518945e+02
  -2.316554e+02   2.947628e+01
  -2.034868e+02  -1.472744e+02
  -4.324187e+01  -2.384992e+02
   1.102561e+02  -1.718731e+02
   1.371692e+02  -2.662454e+01
   6.983201e+01   5.769463e+01
   2.744301e+01   3.701710e+01
   5.269033e+01  -1.179145e+01
   7.784707e+01  -6.535266e+00
   3.914519e+01   4.753759e+01
  -4.184130e+01   8.380190e+01
  -9.741423e+01   5.317442e+01
  -8.107901e+01  -3.265403e+01
   1.172506e+01  -1.058776e+02
   1.358947e+02  -8.548239e+01
   1.946185e+02   4.667165e+01
   1.039825e+02   1.978419e+02
  -1.013430e+02   2.296133e+02
  -2.656958e+02   9.965800e+01
  -2.597570e+02  -8.423914e+01
  -1.119196e+02  -1.778318e+02
   3.829767e+01  -1.489377e+02
   9.552056e+01  -8.483920e+01
   8.090852e+01  -6.905601e+01
   6.792665e+01  -8.965782e+01
   9.203007e+01  -7.271732e+01
   1.267345e+02   2.241718e+01
   1.168076e+02   1.530387e+02
   3.039560e+01   2.250385e+02
  -9.774602e+01   1.727615e+02
  -1.759936e+02   2.245727e+01
  -1.381189e+02  -1.202361e+02
  -2.120366e+01  -1.598975e+02
   6.571669e+01  -9.448034e+01
   5.985652e+01  -3.535428e+00
   6.809255e+00   4.070666e+01
  -7.424715e+00   3.460295e+01
   3.731812e+01   1.952318e+01
   7.756205e+01   2.326822e+01
   4.349155e+01   3.738577e+01
  -6.140936e+01   3.638518e+01
  -1.539478e+02   4.444499e+00
  -1.423377e+02  -4.851340e+01
  -1.846666e+01  -8.667867e+01
   1.171118e+02  -7.417159e+01
   1.442743e+02  -1.498647e+01
   4.922735e+01   3.905650e+01
  -5.947564e+01   3.612893e+01
  -7.489489e+01  -1.885329e+01
  -5.954518e+00  -6.653244e+01
   5.662708e+01  -5.576123e+01
   6.172469e+01   2.625651e+00
   4.145180e+01   4.907488e+01
   4.235563e+01   4.109285e+01
   6.182013e+01   2.563695e+00
   6.580985e+01   5.832793e-01
   3.349831e+01   6.586567e+01
  -3.320821e+01   1.428382e+02
  -1.133725e+02   1.393614e+02
  -1.597335e+02   3.350271e+01
  -1.209476e+02  -8.919891e+01
  -7.641651e+00  -1.238644e+02
   8.368444e+01  -5.987366e+01
   5.881471e+01   1.545577e+01
  -5.871136e+01   1.978727e+01
  -1.368917e+02  -4.341282e+01
  -7.629794e+01  -1.066922e+02
   7.941320e+01  -1.122203e+02
   1.899394e+02  -5.310825e+01
   1.627414e+02   3.229038e+01
   3.826743e+01   8.646577e+01
  -6.009428e+01   7.146931e+01
  -4.904875e+01   8.831837e+00
   3.793582e+01  -2.603937e+01
   8.923282e+01   2.263799e+01
   3.144989e+01   1.177806e+02
  -9.242043e+01   1.521327e+02
  -1.671812e+02   6.008655e+01
  -1.252714e+02  -1.011149e+02
  -9.108670e+00  -1.964451e+02
   8.540966e+01  -1.434723e+02
   1.040209e+02   5.741054e+00
   6.135067e+01   1.166810e+02
   1.856031e-01   1.067062e+02
  -4.464674e+01   2.127499e+01
  -5.281822e+01  -3.096176e+01
  -2.727055e+01  -9.084247e+00
  -3.664750e+00   2.102209e+01
  -1.894585e+01  -1.346123e+01
  -5.493803e+01  -8.736894e+01
  -4.331820e+01  -1.096080e+02
   4.494793e+01  -4.569349e+01
   1.374427e+02   3.964252e+01
   1.300167e+02   7.096706e+01
   1.740583e+01   4.862081e+01
  -8.835034e+01   2.100330e+01
  -8.801723e+01   7.845471e+00
  -9.749393e+00  -6.292372e+00
   3.900934e+01  -2.212151e+01
   1.328438e+01  -1.918325e+01
  -2.225084e+01   7.841752e-01
   6.030362e+00   9.745379e+00
   7.473023e+01   5.192935e+00
   9.019394e+01   2.414858e+01
   5.834110e+00   7.881124e+01
  -1.194265e+02   1.115649e+02
  -1.829494e+02   5.596962e+01
  -1.376023e+02  -6.823017e+01
  -2.374310e+01  -1.605616e+02
   7.809294e+01  -1.471049e+02
   1.123682e+02  -5.634874e+01
   7.958470e+01   2.197506e+01
   2.433456e+01   3.454445e+01
  -3.792698e+00   7.610625e+00
   9.585282e+00   3.100483e+00
   3.327303e+01   4.472998e+01
   2.318876e+01   8.903445e+01
  -2.904699e+01   7.071537e+01
  -8.052528e+01  -1.930638e+01
  -7.506866e+01  -1.084510e+02
  -1.996798e+00  -1.109096e+02
   8.254970e+01  -2.146153e+01
   1.006977e+02   7.675444e+01
   2.981483e+01   1.022103e+02
  -6.603990e+01   5.303910e+01
  -9.540416e+01  -1.265774e+01
  -3.757516e+01  -4.857019e+01
   3.193370e+01  -4.928951e+01
   2.937663e+01  -2.784092e+01
  -3.486871e+01  -9.204353e-01
  -6.860681e+01   5.927239e+00
  -1.409101e+01  -2.432781e+01
   7.863323e+01  -6.498312e+01
   1.135662e+02  -5.867815e+01
   6.182121e+01   1.085809e+01
  -1.623895e+01   8.148680e+01
  -5.159516e+01   7.769782e+01
  -3.487716e+01   4.407613e+00
  -8.062532e-02  -5.565075e+01
   2.579528e+01  -4.117318e+01
   3.552387e+01   1.965502e+01
   2.561141e+01   5.339962e+01
  -3.063592e+00   3.108908e+01
  -3.249588e+01  -9.196977e+00
  -3.880522e+01  -2.008637e+01
  -2.040787e+01  -4.800583e-01
   2.746339e-01   1.283897e+01
   7.139858e+00  -4.923459e+00
   8.622915e+00  -3.656542e+01
   1.892392e+01  -4.219713e+01
   3.233953e+01  -4.797967e+00
   2.748902e+01   4.597694e+01
  -4.952840e+00   5.988775e+01
  -4.473806e+01   1.903042e+01
  -5.427462e+01  -3.993245e+01
  -1.299353e+01  -6.267361e+01
   5.389611e+01  -3.296099e+01
   8.665205e+01   1.626335e+01
   4.785235e+01   4.381608e+01
  -2.852231e+01   3.919609e+01
  -6.373713e+01   1.956150e+01
  -2.302692e+01   4.415858e+00
   3.811739e+01   3.627692e+00
   3.758971e+01   1.747050e+01
  -3.197744e+01   3.146609e+01
  -9.233450e+01   1.834678e+01
