
 $NMID
 id='ANONYMOUS ', fmtdat='(2E16.6)'
 volume=1.0
 tramp=1.0
 $END
   4.424673e+03  -4.179518e+01
   2.571723e+03   2.701744e+03
  -8.193182e+02   2.831906e+03
  -2.225786e+03   8.374507e+02
  -9.590050e+02  -7.884111e+02
   7.420095e+02  -6.514929e+02
   9.658776e+02   4.642301e+02
  -4.796267e+00   1.130852e+03
  -8.711738e+02   8.056385e+02
  -9.733817e+02  -1.198536e+02
  -4.507822e+02  -9.063838e+02
   2.747655e+02  -9.189757e+02
   6.826383e+02  -1.098033e+02
   4.055479e+02   7.518153e+02
  -2.873927e+02   7.727595e+02
  -6.326221e+02  -1.754403e+01
  -2.659142e+02  -7.045840e+02
   3.548501e+02  -6.306268e+02
   6.001957e+02  -6.074700e+01
   3.762777e+02   3.790876e+02
  -2.173756e+00   4.456522e+02
  -2.573281e+02   2.644040e+02
  -2.331524e+02   1.170893e+01
   9.364222e+01  -1.090007e+02
   4.110125e+02   8.215263e+01
   2.281425e+02   4.249066e+02
  -4.405126e+02   4.387775e+02
  -8.643988e+02  -5.132091e+01
  -4.589041e+02  -5.608979e+02
   3.864766e+02  -5.186898e+02
   7.642592e+02   1.376559e+01
   3.671959e+02   4.864969e+02
  -2.756530e+02   5.334068e+02
  -5.708499e+02   2.109323e+02
  -4.249669e+02  -2.325750e+02
  -7.200634e+01  -4.925765e+02
   2.184934e+02  -3.012224e+02
   2.056178e+02   2.243501e+02
  -1.497202e+02   4.705515e+02
  -4.698399e+02   9.429051e+00
  -2.806899e+02  -6.891703e+02
   3.156603e+02  -7.320164e+02
   6.371933e+02  -1.456761e+01
   2.852036e+02   5.767905e+02
  -3.015257e+02   3.472944e+02
  -4.125122e+02  -3.178440e+02
   5.416815e+01  -5.592891e+02
   5.583521e+02  -1.492544e+02
   5.999087e+02   4.017105e+02
   1.658578e+02   5.885188e+02
  -3.858514e+02   3.542198e+02
  -6.349135e+02  -7.187050e+01
  -3.772936e+02  -3.981187e+02
   1.631104e+02  -3.848038e+02
   4.617026e+02  -5.592817e+01
   2.489214e+02   2.197454e+02
  -1.333709e+02   1.251266e+02
  -1.618313e+02  -1.642494e+02
   1.666515e+02  -2.079472e+02
   3.621289e+02   7.225622e+01
   1.460391e+02   3.118486e+02
  -2.101091e+02   2.578262e+02
  -3.261047e+02   5.747217e+01
  -1.778819e+02  -8.676856e+01
   3.264194e+01  -2.001688e+02
   2.047060e+02  -3.038969e+02
   3.199322e+02  -2.203651e+02
   2.924943e+02   1.250076e+02
   8.677860e+01   4.372784e+02
  -1.231538e+02   3.919791e+02
  -1.397095e+02   1.058251e+02
  -2.983394e+01  -3.229599e+01
  -2.625475e+01   7.387322e+01
  -1.750774e+02   1.371612e+02
  -2.748062e+02  -3.592181e+01
  -1.696143e+02  -2.617052e+02
   6.103472e+01  -2.614959e+02
   2.260484e+02  -2.284885e+01
   2.049609e+02   2.302683e+02
   1.668025e-01   2.939181e+02
  -2.600785e+02   1.256153e+02
  -3.617542e+02  -1.584997e+02
  -1.891789e+02  -3.509582e+02
   1.028266e+02  -3.101309e+02
   2.345637e+02  -1.161503e+02
   1.524168e+02   8.333195e+00
   8.946625e+01  -2.446235e+01
   2.166767e+02  -6.519273e+01
   3.843819e+02   4.872849e+01
   3.239180e+02   2.729429e+02
   2.797696e+00   4.289764e+02
  -3.435663e+02   4.026633e+02
  -4.737087e+02   2.009230e+02
  -3.358848e+02  -8.589921e+01
  -6.273476e+01  -2.922922e+02
   1.301523e+02  -2.593822e+02
   9.375775e+01  -3.176183e+01
  -1.016138e+02   1.177634e+02
  -2.027494e+02   4.457515e+00
  -6.088689e+01  -1.996304e+02
   1.622916e+02  -1.840371e+02
   1.894059e+02   5.650123e+01
  -1.088376e+01   2.001135e+02
  -1.943660e+02   4.067887e+01
  -1.625094e+02  -2.429869e+02
   3.274245e+01  -3.415065e+02
   2.226564e+02  -1.826294e+02
   3.093265e+02   6.361226e+01
   2.664095e+02   2.261302e+02
   9.782812e+01   2.507233e+02
  -1.055063e+02   1.586402e+02
  -1.772066e+02   2.514296e+01
  -6.337707e+01  -3.374341e+01
   7.031554e+01   3.160147e+01
   3.646266e+01   1.219792e+02
  -1.184269e+02   1.041937e+02
  -1.796419e+02  -7.226632e+00
  -6.360665e+01  -7.273159e+01
   7.534071e+01  -2.228069e+01
   5.586222e+01   6.527177e+01
  -1.136719e+02   8.173925e+01
  -2.660889e+02   2.864182e+00
  -2.533501e+02  -1.278090e+02
  -6.479073e+01  -2.422663e+02
   1.711108e+02  -2.570365e+02
   2.761763e+02  -1.303925e+02
   1.729536e+02   4.908084e+01
  -2.038672e+01   1.134164e+02
  -9.370392e+01   1.297456e+01
   2.545962e+01  -1.021215e+02
   1.905331e+02  -6.470047e+01
   2.130343e+02   9.704739e+01
   7.206526e+01   2.055327e+02
  -9.127941e+01   1.592186e+02
  -1.435142e+02   3.250230e+01
  -7.469883e+01  -4.001947e+01
   2.182447e+01  -7.916308e+00
   3.691286e+01   7.285023e+01
  -6.273497e+01   1.057802e+02
  -1.862244e+02   3.137618e+01
  -1.865872e+02  -1.149593e+02
  -2.443146e+01  -2.122561e+02
   1.601650e+02  -1.632354e+02
   1.933776e+02  -6.717130e+00
   6.745589e+01   1.153801e+02
  -6.477227e+01   1.129653e+02
  -8.383554e+01   3.226682e+01
  -2.242144e+01  -2.444799e+01
   1.630427e+01  -1.953118e+01
  -1.056086e+01   3.395891e+00
  -6.416185e+01  -1.181529e+01
  -7.990971e+01  -7.690479e+01
  -1.474142e+01  -1.470273e+02
   1.165079e+02  -1.452464e+02
   2.220486e+02  -2.917358e+01
   1.964832e+02   1.407557e+02
   4.295392e+01   2.305159e+02
  -1.060595e+02   1.674201e+02
  -1.332604e+02   2.612458e+01
  -6.823021e+01  -5.672748e+01
  -2.673766e+01  -3.663832e+01
  -5.092345e+01   1.106387e+01
  -7.469994e+01   5.626389e+00
  -3.619267e+01  -4.657444e+01
   4.207353e+01  -7.986031e+01
   9.372302e+01  -4.880929e+01
   7.606574e+01   3.268186e+01
  -1.266473e+01   1.005497e+02
  -1.300293e+02   8.040951e+01
  -1.860523e+02  -4.473601e+01
  -1.005297e+02  -1.888779e+02
   9.591522e+01  -2.206545e+02
   2.552380e+02  -9.731016e+01
   2.514342e+02   7.979466e+01
   1.096005e+02   1.713006e+02
  -3.602813e+01   1.444169e+02
  -9.228576e+01   8.280447e+01
  -7.882316e+01   6.751458e+01
  -6.646895e+01   8.706338e+01
  -8.947074e+01   7.002999e+01
  -1.224886e+02  -2.219140e+01
  -1.127476e+02  -1.479452e+02
  -2.966521e+01  -2.171253e+02
   9.376388e+01  -1.671511e+02
   1.695862e+02  -2.283283e+01
   1.336980e+02   1.148811e+02
   2.151443e+01   1.538533e+02
  -6.193476e+01   9.141757e+01
  -5.643065e+01   4.244961e+00
  -6.293157e+00  -3.786004e+01
   6.172962e+00  -3.201658e+01
  -3.715155e+01  -1.857964e+01
  -7.494566e+01  -2.324374e+01
  -4.147336e+01  -3.641111e+01
   5.890900e+01  -3.415555e+01
   1.471833e+02  -3.341813e+00
   1.363848e+02   4.610413e+01
   1.817045e+01   8.177607e+01
  -1.120881e+02   7.054699e+01
  -1.386506e+02   1.500681e+01
  -4.707720e+01  -3.673456e+01
   5.796793e+01  -3.446408e+01
   7.224970e+01   1.846240e+01
   4.533027e+00   6.479898e+01
  -5.601351e+01   5.406305e+01
  -5.961722e+01  -3.296784e+00
  -3.903205e+01  -4.846889e+01
  -4.045930e+01  -3.996309e+01
  -6.015610e+01  -2.047452e+00
  -6.360701e+01  -4.505342e-01
  -3.130410e+01  -6.402938e+01
   3.310587e+01  -1.379143e+02
   1.092800e+02  -1.334698e+02
   1.531617e+02  -3.095761e+01
   1.159530e+02   8.652392e+01
   7.080944e+00   1.187732e+02
  -8.100629e+01   5.671189e+01
  -5.697847e+01  -1.543937e+01
   5.682939e+01  -1.913983e+01
   1.326367e+02   4.178154e+01
   7.415509e+01   1.026900e+02
  -7.621894e+01   1.083864e+02
  -1.829487e+02   5.203289e+01
  -1.570612e+02  -3.017347e+01
  -3.757371e+01  -8.307758e+01
   5.707060e+01  -6.940969e+01
   4.672197e+01  -9.165215e+00
  -3.688429e+01   2.473931e+01
  -8.628745e+01  -2.228836e+01
  -3.010406e+01  -1.145768e+02
   9.033530e+01  -1.478239e+02
   1.629075e+02  -5.821019e+01
   1.217744e+02   9.838209e+01
   8.766692e+00   1.906887e+02
  -8.249603e+01   1.391583e+02
  -1.001686e+02  -5.165334e+00
  -5.948088e+01  -1.121118e+02
  -1.268816e+00  -1.024397e+02
   4.229067e+01  -2.047623e+01
   5.140262e+01   2.930617e+01
   2.707139e+01   8.135075e+00
   3.160981e+00  -2.036427e+01
   1.713784e+01   1.336308e+01
   5.280792e+01   8.448457e+01
   4.288829e+01   1.054153e+02
  -4.258229e+01   4.362182e+01
  -1.331718e+02  -3.827347e+01
  -1.262625e+02  -6.813031e+01
  -1.647487e+01  -4.680825e+01
   8.619735e+01  -2.062164e+01
   8.503507e+01  -7.860081e+00
   8.629642e+00   6.314461e+00
  -3.791857e+01   2.176704e+01
  -1.204309e+01   1.848234e+01
   2.215154e+01  -1.107858e+00
  -6.303254e+00  -9.433848e+00
  -7.316142e+01  -4.779533e+00
  -8.724443e+01  -2.366902e+01
  -4.610640e+00  -7.720410e+01
   1.166221e+02  -1.083899e+02
   1.773774e+02  -5.319384e+01
   1.329193e+02   6.758880e+01
   2.259362e+01   1.559668e+02
  -7.594804e+01   1.416655e+02
  -1.090852e+02   5.367780e+01
  -7.711784e+01  -2.147358e+01
  -2.317542e+01  -3.336236e+01
   4.402190e+00  -7.492215e+00
  -8.653386e+00  -2.995884e+00
  -3.204676e+01  -4.278770e+01
  -2.259898e+01  -8.560180e+01
   2.814400e+01  -6.831774e+01
   7.831208e+01   1.875879e+01
   7.282861e+01   1.056257e+02
   1.290343e+00   1.081762e+02
  -8.103668e+01   2.071029e+01
  -9.797138e+01  -7.526463e+01
  -2.820419e+01  -9.955612e+01
   6.480378e+01  -5.081985e+01
   9.216494e+01   1.312736e+01
   3.522245e+01   4.702785e+01
  -3.162721e+01   4.681744e+01
  -2.790914e+01   2.609167e+01
   3.470011e+01   6.563556e-01
   6.659398e+01  -5.585620e+00
   1.318454e+01   2.366999e+01
  -7.610354e+01   6.284386e+01
  -1.090407e+02   5.654893e+01
  -5.884289e+01  -1.082192e+01
   1.611149e+01  -7.881169e+01
   4.993226e+01  -7.439888e+01
   3.376835e+01  -3.076387e+00
  -8.210014e-02   5.452942e+01
  -2.557597e+01   3.958827e+01
  -3.495348e+01  -1.962915e+01
  -2.458165e+01  -5.184705e+01
   3.710155e+00  -2.975555e+01
   3.168308e+01   9.194258e+00
   3.698615e+01   1.936144e+01
   1.940722e+01   2.507656e-01
   4.324231e-01  -1.228168e+01
  -5.990341e+00   5.539070e+00
  -8.704993e+00   3.651392e+01
  -2.003135e+01   4.148981e+01
  -3.279486e+01   4.072933e+00
  -2.662535e+01  -4.604142e+01
   5.775712e+00  -5.920397e+01
   4.400834e+01  -1.834712e+01
   5.252338e+01   3.962072e+01
   1.235795e+01   6.123681e+01
  -5.219904e+01   3.149413e+01
  -8.380350e+01  -1.648835e+01
  -4.615783e+01  -4.264383e+01
   2.804719e+01  -3.755472e+01
   6.218479e+01  -1.832013e+01
   2.212775e+01  -3.707308e+00
  -3.790920e+01  -3.215769e+00
  -3.737372e+01  -1.723336e+01
   3.099821e+01  -3.139789e+01
   9.030355e+01  -1.858059e+01
