
 $NMID
 id='ANONYMOUS ', fmtdat='(2E16.6)'
 volume=1.0
 tramp=1.0
 $END
  -4.653188e+03  -4.690885e+01
  -2.623469e+03  -2.875160e+03
   9.220001e+02  -2.917644e+03
   2.314066e+03  -8.064672e+02
   9.381900e+02   8.332960e+02
  -8.129167e+02   6.310247e+02
  -9.899446e+02  -5.308053e+02
   4.702009e+01  -1.184679e+03
   9.327344e+02  -8.158540e+02
   1.008379e+03   1.507439e+02
   4.443356e+02   9.548742e+02
  -3.094849e+02   9.458093e+02
  -7.126352e+02   8.792104e+01
  -4.016930e+02  -8.017306e+02
   3.194789e+02  -7.994761e+02
   6.580278e+02   3.552241e+01
   2.626104e+02   7.386050e+02
  -3.751606e+02   6.455543e+02
  -6.160392e+02   5.280302e+01
  -3.801449e+02  -3.949491e+02
   9.416579e+00  -4.589718e+02
   2.723247e+02  -2.678392e+02
   2.406672e+02  -7.476132e-01
  -1.121558e+02   1.205209e+02
  -4.446376e+02  -9.590319e+01
  -2.347830e+02  -4.631277e+02
   4.819776e+02  -4.622103e+02
   9.171513e+02   7.312098e+01
   4.677239e+02   6.064100e+02
  -4.284033e+02   5.401107e+02
  -8.109655e+02  -3.368518e+01
  -3.764831e+02  -5.239838e+02
   3.030969e+02  -5.589030e+02
   6.057103e+02  -2.124010e+02
   4.409583e+02   2.523560e+02
   6.213482e+01   5.170280e+02
  -2.384554e+02   3.035381e+02
  -2.069994e+02  -2.526482e+02
   1.790740e+02  -4.964454e+02
   5.040210e+02   8.685048e+00
   2.805199e+02   7.425071e+02
  -3.529098e+02   7.641194e+02
  -6.708516e+02  -6.935233e+00
  -2.809527e+02  -6.179265e+02
   3.316319e+02  -3.543718e+02
   4.297487e+02   3.507605e+02
  -6.962271e+01   5.914507e+02
  -5.931363e+02   1.478156e+02
  -6.270959e+02  -4.312089e+02
  -1.663584e+02  -6.193851e+02
   4.121041e+02  -3.652917e+02
   6.662055e+02   8.509071e+01
   3.854253e+02   4.219143e+02
  -1.830709e+02   3.962287e+02
  -4.835361e+02   4.585158e+01
  -2.481458e+02  -2.340057e+02
   1.474898e+02  -1.218470e+02
   1.620098e+02   1.806758e+02
  -1.856521e+02   2.137313e+02
  -3.787030e+02  -8.591012e+01
  -1.445774e+02  -3.295601e+02
   2.222640e+02  -2.662234e+02
   3.372078e+02  -6.034260e+01
   1.869981e+02   8.565250e+01
  -2.671492e+01   2.090049e+02
  -2.113257e+02   3.245224e+02
  -3.404484e+02   2.340225e+02
  -3.095792e+02  -1.358667e+02
  -8.482453e+01  -4.622667e+02
   1.356518e+02  -4.056985e+02
   1.429234e+02  -1.026627e+02
   2.195500e+01   3.414687e+01
   2.462979e+01  -8.491541e+01
   1.895979e+02  -1.489024e+02
   2.943736e+02   4.053239e+01
   1.773918e+02   2.807498e+02
  -6.940802e+01   2.770461e+02
  -2.419609e+02   2.116350e+01
  -2.157857e+02  -2.471806e+02
   3.534891e+00  -3.121458e+02
   2.779004e+02  -1.304641e+02
   3.806634e+02   1.711722e+02
   1.942148e+02   3.707511e+02
  -1.120676e+02   3.221319e+02
  -2.443512e+02   1.166474e+02
  -1.541285e+02  -9.791318e+00
  -9.087867e+01   2.929937e+01
  -2.294876e+02   7.213072e+01
  -4.067319e+02  -5.031507e+01
  -3.412126e+02  -2.878153e+02
  -2.394051e+00  -4.524987e+02
   3.623723e+02  -4.246307e+02
   5.000384e+02  -2.101632e+02
   3.537498e+02   9.449600e+01
   6.239981e+01   3.103170e+02
  -1.418004e+02   2.698201e+02
  -9.846019e+01   2.750971e+01
   1.123019e+02  -1.247337e+02
   2.160921e+02   7.053342e-01
   5.961028e+01   2.136530e+02
  -1.765612e+02   1.900230e+02
  -1.987828e+02  -6.535511e+01
   1.665619e+01  -2.115990e+02
   2.071717e+02  -4.003963e+01
   1.694963e+02   2.565090e+02
  -3.538285e+01   3.577828e+02
  -2.326036e+02   1.924610e+02
  -3.244683e+02  -6.436089e+01
  -2.817384e+02  -2.372884e+02
  -1.038814e+02  -2.661498e+02
   1.124670e+02  -1.680629e+02
   1.876604e+02  -2.418234e+01
   6.522315e+01   3.764347e+01
  -7.591102e+01  -3.462490e+01
  -3.753662e+01  -1.310678e+02
   1.273004e+02  -1.096640e+02
   1.901946e+02   1.029786e+01
   6.551536e+01   7.888905e+01
  -8.162324e+01   2.381083e+01
  -6.053933e+01  -6.983986e+01
   1.190841e+02  -8.801910e+01
   2.811866e+02  -4.890862e+00
   2.688251e+02   1.345490e+02
   6.900200e+01   2.572446e+02
  -1.819750e+02   2.722332e+02
  -2.929201e+02   1.358232e+02
  -1.814740e+02  -5.452235e+01
   2.416179e+01  -1.198937e+02
   9.983424e+01  -1.137745e+01
  -2.847037e+01   1.092472e+02
  -2.026012e+02   6.716075e+01
  -2.241276e+02  -1.043084e+02
  -7.394602e+01  -2.173450e+02
   9.803050e+01  -1.669244e+02
   1.520472e+02  -3.249381e+01
   7.820728e+01   4.428583e+01
  -2.495011e+01   9.817962e+00
  -4.125747e+01  -7.719184e+01
   6.518719e+01  -1.133815e+02
   1.970023e+02  -3.430714e+01
   1.971617e+02   1.215427e+02
   2.487497e+01   2.240854e+02
  -1.696658e+02   1.708227e+02
  -2.029555e+02   5.154219e+00
  -6.911221e+01  -1.223561e+02
   6.966030e+01  -1.183359e+02
   8.876211e+01  -3.269781e+01
   2.358489e+01   2.726855e+01
  -1.788007e+01   2.200884e+01
   9.510510e+00  -3.345329e+00
   6.631016e+01   1.086832e+01
   8.473376e+01   7.912894e+01
   1.719486e+01   1.546787e+02
  -1.221109e+02   1.541624e+02
  -2.346995e+02   3.131839e+01
  -2.073753e+02  -1.486662e+02
  -4.436889e+01  -2.427502e+02
   1.124798e+02  -1.752929e+02
   1.397466e+02  -2.676201e+01
   7.059926e+01   5.943006e+01
   2.741660e+01   3.807750e+01
   5.326973e+01  -1.181665e+01
   7.834532e+01  -6.650423e+00
   3.861711e+01   4.752372e+01
  -4.249704e+01   8.354804e+01
  -9.710282e+01   5.307933e+01
  -8.058614e+01  -3.224014e+01
   1.140968e+01  -1.058530e+02
   1.359959e+02  -8.656668e+01
   1.968283e+02   4.597139e+01
   1.069435e+02   1.997773e+02
  -1.012015e+02   2.336912e+02
  -2.695644e+02   1.024966e+02
  -2.647572e+02  -8.502886e+01
  -1.145425e+02  -1.810979e+02
   3.873028e+01  -1.519503e+02
   9.742108e+01  -8.646554e+01
   8.285946e+01  -7.003215e+01
   6.955066e+01  -9.066383e+01
   9.347879e+01  -7.335871e+01
   1.282927e+02   2.299146e+01
   1.184421e+02   1.552442e+02
   3.118145e+01   2.283900e+02
  -9.900776e+01   1.758244e+02
  -1.790680e+02   2.358234e+01
  -1.410558e+02  -1.215737e+02
  -2.237176e+01  -1.625906e+02
   6.606726e+01  -9.688325e+01
   6.062425e+01  -4.811546e+00
   7.682922e+00   4.048385e+01
  -6.228076e+00   3.509883e+01
   3.852261e+01   2.034843e+01
   7.824299e+01   2.394105e+01
   4.371762e+01   3.772457e+01
  -6.151333e+01   3.674502e+01
  -1.549446e+02   5.056205e+00
  -1.444014e+02  -4.817957e+01
  -2.009168e+01  -8.728362e+01
   1.176778e+02  -7.543051e+01
   1.463863e+02  -1.590714e+01
   5.035096e+01   3.888955e+01
  -6.029741e+01   3.616478e+01
  -7.579782e+01  -1.916236e+01
  -5.198266e+00  -6.699372e+01
   5.813953e+01  -5.587677e+01
   6.216050e+01   2.979509e+00
   4.097720e+01   4.963504e+01
   4.262019e+01   4.152398e+01
   6.317783e+01   2.665660e+00
   6.685572e+01   5.489823e-01
   3.329284e+01   6.635575e+01
  -3.407276e+01   1.442782e+02
  -1.141924e+02   1.410605e+02
  -1.607031e+02   3.410348e+01
  -1.221288e+02  -9.009626e+01
  -8.183581e+00  -1.251029e+02
   8.428233e+01  -6.017007e+01
   5.943952e+01   1.599217e+01
  -5.963070e+01   2.003081e+01
  -1.391718e+02  -4.419236e+01
  -7.786263e+01  -1.083448e+02
   8.032090e+01  -1.141704e+02
   1.929140e+02  -5.457106e+01
   1.656825e+02   3.218943e+01
   3.938543e+01   8.789373e+01
  -6.075139e+01   7.328654e+01
  -4.985964e+01   9.651399e+00
   3.833683e+01  -2.610077e+01
   9.032499e+01   2.318799e+01
   3.132602e+01   1.196787e+02
  -9.472854e+01   1.541122e+02
  -1.703328e+02   6.021557e+01
  -1.270299e+02  -1.033394e+02
  -8.708545e+00  -1.996999e+02
   8.696579e+01  -1.458415e+02
   1.056352e+02   5.442877e+00
   6.273414e+01   1.182398e+02
   1.079212e+00   1.086482e+02
  -4.488025e+01   2.207268e+01
  -5.413102e+01  -3.136919e+01
  -2.838092e+01  -9.372817e+00
  -3.581709e+00   2.158597e+01
  -1.849513e+01  -1.310335e+01
  -5.559215e+01  -8.851206e+01
  -4.471725e+01  -1.116304e+02
   4.491132e+01  -4.665308e+01
   1.396496e+02   4.042750e+01
   1.324832e+02   7.219526e+01
   1.761874e+01   4.905100e+01
  -9.021340e+01   2.095756e+01
  -8.947768e+01   8.096603e+00
  -9.403014e+00  -6.006078e+00
   3.992025e+01  -2.248469e+01
   1.309759e+01  -1.992580e+01
  -2.307806e+01   5.543738e-01
   6.318648e+00   1.018615e+01
   7.639497e+01   5.740213e+00
   9.136086e+01   2.470328e+01
   4.832961e+00   7.980911e+01
  -1.220762e+02   1.127284e+02
  -1.853645e+02   5.604896e+01
  -1.386042e+02  -6.993251e+01
  -2.344838e+01  -1.630745e+02
   7.915996e+01  -1.487686e+02
   1.137747e+02  -5.653750e+01
   8.070804e+01   2.253242e+01
   2.455646e+01   3.483868e+01
  -4.256542e+00   7.334814e+00
   9.459135e+00   2.775145e+00
   3.398383e+01   4.513333e+01
   2.388118e+01   9.027324e+01
  -2.949738e+01   7.170655e+01
  -8.187067e+01  -1.993827e+01
  -7.580177e+01  -1.105887e+02
  -1.137758e+00  -1.125973e+02
   8.430701e+01  -2.099607e+01
   1.018108e+02   7.877112e+01
   2.951052e+01   1.036950e+02
  -6.718394e+01   5.303131e+01
  -9.625525e+01  -1.322038e+01
  -3.759581e+01  -4.866523e+01
   3.224750e+01  -4.919234e+01
   2.910520e+01  -2.818665e+01
  -3.596726e+01  -1.443072e+00
  -6.966345e+01   5.772502e+00
  -1.401126e+01  -2.449453e+01
   7.987420e+01  -6.589316e+01
   1.148394e+02  -5.990574e+01
   6.213903e+01   1.061618e+01
  -1.670335e+01   8.246462e+01
  -5.197233e+01   7.850000e+01
  -3.470055e+01   3.913379e+00
   4.456796e-01  -5.670547e+01
   2.633981e+01  -4.129873e+01
   3.593642e+01   2.060500e+01
   2.576729e+01   5.419328e+01
  -3.263303e+00   3.096550e+01
  -3.291246e+01  -9.638392e+00
  -3.918258e+01  -2.004881e+01
  -2.070101e+01  -2.022435e-01
   4.823164e-02   1.254869e+01
   7.321194e+00  -5.893210e+00
   9.631461e+00  -3.739711e+01
   2.040381e+01  -4.207179e+01
   3.315256e+01  -3.681504e+00
   2.694101e+01   4.740162e+01
  -6.271305e+00   6.075509e+01
  -4.571355e+01   1.882054e+01
  -5.448106e+01  -4.102133e+01
  -1.268929e+01  -6.377385e+01
   5.452535e+01  -3.321979e+01
   8.749123e+01   1.688361e+01
   4.833821e+01   4.454446e+01
  -2.896013e+01   3.933827e+01
  -6.458375e+01   1.923365e+01
  -2.297142e+01   4.310688e+00
   3.932913e+01   4.207800e+00
   3.839249e+01   1.852109e+01
  -3.309520e+01   3.230747e+01
  -9.468926e+01   1.833719e+01
