
 $NMID
 id='ANONYMOUS ', fmtdat='(2E16.6)'
 volume=1.0
 tramp=1.0
 $END
   4.766148e+03   3.627518e+00
   2.741871e+03   2.930517e+03
  -9.038579e+02   3.036110e+03
  -2.395444e+03   8.846230e+02
  -1.022183e+03  -8.456232e+02
   7.994055e+02  -6.850286e+02
   1.028247e+03   5.092833e+02
  -1.856713e+01   1.213169e+03
  -9.441038e+02   8.567166e+02
  -1.044672e+03  -1.373634e+02
  -4.761238e+02  -9.778715e+02
   3.027958e+02  -9.848422e+02
   7.325596e+02  -1.110614e+02
   4.268985e+02   8.123710e+02
  -3.165340e+02   8.280818e+02
  -6.795336e+02  -2.470657e+01
  -2.801805e+02  -7.604263e+02
   3.856276e+02  -6.767848e+02
   6.457147e+02  -6.273090e+01
   4.029389e+02   4.094717e+02
  -4.815961e+00   4.794461e+02
  -2.785540e+02   2.822940e+02
  -2.491898e+02   1.043498e+01
   1.050653e+02  -1.145363e+02
   4.430117e+02   9.639476e+01
   2.387300e+02   4.622191e+02
  -4.825999e+02   4.665174e+02
  -9.311009e+02  -6.708644e+01
  -4.860912e+02  -6.091676e+02
   4.237702e+02  -5.520583e+02
   8.229948e+02   2.537002e+01
   3.890498e+02   5.286299e+02
  -3.038618e+02   5.713391e+02
  -6.178267e+02   2.208889e+02
  -4.552593e+02  -2.548226e+02
  -7.232873e+01  -5.302831e+02
   2.368956e+02  -3.205429e+02
   2.156190e+02   2.441448e+02
  -1.687831e+02   5.028922e+02
  -5.051052e+02   1.785868e+00
  -2.918941e+02  -7.465271e+02
   3.488725e+02  -7.836759e+02
   6.844003e+02  -7.596705e+00
   2.988085e+02   6.233246e+02
  -3.282954e+02   3.685395e+02
  -4.392020e+02  -3.483067e+02
   6.565611e+01  -6.019934e+02
   6.038809e+02  -1.541714e+02
   6.430118e+02   4.399604e+02
   1.732455e+02   6.363441e+02
  -4.195709e+02   3.775604e+02
  -6.838810e+02  -8.404675e+01
  -4.026984e+02  -4.317689e+02
   1.791309e+02  -4.112955e+02
   4.967773e+02  -5.551146e+01
   2.652443e+02   2.370934e+02
  -1.438985e+02   1.314917e+02
  -1.709235e+02  -1.780669e+02
   1.820775e+02  -2.205611e+02
   3.886056e+02   8.193390e+01
   1.539064e+02   3.367544e+02
  -2.285971e+02   2.762439e+02
  -3.526854e+02   6.059226e+01
  -1.929568e+02  -9.485344e+01
   3.595384e+01  -2.178668e+02
   2.248939e+02  -3.283764e+02
   3.490211e+02  -2.348666e+02
   3.145080e+02   1.387586e+02
   8.876232e+01   4.726004e+02
  -1.358507e+02   4.208639e+02
  -1.496715e+02   1.132702e+02
  -3.096431e+01  -3.304326e+01
  -3.042325e+01   8.112889e+01
  -1.922762e+02   1.460462e+02
  -2.969002e+02  -4.283866e+01
  -1.797852e+02  -2.849825e+02
   6.937463e+01  -2.813593e+02
   2.445310e+02  -2.142766e+01
   2.185497e+02   2.515171e+02
  -3.527346e+00   3.174340e+02
  -2.825605e+02   1.323948e+02
  -3.889364e+02  -1.752112e+02
  -2.006597e+02  -3.804436e+02
   1.134822e+02  -3.332701e+02
   2.532791e+02  -1.235345e+02
   1.639373e+02   9.052706e+00
   9.749922e+01  -2.678337e+01
   2.359862e+02  -6.859726e+01
   4.158836e+02   5.661866e+01
   3.478794e+02   2.983761e+02
  -1.164435e+00   4.641264e+02
  -3.756506e+02   4.324380e+02
  -5.141985e+02   2.126019e+02
  -3.617017e+02  -9.647211e+01
  -6.421758e+01  -3.162507e+02
   1.429414e+02  -2.780044e+02
   1.003354e+02  -3.294532e+01
  -1.117509e+02   1.253307e+02
  -2.184339e+02   1.791362e+00
  -6.277354e+01  -2.158744e+02
   1.770110e+02  -1.959257e+02
   2.029887e+02   6.333586e+01
  -1.436463e+01   2.153086e+02
  -2.102899e+02   4.135238e+01
  -1.732759e+02  -2.640962e+02
   3.824515e+01  -3.688041e+02
   2.424357e+02  -1.959962e+02
   3.345775e+02   7.111395e+01
   2.864855e+02   2.473177e+02
   1.031344e+02   2.726041e+02
  -1.159953e+02   1.704634e+02
  -1.915465e+02   2.508706e+01
  -6.761576e+01  -3.696359e+01
   7.567187e+01   3.541325e+01
   3.763153e+01   1.323903e+02
  -1.293548e+02   1.110385e+02
  -1.937887e+02  -9.992993e+00
  -6.746602e+01  -7.918195e+01
   8.204228e+01  -2.291974e+01
   5.976305e+01   7.165063e+01
  -1.241315e+02   8.773828e+01
  -2.884686e+02   6.127406e-01
  -2.731650e+02  -1.410919e+02
  -6.745685e+01  -2.631284e+02
   1.880588e+02  -2.762819e+02
   2.998970e+02  -1.378968e+02
   1.859564e+02   5.484450e+01
  -2.349171e+01   1.219520e+02
  -1.010983e+02   1.266750e+01
   2.905746e+01  -1.100534e+02
   2.067312e+02  -6.769276e+01
   2.290953e+02   1.071414e+02
   7.566535e+01   2.226943e+02
  -1.002596e+02   1.709121e+02
  -1.552756e+02   3.345000e+01
  -7.991083e+01  -4.410792e+01
   2.423497e+01  -8.062942e+00
   3.940571e+01   7.976590e+01
  -6.922370e+01   1.142847e+02
  -2.021694e+02   3.215497e+01
  -2.007835e+02  -1.263131e+02
  -2.425618e+01  -2.297465e+02
   1.746591e+02  -1.747977e+02
   2.087796e+02  -5.441739e+00
   7.152415e+01   1.251066e+02
  -7.113229e+01   1.212290e+02
  -9.076038e+01   3.389474e+01
  -2.367889e+01  -2.681207e+01
   1.822901e+01  -2.096785e+01
  -1.123683e+01   3.925701e+00
  -6.954704e+01  -1.292124e+01
  -8.624273e+01  -8.388939e+01
  -1.480242e+01  -1.595896e+02
   1.276203e+02  -1.563405e+02
   2.407528e+02  -2.937794e+01
   2.112409e+02   1.542635e+02
   4.425821e+01   2.496130e+02
  -1.161489e+02   1.798799e+02
  -1.441935e+02   2.709438e+01
  -7.324193e+01  -6.168652e+01
  -2.863168e+01  -3.966521e+01
  -5.520215e+01   1.160080e+01
  -8.101144e+01   5.547768e+00
  -3.913532e+01  -5.068518e+01
   4.594430e+01  -8.638151e+01
   1.020808e+02  -5.249044e+01
   8.255516e+01   3.594870e+01
  -1.442266e+01   1.091199e+02
  -1.417731e+02   8.621573e+01
  -2.012521e+02  -5.021125e+01
  -1.069391e+02  -2.056333e+02
   1.061435e+02  -2.379544e+02
   2.771504e+02  -1.027550e+02
   2.710802e+02   8.875706e+01
   1.167514e+02   1.862287e+02
  -4.036703e+01   1.557291e+02
  -1.004717e+02   8.861075e+01
  -8.564725e+01   7.224586e+01
  -7.243985e+01   9.358547e+01
  -9.728612e+01   7.507721e+01
  -1.323419e+02  -2.494078e+01
  -1.207245e+02  -1.609918e+02
  -3.014749e+01  -2.351615e+02
   1.029767e+02  -1.799085e+02
   1.836451e+02  -2.298022e+01
   1.434896e+02   1.256572e+02
   2.169650e+01   1.666606e+02
  -6.808694e+01   9.820986e+01
  -6.130069e+01   3.830298e+00
  -6.427516e+00  -4.133083e+01
   7.266352e+00  -3.479197e+01
  -3.978247e+01  -2.038845e+01
  -8.092946e+01  -2.562792e+01
  -4.468564e+01  -3.972484e+01
   6.417978e+01  -3.661420e+01
   1.596328e+02  -2.429207e+00
   1.473090e+02   5.128457e+01
   1.873504e+01   8.899204e+01
  -1.221561e+02   7.549877e+01
  -1.502209e+02   1.488116e+01
  -5.063143e+01  -4.038190e+01
   6.293142e+01  -3.691445e+01
   7.803826e+01   2.054755e+01
   4.638958e+00   7.012255e+01
  -6.077263e+01   5.806492e+01
  -6.452427e+01  -3.922324e+00
  -4.209744e+01  -5.262745e+01
  -4.353893e+01  -4.355800e+01
  -6.493385e+01  -2.784060e+00
  -6.878772e+01  -1.052868e+00
  -3.356212e+01  -6.953237e+01
   3.678964e+01  -1.490001e+02
   1.194969e+02  -1.436631e+02
   1.662924e+02  -3.237494e+01
   1.249001e+02   9.458727e+01
   6.635047e+00   1.287481e+02
  -8.816885e+01   6.089784e+01
  -6.151089e+01  -1.707306e+01
   6.161440e+01  -2.022139e+01
   1.430292e+02   4.633489e+01
   7.921639e+01   1.117628e+02
  -8.348195e+01   1.165601e+02
  -1.984045e+02   5.452829e+01
  -1.695945e+02  -3.420637e+01
  -3.977454e+01  -9.023636e+01
   6.250325e+01  -7.444332e+01
   5.070598e+01  -9.333149e+00
  -4.009548e+01   2.654931e+01
  -9.316585e+01  -2.475725e+01
  -3.170242e+01  -1.240602e+02
   9.870426e+01  -1.590414e+02
   1.764239e+02  -6.164913e+01
   1.307864e+02   1.072656e+02
   7.927787e+00   2.061681e+02
  -9.039144e+01   1.497127e+02
  -1.083489e+02  -6.548525e+00
  -6.329209e+01  -1.218941e+02
  -2.219837e-01  -1.108717e+02
   4.610116e+01  -2.173807e+01
   5.522934e+01   3.223647e+01
   2.901616e+01   9.106490e+00
   3.667088e+00  -2.196096e+01
   1.869066e+01   1.461960e+01
   5.646181e+01   9.184731e+01
   4.524172e+01   1.144156e+02
  -4.664933e+01   4.686416e+01
  -1.436479e+02  -4.251694e+01
  -1.358324e+02  -7.481745e+01
  -1.747768e+01  -5.083550e+01
   9.322149e+01  -2.156722e+01
   9.203078e+01  -7.717226e+00
   9.460767e+00   6.917794e+00
  -4.112612e+01   2.315872e+01
  -1.335148e+01   1.983868e+01
   2.381035e+01  -9.881164e-01
  -6.641507e+00  -1.021788e+01
  -7.888473e+01  -5.770017e+00
  -9.417728e+01  -2.627284e+01
  -4.619292e+00  -8.341618e+01
   1.267808e+02  -1.162237e+02
   1.922709e+02  -5.625195e+01
   1.433392e+02   7.391080e+01
   2.324161e+01   1.687620e+02
  -8.330124e+01   1.527265e+02
  -1.184127e+02   5.732800e+01
  -8.320915e+01  -2.382124e+01
  -2.485162e+01  -3.631604e+01
   4.664280e+00  -8.095857e+00
  -9.459270e+00  -3.362026e+00
  -3.428680e+01  -4.665426e+01
  -2.364084e+01  -9.286170e+01
   3.101267e+01  -7.366738e+01
   8.445518e+01   2.090047e+01
   7.788110e+01   1.146850e+02
   6.802877e-01   1.168691e+02
  -8.757663e+01   2.181428e+01
  -1.052810e+02  -8.197432e+01
  -2.984308e+01  -1.078160e+02
   7.036349e+01  -5.458322e+01
   9.965697e+01   1.480597e+01
   3.792769e+01   5.123611e+01
  -3.451682e+01   5.059779e+01
  -3.057300e+01   2.811346e+01
   3.730532e+01   9.757977e-01
   7.203199e+01  -5.525181e+00
   1.416029e+01   2.571687e+01
  -8.282937e+01   6.732658e+01
  -1.185868e+02   6.021358e+01
  -6.376638e+01  -1.221112e+01
   1.800982e+01  -8.513076e+01
   5.468477e+01  -8.019537e+01
   3.663186e+01  -3.286258e+00
  -4.633309e-01   5.884174e+01
  -2.788613e+01   4.269490e+01
  -3.756265e+01  -2.135245e+01
  -2.620013e+01  -5.625525e+01
   4.136418e+00  -3.227161e+01
   3.415906e+01   1.013131e+01
   3.994316e+01   2.130890e+01
   2.103797e+01   5.050624e-01
   4.396680e-01  -1.336119e+01
  -6.652117e+00   5.709741e+00
  -9.559993e+00   3.921006e+01
  -2.160973e+01   4.469788e+01
  -3.523666e+01   4.361001e+00
  -2.851994e+01  -4.969532e+01
   6.447098e+00  -6.379544e+01
   4.760455e+01  -1.953910e+01
   5.654034e+01   4.308883e+01
   1.293727e+01   6.622246e+01
  -5.673595e+01   3.370312e+01
  -9.055454e+01  -1.838781e+01
  -4.960477e+01  -4.646621e+01
   3.058498e+01  -4.048651e+01
   6.734508e+01  -1.945088e+01
   2.403596e+01  -3.925992e+00
  -4.073600e+01  -3.777864e+00
  -4.009217e+01  -1.880687e+01
   3.370154e+01  -3.350277e+01
   9.755231e+01  -1.923671e+01
