
 $NMID
 id='ANONYMOUS ', fmtdat='(2E16.6)'
 volume=1.0
 tramp=1.0
 $END
   4.630240e+03   4.179064e+01
   2.617710e+03   2.843714e+03
  -8.951501e+02   2.895922e+03
  -2.281641e+03   8.199433e+02
  -9.324289e+02  -8.010821e+02
   7.938330e+02  -6.135001e+02
   9.725304e+02   5.236287e+02
  -4.673167e+01   1.169632e+03
  -9.212288e+02   8.104889e+02
  -9.992958e+02  -1.439870e+02
  -4.446711e+02  -9.434386e+02
   3.005120e+02  -9.382139e+02
   7.016435e+02  -8.934037e+01
   3.976810e+02   7.936077e+02
  -3.140503e+02   7.940192e+02
  -6.518243e+02  -3.225091e+01
  -2.651672e+02  -7.322521e+02
   3.661583e+02  -6.460092e+02
   6.107966e+02  -6.080565e+01
   3.825683e+02   3.871971e+02
  -4.200466e+00   4.560384e+02
  -2.678635e+02   2.676581e+02
  -2.356079e+02   2.015444e+00
   1.169478e+02  -1.161367e+02
   4.444077e+02   1.015862e+02
   2.294028e+02   4.641872e+02
  -4.852457e+02   4.576286e+02
  -9.136086e+02  -7.627628e+01
  -4.622147e+02  -6.026370e+02
   4.288310e+02  -5.331542e+02
   8.066698e+02   3.674073e+01
   3.730005e+02   5.219925e+02
  -3.030850e+02   5.560274e+02
  -6.037500e+02   2.118500e+02
  -4.392756e+02  -2.499943e+02
  -6.287231e+01  -5.124377e+02
   2.334248e+02  -2.996863e+02
   1.997758e+02   2.511819e+02
  -1.818291e+02   4.895193e+02
  -4.991022e+02  -1.406830e+01
  -2.743258e+02  -7.403516e+02
   3.517782e+02  -7.581481e+02
   6.634686e+02   7.985465e+00
   2.764845e+02   6.122898e+02
  -3.287713e+02   3.488084e+02
  -4.247349e+02  -3.510787e+02
   7.090056e+01  -5.888118e+02
   5.916155e+02  -1.467382e+02
   6.267977e+02   4.299167e+02
   1.681442e+02   6.175224e+02
  -4.098884e+02   3.644446e+02
  -6.646178e+02  -8.343071e+01
  -3.854636e+02  -4.172726e+02
   1.800753e+02  -3.919576e+02
   4.790065e+02  -4.695051e+01
   2.466351e+02   2.281031e+02
  -1.442393e+02   1.181047e+02
  -1.584869e+02  -1.782157e+02
   1.848567e+02  -2.098208e+02
   3.756885e+02   8.524323e+01
   1.443864e+02   3.263875e+02
  -2.199758e+02   2.668454e+02
  -3.373422e+02   6.461817e+01
  -1.906547e+02  -8.428855e+01
   2.405074e+01  -2.131977e+02
   2.124305e+02  -3.292904e+02
   3.424851e+02  -2.349180e+02
   3.096768e+02   1.367007e+02
   8.499531e+01   4.611754e+02
  -1.324579e+02   4.040413e+02
  -1.384746e+02   1.041456e+02
  -2.061696e+01  -2.990395e+01
  -2.720951e+01   8.786155e+01
  -1.927197e+02   1.485185e+02
  -2.952989e+02  -4.234777e+01
  -1.765933e+02  -2.815378e+02
   7.027478e+01  -2.763699e+02
   2.421881e+02  -1.987528e+01
   2.154238e+02   2.481528e+02
  -4.213197e+00   3.121811e+02
  -2.783949e+02   1.298853e+02
  -3.808775e+02  -1.710568e+02
  -1.950397e+02  -3.694980e+02
   1.099336e+02  -3.214500e+02
   2.419423e+02  -1.183397e+02
   1.533395e+02   6.520366e+00
   9.224683e+01  -3.183218e+01
   2.319856e+02  -7.320628e+01
   4.093790e+02   4.979643e+01
   3.435153e+02   2.878997e+02
   3.599930e+00   4.542496e+02
  -3.627235e+02   4.275437e+02
  -5.009104e+02   2.120740e+02
  -3.537290e+02  -9.427199e+01
  -6.205138e+01  -3.101101e+02
   1.406469e+02  -2.687666e+02
   9.601394e+01  -2.716912e+01
  -1.134863e+02   1.233509e+02
  -2.149355e+02  -1.962156e+00
  -5.835067e+01  -2.128100e+02
   1.757771e+02  -1.882704e+02
   1.970649e+02   6.552637e+01
  -1.717819e+01   2.103042e+02
  -2.070066e+02   3.937292e+01
  -1.705841e+02  -2.563217e+02
   3.354003e+01  -3.587030e+02
   2.326532e+02  -1.949805e+02
   3.270585e+02   6.246557e+01
   2.843441e+02   2.376788e+02
   1.044397e+02   2.676173e+02
  -1.130061e+02   1.687061e+02
  -1.874739e+02   2.411760e+01
  -6.442770e+01  -3.720427e+01
   7.603091e+01   3.556110e+01
   3.683358e+01   1.314989e+02
  -1.278188e+02   1.093876e+02
  -1.899583e+02  -1.054570e+01
  -6.479141e+01  -7.867408e+01
   8.239778e+01  -2.321416e+01
   6.080864e+01   7.087133e+01
  -1.200560e+02   8.940564e+01
  -2.833567e+02   5.772142e+00
  -2.707733e+02  -1.350659e+02
  -6.936809e+01  -2.587600e+02
   1.827489e+02  -2.734563e+02
   2.933040e+02  -1.362567e+02
   1.810281e+02   5.424281e+01
  -2.446504e+01   1.193225e+02
  -9.934769e+01   1.089501e+01
   2.923799e+01  -1.093162e+02
   2.030699e+02  -6.712276e+01
   2.244417e+02   1.041732e+02
   7.431780e+01   2.172414e+02
  -9.779977e+01   1.669862e+02
  -1.519178e+02   3.248478e+01
  -7.764204e+01  -4.431849e+01
   2.600669e+01  -9.282215e+00
   4.186616e+01   7.853239e+01
  -6.582277e+01   1.148047e+02
  -1.984229e+02   3.494981e+01
  -1.983092e+02  -1.217249e+02
  -2.539294e+01  -2.246321e+02
   1.694262e+02  -1.715209e+02
   2.028002e+02  -5.917251e+00
   6.914876e+01   1.218736e+02
  -6.946856e+01   1.183199e+02
  -8.850477e+01   3.273393e+01
  -2.308083e+01  -2.752550e+01
   1.864676e+01  -2.206722e+01
  -9.179006e+00   4.094049e+00
  -6.714876e+01  -9.852319e+00
  -8.631447e+01  -7.912927e+01
  -1.815596e+01  -1.560045e+02
   1.225279e+02  -1.557025e+02
   2.359780e+02  -3.199174e+01
   2.086496e+02   1.488236e+02
   4.529178e+01   2.432107e+02
  -1.119810e+02   1.759095e+02
  -1.398000e+02   2.752707e+01
  -7.105224e+01  -5.880338e+01
  -2.778292e+01  -3.772003e+01
  -5.346970e+01   1.224687e+01
  -7.893074e+01   7.220410e+00
  -3.972546e+01  -4.757417e+01
   4.183734e+01  -8.479149e+01
   9.783528e+01  -5.464464e+01
   8.211092e+01   3.196342e+01
  -1.075785e+01   1.072133e+02
  -1.369705e+02   8.814330e+01
  -1.984802e+02  -4.568855e+01
  -1.078794e+02  -2.008594e+02
   1.014213e+02  -2.351524e+02
   2.704563e+02  -1.035420e+02
   2.657105e+02   8.457951e+01
   1.152127e+02   1.811544e+02
  -3.840995e+01   1.523434e+02
  -9.721936e+01   8.695372e+01
  -8.244351e+01   7.052278e+01
  -6.897847e+01   9.133677e+01
  -9.331183e+01   7.427961e+01
  -1.289752e+02  -2.224778e+01
  -1.197036e+02  -1.552481e+02
  -3.224295e+01  -2.291660e+02
   9.874089e+01  -1.767627e+02
   1.795966e+02  -2.403242e+01
   1.418523e+02   1.217885e+02
   2.274407e+01   1.631503e+02
  -6.640900e+01   9.723629e+01
  -6.120547e+01   4.555279e+00
  -7.745942e+00  -4.120529e+01
   6.717556e+00  -3.561055e+01
  -3.830436e+01  -2.014344e+01
  -7.879469e+01  -2.336403e+01
  -4.432622e+01  -3.764734e+01
   6.191154e+01  -3.748128e+01
   1.562699e+02  -5.899926e+00
   1.454715e+02   4.815906e+01
   2.010650e+01   8.819806e+01
  -1.183634e+02   7.651329e+01
  -1.470484e+02   1.634433e+01
  -5.072971e+01  -3.925803e+01
   6.024316e+01  -3.685456e+01
   7.626684e+01   1.879470e+01
   6.097163e+00   6.725359e+01
  -5.756551e+01   5.654086e+01
  -6.255870e+01  -2.406809e+00
  -4.195059e+01  -4.941598e+01
  -4.320627e+01  -4.146236e+01
  -6.319176e+01  -2.451528e+00
  -6.708330e+01  -2.642992e-01
  -3.421276e+01  -6.649450e+01
   3.313458e+01  -1.452154e+02
   1.142547e+02  -1.425473e+02
   1.618477e+02  -3.532982e+01
   1.234339e+02   8.988314e+01
   8.770531e+00   1.259335e+02
  -8.446237e+01   6.126375e+01
  -5.977905e+01  -1.554569e+01
   5.971718e+01  -2.040779e+01
   1.397452e+02   4.367618e+01
   7.844867e+01   1.084458e+02
  -8.026948e+01   1.149161e+02
  -1.934629e+02   5.534142e+01
  -1.663469e+02  -3.192383e+01
  -3.965160e+01  -8.810039e+01
   6.093283e+01  -7.354399e+01
   5.013703e+01  -9.570173e+00
  -3.834594e+01   2.658657e+01
  -9.083057e+01  -2.266744e+01
  -3.227643e+01  -1.197406e+02
   9.379485e+01  -1.550361e+02
   1.701407e+02  -6.146810e+01
   1.278639e+02   1.027207e+02
   9.888514e+00   2.000900e+02
  -8.649795e+01   1.466121e+02
  -1.061189e+02  -5.154882e+00
  -6.335593e+01  -1.185809e+02
  -1.081219e+00  -1.091029e+02
   4.527610e+01  -2.224895e+01
   5.423821e+01   3.138574e+01
   2.814467e+01   9.378639e+00
   3.623310e+00  -2.159565e+01
   1.913340e+01   1.314383e+01
   5.634909e+01   8.860203e+01
   4.495181e+01   1.118297e+02
  -4.526979e+01   4.709107e+01
  -1.402303e+02  -3.984356e+01
  -1.330162e+02  -7.187154e+01
  -1.802187e+01  -4.927806e+01
   9.008046e+01  -2.150598e+01
   8.972919e+01  -8.456235e+00
   9.807993e+00   6.040287e+00
  -3.980451e+01   2.265843e+01
  -1.335768e+01   1.993916e+01
   2.285331e+01  -6.572725e-01
  -6.216380e+00  -1.009968e+01
  -7.630958e+01  -5.303643e+00
  -9.185258e+01  -2.420786e+01
  -5.819534e+00  -7.988035e+01
   1.214186e+02  -1.137530e+02
   1.857283e+02  -5.760820e+01
   1.397889e+02   6.890407e+01
   2.461422e+01   1.633307e+02
  -7.863678e+01   1.499850e+02
  -1.138790e+02   5.768831e+01
  -8.108461e+01  -2.209361e+01
  -2.494299e+01  -3.491883e+01
   3.934336e+00  -7.466905e+00
  -9.736968e+00  -2.851407e+00
  -3.429143e+01  -4.531971e+01
  -2.426029e+01  -9.062308e+01
   2.923225e+01  -7.213956e+01
   8.210671e+01   1.948266e+01
   7.667046e+01   1.102693e+02
   2.116705e+00   1.127553e+02
  -8.404984e+01   2.173059e+01
  -1.025293e+02  -7.803527e+01
  -3.050082e+01  -1.037552e+02
   6.688523e+01  -5.390295e+01
   9.685551e+01   1.246777e+01
   3.840031e+01   4.882889e+01
  -3.198850e+01   4.998098e+01
  -2.940551e+01   2.865160e+01
   3.568853e+01   1.175306e+00
   6.981081e+01  -6.242723e+00
   1.437550e+01   2.453669e+01
  -7.979818e+01   6.653400e+01
  -1.152688e+02   6.062033e+01
  -6.282132e+01  -1.039335e+01
   1.619266e+01  -8.290671e+01
   5.188101e+01  -7.931850e+01
   3.500439e+01  -4.554105e+00
   2.836235e-02   5.666693e+01
  -2.602925e+01   4.177630e+01
  -3.605373e+01  -2.015257e+01
  -2.623684e+01  -5.420902e+01
   2.895231e+00  -3.134312e+01
   3.303369e+01   9.346560e+00
   3.961105e+01   2.004491e+01
   2.085817e+01   2.395259e-01
  -3.489285e-01  -1.277077e+01
  -7.517663e+00   5.490344e+00
  -9.127876e+00   3.720967e+01
  -1.948798e+01   4.238203e+01
  -3.278231e+01   4.353060e+00
  -2.754703e+01  -4.683039e+01
   5.380919e+00  -6.069481e+01
   4.550894e+01  -1.927337e+01
   5.504712e+01   4.050672e+01
   1.324689e+01   6.373427e+01
  -5.458879e+01   3.376663e+01
  -8.801784e+01  -1.621622e+01
  -4.882419e+01  -4.437658e+01
   2.875322e+01  -3.983735e+01
   6.461590e+01  -1.994958e+01
   2.318593e+01  -4.626703e+00
  -3.903987e+01  -3.942422e+00
  -3.829716e+01  -1.807787e+01
   3.284238e+01  -3.223588e+01
   9.439293e+01  -1.874717e+01
