
 $NMID
 id='ANONYMOUS ', fmtdat='(2E16.6)'
 volume=1.0
 tramp=1.0
 $END
   4.180449e+03   7.027590e+01
   2.553132e+03   2.387759e+03
  -4.311749e+02   2.658556e+03
  -1.879414e+03   1.167617e+03
  -1.066210e+03  -2.632382e+02
   3.354811e+02  -4.363092e+02
   6.927484e+02   2.948248e+02
   1.960971e+01   8.917781e+02
  -7.154405e+02   7.457511e+02
  -8.790657e+02  -1.402940e+01
  -4.807036e+02  -7.666999e+02
   1.400441e+02  -8.540246e+02
   5.231741e+02  -1.655186e+02
   3.424318e+02   6.298634e+02
  -2.216294e+02   7.135466e+02
  -5.623374e+02   3.495752e+01
  -3.086079e+02  -6.528563e+02
   2.599464e+02  -6.971103e+02
   5.904496e+02  -1.970408e+02
   4.592153e+02   3.008984e+02
   7.687885e+01   4.460636e+02
  -2.052968e+02   2.814080e+02
  -1.588011e+02   5.449339e+01
   1.588127e+02   1.347856e+01
   3.671108e+02   2.222276e+02
   9.136896e+01   4.344030e+02
  -5.153853e+02   3.040404e+02
  -7.960018e+02  -1.580525e+02
  -3.526140e+02  -5.054987e+02
   3.963498e+02  -3.700559e+02
   6.832658e+02   1.029133e+02
   2.876492e+02   4.692669e+02
  -3.075820e+02   4.726942e+02
  -5.660198e+02   1.725912e+02
  -4.050131e+02  -2.203119e+02
  -8.054592e+01  -4.355017e+02
   1.293463e+02  -2.602928e+02
   7.195092e+01   1.654918e+02
  -1.910726e+02   3.234754e+02
  -3.525936e+02  -9.082461e+01
  -1.327748e+02  -6.460614e+02
   3.214198e+02  -6.260306e+02
   5.144319e+02   1.868647e+00
   2.060164e+02   4.808936e+02
  -2.449475e+02   2.522408e+02
  -3.030096e+02  -3.296765e+02
   1.072065e+02  -5.128820e+02
   5.516420e+02  -9.715173e+01
   5.871440e+02   4.400619e+02
   1.664578e+02   6.003928e+02
  -3.811304e+02   3.328691e+02
  -6.313980e+02  -8.676333e+01
  -3.907257e+02  -3.585233e+02
   1.134274e+02  -3.275548e+02
   4.062596e+02  -7.280181e+01
   2.558448e+02   1.285540e+02
  -5.962383e+01   7.448110e+01
  -1.073582e+02  -1.107413e+02
   1.445320e+02  -1.344899e+02
   3.167694e+02   7.021348e+01
   1.445030e+02   2.744734e+02
  -2.020110e+02   2.763360e+02
  -3.767256e+02   1.075067e+02
  -2.528557e+02  -1.087190e+02
   3.546858e+01  -3.005054e+02
   2.948436e+02  -3.731384e+02
   3.927334e+02  -1.992091e+02
   2.853977e+02   1.702061e+02
   6.279129e+01   4.391723e+02
  -8.982913e+01   3.876161e+02
  -8.365053e+01   1.586684e+02
  -3.681745e+01   5.195712e+01
  -1.036131e+02   1.071767e+02
  -2.460758e+02   9.439095e+01
  -2.823507e+02  -1.013345e+02
  -1.309926e+02  -2.923114e+02
   9.616594e+01  -2.447221e+02
   2.287158e+02   2.149003e+01
   1.766334e+02   2.698211e+02
  -3.815201e+01   2.978910e+02
  -2.831680e+02   9.215066e+01
  -3.633411e+02  -1.943526e+02
  -1.889354e+02  -3.614511e+02
   8.872030e+01  -3.145876e+02
   2.210032e+02  -1.488075e+02
   1.674715e+02  -4.389132e+01
   1.390450e+02  -5.276941e+01
   2.827004e+02  -4.815845e+01
   4.437222e+02   9.508515e+01
   3.508773e+02   3.288908e+02
  -2.638580e+01   4.831987e+02
  -4.181233e+02   4.347898e+02
  -5.360795e+02   1.933980e+02
  -3.396285e+02  -1.135341e+02
  -3.430872e+01  -2.998623e+02
   1.273595e+02  -2.454930e+02
   5.204510e+01  -3.749967e+01
  -1.256164e+02   7.785264e+01
  -1.781594e+02  -2.695091e+01
  -2.889684e+01  -1.855731e+02
   1.551020e+02  -1.494866e+02
   1.573915e+02   6.435017e+01
  -2.803910e+01   1.773551e+02
  -1.953919e+02   1.403632e+01
  -1.673407e+02  -2.694576e+02
   3.719941e+01  -3.799159e+02
   2.658460e+02  -2.140526e+02
   3.749312e+02   7.831734e+01
   2.988875e+02   2.836288e+02
   7.744234e+01   2.977639e+02
  -1.373429e+02   1.615696e+02
  -1.807063e+02   1.067927e+01
  -5.124560e+01  -2.602747e+01
   6.445529e+01   5.667424e+01
   1.067972e+01   1.310876e+02
  -1.382891e+02   8.780126e+01
  -1.780410e+02  -2.580035e+01
  -4.761708e+01  -7.082839e+01
   8.893034e+01   6.006072e-01
   4.860901e+01   9.298007e+01
  -1.527500e+02   9.183989e+01
  -3.206162e+02  -2.128536e+01
  -2.810650e+02  -1.784194e+02
  -4.029589e+01  -2.855332e+02
   2.223056e+02  -2.658479e+02
   3.060878e+02  -1.149711e+02
   1.678188e+02   5.704588e+01
  -3.193925e+01   1.021803e+02
  -8.493971e+01   1.960457e-01
   4.966092e+01  -9.812994e+01
   2.100292e+02  -4.557873e+01
   2.175996e+02   1.185212e+02
   6.380747e+01   2.189034e+02
  -1.041585e+02   1.588579e+02
  -1.481440e+02   2.176642e+01
  -6.284169e+01  -4.388185e+01
   3.820276e+01   1.181412e+01
   3.219748e+01   1.074208e+02
  -9.657673e+01   1.243479e+02
  -2.253689e+02   1.658006e+01
  -2.015015e+02  -1.469747e+02
  -1.174516e+01  -2.346563e+02
   1.802558e+02  -1.686364e+02
   2.028089e+02  -5.135603e+00
   6.380862e+01   1.161625e+02
  -7.292932e+01   1.118373e+02
  -8.471454e+01   2.856655e+01
  -9.742792e+00  -2.785064e+01
   3.291783e+01  -1.372522e+01
  -1.100577e+01   1.881675e+01
  -8.827035e+01  -5.842009e+00
  -1.043351e+02  -9.856400e+01
  -9.428398e+00  -1.843378e+02
   1.523148e+02  -1.641192e+02
   2.597052e+02  -1.285652e+01
   2.119397e+02   1.749370e+02
   3.727051e+01   2.566799e+02
  -1.195618e+02   1.782231e+02
  -1.464393e+02   2.876605e+01
  -7.845082e+01  -5.649587e+01
  -3.380206e+01  -3.641465e+01
  -6.040800e+01   1.320737e+01
  -9.252822e+01   5.052619e+00
  -5.298413e+01  -6.072654e+01
   4.803133e+01  -1.063650e+02
   1.263772e+02  -6.482270e+01
   1.053989e+02   4.721853e+01
  -2.062692e+01   1.322994e+02
  -1.710141e+02   9.248325e+01
  -2.199289e+02  -7.012566e+01
  -9.553401e+01  -2.302788e+02
   1.334945e+02  -2.436542e+02
   2.957013e+02  -8.990977e+01
   2.727462e+02   1.034107e+02
   1.096192e+02   1.922056e+02
  -4.695787e+01   1.551893e+02
  -1.023921e+02   8.765099e+01
  -8.331360e+01   7.481464e+01
  -7.088917e+01   1.005660e+02
  -1.024084e+02   8.235823e+01
  -1.424233e+02  -2.535702e+01
  -1.260859e+02  -1.721218e+02
  -2.480986e+01  -2.485713e+02
   1.136323e+02  -1.830610e+02
   1.897319e+02  -1.273294e+01
   1.404134e+02   1.401075e+02
   1.109046e+01   1.733756e+02
  -8.074274e+01   9.244122e+01
  -6.703829e+01  -9.794032e+00
   1.346015e+00  -5.316218e+01
   2.208799e+01  -3.789907e+01
  -3.425262e+01  -1.692450e+01
  -8.969885e+01  -2.429472e+01
  -5.120498e+01  -4.447659e+01
   7.666081e+01  -4.029955e+01
   1.825711e+02   4.454458e+00
   1.560208e+02   6.740518e+01
   4.648867e+00   1.025451e+02
  -1.425389e+02   7.717098e+01
  -1.595333e+02   6.098104e+00
  -4.925848e+01  -5.161573e+01
   6.711044e+01  -4.340453e+01
   8.419136e+01   2.230256e+01
   1.334080e+01   7.889126e+01
  -5.713950e+01   6.736284e+01
  -7.283239e+01  -1.295436e+00
  -5.539825e+01  -5.695485e+01
  -4.931785e+01  -4.815190e+01
  -6.367997e+01  -3.572879e+00
  -7.181855e+01  -2.622478e+00
  -4.229999e+01  -7.839700e+01
   3.639580e+01  -1.635151e+02
   1.369652e+02  -1.544433e+02
   1.908506e+02  -3.184008e+01
   1.372507e+02   1.055633e+02
   1.082820e+00   1.426234e+02
  -1.002097e+02   6.981249e+01
  -6.699511e+01  -1.540342e+01
   6.470759e+01  -2.092534e+01
   1.473837e+02   4.969836e+01
   7.724461e+01   1.186307e+02
  -9.284904e+01   1.189011e+02
  -2.089212e+02   4.730044e+01
  -1.732304e+02  -4.516330e+01
  -3.464473e+01  -9.465803e+01
   7.014112e+01  -6.972840e+01
   5.331268e+01  -1.693720e+00
  -4.411028e+01   3.102257e+01
  -1.001737e+02  -2.496931e+01
  -3.780554e+01  -1.291648e+02
   9.615111e+01  -1.684374e+02
   1.791154e+02  -7.001269e+01
   1.368080e+02   1.071919e+02
   1.079552e+01   2.134301e+02
  -9.460872e+01   1.537530e+02
  -1.137350e+02  -1.262139e+01
  -6.008241e+01  -1.317011e+02
   1.117966e+01  -1.138617e+02
   5.391938e+01  -1.748608e+01
   5.217529e+01   3.580295e+01
   2.280597e+01   8.991578e+00
   5.867620e+00  -2.053634e+01
   2.778513e+01   2.100177e+01
   6.006160e+01   9.916458e+01
   3.764525e+01   1.177338e+02
  -5.761605e+01   4.634844e+01
  -1.489053e+02  -4.495636e+01
  -1.362720e+02  -7.945387e+01
  -1.843083e+01  -5.692582e+01
   9.241643e+01  -2.473019e+01
   9.562708e+01  -5.237405e+00
   1.544158e+01   1.105676e+01
  -4.019043e+01   2.316697e+01
  -1.885599e+01   1.617466e+01
   1.961233e+01  -2.843606e+00
  -4.479574e+00  -7.883598e+00
  -7.676555e+01  -2.689482e+00
  -1.005884e+02  -2.682324e+01
  -1.541476e+01  -8.891926e+01
   1.255855e+02  -1.252147e+02
   2.061083e+02  -6.480889e+01
   1.605770e+02   7.175392e+01
   2.885741e+01   1.763449e+02
  -9.057860e+01   1.654620e+02
  -1.279177e+02   6.587050e+01
  -8.781364e+01  -2.380553e+01
  -2.735413e+01  -4.086292e+01
   3.527616e-01  -1.226379e+01
  -1.310932e+01  -7.410792e+00
  -3.339057e+01  -5.265684e+01
  -1.994294e+01  -9.944311e+01
   3.351054e+01  -7.783688e+01
   8.685178e+01   1.970613e+01
   8.407274e+01   1.160955e+02
   8.470131e+00   1.220321e+02
  -8.630904e+01   2.963840e+01
  -1.131397e+02  -7.827222e+01
  -3.790285e+01  -1.138182e+02
   7.255005e+01  -6.487615e+01
   1.105716e+02   1.256799e+01
   4.552086e+01   6.078591e+01
  -3.812059e+01   6.183152e+01
  -4.013143e+01   3.053324e+01
   3.268627e+01  -3.358485e+00
   7.541586e+01  -7.340244e+00
   1.780870e+01   2.914554e+01
  -8.747841e+01   7.031259e+01
  -1.306210e+02   5.833025e+01
  -7.380720e+01  -1.757893e+01
   1.763890e+01  -9.178397e+01
   6.266378e+01  -8.785165e+01
   4.559565e+01  -9.504290e+00
   4.089348e+00   5.914422e+01
  -2.787830e+01   4.965586e+01
  -3.995441e+01  -1.593856e+01
  -2.920446e+01  -5.949220e+01
   2.677901e+00  -4.007556e+01
   3.631056e+01   7.868039e+00
   4.421832e+01   2.645558e+01
   2.252659e+01   3.867338e+00
  -2.216706e+00  -1.901187e+01
  -7.067526e+00  -3.704180e+00
  -1.505284e+00   3.736452e+01
  -9.995301e+00   5.380085e+01
  -3.264081e+01   1.646874e+01
  -3.891003e+01  -4.407135e+01
  -5.576318e+00  -6.633080e+01
   4.673220e+01  -2.489703e+01
   6.495783e+01   4.044310e+01
   1.783947e+01   6.777310e+01
  -6.193449e+01   3.732327e+01
  -9.965969e+01  -1.627134e+01
  -5.396000e+01  -4.868748e+01
   3.230172e+01  -4.692503e+01
   7.181984e+01  -2.621564e+01
   2.949141e+01  -5.956161e+00
  -3.555540e+01   4.825224e-01
  -3.870858e+01  -1.218248e+01
   2.948504e+01  -3.029182e+01
   9.240107e+01  -2.103052e+01
