
 $NMID
 id='ANONYMOUS ', fmtdat='(2E16.6)'
 volume=1.0
 tramp=1.0
 $END
   3.763262e+03   2.093348e+01
   2.286584e+03   2.141784e+03
  -4.123613e+02   2.375434e+03
  -1.687860e+03   1.003641e+03
  -9.139182e+02  -2.797703e+02
   3.532820e+02  -3.964697e+02
   6.437628e+02   2.899038e+02
   1.111725e+01   8.216903e+02
  -6.519057e+02   6.710986e+02
  -7.896448e+02  -2.100128e+01
  -4.256045e+02  -6.937365e+02
   1.354802e+02  -7.636497e+02
   4.806293e+02  -1.380748e+02
   3.126685e+02   5.758078e+02
  -2.013155e+02   6.420640e+02
  -5.066428e+02   2.699983e+01
  -2.740516e+02  -5.830164e+02
   2.325477e+02  -6.116607e+02
   5.187442e+02  -1.652156e+02
   3.988462e+02   2.686290e+02
   6.380229e+01   3.929353e+02
  -1.854870e+02   2.483409e+02
  -1.475265e+02   4.135410e+01
   1.405193e+02  -7.159062e+00
   3.419492e+02   1.805445e+02
   1.021793e+02   3.924839e+02
  -4.548983e+02   2.957930e+02
  -7.249521e+02  -1.242126e+02
  -3.289790e+02  -4.592814e+02
   3.563597e+02  -3.517516e+02
   6.244189e+02   7.884609e+01
   2.695427e+02   4.217896e+02
  -2.690702e+02   4.333275e+02
  -5.056466e+02   1.637319e+02
  -3.650800e+02  -1.949407e+02
  -7.219948e+01  -3.938070e+02
   1.252674e+02  -2.335787e+02
   7.831085e+01   1.606336e+02
  -1.700002e+02   3.096240e+02
  -3.341758e+02  -7.191441e+01
  -1.397782e+02  -5.875376e+02
   2.852778e+02  -5.741323e+02
   4.739455e+02   1.010874e+00
   1.927473e+02   4.420961e+02
  -2.274552e+02   2.355168e+02
  -2.868471e+02  -2.953101e+02
   8.677219e+01  -4.666154e+02
   4.944988e+02  -9.781158e+01
   5.314659e+02   3.828689e+02
   1.549356e+02   5.324091e+02
  -3.382764e+02   3.028794e+02
  -5.651545e+02  -6.958891e+01
  -3.484094e+02  -3.198013e+02
   1.066585e+02  -2.973459e+02
   3.671834e+02  -6.411882e+01
   2.239331e+02   1.223708e+02
  -6.363239e+01   6.909675e+01
  -1.004144e+02  -1.067410e+02
   1.339396e+02  -1.287752e+02
   2.883777e+02   6.206982e+01
   1.298378e+02   2.477894e+02
  -1.774196e+02   2.458791e+02
  -3.264524e+02   9.640083e+01
  -2.190012e+02  -8.803723e+01
   2.315105e+01  -2.568367e+02
   2.452116e+02  -3.323052e+02
   3.409204e+02  -1.877697e+02
   2.593773e+02   1.440890e+02
   6.322978e+01   3.920783e+02
  -8.038430e+01   3.453734e+02
  -7.682607e+01   1.332958e+02
  -2.715833e+01   3.726481e+01
  -8.063221e+01   9.673360e+01
  -2.124845e+02   9.525734e+01
  -2.553204e+02  -7.958815e+01
  -1.257891e+02  -2.578415e+02
   8.012825e+01  -2.229739e+02
   2.061750e+02   1.161098e+01
   1.655369e+02   2.357600e+02
  -2.642001e+01   2.675715e+02
  -2.506787e+02   9.006912e+01
  -3.276380e+02  -1.654921e+02
  -1.726472e+02  -3.192885e+02
   7.742668e+01  -2.801982e+02
   1.955232e+02  -1.304017e+02
   1.444789e+02  -3.550449e+01
   1.162591e+02  -4.770630e+01
   2.448547e+02  -5.113649e+01
   3.921715e+02   7.196018e+01
   3.159393e+02   2.819571e+02
  -1.256127e+01   4.264081e+02
  -3.582794e+02   3.920198e+02
  -4.693314e+02   1.818800e+02
  -3.050155e+02  -9.449206e+01
  -3.725963e+01  -2.676840e+02
   1.122023e+02  -2.216754e+02
   5.060092e+01  -3.113706e+01
  -1.105328e+02   7.655670e+01
  -1.636418e+02  -1.989278e+01
  -3.060058e+01  -1.685068e+02
   1.394723e+02  -1.385011e+02
   1.451359e+02   5.657636e+01
  -2.243421e+01   1.619860e+02
  -1.753804e+02   1.760134e+01
  -1.527135e+02  -2.353363e+02
   2.691886e+01  -3.349629e+02
   2.283356e+02  -1.921094e+02
   3.282904e+02   6.104303e+01
   2.685625e+02   2.416382e+02
   7.681176e+01   2.603806e+02
  -1.170397e+02   1.467589e+02
  -1.613993e+02   1.317356e+01
  -4.697349e+01  -2.423026e+01
   6.002195e+01   4.729517e+01
   1.428958e+01   1.170788e+02
  -1.210034e+02   8.260577e+01
  -1.601883e+02  -1.917299e+01
  -4.492915e+01  -6.374557e+01
   7.892083e+01  -3.706391e+00
   4.654631e+01   7.959699e+01
  -1.302574e+02   8.426213e+01
  -2.810613e+02  -1.018922e+01
  -2.518254e+02  -1.490294e+02
  -4.384437e+01  -2.504908e+02
   1.892286e+02  -2.409163e+02
   2.691690e+02  -1.089023e+02
   1.512434e+02   4.855696e+01
  -2.671215e+01   9.334968e+01
  -7.743171e+01   2.047884e+00
   4.071222e+01  -8.972337e+01
   1.855865e+02  -4.595685e+01
   1.958182e+02   1.008202e+02
   6.072222e+01   1.934720e+02
  -8.984533e+01   1.434159e+02
  -1.319247e+02   2.236471e+01
  -5.805823e+01  -3.867856e+01
   3.330271e+01   7.018337e+00
   3.211158e+01   9.170916e+01
  -8.000899e+01   1.114443e+02
  -1.970455e+02   2.075757e+01
  -1.810833e+02  -1.245953e+02
  -1.542706e+01  -2.072147e+02
   1.564805e+02  -1.525915e+02
   1.798113e+02  -7.256116e+00
   5.852123e+01   1.030673e+02
  -6.304686e+01   1.010167e+02
  -7.536004e+01   2.679052e+01
  -1.061476e+01  -2.500174e+01
   2.759022e+01  -1.409973e+01
  -8.781327e+00   1.512029e+01
  -7.567029e+01  -3.787086e+00
  -9.230482e+01  -8.309340e+01
  -1.277611e+01  -1.602457e+02
   1.290821e+02  -1.475317e+02
   2.279571e+02  -1.787613e+01
   1.907179e+02   1.491507e+02
   3.778981e+01   2.258050e+02
  -1.027424e+02   1.595731e+02
  -1.286500e+02   2.747641e+01
  -6.932505e+01  -4.910993e+01
  -2.967356e+01  -3.180375e+01
  -5.253120e+01   1.261689e+01
  -8.042856e+01   6.408496e+00
  -4.663294e+01  -5.112266e+01
   3.972388e+01  -9.256282e+01
   1.074453e+02  -5.888642e+01
   9.180739e+01   3.786474e+01
  -1.452258e+01   1.149154e+02
  -1.462164e+02   8.488548e+01
  -1.942108e+02  -5.566570e+01
  -9.019878e+01  -1.998754e+02
   1.110916e+02  -2.178914e+02
   2.585120e+02  -8.606068e+01
   2.430150e+02   8.568444e+01
   1.007426e+02   1.679048e+02
  -3.851827e+01   1.381831e+02
  -8.902735e+01   7.914298e+01
  -7.266524e+01   6.693074e+01
  -6.101762e+01   8.904957e+01
  -8.837842e+01   7.369888e+01
  -1.251175e+02  -1.980921e+01
  -1.138500e+02  -1.487616e+02
  -2.677303e+01  -2.180394e+02
   9.640213e+01  -1.635641e+02
   1.672673e+02  -1.544670e+01
   1.271362e+02   1.202876e+02
   1.382564e+01   1.527852e+02
  -6.885727e+01   8.409524e+01
  -5.937712e+01  -5.891622e+00
  -1.003869e+00  -4.604154e+01
   1.717005e+01  -3.415696e+01
  -3.096749e+01  -1.509792e+01
  -7.857753e+01  -1.989653e+01
  -4.539219e+01  -3.772008e+01
   6.559053e+01  -3.690178e+01
   1.591592e+02  -5.665509e-01
   1.386317e+02   5.508222e+01
   7.805110e+00   8.969304e+01
  -1.224785e+02   7.103727e+01
  -1.402527e+02   9.130371e+00
  -4.495689e+01  -4.370379e+01
   5.789902e+01  -3.880666e+01
   7.411697e+01   1.799510e+01
   1.238157e+01   6.813426e+01
  -4.947663e+01   5.915451e+01
  -6.332886e+01   1.446375e-02
  -4.850550e+01  -4.841590e+01
  -4.385337e+01  -4.104735e+01
  -5.649792e+01  -2.197604e+00
  -6.323524e+01  -9.522077e-01
  -3.796399e+01  -6.726215e+01
   2.913863e+01  -1.433851e+02
   1.163241e+02  -1.380866e+02
   1.654686e+02  -3.212760e+01
   1.219585e+02   8.947665e+01
   4.305071e+00   1.247255e+02
  -8.577299e+01   6.272193e+01
  -5.873578e+01  -1.256223e+01
   5.649484e+01  -1.950140e+01
   1.306308e+02   4.118466e+01
   7.052816e+01   1.030250e+02
  -7.915588e+01   1.065971e+02
  -1.830849e+02   4.614252e+01
  -1.538376e+02  -3.598849e+01
  -3.277276e+01  -8.288378e+01
   6.033028e+01  -6.351940e+01
   4.715016e+01  -3.246903e+00
  -3.786863e+01   2.774635e+01
  -8.811135e+01  -2.024985e+01
  -3.485193e+01  -1.127289e+02
   8.234722e+01  -1.490762e+02
   1.565592e+02  -6.367671e+01
   1.217799e+02   9.244671e+01
   1.267660e+01   1.874935e+02
  -8.069536e+01   1.369898e+02
  -1.003678e+02  -8.564368e+00
  -5.582889e+01  -1.145558e+02
   6.807458e+00  -1.009739e+02
   4.671777e+01  -1.707654e+01
   4.713270e+01   3.062001e+01
   2.096892e+01   7.914504e+00
   4.706432e+00  -1.849334e+01
   2.414437e+01   1.701766e+01
   5.446150e+01   8.576532e+01
   3.598415e+01   1.034682e+02
  -4.903809e+01   4.236531e+01
  -1.317625e+02  -3.703296e+01
  -1.217418e+02  -6.768077e+01
  -1.729558e+01  -4.931002e+01
   8.124260e+01  -2.281284e+01
   8.413787e+01  -6.468437e+00
   1.333378e+01   8.805069e+00
  -3.527872e+01   2.101353e+01
  -1.598390e+01   1.523221e+01
   1.766899e+01  -2.396950e+00
  -4.205097e+00  -7.261274e+00
  -6.796362e+01  -1.696705e+00
  -8.858704e+01  -2.187217e+01
  -1.397543e+01  -7.723068e+01
   1.088555e+02  -1.114217e+02
   1.792379e+02  -5.997112e+01
   1.409202e+02   6.049414e+01
   2.780410e+01   1.542963e+02
  -7.621719e+01   1.464526e+02
  -1.106136e+02   5.956655e+01
  -7.742938e+01  -1.953949e+01
  -2.470145e+01  -3.508548e+01
   4.178525e-01  -1.017699e+01
  -1.147477e+01  -5.736202e+00
  -3.065373e+01  -4.541531e+01
  -1.979316e+01  -8.701971e+01
   2.800149e+01  -6.892103e+01
   7.671024e+01   1.616530e+01
   7.536189e+01   1.009115e+02
   8.641194e+00   1.067696e+02
  -7.560829e+01   2.652051e+01
  -1.000699e+02  -6.755621e+01
  -3.453791e+01  -9.897563e+01
   6.243628e+01  -5.734304e+01
   9.656915e+01   9.230163e+00
   4.071210e+01   5.163059e+01
  -3.185634e+01   5.411122e+01
  -3.383897e+01   2.774287e+01
   2.914521e+01  -2.747474e+00
   6.607126e+01  -7.543588e+00
   1.591603e+01   2.494206e+01
  -7.561482e+01   6.329270e+01
  -1.133174e+02   5.422116e+01
  -6.460820e+01  -1.338959e+01
   1.397645e+01  -8.060309e+01
   5.284340e+01  -7.806394e+01
   3.886350e+01  -8.790590e+00
   3.985019e+00   5.195580e+01
  -2.358492e+01   4.350976e+01
  -3.501908e+01  -1.399090e+01
  -2.649166e+01  -5.164215e+01
   1.579149e+00  -3.451476e+01
   3.185505e+01   6.573467e+00
   3.922343e+01   2.195899e+01
   1.995283e+01   2.644727e+00
  -2.204477e+00  -1.601448e+01
  -6.692031e+00  -2.103150e+00
  -1.766515e+00   3.286800e+01
  -8.913836e+00   4.613152e+01
  -2.832588e+01   1.356092e+01
  -3.360753e+01  -3.851543e+01
  -4.676905e+00  -5.768749e+01
   4.077738e+01  -2.204559e+01
   5.692948e+01   3.468956e+01
   1.628040e+01   5.922450e+01
  -5.343467e+01   3.372433e+01
  -8.718813e+01  -1.273283e+01
  -4.801086e+01  -4.178316e+01
   2.736597e+01  -4.129990e+01
   6.226576e+01  -2.367010e+01
   2.527081e+01  -5.722411e+00
  -3.178839e+01   2.301330e-01
  -3.422693e+01  -1.100088e+01
   2.623020e+01  -2.735801e+01
   8.183046e+01  -1.949310e+01
