
 $NMID
 id='ANONYMOUS ', fmtdat='(2E16.6)'
 volume=1.0
 tramp=1.0
 $END
  -1.734779e+03  -1.472699e+02
  -9.282429e+02  -1.104020e+03
   3.543483e+02  -1.057740e+03
   8.379234e+02  -3.071318e+02
   3.506296e+02   2.477269e+02
  -2.575852e+02   1.798086e+02
  -3.164401e+02  -1.997623e+02
   4.408422e+01  -4.096691e+02
   3.487679e+02  -2.776902e+02
   3.638661e+02   6.369751e+01
   1.510378e+02   3.502775e+02
  -1.174972e+02   3.410165e+02
  -2.458640e+02   2.471473e+01
  -1.224674e+02  -2.951112e+02
   1.297658e+02  -2.868156e+02
   2.375985e+02   2.054167e+01
   8.998213e+01   2.785339e+02
  -1.408144e+02   2.480599e+02
  -2.329315e+02   2.938421e+01
  -1.493343e+02  -1.449411e+02
   4.985657e-01  -1.740414e+02
   1.009234e+02  -9.825068e+01
   7.851850e+01  -1.158829e+00
  -5.843050e+01   2.317877e+01
  -1.618236e+02  -7.154751e+01
  -5.554777e+01  -1.856371e+02
   2.092989e+02  -1.431521e+02
   3.380812e+02   6.827163e+01
   1.455925e+02   2.340988e+02
  -1.796108e+02   1.708728e+02
  -2.960444e+02  -4.791214e+01
  -1.177632e+02  -2.067643e+02
   1.348499e+02  -1.963714e+02
   2.357948e+02  -6.051051e+01
   1.589535e+02   1.046160e+02
   1.257361e+01   1.888650e+02
  -8.317519e+01   1.021820e+02
  -4.941019e+01  -9.281772e+01
   8.882620e+01  -1.606089e+02
   1.733296e+02   3.371167e+01
   6.398287e+01   2.844257e+02
  -1.546623e+02   2.654261e+02
  -2.350098e+02  -2.249644e+01
  -7.816307e+01  -2.268697e+02
   1.262411e+02  -1.105472e+02
   1.372934e+02   1.472582e+02
  -4.991288e+01   2.169013e+02
  -2.293683e+02   3.374469e+01
  -2.278152e+02  -1.858030e+02
  -4.955133e+01  -2.423265e+02
   1.651858e+02  -1.262564e+02
   2.519791e+02   5.039465e+01
   1.392558e+02   1.629240e+02
  -7.117656e+01   1.365461e+02
  -1.758764e+02   8.584163e+00
  -8.935944e+01  -7.922334e+01
   4.705767e+01  -3.343207e+01
   4.760959e+01   6.418890e+01
  -7.293702e+01   6.438121e+01
  -1.347616e+02  -4.173709e+01
  -4.687429e+01  -1.227151e+02
   8.932839e+01  -9.962013e+01
   1.381934e+02  -2.458675e+01
   8.263915e+01   3.979239e+01
  -1.416633e+01   9.651515e+01
  -1.027597e+02   1.321656e+02
  -1.481775e+02   7.883805e+01
  -1.144419e+02  -6.686385e+01
  -1.766073e+01  -1.790727e+02
   5.541547e+01  -1.505825e+02
   4.656319e+01  -4.428639e+01
   7.694671e+00  -1.076164e+00
   2.425134e+01  -3.861148e+01
   8.860503e+01  -4.605442e+01
   1.136153e+02   3.341061e+01
   5.502272e+01   1.170409e+02
  -3.913605e+01   1.017467e+02
  -9.390392e+01  -5.084159e+00
  -7.234364e+01  -1.065135e+02
   1.506982e+01  -1.202779e+02
   1.135120e+02  -3.796241e+01
   1.421440e+02   8.024944e+01
   6.573100e+01   1.478159e+02
  -4.769024e+01   1.209930e+02
  -9.319915e+01   4.437531e+01
  -6.052720e+01   1.924507e+00
  -4.354342e+01   1.463104e+01
  -1.008756e+02   2.020026e+01
  -1.649657e+02  -3.575912e+01
  -1.290428e+02  -1.270064e+02
   1.379331e+01  -1.825405e+02
   1.605261e+02  -1.603137e+02
   2.065804e+02  -6.827801e+01
   1.338932e+02   4.891313e+01
   1.189738e+01   1.215836e+02
  -6.003211e+01   9.732482e+01
  -3.095503e+01   8.683107e+00
   5.040066e+01  -3.847727e+01
   7.865664e+01   1.096834e+01
   1.215302e+01   8.093365e+01
  -7.098454e+01   6.244219e+01
  -6.897449e+01  -3.128882e+01
   1.447362e+01  -7.670353e+01
   8.053996e+01  -5.950280e+00
   6.000172e+01   1.063210e+02
  -2.198621e+01   1.424617e+02
  -1.002545e+02   7.412208e+01
  -1.339007e+02  -3.369389e+01
  -1.084686e+02  -1.065457e+02
  -3.065302e+01  -1.123728e+02
   5.224602e+01  -6.250414e+01
   7.299330e+01  -2.476370e+00
   2.184373e+01   1.469813e+01
  -2.750547e+01  -1.936134e+01
  -6.996342e+00  -5.280977e+01
   5.475789e+01  -3.637975e+01
   7.234387e+01   1.152120e+01
   2.041961e+01   3.150432e+01
  -3.435218e+01   3.450433e+00
  -2.062290e+01  -3.292541e+01
   5.408873e+01  -3.312468e+01
   1.171810e+02   8.035146e+00
   1.049857e+02   6.590061e+01
   1.678327e+01   1.075757e+02
  -8.443429e+01   1.019467e+02
  -1.203082e+02   4.286383e+01
  -6.725055e+01  -2.642248e+01
   1.411633e+01  -4.343286e+01
   3.703279e+01   2.665473e-01
  -1.760223e+01   4.068450e+01
  -8.250308e+01   1.794877e+01
  -8.424156e+01  -4.861038e+01
  -2.199316e+01  -8.708895e+01
   4.348335e+01  -6.158460e+01
   5.973362e+01  -7.124656e+00
   2.684774e+01   1.952460e+01
  -1.283369e+01  -1.075838e-02
  -1.362041e+01  -3.643923e+01
   3.308035e+01  -4.543577e+01
   8.294171e+01  -6.538457e+00
   7.547358e+01   5.625229e+01
   2.459338e+00   9.015054e+01
  -7.208923e+01   6.251630e+01
  -7.924911e+01  -2.840514e+00
  -2.295793e+01  -4.848247e+01
   3.073271e+01  -4.349156e+01
   3.483833e+01  -9.819104e+00
   6.237113e+00   1.170525e+01
  -1.027195e+01   7.209405e+00
   3.581754e+00  -3.723184e+00
   2.914401e+01   4.325071e+00
   3.502835e+01   3.556809e+01
   2.587801e+00   6.594984e+01
  -5.608364e+01   5.977660e+01
  -9.702857e+01   4.250180e+00
  -7.887212e+01  -6.720823e+01
  -1.072992e+01  -9.828076e+01
   4.915264e+01  -6.638052e+01
   5.620397e+01  -7.637351e+00
   2.734781e+01   2.413574e+01
   1.080781e+01   1.503522e+01
   2.221547e+01  -3.782521e+00
   3.314433e+01  -8.756699e-01
   1.673289e+01   2.124924e+01
  -1.882139e+01   3.556880e+01
  -4.370944e+01   2.122500e+01
  -3.527386e+01  -1.627932e+01
   7.741616e+00  -4.572866e+01
   6.081474e+01  -3.254712e+01
   8.026328e+01   2.600169e+01
   3.592497e+01   8.592899e+01
  -5.017808e+01   9.135378e+01
  -1.123401e+02   3.219812e+01
  -1.031110e+02  -4.233190e+01
  -3.985005e+01  -7.537273e+01
   2.001765e+01  -5.912295e+01
   4.085702e+01  -3.174238e+01
   3.392001e+01  -2.615195e+01
   2.921905e+01  -3.540262e+01
   3.944080e+01  -2.815601e+01
   5.192981e+01   1.200683e+01
   4.427166e+01   6.598086e+01
   6.237102e+00   9.339530e+01
  -4.505189e+01   6.785683e+01
  -7.251150e+01   3.415640e+00
  -5.255016e+01  -5.391339e+01
  -3.267701e+00  -6.608980e+01
   3.067636e+01  -3.589478e+01
   2.526873e+01   1.835780e+00
   8.878503e-01   1.837069e+01
  -5.849962e+00   1.448027e+01
   1.371841e+01   8.405778e+00
   3.187906e+01   1.092383e+01
   1.760804e+01   1.666870e+01
  -2.730770e+01   1.390870e+01
  -6.547382e+01  -2.505955e+00
  -5.768837e+01  -2.512336e+01
  -3.608526e+00  -3.754252e+01
   5.182122e+01  -2.763817e+01
   5.996954e+01  -1.450780e+00
   1.890168e+01   1.853999e+01
  -2.530920e+01   1.408405e+01
  -3.060721e+01  -9.561089e+00
  -2.150137e+00  -2.800982e+01
   2.349861e+01  -2.230539e+01
   2.591509e+01   2.045933e+00
   1.743767e+01   2.113825e+01
   1.695294e+01   1.812677e+01
   2.468629e+01   2.684837e+00
   2.695566e+01   2.011026e+00
   1.327153e+01   2.842998e+01
  -1.655140e+01   5.875679e+01
  -5.133198e+01   5.521176e+01
  -6.862180e+01   9.977896e+00
  -4.847955e+01  -4.020316e+01
   4.684959e-01  -5.214002e+01
   3.669706e+01  -2.354751e+01
   2.405194e+01   7.332282e+00
  -2.456031e+01   6.689646e+00
  -5.476457e+01  -2.123792e+01
  -2.798095e+01  -4.585886e+01
   3.601479e+01  -4.377498e+01
   7.944309e+01  -1.593049e+01
   6.549952e+01   1.846478e+01
   1.266583e+01   3.649510e+01
  -2.712526e+01   2.681118e+01
  -2.049133e+01   1.338539e+00
   1.639858e+01  -1.026273e+01
   3.638097e+01   1.120611e+01
   1.073137e+01   4.882367e+01
  -4.043525e+01   6.029203e+01
  -6.905095e+01   2.132613e+01
  -4.883228e+01  -4.369038e+01
   6.114697e-01  -8.033497e+01
   3.844638e+01  -5.635779e+01
   4.264110e+01   5.610326e+00
   2.159707e+01   4.995093e+01
  -4.078366e+00   4.363705e+01
  -1.968512e+01   7.033815e+00
  -2.016445e+01  -1.432873e+01
  -9.895951e+00  -4.433642e+00
  -2.327359e+00   8.224063e+00
  -8.696156e+00  -6.604162e+00
  -2.063521e+01  -3.750379e+01
  -1.376721e+01  -4.583733e+01
   2.077321e+01  -1.744768e+01
   5.518729e+01   1.958586e+01
   5.079616e+01   3.242484e+01
   6.070480e+00   2.084965e+01
  -3.594085e+01   6.720003e+00
  -3.620704e+01   7.238826e-01
  -4.688659e+00  -3.236908e+00
   1.613018e+01  -7.938861e+00
   6.662698e+00  -6.998238e+00
  -8.362872e+00  -5.232467e-02
   1.843694e+00   3.790630e+00
   2.962805e+01   3.537729e+00
   3.665438e+01   1.189712e+01
   2.029372e+00   3.245803e+01
  -5.051830e+01   4.325290e+01
  -7.685546e+01   1.952255e+01
  -5.613342e+01  -3.023547e+01
  -6.555787e+00  -6.622751e+01
   3.584663e+01  -5.927397e+01
   4.782120e+01  -2.132218e+01
   3.216986e+01   1.071680e+01
   9.394251e+00   1.510260e+01
  -1.032636e+00   3.471939e+00
   4.373791e+00   1.979217e+00
   1.229946e+01   1.969491e+01
   6.768780e+00   3.743377e+01
  -1.370783e+01   2.841040e+01
  -3.228338e+01  -9.542732e+00
  -2.847657e+01  -4.561788e+01
   7.308401e-01  -4.530774e+01
   3.346025e+01  -7.688746e+00
   3.971521e+01   3.272972e+01
   1.074524e+01   4.259732e+01
  -2.801762e+01   2.122883e+01
  -3.961057e+01  -6.918810e+00
  -1.519221e+01  -2.167900e+01
   1.436292e+01  -2.071394e+01
   1.380758e+01  -1.101918e+01
  -1.329845e+01  -7.110120e-01
  -2.822634e+01   1.022869e+00
  -5.655990e+00  -1.055636e+01
   3.386991e+01  -2.475987e+01
   4.891554e+01  -2.082487e+01
   2.614822e+01   6.447886e+00
  -8.363094e+00   3.335619e+01
  -2.366225e+01   3.126293e+01
  -1.529229e+01   1.960952e+00
   6.922377e-01  -2.237946e+01
   1.126874e+01  -1.692812e+01
   1.406034e+01   7.989628e+00
   9.490626e+00   2.253866e+01
  -1.643202e+00   1.351261e+01
  -1.312432e+01  -4.145906e+00
  -1.583881e+01  -9.681748e+00
  -8.483855e+00  -1.134971e+00
   2.754629e-01   5.917376e+00
   3.237553e+00  -5.024640e-01
   3.283284e+00  -1.410831e+01
   6.863671e+00  -1.758416e+01
   1.255200e+01  -2.779357e+00
   1.128918e+01   1.821437e+01
  -1.738386e+00   2.413046e+01
  -1.826805e+01   7.300739e+00
  -2.201238e+01  -1.689024e+01
  -4.411236e+00  -2.569361e+01
   2.318105e+01  -1.256364e+01
   3.574536e+01   8.208684e+00
   1.885631e+01   1.905527e+01
  -1.256983e+01   1.602495e+01
  -2.665556e+01   7.348028e+00
  -1.010888e+01   1.602804e+00
   1.446402e+01   1.902749e+00
   1.439596e+01   7.064094e+00
  -1.313044e+01   1.136391e+01
  -3.690073e+01   5.276736e+00
