
 $NMID
 id='ANONYMOUS ', fmtdat='(2E16.6)'
 volume=1.0
 tramp=1.0
 $END
   1.871793e+03  -1.493493e+02
   1.175349e+03   1.070837e+03
  -2.609431e+02   1.233168e+03
  -9.267142e+02   4.284245e+02
  -4.423823e+02  -3.074568e+02
   2.892478e+02  -3.064190e+02
   4.258701e+02   1.620496e+02
   3.609580e+01   4.793782e+02
  -3.444339e+02   3.700682e+02
  -4.184396e+02  -2.035580e+01
  -2.205472e+02  -3.717255e+02
   8.820214e+01  -4.006020e+02
   2.870899e+02  -7.012669e+01
   1.961372e+02   3.052811e+02
  -9.815366e+01   3.373023e+02
  -2.698012e+02   1.251761e+01
  -1.343084e+02  -2.920799e+02
   1.337355e+02  -2.801686e+02
   2.560920e+02  -4.368547e+01
   1.726431e+02   1.517367e+02
   1.210664e+01   1.909962e+02
  -1.017987e+02   1.208131e+02
  -9.928137e+01   1.359061e+01
   3.392068e+01  -4.681782e+01
   1.731043e+02   2.264538e+01
   1.080847e+02   1.704503e+02
  -1.713839e+02   1.962983e+02
  -3.652312e+02   4.092632e+00
  -2.115351e+02  -2.220161e+02
   1.455792e+02  -2.301649e+02
   3.220588e+02  -1.754339e+01
   1.697044e+02   1.938798e+02
  -1.003708e+02   2.330795e+02
  -2.351618e+02   1.057033e+02
  -1.870944e+02  -8.599308e+01
  -4.600388e+01  -2.068399e+02
   8.272238e+01  -1.359778e+02
   9.447628e+01   8.581779e+01
  -4.670136e+01   2.022409e+02
  -1.961010e+02   1.981479e+01
  -1.391340e+02  -2.805500e+02
   1.104726e+02  -3.189041e+02
   2.689396e+02  -2.724928e+01
   1.394055e+02   2.341970e+02
  -1.154539e+02   1.568746e+02
  -1.832883e+02  -1.204509e+02
   6.124263e+00  -2.372903e+02
   2.312795e+02  -7.917452e+01
   2.649255e+02   1.531267e+02
   8.684737e+01   2.449522e+02
  -1.530200e+02   1.612704e+02
  -2.709715e+02  -1.235375e+01
  -1.723946e+02  -1.582606e+02
   5.661812e+01  -1.688274e+02
   1.944116e+02  -3.829915e+01
   1.140788e+02   8.589299e+01
  -5.146931e+01   5.844711e+01
  -7.439082e+01  -6.351131e+01
   6.288682e+01  -9.318154e+01
   1.555169e+02   1.921500e+01
   7.173242e+01   1.279120e+02
  -8.217782e+01   1.156210e+02
  -1.380972e+02   3.266161e+01
  -7.770418e+01  -3.363303e+01
   1.057317e+01  -8.618127e+01
   8.020737e+01  -1.328446e+02
   1.292055e+02  -1.007436e+02
   1.265036e+02   4.469666e+01
   4.913184e+01   1.824235e+02
  -4.081234e+01   1.705561e+02
  -5.728308e+01   5.044457e+01
  -1.564036e+01  -1.266540e+01
  -1.015607e+01   3.035086e+01
  -6.960874e+01   6.127544e+01
  -1.160331e+02  -7.853682e+00
  -7.850431e+01  -1.053582e+02
   1.817101e+01  -1.117343e+02
   9.416556e+01  -1.588881e+01
   9.242659e+01   9.130236e+01
   8.197357e+00   1.237500e+02
  -1.060164e+02   5.999905e+01
  -1.570971e+02  -5.709798e+01
  -8.999388e+01  -1.435004e+02
   3.481798e+01  -1.348330e+02
   9.690977e+01  -5.641792e+01
   6.620961e+01  -6.658285e-01
   3.813974e+01  -1.184670e+01
   8.990669e+01  -3.216401e+01
   1.635507e+02   1.133312e+01
   1.439328e+02   1.074146e+02
   1.198852e+01   1.813895e+02
  -1.353259e+02   1.789182e+02
  -1.952697e+02   9.719165e+01
  -1.442618e+02  -2.706040e+01
  -3.464323e+01  -1.215301e+02
   4.745911e+01  -1.137375e+02
   3.882623e+01  -1.717755e+01
  -3.887604e+01   5.210058e+01
  -8.500690e+01   8.136330e+00
  -3.172473e+01  -8.210448e+01
   6.272195e+01  -8.271700e+01
   8.162424e+01   1.782213e+01
   1.569282e+00   8.467848e+01
  -8.063994e+01   2.266116e+01
  -7.523784e+01  -9.865450e+01
   5.095120e+00  -1.458348e+02
   9.016990e+01  -8.289854e+01
   1.329317e+02   1.980612e+01
   1.181912e+02   8.933904e+01
   4.742200e+01   1.032567e+02
  -4.042928e+01   6.953837e+01
  -7.410957e+01   1.557321e+01
  -2.797947e+01  -1.217939e+01
   3.009496e+01   1.136111e+01
   1.861672e+01   5.011197e+01
  -4.694544e+01   4.702249e+01
  -7.594506e+01   2.019370e+00
  -2.903219e+01  -2.864051e+01
   3.082367e+01  -1.117519e+01
   2.485538e+01   2.603175e+01
  -4.628929e+01   3.700881e+01
  -1.124224e+02   7.384962e+00
  -1.099948e+02  -4.786507e+01
  -3.324222e+01  -1.004968e+02
   6.567181e+01  -1.127004e+02
   1.131725e+02  -6.239463e+01
   7.454354e+01   1.579412e+01
  -5.189005e+00   4.836061e+01
  -3.902886e+01   8.334048e+00
   7.890531e+00  -4.343904e+01
   7.858784e+01  -3.232545e+01
   9.262547e+01   3.528660e+01
   3.607024e+01   8.497687e+01
  -3.422005e+01   6.982243e+01
  -5.970396e+01   1.772199e+01
  -3.268185e+01  -1.457332e+01
   8.622351e+00  -3.502094e+00
   1.687891e+01   2.987645e+01
  -2.418177e+01   4.591484e+01
  -7.789704e+01   1.761132e+01
  -8.170715e+01  -4.393214e+01
  -1.582160e+01  -8.911763e+01
   6.349235e+01  -7.334037e+01
   8.182994e+01  -8.129406e+00
   3.186759e+01   4.692944e+01
  -2.425802e+01   4.955923e+01
  -3.455258e+01   1.604010e+01
  -1.007218e+01  -9.437843e+00
   6.287248e+00  -8.323365e+00
  -4.757058e+00   1.794991e+00
  -2.779573e+01  -3.739398e+00
  -3.566489e+01  -3.102049e+01
  -9.521693e+00  -6.196765e+01
   4.587940e+01  -6.414159e+01
   9.311162e+01  -1.772838e+01
   8.659009e+01   5.461349e+01
   2.413677e+01   9.651912e+01
  -4.052749e+01   7.375401e+01
  -5.589561e+01   1.457355e+01
  -3.060556e+01  -2.236098e+01
  -1.242039e+01  -1.494730e+01
  -2.137478e+01   5.924674e+00
  -3.158363e+01   4.083490e+00
  -1.640712e+01  -1.918697e+01
   1.623322e+01  -3.503873e+01
   3.888331e+01  -2.265263e+01
   3.296588e+01   1.246207e+01
  -3.304649e+00   4.294876e+01
  -5.332078e+01   3.687343e+01
  -7.971669e+01  -1.459312e+01
  -4.700448e+01  -7.729660e+01
   3.510166e+01  -9.551278e+01
   1.054728e+02  -4.754410e+01
   1.084386e+02   2.728746e+01
   5.086678e+01   6.961839e+01
  -1.146848e+01   6.206212e+01
  -3.694043e+01   3.752904e+01
  -3.170228e+01   3.080589e+01
  -2.605439e+01   3.877264e+01
  -3.630337e+01   3.199323e+01
  -5.259251e+01  -6.414160e+00
  -5.151194e+01  -5.995808e+01
  -1.799432e+01  -9.126052e+01
   3.546994e+01  -7.315667e+01
   7.111806e+01  -1.399191e+01
   5.940211e+01   4.518086e+01
   1.299775e+01   6.447217e+01
  -2.376536e+01   4.009046e+01
  -2.351867e+01   3.094994e+00
  -3.347306e+00  -1.575782e+01
   1.913603e+00  -1.339562e+01
  -1.631551e+01  -6.744022e+00
  -3.248686e+01  -8.082339e+00
  -1.847477e+01  -1.452966e+01
   2.423439e+01  -1.576352e+01
   6.229093e+01  -4.727172e+00
   5.872892e+01   1.622866e+01
   9.480829e+00   3.392653e+01
  -4.581678e+01   3.241051e+01
  -5.825186e+01   9.777435e+00
  -2.066469e+01  -1.435294e+01
   2.385817e+01  -1.608726e+01
   3.112790e+01   6.074895e+00
   3.466736e+00   2.762654e+01
  -2.254226e+01   2.455626e+01
  -2.548386e+01  -9.170385e-03
  -1.780063e+01  -1.987565e+01
  -1.813935e+01  -1.604456e+01
  -2.555121e+01   7.556384e-01
  -2.697325e+01   1.415395e+00
  -1.480210e+01  -2.659067e+01
   1.074104e+01  -5.946709e+01
   4.316651e+01  -5.914551e+01
   6.425841e+01  -1.659134e+01
   5.127713e+01   3.398601e+01
   5.789223e+00   5.012965e+01
  -3.313778e+01   2.595478e+01
  -2.465011e+01  -5.165539e+00
   2.363411e+01  -9.555827e+00
   5.731905e+01   1.432824e+01
   3.400882e+01   4.158184e+01
  -2.956033e+01   4.778727e+01
  -7.610693e+01   2.663962e+01
  -6.718254e+01  -8.771985e+00
  -1.801396e+01  -3.414295e+01
   2.228895e+01  -3.075290e+01
   1.940246e+01  -5.029451e+00
  -1.512076e+01   1.139651e+01
  -3.722719e+01  -7.339498e+00
  -1.571562e+01  -4.798573e+01
   3.462208e+01  -6.522053e+01
   6.778931e+01  -2.899299e+01
   5.430560e+01   3.865561e+01
   8.615384e+00   8.077366e+01
  -3.142496e+01   6.114424e+01
  -4.250975e+01   3.068983e-01
  -2.795496e+01  -4.595164e+01
  -3.131731e+00  -4.315997e+01
   1.732964e+01  -9.597503e+00
   2.248422e+01   1.100990e+01
   1.167578e+01   2.578901e+00
   7.753842e-01  -8.662887e+00
   7.509772e+00   5.468289e+00
   2.448310e+01   3.456427e+01
   2.087769e+01   4.341300e+01
  -1.694559e+01   1.936445e+01
  -5.747987e+01  -1.284376e+01
  -5.526482e+01  -2.558546e+01
  -8.086289e+00  -1.947312e+01
   3.609741e+01  -1.107164e+01
   3.582390e+01  -5.492007e+00
   3.754062e+00   2.616530e+00
  -1.550556e+01   1.026473e+01
  -4.553537e+00   8.008412e+00
   9.395286e+00  -1.170224e+00
  -2.972420e+00  -3.771044e+00
  -3.123300e+01  -1.915644e-02
  -3.765877e+01  -7.886671e+00
  -3.919197e+00  -3.292427e+01
   4.681770e+01  -4.915256e+01
   7.411737e+01  -2.697455e+01
   5.831932e+01   2.556266e+01
   1.356456e+01   6.574470e+01
  -2.880903e+01   6.199837e+01
  -4.511038e+01   2.547384e+01
  -3.330985e+01  -7.176857e+00
  -1.061735e+01  -1.362182e+01
   1.751968e+00  -3.421078e+00
  -3.667594e+00  -1.149985e+00
  -1.457985e+01  -1.730790e+01
  -1.168096e+01  -3.565666e+01
   1.024126e+01  -2.968931e+01
   3.376344e+01   5.933453e+00
   3.369610e+01   4.303916e+01
   3.327358e+00   4.607697e+01
  -3.401854e+01   1.100501e+01
  -4.369115e+01  -2.950834e+01
  -1.449761e+01  -4.171583e+01
   2.640896e+01  -2.327450e+01
   3.955599e+01   3.382033e+00
   1.599103e+01   1.924838e+01
  -1.246930e+01   2.066500e+01
  -1.125170e+01   1.158573e+01
   1.482530e+01  -7.765999e-01
   2.816546e+01  -4.062392e+00
   6.154134e+00   9.798099e+00
  -3.071471e+01   2.858157e+01
  -4.476946e+01   2.658060e+01
  -2.516564e+01  -3.301754e+00
   4.905903e+00  -3.390429e+01
   1.943498e+01  -3.272835e+01
   1.443959e+01  -2.008785e+00
   1.426123e+00   2.325085e+01
  -9.971861e+00   1.750690e+01
  -1.549522e+01  -7.434309e+00
  -1.173931e+01  -2.143328e+01
   9.701802e-01  -1.279444e+01
   1.375180e+01   3.102470e+00
   1.609837e+01   7.361619e+00
   8.164239e+00  -3.566596e-01
  -1.521850e-02  -5.313614e+00
  -2.163905e+00   2.455696e+00
  -2.641444e+00   1.591306e+01
  -7.568747e+00   1.846285e+01
  -1.409262e+01   2.718123e+00
  -1.270486e+01  -1.905769e+01
   8.863067e-01  -2.557992e+01
   1.831240e+01  -8.998371e+00
   2.343944e+01   1.561104e+01
   6.852829e+00   2.578065e+01
  -2.142329e+01   1.463576e+01
  -3.608647e+01  -4.985825e+00
  -2.068026e+01  -1.698460e+01
   1.106929e+01  -1.666477e+01
   2.608394e+01  -9.343864e+00
   9.364695e+00  -2.034892e+00
  -1.625035e+01  -2.105494e-01
  -1.647104e+01  -6.254852e+00
   1.221933e+01  -1.423331e+01
   3.784000e+01  -1.041574e+01
