
 $NMID
 id='ANONYMOUS ', fmtdat='(2E16.6)'
 volume=1.0
 tramp=1.0
 $END
  -2.945738e+03  -1.634728e+02
  -1.714966e+03  -1.719262e+03
   3.578573e+02  -1.811241e+03
   1.292205e+03  -7.604794e+02
   6.892054e+02   1.699547e+02
  -2.518279e+02   2.436460e+02
  -4.502935e+02  -2.454754e+02
   3.027020e+01  -6.150580e+02
   5.183924e+02  -4.906503e+02
   6.023587e+02   3.312096e+01
   3.088412e+02   5.395916e+02
  -1.166774e+02   5.802172e+02
  -3.580823e+02   9.032561e+01
  -2.120025e+02  -4.522422e+02
   1.738481e+02  -4.880341e+02
   3.875108e+02  -7.915857e+00
   2.006824e+02   4.585106e+02
  -1.844867e+02   4.779025e+02
  -4.033004e+02   1.323834e+02
  -3.122285e+02  -2.075779e+02
  -4.915352e+01  -3.064461e+02
   1.457130e+02  -1.889429e+02
   1.045819e+02  -2.852272e+01
  -1.288783e+02  -1.036151e+01
  -2.688017e+02  -1.749868e+02
  -5.103480e+01  -3.242227e+02
   3.880297e+02  -2.070470e+02
   5.671570e+02   1.394091e+02
   2.274455e+02   3.728594e+02
  -3.041801e+02   2.475969e+02
  -4.861792e+02  -9.909457e+01
  -1.880459e+02  -3.446528e+02
   2.342951e+02  -3.281074e+02
   4.063179e+02  -1.084261e+02
   2.787420e+02   1.647708e+02
   4.205751e+01   3.047837e+02
  -9.694516e+01   1.685953e+02
  -3.464728e+01  -1.310112e+02
   1.599016e+02  -2.224898e+02
   2.531637e+02   8.896997e+01
   6.946993e+01   4.730794e+02
  -2.511324e+02   4.307704e+02
  -3.588027e+02  -2.632951e+01
  -1.211096e+02  -3.477273e+02
   1.860207e+02  -1.621093e+02
   2.036220e+02   2.514239e+02
  -9.318021e+01   3.633802e+02
  -3.962699e+02   5.472716e+01
  -4.090724e+02  -3.244810e+02
  -1.071386e+02  -4.265914e+02
   2.771693e+02  -2.256533e+02
   4.446971e+02   7.432823e+01
   2.643039e+02   2.567238e+02
  -9.069578e+01   2.201829e+02
  -2.831313e+02   3.772694e+01
  -1.673694e+02  -9.059933e+01
   4.608515e+01  -4.041701e+01
   6.479688e+01   8.407604e+01
  -1.120251e+02   8.609468e+01
  -2.195317e+02  -6.077569e+01
  -9.206632e+01  -1.946389e+02
   1.450816e+02  -1.906519e+02
   2.638305e+02  -7.665587e+01
   1.819435e+02   7.363065e+01
  -1.912070e+01   2.158046e+02
  -2.107637e+02   2.708374e+02
  -2.862051e+02   1.403752e+02
  -2.027550e+02  -1.282285e+02
  -3.494554e+01  -3.134693e+02
   6.975419e+01  -2.672196e+02
   5.328124e+01  -1.059438e+02
   1.736551e+01  -4.046500e+01
   7.458901e+01  -8.406177e+01
   1.833351e+02  -6.818238e+01
   2.049548e+02   7.883856e+01
   8.852562e+01   2.143221e+02
  -7.597701e+01   1.739133e+02
  -1.660189e+02  -2.119614e+01
  -1.226161e+02  -1.985480e+02
   3.384140e+01  -2.137799e+02
   2.061952e+02  -6.068829e+01
   2.564876e+02   1.453013e+02
   1.273648e+02   2.587434e+02
  -6.739170e+01   2.184440e+02
  -1.541072e+02   1.004419e+02
  -1.133621e+02   3.179185e+01
  -9.785097e+01   4.157481e+01
  -2.050066e+02   3.547429e+01
  -3.188226e+02  -7.061508e+01
  -2.486090e+02  -2.377544e+02
   2.281497e+01  -3.457096e+02
   3.024481e+02  -3.084167e+02
   3.850074e+02  -1.329112e+02
   2.404693e+02   8.729570e+01
   1.802665e+01   2.155613e+02
  -9.593764e+01   1.695385e+02
  -3.485155e+01   2.078013e+01
   9.573314e+01  -5.346400e+01
   1.275700e+02   2.669145e+01
   1.371595e+01   1.344031e+02
  -1.158620e+02   9.993964e+01
  -1.091285e+02  -5.245841e+01
   2.659278e+01  -1.253929e+02
   1.410792e+02  -5.065961e+00
   1.160204e+02   1.936423e+02
  -2.920014e+01   2.691425e+02
  -1.896226e+02   1.521401e+02
  -2.672542e+02  -5.533668e+01
  -2.132833e+02  -2.042934e+02
  -5.343798e+01  -2.157278e+02
   1.009281e+02  -1.150385e+02
   1.293518e+02  -3.816029e+00
   3.415345e+01   2.039807e+01
  -4.699391e+01  -4.296581e+01
  -4.923293e+00  -9.597616e+01
   1.019091e+02  -6.079082e+01
   1.270279e+02   2.261124e+01
   3.124616e+01   5.259874e+01
  -6.592198e+01  -1.558008e+00
  -3.538061e+01  -6.851690e+01
   1.099230e+02  -6.679137e+01
   2.307032e+02   1.583761e+01
   2.017306e+02   1.300900e+02
   2.688044e+01   2.067120e+02
  -1.629549e+02   1.893942e+02
  -2.209674e+02   7.792695e+01
  -1.178252e+02  -4.436678e+01
   2.629479e+01  -7.221894e+01
   6.094565e+01   3.091212e+00
  -3.841463e+01   7.083114e+01
  -1.519372e+02   2.950488e+01
  -1.537270e+02  -8.809280e+01
  -4.194094e+01  -1.569920e+02
   7.704117e+01  -1.113965e+02
   1.062403e+02  -1.255050e+01
   4.334882e+01   3.368172e+01
  -2.972731e+01  -8.014898e+00
  -2.446006e+01  -7.838209e+01
   6.975155e+01  -9.053367e+01
   1.625538e+02  -1.127924e+01
   1.435374e+02   1.070830e+02
   5.825507e+00   1.680098e+02
  -1.304799e+02   1.179246e+02
  -1.435687e+02   7.556085e-01
  -4.264550e+01  -8.351695e+01
   5.401841e+01  -7.828612e+01
   6.069736e+01  -1.843330e+01
   6.162017e+00   2.144428e+01
  -2.487297e+01   1.072525e+01
   6.325991e+00  -1.378274e+01
   6.244153e+01   2.718585e+00
   7.523036e+01   6.953723e+01
   7.237372e+00   1.323193e+02
  -1.098311e+02   1.177226e+02
  -1.867818e+02   7.754181e+00
  -1.506312e+02  -1.270140e+02
  -2.413638e+01  -1.833610e+02
   8.698257e+01  -1.253123e+02
   1.039863e+02  -1.911244e+01
   5.460546e+01   4.009617e+01
   2.339983e+01   2.546279e+01
   4.297814e+01  -9.350389e+00
   6.613817e+01  -3.845989e+00
   3.856405e+01   4.245729e+01
  -3.303626e+01   7.588290e+01
  -8.984653e+01   4.777668e+01
  -7.634997e+01  -3.249567e+01
   1.370447e+01  -9.514723e+01
   1.226547e+02  -6.720506e+01
   1.580630e+02   5.078385e+01
   6.750351e+01   1.664811e+02
  -9.769712e+01   1.745027e+02
  -2.126988e+02   6.206730e+01
  -1.938615e+02  -7.664007e+01
  -7.597726e+01  -1.384309e+02
   3.528461e+01  -1.101789e+02
   7.369434e+01  -6.117710e+01
   5.947030e+01  -5.195225e+01
   5.048263e+01  -7.059910e+01
   7.285289e+01  -5.811372e+01
   1.010990e+02   1.840277e+01
   8.893985e+01   1.231836e+02
   1.617083e+01   1.775478e+02
  -8.258344e+01   1.298082e+02
  -1.359791e+02   7.235538e+00
  -9.947589e+01  -1.017305e+02
  -6.305323e+00  -1.244359e+02
   5.937188e+01  -6.581755e+01
   4.915424e+01   7.569133e+00
  -5.158545e-01   3.900058e+01
  -1.630700e+01   2.840095e+01
   2.348005e+01   1.284654e+01
   6.350005e+01   1.715458e+01
   3.659481e+01   3.153283e+01
  -5.484696e+01   2.927019e+01
  -1.310134e+02  -2.844253e+00
  -1.119827e+02  -4.912698e+01
  -3.137064e+00  -7.483588e+01
   1.024714e+02  -5.548789e+01
   1.144720e+02  -3.281605e+00
   3.554927e+01   3.771343e+01
  -4.746761e+01   3.075603e+01
  -5.986051e+01  -1.609934e+01
  -9.926372e+00  -5.542468e+01
   4.003590e+01  -4.707878e+01
   5.163439e+01   6.734562e-01
   3.965376e+01   3.964424e+01
   3.517040e+01   3.419343e+01
   4.512518e+01   3.395372e+00
   5.116115e+01   2.361421e+00
   3.046532e+01   5.538873e+01
  -2.592526e+01   1.160116e+02
  -9.822432e+01   1.103428e+02
  -1.366281e+02   2.322002e+01
  -9.783602e+01  -7.535032e+01
  -5.512975e-01  -1.022547e+02
   7.125162e+01  -5.008753e+01
   4.733929e+01   1.096196e+01
  -4.612563e+01   1.450021e+01
  -1.044515e+02  -3.646481e+01
  -5.414033e+01  -8.539918e+01
   6.719848e+01  -8.439142e+01
   1.497911e+02  -3.213947e+01
   1.236386e+02   3.391523e+01
   2.381305e+01   6.820498e+01
  -5.129436e+01   4.931756e+01
  -3.875724e+01   6.085123e-01
   3.125388e+01  -2.213272e+01
   7.101841e+01   1.800535e+01
   2.620274e+01   9.146078e+01
  -6.881055e+01   1.184046e+02
  -1.268576e+02   4.830309e+01
  -9.601426e+01  -7.676780e+01
  -6.260063e+00  -1.513290e+02
   6.842814e+01  -1.085604e+02
   8.135428e+01   9.817982e+00
   4.211659e+01   9.473087e+01
  -9.278688e+00   8.196117e+01
  -3.918708e+01   1.251184e+01
  -3.686194e+01  -2.642214e+01
  -1.580278e+01  -7.310514e+00
  -4.628386e+00   1.467866e+01
  -2.053908e+01  -1.442004e+01
  -4.244792e+01  -7.081206e+01
  -2.546670e+01  -8.482213e+01
   4.182715e+01  -3.342623e+01
   1.055138e+02   3.298299e+01
   9.624067e+01   5.791918e+01
   1.316274e+01   4.067577e+01
  -6.537133e+01   1.655691e+01
  -6.824251e+01   2.976811e+00
  -1.152456e+01  -7.497964e+00
   2.869356e+01  -1.587588e+01
   1.416765e+01  -1.172759e+01
  -1.355348e+01   1.405802e+00
   2.741009e+00   5.784294e+00
   5.393966e+01   2.854068e+00
   7.130624e+01   1.940396e+01
   1.100482e+01   6.218856e+01
  -8.929886e+01   8.759193e+01
  -1.463520e+02   4.557872e+01
  -1.134567e+02  -5.057388e+01
  -1.960762e+01  -1.249504e+02
   6.484741e+01  -1.175912e+02
   9.078404e+01  -4.669425e+01
   6.215090e+01   1.730658e+01
   1.954941e+01   2.915486e+01
   2.557381e-01   8.369938e+00
   9.808360e+00   5.146499e+00
   2.372644e+01   3.801678e+01
   1.364200e+01   7.136191e+01
  -2.422451e+01   5.523989e+01
  -6.129371e+01  -1.459150e+01
  -5.872077e+01  -8.254467e+01
  -5.566031e+00  -8.590108e+01
   6.055612e+01  -2.023547e+01
   7.922310e+01   5.566684e+01
   2.661697e+01   8.040331e+01
  -5.104998e+01   4.584092e+01
  -7.840274e+01  -8.794913e+00
  -3.297009e+01  -4.309950e+01
   2.657025e+01  -4.425360e+01
   2.888021e+01  -2.236830e+01
  -2.252919e+01   1.680388e+00
  -5.345343e+01   4.833975e+00
  -1.283292e+01  -2.057491e+01
   6.260452e+01  -4.951561e+01
   9.388669e+01  -4.118910e+01
   5.311307e+01   1.234784e+01
  -1.273616e+01   6.507330e+01
  -4.482022e+01   6.277317e+01
  -3.207472e+01   7.492074e+00
  -2.471010e+00  -4.145792e+01
   1.951460e+01  -3.516174e+01
   2.762877e+01   1.124458e+01
   2.053156e+01   4.226778e+01
  -1.400453e+00   2.851763e+01
  -2.547764e+01  -5.638579e+00
  -3.179428e+01  -1.895386e+01
  -1.635709e+01  -2.952521e+00
   2.103340e+00   1.342431e+01
   6.039219e+00   3.030641e+00
   1.357926e+00  -2.548537e+01
   6.184208e+00  -3.707843e+01
   2.184924e+01  -1.150796e+01
   2.687868e+01   3.026463e+01
   3.994825e+00   4.581886e+01
  -3.275128e+01   1.725130e+01
  -4.563133e+01  -2.831620e+01
  -1.227484e+01  -4.773258e+01
   4.409590e+01  -2.650260e+01
   7.057140e+01   1.150828e+01
   3.813157e+01   3.468822e+01
  -2.274684e+01   3.335091e+01
  -5.059919e+01   1.856839e+01
  -2.095342e+01   4.592575e+00
   2.451699e+01   4.546254e-01
   2.650052e+01   8.944024e+00
  -2.141452e+01   2.054508e+01
  -6.530028e+01   1.339387e+01
