
 $NMID
 id='ANONYMOUS ', fmtdat='(2E16.6)'
 volume=1.0
 tramp=1.0
 $END
   3.190476e+03  -1.796207e+02
   2.022322e+03   1.768056e+03
  -3.275970e+02   2.069055e+03
  -1.475077e+03   8.528705e+02
  -7.877144e+02  -3.297549e+02
   3.594879e+02  -4.268994e+02
   6.266647e+02   2.357378e+02
   5.461107e+01   7.439444e+02
  -5.494257e+02   6.122332e+02
  -6.901126e+02  -3.765553e+00
  -3.864828e+02  -5.971647e+02
   1.094246e+02  -6.682190e+02
   4.376298e+02  -1.333143e+02
   3.083395e+02   4.921179e+02
  -1.532571e+02   5.628866e+02
  -4.423197e+02   3.575766e+01
  -2.459113e+02  -4.909004e+02
   1.969333e+02  -5.110058e+02
   4.386959e+02  -1.270416e+02
   3.297261e+02   2.328857e+02
   5.022932e+01   3.311039e+02
  -1.584080e+02   2.145482e+02
  -1.423553e+02   3.584897e+01
   9.221383e+01  -3.595170e+01
   2.925369e+02   1.001305e+02
   1.329992e+02   3.107972e+02
  -3.396183e+02   2.916628e+02
  -6.181592e+02  -4.376742e+01
  -3.225333e+02  -3.751277e+02
   2.695948e+02  -3.425665e+02
   5.367719e+02   1.322320e+01
   2.621860e+02   3.391577e+02
  -1.948178e+02   3.844854e+02
  -4.135366e+02   1.665369e+02
  -3.181528e+02  -1.493227e+02
  -7.839905e+01  -3.398989e+02
   1.132567e+02  -2.163982e+02
   1.081136e+02   1.348487e+02
  -1.084226e+02   2.971534e+02
  -3.021393e+02  -1.379351e+01
  -1.788569e+02  -4.837226e+02
   2.054898e+02  -5.153776e+02
   4.235017e+02  -3.144301e+01
   2.047572e+02   3.779830e+02
  -1.866071e+02   2.325993e+02
  -2.764722e+02  -2.237534e+02
   3.741743e+01  -3.998983e+02
   4.063129e+02  -1.145088e+02
   4.590500e+02   2.878708e+02
   1.497408e+02   4.351642e+02
  -2.695228e+02   2.718131e+02
  -4.740598e+02  -3.141600e+01
  -3.033822e+02  -2.631959e+02
   8.452065e+01  -2.697755e+02
   3.182493e+02  -6.847219e+01
   1.969793e+02   1.153118e+02
  -6.407559e+01   7.783428e+01
  -1.050972e+02  -9.366523e+01
   1.063034e+02  -1.320260e+02
   2.540784e+02   3.721708e+01
   1.215123e+02   2.102895e+02
  -1.414162e+02   2.085089e+02
  -2.601683e+02   7.788750e+01
  -1.667550e+02  -6.500550e+01
   1.580450e+01  -1.910917e+02
   1.748789e+02  -2.638819e+02
   2.579127e+02  -1.700093e+02
   2.205250e+02   9.843279e+01
   7.416960e+01   3.223177e+02
  -6.073236e+01   2.949487e+02
  -7.604808e+01   1.059311e+02
  -2.581856e+01   1.157858e+01
  -4.742705e+01   7.021481e+01
  -1.532971e+02   9.292264e+01
  -2.095257e+02  -4.106224e+01
  -1.222742e+02  -1.998476e+02
   4.821149e+01  -1.906318e+02
   1.685216e+02  -9.010903e+00
   1.514191e+02   1.784591e+02
  -2.397841e+00   2.204863e+02
  -1.974937e+02   9.151761e+01
  -2.769741e+02  -1.164130e+02
  -1.562139e+02  -2.569002e+02
   5.697860e+01  -2.369048e+02
   1.635506e+02  -1.099309e+02
   1.194443e+02  -2.187822e+01
   8.537951e+01  -3.402677e+01
   1.852064e+02  -5.165709e+01
   3.124813e+02   3.760364e+01
   2.643599e+02   2.111722e+02
   9.628637e+00   3.411569e+02
  -2.677294e+02   3.282900e+02
  -3.687993e+02   1.678168e+02
  -2.553343e+02  -6.021003e+01
  -4.810838e+01  -2.178934e+02
   8.428207e+01  -1.930055e+02
   5.133544e+01  -2.978871e+01
  -8.040864e+01   7.605043e+01
  -1.408385e+02  -6.518933e-01
  -4.102050e+01  -1.403032e+02
   1.098903e+02  -1.299675e+02
   1.304201e+02   3.706458e+01
  -6.374625e+00   1.401938e+02
  -1.433692e+02   2.804448e+01
  -1.337809e+02  -1.842333e+02
   1.075114e+01  -2.710681e+02
   1.748130e+02  -1.587722e+02
   2.596263e+02   3.909174e+01
   2.217708e+02   1.794915e+02
   7.593119e+01   2.013966e+02
  -8.435254e+01   1.240843e+02
  -1.322084e+02   2.069625e+01
  -4.364225e+01  -1.924669e+01
   5.150253e+01   3.061804e+01
   2.211406e+01   9.299756e+01
  -9.165421e+01   7.622483e+01
  -1.334118e+02  -4.977609e+00
  -4.401591e+01  -5.062280e+01
   6.073822e+01  -1.071429e+01
   4.169825e+01   5.738007e+01
  -9.671761e+01   7.022128e+01
  -2.200984e+02   4.513289e+00
  -2.057184e+02  -1.041849e+02
  -4.928883e+01  -1.950680e+02
   1.366058e+02  -2.027030e+02
   2.118892e+02  -1.031639e+02
   1.287752e+02   3.211864e+01
  -1.491779e+01   8.077490e+01
  -6.565075e+01   8.541296e+00
   2.427395e+01  -7.563758e+01
   1.469010e+02  -4.893434e+01
   1.647496e+02   7.143146e+01
   5.944248e+01   1.551601e+02
  -6.607045e+01   1.224050e+02
  -1.072560e+02   2.620052e+01
  -5.253909e+01  -2.811408e+01
   2.268248e+01   1.037192e+00
   2.902358e+01   6.662357e+01
  -5.557981e+01   8.924539e+01
  -1.531206e+02   2.586527e+01
  -1.501570e+02  -9.012764e+01
  -2.258358e+01  -1.659706e+02
   1.200096e+02  -1.308371e+02
   1.473629e+02  -1.298626e+01
   5.380068e+01   8.316835e+01
  -4.649231e+01   8.648493e+01
  -6.130591e+01   2.621267e+01
  -1.263313e+01  -1.866743e+01
   1.805325e+01  -1.301447e+01
  -7.768215e+00   9.260515e+00
  -5.798897e+01  -3.338047e+00
  -7.292002e+01  -6.227071e+01
  -1.559654e+01  -1.238891e+02
   9.461999e+01  -1.211165e+02
   1.792681e+02  -2.518425e+01
   1.588956e+02   1.097503e+02
   4.004043e+01   1.802066e+02
  -7.686835e+01   1.336984e+02
  -1.032842e+02   2.650179e+01
  -5.740520e+01  -3.899680e+01
  -2.437521e+01  -2.592038e+01
  -4.121904e+01   1.142529e+01
  -6.255242e+01   7.393292e+00
  -3.590662e+01  -3.865744e+01
   2.997479e+01  -7.206720e+01
   8.068531e+01  -4.720089e+01
   7.004303e+01   2.662150e+01
  -7.961655e+00   8.829777e+01
  -1.097013e+02   7.077243e+01
  -1.543026e+02  -3.509085e+01
  -8.141109e+01  -1.528748e+02
   7.665503e+01  -1.779765e+02
   2.020075e+02  -8.097093e+01
   1.993630e+02   5.764398e+01
   8.926105e+01   1.310374e+02
  -2.475885e+01   1.134581e+02
  -6.903655e+01   6.771368e+01
  -5.740148e+01   5.670058e+01
  -4.727262e+01   7.321125e+01
  -6.860216e+01   6.114897e+01
  -1.002003e+02  -1.221621e+01
  -9.600269e+01  -1.147567e+02
  -2.994081e+01  -1.729755e+02
   7.028324e+01  -1.350765e+02
   1.333720e+02  -2.053902e+01
   1.074376e+02   8.971533e+01
   1.872558e+01   1.214788e+02
  -4.964626e+01   7.128837e+01
  -4.619507e+01   3.290551e-02
  -3.369017e+00  -3.415180e+01
   9.593696e+00  -2.659407e+01
  -2.726265e+01  -1.152257e+01
  -6.276789e+01  -1.428397e+01
  -3.647028e+01  -2.844592e+01
   4.946359e+01  -3.063984e+01
   1.237476e+02  -6.102196e+00
   1.116094e+02   3.675408e+01
   1.179852e+01   6.855193e+01
  -9.255709e+01   6.034998e+01
  -1.110017e+02   1.383845e+01
  -3.763672e+01  -3.126391e+01
   4.523180e+01  -3.189858e+01
   5.943018e+01   1.200158e+01
   9.924389e+00   5.364897e+01
  -3.962129e+01   4.809832e+01
  -4.983699e+01   1.100422e+00
  -3.788667e+01  -3.764226e+01
  -3.551966e+01  -3.118916e+01
  -4.627243e+01   5.476855e-01
  -5.067724e+01   1.660890e+00
  -3.069120e+01  -5.198664e+01
   1.965819e+01  -1.144584e+02
   8.645099e+01  -1.128301e+02
   1.278403e+02  -3.044781e+01
   9.886150e+01   6.678817e+01
   8.268489e+00   9.775291e+01
  -6.543608e+01   5.123040e+01
  -4.712772e+01  -8.869496e+00
   4.460399e+01  -1.753543e+01
   1.065435e+02   2.830544e+01
   6.107202e+01   7.954043e+01
  -5.856197e+01   8.837960e+01
  -1.443433e+02   4.507136e+01
  -1.248255e+02  -2.145331e+01
  -3.051999e+01  -6.484838e+01
   4.467787e+01  -5.437581e+01
   3.707549e+01  -5.899724e+00
  -2.922376e+01   2.263883e+01
  -7.082079e+01  -1.373992e+01
  -3.070019e+01  -8.974694e+01
   6.284535e+01  -1.223553e+02
   1.250737e+02  -5.542101e+01
   1.010943e+02   7.124148e+01
   1.595849e+01   1.506517e+02
  -6.000211e+01   1.131662e+02
  -8.029232e+01  -2.332791e+00
  -4.959269e+01  -8.869815e+01
  -5.087990e-01  -8.086317e+01
   3.529170e+01  -1.597404e+01
   3.988923e+01   2.215268e+01
   1.876736e+01   5.231672e+00
   2.547372e+00  -1.537545e+01
   1.771991e+01   1.220200e+01
   4.607179e+01   6.640247e+01
   3.452712e+01   8.154320e+01
  -3.582380e+01   3.554849e+01
  -1.071776e+02  -2.516408e+01
  -1.010709e+02  -4.960316e+01
  -1.519591e+01  -3.817749e+01
   6.568823e+01  -2.086885e+01
   6.721596e+01  -8.625216e+00
   9.500379e+00   6.188982e+00
  -2.814905e+01   1.845309e+01
  -1.092313e+01   1.339280e+01
   1.538080e+01  -2.490597e+00
  -4.353011e+00  -6.121043e+00
  -5.607093e+01   5.608428e-01
  -7.137694e+01  -1.492070e+01
  -1.132433e+01  -6.189072e+01
   8.544833e+01  -9.267638e+01
   1.411456e+02  -5.234933e+01
   1.131124e+02   4.586471e+01
   2.640685e+01   1.232245e+02
  -5.597459e+01   1.184977e+02
  -8.630921e+01   4.984552e+01
  -6.266654e+01  -1.342226e+01
  -2.046701e+01  -2.680112e+01
   1.261336e+00  -7.674628e+00
  -8.411615e+00  -3.604660e+00
  -2.634838e+01  -3.440161e+01
  -1.962279e+01  -6.830500e+01
   2.001431e+01  -5.596207e+01
   6.254825e+01   1.080420e+01
   6.348661e+01   7.949867e+01
   8.770230e+00   8.596899e+01
  -6.142531e+01   2.265686e+01
  -8.237907e+01  -5.274474e+01
  -2.943098e+01  -7.851248e+01
   4.898579e+01  -4.643277e+01
   7.659809e+01   5.316187e+00
   3.256466e+01   3.892655e+01
  -2.397300e+01   4.236681e+01
  -2.453237e+01   2.253683e+01
   2.498764e+01  -2.663862e+00
   5.284971e+01  -7.881896e+00
   1.277319e+01   1.920920e+01
  -5.838087e+01   5.322698e+01
  -8.734378e+01   4.777045e+01
  -5.037091e+01  -8.074872e+00
   9.015421e+00  -6.460751e+01
   3.891126e+01  -6.310282e+01
   2.973351e+01  -6.483366e+00
   4.082543e+00   4.240092e+01
  -1.812761e+01   3.468155e+01
  -2.886797e+01  -1.151399e+01
  -2.251274e+01  -4.054154e+01
   9.446472e-01  -2.647808e+01
   2.583987e+01   4.861461e+00
   3.135558e+01   1.558885e+01
   1.573889e+01   7.727527e-01
  -1.349064e+00  -1.186702e+01
  -4.717175e+00   6.381937e-01
  -1.926379e+00   2.783245e+01
  -8.890988e+00   3.666842e+01
  -2.405348e+01   9.515151e+00
  -2.681532e+01  -3.216977e+01
  -2.990836e+00  -4.709572e+01
   3.297424e+01  -1.827463e+01
   4.587365e+01   2.738113e+01
   1.417800e+01   4.760912e+01
  -4.133725e+01   2.817502e+01
  -6.949495e+01  -8.344322e+00
  -3.943112e+01  -3.206716e+01
   2.085378e+01  -3.301009e+01
   4.929068e+01  -1.965808e+01
   1.926671e+01  -4.705962e+00
  -2.735190e+01   7.713281e-01
  -2.906242e+01  -9.100170e+00
   2.105730e+01  -2.426276e+01
   6.717076e+01  -1.882785e+01
