
 $NMID
 id='ANONYMOUS ', fmtdat='(2E16.6)'
 volume=1.0
 tramp=1.0
 $END
  -2.703395e+03   1.732886e+02
  -1.691500e+03  -1.546977e+03
   3.604653e+02  -1.773325e+03
   1.320572e+03  -6.428026e+02
   6.501947e+02   3.999695e+02
  -3.837700e+02   4.184474e+02
  -5.886230e+02  -2.256239e+02
  -4.677876e+01  -6.736473e+02
   4.916861e+02  -5.267238e+02
   5.991642e+02   2.573648e+01
   3.179460e+02   5.305164e+02
  -1.211922e+02   5.750995e+02
  -4.025330e+02   1.030121e+02
  -2.737145e+02  -4.352209e+02
   1.418781e+02  -4.833570e+02
   3.857774e+02  -1.909220e+01
   1.950873e+02   4.222976e+02
  -1.895901e+02   4.127853e+02
  -3.727060e+02   7.360830e+01
  -2.575915e+02  -2.157140e+02
  -2.268947e+01  -2.784357e+02
   1.448681e+02  -1.760004e+02
   1.369807e+02  -2.257108e+01
  -5.715677e+01   5.470021e+01
  -2.471852e+02  -5.079290e+01
  -1.400541e+02  -2.512164e+02
   2.610055e+02  -2.687785e+02
   5.249087e+02   1.164972e+01
   2.930489e+02   3.212474e+02
  -2.171404e+02   3.170603e+02
  -4.609150e+02   1.054124e+01
  -2.354432e+02  -2.835612e+02
   1.536299e+02  -3.313846e+02
   3.438825e+02  -1.458609e+02
   2.689352e+02   1.272062e+02
   6.431862e+01   2.960567e+02
  -1.134456e+02   1.922832e+02
  -1.219915e+02  -1.204776e+02
   7.595162e+01  -2.782697e+02
   2.736510e+02  -1.483589e+01
   1.821818e+02   4.065777e+02
  -1.670811e+02   4.514334e+02
  -3.792622e+02   3.326058e+01
  -1.906161e+02  -3.334554e+02
   1.649491e+02  -2.164534e+02
   2.533458e+02   1.799178e+02
  -1.864127e+01   3.406659e+02
  -3.375764e+02   1.058298e+02
  -3.819309e+02  -2.316853e+02
  -1.223464e+02  -3.595663e+02
   2.251933e+02  -2.300167e+02
   3.941357e+02   2.424874e+01
   2.497903e+02   2.293198e+02
  -8.016399e+01   2.388774e+02
  -2.779886e+02   5.419119e+01
  -1.653838e+02  -1.174496e+02
   6.821294e+01  -7.886693e+01
   1.014879e+02   8.816919e+01
  -9.090824e+01   1.268782e+02
  -2.214109e+02  -3.047849e+01
  -1.021031e+02  -1.836151e+02
   1.208382e+02  -1.689539e+02
   2.070516e+02  -5.050022e+01
   1.205382e+02   5.262060e+01
  -1.714532e+01   1.359560e+02
  -1.286220e+02   1.994786e+02
  -1.976485e+02   1.423145e+02
  -1.827709e+02  -7.207032e+01
  -6.588536e+01  -2.667881e+02
   5.887579e+01  -2.472628e+02
   7.836798e+01  -7.805049e+01
   2.326584e+01   9.815093e+00
   2.347655e+01  -4.758709e+01
   1.099735e+02  -8.356748e+01
   1.697104e+02   2.035109e+01
   1.084679e+02   1.580767e+02
  -3.211695e+01   1.606883e+02
  -1.377425e+02   1.683558e+01
  -1.300820e+02  -1.387833e+02
  -5.757496e+00  -1.808397e+02
   1.579197e+02  -8.204225e+01
   2.280346e+02   8.967203e+01
   1.285918e+02   2.116941e+02
  -5.155387e+01   1.962697e+02
  -1.406923e+02   8.395298e+01
  -9.802472e+01   5.350558e+00
  -6.098708e+01   1.960988e+01
  -1.385016e+02   4.352832e+01
  -2.443314e+02  -2.420454e+01
  -2.106790e+02  -1.648512e+02
  -1.127132e+01  -2.701713e+02
   2.080765e+02  -2.617128e+02
   2.927127e+02  -1.374355e+02
   2.100809e+02   4.482666e+01
   4.536522e+01   1.784384e+02
  -7.080657e+01   1.633892e+02
  -5.244398e+01   2.493989e+01
   6.008171e+01  -7.101547e+01
   1.213824e+02  -7.055410e+00
   4.140890e+01   1.186748e+02
  -9.204808e+01   1.157545e+02
  -1.152123e+02  -2.821305e+01
   9.982980e-01  -1.209780e+02
   1.179762e+02  -2.880302e+01
   1.084145e+02   1.477999e+02
  -1.039432e+01   2.164039e+02
  -1.373279e+02   1.225365e+02
  -2.002319e+02  -3.267158e+01
  -1.740779e+02  -1.382382e+02
  -6.516138e+01  -1.562073e+02
   6.345468e+01  -1.009189e+02
   1.085974e+02  -1.987876e+01
   3.926138e+01   1.741437e+01
  -4.303362e+01  -1.972031e+01
  -2.353301e+01  -7.429096e+01
   7.130094e+01  -6.596198e+01
   1.105000e+02   3.326927e-01
   4.010550e+01   4.202658e+01
  -4.653811e+01   1.333472e+01
  -3.500197e+01  -4.127905e+01
   7.219107e+01  -5.419391e+01
   1.696600e+02  -6.288241e+00
   1.623484e+02   7.695747e+01
   4.411815e+01   1.515454e+02
  -1.030124e+02   1.639853e+02
  -1.690980e+02   8.731739e+01
  -1.077730e+02  -2.513745e+01
   9.618926e+00  -6.917334e+01
   5.607530e+01  -1.011225e+01
  -1.480238e+01   6.272841e+01
  -1.171020e+02   4.371851e+01
  -1.348062e+02  -5.526665e+01
  -5.020823e+01  -1.258215e+02
   5.241342e+01  -1.010842e+02
   8.776821e+01  -2.365186e+01
   4.610376e+01   2.220581e+01
  -1.435908e+01   2.875008e+00
  -2.358762e+01  -4.746565e+01
   3.958482e+01  -6.844098e+01
   1.179156e+02  -2.276231e+01
   1.198505e+02   6.878104e+01
   2.017730e+01   1.324594e+02
  -9.587346e+01   1.063151e+02
  -1.203360e+02   1.026586e+01
  -4.522504e+01  -6.899478e+01
   3.705369e+01  -7.165653e+01
   5.070284e+01  -2.237787e+01
   1.317079e+01   1.428656e+01
  -1.105978e+01   1.140948e+01
   7.000837e+00  -4.161934e+00
   4.296890e+01   5.285600e+00
   5.400584e+01   4.807999e+01
   1.225458e+01   9.437440e+01
  -7.171314e+01   9.464966e+01
  -1.399236e+02   2.250881e+01
  -1.268371e+02  -8.465307e+01
  -3.290336e+01  -1.437791e+02
   6.173019e+01  -1.078820e+02
   8.306386e+01  -2.054834e+01
   4.527557e+01   3.307200e+01
   1.858047e+01   2.196097e+01
   3.223924e+01  -8.491699e+00
   4.796096e+01  -5.349938e+00
   2.534838e+01   2.972019e+01
  -2.486940e+01   5.356203e+01
  -6.047398e+01   3.403160e+01
  -5.091018e+01  -2.024546e+01
   6.382942e+00  -6.586247e+01
   8.263183e+01  -5.408456e+01
   1.194582e+02   2.530153e+01
   6.662495e+01   1.177827e+02
  -5.674076e+01   1.409697e+02
  -1.587372e+02   6.667004e+01
  -1.597489e+02  -4.410680e+01
  -7.290459e+01  -1.044973e+02
   1.892738e+01  -9.134828e+01
   5.552336e+01  -5.454566e+01
   4.718270e+01  -4.509956e+01
   3.908312e+01  -5.745720e+01
   5.479572e+01  -4.728449e+01
   7.860618e+01   1.057726e+01
   7.541976e+01   9.077659e+01
   2.413641e+01   1.365707e+02
  -5.502312e+01   1.076415e+02
  -1.059692e+02   1.809513e+01
  -8.646896e+01  -6.950114e+01
  -1.672722e+01  -9.620554e+01
   3.729689e+01  -5.810410e+01
   3.543888e+01  -2.623624e+00
   3.803291e+00   2.463152e+01
  -4.697642e+00   2.010813e+01
   2.334277e+01   9.931843e+00
   4.874193e+01   1.243889e+01
   2.769221e+01   2.233174e+01
  -3.744631e+01   2.320037e+01
  -9.456045e+01   5.001828e+00
  -8.735160e+01  -2.689571e+01
  -1.180493e+01  -5.178318e+01
   7.051341e+01  -4.713291e+01
   8.723213e+01  -1.230437e+01
   3.009045e+01   2.283541e+01
  -3.599313e+01   2.397021e+01
  -4.650121e+01  -9.787132e+00
  -5.509405e+00  -4.178746e+01
   3.337373e+01  -3.678654e+01
   3.851652e+01   2.362808e-01
   2.731902e+01   3.014899e+01
   2.708526e+01   2.454604e+01
   3.760547e+01  -4.998883e-01
   4.018381e+01  -1.370077e+00
   2.227038e+01   4.050242e+01
  -1.700947e+01   8.914410e+01
  -6.681617e+01   8.763735e+01
  -9.787065e+01   2.316781e+01
  -7.636486e+01  -5.239386e+01
  -6.943898e+00  -7.564421e+01
   5.074189e+01  -3.862745e+01
   3.687592e+01   7.941979e+00
  -3.542346e+01   1.370355e+01
  -8.480848e+01  -2.269118e+01
  -4.915462e+01  -6.284068e+01
   4.563696e+01  -7.021748e+01
   1.140680e+02  -3.700198e+01
   9.942547e+01   1.551454e+01
   2.534624e+01   5.127048e+01
  -3.437919e+01   4.445100e+01
  -2.904915e+01   6.204674e+00
   2.298334e+01  -1.700669e+01
   5.556892e+01   1.161124e+01
   2.288370e+01   7.170825e+01
  -5.216440e+01   9.658676e+01
  -1.009540e+02   4.231638e+01
  -8.002952e+01  -5.817012e+01
  -1.137912e+01  -1.202104e+02
   4.810472e+01  -9.007100e+01
   6.336410e+01   1.068851e+00
   3.999946e+01   6.948801e+01
   2.506394e+00   6.413560e+01
  -2.663897e+01   1.337017e+01
  -3.264623e+01  -1.711196e+01
  -1.651288e+01  -4.050491e+00
  -1.564924e+00   1.262485e+01
  -1.197291e+01  -8.897580e+00
  -3.583943e+01  -5.231901e+01
  -2.911351e+01  -6.490222e+01
   2.660547e+01  -2.820936e+01
   8.517207e+01   2.040078e+01
   8.112274e+01   3.941561e+01
   1.165373e+01   2.957344e+01
  -5.342817e+01   1.594110e+01
  -5.339829e+01   7.108906e+00
  -6.144917e+00  -4.374324e+00
   2.300301e+01  -1.483339e+01
   7.491994e+00  -1.134604e+01
  -1.343696e+01   1.724696e+00
   4.071370e+00   5.381458e+00
   4.587547e+01   3.448255e-01
   5.613105e+01   1.246597e+01
   6.286912e+00   4.926028e+01
  -6.998603e+01   7.257166e+01
  -1.114601e+02   3.925247e+01
  -8.743396e+01  -3.867133e+01
  -1.929429e+01  -9.815226e+01
   4.457102e+01  -9.233357e+01
   6.813483e+01  -3.762408e+01
   4.952827e+01   1.127118e+01
   1.567538e+01   2.081635e+01
  -2.181241e+00   5.455484e+00
   5.795237e+00   2.202989e+00
   2.108526e+01   2.650558e+01
   1.612486e+01   5.360484e+01
  -1.599357e+01   4.407844e+01
  -4.998209e+01  -9.322435e+00
  -4.953311e+01  -6.437663e+01
  -4.815718e+00  -6.863683e+01
   5.029673e+01  -1.638871e+01
   6.473755e+01   4.404933e+01
   2.142860e+01   6.251881e+01
  -3.968317e+01   3.493544e+01
  -5.950571e+01  -5.542496e+00
  -2.405507e+01  -2.976361e+01
   1.919997e+01  -3.147562e+01
   1.787933e+01  -1.715668e+01
  -2.139440e+01   1.298570e+00
  -4.202896e+01   5.620367e+00
  -9.286192e+00  -1.495528e+01
   4.643299e+01  -4.189729e+01
   6.795207e+01  -3.814337e+01
   3.818467e+01   5.951526e+00
  -7.887465e+00   5.067354e+01
  -3.021461e+01   4.876529e+01
  -2.231508e+01   3.360953e+00
  -2.118606e+00  -3.437901e+01
   1.506685e+01  -2.639407e+01
   2.296970e+01   1.070478e+01
   1.722180e+01   3.222946e+01
  -1.520671e+00   1.971028e+01
  -2.046648e+01  -4.614601e+00
  -2.408988e+01  -1.174774e+01
  -1.222980e+01  -2.183119e-03
   2.131729e-01   8.450304e+00
   3.312230e+00  -2.563686e+00
   3.361449e+00  -2.322114e+01
   1.027834e+01  -2.805980e+01
   2.055355e+01  -5.025590e+00
   1.947465e+01   2.776661e+01
  -5.303495e-01   3.799409e+01
  -2.711532e+01   1.348455e+01
  -3.518784e+01  -2.322629e+01
  -1.011903e+01  -3.836022e+01
   3.248524e+01  -2.156946e+01
   5.415479e+01   7.856034e+00
   3.065776e+01   2.573307e+01
  -1.685743e+01   2.507559e+01
  -3.917138e+01   1.399875e+01
  -1.445333e+01   3.043192e+00
   2.341739e+01   1.975666e-01
   2.402362e+01   8.861411e+00
  -1.788580e+01   2.040464e+01
  -5.552049e+01   1.477860e+01
