
 $NMID
 id='ANONYMOUS ', fmtdat='(2E16.6)'
 volume=1.0
 tramp=1.0
 $END
  -3.874118e+03   7.936951e+01
  -2.371188e+03  -2.180741e+03
   4.361045e+02  -2.446410e+03
   1.745558e+03  -9.941351e+02
   9.043506e+02   3.518522e+02
  -4.262026e+02   4.386171e+02
  -7.047712e+02  -3.162853e+02
  -2.011020e+01  -8.765415e+02
   6.761559e+02  -7.043127e+02
   8.174997e+02   2.378405e+01
   4.403554e+02   7.193552e+02
  -1.451225e+02   7.878847e+02
  -5.120175e+02   1.379227e+02
  -3.393257e+02  -6.012806e+02
   2.028046e+02  -6.664697e+02
   5.256602e+02  -2.834080e+01
   2.836140e+02   5.946457e+02
  -2.371654e+02   6.137081e+02
  -5.221345e+02   1.562138e+02
  -3.956136e+02  -2.754953e+02
  -6.031750e+01  -3.961861e+02
   1.915342e+02  -2.526797e+02
   1.609460e+02  -3.618903e+01
  -1.345673e+02   3.345517e+01
  -3.632218e+02  -1.525223e+02
  -1.370451e+02  -3.987132e+02
   4.463116e+02  -3.367583e+02
   7.549560e+02   9.272950e+01
   3.623897e+02   4.718962e+02
  -3.564031e+02   3.921672e+02
  -6.533716e+02  -5.228299e+01
  -2.973760e+02  -4.278335e+02
   2.596575e+02  -4.584227e+02
   5.124049e+02  -1.848409e+02
   3.790800e+02   1.924711e+02
   7.966843e+01   4.086395e+02
  -1.385224e+02   2.453828e+02
  -1.051132e+02  -1.751917e+02
   1.622918e+02  -3.455083e+02
   3.645176e+02   5.095895e+01
   1.804287e+02   6.056840e+02
  -2.785634e+02   6.092390e+02
  -5.038995e+02   9.727310e+00
  -2.176723e+02  -4.639220e+02
   2.381479e+02  -2.599463e+02
   3.179779e+02   2.944747e+02
  -6.940491e+01   4.861038e+02
  -5.032690e+02   1.198622e+02
  -5.527407e+02  -3.708205e+02
  -1.701758e+02  -5.359508e+02
   3.384582e+02  -3.195640e+02
   5.775397e+02   5.517416e+01
   3.585335e+02   3.237812e+02
  -1.116722e+02   3.136522e+02
  -3.812488e+02   6.942416e+01
  -2.271441e+02  -1.349451e+02
   7.721184e+01  -7.869853e+01
   1.127352e+02   1.169227e+02
  -1.389644e+02   1.463074e+02
  -3.026335e+02  -5.794915e+01
  -1.371609e+02  -2.555909e+02
   1.757194e+02  -2.508369e+02
   3.198125e+02  -9.824305e+01
   2.123757e+02   7.877057e+01
  -1.456157e+01   2.444731e+02
  -2.243423e+02   3.340089e+02
  -3.303581e+02   2.044486e+02
  -2.695870e+02  -1.328934e+02
  -7.764029e+01  -3.976744e+02
   7.965163e+01  -3.531334e+02
   8.345708e+01  -1.267966e+02
   2.342148e+01  -2.409069e+01
   6.551076e+01  -9.645392e+01
   2.027064e+02  -1.110593e+02
   2.619314e+02   6.349105e+01
   1.414317e+02   2.550468e+02
  -7.066301e+01   2.324939e+02
  -2.106709e+02   7.399820e-01
  -1.797939e+02  -2.298468e+02
   1.391185e+01  -2.730953e+02
   2.497639e+02  -1.038419e+02
   3.377827e+02   1.544849e+02
   1.833570e+02   3.189911e+02
  -7.459696e+01   2.857160e+02
  -1.974085e+02   1.311870e+02
  -1.422221e+02   3.078818e+01
  -1.078416e+02   4.757052e+01
  -2.368746e+02   6.233288e+01
  -3.915009e+02  -5.455246e+01
  -3.246889e+02  -2.691077e+02
  -3.559004e+00  -4.254053e+02
   3.416236e+02  -4.034319e+02
   4.625948e+02  -1.988087e+02
   3.125378e+02   8.415328e+01
   4.924621e+01   2.708566e+02
  -1.098331e+02   2.304584e+02
  -5.785008e+01   3.080068e+01
   1.075103e+02  -8.798352e+01
   1.719989e+02   1.160637e+01
   4.024113e+01   1.739619e+02
  -1.407919e+02   1.499533e+02
  -1.547179e+02  -5.363218e+01
   1.665828e+01  -1.696952e+02
   1.785027e+02  -2.662936e+01
   1.606517e+02   2.311466e+02
  -1.786259e+01   3.348309e+02
  -2.195355e+02   1.963731e+02
  -3.243731e+02  -5.026601e+01
  -2.746370e+02  -2.287824e+02
  -8.891515e+01  -2.554531e+02
   1.100571e+02  -1.523130e+02
   1.636452e+02  -1.974858e+01
   5.026022e+01   2.520504e+01
  -6.381010e+01  -4.251563e+01
  -2.196157e+01  -1.178439e+02
   1.181461e+02  -9.019301e+01
   1.641536e+02   1.260141e+01
   4.991470e+01   6.454024e+01
  -7.841999e+01   9.918700e+00
  -5.115966e+01  -7.526716e+01
   1.235164e+02  -8.797939e+01
   2.773074e+02  -1.731010e+00
   2.561126e+02   1.362753e+02
   5.576542e+01   2.469166e+02
  -1.778000e+02   2.492445e+02
  -2.664967e+02   1.204705e+02
  -1.560815e+02  -4.463268e+01
   2.328543e+01  -9.782834e+01
   8.056888e+01  -5.878122e+00
  -3.523313e+01   9.352635e+01
  -1.848306e+02   5.487387e+01
  -2.012990e+02  -9.417527e+01
  -6.803715e+01  -1.932986e+02
   8.584375e+01  -1.483726e+02
   1.331566e+02  -2.779585e+01
   6.211731e+01   3.762913e+01
  -3.169752e+01  -2.527424e+00
  -3.648918e+01  -8.666875e+01
   7.246204e+01  -1.128631e+02
   1.935528e+02  -2.925013e+01
   1.853308e+02   1.166126e+02
   2.327403e+01   2.068753e+02
  -1.520218e+02   1.584365e+02
  -1.811580e+02   1.206981e+01
  -6.258035e+01  -1.034489e+02
   6.040504e+01  -1.046312e+02
   7.598335e+01  -2.966868e+01
   1.366603e+01   2.491777e+01
  -2.500304e+01   1.641222e+01
   8.115269e+00  -1.292012e+01
   7.273187e+01   2.523250e+00
   9.213917e+01   7.801110e+01
   1.858342e+01   1.563801e+02
  -1.211978e+02   1.507114e+02
  -2.253631e+02   2.726300e+01
  -1.956630e+02  -1.409796e+02
  -4.533497e+01  -2.244377e+02
   9.819855e+01  -1.631867e+02
   1.278842e+02  -3.081376e+01
   6.988522e+01   4.813220e+01
   2.969365e+01   3.152554e+01
   5.144685e+01  -1.392265e+01
   7.859147e+01  -8.937142e+00
   4.606988e+01   4.804360e+01
  -3.655808e+01   9.063682e+01
  -1.018644e+02   6.044594e+01
  -8.955093e+01  -3.312352e+01
   9.921009e+00  -1.119313e+02
   1.393563e+02  -8.868976e+01
   1.936258e+02   4.685593e+01
   9.831473e+01   1.941799e+02
  -1.008501e+02   2.211996e+02
  -2.541511e+02   9.586030e+01
  -2.461082e+02  -7.688651e+01
  -1.069102e+02  -1.648424e+02
   3.380678e+01  -1.398755e+02
   8.685376e+01  -8.199418e+01
   7.140490e+01  -6.862277e+01
   5.889750e+01  -8.977547e+01
   8.563942e+01  -7.521352e+01
   1.243626e+02   1.619354e+01
   1.175704e+02   1.441589e+02
   3.393692e+01   2.158556e+02
  -9.042166e+01   1.663740e+02
  -1.665619e+02   2.186046e+01
  -1.316017e+02  -1.148687e+02
  -1.991558e+01  -1.519833e+02
   6.480557e+01  -8.744738e+01
   5.905506e+01   1.909634e+00
   3.803208e+00   4.435182e+01
  -1.376264e+01   3.452792e+01
   3.231552e+01   1.500080e+01
   7.786510e+01   1.786107e+01
   4.556821e+01   3.567289e+01
  -6.263205e+01   3.844558e+01
  -1.559548e+02   6.519787e+00
  -1.394399e+02  -4.862256e+01
  -1.289510e+01  -8.780060e+01
   1.174954e+02  -7.473049e+01
   1.390684e+02  -1.461937e+01
   4.674729e+01   4.077791e+01
  -5.618707e+01   3.950180e+01
  -7.384175e+01  -1.561716e+01
  -1.300509e+01  -6.635714e+01
   4.842790e+01  -5.904692e+01
   6.208000e+01  -1.471754e+00
   4.784263e+01   4.624089e+01
   4.423469e+01   3.909415e+01
   5.695373e+01   5.699011e-01
   6.298131e+01  -1.084198e+00
   3.863718e+01   6.477281e+01
  -2.509549e+01   1.421825e+02
  -1.097951e+02   1.402366e+02
  -1.610218e+02   3.732519e+01
  -1.229311e+02  -8.435013e+01
  -8.919730e+00  -1.227957e+02
   8.213651e+01  -6.401034e+01
   5.830438e+01   1.116893e+01
  -5.560716e+01   2.103991e+01
  -1.314883e+02  -3.711728e+01
  -7.400773e+01  -1.003253e+02
   7.489817e+01  -1.088752e+02
   1.807934e+02  -5.267038e+01
   1.549080e+02   3.002849e+01
   3.606573e+01   8.162117e+01
  -5.762259e+01   6.629477e+01
  -4.693561e+01   5.861536e+00
   3.646664e+01  -2.819779e+01
   8.776383e+01   1.773808e+01
   3.710446e+01   1.111439e+02
  -7.878051e+01   1.501372e+02
  -1.546787e+02   6.677492e+01
  -1.236473e+02  -8.930992e+01
  -1.747213e+01  -1.864455e+02
   7.643969e+01  -1.390072e+02
   1.001374e+02   4.744863e+00
   5.984589e+01   1.118265e+02
  -2.130983e+00   1.012116e+02
  -4.518676e+01   1.926989e+01
  -4.868960e+01  -2.890825e+01
  -2.227777e+01  -7.523720e+00
  -3.884268e+00   1.896127e+01
  -2.330215e+01  -1.515645e+01
  -5.650744e+01  -8.325354e+01
  -4.023106e+01  -1.024177e+02
   4.622445e+01  -4.414391e+01
   1.323408e+02   3.305671e+01
   1.239692e+02   6.380675e+01
   1.865607e+01   4.795612e+01
  -8.093571e+01   2.453810e+01
  -8.367159e+01   9.257055e+00
  -1.270634e+01  -7.652457e+00
   3.497168e+01  -2.201082e+01
   1.478250e+01  -1.643982e+01
  -1.831612e+01   2.483213e+00
   4.723901e+00   7.604534e+00
   6.850095e+01   4.197161e-01
   8.839153e+01   1.930898e+01
   1.443112e+01   7.593621e+01
  -1.061713e+02   1.131838e+02
  -1.756667e+02   6.388083e+01
  -1.400681e+02  -5.684708e+01
  -3.129574e+01  -1.526256e+02
   7.099462e+01  -1.469961e+02
   1.075677e+02  -6.152536e+01
   7.742552e+01   1.740468e+01
   2.540785e+01   3.371153e+01
  -7.711625e-01   9.432172e+00
   1.114462e+01   4.690013e+00
   3.225501e+01   4.374242e+01
   2.296725e+01   8.573069e+01
  -2.571365e+01   6.924733e+01
  -7.695488e+01  -1.428363e+01
  -7.732216e+01  -9.880665e+01
  -1.037372e+01  -1.058303e+02
   7.516033e+01  -2.731852e+01
   1.008135e+02   6.549652e+01
   3.611071e+01   9.716590e+01
  -6.048554e+01   5.754100e+01
  -9.524553e+01  -6.779531e+00
  -4.117558e+01  -4.893031e+01
   2.964462e+01  -5.334524e+01
   3.154649e+01  -2.854666e+01
  -2.983404e+01   2.723909e+00
  -6.546395e+01   9.126682e+00
  -1.610632e+01  -2.393682e+01
   7.329062e+01  -6.513495e+01
   1.102285e+02  -5.802708e+01
   6.361043e+01   1.056996e+01
  -1.175378e+01   8.010946e+01
  -4.939530e+01   7.862859e+01
  -3.711644e+01   9.028190e+00
  -4.652872e+00  -5.185605e+01
   2.232876e+01  -4.312100e+01
   3.498868e+01   1.393424e+01
   2.754004e+01   5.047690e+01
  -7.234375e-01   3.333124e+01
  -3.172225e+01  -6.060864e+00
  -3.933605e+01  -2.001402e+01
  -1.990950e+01  -1.520535e+00
   2.324695e+00   1.500520e+01
   6.903310e+00   3.523231e-01
   2.262271e+00  -3.314833e+01
   9.428079e+00  -4.474619e+01
   2.821477e+01  -1.229759e+01
   3.290119e+01   3.843328e+01
   4.306767e+00   5.705333e+01
  -4.033293e+01   2.230582e+01
  -5.658257e+01  -3.351111e+01
  -1.715099e+01  -5.859840e+01
   5.173915e+01  -3.478294e+01
   8.623487e+01   1.056567e+01
   4.861040e+01   4.014525e+01
  -2.590529e+01   4.113107e+01
  -6.092177e+01   2.439847e+01
  -2.424021e+01   6.203951e+00
   3.264844e+01  -2.707286e-01
   3.471545e+01   1.123965e+01
  -2.633963e+01   2.859439e+01
  -8.236825e+01   2.135831e+01
