
 $NMID
 id='ANONYMOUS ', fmtdat='(2E16.6)'
 volume=1.0
 tramp=1.0
 $END
   1.687174e+03   1.112443e+02
   9.516411e+02   1.092993e+03
  -3.389266e+02   1.099327e+03
  -8.849285e+02   3.382600e+02
  -4.197059e+02  -2.794573e+02
   2.337384e+02  -2.454828e+02
   3.445161e+02   1.604883e+02
  -8.895254e+00   4.127244e+02
  -3.387818e+02   2.961472e+02
  -3.753912e+02  -5.328059e+01
  -1.665816e+02  -3.530161e+02
   1.113802e+02  -3.562215e+02
   2.549373e+02  -4.575169e+01
   1.394575e+02   2.837755e+02
  -1.215468e+02   2.921899e+02
  -2.429563e+02  -1.225754e+01
  -9.308218e+01  -2.813983e+02
   1.527720e+02  -2.543202e+02
   2.495776e+02  -2.419882e+01
   1.545471e+02   1.582564e+02
  -4.274611e+00   1.825358e+02
  -1.037275e+02   1.030712e+02
  -8.610467e+01   1.079219e+01
   3.587648e+01  -1.653370e+01
   1.376166e+02   5.904356e+01
   5.670103e+01   1.602108e+02
  -1.818256e+02   1.319979e+02
  -3.160958e+02  -5.413873e+01
  -1.535537e+02  -2.151381e+02
   1.530682e+02  -1.698934e+02
   2.782746e+02   3.265976e+01
   1.195834e+02   1.910727e+02
  -1.223486e+02   1.885236e+02
  -2.251473e+02   6.003941e+01
  -1.575331e+02  -1.004944e+02
  -1.988785e+01  -1.881461e+02
   7.867088e+01  -1.148460e+02
   6.173741e+01   7.229369e+01
  -6.334638e+01   1.553753e+02
  -1.578740e+02  -1.207295e+01
  -7.301996e+01  -2.570050e+02
   1.359630e+02  -2.616415e+02
   2.315240e+02   3.536874e+00
   9.299361e+01   2.133658e+02
  -1.112491e+02   1.196363e+02
  -1.355320e+02  -1.272760e+02
   4.086416e+01  -2.052595e+02
   2.166403e+02  -3.467383e+01
   2.163104e+02   1.796003e+02
   4.530408e+01   2.369570e+02
  -1.590792e+02   1.241033e+02
  -2.439955e+02  -4.955754e+01
  -1.410361e+02  -1.635919e+02
   6.317800e+01  -1.429468e+02
   1.766621e+02  -1.550572e+01
   1.009511e+02   8.226913e+01
  -4.091902e+01   4.573693e+01
  -5.649326e+01  -5.643798e+01
   6.101415e+01  -6.862958e+01
   1.335113e+02   3.454190e+01
   5.107507e+01   1.213599e+02
  -9.107430e+01   9.757062e+01
  -1.413069e+02   1.365182e+01
  -7.454379e+01  -5.027158e+01
   2.991071e+01  -9.033622e+01
   1.088180e+02  -1.122239e+02
   1.394791e+02  -6.572266e+01
   1.047852e+02   6.330369e+01
   1.687405e+01   1.714389e+02
  -5.550218e+01   1.523390e+02
  -5.599966e+01   4.993809e+01
  -2.041853e+01  -3.057333e+00
  -2.638080e+01   2.439986e+01
  -7.773114e+01   3.501967e+01
  -1.004857e+02  -3.214591e+01
  -4.978994e+01  -1.076676e+02
   3.496313e+01  -9.442718e+01
   8.481439e+01   4.320044e+00
   6.502882e+01   9.875105e+01
  -1.464389e+01   1.114499e+02
  -1.051949e+02   3.411131e+01
  -1.329590e+02  -7.822782e+01
  -6.187764e+01  -1.445196e+02
   4.848364e+01  -1.201308e+02
   9.696479e+01  -4.386606e+01
   6.682035e+01   2.633990e+00
   4.532656e+01  -5.348998e+00
   9.378316e+01  -9.531482e+00
   1.518374e+02   4.346452e+01
   1.158658e+02   1.271354e+02
  -2.188297e+01   1.720024e+02
  -1.602347e+02   1.431898e+02
  -1.990406e+02   5.622673e+01
  -1.262604e+02  -4.816073e+01
  -1.081511e+01  -1.142854e+02
   5.716923e+01  -9.580060e+01
   3.269333e+01  -1.462752e+01
  -4.243125e+01   3.503655e+01
  -7.284953e+01  -6.202629e+00
  -1.477897e+01  -7.473651e+01
   6.463090e+01  -6.303982e+01
   6.720641e+01   2.570262e+01
  -1.041046e+01   7.307756e+01
  -7.461845e+01   6.173774e+00
  -5.382452e+01  -1.041288e+02
   2.809280e+01  -1.371714e+02
   1.018241e+02  -6.412110e+01
   1.261761e+02   4.337532e+01
   9.541413e+01   1.078187e+02
   2.277183e+01   1.052333e+02
  -5.076506e+01   5.579081e+01
  -6.902954e+01   1.999684e+00
  -2.291905e+01  -1.287437e+01
   2.309893e+01   1.728332e+01
   6.054195e+00   4.734919e+01
  -5.049449e+01   3.277526e+01
  -6.785956e+01  -1.074740e+01
  -2.066702e+01  -2.849791e+01
   2.957073e+01  -1.883010e+00
   1.593332e+01   3.020334e+01
  -5.327274e+01   2.566244e+01
  -1.088787e+02  -1.612860e+01
  -9.346608e+01  -6.754630e+01
  -9.964978e+00  -9.996032e+01
   8.269053e+01  -9.097262e+01
   1.144397e+02  -3.716754e+01
   6.457719e+01   2.511964e+01
  -1.187821e+01   4.100319e+01
  -3.453845e+01   1.360381e+00
   1.595501e+01  -3.606846e+01
   7.712146e+01  -1.475383e+01
   7.862908e+01   4.794633e+01
   1.925578e+01   8.353862e+01
  -4.234713e+01   5.800960e+01
  -5.662611e+01   6.308725e+00
  -2.597322e+01  -1.725498e+01
   8.897574e+00   1.934003e+00
   7.905984e+00   3.375580e+01
  -3.429507e+01   3.833249e+01
  -7.746901e+01   3.751847e-01
  -6.800310e+01  -5.661456e+01
   1.117452e+00  -8.541945e+01
   7.097454e+01  -5.744061e+01
   7.691835e+01   4.614406e+00
   2.220415e+01   4.694672e+01
  -2.982683e+01   4.114388e+01
  -3.351976e+01   9.412497e+00
  -5.956292e+00  -9.385362e+00
   8.592638e+00  -4.612447e+00
  -5.911255e+00   3.007734e+00
  -2.856108e+01  -8.354908e+00
  -2.983159e+01  -3.801698e+01
   3.448091e+00  -6.237134e+01
   5.684899e+01  -5.191969e+01
   9.105073e+01   1.652225e+00
   7.091208e+01   6.735658e+01
   6.094287e+00   9.437414e+01
  -4.963597e+01   6.217827e+01
  -5.495938e+01   5.023095e+00
  -2.629500e+01  -2.535418e+01
  -1.027606e+01  -1.587263e+01
  -2.174774e+01   2.027122e+00
  -3.170306e+01  -2.078776e+00
  -1.345328e+01  -2.298987e+01
   2.251945e+01  -3.282339e+01
   4.420634e+01  -1.487082e+01
   3.111109e+01   2.016893e+01
  -1.248311e+01   4.232175e+01
  -6.008850e+01   2.469469e+01
  -7.321100e+01  -3.024221e+01
  -2.840384e+01  -8.199521e+01
   5.182146e+01  -8.241452e+01
   1.074664e+02  -2.484923e+01
   9.619235e+01   4.444054e+01
   3.531674e+01   7.319768e+01
  -2.118661e+01   5.563682e+01
  -4.052925e+01   2.908290e+01
  -3.429551e+01   2.444047e+01
  -3.071610e+01   3.330512e+01
  -4.019107e+01   2.487662e+01
  -4.953004e+01  -1.501582e+01
  -3.871037e+01  -6.599560e+01
  -8.731854e-01  -8.951399e+01
   4.620378e+01  -6.247105e+01
   6.865471e+01  -1.717501e-01
   4.694244e+01   5.316693e+01
   1.698702e-01   6.234438e+01
  -2.968990e+01   3.197736e+01
  -2.214191e+01  -3.087030e+00
   1.344506e+00  -1.624100e+01
   6.152942e+00  -1.144305e+01
  -1.373380e+01  -7.901377e+00
  -3.043708e+01  -1.311690e+01
  -1.553219e+01  -1.762909e+01
   2.711352e+01  -1.047420e+01
   6.155955e+01   8.040187e+00
   5.227622e+01   2.718770e+01
   5.704123e-01   3.389710e+01
  -5.078891e+01   2.177597e+01
  -5.653656e+01  -1.840349e+00
  -1.599217e+01  -1.804821e+01
   2.590018e+01  -1.189947e+01
   2.886501e+01   1.124030e+01
  -5.543666e-01   2.828237e+01
  -2.513613e+01   2.104585e+01
  -2.518119e+01  -4.269900e+00
  -1.504152e+01  -2.301920e+01
  -1.489534e+01  -1.891129e+01
  -2.376895e+01  -3.252801e+00
  -2.572561e+01  -3.313688e+00
  -1.020092e+01  -2.908388e+01
   2.037609e+01  -5.596352e+01
   5.279183e+01  -4.867184e+01
   6.597652e+01  -3.487819e+00
   4.348257e+01   4.222728e+01
  -4.241459e+00   4.921702e+01
  -3.738164e+01   1.937958e+01
  -2.313747e+01  -8.862442e+00
   2.405772e+01  -5.121168e+00
   5.169646e+01   2.308310e+01
   2.452990e+01   4.492126e+01
  -3.650990e+01   3.966033e+01
  -7.613170e+01   1.127745e+01
  -6.105821e+01  -2.039935e+01
  -1.049260e+01  -3.489709e+01
   2.626129e+01  -2.403089e+01
   1.865189e+01  -4.370621e-01
  -1.681794e+01   8.602020e+00
  -3.461548e+01  -1.322417e+01
  -7.690012e+00  -4.849610e+01
   4.287827e+01  -5.712068e+01
   6.891879e+01  -1.754749e+01
   4.562523e+01   4.502540e+01
  -4.642488e+00   7.808425e+01
  -3.975104e+01   5.251451e+01
  -4.003526e+01  -7.565477e+00
  -1.778329e+01  -4.837283e+01
   5.561496e+00  -4.031518e+01
   1.841401e+01  -5.068044e+00
   1.860652e+01   1.401291e+01
   9.673007e+00   3.694019e+00
   2.251247e+00  -7.603567e+00
   6.903181e+00   7.895353e+00
   1.743872e+01   3.740377e+01
   1.148693e+01   4.365375e+01
  -2.030440e+01   1.451504e+01
  -5.227617e+01  -2.166691e+01
  -4.739194e+01  -3.314490e+01
  -4.180204e+00  -2.037238e+01
   3.561001e+01  -5.266737e+00
   3.463448e+01   1.043050e+00
   3.588541e+00   4.085097e+00
  -1.595706e+01   7.275476e+00
  -5.953315e+00   5.829129e+00
   8.539849e+00  -2.387250e-01
  -2.089309e+00  -3.487989e+00
  -2.915870e+01  -4.253728e+00
  -3.482463e+01  -1.380023e+01
   3.962309e-01  -3.302781e+01
   5.194786e+01  -4.004439e+01
   7.607059e+01  -1.379638e+01
   5.311556e+01   3.403619e+01
   2.661502e+00   6.506765e+01
  -3.856908e+01   5.466266e+01
  -4.812192e+01   1.723370e+01
  -3.066645e+01  -1.223816e+01
  -7.791102e+00  -1.520794e+01
   1.915558e+00  -3.852859e+00
  -3.421638e+00  -2.497590e+00
  -1.033931e+01  -1.918944e+01
  -4.357607e+00  -3.574638e+01
   1.485291e+01  -2.654198e+01
   3.107585e+01   1.080329e+01
   2.558031e+01   4.615288e+01
  -3.369904e+00   4.494072e+01
  -3.397367e+01   6.204561e+00
  -3.766586e+01  -3.448248e+01
  -7.716883e+00  -4.272903e+01
   2.943419e+01  -1.891006e+01
   3.814239e+01   9.867233e+00
   1.223516e+01   2.240379e+01
  -1.626940e+01   1.864055e+01
  -1.382388e+01   8.642002e+00
   1.370053e+01   5.943259e-01
   2.757511e+01   5.870370e-01
   4.458814e+00   1.088243e+01
  -3.402187e+01   2.200000e+01
  -4.746948e+01   1.668142e+01
  -2.395862e+01  -8.539540e+00
   1.032564e+01  -3.188422e+01
   2.495719e+01  -2.799183e+01
   1.555146e+01   2.344543e-01
  -1.663138e+00   2.237270e+01
  -1.260001e+01   1.578240e+01
  -1.410830e+01  -8.799619e+00
  -7.807535e+00  -2.254578e+01
   3.324380e+00  -1.300380e+01
   1.285788e+01   4.893236e+00
   1.407873e+01   1.043047e+01
   7.617917e+00   1.513602e+00
   9.049034e-01  -5.964140e+00
  -1.690353e+00   6.332804e-01
  -3.673758e+00   1.487410e+01
  -9.081068e+00   1.829151e+01
  -1.422966e+01   2.237203e+00
  -1.081754e+01  -1.986025e+01
   3.341286e+00  -2.511027e+01
   1.883153e+01  -6.387315e+00
   2.087237e+01   1.854677e+01
   2.965061e+00   2.577769e+01
  -2.330457e+01   1.044132e+01
  -3.439180e+01  -1.069859e+01
  -1.712384e+01  -1.974079e+01
   1.369005e+01  -1.461243e+01
   2.700089e+01  -5.263982e+00
   9.986114e+00  -2.864701e-01
  -1.479691e+01  -1.701979e+00
  -1.478322e+01  -7.372778e+00
   1.278449e+01  -1.132016e+01
   3.642843e+01  -4.551120e+00
