
 $NMID
 id='ANONYMOUS ', fmtdat='(2E16.6)'
 volume=1.0
 tramp=1.0
 $END
   3.668401e+03   8.165461e+01
   2.303221e+03   2.015009e+03
  -2.264267e+02   2.328813e+03
  -1.553752e+03   1.185593e+03
  -1.001481e+03  -3.301106e+01
   1.458769e+02  -3.137049e+02
   5.220338e+02   1.971492e+02
   3.211792e+01   7.119546e+02
  -5.805700e+02   6.524076e+02
  -7.553456e+02   3.230536e+01
  -4.481177e+02  -6.343147e+02
   7.032539e+01  -7.446279e+02
   4.096207e+02  -1.729925e+02
   2.879013e+02   5.185900e+02
  -1.704882e+02   6.208169e+02
  -4.791802e+02   5.446701e+01
  -2.973978e+02  -5.660409e+02
   1.942063e+02  -6.536438e+02
   5.264595e+02  -2.319180e+02
   4.460777e+02   2.386954e+02
   1.014449e+02   4.010287e+02
  -1.634877e+02   2.607359e+02
  -1.145614e+02   6.611249e+01
   1.673407e+02   5.745377e+01
   3.147527e+02   2.505519e+02
   3.307884e+01   3.936400e+02
  -4.899206e+02   2.255182e+02
  -6.909706e+02  -1.778255e+02
  -2.800178e+02  -4.317001e+02
   3.579739e+02  -2.790637e+02
   5.845321e+02   1.222241e+02
   2.314148e+02   4.138885e+02
  -2.859627e+02   4.039880e+02
  -5.062798e+02   1.439809e+02
  -3.580281e+02  -1.912414e+02
  -7.817898e+01  -3.697681e+02
   8.124163e+01  -2.195287e+02
   1.534803e+01   1.261211e+02
  -1.854600e+02   2.365636e+02
  -2.733644e+02  -1.173545e+02
  -6.737306e+01  -5.639516e+02
   2.876354e+02  -5.249564e+02
   4.164474e+02   4.843123e+00
   1.582782e+02   3.951641e+02
  -1.974771e+02   1.925057e+02
  -2.331257e+02  -2.991631e+02
   1.134766e+02  -4.443751e+02
   4.930479e+02  -7.086184e+01
   5.257359e+02   4.069535e+02
   1.533118e+02   5.435692e+02
  -3.391374e+02   2.935069e+02
  -5.670652e+02  -8.009711e+01
  -3.585649e+02  -3.053762e+02
   8.139668e+01  -2.737453e+02
   3.441337e+02  -7.418745e+01
   2.335568e+02   7.983741e+01
  -2.536568e+01   4.832769e+01
  -7.672194e+01  -7.878075e+01
   1.208277e+02  -9.412745e+01
   2.682278e+02   6.055229e+01
   1.309817e+02   2.319810e+02
  -1.771165e+02   2.566735e+02
  -3.573760e+02   1.176132e+02
  -2.562712e+02  -1.047216e+02
   3.139030e+01  -3.082966e+02
   2.971439e+02  -3.632712e+02
   3.795364e+02  -1.733365e+02
   2.549369e+02   1.685118e+02
   4.990767e+01   3.953524e+02
  -6.605631e+01   3.475446e+02
  -5.328435e+01   1.631610e+02
  -3.554963e+01   7.867936e+01
  -1.217794e+02   1.094461e+02
  -2.475094e+02   7.008945e+01
  -2.573031e+02  -1.142147e+02
  -1.048798e+02  -2.736754e+02
   9.834000e+01  -2.142993e+02
   2.067974e+02   3.475313e+01
   1.496742e+02   2.565723e+02
  -4.708401e+01   2.696103e+02
  -2.628433e+02   7.184311e+01
  -3.284623e+02  -1.862806e+02
  -1.718694e+02  -3.280026e+02
   7.272109e+01  -2.851537e+02
   1.928742e+02  -1.474101e+02
   1.561187e+02  -6.008179e+01
   1.434821e+02  -5.885657e+01
   2.788662e+02  -3.841396e+01
   4.219535e+02   1.005639e+02
   3.275461e+02   3.149630e+02
  -3.207279e+01   4.551657e+02
  -4.017701e+02   4.054501e+02
  -5.045886e+02   1.740637e+02
  -3.075011e+02  -1.106267e+02
  -2.182633e+01  -2.723424e+02
   1.121065e+02  -2.162976e+02
   3.089077e+01  -3.623106e+01
  -1.215488e+02   5.566659e+01
  -1.510985e+02  -3.504652e+01
  -1.499714e+01  -1.614207e+02
   1.359198e+02  -1.223192e+02
   1.298577e+02   5.991696e+01
  -3.066130e+01   1.510873e+02
  -1.760254e+02   3.683906e+00
  -1.538227e+02  -2.514055e+02
   3.304534e+01  -3.563969e+02
   2.542238e+02  -2.058191e+02
   3.623803e+02   7.394941e+01
   2.826063e+02   2.751344e+02
   6.359688e+01   2.850939e+02
  -1.346255e+02   1.471662e+02
  -1.637809e+02   5.168009e+00
  -4.167736e+01  -2.020154e+01
   5.605755e+01   6.005472e+01
   6.179676e-01   1.212515e+02
  -1.313577e+02   7.355266e+01
  -1.596621e+02  -2.920196e+01
  -3.720534e+01  -6.270459e+01
   8.508777e+01   8.677039e+00
   4.148077e+01   9.379106e+01
  -1.516123e+02   8.722764e+01
  -3.090207e+02  -2.650302e+01
  -2.641969e+02  -1.780019e+02
  -2.857220e+01  -2.728752e+02
   2.177605e+02  -2.436331e+02
   2.859212e+02  -9.928914e+01
   1.493237e+02   5.336229e+01
  -3.249390e+01   8.784014e+01
  -7.308225e+01  -4.151099e+00
   5.323085e+01  -8.701227e+01
   1.959817e+02  -3.495056e+01
   1.980852e+02   1.134780e+02
   5.549694e+01   2.015653e+02
  -9.764570e+01   1.433221e+02
  -1.348600e+02   1.636072e+01
  -5.229839e+01  -4.055870e+01
   4.057760e+01   1.786434e+01
   2.774899e+01   1.094608e+02
  -9.894024e+01   1.193477e+02
  -2.173506e+02   1.056147e+01
  -1.876534e+02  -1.431451e+02
  -7.078662e+00  -2.194245e+02
   1.687612e+02  -1.547083e+02
   1.859420e+02  -5.153353e+00
   5.667155e+01   1.044156e+02
  -6.804052e+01   1.005694e+02
  -7.636392e+01   2.477571e+01
  -4.138752e+00  -2.626370e+01
   3.578464e+01  -1.032411e+01
  -9.978398e+00   2.279695e+01
  -8.851951e+01  -2.534554e+00
  -1.035790e+02  -9.625644e+01
  -7.473365e+00  -1.798046e+02
   1.495917e+02  -1.555468e+02
   2.476934e+02  -6.833962e+00
   1.974013e+02   1.690541e+02
   3.279607e+01   2.405165e+02
  -1.116388e+02   1.650328e+02
  -1.365237e+02   2.767805e+01
  -7.473266e+01  -5.029890e+01
  -3.327059e+01  -3.248715e+01
  -5.783663e+01   1.301629e+01
  -8.991429e+01   4.828806e+00
  -5.430991e+01  -5.967462e+01
   4.487883e+01  -1.059217e+02
   1.256291e+02  -6.501352e+01
   1.061044e+02   4.738888e+01
  -2.084488e+01   1.310688e+02
  -1.687573e+02   8.865036e+01
  -2.109484e+02  -7.144338e+01
  -8.529547e+01  -2.221841e+02
   1.328887e+02  -2.285327e+02
   2.807048e+02  -7.969955e+01
   2.539103e+02   1.004025e+02
   9.966283e+01   1.801422e+02
  -4.549449e+01   1.438978e+02
  -9.541844e+01   8.122942e+01
  -7.621688e+01   7.050712e+01
  -6.487725e+01   9.593682e+01
  -9.653800e+01   7.928482e+01
  -1.357548e+02  -2.322188e+01
  -1.193762e+02  -1.632326e+02
  -2.184868e+01  -2.352845e+02
   1.086828e+02  -1.712681e+02
   1.781646e+02  -8.691580e+00
   1.295866e+02   1.347446e+02
   7.000828e+00   1.632268e+02
  -7.919318e+01   8.396607e+01
  -6.433471e+01  -1.373416e+01
   3.807330e+00  -5.358223e+01
   2.565757e+01  -3.641168e+01
  -2.981366e+01  -1.440341e+01
  -8.637519e+01  -2.176028e+01
  -4.996491e+01  -4.276704e+01
   7.542266e+01  -3.897421e+01
   1.775663e+02   5.957208e+00
   1.480889e+02   6.779926e+01
  -3.600690e-01   1.000200e+02
  -1.392557e+02   7.267575e+01
  -1.513185e+02   3.001968e+00
  -4.540163e+01  -5.175907e+01
   6.357414e+01  -4.277666e+01
   8.034770e+01   2.104721e+01
   1.574619e+01   7.620454e+01
  -5.145517e+01   6.592179e+01
  -7.049900e+01  -1.631231e-02
  -5.630622e+01  -5.413307e+01
  -4.795906e+01  -4.612894e+01
  -5.862390e+01  -3.434277e+00
  -6.770449e+01  -2.782525e+00
  -4.261528e+01  -7.570332e+01
   3.308543e+01  -1.569231e+02
   1.327818e+02  -1.475579e+02
   1.856860e+02  -3.000250e+01
   1.320492e+02   1.013763e+02
  -5.108079e-01   1.372583e+02
  -9.699283e+01   6.827204e+01
  -6.412051e+01  -1.347571e+01
   6.105487e+01  -1.984940e+01
   1.383933e+02   4.687254e+01
   7.129202e+01   1.122793e+02
  -8.912355e+01   1.114124e+02
  -1.974319e+02   4.190757e+01
  -1.621440e+02  -4.531478e+01
  -3.057734e+01  -8.930672e+01
   6.762248e+01  -6.321795e+01
   5.041821e+01   9.994021e-01
  -4.223087e+01   3.051113e+01
  -9.547228e+01  -2.292135e+01
  -3.761662e+01  -1.214717e+02
   8.775155e+01  -1.598045e+02
   1.668341e+02  -6.841010e+01
   1.293112e+02   9.898203e+01
   1.164942e+01   2.004828e+02
  -8.881273e+01   1.443128e+02
  -1.074747e+02  -1.353750e+01
  -5.498721e+01  -1.255042e+02
   1.411875e+01  -1.067671e+02
   5.277845e+01  -1.489156e+01
   4.741491e+01   3.435884e+01
   1.895550e+01   8.277270e+00
   6.182265e+00  -1.856646e+01
   2.911312e+01   2.162425e+01
   5.729756e+01   9.439660e+01
   3.253320e+01   1.103212e+02
  -5.723059e+01   4.302322e+01
  -1.401084e+02  -4.213489e+01
  -1.267772e+02  -7.497733e+01
  -1.762364e+01  -5.491348e+01
   8.533397e+01  -2.430473e+01
   8.997162e+01  -4.248531e+00
   1.651273e+01   1.165284e+01
  -3.687710e+01   2.158879e+01
  -1.943380e+01   1.377736e+01
   1.666973e+01  -3.324895e+00
  -3.388119e+00  -6.479623e+00
  -7.042322e+01  -1.203876e+00
  -9.565085e+01  -2.476428e+01
  -1.842293e+01  -8.431923e+01
   1.156515e+02  -1.196617e+02
   1.958609e+02  -6.379660e+01
   1.552533e+02   6.523732e+01
   2.928524e+01   1.661388e+02
  -8.608100e+01   1.582863e+02
  -1.217964e+02   6.454051e+01
  -8.314650e+01  -2.180900e+01
  -2.639994e+01  -3.943172e+01
  -1.272150e+00  -1.283528e+01
  -1.350706e+01  -8.260544e+00
  -3.082496e+01  -5.089526e+01
  -1.748085e+01  -9.454560e+01
   3.173652e+01  -7.378059e+01
   8.144742e+01   1.760301e+01
   8.049820e+01   1.079084e+02
   1.099466e+01   1.149446e+02
  -7.946168e+01   3.050222e+01
  -1.079172e+02  -7.091690e+01
  -3.837075e+01  -1.075468e+02
   6.782575e+01  -6.404940e+01
   1.064620e+02   1.049247e+01
   4.515116e+01   5.961423e+01
  -3.640385e+01   6.147954e+01
  -4.053534e+01   2.934906e+01
   2.862686e+01  -4.719711e+00
   7.111850e+01  -7.677649e+00
   1.791841e+01   2.818353e+01
  -8.258253e+01   6.653695e+01
  -1.252941e+02   5.384744e+01
  -7.211663e+01  -1.795934e+01
   1.593943e+01  -8.754166e+01
   6.068198e+01  -8.442638e+01
   4.542186e+01  -1.121394e+01
   5.577463e+00   5.491853e+01
  -2.567504e+01   4.861125e+01
  -3.791561e+01  -1.272642e+01
  -2.833618e+01  -5.623263e+01
   1.805915e+00  -3.995125e+01
   3.444935e+01   6.378268e+00
   4.263862e+01   2.622831e+01
   2.145489e+01   4.718066e+00
  -3.091407e+00  -1.962691e+01
  -6.773318e+00  -6.776100e+00
   1.568092e+00   3.394502e+01
  -4.920043e+00   5.309812e+01
  -2.922242e+01   1.966750e+01
  -3.987705e+01  -3.869315e+01
  -9.658186e+00  -6.232882e+01
   4.292753e+01  -2.512172e+01
   6.333895e+01   3.633555e+01
   1.848519e+01   6.332804e+01
  -5.917270e+01   3.610469e+01
  -9.570650e+01  -1.401100e+01
  -5.174187e+01  -4.577509e+01
   3.040390e+01  -4.591492e+01
   6.809115e+01  -2.694811e+01
   2.927007e+01  -6.362307e+00
  -3.109526e+01   2.030132e+00
  -3.539405e+01  -8.838302e+00
   2.577891e+01  -2.699710e+01
   8.378609e+01  -2.035659e+01
