
 $NMID
 id='ANONYMOUS ', fmtdat='(2E16.6)'
 volume=1.0
 tramp=1.0
 $END
   3.677278e+03   3.945732e+01
   2.106523e+03   2.248167e+03
  -6.723204e+02   2.320197e+03
  -1.809987e+03   7.052178e+02
  -7.838321e+02  -5.943795e+02
   5.836208e+02  -4.890017e+02
   7.586945e+02   3.892270e+02
  -2.430831e+01   9.132813e+02
  -7.198775e+02   6.496013e+02
  -7.958662e+02  -1.010404e+02
  -3.650194e+02  -7.434160e+02
   2.248477e+02  -7.512338e+02
   5.485153e+02  -8.449201e+01
   3.170959e+02   6.203530e+02
  -2.428824e+02   6.327464e+02
  -5.174641e+02  -1.776704e+01
  -2.183378e+02  -5.837398e+02
   2.878965e+02  -5.286052e+02
   4.953360e+02  -6.233282e+01
   3.184153e+02   3.069208e+02
   4.073755e+00   3.693728e+02
  -2.104532e+02   2.184080e+02
  -1.832466e+02   9.521387e+00
   9.421790e+01  -7.682026e+01
   3.439810e+02   9.421740e+01
   1.684141e+02   3.660092e+02
  -3.900748e+02   3.479896e+02
  -7.190022e+02  -6.995447e+01
  -3.611692e+02  -4.721332e+02
   3.375812e+02  -4.104988e+02
   6.330272e+02   3.565996e+01
   2.906224e+02   4.127329e+02
  -2.437385e+02   4.369387e+02
  -4.813806e+02   1.650413e+02
  -3.500092e+02  -1.985922e+02
  -5.340955e+01  -4.050599e+02
   1.760885e+02  -2.400579e+02
   1.488745e+02   1.884767e+02
  -1.430200e+02   3.744587e+02
  -3.824156e+02  -1.629855e+01
  -2.055472e+02  -5.812522e+02
   2.779995e+02  -5.954272e+02
   5.178401e+02   2.744176e+00
   2.172987e+02   4.768061e+02
  -2.530820e+02   2.719816e+02
  -3.277208e+02  -2.773738e+02
   6.075198e+01  -4.639328e+02
   4.706555e+02  -1.115895e+02
   4.980390e+02   3.485733e+02
   1.331686e+02   4.960857e+02
  -3.272424e+02   2.892978e+02
  -5.310288e+02  -6.919019e+01
  -3.115167e+02  -3.313928e+02
   1.367283e+02  -3.103104e+02
   3.788609e+02  -4.148427e+01
   2.026207e+02   1.740142e+02
  -1.054678e+02   9.296537e+01
  -1.238117e+02  -1.346311e+02
   1.422832e+02  -1.613294e+02
   2.961835e+02   6.628419e+01
   1.169180e+02   2.576879e+02
  -1.767099e+02   2.157090e+02
  -2.780913e+02   5.377593e+01
  -1.591642e+02  -7.394816e+01
   2.507950e+01  -1.809189e+02
   1.835272e+02  -2.658763e+02
   2.810700e+02  -1.816660e+02
   2.447359e+02   1.142525e+02
   6.479423e+01   3.684366e+02
  -1.030385e+02   3.246700e+02
  -1.080176e+02   9.155564e+01
  -2.155307e+01  -1.565030e+01
  -3.163399e+01   6.975385e+01
  -1.596850e+02   1.105612e+02
  -2.338281e+02  -4.150795e+01
  -1.354317e+02  -2.269095e+02
   5.946105e+01  -2.176853e+02
   1.919758e+02  -1.083467e+01
   1.671804e+02   2.016874e+02
  -8.011276e+00   2.484429e+02
  -2.238126e+02   9.894977e+01
  -3.030881e+02  -1.413629e+02
  -1.550730e+02  -2.972983e+02
   8.731261e+01  -2.584713e+02
   1.942452e+02  -9.848027e+01
   1.270590e+02   8.483232e-01
   8.051137e+01  -2.570468e+01
   1.918382e+02  -5.309695e+01
   3.315149e+02   4.836600e+01
   2.745627e+02   2.382732e+02
  -3.632461e+00   3.678953e+02
  -3.005157e+02   3.413152e+02
  -4.075476e+02   1.650751e+02
  -2.821107e+02  -7.908846e+01
  -4.589735e+01  -2.477694e+02
   1.120468e+02  -2.137512e+02
   7.293238e+01  -2.436653e+01
  -9.148782e+01   9.325610e+01
  -1.679735e+02  -3.866525e+00
  -4.383530e+01  -1.674201e+02
   1.385351e+02  -1.473242e+02
   1.540187e+02   5.193205e+01
  -1.467024e+01   1.651687e+02
  -1.645765e+02   2.841503e+01
  -1.353552e+02  -2.085299e+02
   2.986095e+01  -2.909652e+02
   1.927143e+02  -1.568077e+02
   2.678519e+02   5.544567e+01
   2.277384e+02   1.984069e+02
   7.869517e+01   2.182910e+02
  -9.420094e+01   1.335960e+02
  -1.497958e+02   1.735535e+01
  -5.069126e+01  -2.847053e+01
   5.893463e+01   3.088035e+01
   2.616658e+01   1.049772e+02
  -1.037369e+02   8.469222e+01
  -1.509934e+02  -1.056995e+01
  -5.021984e+01  -6.208398e+01
   6.624409e+01  -1.540106e+01
   4.640885e+01   5.933671e+01
  -1.008447e+02   7.043826e+01
  -2.313231e+02  -1.127829e+00
  -2.168921e+02  -1.152461e+02
  -5.039154e+01  -2.105412e+02
   1.525201e+02  -2.169872e+02
   2.374019e+02  -1.055379e+02
   1.439595e+02   4.427548e+01
  -2.038615e+01   9.376969e+01
  -7.801751e+01   7.709580e+00
   2.587401e+01  -8.584038e+01
   1.637615e+02  -5.046466e+01
   1.789538e+02   8.622749e+01
   5.764384e+01   1.750534e+02
  -7.989311e+01   1.328847e+02
  -1.216416e+02   2.443705e+01
  -6.069200e+01  -3.539736e+01
   2.151031e+01  -4.509818e+00
   3.113238e+01   6.628302e+01
  -5.734683e+01   9.200820e+01
  -1.622420e+02   2.413262e+01
  -1.585190e+02  -1.018687e+02
  -1.752388e+01  -1.815999e+02
   1.383082e+02  -1.366277e+02
   1.633224e+02  -3.777076e+00
   5.477786e+01   9.760573e+01
  -5.660132e+01   9.411679e+01
  -7.083226e+01   2.565386e+01
  -1.695880e+01  -2.177445e+01
   1.638118e+01  -1.618507e+01
  -8.202752e+00   4.832928e+00
  -5.656126e+01  -8.626416e+00
  -7.040582e+01  -6.700698e+01
  -1.182081e+01  -1.285458e+02
   1.030429e+02  -1.246061e+02
   1.920829e+02  -2.162626e+01
   1.667029e+02   1.238393e+02
   3.395991e+01   1.972612e+02
  -9.190730e+01   1.411292e+02
  -1.135043e+02   2.142218e+01
  -5.788221e+01  -4.770990e+01
  -2.293409e+01  -3.059539e+01
  -4.393217e+01   9.456384e+00
  -6.503626e+01   4.679015e+00
  -3.274242e+01  -4.049315e+01
   3.562533e+01  -7.027131e+01
   8.263868e+01  -4.357520e+01
   6.798682e+01   2.874497e+01
  -1.124675e+01   8.871372e+01
  -1.146886e+02   6.950616e+01
  -1.610721e+02  -4.127058e+01
  -8.343229e+01  -1.650456e+02
   8.665694e+01  -1.886035e+02
   2.205576e+02  -7.965253e+01
   2.136527e+02   7.168694e+01
   9.091518e+01   1.474202e+02
  -3.268136e+01   1.224978e+02
  -7.928965e+01   6.946870e+01
  -6.697828e+01   5.687597e+01
  -5.654017e+01   7.421005e+01
  -7.682058e+01   5.994924e+01
  -1.051547e+02  -1.937509e+01
  -9.575630e+01  -1.277066e+02
  -2.334231e+01  -1.865808e+02
   8.222614e+01  -1.420298e+02
   1.454305e+02  -1.688680e+01
   1.128086e+02   1.007078e+02
   1.587898e+01   1.321755e+02
  -5.532914e+01   7.690573e+01
  -4.939324e+01   1.556486e+00
  -4.559510e+00  -3.419605e+01
   7.381464e+00  -2.829233e+01
  -3.043374e+01  -1.587041e+01
  -6.453852e+01  -1.970566e+01
  -3.602933e+01  -3.155595e+01
   5.179213e+01  -2.963800e+01
   1.284125e+02  -1.848003e+00
   1.173563e+02   4.200832e+01
   1.349694e+01   7.211058e+01
  -9.839908e+01   6.020376e+01
  -1.194887e+02   1.086391e+01
  -4.002317e+01  -3.316770e+01
   4.971159e+01  -2.987330e+01
   6.208632e+01   1.618432e+01
   4.958849e+00   5.578303e+01
  -4.699594e+01   4.650933e+01
  -5.156668e+01  -2.501609e+00
  -3.477146e+01  -4.136499e+01
  -3.503005e+01  -3.457716e+01
  -5.089092e+01  -2.400056e+00
  -5.446116e+01  -9.638926e-01
  -2.768923e+01  -5.535987e+01
   2.842560e+01  -1.187230e+02
   9.566775e+01  -1.147204e+02
   1.336119e+02  -2.618602e+01
   9.993127e+01   7.524410e+01
   4.976885e+00   1.030232e+02
  -7.039969e+01   4.929339e+01
  -4.888850e+01  -1.305729e+01
   4.876395e+01  -1.602920e+01
   1.129661e+02   3.677490e+01
   6.215623e+01   8.877883e+01
  -6.672413e+01   9.213636e+01
  -1.574632e+02   4.219275e+01
  -1.340695e+02  -2.820664e+01
  -3.071983e+01  -7.166310e+01
   5.027854e+01  -5.816358e+01
   4.046210e+01  -6.475621e+00
  -3.182301e+01   2.150832e+01
  -7.400517e+01  -1.928943e+01
  -2.570567e+01  -9.785362e+01
   7.702545e+01  -1.258501e+02
   1.386432e+02  -4.934733e+01
   1.033434e+02   8.415234e+01
   6.644552e+00   1.627183e+02
  -7.150630e+01   1.181672e+02
  -8.599591e+01  -5.763147e+00
  -4.960720e+01  -9.712039e+01
   1.177218e+00  -8.791532e+01
   3.734042e+01  -1.683875e+01
   4.313431e+01   2.593008e+01
   2.204218e+01   7.421697e+00
   3.223108e+00  -1.716785e+01
   1.600652e+01   1.189604e+01
   4.498206e+01   7.293790e+01
   3.465146e+01   9.063217e+01
  -3.802095e+01   3.714815e+01
  -1.135262e+02  -3.362992e+01
  -1.068684e+02  -5.945221e+01
  -1.403583e+01  -4.063953e+01
   7.303271e+01  -1.718798e+01
   7.283379e+01  -5.815868e+00
   8.303055e+00   5.694963e+00
  -3.222094e+01   1.811293e+01
  -1.131198e+01   1.535764e+01
   1.813213e+01  -8.021422e-01
  -4.855413e+00  -7.843854e+00
  -6.158824e+01  -4.335487e+00
  -7.474087e+01  -2.054544e+01
  -5.046357e+00  -6.575354e+01
   9.921452e+01  -9.219033e+01
   1.524038e+02  -4.556381e+01
   1.144891e+02   5.726190e+01
   1.905397e+01   1.332760e+02
  -6.595211e+01   1.216995e+02
  -9.386864e+01   4.631039e+01
  -6.588943e+01  -1.861359e+01
  -1.996585e+01  -2.899500e+01
   2.991877e+00  -6.676387e+00
  -8.024923e+00  -2.985015e+00
  -2.702184e+01  -3.743681e+01
  -1.830010e+01  -7.390740e+01
   2.456937e+01  -5.843578e+01
   6.656131e+01   1.626946e+01
   6.185417e+01   9.009460e+01
   1.545606e+00   9.211044e+01
  -6.835522e+01   1.792342e+01
  -8.340531e+01  -6.375143e+01
  -2.453099e+01  -8.511808e+01
   5.517833e+01  -4.411736e+01
   7.948046e+01   1.102967e+01
   3.102966e+01   4.111889e+01
  -2.714398e+01   4.119337e+01
  -2.508587e+01   2.272693e+01
   2.858134e+01   4.772638e-01
   5.692203e+01  -4.616905e+00
   1.166914e+01   2.047796e+01
  -6.557261e+01   5.334605e+01
  -9.473014e+01   4.743988e+01
  -5.149139e+01  -9.892736e+00
   1.392529e+01  -6.763434e+01
   4.368345e+01  -6.417494e+01
   2.959533e+01  -3.644154e+00
   1.273213e-01   4.607678e+01
  -2.166992e+01   3.433819e+01
  -2.955178e+01  -1.607364e+01
  -2.101092e+01  -4.448438e+01
   2.795009e+00  -2.621650e+01
   2.698850e+01   7.639119e+00
   3.207232e+01   1.722125e+01
   1.683933e+01   7.585362e-01
  -1.844893e-01  -1.106031e+01
  -5.661412e+00   3.376180e+00
  -6.668615e+00   3.024805e+01
  -1.527516e+01   3.570420e+01
  -2.688842e+01   4.723195e+00
  -2.336036e+01  -3.798183e+01
   3.600414e+00  -4.992573e+01
   3.709795e+01  -1.590106e+01
   4.526553e+01   3.325514e+01
   1.073880e+01   5.202336e+01
  -4.507824e+01   2.705708e+01
  -7.211576e+01  -1.392143e+01
  -3.952715e+01  -3.664366e+01
   2.401387e+01  -3.260802e+01
   5.318453e+01  -1.619411e+01
   1.945295e+01  -3.520496e+00
  -3.120970e+01  -2.713609e+00
  -3.104394e+01  -1.408512e+01
   2.613923e+01  -2.573171e+01
   7.597113e+01  -1.501431e+01
