
 $NMID
 id='ANONYMOUS ', fmtdat='(2E16.6)'
 volume=1.0
 tramp=1.0
 $END
  -3.431931e+03   4.619100e+01
  -2.290169e+03  -1.743906e+03
   4.967100e+00  -2.204111e+03
   1.355831e+03  -1.305988e+03
   1.015975e+03  -1.525326e+02
   5.227383e-01   2.648556e+02
  -4.369868e+02  -1.052127e+02
  -7.794969e+01  -6.116782e+02
   4.813754e+02  -6.369147e+02
   6.988077e+02  -9.563826e+01
   4.687470e+02   5.499728e+02
   3.926812e+00   7.024969e+02
  -3.417626e+02   2.055309e+02
  -2.835906e+02  -4.459442e+02
   1.166568e+02  -5.862058e+02
   4.382306e+02  -8.947795e+01
   3.211837e+02   5.165053e+02
  -1.362038e+02   6.560080e+02
  -4.981359e+02   2.817109e+02
  -4.633034e+02  -1.924728e+02
  -1.352345e+02  -3.833576e+02
   1.319539e+02  -2.630565e+02
   8.777812e+01  -8.375510e+01
  -1.744261e+02  -8.679583e+01
  -2.906591e+02  -2.648767e+02
  -7.345877e+00  -3.703822e+02
   4.736571e+02  -1.921487e+02
   6.419340e+02   1.698489e+02
   2.568392e+02   3.800675e+02
  -3.261714e+02   2.375273e+02
  -5.353785e+02  -1.152093e+02
  -2.153902e+02  -3.772743e+02
   2.633645e+02  -3.780887e+02
   4.746499e+02  -1.466391e+02
   3.444402e+02   1.641316e+02
   9.456994e+01   3.342818e+02
  -4.136014e+01   2.058024e+02
   1.563123e+01  -9.609335e+01
   1.721264e+02  -1.889849e+02
   2.269633e+02   1.240407e+02
   4.631369e+01   5.160966e+02
  -2.503823e+02   4.821081e+02
  -3.620166e+02   1.333870e+01
  -1.489719e+02  -3.397369e+02
   1.599810e+02  -1.673462e+02
   2.024454e+02   2.743779e+02
  -1.037919e+02   4.129204e+02
  -4.636196e+02   7.242481e+01
  -5.125341e+02  -3.785093e+02
  -1.672999e+02  -5.167122e+02
   3.100336e+02  -2.878010e+02
   5.430856e+02   5.839949e+01
   3.604018e+02   2.670492e+02
  -4.984223e+01   2.508814e+02
  -3.108487e+02   9.205547e+01
  -2.329608e+02  -4.136619e+01
  -1.409489e+00  -3.648124e+01
   6.355204e+01   5.410556e+01
  -1.015980e+02   7.476050e+01
  -2.457284e+02  -4.440698e+01
  -1.357110e+02  -2.057033e+02
   1.577943e+02  -2.578616e+02
   3.538979e+02  -1.380555e+02
   2.692564e+02   1.001852e+02
  -2.393153e+01   3.243426e+02
  -2.990534e+02   3.738307e+02
  -3.755464e+02   1.706158e+02
  -2.457669e+02  -1.635789e+02
  -5.618828e+01  -3.750323e+02
   3.972649e+01  -3.350817e+02
   3.120026e+01  -1.760005e+02
   3.725147e+01  -1.003252e+02
   1.359376e+02  -1.148500e+02
   2.518232e+02  -6.071544e+01
   2.490464e+02   1.181642e+02
   9.825940e+01   2.641041e+02
  -9.474793e+01   2.019481e+02
  -1.973824e+02  -3.794154e+01
  -1.428670e+02  -2.491078e+02
   4.560564e+01  -2.585579e+02
   2.531641e+02  -6.814159e+01
   3.196748e+02   1.754487e+02
   1.764185e+02   3.096111e+02
  -5.449829e+01   2.772685e+02
  -1.762952e+02   1.584324e+02
  -1.538120e+02   7.768695e+01
  -1.504356e+02   6.738044e+01
  -2.829293e+02   3.931221e+01
  -4.216296e+02  -9.590567e+01
  -3.300625e+02  -3.054893e+02
   2.399021e+01  -4.501012e+02
   3.909657e+02  -4.083992e+02
   4.927025e+02  -1.806519e+02
   2.977321e+02   1.017537e+02
   2.297965e+01   2.600133e+02
  -9.710858e+01   2.071895e+02
  -1.644241e+01   3.962892e+01
   1.187430e+02  -4.526212e+01
   1.370473e+02   3.528513e+01
   1.221379e+01   1.479356e+02
  -1.212064e+02   1.126527e+02
  -1.168250e+02  -5.274300e+01
   2.710895e+01  -1.381289e+02
   1.669282e+02  -2.727044e+00
   1.568038e+02   2.419825e+02
  -2.088396e+01   3.525370e+02
  -2.488071e+02   2.133365e+02
  -3.671122e+02  -6.407215e+01
  -2.870715e+02  -2.699301e+02
  -6.363858e+01  -2.822819e+02
   1.321191e+02  -1.450494e+02
   1.565129e+02  -7.025363e+00
   3.753175e+01   1.482787e+01
  -5.292513e+01  -6.205400e+01
   2.519515e+00  -1.170812e+02
   1.274475e+02  -6.968397e+01
   1.522498e+02   2.688284e+01
   3.351710e+01   5.707174e+01
  -8.433120e+01  -1.221650e+01
  -3.978483e+01  -9.553635e+01
   1.531397e+02  -9.013228e+01
   3.106164e+02   2.296526e+01
   2.646747e+02   1.756383e+02
   2.871924e+01   2.706864e+02
  -2.136124e+02   2.411417e+02
  -2.770262e+02   1.000789e+02
  -1.428573e+02  -4.714663e+01
   3.032891e+01  -8.137018e+01
   6.680640e+01   4.309637e+00
  -5.417039e+01   8.281007e+01
  -1.904490e+02   3.457405e+01
  -1.938715e+02  -1.070396e+02
  -5.785042e+01  -1.937878e+02
   9.134158e+01  -1.399703e+02
   1.289631e+02  -1.759475e+01
   4.795325e+01   3.719011e+01
  -4.313161e+01  -2.197819e+01
  -2.765101e+01  -1.131407e+02
   1.005029e+02  -1.214517e+02
   2.176701e+02  -1.233102e+01
   1.874846e+02   1.393457e+02
   1.055790e+01   2.151013e+02
  -1.611984e+02   1.549082e+02
  -1.800517e+02   1.126102e+01
  -5.714241e+01  -9.756642e+01
   6.334075e+01  -9.799382e+01
   7.204179e+01  -2.555317e+01
   1.174223e+00   2.524510e+01
  -3.823883e+01   8.739168e+00
   9.567366e+00  -2.656281e+01
   9.187869e+01  -1.504739e+00
   1.085922e+02   9.537096e+01
   1.072213e+01   1.818892e+02
  -1.480527e+02   1.580020e+02
  -2.462981e+02   9.599615e+00
  -1.978544e+02  -1.643640e+02
  -3.776258e+01  -2.356853e+02
   1.046170e+02  -1.644239e+02
   1.332519e+02  -3.185961e+01
   7.630236e+01   4.558942e+01
   3.509101e+01   3.003539e+01
   5.757063e+01  -1.482113e+01
   9.078447e+01  -7.044295e+00
   5.829505e+01   5.980645e+01
  -4.180785e+01   1.102287e+02
  -1.276540e+02   6.992012e+01
  -1.108666e+02  -4.680247e+01
   1.870932e+01  -1.347095e+02
   1.701115e+02  -9.262892e+01
   2.127064e+02   6.902147e+01
   8.660516e+01   2.205163e+02
  -1.299601e+02   2.281630e+02
  -2.762481e+02   8.291039e+01
  -2.513758e+02  -9.384490e+01
  -1.011839e+02  -1.741800e+02
   4.151711e+01  -1.417682e+02
   9.112088e+01  -8.219989e+01
   7.171582e+01  -7.219892e+01
   6.018883e+01  -9.782862e+01
   9.346558e+01  -8.238204e+01
   1.361440e+02   1.880993e+01
   1.229997e+02   1.588821e+02
   2.706264e+01   2.326715e+02
  -1.036372e+02   1.713974e+02
  -1.751102e+02   1.134106e+01
  -1.296872e+02  -1.312242e+02
  -9.080503e+00  -1.607106e+02
   7.780741e+01  -8.263269e+01
   6.430796e+01   1.517292e+01
  -4.521102e+00   5.532381e+01
  -2.794908e+01   3.664867e+01
   2.830108e+01   1.196815e+01
   8.753902e+01   1.847253e+01
   5.177587e+01   4.171487e+01
  -7.593001e+01   4.102477e+01
  -1.795972e+02  -2.807517e+00
  -1.486460e+02  -6.609154e+01
   1.378117e+00  -1.008125e+02
   1.392536e+02  -7.519851e+01
   1.499592e+02  -5.157499e+00
   4.525243e+01   5.204429e+01
  -6.214120e+01   4.544098e+01
  -8.080296e+01  -1.868034e+01
  -1.981796e+01  -7.667642e+01
   4.758757e+01  -6.874193e+01
   7.123865e+01  -2.632352e+00
   6.015732e+01   5.278939e+01
   4.973481e+01   4.499514e+01
   5.706923e+01   1.605255e+00
   6.702770e+01   1.055433e+00
   4.607936e+01   7.533796e+01
  -2.773351e+01   1.583691e+02
  -1.300894e+02   1.507349e+02
  -1.870555e+02   3.422982e+01
  -1.352308e+02  -9.823474e+01
  -1.930888e+00  -1.376656e+02
   9.616599e+01  -7.177531e+01
   6.465405e+01   1.087243e+01
  -5.989889e+01   2.145573e+01
  -1.378583e+02  -4.239231e+01
  -7.256076e+01  -1.091974e+02
   8.608804e+01  -1.120729e+02
   1.941634e+02  -4.506240e+01
   1.605272e+02   4.207387e+01
   3.126812e+01   8.728426e+01
  -6.588615e+01   6.245427e+01
  -4.970480e+01  -1.462595e+00
   4.154500e+01  -3.222616e+01
   9.594227e+01   1.964743e+01
   4.214099e+01   1.191493e+02
  -8.030910e+01   1.617026e+02
  -1.619561e+02   7.442526e+01
  -1.312580e+02  -9.279979e+01
  -1.837979e+01  -1.976880e+02
   8.342075e+01  -1.448941e+02
   1.067017e+02   1.156400e+01
   5.660036e+01   1.233858e+02
  -1.346568e+01   1.051753e+02
  -5.301285e+01   1.483297e+01
  -4.652597e+01  -3.286815e+01
  -1.716653e+01  -7.189343e+00
  -5.963274e+00   1.788785e+01
  -3.131234e+01  -2.225840e+01
  -5.974949e+01  -9.251653e+01
  -3.325829e+01  -1.073746e+02
   5.743646e+01  -4.334280e+01
   1.396578e+02   3.749695e+01
   1.263279e+02   7.042620e+01
   1.902163e+01   5.476927e+01
  -8.256406e+01   2.741402e+01
  -8.868308e+01   6.280716e+00
  -1.793626e+01  -1.219731e+01
   3.510750e+01  -2.235117e+01
   1.985772e+01  -1.290831e+01
  -1.515752e+01   4.457872e+00
   3.048515e+00   5.518842e+00
   6.846458e+01  -2.018843e+00
   9.600514e+01   2.150846e+01
   2.338792e+01   8.374645e+01
  -1.092392e+02   1.231973e+02
  -1.934437e+02   7.045108e+01
  -1.585765e+02  -5.887162e+01
  -3.521856e+01  -1.637308e+02
   8.146246e+01  -1.606413e+02
   1.198541e+02  -6.894083e+01
   8.322794e+01   1.880191e+01
   2.757204e+01   3.900136e+01
   2.630161e+00   1.378872e+01
   1.427423e+01   8.858283e+00
   3.131335e+01   5.031081e+01
   1.892279e+01   9.346354e+01
  -2.946070e+01   7.417475e+01
  -8.089437e+01  -1.434195e+01
  -8.380390e+01  -1.035174e+02
  -1.634149e+01  -1.137195e+02
   7.669034e+01  -3.453422e+01
   1.100606e+02   6.517137e+01
   4.290517e+01   1.058274e+02
  -6.523543e+01   6.746742e+01
  -1.074171e+02  -6.649992e+00
  -4.770386e+01  -5.965767e+01
   3.500891e+01  -6.412145e+01
   4.130623e+01  -3.026296e+01
  -2.679449e+01   6.884044e+00
  -7.025812e+01   1.016403e+01
  -1.926169e+01  -2.803092e+01
   7.993307e+01  -6.834657e+01
   1.238611e+02  -5.573792e+01
   7.353319e+01   1.704494e+01
  -1.291017e+01   8.789067e+01
  -5.900960e+01   8.622279e+01
  -4.667437e+01   1.371885e+01
  -8.433868e+00  -5.378457e+01
   2.380629e+01  -5.020868e+01
   3.834363e+01   9.875670e+00
   3.019927e+01   5.504025e+01
  -4.007038e-01   4.124634e+01
  -3.455408e+01  -4.604693e+00
  -4.346388e+01  -2.579408e+01
  -2.138686e+01  -4.864912e+00
   4.131373e+00   2.069401e+01
   6.565039e+00   8.911466e+00
  -4.845076e+00  -3.298407e+01
   3.853874e-01  -5.496506e+01
   2.774563e+01  -2.349128e+01
   4.323105e+01   3.547604e+01
   1.454874e+01   6.179597e+01
  -4.114589e+01   2.741474e+01
  -6.545042e+01  -3.311276e+01
  -2.136969e+01  -6.193128e+01
   5.820608e+01  -3.797288e+01
   9.653170e+01   1.039818e+01
   5.314346e+01   4.383978e+01
  -2.895242e+01   4.751699e+01
  -6.716299e+01   3.017165e+01
  -2.993893e+01   7.486180e+00
   2.914412e+01  -4.338248e+00
   3.480304e+01   5.680214e+00
  -2.307934e+01   2.656189e+01
  -7.997340e+01   2.332042e+01
