
 $NMID
 id='ANONYMOUS ', fmtdat='(2E16.6)'
 volume=1.0
 tramp=1.0
 $END
  -2.818963e+03   3.434364e+01
  -2.063362e+03  -1.202480e+03
  -4.051415e+02  -1.803169e+03
   8.604876e+02  -1.494875e+03
   1.000241e+03  -6.324514e+02
   3.759345e+02   4.716599e+01
  -1.469938e+02   7.449834e+01
  -1.106135e+02  -3.254799e+02
   2.689368e+02  -5.255526e+02
   5.335029e+02  -1.996746e+02
   4.588223e+02   3.498874e+02
   1.440470e+02   5.660028e+02
  -1.549202e+02   2.435370e+02
  -2.081198e+02  -2.771815e+02
   2.794124e+01  -4.702935e+02
   3.235765e+02  -1.390645e+02
   3.373807e+02   4.033611e+02
  -1.904516e+01   6.460584e+02
  -4.272075e+02   3.854337e+02
  -4.913205e+02  -8.925709e+01
  -2.010065e+02  -3.376635e+02
   6.347123e+01  -2.526323e+02
   9.369347e+00  -1.160658e+02
  -2.136684e+02  -1.833318e+02
  -2.230893e+02  -3.523138e+02
   1.067753e+02  -3.345906e+02
   4.800184e+02  -6.060583e+01
   5.103382e+02   2.285067e+02
   1.429100e+02   2.787009e+02
  -2.895022e+02   8.537390e+01
  -4.034013e+02  -1.669140e+02
  -1.295900e+02  -3.120111e+02
   2.512253e+02  -2.869798e+02
   4.118578e+02  -1.080901e+02
   2.918118e+02   1.250462e+02
   1.011305e+02   2.425629e+02
   4.949392e+01   1.479706e+02
   1.305997e+02  -3.073908e+01
   1.825874e+02  -3.923530e+01
   9.758090e+01   1.923411e+02
  -7.764981e+01   4.152502e+02
  -2.128007e+02   3.385048e+02
  -2.098883e+02   8.378515e+00
  -7.119945e+01  -2.098024e+02
   8.513066e+01  -6.790857e+01
   8.805915e+01   2.468561e+02
  -1.280750e+02   3.261864e+02
  -4.021540e+02   2.969063e+01
  -4.521633e+02  -3.561789e+02
  -1.622673e+02  -4.641622e+02
   2.625949e+02  -2.441072e+02
   4.794374e+02   5.074820e+01
   3.390744e+02   1.917448e+02
   7.934314e+00   1.729055e+02
  -2.234503e+02   1.057503e+02
  -2.150759e+02   5.135202e+01
  -6.922444e+01   1.216182e+01
   9.561117e+00  -2.608279e+00
  -6.711936e+01   3.232293e+00
  -1.781936e+02  -3.037395e+01
  -1.248540e+02  -1.450930e+02
   1.260147e+02  -2.494299e+02
   3.561898e+02  -1.759234e+02
   3.083207e+02   1.024836e+02
  -1.663348e+01   3.781948e+02
  -3.371564e+02   4.001060e+02
  -3.934216e+02   1.410457e+02
  -2.150811e+02  -1.789914e+02
  -3.810812e+01  -3.322174e+02
  -3.655957e+00  -2.945505e+02
  -2.661844e+01  -2.050942e+02
   3.785559e+01  -1.655120e+02
   1.874401e+02  -1.341815e+02
   2.847501e+02  -2.098797e+01
   2.296554e+02   1.570385e+02
   5.889461e+01   2.583989e+02
  -1.099641e+02   1.658805e+02
  -1.776747e+02  -6.830023e+01
  -1.071517e+02  -2.521213e+02
   6.808509e+01  -2.333497e+02
   2.428180e+02  -3.665946e+01
   2.888294e+02   1.792847e+02
   1.641419e+02   2.791397e+02
  -2.836095e+01   2.513571e+02
  -1.403298e+02   1.746005e+02
  -1.485382e+02   1.196253e+02
  -1.765019e+02   8.840825e+01
  -3.087812e+02   2.604445e+01
  -4.288341e+02  -1.163779e+02
  -3.239816e+02  -3.126765e+02
   3.638793e+01  -4.478145e+02
   4.031552e+02  -4.000339e+02
   4.878000e+02  -1.654342e+02
   2.694957e+02   1.072024e+02
   1.571361e+00   2.362045e+02
  -7.787463e+01   1.737278e+02
   2.388223e+01   4.131155e+01
   1.250288e+02  -7.028509e+00
   9.982585e+01   5.552421e+01
  -1.381909e+01   1.176787e+02
  -9.747552e+01   7.208150e+01
  -7.603353e+01  -5.024736e+01
   3.546644e+01  -1.024204e+02
   1.483934e+02   1.713624e+01
   1.493048e+02   2.341601e+02
  -1.375958e+01   3.474182e+02
  -2.541255e+02   2.232412e+02
  -3.857688e+02  -6.125041e+01
  -2.898827e+02  -2.837731e+02
  -4.484671e+01  -2.904556e+02
   1.419071e+02  -1.342009e+02
   1.414493e+02   2.691979e+00
   2.285938e+01   5.039282e+00
  -4.291044e+01  -7.604333e+01
   2.244578e+01  -1.116353e+02
   1.287159e+02  -5.009758e+01
   1.339230e+02   3.647351e+01
   1.686557e+01   4.774940e+01
  -8.693840e+01  -2.936051e+01
  -3.085980e+01  -1.084102e+02
   1.685969e+02  -9.243020e+01
   3.245258e+02   3.464238e+01
   2.633642e+02   1.945455e+02
   9.957270e+00   2.776508e+02
  -2.290710e+02   2.265142e+02
  -2.695127e+02   8.170960e+01
  -1.231117e+02  -4.509310e+01
   3.494920e+01  -6.264373e+01
   5.125467e+01   1.341358e+01
  -6.751178e+01   7.087773e+01
  -1.851050e+02   1.819959e+01
  -1.784236e+02  -1.091032e+02
  -4.876725e+01  -1.821009e+02
   8.881940e+01  -1.259400e+02
   1.178257e+02  -9.281087e+00
   3.276448e+01   3.499115e+01
  -5.323782e+01  -3.630723e+01
  -2.275369e+01  -1.305352e+02
   1.165406e+02  -1.264805e+02
   2.275366e+02  -2.811020e+00
   1.827658e+02   1.475245e+02
   3.309875e+00   2.102884e+02
  -1.568954e+02   1.460962e+02
  -1.677141e+02   1.317537e+01
  -4.992492e+01  -8.560300e+01
   6.085888e+01  -8.738070e+01
   6.390374e+01  -2.120833e+01
  -9.737114e+00   2.521575e+01
  -4.850344e+01   3.295994e+00
   8.399593e+00  -3.764519e+01
   1.031351e+02  -8.779701e+00
   1.203898e+02   1.014676e+02
   8.990083e+00   1.943596e+02
  -1.594837e+02   1.603719e+02
  -2.516189e+02  -1.991444e-01
  -1.930718e+02  -1.713759e+02
  -3.420108e+01  -2.312951e+02
   1.006595e+02  -1.579852e+02
   1.291266e+02  -3.393512e+01
   7.801029e+01   3.832520e+01
   3.824228e+01   2.559119e+01
   5.918177e+01  -1.644367e+01
   9.628023e+01  -7.866282e+00
   6.812593e+01   6.442181e+01
  -3.987625e+01   1.225213e+02
  -1.408575e+02   7.925267e+01
  -1.256367e+02  -5.203672e+01
   2.063771e+01  -1.482909e+02
   1.853132e+02  -9.683656e+01
   2.203983e+02   7.885775e+01
   7.748192e+01   2.302674e+02
  -1.432507e+02   2.257528e+02
  -2.788758e+02   7.353138e+01
  -2.440546e+02  -9.805929e+01
  -9.398058e+01  -1.704718e+02
   4.302734e+01  -1.362519e+02
   8.773222e+01  -7.945938e+01
   6.578799e+01  -7.237065e+01
   5.492280e+01  -1.003544e+02
   9.245786e+01  -8.636610e+01
   1.390151e+02   1.620744e+01
   1.248332e+02   1.594718e+02
   2.530742e+01   2.336661e+02
  -1.054024e+02   1.686371e+02
  -1.728395e+02   5.305174e+00
  -1.240617e+02  -1.356334e+02
  -2.639471e+00  -1.595737e+02
   8.368817e+01  -7.592994e+01
   6.671989e+01   2.451890e+01
  -9.632569e+00   6.278874e+01
  -3.818898e+01   3.827230e+01
   2.281421e+01   8.329280e+00
   9.130721e+01   1.521633e+01
   5.561389e+01   4.298924e+01
  -8.224767e+01   4.362560e+01
  -1.909217e+02  -5.264179e+00
  -1.508122e+02  -7.407235e+01
   1.101215e+01  -1.078453e+02
   1.488816e+02  -7.582950e+01
   1.513942e+02  -2.213506e-01
   4.322133e+01   5.833183e+01
  -6.221441e+01   4.981273e+01
  -8.277619e+01  -1.804456e+01
  -2.729924e+01  -8.021842e+01
   4.156013e+01  -7.411101e+01
   7.496674e+01  -5.821491e+00
   6.929057e+01   5.305565e+01
   5.310530e+01   4.604826e+01
   5.376093e+01   1.337682e+00
   6.677514e+01   1.236264e+00
   5.249878e+01   7.861803e+01
  -2.372206e+01   1.640369e+02
  -1.364878e+02   1.554628e+02
  -1.987466e+02   3.552128e+01
  -1.412988e+02  -1.009024e+02
   3.894969e-01  -1.432942e+02
   1.007736e+02  -7.764166e+01
   6.658509e+01   8.040225e+00
  -5.962097e+01   2.208602e+01
  -1.364258e+02  -4.125564e+01
  -6.973130e+01  -1.092240e+02
   8.842863e+01  -1.107994e+02
   1.941483e+02  -4.043121e+01
   1.576822e+02   4.675242e+01
   2.721392e+01   8.688956e+01
  -6.848978e+01   5.718281e+01
  -4.990148e+01  -6.794064e+00
   4.255056e+01  -3.519777e+01
   9.798234e+01   1.748808e+01
   4.720132e+01   1.176971e+02
  -7.242351e+01   1.638601e+02
  -1.562943e+02   8.060352e+01
  -1.321524e+02  -8.690655e+01
  -2.300217e+01  -1.951697e+02
   8.119724e+01  -1.435466e+02
   1.069473e+02   1.432772e+01
   5.367337e+01   1.254621e+02
  -2.050928e+01   1.036454e+02
  -5.699542e+01   1.168895e+01
  -4.269868e+01  -3.374886e+01
  -1.155644e+01  -6.626012e+00
  -7.247351e+00   1.612481e+01
  -3.779502e+01  -2.591727e+01
  -6.169863e+01  -9.370711e+01
  -2.741753e+01  -1.052706e+02
   6.330568e+01  -4.215935e+01
   1.387958e+02   3.577520e+01
   1.226409e+02   6.939651e+01
   1.991441e+01   5.715460e+01
  -7.809140e+01   3.007634e+01
  -8.790493e+01   5.397135e+00
  -2.227057e+01  -1.469597e+01
   3.258344e+01  -2.195941e+01
   2.334650e+01  -9.790916e+00
  -1.105748e+01   5.947334e+00
   1.230563e+00   3.390552e+00
   6.388789e+01  -5.423060e+00
   9.759298e+01   1.955315e+01
   3.247808e+01   8.428184e+01
  -1.018516e+02   1.270507e+02
  -1.955552e+02   7.756374e+01
  -1.668787e+02  -5.212675e+01
  -4.086811e+01  -1.625701e+02
   8.144191e+01  -1.656835e+02
   1.214938e+02  -7.494459e+01
   8.383041e+01   1.671475e+01
   2.911079e+01   4.063571e+01
   6.265410e+00   1.649678e+01
   1.682445e+01   1.150542e+01
   3.014275e+01   5.264696e+01
   1.664957e+01   9.472736e+01
  -2.910973e+01   7.498774e+01
  -7.972689e+01  -1.154848e+01
  -8.695277e+01  -9.909440e+01
  -2.373672e+01  -1.129010e+02
   7.191697e+01  -4.057632e+01
   1.128431e+02   5.776971e+01
   4.932649e+01   1.056072e+02
  -6.319389e+01   7.403184e+01
  -1.119175e+02  -2.820078e+00
  -5.290631e+01  -6.412170e+01
   3.538395e+01  -7.114759e+01
   4.685469e+01  -3.172435e+01
  -2.181093e+01   1.044536e+01
  -6.994690e+01   1.231169e+01
  -2.188630e+01  -2.931979e+01
   7.936152e+01  -6.922593e+01
   1.277126e+02  -5.395324e+01
   7.896524e+01   1.945243e+01
  -1.068030e+01   8.986448e+01
  -6.165336e+01   8.987364e+01
  -5.172228e+01   1.899600e+01
  -1.257642e+01  -5.164783e+01
   2.198559e+01  -5.413744e+01
   3.878791e+01   4.494496e+00
   3.225949e+01   5.491601e+01
   1.512632e+00   4.585227e+01
  -3.492075e+01  -2.043143e+00
  -4.559528e+01  -2.819096e+01
  -2.183234e+01  -7.041993e+00
   6.491250e+00   2.431657e+01
   6.887746e+00   1.604683e+01
  -1.162297e+01  -2.997025e+01
  -9.951913e+00  -5.992855e+01
   2.400785e+01  -3.269305e+01
   5.031644e+01   2.870343e+01
   2.462415e+01   6.094728e+01
  -3.828143e+01   3.122812e+01
  -7.003864e+01  -2.853442e+01
  -2.540464e+01  -6.027161e+01
   5.941237e+01  -4.028590e+01
   1.000728e+02   6.699913e+00
   5.517700e+01   4.299118e+01
  -2.836153e+01   5.123312e+01
  -6.749533e+01   3.546772e+01
  -3.298419e+01   9.339389e+00
   2.365022e+01  -7.971778e+00
   3.226427e+01  -4.054479e-01
  -1.837515e+01   2.317564e+01
  -7.217545e+01   2.494908e+01
