
 $NMID
 id='ANONYMOUS ', fmtdat='(2E16.6)'
 volume=1.0
 tramp=1.0
 $END
   2.887858e+03   8.488001e+01
   2.031271e+03   1.301734e+03
   3.300378e+02   1.815790e+03
  -8.998682e+02   1.456994e+03
  -9.890738e+02   6.154055e+02
  -3.565479e+02  -2.353878e+01
   1.385910e+02  -4.255975e+01
   7.797610e+01   3.355623e+02
  -2.996255e+02   5.118275e+02
  -5.412944e+02   1.748875e+02
  -4.416932e+02  -3.709220e+02
  -1.196428e+02  -5.693947e+02
   1.624542e+02  -2.267938e+02
   1.913141e+02   2.970649e+02
  -5.111913e+01   4.725759e+02
  -3.301900e+02   1.232178e+02
  -3.245141e+02  -4.191226e+02
   3.614627e+01  -6.479494e+02
   4.355441e+02  -3.758361e+02
   4.892731e+02   1.006075e+02
   1.924974e+02   3.433944e+02
  -7.226356e+01   2.500748e+02
  -1.011805e+01   1.103083e+02
   2.227623e+02   1.866656e+02
   2.293362e+02   3.696901e+02
  -1.180876e+02   3.506016e+02
  -5.037577e+02   5.386090e+01
  -5.233855e+02  -2.561175e+02
  -1.317108e+02  -2.999143e+02
   3.124209e+02  -7.947607e+01
   4.149205e+02   1.910525e+02
   1.204413e+02   3.304219e+02
  -2.715664e+02   2.875677e+02
  -4.273128e+02   9.588455e+01
  -2.921306e+02  -1.395853e+02
  -8.906913e+01  -2.504609e+02
  -4.047245e+01  -1.442457e+02
  -1.385904e+02   4.044412e+01
  -2.013894e+02   3.918718e+01
  -1.037681e+02  -2.098505e+02
   9.619922e+01  -4.354289e+02
   2.388504e+02  -3.393089e+02
   2.170448e+02   1.050103e+01
   5.677578e+01   2.249742e+02
  -9.894154e+01   6.171023e+01
  -8.348627e+01  -2.652106e+02
   1.457888e+02  -3.336923e+02
   4.160792e+02  -1.626093e+01
   4.524689e+02   3.795009e+02
   1.505455e+02   4.785317e+02
  -2.782033e+02   2.395129e+02
  -4.884204e+02  -6.845126e+01
  -3.350093e+02  -2.062160e+02
   3.947827e+00  -1.722378e+02
   2.303104e+02  -9.451341e+01
   2.120352e+02  -4.469770e+01
   6.530985e+01  -1.669694e+01
  -5.159269e+00  -3.512333e+00
   7.590588e+01   4.472164e-01
   1.808336e+02   4.154554e+01
   1.186310e+02   1.527162e+02
  -1.353202e+02   2.489225e+02
  -3.637442e+02   1.714745e+02
  -3.121296e+02  -1.075630e+02
   2.018336e+01  -3.841951e+02
   3.498084e+02  -4.042987e+02
   4.072118e+02  -1.375091e+02
   2.175346e+02   1.901020e+02
   2.781184e+01   3.422577e+02
  -7.184537e+00   2.971514e+02
   2.465642e+01   2.039779e+02
  -3.600890e+01   1.672439e+02
  -1.916669e+02   1.375181e+02
  -2.944305e+02   1.892131e+01
  -2.349723e+02  -1.666003e+02
  -5.448851e+01  -2.688742e+02
   1.190905e+02  -1.688796e+02
   1.830425e+02   7.504319e+01
   1.046627e+02   2.630470e+02
  -7.667582e+01   2.391987e+02
  -2.517981e+02   3.157780e+01
  -2.916978e+02  -1.921897e+02
  -1.587090e+02  -2.901016e+02
   3.727928e+01  -2.538073e+02
   1.460065e+02  -1.714837e+02
   1.502863e+02  -1.177608e+02
   1.797023e+02  -8.858063e+01
   3.166397e+02  -2.250654e+01
   4.370225e+02   1.271622e+02
   3.246364e+02   3.266930e+02
  -4.695325e+01   4.575032e+02
  -4.208503e+02   4.007989e+02
  -5.030258e+02   1.579620e+02
  -2.736538e+02  -1.179220e+02
   5.521913e+00  -2.435100e+02
   8.674773e+01  -1.742587e+02
  -2.306415e+01  -3.880817e+01
  -1.313350e+02   5.589346e+00
  -1.031426e+02  -6.212237e+01
   1.919588e+01  -1.227298e+02
   1.052801e+02  -6.975275e+01
   7.685020e+01   5.688096e+01
  -4.173005e+01   1.050710e+02
  -1.532515e+02  -2.221853e+01
  -1.466438e+02  -2.430898e+02
   2.221403e+01  -3.536973e+02
   2.632311e+02  -2.226839e+02
   3.918795e+02   6.919002e+01
   2.909729e+02   2.955033e+02
   4.048580e+01   2.991239e+02
  -1.486692e+02   1.349711e+02
  -1.454596e+02  -7.135946e+00
  -2.249459e+01  -7.183798e+00
   4.361869e+01   7.931185e+01
  -2.558374e+01   1.154375e+02
  -1.343265e+02   4.872495e+01
  -1.370748e+02  -4.176596e+01
  -1.551764e+01  -5.082939e+01
   8.969864e+01   3.137227e+01
   3.049051e+01   1.119971e+02
  -1.736627e+02   9.210955e+01
  -3.314034e+02  -4.094365e+01
  -2.663949e+02  -2.041733e+02
  -5.037843e+00  -2.853074e+02
   2.399312e+02  -2.278885e+02
   2.787341e+02  -7.706248e+01
   1.247587e+02   5.062878e+01
  -3.876376e+01   6.388458e+01
  -5.311336e+01  -1.616702e+01
   7.140645e+01  -7.231597e+01
   1.909730e+02  -1.425910e+01
   1.801512e+02   1.167006e+02
   4.481491e+01   1.879664e+02
  -9.478167e+01   1.265657e+02
  -1.214186e+02   5.955681e+00
  -3.268411e+01  -3.791319e+01
   5.477380e+01   3.705046e+01
   2.210910e+01   1.339539e+02
  -1.210029e+02   1.280168e+02
  -2.330757e+02  -1.016546e+00
  -1.841775e+02  -1.548991e+02
   1.566724e+00  -2.154725e+02
   1.642322e+02  -1.454095e+02
   1.714633e+02  -8.582378e+00
   4.804887e+01   8.932290e+01
  -6.507418e+01   8.777403e+01
  -6.621932e+01   1.953654e+01
   1.033677e+01  -2.656861e+01
   4.995369e+01  -3.364551e+00
  -8.351678e+00   3.797201e+01
  -1.046053e+02   7.684336e+00
  -1.210825e+02  -1.049790e+02
  -6.152669e+00  -1.985656e+02
   1.658933e+02  -1.612698e+02
   2.576817e+02   5.045008e+00
   1.940657e+02   1.794914e+02
   2.949345e+01   2.372293e+02
  -1.068604e+02   1.587707e+02
  -1.323985e+02   3.139632e+01
  -7.806943e+01  -4.075973e+01
  -3.800561e+01  -2.671669e+01
  -6.058696e+01   1.562378e+01
  -9.828729e+01   6.442319e+00
  -6.843181e+01  -6.623557e+01
   4.222636e+01  -1.238272e+02
   1.444213e+02  -7.894936e+01
   1.273918e+02   5.436792e+01
  -2.297404e+01   1.509005e+02
  -1.906419e+02   9.619089e+01
  -2.240691e+02  -8.442267e+01
  -7.512300e+01  -2.374557e+02
   1.511815e+02  -2.286030e+02
   2.871091e+02  -6.935286e+01
   2.474713e+02   1.060526e+02
   9.195352e+01   1.767903e+02
  -4.739602e+01   1.383547e+02
  -9.159089e+01   7.890423e+01
  -6.879558e+01   7.186352e+01
  -5.808166e+01   1.006932e+02
  -9.588831e+01   8.598302e+01
  -1.412481e+02  -1.933796e+01
  -1.239672e+02  -1.653109e+02
  -2.085327e+01  -2.392063e+02
   1.115010e+02  -1.700345e+02
   1.771404e+02  -1.512720e+00
   1.241708e+02   1.416214e+02
  -8.045851e-01   1.635646e+02
  -8.763355e+01   7.633238e+01
  -6.842468e+01  -2.611864e+01
   1.041551e+01  -6.426047e+01
   3.951362e+01  -3.918694e+01
  -2.283441e+01  -9.575497e+00
  -9.249958e+01  -1.720904e+01
  -5.589405e+01  -4.470693e+01
   8.456282e+01  -4.330096e+01
   1.948311e+02   8.420779e+00
   1.530487e+02   7.857475e+01
  -1.278378e+01   1.106576e+02
  -1.534194e+02   7.506184e+01
  -1.549828e+02  -2.869742e+00
  -4.347289e+01  -6.058662e+01
   6.416930e+01  -4.943104e+01
   8.400634e+01   2.004412e+01
   2.634652e+01   8.170817e+01
  -4.360896e+01   7.408524e+01
  -7.628699e+01   4.617642e+00
  -6.946260e+01  -5.478803e+01
  -5.325230e+01  -4.782235e+01
  -5.486534e+01  -2.858306e+00
  -6.815056e+01  -2.740208e+00
  -5.209235e+01  -8.072966e+01
   2.730654e+01  -1.664493e+02
   1.421605e+02  -1.562463e+02
   2.033442e+02  -3.301969e+01
   1.421898e+02   1.054546e+02
  -2.952680e+00   1.463924e+02
  -1.039262e+02   7.740682e+01
  -6.748912e+01  -9.514752e+00
   6.127999e+01  -2.120675e+01
   1.382599e+02   4.523856e+01
   6.883379e+01   1.132752e+02
  -9.276395e+01   1.114044e+02
  -1.994901e+02   3.709632e+01
  -1.604122e+02  -5.136538e+01
  -2.590110e+01  -8.967414e+01
   7.162136e+01  -5.719535e+01
   5.129260e+01   7.928891e+00
  -4.390042e+01   3.505169e+01
  -9.939262e+01  -1.982308e+01
  -4.539957e+01  -1.206988e+02
   7.740225e+01  -1.648857e+02
   1.607760e+02  -7.823248e+01
   1.324144e+02   9.158571e+01
   1.891388e+01   1.993032e+02
  -8.616915e+01   1.445516e+02
  -1.091081e+02  -1.689468e+01
  -5.228672e+01  -1.294792e+02
   2.324114e+01  -1.060374e+02
   5.867374e+01  -1.111269e+01
   4.298428e+01   3.573204e+01
   1.167667e+01   7.559558e+00
   7.899423e+00  -1.644808e+01
   3.826943e+01   2.660636e+01
   6.101697e+01   9.678864e+01
   2.556983e+01   1.086349e+02
  -6.556510e+01   4.222841e+01
  -1.407345e+02  -3.965020e+01
  -1.236181e+02  -7.387493e+01
  -1.929492e+01  -5.865236e+01
   8.017209e+01  -2.852957e+01
   8.993687e+01  -3.529173e+00
   2.258814e+01   1.503607e+01
  -3.380988e+01   2.146712e+01
  -2.429169e+01   9.861898e+00
   1.133173e+01  -5.416041e+00
  -1.004356e+00  -3.691530e+00
  -6.506743e+01   3.655638e+00
  -9.897607e+01  -2.196273e+01
  -3.123360e+01  -8.585746e+01
   1.064669e+02  -1.266963e+02
   2.005833e+02  -7.500320e+01
   1.684316e+02   5.614779e+01
   3.797589e+01   1.663015e+02
  -8.625970e+01   1.672612e+02
  -1.250452e+02   7.391622e+01
  -8.499206e+01  -1.886143e+01
  -2.896098e+01  -4.194123e+01
  -6.242496e+00  -1.658883e+01
  -1.713845e+01  -1.182916e+01
  -2.985776e+01  -5.447258e+01
  -1.508050e+01  -9.724983e+01
   3.127519e+01  -7.585903e+01
   8.087391e+01   1.367798e+01
   8.612238e+01   1.028032e+02
   2.158162e+01   1.150593e+02
  -7.378013e+01   3.930482e+01
  -1.131704e+02  -6.126566e+01
  -4.793096e+01  -1.082575e+02
   6.551777e+01  -7.389658e+01
   1.137415e+02   4.944096e+00
   5.295502e+01   6.604186e+01
  -3.699114e+01   7.178386e+01
  -4.829779e+01   3.186825e+01
   2.222024e+01  -9.658684e+00
   7.146172e+01  -1.098022e+01
   2.178547e+01   3.013466e+01
  -8.243773e+01   6.885968e+01
  -1.316479e+02   5.267680e+01
  -8.032773e+01  -2.102414e+01
   1.270469e+01  -9.124953e+01
   6.450309e+01  -9.058900e+01
   5.263070e+01  -1.866840e+01
   1.144683e+01   5.262500e+01
  -2.327174e+01   5.454808e+01
  -3.897158e+01  -5.467519e+00
  -3.168776e+01  -5.656075e+01
  -9.568207e-01  -4.658568e+01
   3.534856e+01   2.848521e+00
   4.612252e+01   2.953117e+01
   2.233223e+01   7.590526e+00
  -6.407924e+00  -2.468429e+01
  -7.357767e+00  -1.639706e+01
   1.082535e+01   3.023861e+01
   9.178348e+00   6.032686e+01
  -2.439106e+01   3.235786e+01
  -4.998328e+01  -2.981363e+01
  -2.357996e+01  -6.179422e+01
   3.943076e+01  -3.071112e+01
   7.036240e+01   3.027902e+01
   2.439945e+01   6.171059e+01
  -6.128221e+01   3.990575e+01
  -1.015933e+02  -8.735638e+00
  -5.527070e+01  -4.490200e+01
   2.971913e+01  -5.156516e+01
   6.915448e+01  -3.468570e+01
   3.365000e+01  -9.077885e+00
  -2.404395e+01   7.043980e+00
  -3.239481e+01  -6.190614e-01
   1.965137e+01  -2.285252e+01
   7.416786e+01  -2.312204e+01
