
 $NMID
 id='ANONYMOUS ', fmtdat='(2E16.6)'
 volume=1.0
 tramp=1.0
 $END
   2.201380e+03   3.525386e+01
   1.221464e+03   1.375197e+03
  -4.627889e+02   1.371919e+03
  -1.102006e+03   3.524106e+02
  -4.265176e+02  -4.169527e+02
   4.056349e+02  -2.981659e+02
   4.738443e+02   2.642741e+02
  -3.033869e+01   5.675107e+02
  -4.491856e+02   3.813314e+02
  -4.766244e+02  -8.017332e+01
  -2.026969e+02  -4.564390e+02
   1.555302e+02  -4.449658e+02
   3.418714e+02  -3.436224e+01
   1.875310e+02   3.847790e+02
  -1.566042e+02   3.768097e+02
  -3.118494e+02  -2.213550e+01
  -1.185619e+02  -3.500098e+02
   1.818408e+02  -2.981925e+02
   2.884882e+02  -1.665714e+01
   1.727716e+02   1.893293e+02
  -9.413126e+00   2.147540e+02
  -1.310468e+02   1.236440e+02
  -1.159414e+02  -3.372583e+00
   5.195840e+01  -6.273644e+01
   2.128081e+02   4.088325e+01
   1.152306e+02   2.201212e+02
  -2.267585e+02   2.229921e+02
  -4.357929e+02  -3.349971e+01
  -2.220823e+02  -2.907361e+02
   2.049039e+02  -2.595136e+02
   3.862793e+02   1.557477e+01
   1.787634e+02   2.495870e+02
  -1.437887e+02   2.651321e+02
  -2.863785e+02   9.964691e+01
  -2.073620e+02  -1.209451e+02
  -2.640465e+01  -2.458570e+02
   1.177030e+02  -1.426119e+02
   1.017245e+02   1.240277e+02
  -8.604261e+01   2.401366e+02
  -2.437379e+02  -2.855546e+00
  -1.356174e+02  -3.542053e+02
   1.696816e+02  -3.631703e+02
   3.212911e+02   6.386034e+00
   1.323990e+02   2.969899e+02
  -1.610052e+02   1.691095e+02
  -2.061197e+02  -1.673885e+02
   3.291162e+01  -2.808421e+02
   2.805366e+02  -6.989209e+01
   2.947535e+02   2.033101e+02
   7.643819e+01   2.913697e+02
  -1.955392e+02   1.714281e+02
  -3.135050e+02  -4.152563e+01
  -1.788217e+02  -2.012865e+02
   9.040789e+01  -1.876787e+02
   2.298591e+02  -1.850105e+01
   1.143994e+02   1.148506e+02
  -7.378202e+01   5.807764e+01
  -7.732307e+01  -8.867050e+01
   9.004006e+01  -1.029304e+02
   1.798824e+02   4.234693e+01
   6.651125e+01   1.571880e+02
  -1.055061e+02   1.235950e+02
  -1.558576e+02   2.579557e+01
  -8.465722e+01  -3.884818e+01
   1.168873e+01  -9.379331e+01
   9.543803e+01  -1.501733e+02
   1.579452e+02  -1.109860e+02
   1.461615e+02   6.297765e+01
   3.953814e+01   2.179898e+02
  -6.665302e+01   1.901505e+02
  -6.932261e+01   4.469021e+01
  -8.719661e+00  -1.980152e+01
  -7.927996e+00   3.947153e+01
  -8.709522e+01   7.236148e+01
  -1.389410e+02  -1.697052e+01
  -8.471980e+01  -1.318139e+02
   3.219645e+01  -1.313580e+02
   1.144005e+02  -1.120877e+01
   1.025542e+02   1.155983e+02
  -8.834673e-01   1.471965e+02
  -1.305879e+02   6.231576e+01
  -1.789702e+02  -8.010732e+01
  -9.034929e+01  -1.745650e+02
   5.430968e+01  -1.507892e+02
   1.154672e+02  -5.244942e+01
   7.106706e+01   7.217135e+00
   4.022992e+01  -1.292923e+01
   1.054768e+02  -3.489814e+01
   1.891832e+02   2.205020e+01
   1.591904e+02   1.335993e+02
   1.761123e+00   2.108672e+02
  -1.680333e+02   1.982285e+02
  -2.332206e+02   9.849937e+01
  -1.663398e+02  -4.428766e+01
  -2.974893e+01  -1.462448e+02
   6.788427e+01  -1.270653e+02
   4.819031e+01  -1.178460e+01
  -5.271628e+01   6.044599e+01
  -1.031977e+02   4.038802e-02
  -2.859736e+01  -1.017788e+02
   8.447202e+01  -9.027719e+01
   9.484942e+01   3.147629e+01
  -8.060577e+00   1.007505e+02
  -9.791803e+01   1.938484e+01
  -7.908145e+01  -1.199571e+02
   1.703866e+01  -1.665478e+02
   1.076615e+02  -8.900775e+01
   1.497124e+02   2.972368e+01
   1.311469e+02   1.094939e+02
   4.960069e+01   1.237206e+02
  -5.197687e+01   7.902451e+01
  -8.840655e+01   1.147728e+01
  -3.099753e+01  -1.843168e+01
   3.621718e+01   1.549128e+01
   1.852417e+01   6.173457e+01
  -5.957773e+01   5.219937e+01
  -8.977541e+01  -4.639711e+00
  -3.125869e+01  -3.763061e+01
   3.818927e+01  -1.215729e+01
   2.897357e+01   3.191078e+01
  -5.441115e+01   4.112953e+01
  -1.301991e+02   3.258074e+00
  -1.255135e+02  -6.149562e+01
  -3.335083e+01  -1.196473e+02
   8.405788e+01  -1.278198e+02
   1.371113e+02  -6.407891e+01
   8.554108e+01   2.594098e+01
  -1.138872e+01   5.699105e+01
  -4.757380e+01   5.483514e+00
   1.271425e+01  -5.182340e+01
   9.492212e+01  -3.208240e+01
   1.052060e+02   4.875668e+01
   3.465564e+01   1.020002e+02
  -4.607568e+01   7.841438e+01
  -7.157606e+01   1.534950e+01
  -3.723573e+01  -2.107619e+01
   1.131468e+01  -5.652670e+00
   1.986271e+01   3.496573e+01
  -2.925114e+01   5.277942e+01
  -9.124464e+01   1.672836e+01
  -9.215161e+01  -5.616161e+01
  -1.187477e+01  -1.046744e+02
   7.938423e+01  -7.986533e+01
   9.509476e+01  -1.985044e+00
   3.229911e+01   5.779638e+01
  -3.279717e+01   5.561420e+01
  -4.187351e+01   1.527867e+01
  -1.162353e+01  -1.292961e+01
   7.820407e+00  -1.079096e+01
  -4.247308e+00   8.605138e-01
  -2.999828e+01  -5.250070e+00
  -3.882459e+01  -3.618103e+01
  -8.362482e+00  -7.122807e+01
   5.606726e+01  -7.179788e+01
   1.090573e+02  -1.524984e+01
   9.687677e+01   6.884942e+01
   2.072628e+01   1.132498e+02
  -5.271437e+01   8.181512e+01
  -6.520037e+01   1.221460e+01
  -3.256391e+01  -2.804810e+01
  -1.245810e+01  -1.791033e+01
  -2.464327e+01   5.428059e+00
  -3.608869e+01   3.157337e+00
  -1.746521e+01  -2.160984e+01
   1.961687e+01  -3.806851e+01
   4.416337e+01  -2.440733e+01
   3.670219e+01   1.435885e+01
  -4.899360e+00   4.845394e+01
  -6.224941e+01   4.033133e+01
  -9.129320e+01  -2.063779e+01
  -5.048407e+01  -9.254128e+01
   4.634540e+01  -1.091179e+02
   1.254334e+02  -4.826511e+01
   1.236623e+02   3.948372e+01
   5.360488e+01   8.462341e+01
  -1.806132e+01   7.103283e+01
  -4.558442e+01   4.029361e+01
  -3.889845e+01   3.242001e+01
  -3.261856e+01   4.188983e+01
  -4.345617e+01   3.384564e+01
  -5.943419e+01  -1.080006e+01
  -5.497207e+01  -7.213916e+01
  -1.460543e+01  -1.062046e+02
   4.602169e+01  -8.196937e+01
   8.355677e+01  -1.126196e+01
   6.602803e+01   5.641749e+01
   1.075039e+01   7.583381e+01
  -3.053238e+01   4.558751e+01
  -2.825893e+01   2.848551e+00
  -4.043315e+00  -1.849312e+01
   2.246751e+00  -1.645353e+01
  -1.816419e+01  -9.809655e+00
  -3.608778e+01  -1.125573e+01
  -2.012550e+01  -1.738780e+01
   2.817439e+01  -1.706691e+01
   7.143566e+01  -2.735063e+00
   6.720163e+01   2.189402e+01
   1.007256e+01   4.038737e+01
  -5.414440e+01   3.524559e+01
  -6.810803e+01   7.712019e+00
  -2.367603e+01  -1.775868e+01
   2.794596e+01  -1.655136e+01
   3.511766e+01   8.914875e+00
   2.038088e+00   3.077858e+01
  -2.729019e+01   2.552350e+01
  -2.861414e+01  -1.501811e+00
  -1.850788e+01  -2.286986e+01
  -1.963795e+01  -1.917850e+01
  -2.957671e+01  -1.336418e+00
  -3.111319e+01  -2.572957e-01
  -1.516290e+01  -3.052435e+01
   1.597832e+01  -6.666767e+01
   5.263403e+01  -6.545090e+01
   7.401146e+01  -1.602619e+01
   5.648468e+01   4.162024e+01
   4.057786e+00   5.789735e+01
  -3.879701e+01   2.772422e+01
  -2.746355e+01  -7.572071e+00
   2.773860e+01  -9.265484e+00
   6.478383e+01   2.066901e+01
   3.637268e+01   5.046003e+01
  -3.725611e+01   5.321982e+01
  -8.983253e+01   2.563854e+01
  -7.732969e+01  -1.477018e+01
  -1.854398e+01  -4.099692e+01
   2.822322e+01  -3.445419e+01
   2.329715e+01  -4.809271e+00
  -1.770615e+01   1.197826e+01
  -4.183572e+01  -1.087913e+01
  -1.421897e+01  -5.563980e+01
   4.450163e+01  -7.136025e+01
   7.943067e+01  -2.748861e+01
   5.888410e+01   4.841147e+01
   3.693782e+00   9.292855e+01
  -4.062692e+01   6.785188e+01
  -4.917614e+01  -2.370755e+00
  -2.938700e+01  -5.493902e+01
  -8.808613e-01  -5.078050e+01
   2.070562e+01  -1.053921e+01
   2.542287e+01   1.462750e+01
   1.352448e+01   4.521163e+00
   1.629975e+00  -1.017396e+01
   8.291009e+00   5.731277e+00
   2.575477e+01   4.105700e+01
   2.109088e+01   5.218007e+01
  -2.056531e+01   2.189509e+01
  -6.495904e+01  -1.894064e+01
  -6.180835e+01  -3.373592e+01
  -8.188261e+00  -2.265136e+01
   4.217017e+01  -9.477257e+00
   4.168274e+01  -3.791913e+00
   4.166847e+00   2.547211e+00
  -1.872993e+01   1.042053e+01
  -5.952740e+00   9.531561e+00
   1.094756e+01  -7.422634e-02
  -2.999893e+00  -4.906997e+00
  -3.573021e+01  -2.985196e+00
  -4.234915e+01  -1.158175e+01
  -1.702835e+00  -3.688436e+01
   5.714848e+01  -5.201885e+01
   8.593176e+01  -2.566583e+01
   6.380516e+01   3.276194e+01
   1.052140e+01   7.579127e+01
  -3.672170e+01   6.887781e+01
  -5.268919e+01   2.595719e+01
  -3.745134e+01  -1.060084e+01
  -1.136080e+01  -1.607300e+01
   2.139413e+00  -3.166648e+00
  -4.304198e+00  -1.075305e+00
  -1.592328e+01  -2.087997e+01
  -1.126236e+01  -4.196226e+01
   1.372981e+01  -3.329003e+01
   3.808337e+01   9.476447e+00
   3.495436e+01   5.163864e+01
   5.274705e-02   5.225285e+01
  -3.936606e+01   9.285292e+00
  -4.701016e+01  -3.703120e+01
  -1.332168e+01  -4.810113e+01
   3.122937e+01  -2.421577e+01
   4.440935e+01   6.289895e+00
   1.726584e+01   2.225281e+01
  -1.482432e+01   2.246005e+01
  -1.317248e+01   1.314160e+01
   1.694915e+01   1.000783e+00
   3.237142e+01  -2.540736e+00
   6.384270e+00   1.125755e+01
  -3.717081e+01   3.057190e+01
  -5.322474e+01   2.804254e+01
  -2.862516e+01  -4.678109e+00
   7.868052e+00  -3.818306e+01
   2.393966e+01  -3.634270e+01
   1.571743e+01  -1.610451e+00
  -5.108254e-01   2.640979e+01
  -1.227722e+01   1.892735e+01
  -1.656488e+01  -9.901726e+00
  -1.185125e+01  -2.516923e+01
   1.533935e+00  -1.408106e+01
   1.522710e+01   4.632614e+00
   1.814612e+01   9.136771e+00
   9.649434e+00  -4.490293e-02
   4.059451e-02  -5.565285e+00
  -3.545057e+00   3.177578e+00
  -4.959411e+00   1.742287e+01
  -1.000709e+01   1.903552e+01
  -1.543991e+01   1.070497e+00
  -1.194680e+01  -2.229968e+01
   3.549823e+00  -2.808284e+01
   2.135085e+01  -8.454560e+00
   2.495558e+01   1.925852e+01
   5.614474e+00   2.967228e+01
  -2.523861e+01   1.533168e+01
  -4.039367e+01  -8.006097e+00
  -2.233531e+01  -2.072838e+01
   1.342627e+01  -1.805547e+01
   2.990146e+01  -8.626407e+00
   1.045936e+01  -1.958408e+00
  -1.854159e+01  -2.302714e+00
  -1.787161e+01  -9.041683e+00
   1.575486e+01  -1.512181e+01
   4.447512e+01  -8.246365e+00
