
 $NMID
 id='ANONYMOUS ', fmtdat='(2E16.6)'
 volume=1.0
 tramp=1.0
 $END
  -4.060026e+03   3.317443e+01
  -2.406360e+03  -2.408880e+03
   6.327127e+02  -2.586429e+03
   1.958305e+03  -8.864209e+02
   9.172935e+02   5.696100e+02
  -5.734180e+02   5.380199e+02
  -8.191372e+02  -3.836485e+02
  -4.490552e+00  -9.838976e+02
   7.623937e+02  -7.363180e+02
   8.782778e+02   7.571128e+01
   4.324902e+02   8.001121e+02
  -2.112802e+02   8.365505e+02
  -5.873455e+02   1.195705e+02
  -3.620474e+02  -6.642293e+02
   2.444543e+02  -7.039408e+02
   5.681629e+02  -2.030736e+00
   2.647788e+02   6.388900e+02
  -2.961579e+02   6.081723e+02
  -5.527224e+02   1.014497e+02
  -3.763586e+02  -3.252266e+02
  -2.487446e+01  -4.136950e+02
   2.221734e+02  -2.522562e+02
   1.942134e+02  -2.320886e+01
  -1.094738e+02   6.813132e+01
  -3.753846e+02  -1.162311e+02
  -1.760250e+02  -4.016359e+02
   4.338484e+02  -3.752679e+02
   7.900234e+02   7.476710e+01
   3.995440e+02   5.066254e+02
  -3.639626e+02   4.433776e+02
  -6.920224e+02  -3.567000e+01
  -3.224275e+02  -4.484141e+02
   2.643387e+02  -4.829319e+02
   5.308056e+02  -1.898224e+02
   3.921477e+02   2.106891e+02
   7.188497e+01   4.419823e+02
  -1.763754e+02   2.680579e+02
  -1.523237e+02  -1.943123e+02
   1.526598e+02  -3.979973e+02
   4.066705e+02   2.069180e+01
   2.222699e+02   6.326054e+02
  -2.937194e+02   6.544156e+02
  -5.586895e+02   1.006480e+01
  -2.443831e+02  -5.100202e+02
   2.647561e+02  -2.966473e+02
   3.553944e+02   3.001589e+02
  -6.326018e+01   5.102169e+02
  -5.194768e+02   1.280334e+02
  -5.603676e+02  -3.819386e+02
  -1.599205e+02  -5.514361e+02
   3.565623e+02  -3.271322e+02
   5.924974e+02   6.662107e+01
   3.580237e+02   3.564714e+02
  -1.362046e+02   3.419681e+02
  -4.135304e+02   5.915450e+01
  -2.333649e+02  -1.759257e+02
   1.031604e+02  -1.006316e+02
   1.345959e+02   1.377966e+02
  -1.495350e+02   1.729644e+02
  -3.250319e+02  -6.534388e+01
  -1.371648e+02  -2.788706e+02
   1.911202e+02  -2.474995e+02
   3.173886e+02  -7.250460e+01
   1.895370e+02   8.385656e+01
  -2.675286e+01   2.168538e+02
  -2.132948e+02   3.083921e+02
  -3.190365e+02   2.040578e+02
  -2.731903e+02  -1.279686e+02
  -7.736066e+01  -4.086852e+02
   1.021307e+02  -3.644961e+02
   1.113886e+02  -1.138337e+02
   2.765916e+01   4.754426e+00
   4.583847e+01  -8.130655e+01
   1.846099e+02  -1.188218e+02
   2.609215e+02   5.051734e+01
   1.498143e+02   2.531192e+02
  -6.581523e+01   2.405963e+02
  -2.128884e+02   1.004351e+01
  -1.858693e+02  -2.258473e+02
   8.772528e+00  -2.766129e+02
   2.495665e+02  -1.100430e+02
   3.403823e+02   1.556584e+02
   1.795361e+02   3.291663e+02
  -8.922841e+01   2.911345e+02
  -2.130130e+02   1.194979e+02
  -1.452137e+02   9.324720e+00
  -9.714085e+01   3.338344e+01
  -2.217578e+02   5.945444e+01
  -3.780523e+02  -5.443106e+01
  -3.140760e+02  -2.679542e+02
   1.063007e+00  -4.172416e+02
   3.386037e+02  -3.902003e+02
   4.592074e+02  -1.908421e+02
   3.160662e+02   8.560907e+01
   5.264222e+01   2.753772e+02
  -1.190219e+02   2.388915e+02
  -7.473064e+01   3.083438e+01
   1.022025e+02  -9.959436e+01
   1.828341e+02   4.284076e+00
   4.849507e+01   1.826176e+02
  -1.489173e+02   1.625791e+02
  -1.679598e+02  -5.452356e+01
   1.434758e+01  -1.806129e+02
   1.821695e+02  -3.162619e+01
   1.557795e+02   2.331903e+02
  -2.806407e+01   3.304717e+02
  -2.182193e+02   1.827674e+02
  -3.090374e+02  -5.935110e+01
  -2.617200e+02  -2.250111e+02
  -8.862136e+01  -2.477557e+02
   1.065619e+02  -1.506897e+02
   1.666475e+02  -2.067240e+01
   5.558956e+01   2.907138e+01
  -6.487920e+01  -3.653961e+01
  -2.761992e+01  -1.170149e+02
   1.160748e+02  -9.390197e+01
   1.677854e+02   1.088593e+01
   5.513921e+01   6.729097e+01
  -7.484094e+01   1.501206e+01
  -5.131987e+01  -6.889719e+01
   1.167149e+02  -8.132404e+01
   2.651669e+02   7.755001e-01
   2.471483e+02   1.314570e+02
   5.639433e+01   2.391265e+02
  -1.725744e+02   2.453479e+02
  -2.660361e+02   1.201720e+02
  -1.605094e+02  -4.696280e+01
   2.189311e+01  -1.030220e+02
   8.513267e+01  -8.797632e+00
  -3.024541e+01   9.504147e+01
  -1.836496e+02   5.678994e+01
  -2.015632e+02  -9.512544e+01
  -6.681495e+01  -1.954539e+02
   8.776512e+01  -1.495807e+02
   1.353703e+02  -2.841427e+01
   6.662996e+01   3.825983e+01
  -2.574124e+01   2.203662e+00
  -3.464994e+01  -7.807431e+01
   6.718795e+01  -1.057131e+02
   1.855779e+02  -2.752087e+01
   1.803988e+02   1.148622e+02
   2.137040e+01   2.049061e+02
  -1.539852e+02   1.557884e+02
  -1.832566e+02   7.593270e+00
  -6.279910e+01  -1.074910e+02
   6.201381e+01  -1.058400e+02
   7.835741e+01  -2.969933e+01
   1.746337e+01   2.402491e+01
  -2.015454e+01   1.712971e+01
   9.502860e+00  -7.830722e+00
   6.693186e+01   8.039880e+00
   8.305259e+01   7.683332e+01
   1.444307e+01   1.483025e+02
  -1.176357e+02   1.431143e+02
  -2.186328e+02   2.525096e+01
  -1.900609e+02  -1.394844e+02
  -4.098452e+01  -2.227085e+02
   1.013473e+02  -1.606742e+02
   1.279844e+02  -2.659676e+01
   6.713874e+01   5.203503e+01
   2.732443e+01   3.370747e+01
   5.018223e+01  -1.164013e+01
   7.496527e+01  -6.194990e+00
   3.953313e+01   4.687363e+01
  -3.961688e+01   8.288310e+01
  -9.627747e+01   5.199581e+01
  -8.036073e+01  -3.333768e+01
   1.244685e+01  -1.035739e+02
   1.324967e+02  -8.085183e+01
   1.847677e+02   4.680523e+01
   9.504786e+01   1.878903e+02
  -9.822985e+01   2.146025e+02
  -2.496399e+02   9.182245e+01
  -2.422869e+02  -7.886059e+01
  -1.042513e+02  -1.651980e+02
   3.540962e+01  -1.385732e+02
   8.832630e+01  -7.973438e+01
   7.414629e+01  -6.591933e+01
   6.225871e+01  -8.590095e+01
   8.641503e+01  -7.008983e+01
   1.204823e+02   2.009699e+01
   1.110464e+02   1.439498e+02
   2.888022e+01   2.118549e+02
  -9.160757e+01   1.620282e+02
  -1.643526e+02   2.024351e+01
  -1.284102e+02  -1.134364e+02
  -1.877558e+01  -1.495052e+02
   6.262374e+01  -8.666190e+01
   5.618854e+01  -5.616424e-01
   4.362179e+00   4.004123e+01
  -1.004770e+01   3.214234e+01
   3.390956e+01   1.664499e+01
   7.452414e+01   2.097883e+01
   4.211076e+01   3.575510e+01
  -5.978297e+01   3.468301e+01
  -1.480418e+02   3.013239e+00
  -1.340884e+02  -4.768314e+01
  -1.421099e+01  -8.272640e+01
   1.128734e+02  -6.958076e+01
   1.357259e+02  -1.307249e+01
   4.531017e+01   3.825542e+01
  -5.627023e+01   3.553571e+01
  -7.122120e+01  -1.744706e+01
  -7.763762e+00  -6.434885e+01
   5.178997e+01  -5.486365e+01
   5.951677e+01   1.625198e+00
   4.190352e+01   4.695447e+01
   4.093734e+01   3.914038e+01
   5.724539e+01   1.787202e+00
   6.186057e+01   3.220054e-01
   3.339789e+01   6.343773e+01
  -3.003071e+01   1.366450e+02
  -1.085153e+02   1.324479e+02
  -1.538286e+02   3.147037e+01
  -1.157614e+02  -8.484575e+01
  -6.470116e+00  -1.180294e+02
   8.045193e+01  -5.800936e+01
   5.626054e+01   1.365486e+01
  -5.516583e+01   1.906949e+01
  -1.287116e+02  -3.986098e+01
  -7.139688e+01  -9.988328e+01
   7.489491e+01  -1.053551e+02
   1.781604e+02  -4.936130e+01
   1.520462e+02   3.088856e+01
   3.519241e+01   8.075402e+01
  -5.657864e+01   6.570578e+01
  -4.570498e+01   6.902624e+00
   3.618150e+01  -2.545149e+01
   8.489316e+01   2.050686e+01
   3.170447e+01   1.107837e+02
  -8.425866e+01   1.449392e+02
  -1.560262e+02   5.957489e+01
  -1.191283e+02  -9.302431e+01
  -1.094943e+01  -1.845646e+02
   7.905361e+01  -1.351959e+02
   9.776098e+01   5.841486e+00
   5.714766e+01   1.099452e+02
  -1.360883e+00   9.934367e+01
  -4.283943e+01   1.890048e+01
  -4.862258e+01  -2.884852e+01
  -2.409061e+01  -7.760663e+00
  -3.586957e+00   1.916107e+01
  -1.947777e+01  -1.428228e+01
  -5.252766e+01  -8.256306e+01
  -3.966377e+01  -1.018464e+02
   4.376882e+01  -4.229716e+01
   1.294389e+02   3.618824e+01
   1.216675e+02   6.565026e+01
   1.662104e+01   4.649239e+01
  -8.200167e+01   2.132058e+01
  -8.251150e+01   7.538769e+00
  -1.026075e+01  -7.027120e+00
   3.584832e+01  -2.109267e+01
   1.318035e+01  -1.686207e+01
  -1.986091e+01   1.645619e+00
   5.370297e+00   8.350052e+00
   6.932031e+01   3.162372e+00
   8.565058e+01   2.194411e+01
   8.453647e+00   7.516221e+01
  -1.101438e+02   1.073148e+02
  -1.732828e+02   5.532318e+01
  -1.328882e+02  -6.244900e+01
  -2.476547e+01  -1.512267e+02
   7.339512e+01  -1.402837e+02
   1.065974e+02  -5.511758e+01
   7.537427e+01   1.980966e+01
   2.334950e+01   3.305072e+01
  -2.709037e+00   8.318947e+00
   9.549677e+00   3.902950e+00
   3.093345e+01   4.256305e+01
   2.138497e+01   8.388814e+01
  -2.703709e+01   6.695553e+01
  -7.578805e+01  -1.692086e+01
  -7.243369e+01  -1.007714e+02
  -4.587775e+00  -1.048344e+02
   7.676126e+01  -2.276175e+01
   9.660085e+01   6.991423e+01
   3.039556e+01   9.662463e+01
  -6.195646e+01   5.232638e+01
  -9.154877e+01  -1.081768e+01
  -3.669710e+01  -4.738064e+01
   3.062630e+01  -4.857798e+01
   2.932884e+01  -2.624658e+01
  -3.167350e+01   7.876998e-01
  -6.466497e+01   6.515286e+00
  -1.402141e+01  -2.347066e+01
   7.367801e+01  -6.179361e+01
   1.076564e+02  -5.479586e+01
   5.963112e+01   1.119522e+01
  -1.448639e+01   7.756320e+01
  -4.938711e+01   7.418467e+01
  -3.480100e+01   5.389731e+00
  -1.722057e+00  -5.213263e+01
   2.394165e+01  -4.019497e+01
   3.414486e+01   1.680425e+01
   2.494222e+01   5.032019e+01
  -2.617490e+00   3.082320e+01
  -3.097083e+01  -7.802578e+00
  -3.702083e+01  -1.966526e+01
  -1.914479e+01  -1.060307e+00
   6.768234e-01   1.337917e+01
   6.140757e+00  -2.511538e+00
   5.681444e+00  -3.418263e+01
   1.503255e+01  -4.222380e+01
   3.016002e+01  -7.723042e+00
   2.878684e+01   4.181162e+01
  -1.354336e+00   5.707006e+01
  -4.153915e+01   1.948686e+01
  -5.303331e+01  -3.643925e+01
  -1.382918e+01  -5.882497e+01
   5.117764e+01  -3.181533e+01
   8.302677e+01   1.419688e+01
   4.589996e+01   4.099388e+01
  -2.686254e+01   3.816806e+01
  -6.050877e+01   2.020760e+01
  -2.273509e+01   4.517555e+00
   3.459716e+01   1.679599e+00
   3.525897e+01   1.425564e+01
  -2.826839e+01   2.917212e+01
  -8.467875e+01   1.883434e+01
