
 $NMID
 id='ANONYMOUS ', fmtdat='(2E16.6)'
 volume=1.0
 tramp=1.0
 $END
   2.718861e+03   1.255213e+01
   1.846671e+03   1.300199e+03
   1.375334e+02   1.707305e+03
  -9.488296e+02   1.171873e+03
  -8.331450e+02   3.349136e+02
  -1.405698e+02  -1.056583e+02
   2.413793e+02   3.966440e+01
   5.772580e+01   4.068399e+02
  -3.364951e+02   4.878889e+02
  -5.272722e+02   1.136779e+02
  -3.859953e+02  -3.927456e+02
  -5.183750e+01  -5.396661e+02
   2.140197e+02  -1.787643e+02
   2.002861e+02   3.216264e+02
  -7.283896e+01   4.520733e+02
  -3.273218e+02   8.932766e+01
  -2.764426e+02  -3.983765e+02
   6.860148e+01  -5.549131e+02
   3.928073e+02  -2.827332e+02
   4.050755e+02   1.203095e+02
   1.416777e+02   3.073731e+02
  -8.606285e+01   2.180703e+02
  -4.015407e+01   7.967698e+01
   1.762453e+02   1.123945e+02
   2.314631e+02   2.720001e+02
  -4.431690e+01   3.159120e+02
  -4.244971e+02   1.123783e+02
  -5.065064e+02  -1.824219e+02
  -1.665421e+02  -2.962658e+02
   2.801266e+02  -1.391352e+02
   4.132533e+02   1.322852e+02
   1.455546e+02   3.067243e+02
  -2.305650e+02   2.888166e+02
  -3.882686e+02   1.062162e+02
  -2.734152e+02  -1.298774e+02
  -7.740611e+01  -2.505263e+02
   2.199107e+00  -1.463599e+02
  -6.753468e+01   6.565008e+01
  -1.662721e+02   1.018679e+02
  -1.482924e+02  -1.471705e+02
   2.004183e+01  -4.156298e+02
   2.129221e+02  -3.546829e+02
   2.501968e+02   3.049077e+00
   8.573541e+01   2.462871e+02
  -1.154572e+02   9.699483e+01
  -1.253539e+02  -2.358766e+02
   1.071086e+02  -3.237659e+02
   3.797279e+02  -4.018122e+01
   4.176849e+02   3.233005e+02
   1.392171e+02   4.261669e+02
  -2.522107e+02   2.275557e+02
  -4.435961e+02  -5.209642e+01
  -2.975085e+02  -2.011486e+02
   2.517540e+01  -1.798069e+02
   2.314172e+02  -7.857231e+01
   1.866104e+02  -2.047717e+00
   2.571757e+01   5.297131e+00
  -2.755178e+01  -2.753494e+01
   7.959578e+01  -3.184889e+01
   1.834873e+02   3.803083e+01
   1.082213e+02   1.535694e+02
  -1.237980e+02   2.175909e+02
  -3.044593e+02   1.364234e+02
  -2.503542e+02  -8.412194e+01
   1.258909e+01  -3.034376e+02
   2.726562e+02  -3.390148e+02
   3.355478e+02  -1.375758e+02
   2.017669e+02   1.506539e+02
   3.797351e+01   3.086736e+02
  -1.914219e+01   2.698545e+02
   8.595304e-02   1.600093e+02
  -2.682749e+01   1.146244e+02
  -1.378077e+02   1.123814e+02
  -2.356223e+02   3.908423e+01
  -2.113237e+02  -1.201915e+02
  -6.850383e+01  -2.298875e+02
   9.139810e+01  -1.613752e+02
   1.655350e+02   4.712209e+01
   1.094585e+02   2.201824e+02
  -5.082798e+01   2.156076e+02
  -2.178084e+02   4.529455e+01
  -2.648249e+02  -1.559709e+02
  -1.456635e+02  -2.564699e+02
   3.806011e+01  -2.273818e+02
   1.361116e+02  -1.414024e+02
   1.274683e+02  -8.484459e+01
   1.395723e+02  -6.976559e+01
   2.573772e+02  -3.112376e+01
   3.706186e+02   9.059116e+01
   2.847590e+02   2.680316e+02
  -2.558393e+01   3.905111e+02
  -3.443597e+02   3.522900e+02
  -4.263021e+02   1.505519e+02
  -2.469265e+02  -9.254286e+01
  -9.230931e+00  -2.172694e+02
   7.867824e+01  -1.640693e+02
  -2.955874e+00  -3.164571e+01
  -1.088534e+02   2.383440e+01
  -1.049440e+02  -4.213753e+01
   2.772780e+00  -1.177545e+02
   9.842745e+01  -7.872571e+01
   8.397385e+01   4.802144e+01
  -2.990146e+01   1.054896e+02
  -1.386577e+02  -7.364628e+00
  -1.325123e+02  -2.069901e+02
   1.503638e+01  -3.030186e+02
   2.168795e+02  -1.900242e+02
   3.261234e+02   5.224921e+01
   2.517440e+02   2.392986e+02
   4.837420e+01   2.497950e+02
  -1.194393e+02   1.222559e+02
  -1.302127e+02   9.270995e-01
  -2.554257e+01  -9.934303e+00
   4.296641e+01   6.050542e+01
  -1.089100e+01   1.009607e+02
  -1.126511e+02   5.246619e+01
  -1.251764e+02  -2.871446e+01
  -2.132654e+01  -4.694518e+01
   7.572962e+01   1.748394e+01
   3.198216e+01   8.899988e+01
  -1.390147e+02   8.068942e+01
  -2.763050e+02  -2.320332e+01
  -2.308779e+02  -1.600409e+02
  -1.798041e+01  -2.392758e+02
   1.926974e+02  -2.046074e+02
   2.385286e+02  -7.880454e+01
   1.154621e+02   4.151148e+01
  -2.974273e+01   6.311178e+01
  -5.216698e+01  -8.816542e+00
   5.351577e+01  -6.800984e+01
   1.642782e+02  -2.289412e+01
   1.619604e+02   9.475222e+01
   4.561933e+01   1.638386e+02
  -7.915848e+01   1.153934e+02
  -1.078394e+02   1.098328e+01
  -3.504663e+01  -3.256101e+01
   4.293361e+01   2.417894e+01
   2.357104e+01   1.058479e+02
  -9.332759e+01   1.089792e+02
  -1.937496e+02   7.838664e+00
  -1.615193e+02  -1.244410e+02
  -5.996703e+00  -1.851354e+02
   1.385255e+02  -1.304993e+02
   1.507746e+02  -9.776556e+00
   4.562973e+01   8.010898e+01
  -5.465762e+01   8.039161e+01
  -5.938455e+01   1.973535e+01
   3.551658e+00  -2.281715e+01
   3.795036e+01  -6.218486e+00
  -6.816223e+00   2.762810e+01
  -8.381093e+01   5.472977e+00
  -9.982195e+01  -8.412002e+01
  -9.901007e+00  -1.631495e+02
   1.327995e+02  -1.392313e+02
   2.166888e+02  -5.003550e+00
   1.704223e+02   1.456377e+02
   3.121317e+01   2.028110e+02
  -8.938031e+01   1.397016e+02
  -1.136062e+02   2.834669e+01
  -6.634139e+01  -3.621834e+01
  -3.142673e+01  -2.385381e+01
  -5.045090e+01   1.376054e+01
  -8.097667e+01   7.058993e+00
  -5.519038e+01  -5.289083e+01
   3.423176e+01  -1.006842e+02
   1.153855e+02  -6.589732e+01
   1.029047e+02   4.137386e+01
  -1.568095e+01   1.227582e+02
  -1.534592e+02   8.366321e+01
  -1.886717e+02  -6.304642e+01
  -7.241910e+01  -1.960281e+02
   1.182009e+02  -1.981991e+02
   2.413865e+02  -6.857622e+01
   2.154290e+02   8.343571e+01
   8.465217e+01   1.499753e+02
  -3.691378e+01   1.208191e+02
  -7.771661e+01   6.997757e+01
  -5.957964e+01   6.228661e+01
  -4.962246e+01   8.554894e+01
  -8.017780e+01   7.318059e+01
  -1.190946e+02  -1.477296e+01
  -1.077329e+02  -1.377141e+02
  -2.315265e+01  -2.023298e+02
   9.061966e+01  -1.477914e+02
   1.514183e+02  -7.347675e+00
   1.106733e+02   1.159678e+02
   5.292552e+00   1.394457e+02
  -7.042013e+01   6.945688e+01
  -5.761627e+01  -1.680339e+01
   5.357775e+00  -5.157774e+01
   2.836907e+01  -3.338956e+01
  -2.193585e+01  -9.274404e+00
  -7.726099e+01  -1.419779e+01
  -4.669484e+01  -3.631350e+01
   6.823834e+01  -3.733026e+01
   1.607598e+02   2.240756e+00
   1.306164e+02   6.028886e+01
  -4.511452e+00   9.123161e+01
  -1.246760e+02   6.651379e+01
  -1.310827e+02   2.730126e+00
  -3.900542e+01  -4.790045e+01
   5.348603e+01  -4.135221e+01
   7.088640e+01   1.564740e+01
   2.075967e+01   6.732657e+01
  -3.817012e+01   6.143794e+01
  -6.308183e+01   4.051427e+00
  -5.612802e+01  -4.502690e+01
  -4.471309e+01  -3.910821e+01
  -4.808023e+01  -1.480641e+00
  -5.804435e+01  -9.164957e-01
  -4.306403e+01  -6.610832e+01
   2.164599e+01  -1.394429e+02
   1.149045e+02  -1.334658e+02
   1.670082e+02  -3.150589e+01
   1.202184e+02   8.560987e+01
   1.377288e+00   1.219702e+02
  -8.474315e+01   6.526101e+01
  -5.666279e+01  -7.975681e+00
   5.174866e+01  -1.893747e+01
   1.189254e+02   3.621137e+01
   6.189896e+01   9.485720e+01
  -7.560004e+01   9.698990e+01
  -1.687259e+02   3.740828e+01
  -1.384887e+02  -3.847731e+01
  -2.550080e+01  -7.583864e+01
   5.860430e+01  -5.226153e+01
   4.365192e+01   3.429444e+00
  -3.615531e+01   2.935027e+01
  -8.391581e+01  -1.581569e+01
  -3.873219e+01  -1.022319e+02
   6.590696e+01  -1.405966e+02
   1.374399e+02  -6.690521e+01
   1.138476e+02   7.773328e+01
   1.796109e+01   1.699715e+02
  -7.131976e+01   1.250296e+02
  -9.290099e+01  -1.102050e+01
  -4.821148e+01  -1.080593e+02
   1.463022e+01  -9.119779e+01
   4.790733e+01  -1.195638e+01
   3.886061e+01   2.913957e+01
   1.248362e+01   6.454073e+00
   5.839199e+00  -1.488918e+01
   3.023890e+01   2.024756e+01
   5.287966e+01   8.048949e+01
   2.635549e+01   9.269233e+01
  -5.233069e+01   3.767875e+01
  -1.206696e+02  -3.166717e+01
  -1.080234e+02  -6.078065e+01
  -1.715812e+01  -4.840444e+01
   6.945355e+01  -2.463555e+01
   7.665422e+01  -5.135917e+00
   1.761712e+01   1.123551e+01
  -2.938541e+01   1.905436e+01
  -1.894365e+01   1.020807e+01
   1.128208e+01  -4.165083e+00
  -1.702359e+00  -4.040044e+00
  -5.715408e+01   2.893765e+00
  -8.379972e+01  -1.755457e+01
  -2.428714e+01  -7.204670e+01
   9.111867e+01  -1.080006e+02
   1.679550e+02  -6.456485e+01
   1.405449e+02   4.727280e+01
   3.306633e+01   1.409804e+02
  -6.998005e+01   1.415696e+02
  -1.040281e+02   6.264028e+01
  -7.228691e+01  -1.525449e+01
  -2.475936e+01  -3.434412e+01
  -4.067257e+00  -1.278619e+01
  -1.369611e+01  -8.560492e+00
  -2.693756e+01  -4.467603e+01
  -1.569622e+01  -8.176290e+01
   2.522659e+01  -6.468812e+01
   6.944912e+01   1.124347e+01
   7.378297e+01   8.752435e+01
   1.738770e+01   9.762697e+01
  -6.393215e+01   3.220279e+01
  -9.609023e+01  -5.300304e+01
  -4.005566e+01  -9.107963e+01
   5.505748e+01  -6.120428e+01
   9.474415e+01   3.610366e+00
   4.403836e+01   5.311023e+01
  -2.982658e+01   5.866070e+01
  -3.799746e+01   2.739963e+01
   2.082095e+01  -7.084586e+00
   6.060546e+01  -9.796419e+00
   1.796439e+01   2.460243e+01
  -6.891152e+01   5.971529e+01
  -1.091238e+02   4.809841e+01
  -6.629935e+01  -1.522695e+01
   9.959945e+00  -7.688883e+01
   5.185750e+01  -7.663452e+01
   4.213873e+01  -1.462561e+01
   8.957190e+00   4.537888e+01
  -1.946970e+01   4.508254e+01
  -3.299606e+01  -6.201182e+00
  -2.713036e+01  -4.746427e+01
  -9.144496e-01  -3.755336e+01
   2.991081e+01   2.831476e+00
   3.883892e+01   2.313724e+01
   1.893079e+01   5.068899e+00
  -4.919547e+00  -1.926831e+01
  -6.454978e+00  -1.070262e+01
   6.851288e+00   2.674744e+01
   4.532717e+00   4.888010e+01
  -2.166376e+01   2.397645e+01
  -3.995484e+01  -2.724089e+01
  -1.688611e+01  -5.235305e+01
   3.411095e+01  -2.519994e+01
   5.835706e+01   2.629913e+01
   2.018387e+01   5.263645e+01
  -5.073853e+01   3.409786e+01
  -8.491503e+01  -7.014766e+00
  -4.694055e+01  -3.741346e+01
   2.447404e+01  -4.277120e+01
   5.789362e+01  -2.852845e+01
   2.708156e+01  -7.579265e+00
  -2.264096e+01   4.866681e+00
  -2.860008e+01  -2.526129e+00
   1.828410e+01  -2.123847e+01
   6.589811e+01  -2.036001e+01
