
 $NMID
 id='ANONYMOUS ', fmtdat='(2E16.6)'
 volume=1.0
 tramp=1.0
 $END
   3.092383e+03   3.990812e+01
   2.003439e+03   1.585110e+03
  -2.966165e+01   1.930575e+03
  -1.179149e+03   1.139604e+03
  -8.631950e+02   1.697708e+02
   2.564960e+00  -1.774934e+02
   3.554077e+02   1.219956e+02
   3.561855e+01   5.345074e+02
  -4.396552e+02   5.457346e+02
  -6.129115e+02   7.253261e+01
  -4.007733e+02  -4.897386e+02
   4.926828e+00  -6.134832e+02
   2.942341e+02  -1.655616e+02
   2.314229e+02   4.055121e+02
  -1.157797e+02   5.154803e+02
  -3.856785e+02   6.990018e+01
  -2.793066e+02  -4.616658e+02
   1.177491e+02  -5.826897e+02
   4.362586e+02  -2.548133e+02
   4.112060e+02   1.650346e+02
   1.218563e+02   3.381797e+02
  -1.171881e+02   2.303736e+02
  -7.053108e+01   6.832727e+01
   1.745853e+02   8.069074e+01
   2.721574e+02   2.566975e+02
  -5.866499e+00   3.506597e+02
  -4.501349e+02   1.671609e+02
  -5.846597e+02  -1.764760e+02
  -2.132561e+02  -3.550394e+02
   3.152889e+02  -2.015389e+02
   4.864638e+02   1.261568e+02
   1.820938e+02   3.512478e+02
  -2.516268e+02   3.372538e+02
  -4.340724e+02   1.228734e+02
  -3.056402e+02  -1.541361e+02
  -7.464485e+01  -2.980223e+02
   3.919262e+01  -1.719451e+02
  -3.073927e+01   9.837442e+01
  -1.775704e+02   1.636219e+02
  -2.072994e+02  -1.349559e+02
  -2.044551e+01  -4.805264e+02
   2.449640e+02  -4.252717e+02
   3.207131e+02   8.244291e+00
   1.135124e+02   3.114970e+02
  -1.540317e+02   1.360842e+02
  -1.733090e+02  -2.636607e+02
   1.078867e+02  -3.741680e+02
   4.246321e+02  -5.502055e+01
   4.607153e+02   3.520150e+02
   1.453628e+02   4.687606e+02
  -2.855603e+02   2.534249e+02
  -4.903672e+02  -6.125581e+01
  -3.175646e+02  -2.414899e+02
   5.185354e+01  -2.160682e+02
   2.759884e+02  -7.340969e+01
   1.992194e+02   3.381943e+01
  -4.871502e-01   2.105428e+01
  -4.685018e+01  -5.262862e+01
   9.980869e+01  -5.880047e+01
   2.178345e+02   4.850603e+01
   1.151248e+02   1.850793e+02
  -1.430198e+02   2.305925e+02
  -3.182392e+02   1.288441e+02
  -2.487329e+02  -8.651452e+01
   1.431797e+01  -2.987772e+02
   2.721905e+02  -3.479913e+02
   3.479440e+02  -1.560047e+02
   2.242404e+02   1.544502e+02
   4.435383e+01   3.417962e+02
  -3.869122e+01   2.973808e+02
  -2.073272e+01   1.550290e+02
  -2.548527e+01   9.610413e+01
  -1.250804e+02   1.129093e+02
  -2.373538e+02   5.699519e+01
  -2.311008e+02  -1.131127e+02
  -8.620503e+01  -2.458835e+02
   9.230776e+01  -1.838610e+02
   1.828136e+02   3.933556e+01
   1.283224e+02   2.323182e+02
  -4.652769e+01   2.372412e+02
  -2.345378e+02   5.864311e+01
  -2.901679e+02  -1.645283e+02
  -1.561331e+02  -2.821802e+02
   5.141931e+01  -2.478738e+02
   1.563672e+02  -1.409594e+02
   1.345360e+02  -7.305731e+01
   1.363448e+02  -6.634512e+01
   2.617790e+02  -3.832945e+01
   3.880357e+02   8.806890e+01
   3.017597e+02   2.802027e+02
  -2.312614e+01   4.123267e+02
  -3.588824e+02   3.737530e+02
  -4.514421e+02   1.631284e+02
  -2.705420e+02  -9.702198e+01
  -1.633455e+01  -2.385365e+02
   9.176700e+01  -1.842901e+02
   1.203939e+01  -3.097975e+01
  -1.138578e+02   3.950951e+01
  -1.252117e+02  -3.851315e+01
  -5.362864e+00  -1.363972e+02
   1.143751e+02  -9.691447e+01
   1.035141e+02   5.336173e+01
  -3.003922e+01   1.247404e+02
  -1.537211e+02  -1.336181e+00
  -1.415473e+02  -2.213636e+02
   1.931232e+01  -3.205077e+02
   2.262110e+02  -1.960676e+02
   3.359949e+02   5.590304e+01
   2.640068e+02   2.470210e+02
   5.783137e+01   2.607114e+02
  -1.227212e+02   1.329256e+02
  -1.431169e+02   3.739106e+00
  -3.196625e+01  -1.480347e+01
   4.945597e+01   5.892624e+01
  -4.398520e+00   1.091220e+02
  -1.190112e+02   6.241423e+01
  -1.389799e+02  -2.763251e+01
  -2.822029e+01  -5.365556e+01
   7.940993e+01   1.199449e+01
   3.738313e+01   8.926727e+01
  -1.405568e+02   8.443714e+01
  -2.860157e+02  -1.998552e+01
  -2.439642e+02  -1.618351e+02
  -2.580172e+01  -2.500343e+02
   1.980106e+02  -2.211128e+02
   2.547931e+02  -8.906010e+01
   1.287737e+02   4.551895e+01
  -3.047856e+01   7.359850e+01
  -6.111603e+01  -6.613978e+00
   5.194337e+01  -7.652030e+01
   1.756389e+02  -2.970384e+01
   1.761646e+02   9.991455e+01
   5.061364e+01   1.772980e+02
  -8.507590e+01   1.264593e+02
  -1.180546e+02   1.400432e+01
  -4.243847e+01  -3.580422e+01
   4.194283e+01   1.971871e+01
   2.717417e+01   1.051134e+02
  -9.219538e+01   1.132981e+02
  -2.006199e+02   1.186508e+01
  -1.718665e+02  -1.284087e+02
  -8.470730e+00  -1.969729e+02
   1.480361e+02  -1.402046e+02
   1.632598e+02  -8.754651e+00
   5.007551e+01   8.920184e+01
  -5.906221e+01   8.838664e+01
  -6.578053e+01   2.194472e+01
  -3.180377e-01  -2.447783e+01
   3.632374e+01  -8.949131e+00
  -7.199883e+00   2.484854e+01
  -8.367966e+01   3.335385e+00
  -1.007151e+02  -8.593882e+01
  -1.127750e+01  -1.671117e+02
   1.356408e+02  -1.458652e+02
   2.264773e+02  -8.749604e+00
   1.811698e+02   1.511762e+02
   3.360722e+01   2.153108e+02
  -9.610123e+01   1.491082e+02
  -1.210841e+02   2.865707e+01
  -6.880217e+01  -4.090689e+01
  -3.165656e+01  -2.670449e+01
  -5.245013e+01   1.384148e+01
  -8.313734e+01   7.193280e+00
  -5.448051e+01  -5.362391e+01
   3.643265e+01  -1.011958e+02
   1.162100e+02  -6.617591e+01
   1.028894e+02   4.115547e+01
  -1.544661e+01   1.241422e+02
  -1.557804e+02   8.680994e+01
  -1.959676e+02  -6.270097e+01
  -7.967452e+01  -2.031710e+02
   1.198942e+02  -2.098301e+02
   2.535898e+02  -7.533726e+01
   2.294955e+02   8.695816e+01
   9.135056e+01   1.597053e+02
  -3.875128e+01   1.292216e+02
  -8.331950e+01   7.438344e+01
  -6.504797e+01   6.512278e+01
  -5.426606e+01   8.876772e+01
  -8.473765e+01   7.532200e+01
  -1.241236e+02  -1.663841e+01
  -1.124498e+02  -1.448496e+02
  -2.467270e+01  -2.126881e+02
   9.511506e+01  -1.564782e+02
   1.604830e+02  -9.610024e+00
   1.185520e+02   1.208469e+02
   7.670622e+00   1.474693e+02
  -7.232158e+01   7.572982e+01
  -6.009264e+01  -1.418252e+01
   3.503693e+00  -5.168177e+01
   2.600460e+01  -3.490652e+01
  -2.497766e+01  -1.140298e+01
  -7.973202e+01  -1.615911e+01
  -4.768392e+01  -3.766890e+01
   6.940619e+01  -3.844323e+01
   1.650342e+02   1.272338e+00
   1.368716e+02   6.061545e+01
  -1.008651e+00   9.377028e+01
  -1.276999e+02   6.992706e+01
  -1.376324e+02   4.532799e+00
  -4.198609e+01  -4.821127e+01
   5.616080e+01  -4.177617e+01
   7.380541e+01   1.676281e+01
   1.905358e+01   6.925196e+01
  -4.233223e+01   6.231347e+01
  -6.486274e+01   3.098625e+00
  -5.556173e+01  -4.701368e+01
  -4.575919e+01  -4.070919e+01
  -5.183173e+01  -1.892430e+00
  -6.118976e+01  -1.020875e+00
  -4.291841e+01  -6.815669e+01
   2.432362e+01  -1.444151e+02
   1.185884e+02  -1.387338e+02
   1.713806e+02  -3.283863e+01
   1.241879e+02   8.907725e+01
   2.320198e+00   1.263525e+02
  -8.733669e+01   6.650707e+01
  -5.877407e+01  -9.488317e+00
   5.457806e+01  -1.958084e+01
   1.255832e+02   3.883130e+01
   6.602486e+01   1.000632e+02
  -7.892918e+01   1.025067e+02
  -1.778502e+02   4.078049e+01
  -1.469443e+02  -3.912779e+01
  -2.819740e+01  -8.018578e+01
   6.102396e+01  -5.697950e+01
   4.608562e+01   1.682248e+00
  -3.760602e+01   2.974426e+01
  -8.742862e+01  -1.753538e+01
  -3.860015e+01  -1.080029e+02
   7.251281e+01  -1.466990e+02
   1.466482e+02  -6.758438e+01
   1.190825e+02   8.421133e+01
   1.672663e+01   1.796742e+02
  -7.619819e+01   1.318610e+02
  -9.777655e+01  -1.073114e+01
  -5.171661e+01  -1.131645e+02
   1.299274e+01  -9.682471e+01
   4.907895e+01  -1.383948e+01
   4.231784e+01   3.057432e+01
   1.521106e+01   7.265215e+00
   5.766201e+00  -1.637562e+01
   2.950253e+01   1.972018e+01
   5.481322e+01   8.428528e+01
   2.966351e+01   9.864304e+01
  -5.299283e+01   4.024487e+01
  -1.271887e+02  -3.424806e+01
  -1.149132e+02  -6.472276e+01
  -1.772824e+01  -5.004269e+01
   7.471410e+01  -2.460248e+01
   8.101482e+01  -5.554611e+00
   1.699508e+01   1.073739e+01
  -3.192947e+01   2.003722e+01
  -1.877711e+01   1.202536e+01
   1.336059e+01  -3.628774e+00
  -2.377489e+00  -5.131981e+00
  -6.173476e+01   1.461059e+00
  -8.748164e+01  -1.930760e+01
  -2.202532e+01  -7.528907e+01
   9.872450e+01  -1.117273e+02
   1.757978e+02  -6.503778e+01
   1.444192e+02   5.221337e+01
   3.235201e+01   1.486383e+02
  -7.372319e+01   1.469620e+02
  -1.087381e+02   6.353441e+01
  -7.573431e+01  -1.695542e+01
  -2.548124e+01  -3.551482e+01
  -3.003072e+00  -1.229361e+01
  -1.355060e+01  -7.933739e+00
  -2.880156e+01  -4.624328e+01
  -1.726729e+01  -8.570306e+01
   2.677415e+01  -6.771143e+01
   7.339115e+01   1.306855e+01
   7.611166e+01   9.378982e+01
   1.529403e+01   1.027780e+02
  -6.888854e+01   3.129423e+01
  -9.966880e+01  -5.863664e+01
  -3.955515e+01  -9.574769e+01
   5.855615e+01  -6.175308e+01
   9.785355e+01   5.235393e+00
   4.447668e+01   5.408489e+01
  -3.106890e+01   5.905373e+01
  -3.789680e+01   2.844685e+01
   2.365037e+01  -5.866636e+00
   6.383011e+01  -9.371133e+00
   1.792616e+01   2.533297e+01
  -7.282090e+01   6.235799e+01
  -1.135692e+02   5.124089e+01
  -6.780654e+01  -1.502153e+01
   1.138802e+01  -8.006645e+01
   5.357995e+01  -7.929167e+01
   4.225767e+01  -1.353913e+01
   7.690835e+00   4.840542e+01
  -2.109814e+01   4.585550e+01
  -3.432092e+01  -8.595284e+00
  -2.768078e+01  -4.996695e+01
  -3.636859e-01  -3.771283e+01
   3.122842e+01   3.986073e+00
   4.013060e+01   2.343605e+01
   1.983812e+01   4.534643e+00
  -4.405361e+00  -1.882737e+01
  -6.951952e+00  -8.580648e+00
   4.483287e+00   2.901124e+01
   9.978099e-01   4.915140e+01
  -2.386446e+01   2.157496e+01
  -3.904829e+01  -3.099548e+01
  -1.384594e+01  -5.502673e+01
   3.686569e+01  -2.490072e+01
   5.944884e+01   2.932068e+01
   1.955273e+01   5.589084e+01
  -5.291577e+01   3.496837e+01
  -8.786836e+01  -8.790053e+00
  -4.852927e+01  -3.970116e+01
   2.590708e+01  -4.354489e+01
   6.063811e+01  -2.793457e+01
   2.729403e+01  -7.355440e+00
  -2.575031e+01   3.480181e+00
  -3.079328e+01  -5.109388e+00
   2.119588e+01  -2.339149e+01
   7.225742e+01  -2.035811e+01
