
 $NMID
 id='ANONYMOUS ', fmtdat='(2E16.6)'
 volume=1.0
 tramp=1.0
 $END
  -3.499759e+03   3.666896e+01
  -2.283645e+03  -1.827089e+03
   9.753121e+01  -2.234654e+03
   1.424593e+03  -1.230690e+03
   9.842668e+02  -5.264791e+01
  -8.432474e+01   2.923203e+02
  -4.836481e+02  -1.495691e+02
  -6.161272e+01  -6.591080e+02
   5.191185e+02  -6.429553e+02
   7.170451e+02  -6.865888e+01
   4.572796e+02   5.809044e+02
  -2.793161e+01   7.136944e+02
  -3.726819e+02   1.885310e+02
  -2.897555e+02  -4.750319e+02
   1.353599e+02  -5.973159e+02
   4.524109e+02  -7.491280e+01
   3.098057e+02   5.294822e+02
  -1.565551e+02   6.429457e+02
  -4.997132e+02   2.542576e+02
  -4.463681e+02  -2.081941e+02
  -1.187598e+02  -3.834608e+02
   1.434602e+02  -2.586344e+02
   1.011576e+02  -7.309796e+01
  -1.668739e+02  -6.332587e+01
  -3.034909e+02  -2.435866e+02
  -3.078827e+01  -3.753394e+02
   4.681113e+02  -2.177766e+02
   6.606539e+02   1.573844e+02
   2.736250e+02   3.977267e+02
  -3.327235e+02   2.646970e+02
  -5.556274e+02  -1.054749e+02
  -2.283099e+02  -3.866192e+02
   2.633540e+02  -3.907949e+02
   4.803350e+02  -1.513174e+02
   3.484955e+02   1.702028e+02
   8.934808e+01   3.470002e+02
  -6.092643e+01   2.111735e+02
  -6.529358e+00  -1.120728e+02
   1.716316e+02  -2.176902e+02
   2.526566e+02   1.115382e+02
   6.928015e+01   5.322598e+02
  -2.574118e+02   5.029790e+02
  -3.874513e+02   9.893542e+00
  -1.590031e+02  -3.630921e+02
   1.757272e+02  -1.829493e+02
   2.225441e+02   2.787141e+02
  -9.873690e+01   4.249078e+02
  -4.695906e+02   7.927966e+01
  -5.164983e+02  -3.771295e+02
  -1.651387e+02  -5.183000e+02
   3.151544e+02  -2.911320e+02
   5.467523e+02   5.957211e+01
   3.567147e+02   2.777082e+02
  -6.295795e+01   2.608368e+02
  -3.228353e+02   8.547607e+01
  -2.294927e+02  -5.983887e+01
   1.430096e+01  -4.357307e+01
   7.183868e+01   6.664783e+01
  -1.092729e+02   8.741723e+01
  -2.551201e+02  -4.817765e+01
  -1.340953e+02  -2.146854e+02
   1.611694e+02  -2.544792e+02
   3.455126e+02  -1.289224e+02
   2.568273e+02   9.578524e+01
  -2.217149e+01   3.073156e+02
  -2.838818e+02   3.640870e+02
  -3.658106e+02   1.755391e+02
  -2.488900e+02  -1.578629e+02
  -5.859089e+01  -3.778569e+02
   4.846328e+01  -3.362627e+02
   4.112349e+01  -1.649556e+02
   3.389215e+01  -8.516433e+01
   1.218449e+02  -1.110433e+02
   2.418017e+02  -6.982100e+01
   2.504511e+02   1.079592e+02
   1.053187e+02   2.617706e+02
  -9.059247e+01   2.067399e+02
  -1.992144e+02  -3.107031e+01
  -1.486510e+02  -2.449624e+02
   4.024725e+01  -2.602136e+02
   2.517998e+02  -7.389253e+01
   3.211730e+02   1.717152e+02
   1.757557e+02   3.104472e+02
  -5.905551e+01   2.770678e+02
  -1.796541e+02   1.515803e+02
  -1.505247e+02   6.789513e+01
  -1.414585e+02   6.320102e+01
  -2.729730e+02   4.313821e+01
  -4.137885e+02  -8.846304e+01
  -3.267413e+02  -2.978942e+02
   1.972594e+01  -4.432375e+02
   3.806864e+02  -4.046189e+02
   4.851247e+02  -1.819714e+02
   2.989061e+02   9.894412e+01
   2.697343e+01   2.611096e+02
  -9.996336e+01   2.101488e+02
  -2.435707e+01   3.722526e+01
   1.165709e+02  -5.299416e+01
   1.432077e+02   3.135747e+01
   1.679409e+01   1.525196e+02
  -1.251082e+02   1.186518e+02
  -1.233356e+02  -5.342082e+01
   2.573642e+01  -1.435153e+02
   1.685577e+02  -6.658324e+00
   1.560808e+02   2.391826e+02
  -2.112220e+01   3.472691e+02
  -2.423784e+02   2.084926e+02
  -3.569303e+02  -6.178698e+01
  -2.827784e+02  -2.613893e+02
  -6.756720e+01  -2.761308e+02
   1.277273e+02  -1.455147e+02
   1.572344e+02  -8.863854e+00
   3.962792e+01   1.700481e+01
  -5.475982e+01  -5.825764e+01
  -1.825300e+00  -1.168777e+02
   1.254396e+02  -7.296598e+01
   1.538208e+02   2.460675e+01
   3.623754e+01   5.849688e+01
  -8.295680e+01  -8.096921e+00
  -4.168348e+01  -9.138944e+01
   1.469078e+02  -8.908465e+01
   3.027901e+02   1.871961e+01
   2.615230e+02   1.679002e+02
   3.317315e+01   2.650924e+02
  -2.064661e+02   2.411603e+02
  -2.741022e+02   1.027193e+02
  -1.445398e+02  -4.701478e+01
   2.925216e+01  -8.409593e+01
   6.920532e+01   2.687215e+00
  -5.062361e+01   8.447599e+01
  -1.887099e+02   3.775795e+01
  -1.940956e+02  -1.047048e+02
  -5.890137e+01  -1.929833e+02
   9.034525e+01  -1.406316e+02
   1.292680e+02  -1.901225e+01
   5.030804e+01   3.738707e+01
  -4.084776e+01  -1.813428e+01
  -2.913540e+01  -1.076429e+02
   9.487823e+01  -1.191532e+02
   2.121225e+02  -1.509281e+01
   1.859019e+02   1.348204e+02
   1.235655e+01   2.125745e+02
  -1.591269e+02   1.543720e+02
  -1.793763e+02   1.077484e+01
  -5.751973e+01  -9.843318e+01
   6.283030e+01  -9.859416e+01
   7.255268e+01  -2.594161e+01
   3.495722e+00   2.518990e+01
  -3.560392e+01   1.019217e+01
   9.175355e+00  -2.378481e+01
   8.767894e+01  -6.367668e-01
   1.047477e+02   9.170282e+01
   1.187758e+01   1.761562e+02
  -1.425399e+02   1.556002e+02
  -2.412140e+02   1.239357e+01
  -1.961382e+02  -1.596162e+02
  -3.839760e+01  -2.325011e+02
   1.033483e+02  -1.630711e+02
   1.316183e+02  -3.112821e+01
   7.449981e+01   4.601554e+01
   3.375899e+01   3.021969e+01
   5.613111e+01  -1.445478e+01
   8.801024e+01  -7.215551e+00
   5.557730e+01   5.728576e+01
  -4.071925e+01   1.058109e+02
  -1.221488e+02   6.760766e+01
  -1.061888e+02  -4.404912e+01
   1.710268e+01  -1.296631e+02
   1.635625e+02  -9.118291e+01
   2.079523e+02   6.486708e+01
   8.799443e+01   2.147064e+02
  -1.243334e+02   2.255425e+02
  -2.709671e+02   8.433483e+01
  -2.489448e+02  -9.083595e+01
  -1.013097e+02  -1.718635e+02
   4.024766e+01  -1.406209e+02
   9.008624e+01  -8.149124e+01
   7.147500e+01  -7.091229e+01
   5.985206e+01  -9.559473e+01
   9.165922e+01  -8.036335e+01
   1.331397e+02   1.851390e+01
   1.209721e+02   1.555571e+02
   2.768842e+01   2.283897e+02
  -1.010466e+02   1.693563e+02
  -1.727073e+02   1.284330e+01
  -1.291438e+02  -1.278289e+02
  -1.070285e+01  -1.583441e+02
   7.521623e+01  -8.302459e+01
   6.305883e+01   1.268907e+01
  -2.952735e+00   5.300102e+01
  -2.516738e+01   3.611507e+01
   2.885634e+01   1.262299e+01
   8.517158e+01   1.843258e+01
   5.024569e+01   4.043324e+01
  -7.307966e+01   4.021836e+01
  -1.742082e+02  -1.312690e+00
  -1.460829e+02  -6.275949e+01
  -1.196524e+00  -9.793559e+01
   1.345782e+02  -7.451169e+01
   1.472047e+02  -6.593371e+00
   4.526211e+01   4.976609e+01
  -6.075343e+01   4.392951e+01
  -7.901832e+01  -1.817536e+01
  -1.827208e+01  -7.428245e+01
   4.761629e+01  -6.635973e+01
   6.910270e+01  -2.268084e+00
   5.737867e+01   5.131356e+01
   4.833945e+01   4.372480e+01
   5.675741e+01   1.577586e+00
   6.592140e+01   8.072551e-01
   4.428321e+01   7.298018e+01
  -2.741008e+01   1.543738e+02
  -1.258747e+02   1.477396e+02
  -1.812180e+02   3.433549e+01
  -1.320011e+02  -9.535002e+01
  -2.989499e+00  -1.341721e+02
   9.311163e+01  -6.975518e+01
   6.305930e+01   1.100985e+01
  -5.882618e+01   2.112073e+01
  -1.358404e+02  -4.152628e+01
  -7.221246e+01  -1.071701e+02
   8.380964e+01  -1.107244e+02
   1.908094e+02  -4.582117e+01
   1.586105e+02   3.998652e+01
   3.181354e+01   8.589316e+01
  -6.419410e+01   6.274991e+01
  -4.898875e+01  -1.732924e-01
   4.041118e+01  -3.120684e+01
   9.382940e+01   1.939442e+01
   4.066153e+01   1.170707e+02
  -7.998727e+01   1.584005e+02
  -1.598700e+02   7.213173e+01
  -1.288563e+02  -9.198182e+01
  -1.760372e+01  -1.945486e+02
   8.204135e+01  -1.428210e+02
   1.049224e+02   1.045951e+01
   5.666487e+01   1.207365e+02
  -1.150550e+01   1.039471e+02
  -5.132696e+01   1.552627e+01
  -4.663975e+01  -3.210679e+01
  -1.803487e+01  -7.326125e+00
  -5.600622e+00   1.800528e+01
  -2.961448e+01  -2.078915e+01
  -5.862228e+01  -9.040910e+01
  -3.414063e+01  -1.060451e+02
   5.512724e+01  -4.321114e+01
   1.374549e+02   3.681243e+01
   1.250673e+02   6.916288e+01
   1.875242e+01   5.323068e+01
  -8.187887e+01   2.647398e+01
  -8.731116e+01   6.593595e+00
  -1.684712e+01  -1.125988e+01
   3.496675e+01  -2.205989e+01
   1.885716e+01  -1.351287e+01
  -1.567973e+01   3.972513e+00
   3.315130e+00   5.919428e+00
   6.809695e+01  -1.321329e+00
   9.399788e+01   2.119627e+01
   2.136139e+01   8.178694e+01
  -1.083658e+02   1.203181e+02
  -1.891728e+02   6.839941e+01
  -1.540277e+02  -5.848052e+01
  -3.388125e+01  -1.608146e+02
   7.938837e+01  -1.570373e+02
   1.170073e+02  -6.690864e+01
   8.163539e+01   1.863714e+01
   2.694597e+01   3.784537e+01
   1.965175e+00   1.285044e+01
   1.361483e+01   8.021682e+00
   3.124355e+01   4.889555e+01
   1.938995e+01   9.159477e+01
  -2.876916e+01   7.278904e+01
  -7.967216e+01  -1.447068e+01
  -8.184448e+01  -1.022705e+02
  -1.483244e+01  -1.115994e+02
   7.603026e+01  -3.273963e+01
   1.075003e+02   6.514584e+01
   4.113278e+01   1.036749e+02
  -6.409028e+01   6.505162e+01
  -1.044955e+02  -6.850046e+00
  -4.612670e+01  -5.736493e+01
   3.388231e+01  -6.166201e+01
   3.929139e+01  -2.975010e+01
  -2.721760e+01   5.929841e+00
  -6.899248e+01   9.740455e+00
  -1.850983e+01  -2.712481e+01
   7.842281e+01  -6.719232e+01
   1.207973e+02  -5.564371e+01
   7.125826e+01   1.583675e+01
  -1.281571e+01   8.590923e+01
  -5.704520e+01   8.423096e+01
  -4.458592e+01   1.270003e+01
  -7.512564e+00  -5.312070e+01
   2.348144e+01  -4.852483e+01
   3.742410e+01   1.069112e+01
   2.940556e+01   5.394397e+01
  -5.062199e-01   3.950453e+01
  -3.379970e+01  -4.940207e+00
  -4.242477e+01  -2.464141e+01
  -2.101238e+01  -4.247985e+00
   3.757980e+00   1.948553e+01
   6.660248e+00   7.242485e+00
  -3.345608e+00  -3.278344e+01
   2.187912e+00  -5.261470e+01
   2.764589e+01  -2.112208e+01
   4.087443e+01   3.588710e+01
   1.235722e+01   6.049863e+01
  -4.080812e+01   2.616760e+01
  -6.329519e+01  -3.312989e+01
  -2.028643e+01  -6.099126e+01
   5.674598e+01  -3.704725e+01
   9.401501e+01   1.057181e+01
   5.189641e+01   4.302135e+01
  -2.829785e+01   4.598275e+01
  -6.564727e+01   2.875840e+01
  -2.869696e+01   7.167101e+00
   2.963743e+01  -3.402584e+00
   3.452781e+01   6.830293e+00
  -2.369350e+01   2.670699e+01
  -8.007281e+01   2.254224e+01
