
 $NMID
 id='ANONYMOUS ', fmtdat='(2E16.6)'
 volume=1.0
 tramp=1.0
 $END
  -1.892048e+03   7.859713e+01
  -1.388264e+03  -8.224005e+02
  -2.294580e+02  -1.229441e+03
   6.229670e+02  -9.554927e+02
   6.588330e+02  -3.371628e+02
   1.921228e+02   7.992324e+01
  -1.475921e+02   3.516711e+01
  -8.257190e+01  -2.530476e+02
   1.946557e+02  -3.654430e+02
   3.695240e+02  -1.238234e+02
   3.070677e+02   2.499956e+02
   8.153218e+01   3.880127e+02
  -1.278914e+02   1.600035e+02
  -1.553513e+02  -1.975686e+02
   2.188333e+01  -3.226512e+02
   2.255448e+02  -8.939219e+01
   2.216375e+02   2.727948e+02
  -2.451906e+01   4.194256e+02
  -2.853768e+02   2.366167e+02
  -3.147356e+02  -7.031432e+01
  -1.229808e+02  -2.239991e+02
   4.852326e+01  -1.666537e+02
   1.890937e+01  -7.294479e+01
  -1.267326e+02  -1.018795e+02
  -1.513819e+02  -2.055534e+02
   4.551566e+01  -2.140383e+02
   2.978237e+02  -6.301740e+01
   3.449134e+02   1.254835e+02
   1.164339e+02   1.865846e+02
  -1.818868e+02   8.258579e+01
  -2.766382e+02  -8.820410e+01
  -1.019964e+02  -2.036858e+02
   1.550050e+02  -1.999559e+02
   2.695048e+02  -8.160676e+01
   1.972870e+02   8.070166e+01
   7.011566e+01   1.684642e+02
   2.147234e+01   1.075434e+02
   6.166136e+01  -2.515810e+01
   1.068616e+02  -4.951624e+01
   8.068028e+01   1.045390e+02
  -2.144373e+01   2.749090e+02
  -1.314195e+02   2.419855e+02
  -1.573181e+02   1.556838e+01
  -6.590948e+01  -1.495799e+02
   6.041200e+01  -6.337379e+01
   7.755155e+01   1.551499e+02
  -7.068430e+01   2.213782e+02
  -2.635670e+02   3.214169e+01
  -3.018298e+02  -2.236459e+02
  -1.108121e+02  -3.024662e+02
   1.705412e+02  -1.670689e+02
   3.163926e+02   2.626455e+01
   2.248959e+02   1.300708e+02
   1.396188e+00   1.252823e+02
  -1.559245e+02   7.156143e+01
  -1.441304e+02   2.092171e+01
  -3.583741e+01  -2.704931e+00
   1.739660e+01   4.428990e+00
  -4.455684e+01   1.558483e+01
  -1.251368e+02  -1.664323e+01
  -8.557234e+01  -1.003790e+02
   8.276073e+01  -1.629821e+02
   2.270901e+02  -1.091078e+02
   1.911539e+02   6.431093e+01
  -1.124598e+01   2.331268e+02
  -2.068528e+02   2.518539e+02
  -2.452761e+02   9.698305e+01
  -1.426499e+02  -1.082983e+02
  -3.210665e+01  -2.172353e+02
  -7.332138e-02  -1.962583e+02
  -8.176962e+00  -1.288528e+02
   2.591271e+01  -9.556696e+01
   1.112323e+02  -8.149400e+01
   1.741568e+02  -2.036855e+01
   1.487996e+02   9.107165e+01
   4.619628e+01   1.631146e+02
  -6.447789e+01   1.115565e+02
  -1.153915e+02  -3.627085e+01
  -7.589047e+01  -1.575198e+02
   3.661891e+01  -1.521367e+02
   1.544973e+02  -3.088886e+01
   1.902682e+02   1.096658e+02
   1.104577e+02   1.806891e+02
  -1.873392e+01   1.658372e+02
  -9.441727e+01   1.117606e+02
  -9.660231e+01   7.120125e+01
  -1.087235e+02   5.324084e+01
  -1.918742e+02   2.000309e+01
  -2.721678e+02  -6.768753e+01
  -2.097558e+02  -1.951138e+02
   1.732825e+01  -2.854814e+02
   2.512392e+02  -2.591069e+02
   3.095210e+02  -1.122277e+02
   1.768418e+02   6.376324e+01
   7.566092e+00   1.531988e+02
  -4.949086e+01   1.176130e+02
   9.165470e+00   2.789732e+01
   7.672159e+01  -1.122147e+01
   6.891816e+01   2.949338e+01
  -2.201085e+00   7.855904e+01
  -6.319537e+01   5.433143e+01
  -5.541349e+01  -2.971734e+01
   1.862589e+01  -7.076297e+01
   9.663759e+01   5.612576e+00
   9.872768e+01   1.488341e+02
  -6.676799e+00   2.227240e+02
  -1.597480e+02   1.426333e+02
  -2.436274e+02  -3.714503e+01
  -1.860456e+02  -1.763849e+02
  -3.358906e+01  -1.825273e+02
   8.722981e+01  -8.795412e+01
   9.205557e+01  -1.769271e+00
   1.740757e+01   3.813371e+00
  -2.886305e+01  -4.540714e+01
   9.959024e+00  -7.119730e+01
   8.043218e+01  -3.603385e+01
   8.806350e+01   1.968257e+01
   1.423698e+01   3.091502e+01
  -5.439156e+01  -1.541851e+01
  -2.134237e+01  -6.637012e+01
   1.043705e+02  -5.920898e+01
   2.043785e+02   1.819267e+01
   1.687753e+02   1.187345e+02
   1.129784e+01   1.748532e+02
  -1.409241e+02   1.478426e+02
  -1.713463e+02   5.763183e+01
  -8.205489e+01  -2.702309e+01
   2.007609e+01  -4.293009e+01
   3.476384e+01   5.902906e+00
  -3.973637e+01   4.695033e+01
  -1.178447e+02   1.601080e+01
  -1.169735e+02  -6.692415e+01
  -3.464544e+01  -1.170321e+02
   5.523182e+01  -8.335667e+01
   7.635110e+01  -8.782179e+00
   2.367420e+01   2.160441e+01
  -3.193566e+01  -2.095213e+01
  -1.550415e+01  -8.003566e+01
   7.094678e+01  -8.001282e+01
   1.429817e+02  -4.721348e+00
   1.180772e+02   9.095881e+01
   5.276177e+00   1.343998e+02
  -9.899454e+01   9.605434e+01
  -1.088207e+02   1.014502e+01
  -3.428454e+01  -5.565160e+01
   3.790332e+01  -5.800333e+01
   4.160938e+01  -1.515282e+01
  -4.279617e+00   1.561010e+01
  -2.900429e+01   2.849432e+00
   5.775556e+00  -2.238752e+01
   6.426544e+01  -4.764739e+00
   7.544195e+01   6.329100e+01
   7.025440e+00   1.217662e+02
  -9.861919e+01   1.026294e+02
  -1.590562e+02   3.280125e+00
  -1.249178e+02  -1.062539e+02
  -2.454546e+01  -1.476465e+02
   6.311400e+01  -1.027649e+02
   8.276872e+01  -2.261026e+01
   5.014796e+01   2.499075e+01
   2.432304e+01   1.684258e+01
   3.741199e+01  -1.064863e+01
   6.048206e+01  -5.426471e+00
   4.219702e+01   4.025527e+01
  -2.529824e+01   7.660402e+01
  -8.750919e+01   4.958426e+01
  -7.794358e+01  -3.202402e+01
   1.227616e+01  -9.246954e+01
   1.151243e+02  -6.187309e+01
   1.394509e+02   4.723606e+01
   5.228361e+01   1.441257e+02
  -8.718405e+01   1.448212e+02
  -1.762466e+02   5.057774e+01
  -1.573303e+02  -5.939915e+01
  -6.266886e+01  -1.080790e+02
   2.575289e+01  -8.800199e+01
   5.563871e+01  -5.199383e+01
   4.225657e+01  -4.696021e+01
   3.510807e+01  -6.430229e+01
   5.855764e+01  -5.526187e+01
   8.842728e+01   9.701914e+00
   8.060724e+01   1.005867e+02
   1.834217e+01   1.484799e+02
  -6.533460e+01   1.087295e+02
  -1.101752e+02   5.911500e+00
  -8.089007e+01  -8.442377e+01
  -4.106022e+00  -1.015440e+02
   5.143777e+01  -4.986400e+01
   4.188666e+01   1.371730e+01
  -5.180789e+00   3.867541e+01
  -2.249254e+01   2.394884e+01
   1.565643e+01   5.409328e+00
   5.790200e+01   9.623383e+00
   3.514777e+01   2.692235e+01
  -5.119448e+01   2.777993e+01
  -1.198391e+02  -1.918113e+00
  -9.601585e+01  -4.478978e+01
   4.946210e+00  -6.724618e+01
   9.277508e+01  -4.901522e+01
   9.602345e+01  -2.129593e+00
   2.804685e+01   3.572520e+01
  -3.944109e+01   3.159032e+01
  -5.263777e+01  -1.099724e+01
  -1.673077e+01  -5.072099e+01
   2.707640e+01  -4.705360e+01
   4.731064e+01  -3.659839e+00
   4.317131e+01   3.364739e+01
   3.365925e+01   2.890464e+01
   3.481102e+01   2.709518e-01
   4.260367e+01   1.793657e-01
   3.295914e+01   4.947429e+01
  -1.464096e+01   1.040726e+02
  -8.491127e+01   9.918870e+01
  -1.246115e+02   2.353893e+01
  -8.983590e+01  -6.300198e+01
  -1.049879e+00  -9.033989e+01
   6.314655e+01  -4.919342e+01
   4.234978e+01   5.100368e+00
  -3.789021e+01   1.449961e+01
  -8.759074e+01  -2.524299e+01
  -4.581763e+01  -6.888027e+01
   5.499173e+01  -7.145720e+01
   1.231760e+02  -2.814812e+01
   1.011149e+02   2.758290e+01
   1.874039e+01   5.500995e+01
  -4.249564e+01   3.772605e+01
  -3.156559e+01  -3.080286e+00
   2.681476e+01  -2.228016e+01
   6.239177e+01   1.075558e+01
   3.036627e+01   7.510205e+01
  -4.611554e+01   1.051195e+02
  -1.001365e+02   5.202181e+01
  -8.512968e+01  -5.524049e+01
  -1.572253e+01  -1.248341e+02
   5.081607e+01  -9.251050e+01
   6.811250e+01   7.802526e+00
   3.563228e+01   7.904063e+01
  -1.101012e+01   6.612318e+01
  -3.544674e+01   8.227334e+00
  -2.805890e+01  -2.081773e+01
  -8.330554e+00  -3.930848e+00
  -4.192227e+00   1.055136e+01
  -2.310998e+01  -1.595143e+01
  -3.975769e+01  -5.911631e+01
  -1.939269e+01  -6.690236e+01
   3.901288e+01  -2.730037e+01
   8.899484e+01   2.185009e+01
   7.939157e+01   4.316684e+01
   1.291908e+01   3.593218e+01
  -5.035559e+01   1.964238e+01
  -5.606249e+01   4.365060e+00
  -1.351464e+01  -9.004563e+00
   2.095820e+01  -1.446256e+01
   1.409373e+01  -6.752232e+00
  -7.715520e+00   3.857873e+00
   1.205512e+00   2.392823e+00
   4.156547e+01  -3.696486e+00
   6.222178e+01   1.202039e+01
   1.996553e+01   5.381957e+01
  -6.519331e+01   8.161619e+01
  -1.240155e+02   4.987969e+01
  -1.058500e+02  -3.328344e+01
  -2.660376e+01  -1.037420e+02
   5.076042e+01  -1.055097e+02
   7.684894e+01  -4.777843e+01
   5.358652e+01   1.029918e+01
   1.857703e+01   2.547515e+01
   3.427280e+00   1.022037e+01
   1.028844e+01   6.903997e+00
   1.972639e+01   3.287580e+01
   1.171040e+01   5.992525e+01
  -1.801328e+01   4.793502e+01
  -5.124016e+01  -7.062625e+00
  -5.599530e+01  -6.327628e+01
  -1.497101e+01  -7.226272e+01
   4.654822e+01  -2.576777e+01
   7.235420e+01   3.716439e+01
   3.134259e+01   6.725322e+01
  -4.030168e+01   4.679871e+01
  -7.084779e+01  -1.673663e+00
  -3.322686e+01  -3.998383e+01
   2.224437e+01  -4.452973e+01
   2.879925e+01  -2.011067e+01
  -1.477453e+01   6.535956e+00
  -4.463675e+01   8.120917e+00
  -1.372307e+01  -1.843265e+01
   5.013083e+01  -4.469024e+01
   8.025190e+01  -3.556121e+01
   4.952487e+01   1.162408e+01
  -6.493001e+00   5.717351e+01
  -3.830356e+01   5.710401e+01
  -3.228083e+01   1.146581e+01
  -7.913288e+00  -3.335741e+01
   1.403704e+01  -3.416989e+01
   2.496323e+01   3.401362e+00
   2.071224e+01   3.485274e+01
   8.217306e-01   2.858766e+01
  -2.234754e+01  -1.425664e+00
  -2.884716e+01  -1.731301e+01
  -1.379628e+01  -3.984078e+00
   3.791607e+00   1.499513e+01
   4.116484e+00   9.067093e+00
  -6.752250e+00  -1.981850e+01
  -4.981580e+00  -3.785663e+01
   1.607464e+01  -1.978809e+01
   3.154601e+01   1.928708e+01
   1.467632e+01   3.927950e+01
  -2.477663e+01   1.977662e+01
  -4.439658e+01  -1.854179e+01
  -1.615616e+01  -3.866497e+01
   3.745461e+01  -2.575982e+01
   6.347471e+01   4.178369e+00
   3.525926e+01   2.716928e+01
  -1.792220e+01   3.234423e+01
  -4.293504e+01   2.233365e+01
  -2.056069e+01   5.789233e+00
   1.605159e+01  -4.989311e+00
   2.126668e+01   2.937208e-01
  -1.208244e+01   1.569646e+01
  -4.709769e+01   1.665363e+01
