
 $NMID
 id='ANONYMOUS ', fmtdat='(2E16.6)'
 volume=1.0
 tramp=1.0
 $END
   2.078171e+03  -1.064828e+02
   1.592713e+03   7.890994e+02
   4.238716e+02   1.323321e+03
  -5.529620e+02   1.206416e+03
  -7.567233e+02   5.829191e+02
  -3.479390e+02   5.010971e-01
   7.115784e+01  -9.107093e+01
   1.020543e+02   2.061868e+02
  -1.607124e+02   3.978382e+02
  -3.824123e+02   1.848789e+02
  -3.632541e+02  -2.278352e+02
  -1.478290e+02  -4.135340e+02
   8.604214e+01  -1.993423e+02
   1.585327e+02   1.822067e+02
   5.255840e+00   3.467603e+02
  -2.291960e+02   1.241619e+02
  -2.739290e+02  -2.851632e+02
  -1.949926e+01  -4.975474e+02
   3.095206e+02  -3.237374e+02
   3.857080e+02   4.109032e+01
   1.736584e+02   2.486662e+02
  -3.208525e+01   1.953665e+02
   6.851624e+00   9.524564e+01
   1.736633e+02   1.500011e+02
   1.698915e+02   2.770547e+02
  -8.953863e+01   2.535165e+02
  -3.669212e+02   3.995987e+01
  -3.786545e+02  -1.692636e+02
  -1.019400e+02  -1.944171e+02
   2.131760e+02  -5.156272e+01
   2.948081e+02   1.236685e+02
   9.620478e+01   2.260134e+02
  -1.827989e+02   2.142331e+02
  -3.043523e+02   8.913981e+01
  -2.205940e+02  -8.217036e+01
  -8.629026e+01  -1.706612e+02
  -5.593845e+01  -1.052660e+02
  -1.155817e+02   1.607551e+01
  -1.390392e+02   1.301195e+01
  -6.038002e+01  -1.537030e+02
   6.561912e+01  -3.051943e+02
   1.475079e+02  -2.455366e+02
   1.390060e+02  -1.317520e+01
   5.060303e+01   1.395949e+02
  -5.152540e+01   4.093835e+01
  -5.789735e+01  -1.821156e+02
   9.239821e+01  -2.413350e+02
   2.990836e+02  -2.794732e+01
   3.486687e+02   2.581125e+02
   1.369432e+02   3.450895e+02
  -1.881317e+02   1.889130e+02
  -3.609728e+02  -2.453350e+01
  -2.637274e+02  -1.273620e+02
  -2.005833e+01  -1.221786e+02
   1.565582e+02  -9.032739e+01
   1.626861e+02  -5.888848e+01
   6.344065e+01  -1.739350e+01
  -1.433221e-01   1.121456e+01
   4.560776e+01   5.736995e+00
   1.282133e+02   1.578204e+01
   9.904668e+01   9.936873e+01
  -8.565766e+01   1.943642e+02
  -2.702131e+02   1.501672e+02
  -2.455368e+02  -7.158584e+01
   2.500947e+00  -2.993157e+02
   2.547618e+02  -3.199786e+02
   3.011776e+02  -1.142845e+02
   1.654824e+02   1.339060e+02
   3.594288e+01   2.480960e+02
   1.738068e+01   2.211430e+02
   3.391164e+01   1.620568e+02
  -2.570236e+01   1.378111e+02
  -1.484279e+02   1.102979e+02
  -2.227921e+02   1.740299e+01
  -1.774642e+02  -1.202000e+02
  -4.641985e+01  -1.959003e+02
   8.199785e+01  -1.250409e+02
   1.352117e+02   5.205390e+01
   8.379857e+01   1.911227e+02
  -4.920916e+01   1.773348e+02
  -1.839220e+02   3.011447e+01
  -2.223479e+02  -1.305078e+02
  -1.321935e+02  -2.058320e+02
   1.108287e+01  -1.906652e+02
   9.833758e+01  -1.408142e+02
   1.108974e+02  -1.021015e+02
   1.375283e+02  -7.537154e+01
   2.404535e+02  -2.587033e+01
   3.337333e+02   8.135437e+01
   2.564553e+02   2.330064e+02
  -1.802358e+01   3.449562e+02
  -3.013147e+02   3.169370e+02
  -3.700049e+02   1.379051e+02
  -2.059438e+02  -7.583205e+01
  -4.589102e+00  -1.779215e+02
   5.211848e+01  -1.310567e+02
  -2.531161e+01  -3.191500e+01
  -9.642428e+01   3.033382e+00
  -7.256607e+01  -4.256850e+01
   1.095098e+01  -8.614684e+01
   6.911686e+01  -5.239795e+01
   5.389542e+01   3.577388e+01
  -2.535804e+01   7.440851e+01
  -1.116495e+02  -1.194792e+01
  -1.200062e+02  -1.749817e+02
   3.679165e-01  -2.669671e+02
   1.905392e+02  -1.797761e+02
   3.011254e+02   3.682703e+01
   2.306765e+02   2.127501e+02
   3.927491e+01   2.232155e+02
  -1.069336e+02   1.052536e+02
  -1.065644e+02   4.159457e-01
  -1.570415e+01  -1.662468e+00
   3.336600e+01   5.928367e+01
  -1.717335e+01   8.541853e+01
  -9.763837e+01   3.904429e+01
  -1.011868e+02  -2.570863e+01
  -1.191914e+01  -3.471826e+01
   6.781051e+01   2.283807e+01
   2.511783e+01   8.435021e+01
  -1.295557e+02   7.566404e+01
  -2.524371e+02  -2.001701e+01
  -2.072703e+02  -1.454903e+02
  -1.211919e+01  -2.141044e+02
   1.723435e+02  -1.779313e+02
   2.038566e+02  -6.734574e+01
   9.303823e+01   3.090775e+01
  -2.567617e+01   4.631861e+01
  -3.739770e+01  -1.010218e+01
   5.186794e+01  -5.438562e+01
   1.409313e+02  -1.653780e+01
   1.378412e+02   7.935352e+01
   4.111793e+01   1.369873e+02
  -6.447607e+01   9.719998e+01
  -8.866751e+01   9.161226e+00
  -2.393717e+01  -2.554355e+01
   4.319665e+01   2.875172e+01
   1.999153e+01   1.022936e+02
  -8.873628e+01   1.008833e+02
  -1.762813e+02   6.617096e+00
  -1.436749e+02  -1.098249e+02
  -7.067457e+00  -1.608891e+02
   1.161239e+02  -1.152748e+02
   1.268994e+02  -1.497176e+01
   3.975274e+01   6.270683e+01
  -4.402772e+01   6.730129e+01
  -4.736166e+01   1.746224e+01
   8.419096e+00  -1.950939e+01
   3.865259e+01  -2.883083e+00
  -5.445797e+00   3.081018e+01
  -8.084302e+01   1.037563e+01
  -9.691626e+01  -7.593849e+01
  -1.160204e+01  -1.510761e+02
   1.201770e+02  -1.277530e+02
   1.942202e+02  -4.950698e+00
   1.522344e+02   1.277320e+02
   3.191431e+01   1.763476e+02
  -7.263176e+01   1.232871e+02
  -9.786933e+01   2.984796e+01
  -6.135880e+01  -2.639953e+01
  -3.060641e+01  -1.807618e+01
  -4.535149e+01   1.441801e+01
  -7.467145e+01   8.626339e+00
  -5.547142e+01  -4.856980e+01
   2.733787e+01  -9.711529e+01
   1.083236e+02  -6.585340e+01
   1.001003e+02   3.768708e+01
  -1.244123e+01   1.165731e+02
  -1.422868e+02   7.977386e+01
  -1.726112e+02  -5.641439e+01
  -6.419070e+01  -1.764116e+02
   1.061842e+02  -1.769028e+02
   2.128671e+02  -6.248058e+01
   1.891970e+02   6.955361e+01
   7.576636e+01   1.280423e+02
  -2.967548e+01   1.051209e+02
  -6.487717e+01   6.307158e+01
  -4.784909e+01   5.749972e+01
  -3.888329e+01   7.907663e+01
  -6.876443e+01   6.945837e+01
  -1.078181e+02  -8.478956e+00
  -1.004742e+02  -1.195130e+02
  -2.532916e+01  -1.792128e+02
   7.688221e+01  -1.320686e+02
   1.324143e+02  -7.764210e+00
   9.811937e+01   1.016562e+02
   5.292005e+00   1.224391e+02
  -6.315908e+01   5.955422e+01
  -5.220120e+01  -1.850480e+01
   6.603675e+00  -4.957726e+01
   2.988730e+01  -3.054934e+01
  -1.701580e+01  -5.208486e+00
  -7.123065e+01  -8.884142e+00
  -4.445328e+01  -3.184673e+01
   6.308107e+01  -3.601586e+01
   1.486290e+02  -4.554217e-01
   1.181731e+02   5.421723e+01
  -7.136728e+00   8.415361e+01
  -1.139537e+02   6.220799e+01
  -1.166044e+02   3.403665e+00
  -3.440280e+01  -4.463008e+01
   4.662016e+01  -4.058803e+01
   6.444696e+01   1.164257e+01
   2.414999e+01   6.160618e+01
  -2.921749e+01   5.896183e+01
  -5.810175e+01   6.861899e+00
  -5.602318e+01  -3.915269e+01
  -4.253840e+01  -3.422754e+01
  -4.091341e+01   4.624949e-01
  -5.136194e+01   7.774190e-01
  -4.334203e+01  -5.966226e+01
   1.343388e+01  -1.276897e+02
   1.019122e+02  -1.237815e+02
   1.536802e+02  -3.257763e+01
   1.121951e+02   7.438207e+01
   3.048862e+00   1.110339e+02
  -7.623292e+01   6.316745e+01
  -5.175104e+01  -4.050493e+00
   4.525331e+01  -1.864962e+01
   1.058372e+02   2.797447e+01
   5.609505e+01   8.216214e+01
  -6.544466e+01   8.733949e+01
  -1.482319e+02   3.552071e+01
  -1.220533e+02  -3.247495e+01
  -2.262840e+01  -6.601894e+01
   5.149973e+01  -4.498436e+01
   3.852674e+01   4.697155e+00
  -3.199453e+01   2.861326e+01
  -7.615935e+01  -1.059441e+01
  -4.015438e+01  -8.915678e+01
   5.029386e+01  -1.283691e+02
   1.173733e+02  -6.707922e+01
   1.041473e+02   6.254130e+01
   2.352050e+01   1.492285e+02
  -5.835655e+01   1.123891e+02
  -8.264840e+01  -8.622632e+00
  -4.412753e+01  -9.537248e+01
   1.406566e+01  -7.995697e+01
   4.407893e+01  -9.977868e+00
   3.316330e+01   2.492160e+01
   8.253444e+00   4.640193e+00
   5.316849e+00  -1.232116e+01
   3.065274e+01   1.956245e+01
   5.019026e+01   7.066686e+01
   2.302867e+01   7.988172e+01
  -4.843408e+01   3.384521e+01
  -1.076073e+02  -2.361834e+01
  -9.564106e+01  -4.997093e+01
  -1.691853e+01  -4.380449e+01
   5.866723e+01  -2.563076e+01
   6.735701e+01  -6.338900e+00
   1.811750e+01   1.114077e+01
  -2.411680e+01   1.772279e+01
  -1.817172e+01   7.645311e+00
   7.771738e+00  -5.134772e+00
  -7.978521e-01  -2.242525e+00
  -4.838180e+01   6.402434e+00
  -7.584547e+01  -1.221719e+01
  -2.851352e+01  -6.417861e+01
   7.399204e+01  -1.010652e+02
   1.488005e+02  -6.580733e+01
   1.310399e+02   3.484575e+01
   3.654159e+01   1.238927e+02
  -5.836697e+01   1.303282e+02
  -9.181245e+01   6.169418e+01
  -6.504185e+01  -1.036284e+01
  -2.366356e+01  -3.075445e+01
  -5.747753e+00  -1.296750e+01
  -1.358229e+01  -8.828018e+00
  -2.436861e+01  -4.003498e+01
  -1.494543e+01  -7.259003e+01
   2.038572e+01  -5.857297e+01
   6.150064e+01   6.370578e+00
   7.000575e+01   7.334591e+01
   2.230998e+01   8.620499e+01
  -5.364138e+01   3.404266e+01
  -8.882339e+01  -4.043777e+01
  -4.165469e+01  -7.999752e+01
   4.645819e+01  -5.959161e+01
   8.687458e+01  -1.266894e+00
   4.308276e+01   4.865685e+01
  -2.549842e+01   5.667970e+01
  -3.603952e+01   2.577587e+01
   1.582388e+01  -9.190368e+00
   5.346778e+01  -1.162290e+01
   1.797178e+01   2.220241e+01
  -5.916315e+01   5.547119e+01
  -9.736972e+01   4.454563e+01
  -6.201738e+01  -1.331342e+01
   5.559146e+00  -6.972714e+01
   4.550316e+01  -7.125331e+01
   4.009382e+01  -1.667448e+01
   1.166067e+01   3.914322e+01
  -1.527787e+01   4.281936e+01
  -3.009021e+01  -1.661438e+00
  -2.655888e+01  -4.140773e+01
  -2.586301e+00  -3.592927e+01
   2.700359e+01   2.870810e-01
   3.609489e+01   2.086731e+01
   1.701692e+01   5.167585e+00
  -5.929013e+00  -1.909413e+01
  -5.675218e+00  -1.320793e+01
   1.075391e+01   2.239805e+01
   1.067093e+01   4.669641e+01
  -1.718413e+01   2.716882e+01
  -4.057965e+01  -1.986463e+01
  -2.202090e+01  -4.624474e+01
   2.826122e+01  -2.561974e+01
   5.535501e+01   1.950514e+01
   2.173356e+01   4.550897e+01
  -4.485331e+01   3.287118e+01
  -7.772298e+01  -2.035384e+00
  -4.388140e+01  -3.152716e+01
   2.043545e+01  -4.070565e+01
   5.110854e+01  -2.982266e+01
   2.559660e+01  -8.280923e+00
  -1.723024e+01   7.352797e+00
  -2.451741e+01   2.077722e+00
   1.279869e+01  -1.787716e+01
   5.375281e+01  -2.142320e+01
