
 $NMID
 id='ANONYMOUS ', fmtdat='(2E16.6)'
 volume=1.0
 tramp=1.0
 $END
   6.065280e+07   1.183489e+06
   3.538594e+07   3.886519e+07
  -9.390828e+06   4.100313e+07
  -3.017327e+07   1.448821e+07
  -1.721261e+07  -8.557124e+06
   4.092215e+06  -9.872781e+06
   1.037656e+07   1.979704e+06
   2.340509e+06   1.057527e+07
  -7.078038e+06   9.423670e+06
  -1.031399e+07   1.583794e+06
  -7.246662e+06  -6.716173e+06
  -7.055409e+05  -9.027340e+06
   4.242803e+06  -2.907893e+06
   2.627921e+06   5.560757e+06
  -4.178990e+06   6.583642e+06
  -8.302556e+06  -1.773397e+06
  -4.379508e+06  -1.098663e+07
   4.389912e+06  -1.243600e+07
   1.094047e+07  -6.095689e+06
   1.159284e+07   2.334631e+06
   7.132866e+06   8.179424e+06
   6.669126e+05   9.526124e+06
  -3.483876e+06   6.644256e+06
  -2.495037e+06   2.695621e+06
   8.928738e+05   1.857503e+06
   3.731986e+05   4.098864e+06
  -5.432729e+06   4.600896e+06
  -1.000643e+07   5.966761e+05
  -7.430575e+06  -4.336405e+06
  -4.437272e+05  -5.399232e+06
   3.716124e+06  -2.875329e+06
   2.650076e+06  -2.921275e+05
  -2.572809e+05   7.755898e+05
  -1.987416e+06   6.046847e+05
  -2.238836e+06  -1.185256e+06
  -9.205967e+05  -3.941669e+06
   1.857478e+06  -4.152877e+06
   3.640878e+06  -2.384507e+04
   2.001041e+06   3.942797e+06
  -8.805609e+05   2.321779e+06
  -5.105419e+05  -2.343467e+06
   2.539265e+06  -2.272586e+06
   2.453691e+06   3.496998e+06
  -2.930112e+06   6.479467e+06
  -7.692258e+06   8.372003e+05
  -5.379557e+06  -7.651832e+06
   2.342701e+06  -9.147771e+06
   8.007742e+06  -2.426061e+06
   7.141303e+06   4.853852e+06
   1.663957e+06   6.318482e+06
  -3.702971e+06   2.639341e+06
  -5.325861e+06  -1.813862e+06
  -2.292699e+06  -3.727325e+06
   2.691942e+06  -2.202538e+06
   4.757207e+06   1.155422e+06
   1.939421e+06   2.971158e+06
  -1.875871e+06   1.405145e+06
  -1.731782e+06  -1.125798e+06
   1.545412e+06  -8.160413e+05
   2.541041e+06   2.153569e+06
  -9.913666e+05   3.789368e+06
  -5.198876e+06   1.845310e+06
  -5.626469e+06  -1.738403e+06
  -2.301561e+06  -4.358273e+06
   1.950766e+06  -5.515142e+06
   5.195255e+06  -5.025989e+06
   6.474772e+06  -1.821246e+06
   4.848893e+06   3.311339e+06
   9.519272e+05   6.453036e+06
  -2.105916e+06   4.879574e+06
  -1.932369e+06   1.055013e+06
  -3.821825e+04  -4.598213e+05
   2.965386e+05   9.800767e+05
  -1.462399e+06   1.976897e+06
  -2.856014e+06   4.384161e+05
  -2.149430e+06  -1.816934e+06
  -1.555152e+05  -2.116965e+06
   1.447852e+06  -2.462052e+05
   1.646202e+06   2.023316e+06
   2.279638e+04   2.961160e+06
  -2.830692e+06   1.745826e+06
  -4.677719e+06  -1.198323e+06
  -3.406790e+06  -3.973533e+06
   7.111681e+04  -4.526297e+06
   2.499936e+06  -2.891899e+06
   2.449888e+06  -1.136435e+06
   1.951685e+06  -6.022413e+05
   3.023607e+06  -3.790163e+05
   4.425157e+06   8.904121e+05
   3.498039e+06   2.894655e+06
   5.945074e+04   4.194775e+06
  -3.290714e+06   3.921306e+06
  -4.231721e+06   2.159909e+06
  -2.722275e+06  -3.772773e+05
  -3.499367e+05  -2.256061e+06
   1.074929e+06  -2.001913e+06
   5.859304e+05   1.212615e+04
  -1.097694e+06   1.335709e+06
  -1.969028e+06   3.889147e+05
  -9.643125e+05  -1.258766e+06
   5.102750e+05  -1.126184e+06
   3.713282e+05   4.068852e+05
  -1.175467e+06   5.932041e+05
  -1.848375e+06  -1.544862e+06
  -4.067981e+05  -3.677100e+06
   1.906874e+06  -3.324944e+06
   3.272839e+06  -8.352441e+05
   3.208896e+06   1.652485e+06
   2.118933e+06   2.794120e+06
   3.813880e+05   2.577220e+06
  -1.251880e+06   1.460735e+06
  -1.587750e+06   2.322557e+05
  -4.998067e+05  -5.365917e+04
   3.495606e+05   7.727165e+05
  -4.688459e+05   1.381247e+06
  -1.999070e+06   5.567240e+05
  -2.074102e+06  -9.835424e+05
  -3.415130e+05  -1.481409e+06
   1.214027e+06  -5.455591e+05
   8.577984e+05   4.811011e+05
  -8.957650e+05   4.476571e+05
  -2.150630e+06  -4.387922e+05
  -1.649941e+06  -1.403108e+06
   3.322937e+05  -1.927644e+06
   2.360045e+06  -1.589369e+06
   2.812307e+06  -2.154789e+05
   1.220191e+06   1.332193e+06
  -9.816266e+05   1.550483e+06
  -1.637439e+06   1.730614e+05
  -2.092959e+05  -1.130466e+06
   1.567352e+06  -7.333158e+05
   1.730115e+06   8.481439e+05
   2.712489e+05   1.690109e+06
  -1.161442e+06   9.281363e+05
  -1.256802e+06  -3.929758e+05
  -1.944035e+05  -8.149179e+05
   8.380715e+05  -3.080197e+04
   7.437598e+05   1.094711e+06
  -5.994715e+05   1.451418e+06
  -2.052220e+06   5.370459e+05
  -2.066814e+06  -1.095845e+06
  -3.566050e+05  -2.128336e+06
   1.512643e+06  -1.648845e+06
   1.768362e+06  -1.656640e+05
   4.766872e+05   9.022850e+05
  -6.945433e+05   7.935617e+05
  -6.207356e+05   7.148979e+04
   1.453512e+05  -3.168537e+05
   4.627422e+05  -1.586001e+05
   4.921952e+04   4.981169e+04
  -4.880886e+05  -1.548864e+05
  -4.874204e+05  -7.445357e+05
   2.706773e+05  -1.210588e+06
   1.436535e+06  -8.750426e+05
   2.111911e+06   4.652232e+05
   1.460998e+06   2.006763e+06
  -2.589577e+05   2.449119e+06
  -1.656816e+06   1.374312e+06
  -1.677382e+06  -1.813744e+05
  -8.055542e+05  -8.882000e+05
  -3.016497e+05  -5.857229e+05
  -5.279137e+05  -1.848098e+05
  -6.811743e+05  -3.524555e+05
  -8.367648e+04  -8.127531e+05
   9.224925e+05  -8.897364e+05
   1.465122e+06  -2.774258e+05
   1.016411e+06   7.397327e+05
  -3.011442e+05   1.433287e+06
  -1.760852e+06   1.028788e+06
  -2.257377e+06  -5.372891e+05
  -1.089477e+06  -2.160130e+06
   1.107184e+06  -2.386667e+06
   2.629554e+06  -9.729996e+05
   2.353560e+06   7.523687e+05
   8.872235e+05   1.373446e+06
  -2.540597e+05   9.024768e+05
  -3.631470e+05   4.671523e+05
  -2.532962e+04   7.761900e+05
  -9.672163e+04   1.371085e+06
  -7.163815e+05   1.329135e+06
  -1.342237e+06   3.117823e+05
  -1.353288e+06  -1.115225e+06
  -5.424652e+05  -1.931627e+06
   6.477928e+05  -1.451370e+06
   1.300949e+06   3.106150e+04
   7.907574e+05   1.336353e+06
  -4.526391e+05   1.412693e+06
  -1.222619e+06   3.504861e+05
  -8.120194e+05  -7.824903e+05
   1.874305e+05  -1.120916e+06
   6.100399e+05  -7.738693e+05
   1.127322e+05  -3.977987e+05
  -4.465206e+05  -3.368226e+05
  -6.219767e+04  -3.861600e+05
   1.188758e+06  -1.867090e+05
   2.116838e+06   3.834527e+05
   1.626120e+06   1.097458e+06
  -9.646192e+04   1.479991e+06
  -1.673275e+06   1.142439e+06
  -1.877738e+06   2.277695e+05
  -8.228634e+05  -5.590995e+05
   2.939307e+05  -5.938063e+05
   5.310120e+05  -6.711635e+03
   3.664800e+04   4.572201e+05
  -4.395465e+05   2.664495e+05
  -4.907368e+05  -3.535483e+05
  -2.840716e+05  -7.313351e+05
  -1.245685e+05  -4.888914e+05
  -1.347486e+05   7.038002e+04
  -2.580125e+05   2.652430e+05
  -2.692755e+05  -2.435606e+05
   1.384259e+05  -9.898587e+05
   9.305983e+05  -1.077957e+06
   1.431036e+06  -1.805743e+05
   8.972238e+05   9.427036e+05
  -4.392782e+05   1.187110e+06
  -1.310673e+06   3.609463e+05
  -7.457301e+05  -5.797638e+05
   7.312666e+05  -6.408376e+05
   1.593352e+06   1.395764e+05
   9.574845e+05   8.968342e+05
  -5.407147e+05   9.622901e+05
  -1.513446e+06   4.107815e+05
  -1.211215e+06  -2.373936e+05
  -1.093280e+05  -5.127804e+05
   6.664248e+05  -2.447546e+05
   3.984331e+05   3.175116e+05
  -5.828895e+05   5.458648e+05
  -1.208357e+06  -6.357120e+04
  -7.107166e+05  -1.193953e+06
   5.703221e+05  -1.745853e+06
   1.495922e+06  -9.189388e+05
   1.273323e+06   7.634432e+05
   1.973869e+05   1.811053e+06
  -7.604866e+05   1.283157e+06
  -9.261891e+05  -2.154347e+05
  -3.953877e+05  -1.214628e+06
   2.689097e+05  -9.553720e+05
   5.810160e+05  -6.201320e+04
   4.410645e+05   3.783260e+05
   1.336540e+05   1.279475e+05
   6.158126e+04  -8.520088e+04
   3.250045e+05   3.282271e+05
   5.246142e+05   9.957671e+05
   1.450574e+05   1.084643e+06
  -7.727087e+05   3.826326e+05
  -1.485116e+06  -4.825921e+05
  -1.253073e+06  -8.564738e+05
  -1.762161e+05  -7.177987e+05
   8.354852e+05  -4.257709e+05
   9.858755e+05  -1.652361e+05
   3.926478e+05   7.964072e+04
  -1.359984e+05   2.329240e+05
  -7.675887e+04   1.838094e+05
   2.264004e+05   6.959588e+04
   6.844236e+04   1.342446e+05
  -6.266174e+05   2.589115e+05
  -1.070852e+06  -9.294091e+02
  -5.044865e+05  -7.180424e+05
   8.166050e+05  -1.227631e+06
   1.763401e+06  -7.983978e+05
   1.494397e+06   4.183708e+05
   2.982726e+05   1.423888e+06
  -7.946814e+05   1.413459e+06
  -1.071530e+06   5.792619e+05
  -6.622878e+05  -2.094116e+05
  -1.564827e+05  -3.671339e+05
   3.322176e+04  -9.890799e+04
  -9.514228e+04  -1.621752e+04
  -2.823792e+05  -3.867112e+05
  -2.324345e+05  -8.210684e+05
   1.727242e+05  -7.024996e+05
   6.867608e+05   8.834586e+04
   7.860437e+05   9.366213e+05
   1.739628e+05   1.059119e+06
  -7.401929e+05   3.038491e+05
  -1.075525e+06  -6.870589e+05
  -3.906442e+05  -1.112792e+06
   7.180586e+05  -7.290392e+05
   1.163931e+06   5.915384e+04
   5.684703e+05   6.561380e+05
  -2.961016e+05   7.349815e+05
  -4.248698e+05   3.833141e+05
   2.098138e+05  -1.211582e+04
   6.501702e+05  -5.091071e+04
   1.651549e+05   3.226623e+05
  -8.372667e+05   6.882864e+05
  -1.315011e+06   5.187663e+05
  -8.180725e+05  -2.155798e+05
   9.154826e+04  -9.034899e+05
   5.984567e+05  -8.894050e+05
   4.793881e+05  -1.957295e+05
   8.243006e+04   4.710152e+05
  -2.344539e+05   4.697052e+05
  -3.599430e+05  -1.074913e+05
  -2.688893e+05  -5.852834e+05
   4.278924e+04  -4.732529e+05
   4.016016e+05   2.514323e+04
   4.982882e+05   3.121471e+05
   2.461026e+05   1.221239e+05
  -5.414544e+04  -1.861116e+05
  -8.030261e+04  -1.097869e+05
   7.345778e+04   3.377868e+05
   3.076687e+04   6.117390e+05
  -3.027352e+05   3.020761e+05
  -5.282251e+05  -3.374912e+05
  -2.389536e+05  -6.573304e+05
   3.935505e+05  -3.460789e+05
   7.092171e+05   2.531335e+05
   2.864066e+05   5.666719e+05
  -5.269129e+05   3.821217e+05
  -9.262895e+05  -5.187832e+04
  -5.041620e+05  -3.803094e+05
   2.979040e+05  -4.422483e+05
   6.632524e+05  -2.765107e+05
   2.888546e+05  -2.548696e+04
  -3.077210e+05   1.106834e+05
  -4.008944e+05  -1.184144e+04
   1.279498e+05  -2.725123e+05
   6.915508e+05  -2.902321e+05
