
 $NMID
 id='ANONYMOUS ', fmtdat='(2E16.6)'
 volume=1.0
 tramp=1.0
 $END
   5.947066e+07   1.448743e+06
   3.470813e+07   3.824079e+07
  -9.268060e+06   4.026222e+07
  -2.977305e+07   1.423476e+07
  -1.705284e+07  -8.423333e+06
   4.013224e+06  -9.750887e+06
   1.029394e+07   1.938959e+06
   2.330946e+06   1.047286e+07
  -7.048221e+06   9.346287e+06
  -1.021920e+07   1.550952e+06
  -7.083276e+06  -6.670851e+06
  -5.986776e+05  -8.902480e+06
   4.186395e+06  -2.803340e+06
   2.494998e+06   5.549888e+06
  -4.211978e+06   6.507260e+06
  -8.196990e+06  -1.776373e+06
  -4.260348e+06  -1.085360e+07
   4.389387e+06  -1.222798e+07
   1.078285e+07  -5.925767e+06
   1.134059e+07   2.363077e+06
   6.924552e+06   8.027039e+06
   6.325596e+05   9.288177e+06
  -3.366422e+06   6.512292e+06
  -2.410299e+06   2.757984e+06
   8.131341e+05   1.973601e+06
   2.268023e+05   4.060186e+06
  -5.445044e+06   4.391087e+06
  -9.839503e+06   4.037337e+05
  -7.227769e+06  -4.349420e+06
  -3.467383e+05  -5.249070e+06
   3.683485e+06  -2.696289e+06
   2.534019e+06  -2.087223e+05
  -3.829702e+05   7.153345e+05
  -2.019414e+06   4.598038e+05
  -2.126388e+06  -1.271694e+06
  -7.727779e+05  -3.877904e+06
   1.864009e+06  -4.024574e+06
   3.498179e+06  -2.748036e+03
   1.898368e+06   3.828074e+06
  -8.172491e+05   2.222593e+06
  -3.869080e+05  -2.320871e+06
   2.565787e+06  -2.214831e+06
   2.414611e+06   3.463754e+06
  -2.882650e+06   6.394773e+06
  -7.534161e+06   8.467597e+05
  -5.255355e+06  -7.509356e+06
   2.319135e+06  -8.981189e+06
   7.877174e+06  -2.337070e+06
   7.011477e+06   4.864277e+06
   1.594108e+06   6.289459e+06
  -3.707548e+06   2.590783e+06
  -5.287262e+06  -1.858346e+06
  -2.262886e+06  -3.734556e+06
   2.664375e+06  -2.178742e+06
   4.692850e+06   1.163010e+06
   1.909312e+06   2.943967e+06
  -1.853100e+06   1.375048e+06
  -1.713184e+06  -1.141108e+06
   1.530090e+06  -8.435878e+05
   2.545896e+06   2.100790e+06
  -9.175579e+05   3.747429e+06
  -5.095363e+06   1.844954e+06
  -5.557773e+06  -1.709307e+06
  -2.265342e+06  -4.303947e+06
   1.985127e+06  -5.402125e+06
   5.198248e+06  -4.857708e+06
   6.391071e+06  -1.691725e+06
   4.704696e+06   3.312169e+06
   8.444384e+05   6.363103e+06
  -2.136034e+06   4.820709e+06
  -1.948175e+06   1.072808e+06
  -1.033710e+05  -4.428434e+05
   2.113912e+05   9.153777e+05
  -1.487384e+06   1.848995e+06
  -2.788296e+06   3.282632e+05
  -2.032159e+06  -1.854063e+06
  -6.465350e+04  -2.079581e+06
   1.455536e+06  -1.722212e+05
   1.574067e+06   2.070103e+06
  -5.320770e+04   2.928851e+06
  -2.819205e+06   1.654313e+06
  -4.568659e+06  -1.260257e+06
  -3.289244e+06  -3.942284e+06
   1.098900e+05  -4.435081e+06
   2.467887e+06  -2.821510e+06
   2.416228e+06  -1.115818e+06
   1.947817e+06  -5.908806e+05
   3.018177e+06  -3.348506e+05
   4.382886e+06   9.585426e+05
   3.421484e+06   2.938496e+06
  -2.479152e+04   4.168014e+06
  -3.351360e+06   3.818156e+06
  -4.238501e+06   2.034665e+06
  -2.668357e+06  -4.416416e+05
  -2.759003e+05  -2.227300e+06
   1.110493e+06  -1.938680e+06
   5.709257e+05   2.704391e+04
  -1.118184e+06   1.292586e+06
  -1.954859e+06   3.485775e+05
  -9.268186e+05  -1.255128e+06
   5.354690e+05  -1.099686e+06
   3.718007e+05   4.237553e+05
  -1.185951e+06   6.014376e+05
  -1.853012e+06  -1.536428e+06
  -3.934428e+05  -3.679031e+06
   1.942078e+06  -3.337198e+06
   3.309334e+06  -8.235112e+05
   3.206795e+06   1.710670e+06
   2.064362e+06   2.860422e+06
   3.139750e+05   2.591355e+06
  -1.281877e+06   1.419049e+06
  -1.580081e+06   1.884867e+05
  -4.953269e+05  -6.397033e+04
   3.314737e+05   7.749507e+05
  -4.851529e+05   1.362827e+06
  -1.988238e+06   5.209331e+05
  -2.045065e+06  -1.007921e+06
  -3.195059e+05  -1.477491e+06
   1.218141e+06  -5.207340e+05
   8.483532e+05   5.037901e+05
  -9.096986e+05   4.414929e+05
  -2.153441e+06  -4.818344e+05
  -1.625035e+06  -1.451029e+06
   3.783038e+05  -1.929606e+06
   2.391996e+06  -1.534521e+06
   2.803782e+06  -1.542498e+05
   1.188193e+06   1.344197e+06
  -9.965368e+05   1.516998e+06
  -1.620670e+06   1.457197e+05
  -1.854226e+05  -1.117741e+06
   1.568689e+06  -6.955510e+05
   1.705819e+06   8.765550e+05
   2.411477e+05   1.692577e+06
  -1.176954e+06   9.112232e+05
  -1.252903e+06  -4.117031e+05
  -1.852206e+05  -8.187966e+05
   8.308977e+05  -1.883610e+04
   7.147954e+05   1.100032e+06
  -6.269203e+05   1.425066e+06
  -2.047320e+06   4.860334e+05
  -2.026500e+06  -1.132140e+06
  -3.103261e+05  -2.120387e+06
   1.534821e+06  -1.609121e+06
   1.762564e+06  -1.313908e+05
   4.591164e+05   9.083106e+05
  -7.075283e+05   7.770597e+05
  -6.208994e+05   5.220180e+04
   1.578876e+05  -3.224120e+05
   4.784103e+05  -1.464858e+05
   5.578818e+04   6.806284e+04
  -4.898760e+05  -1.471139e+05
  -4.827279e+05  -7.476217e+05
   2.876543e+05  -1.203843e+06
   1.446485e+06  -8.431888e+05
   2.089950e+06   5.064716e+05
   1.408761e+06   2.024296e+06
  -3.122401e+05   2.429192e+06
  -1.683841e+06   1.333623e+06
  -1.673520e+06  -2.196147e+05
  -7.825831e+05  -9.153537e+05
  -2.735602e+05  -6.034067e+05
  -5.047769e+05  -1.937894e+05
  -6.660067e+05  -3.523809e+05
  -7.129170e+04  -8.036977e+05
   9.358004e+05  -8.692896e+05
   1.469623e+06  -2.459002e+05
   9.979864e+05   7.665374e+05
  -3.356164e+05   1.429389e+06
  -1.779643e+06   9.877336e+05
  -2.236185e+06  -5.854568e+05
  -1.040989e+06  -2.174338e+06
   1.146059e+06  -2.355159e+06
   2.635759e+06  -9.198022e+05
   2.333931e+06   7.966405e+05
   8.607094e+05   1.395739e+06
  -2.777108e+05   9.049761e+05
  -3.855399e+05   4.557916e+05
  -5.010597e+04   7.568034e+05
  -1.222936e+05   1.348142e+06
  -7.329992e+05   1.303101e+06
  -1.335550e+06   2.833366e+05
  -1.318078e+06  -1.136289e+06
  -4.954653e+05  -1.930443e+06
   6.762482e+05  -1.426702e+06
   1.294255e+06   5.903062e+04
   7.620594e+05   1.344811e+06
  -4.755309e+05   1.399791e+06
  -1.224970e+06   3.341879e+05
  -8.008101e+05  -7.863595e+05
   1.986613e+05  -1.113292e+06
   6.174777e+05  -7.667400e+05
   1.218820e+05  -3.997631e+05
  -4.329093e+05  -3.441860e+05
  -5.160967e+04  -3.846343e+05
   1.184377e+06  -1.640942e+05
   2.093961e+06   4.209372e+05
   1.595325e+06   1.123611e+06
  -1.192401e+05   1.471411e+06
  -1.680452e+06   1.104471e+06
  -1.873490e+06   1.911781e+05
  -8.153526e+05  -5.700268e+05
   2.988397e+05  -5.842823e+05
   5.297319e+05   2.940490e+02
   2.975695e+04   4.492186e+05
  -4.429181e+05   2.515544e+05
  -4.790652e+05  -3.610962e+05
  -2.602055e+05  -7.279420e+05
  -1.086077e+05  -4.829280e+05
  -1.403074e+05   6.931094e+04
  -2.710186e+05   2.567018e+05
  -2.638410e+05  -2.489451e+05
   1.637325e+05  -9.791504e+05
   9.472534e+05  -1.050054e+06
   1.416805e+06  -1.521603e+05
   8.653707e+05   9.493895e+05
  -4.568681e+05   1.165765e+06
  -1.301306e+06   3.297891e+05
  -7.254739e+05  -5.929024e+05
   7.409044e+05  -6.232188e+05
   1.585795e+06   1.741567e+05
   9.392332e+05   9.196623e+05
  -5.596034e+05   9.542532e+05
  -1.523302e+06   3.791958e+05
  -1.207118e+06  -2.653250e+05
  -9.801440e+04  -5.163562e+05
   6.702094e+05  -2.312306e+05
   3.893722e+05   3.209724e+05
  -5.903245e+05   5.242233e+05
  -1.193935e+06  -9.284507e+04
  -6.729493e+05  -1.198011e+06
   6.079528e+05  -1.713194e+06
   1.504712e+06  -8.730970e+05
   1.245180e+06   7.885669e+05
   1.529575e+05   1.804069e+06
  -7.883725e+05   1.259976e+06
  -9.203528e+05  -2.336914e+05
  -3.686309e+05  -1.219988e+06
   2.885680e+05  -9.507403e+05
   5.800973e+05  -5.146118e+04
   4.313761e+05   3.906677e+05
   1.313546e+05   1.355282e+05
   6.334569e+04  -8.585140e+04
   3.142742e+05   3.253133e+05
   4.982910e+05   9.982727e+05
   1.219187e+05   1.087127e+06
  -7.735486e+05   3.693148e+05
  -1.465234e+06  -5.145411e+05
  -1.229041e+06  -8.848344e+05
  -1.601871e+05  -7.172986e+05
   8.423877e+05  -3.992491e+05
   9.862565e+05  -1.410782e+05
   3.885355e+05   8.266825e+04
  -1.410914e+05   2.262682e+05
  -7.958840e+04   1.878253e+05
   2.239797e+05   8.194714e+04
   6.305276e+04   1.330315e+05
  -6.302087e+05   2.353560e+05
  -1.061330e+06  -2.605333e+04
  -4.800029e+05  -7.159640e+05
   8.393556e+05  -1.192790e+06
   1.762953e+06  -7.532337e+05
   1.466634e+06   4.451243e+05
   2.609090e+05   1.419243e+06
  -8.189517e+05   1.385468e+06
  -1.073566e+06   5.480346e+05
  -6.501962e+05  -2.261303e+05
  -1.453585e+05  -3.657305e+05
   3.517489e+04  -9.051822e+04
  -9.666995e+04  -1.407090e+04
  -2.747884e+05  -3.919977e+05
  -2.132508e+05  -8.228021e+05
   1.873123e+05  -6.915289e+05
   6.767415e+05   1.071452e+05
   7.528790e+05   9.471644e+05
   1.448503e+05   1.049075e+06
  -7.387844e+05   2.778737e+05
  -1.045798e+06  -7.083738e+05
  -3.599928e+05  -1.110050e+06
   7.263794e+05  -7.036322e+05
   1.150808e+06   8.414224e+04
   5.506762e+05   6.592066e+05
  -3.060247e+05   7.199479e+05
  -4.267198e+05   3.741524e+05
   2.098451e+05  -1.275559e+03
   6.466613e+05  -3.369027e+04
   1.563137e+05   3.218941e+05
  -8.477509e+05   6.642663e+05
  -1.318320e+06   4.908888e+05
  -8.077095e+05  -2.257682e+05
   1.102034e+05  -8.930413e+05
   6.100108e+05  -8.718646e+05
   4.738676e+05  -1.856512e+05
   6.727942e+04   4.682166e+05
  -2.416472e+05   4.581980e+05
  -3.507250e+05  -1.180993e+05
  -2.526732e+05  -5.866142e+05
   5.033288e+04  -4.650262e+05
   3.960057e+05   3.533572e+04
   4.893007e+05   3.179443e+05
   2.440773e+05   1.251312e+05
  -5.133629e+04  -1.816236e+05
  -8.404203e+04  -1.062162e+05
   5.839404e+04   3.328125e+05
   1.548327e+04   5.963248e+05
  -3.014238e+05   2.849277e+05
  -5.075316e+05  -3.448805e+05
  -2.161634e+05  -6.507503e+05
   3.979422e+05  -3.306987e+05
   6.931843e+05   2.667582e+05
   2.678128e+05   5.679840e+05
  -5.303484e+05   3.678044e+05
  -9.144016e+05  -7.181323e+04
  -4.904862e+05  -3.879544e+05
   3.026964e+05  -4.297862e+05
   6.598698e+05  -2.574894e+05
   2.843286e+05  -2.151987e+04
  -3.075318e+05   9.559835e+04
  -3.938950e+05  -2.613153e+04
   1.387664e+05  -2.654064e+05
   6.970062e+05  -2.653308e+05
