
 $NMID
 id='ANONYMOUS ', fmtdat='(2E16.6)'
 volume=1.0
 tramp=1.0
 $END
  -2.564317e+07   3.168196e+05
  -1.702209e+07  -1.198802e+07
   6.455907e+04  -1.616522e+07
   1.084801e+07  -1.064038e+07
   9.021515e+06  -1.051364e+06
   5.510541e+05   4.507146e+06
  -5.020252e+06   2.289814e+06
  -3.855525e+06  -3.966052e+06
   1.056100e+06  -6.908473e+06
   4.660759e+06  -3.158550e+06
   4.213231e+06   3.214644e+06
   6.700414e+05   5.338000e+06
  -2.467717e+06   1.201557e+06
  -2.133555e+06  -4.339637e+06
   1.330419e+06  -5.203556e+06
   4.241001e+06  -5.480975e+05
   3.265471e+06   4.952963e+06
  -1.043993e+06   6.380353e+06
  -4.858622e+06   3.132322e+06
  -5.065527e+06  -1.400693e+06
  -2.224886e+06  -3.632985e+06
   3.705730e+05  -2.932254e+06
   2.203449e+05  -1.523398e+06
  -1.827601e+06  -1.734782e+06
  -2.459307e+06  -3.449228e+06
   4.571807e+05  -4.354893e+06
   5.068113e+06  -2.678094e+06
   6.968766e+06   7.109292e+05
   3.925820e+06   3.167951e+06
  -1.322069e+06   2.925223e+06
  -3.785063e+06   5.578437e+05
  -1.568988e+06  -1.793493e+06
   2.370389e+06  -2.149970e+06
   3.878070e+06  -7.425411e+04
   2.006654e+06   2.805774e+06
  -7.440577e+05   3.801846e+06
  -1.744220e+06   1.731222e+06
  -7.764385e+05  -1.331702e+06
   4.958851e+05  -1.931654e+06
   5.880942e+05   6.297541e+05
  -5.718249e+05   3.093524e+06
  -1.828564e+06   2.149908e+06
  -1.802642e+06  -1.270506e+06
  -1.122471e+05  -3.037583e+06
   1.948759e+06  -9.568425e+05
   2.224167e+06   2.618031e+06
  -1.924706e+05   3.747534e+06
  -3.561582e+06   1.333870e+06
  -4.739012e+06  -2.182032e+06
  -2.262128e+06  -3.778271e+06
   1.912121e+06  -2.578543e+06
   4.133886e+06  -1.100426e+04
   2.651027e+06   1.785572e+06
  -7.129186e+05   1.637148e+06
  -2.580590e+06   1.054622e+05
  -1.517507e+06  -1.115783e+06
   7.501717e+05  -8.453551e+05
   1.528409e+06   4.271123e+05
   1.591823e+05   1.179802e+06
  -1.451316e+06   5.733268e+05
  -1.161234e+06  -7.294569e+05
   9.337533e+05  -1.350509e+06
   2.564213e+06  -4.781595e+05
   1.713910e+06   1.506711e+06
  -1.241704e+06   3.211767e+06
  -3.906531e+06   3.081480e+06
  -4.249625e+06   7.034558e+05
  -2.446179e+06  -2.459892e+06
  -3.529606e+05  -4.144843e+06
   5.689217e+05  -3.499717e+06
   5.246244e+05  -1.891120e+06
   6.747801e+05  -1.115155e+06
   1.577005e+06  -1.205503e+06
   2.589116e+06  -6.996952e+05
   2.635563e+06   1.049969e+06
   1.299511e+06   2.683184e+06
  -7.508542e+05   2.362221e+06
  -2.159551e+06   4.377111e+04
  -1.809952e+06  -2.303480e+06
   2.064736e+05  -2.676684e+06
   2.395483e+06  -9.079780e+05
   2.996046e+06   1.414214e+06
   1.643086e+06   2.582951e+06
  -2.578605e+05   2.216277e+06
  -1.101546e+06   1.261442e+06
  -8.804288e+05   8.018852e+05
  -9.987672e+05   9.504886e+05
  -2.269260e+06   8.749517e+05
  -3.596520e+06  -1.950556e+05
  -3.084998e+06  -2.053379e+06
  -3.380427e+05  -3.549838e+06
   2.771360e+06  -3.489744e+06
   3.827297e+06  -1.662725e+06
   2.244032e+06   7.948823e+05
  -2.316596e+05   2.139889e+06
  -1.335424e+06   1.501126e+06
  -4.481820e+05  -2.039521e+05
   1.072744e+06  -1.097352e+06
   1.523884e+06  -3.345333e+05
   5.824932e+05   9.472507e+05
  -5.904804e+05   1.020423e+06
  -7.096770e+05  -2.469544e+05
   3.662189e+05  -1.126990e+06
   1.584940e+06  -1.159477e+05
   1.662880e+06   2.149393e+06
   1.513115e+05   3.459203e+06
  -2.118890e+06   2.380920e+06
  -3.531563e+06  -2.948190e+05
  -2.940847e+06  -2.447220e+06
  -7.742257e+05  -2.679153e+06
   1.198666e+06  -1.405539e+06
   1.507834e+06  -1.468019e+05
   4.411833e+05   2.487548e+04
  -3.589769e+05  -6.395687e+05
   1.964313e+05  -1.060254e+06
   1.413333e+06  -5.532679e+05
   1.699472e+06   4.820144e+05
   5.071102e+05   1.050018e+06
  -9.452561e+05   6.243644e+05
  -9.991643e+05  -3.272132e+05
   5.691147e+05  -8.095798e+05
   2.196761e+06  -2.221998e+05
   2.102242e+06   1.092132e+06
   1.348407e+05   2.081139e+06
  -2.021745e+06   1.835615e+06
  -2.508730e+06   4.412709e+05
  -1.099878e+06  -9.609015e+05
   6.806557e+05  -1.175069e+06
   1.157334e+06  -1.684649e+05
   9.361081e+04   8.376584e+05
  -1.272779e+06   6.670465e+05
  -1.571337e+06  -5.145887e+05
  -5.690395e+05  -1.417040e+06
   7.477488e+05  -1.109869e+06
   1.177473e+06  -3.091608e+04
   4.333361e+05   5.895995e+05
  -5.804998e+05   1.148608e+05
  -6.407932e+05  -8.734887e+05
   5.118724e+05  -1.252111e+06
   1.786400e+06  -4.859482e+05
   1.811496e+06   8.948290e+05
   4.172668e+05   1.794144e+06
  -1.136005e+06   1.509294e+06
  -1.488374e+06   3.358172e+05
  -5.648884e+05  -7.023746e+05
   5.030378e+05  -7.953377e+05
   6.803569e+05  -9.054596e+04
   2.323229e+04   5.310552e+05
  -5.849410e+05   4.366766e+05
  -4.593876e+05  -8.885944e+04
   2.068847e+05  -2.365051e+05
   5.784189e+05   3.290009e+05
   3.640022e+04   1.013878e+06
  -1.127029e+06   9.006256e+05
  -1.869773e+06  -2.493333e+05
  -1.373447e+06  -1.661556e+06
   9.759444e+04  -2.222425e+06
   1.408758e+06  -1.492099e+06
   1.673625e+06  -8.929160e+04
   1.056989e+06   9.022965e+05
   4.101493e+05   9.312216e+05
   2.609226e+05   4.142433e+05
   3.411846e+05   1.844748e+05
   7.095696e+04   5.326257e+05
  -6.703153e+05   8.816187e+05
  -1.322719e+06   4.801241e+05
  -1.145636e+06  -6.348481e+05
   3.910915e+04  -1.506990e+06
   1.514083e+06  -1.177239e+06
   2.117079e+06   2.957021e+05
   1.218090e+06   1.794377e+06
  -6.326001e+05   2.142974e+06
  -2.099669e+06   1.151694e+06
  -2.217820e+06  -2.967446e+05
  -1.182517e+06  -1.138114e+06
  -1.350562e+04  -1.078392e+06
   4.773604e+05  -6.958222e+05
   3.365874e+05  -6.721210e+05
   1.977116e+05  -1.005495e+06
   5.096141e+05  -1.044040e+06
   1.059504e+06  -2.862749e+05
   1.201829e+06   9.417465e+05
   5.502547e+05   1.696940e+06
  -5.316070e+05   1.319575e+06
  -1.174528e+06   8.748439e+04
  -8.286284e+05  -1.032227e+06
   1.547955e+05  -1.248236e+06
   8.547957e+05  -5.700600e+05
   7.214788e+05   3.364023e+05
   1.028324e+05   8.160581e+05
  -2.225974e+05   7.426365e+05
   3.774544e+04   4.642699e+05
   3.630993e+05   3.382398e+05
   4.196758e+04   3.649779e+05
  -9.439044e+05   2.588929e+05
  -1.754842e+06  -1.776580e+05
  -1.488874e+06  -7.911791e+05
  -1.551914e+05  -1.177886e+06
   1.223395e+06  -1.030777e+06
   1.571682e+06  -4.201085e+05
   8.105233e+05   2.221292e+05
  -1.435231e+05   4.301559e+05
  -4.043011e+05   1.238031e+05
   2.048226e+04  -2.689650e+05
   4.516513e+05  -2.184944e+05
   4.236831e+05   2.959111e+05
   1.182475e+05   6.898072e+05
  -2.541278e+04   4.452033e+05
   1.304141e+05  -1.865434e+05
   3.403102e+05  -3.983871e+05
   2.826503e+05   1.816651e+05
  -1.564163e+05   9.454801e+05
  -7.662388e+05   9.676353e+05
  -1.065371e+06   1.068945e+05
  -6.402320e+05  -8.085601e+05
   3.412977e+05  -9.137485e+05
   1.037206e+06  -2.110130e+05
   6.633308e+05   5.370613e+05
  -5.734499e+05   6.371466e+05
  -1.496308e+06   5.258715e+04
  -1.123139e+06  -6.968462e+05
   2.601169e+05  -1.020105e+06
   1.366168e+06  -6.856309e+05
   1.243844e+06   1.830328e+04
   2.139145e+05   4.900963e+05
  -5.592625e+05   3.333332e+05
  -3.129280e+05  -2.121765e+05
   5.796778e+05  -4.316455e+05
   1.068696e+06   1.351290e+05
   5.286969e+05   1.108937e+06
  -6.279762e+05   1.522436e+06
  -1.396184e+06   7.649960e+05
  -1.164895e+06  -7.033053e+05
  -2.242809e+05  -1.663846e+06
   6.353243e+05  -1.280482e+06
   8.746551e+05   4.643250e+04
   5.223625e+05   1.062751e+06
  -5.465778e+04   9.545444e+05
  -4.771890e+05   1.420308e+05
  -5.226350e+05  -3.460983e+05
  -2.460320e+05  -1.454726e+05
  -5.687692e+03   1.154832e+05
  -1.346600e+05  -2.061271e+05
  -4.496801e+05  -8.460249e+05
  -3.200747e+05  -9.993012e+05
   5.181455e+05  -4.001984e+05
   1.388226e+06   3.818736e+05
   1.305226e+06   7.221893e+05
   2.040020e+05   6.132064e+05
  -8.594139e+05   4.058119e+05
  -9.297945e+05   2.340283e+05
  -2.558186e+05   1.200650e+04
   1.618139e+05  -2.037580e+05
  -7.959730e+04  -2.363277e+05
  -3.589043e+05  -1.333795e+05
  -7.504983e+03  -1.295665e+05
   7.200898e+05  -1.971677e+05
   9.466818e+05   1.883808e+04
   2.514613e+05   6.129885e+05
  -8.498587e+05   1.037096e+06
  -1.468640e+06   6.474537e+05
  -1.169860e+06  -4.312179e+05
  -2.411384e+05  -1.301656e+06
   6.443320e+05  -1.238301e+06
   9.498496e+05  -4.422766e+05
   6.232861e+05   2.572694e+05
   8.403901e+04   3.254866e+05
  -1.581902e+05   4.054227e+03
   3.594567e+04  -8.743601e+04
   3.308553e+05   2.952881e+05
   2.862828e+05   7.314201e+05
  -1.722651e+05   6.037013e+05
  -6.497705e+05  -1.659179e+05
  -6.370544e+05  -9.272505e+05
  -1.267317e+04  -9.356045e+05
   7.499461e+05  -1.472062e+05
   9.322953e+05   7.311518e+05
   2.736640e+05   9.875390e+05
  -6.590629e+05   5.603136e+05
  -9.764766e+05  -7.821897e+04
  -4.376602e+05  -4.850897e+05
   2.472513e+05  -5.351890e+05
   2.598930e+05  -3.181831e+05
  -3.168953e+05  -3.355751e+04
  -6.173187e+05   3.498081e+04
  -1.081200e+05  -2.631428e+05
   7.411569e+05  -6.488329e+05
   1.061453e+06  -5.810494e+05
   6.079424e+05   8.238285e+04
  -8.160072e+04   7.615429e+05
  -4.129998e+05   7.525537e+05
  -3.010530e+05   8.709312e+04
  -1.284305e+04  -4.760325e+05
   2.300531e+05  -3.552147e+05
   3.336705e+05   2.065880e+05
   2.301766e+05   5.269879e+05
  -6.583100e+04   3.203982e+05
  -3.566162e+05  -6.889427e+04
  -4.090433e+05  -1.944801e+05
  -2.198795e+05  -3.447446e+04
  -9.220862e+03   7.673870e+04
   6.825467e+04  -9.016433e+04
   9.013331e+04  -3.797106e+05
   1.967555e+05  -4.251576e+05
   3.455383e+05  -6.345866e+04
   3.251721e+05   4.388362e+05
   1.437249e+04   6.095336e+05
  -4.103844e+05   2.571685e+05
  -5.618334e+05  -3.001648e+05
  -2.024019e+05  -5.542442e+05
   4.349003e+05  -3.292913e+05
   7.630020e+05   9.308644e+04
   4.204564e+05   3.408900e+05
  -2.654830e+05   3.112520e+05
  -5.632535e+05   1.446344e+05
  -1.674312e+05   4.627930e+03
   4.055052e+05  -8.998950e+03
   4.124298e+05   1.382892e+05
  -2.171555e+05   3.253688e+05
  -7.917807e+05   2.627346e+05
