
 $NMID
 id='ANONYMOUS ', fmtdat='(2E16.6)'
 volume=1.0
 tramp=1.0
 $END
   5.934084e+07   1.323636e+04
   3.518184e+07   3.724547e+07
  -8.441580e+06   4.012289e+07
  -2.904670e+07   1.469474e+07
  -1.681500e+07  -7.941595e+06
   3.791649e+06  -9.642630e+06
   1.006491e+07   1.693275e+06
   2.488484e+06   1.018042e+07
  -6.611965e+06   9.295019e+06
  -9.960111e+06   1.774073e+06
  -7.240466e+06  -6.391890e+06
  -9.246807e+05  -8.816377e+06
   4.105405e+06  -2.951205e+06
   2.768617e+06   5.366718e+06
  -3.859639e+06   6.522054e+06
  -8.107767e+06  -1.538183e+06
  -4.515639e+06  -1.060969e+07
   4.006912e+06  -1.222350e+07
   1.056700e+07  -6.183096e+06
   1.140464e+07   2.063013e+06
   7.133353e+06   7.904377e+06
   7.786411e+05   9.327670e+06
  -3.330206e+06   6.501920e+06
  -2.342522e+06   2.563713e+06
   1.040345e+06   1.731306e+06
   5.506044e+05   4.051436e+06
  -5.220848e+06   4.729781e+06
  -9.844736e+06   8.808819e+05
  -7.415696e+06  -4.083028e+06
  -5.487144e+05  -5.346443e+06
   3.630872e+06  -2.972715e+06
   2.674552e+06  -3.384002e+05
  -1.771801e+05   8.758228e+05
  -1.964968e+06   7.580875e+05
  -2.318952e+06  -1.089644e+06
  -1.056315e+06  -3.903558e+06
   1.748101e+06  -4.137840e+06
   3.612657e+06  -4.721389e+04
   2.031883e+06   3.880867e+06
  -8.892693e+05   2.285166e+06
  -6.278064e+05  -2.334126e+06
   2.396490e+06  -2.313207e+06
   2.463068e+06   3.342058e+06
  -2.722793e+06   6.340625e+06
  -7.476049e+06   9.125646e+05
  -5.381802e+06  -7.384832e+06
   2.118995e+06  -8.961503e+06
   7.778922e+06  -2.535099e+06
   7.099225e+06   4.542690e+06
   1.806866e+06   6.093537e+06
  -3.514650e+06   2.678364e+06
  -5.227296e+06  -1.588698e+06
  -2.334193e+06  -3.534262e+06
   2.561448e+06  -2.192640e+06
   4.656508e+06   1.013681e+06
   1.951639e+06   2.841250e+06
  -1.799621e+06   1.410341e+06
  -1.719671e+06  -1.035468e+06
   1.456028e+06  -7.994897e+05
   2.466675e+06   2.032839e+06
  -9.247445e+05   3.653271e+06
  -5.018853e+06   1.853947e+06
  -5.487471e+06  -1.578170e+06
  -2.325201e+06  -4.186901e+06
   1.770017e+06  -5.457525e+06
   4.960428e+06  -5.096172e+06
   6.315544e+06  -1.968330e+06
   4.855299e+06   3.140123e+06
   1.112595e+06   6.309441e+06
  -1.905398e+06   4.810925e+06
  -1.806363e+06   1.066080e+06
   6.386984e+03  -4.114475e+05
   3.303337e+05   1.033357e+06
  -1.415262e+06   2.046689e+06
  -2.851533e+06   5.346948e+05
  -2.223004e+06  -1.736436e+06
  -2.478742e+05  -2.115761e+06
   1.427719e+06  -3.337505e+05
   1.719927e+06   1.913328e+06
   1.368671e+05   2.918027e+06
  -2.739726e+06   1.814111e+06
  -4.646663e+06  -1.048348e+06
  -3.448212e+06  -3.822391e+06
  -2.652052e+04  -4.442098e+06
   2.390143e+06  -2.878555e+06
   2.360215e+06  -1.153734e+06
   1.869513e+06  -6.390377e+05
   2.928539e+06  -4.763510e+05
   4.352607e+06   7.119323e+05
   3.525615e+06   2.703890e+06
   2.160264e+05   4.104237e+06
  -3.078191e+06   3.973009e+06
  -4.084051e+06   2.286529e+06
  -2.706969e+06  -2.765210e+05
  -4.326154e+05  -2.227045e+06
   9.936361e+05  -2.021808e+06
   5.839979e+05  -5.433509e+03
  -1.031480e+06   1.358352e+06
  -1.918325e+06   4.481627e+05
  -9.863092e+05  -1.210053e+06
   4.587729e+05  -1.132050e+06
   3.792917e+05   3.686710e+05
  -1.100803e+06   6.046066e+05
  -1.811888e+06  -1.436047e+06
  -5.048207e+05  -3.531211e+06
   1.707875e+06  -3.264600e+06
   3.105575e+06  -9.264976e+05
   3.170448e+06   1.459987e+06
   2.196085e+06   2.616349e+06
   4.947684e+05   2.500829e+06
  -1.168764e+06   1.487679e+06
  -1.553636e+06   2.931367e+05
  -4.918186e+05  -3.338986e+04
   3.718589e+05   7.432292e+05
  -4.124634e+05   1.364570e+06
  -1.937049e+06   6.093704e+05
  -2.057880e+06  -8.892149e+05
  -3.829034e+05  -1.431853e+06
   1.165072e+06  -5.788056e+05
   8.596527e+05   4.286294e+05
  -8.426892e+05   4.688184e+05
  -2.105672e+06  -3.297163e+05
  -1.673873e+06  -1.285430e+06
   2.321563e+05  -1.890944e+06
   2.237667e+06  -1.652974e+06
   2.743323e+06  -3.230012e+05
   1.240541e+06   1.259049e+06
  -9.115866e+05   1.551242e+06
  -1.598891e+06   2.205143e+05
  -2.414304e+05  -1.105350e+06
   1.509806e+06  -7.762220e+05
   1.722523e+06   7.628510e+05
   3.307693e+05   1.635196e+06
  -1.090850e+06   9.468811e+05
  -1.234386e+06  -3.320049e+05
  -2.188968e+05  -7.814045e+05
   8.174685e+05  -5.708351e+04
   7.694121e+05   1.046354e+06
  -5.333649e+05   1.448146e+06
  -1.994138e+06   6.061933e+05
  -2.069196e+06  -9.963508e+05
  -4.295620e+05  -2.071638e+06
   1.418356e+06  -1.669615e+06
   1.721823e+06  -2.288775e+05
   4.998431e+05   8.614581e+05
  -6.471463e+05   8.024877e+05
  -6.073058e+05   9.974656e+04
   1.183348e+05  -3.129821e+05
   4.372518e+05  -1.841185e+05
   5.597780e+04   2.945980e+04
  -4.671795e+05  -1.395186e+05
  -4.945973e+05  -7.029489e+05
   2.188661e+05  -1.186958e+06
   1.370123e+06  -9.100050e+05
   2.085236e+06   3.735690e+05
   1.508418e+06   1.909855e+06
  -1.562322e+05   2.410114e+06
  -1.561965e+06   1.413454e+06
  -1.645191e+06  -1.033735e+05
  -8.328185e+05  -8.275202e+05
  -3.372133e+05  -5.607058e+05
  -5.344143e+05  -1.716266e+05
  -6.750955e+05  -3.295087e+05
  -1.058778e+05  -7.931595e+05
   8.658990e+05  -9.038687e+05
   1.417870e+06  -3.324585e+05
   1.027824e+06   6.759776e+05
  -2.279840e+05   1.411262e+06
  -1.677413e+06   1.078978e+06
  -2.231036e+06  -4.335047e+05
  -1.150873e+06  -2.067601e+06
   9.907732e+05  -2.372579e+06
   2.530795e+06  -1.050190e+06
   2.326131e+06   6.392516e+05
   9.244047e+05   1.297289e+06
  -2.009075e+05   8.884182e+05
  -3.279168e+05   4.816784e+05
   1.981404e+03   7.763379e+05
  -5.166640e+04   1.353249e+06
  -6.567369e+05   1.326695e+06
  -1.304672e+06   3.528047e+05
  -1.370352e+06  -1.042360e+06
  -6.075455e+05  -1.873047e+06
   5.782834e+05  -1.449038e+06
   1.274350e+06  -2.175570e+04
   8.231430e+05   1.275216e+06
  -3.879347e+05   1.394619e+06
  -1.174444e+06   3.841857e+05
  -8.129122e+05  -7.339348e+05
   1.457855e+05  -1.095395e+06
   5.641059e+05  -7.709111e+05
   8.958435e+04  -3.902431e+05
  -4.528293e+05  -3.150198e+05
  -7.690915e+04  -3.773760e+05
   1.155205e+06  -2.256584e+05
   2.085814e+06   2.980473e+05
   1.632362e+06   1.011179e+06
  -4.083259e+04   1.446175e+06
  -1.596062e+06   1.176242e+06
  -1.825466e+06   2.943496e+05
  -8.191386e+05  -5.116128e+05
   2.686302e+05  -5.888480e+05
   5.157080e+05  -2.540521e+04
   4.757497e+04   4.484482e+05
  -4.224806e+05   2.808973e+05
  -4.946320e+05  -3.285017e+05
  -3.078105e+05  -7.129205e+05
  -1.405789e+05  -4.809668e+05
  -1.244315e+05   7.578328e+04
  -2.371353e+05   2.765942e+05
  -2.728735e+05  -2.263125e+05
   9.477521e+04  -9.791974e+05
   8.708320e+05  -1.092454e+06
   1.398727e+06  -2.242128e+05
   9.152761e+05   8.970290e+05
  -3.905957e+05   1.179638e+06
  -1.276469e+06   3.992020e+05
  -7.556768e+05  -5.405004e+05
   6.897801e+05  -6.550423e+05
   1.563386e+06   7.044001e+04
   9.731511e+05   8.313651e+05
  -4.849297e+05   9.581436e+05
  -1.457137e+06   4.657034e+05
  -1.192083e+06  -1.775150e+05
  -1.296788e+05  -4.947858e+05
   6.399503e+05  -2.658848e+05
   4.004741e+05   2.974733e+05
  -5.539105e+05   5.608870e+05
  -1.192364e+06  -1.631219e+04
  -7.454554e+05  -1.149533e+06
   4.944969e+05  -1.741329e+06
   1.436002e+06  -9.627453e+05
   1.281285e+06   6.991254e+05
   2.667541e+05   1.769191e+06
  -6.908511e+05   1.289067e+06
  -9.123418e+05  -1.722209e+05
  -4.362477e+05  -1.170225e+06
   2.210138e+05  -9.420069e+05
   5.642571e+05  -8.268602e+04
   4.493940e+05   3.490731e+05
   1.386575e+05   1.155204e+05
   5.516137e+04  -8.437007e+04
   3.271284e+05   3.153123e+05
   5.521185e+05   9.578727e+05
   1.875982e+05   1.052003e+06
  -7.400889e+05   3.993483e+05
  -1.475766e+06  -4.130644e+05
  -1.263771e+06  -7.842017e+05
  -2.003165e+05  -6.958312e+05
   8.037365e+05  -4.555452e+05
   9.585672e+05  -2.034903e+05
   3.844699e+05   6.606518e+04
  -1.250345e+05   2.356459e+05
  -6.403517e+04   1.779821e+05
   2.293365e+05   5.362096e+04
   7.248522e+04   1.314326e+05
  -6.079754e+05   2.850525e+05
  -1.052345e+06   4.036070e+04
  -5.206229e+05  -6.933888e+05
   7.575076e+05  -1.241890e+06
   1.702372e+06  -8.479370e+05
   1.484814e+06   3.597828e+05
   3.494877e+05   1.387924e+06
  -7.256260e+05   1.416190e+06
  -1.032651e+06   6.098072e+05
  -6.617533e+05  -1.790312e+05
  -1.675015e+05  -3.567005e+05
   3.328918e+04  -1.030187e+05
  -8.946016e+04  -1.335781e+04
  -2.910392e+05  -3.650812e+05
  -2.609396e+05  -7.940498e+05
   1.433439e+05  -6.972362e+05
   6.818188e+05   5.918298e+04
   8.116816e+05   8.926061e+05
   2.105087e+05   1.039106e+06
  -7.209076e+05   3.298462e+05
  -1.087574e+06  -6.349260e+05
  -4.261377e+05  -1.080573e+06
   6.805618e+05  -7.439095e+05
   1.145826e+06   1.544146e+04
   5.791779e+05   6.241571e+05
  -2.668710e+05   7.316352e+05
  -4.022640e+05   3.879733e+05
   2.084340e+05  -2.498223e+04
   6.372077e+05  -7.679606e+04
   1.734137e+05   3.117981e+05
  -7.939231e+05   7.085997e+05
  -1.265379e+06   5.571150e+05
  -8.062286e+05  -1.838941e+05
   5.653180e+04  -8.904394e+05
   5.536872e+05  -8.914342e+05
   4.656318e+05  -2.049710e+05
   1.010701e+05   4.622734e+05
  -2.147020e+05   4.707011e+05
  -3.622796e+05  -9.194691e+04
  -2.869821e+05  -5.647098e+05
   2.797388e+04  -4.666788e+05
   3.972561e+05   9.508629e+03
   4.977588e+05   2.878709e+05
   2.433791e+05   1.096976e+05
  -5.629584e+04  -1.822622e+05
  -7.541054e+04  -1.032332e+05
   8.718977e+04   3.358921e+05
   4.721210e+04   6.076963e+05
  -2.945936e+05   3.097744e+05
  -5.362727e+05  -3.179875e+05
  -2.595354e+05  -6.445220e+05
   3.755866e+05  -3.571817e+05
   7.087663e+05   2.244538e+05
   3.049009e+05   5.478910e+05
  -5.027072e+05   3.942564e+05
  -9.130394e+05  -1.782116e+04
  -5.097430e+05  -3.550403e+05
   2.787337e+05  -4.451969e+05
   6.445054e+05  -2.953423e+05
   2.826312e+05  -3.241124e+04
  -3.026937e+05   1.252867e+05
  -3.998548e+05   5.127865e+03
   1.125538e+05  -2.775306e+05
   6.691513e+05  -3.191473e+05
