
 $NMID
 id='ANONYMOUS ', fmtdat='(2E16.6)'
 volume=1.0
 tramp=1.0
 $END
  -4.824985e+07   1.338189e+05
  -2.951504e+07  -2.870370e+07
   5.365933e+06  -3.230473e+07
   2.311235e+07  -1.374348e+07
   1.456906e+07   4.733456e+06
  -2.216154e+06   8.069311e+06
  -8.579381e+06  -1.949147e+05
  -3.155349e+06  -8.220913e+06
   4.776954e+06  -8.790249e+06
   8.341389e+06  -2.385758e+06
   6.301458e+06   5.419896e+06
   7.976438e+05   7.787707e+06
  -3.608173e+06   2.341460e+06
  -2.537503e+06  -5.207991e+06
   3.104724e+06  -6.269596e+06
   6.938766e+06   7.955679e+05
   4.183280e+06   8.828197e+06
  -3.026870e+06   1.040809e+07
  -8.726013e+06   5.202218e+06
  -9.305434e+06  -1.882512e+06
  -5.449802e+06  -6.472818e+06
  -4.018762e+05  -7.112562e+06
   2.161103e+06  -4.826288e+06
   7.954701e+05  -2.460870e+06
  -1.530763e+06  -2.575669e+06
  -5.618513e+04  -4.303376e+06
   5.393999e+06  -3.975648e+06
   9.038183e+06  -1.637584e+05
   6.255354e+06   3.907727e+06
  -2.013007e+05   4.521311e+06
  -3.802277e+06   2.029334e+06
  -2.252999e+06  -5.168534e+05
   1.137972e+06  -1.318900e+06
   2.796553e+06  -3.829084e+05
   2.185792e+06   1.862192e+06
   2.889074e+05   3.966176e+06
  -1.811958e+06   3.299336e+06
  -2.564298e+06  -4.653123e+05
  -1.093080e+06  -3.194954e+06
   7.326897e+05  -1.202435e+06
   8.259082e+04   2.693390e+06
  -2.315028e+06   2.306234e+06
  -2.306005e+06  -2.678226e+06
   1.709432e+06  -5.329513e+06
   5.588860e+06  -1.024441e+06
   4.360424e+06   5.767780e+06
  -1.426405e+06   7.266348e+06
  -6.413094e+06   2.148712e+06
  -6.429801e+06  -3.851867e+06
  -2.012120e+06  -5.475341e+06
   3.075073e+06  -2.728760e+06
   5.029055e+06   1.092975e+06
   2.544278e+06   3.046525e+06
  -1.952577e+06   2.075389e+06
  -4.035379e+06  -6.296610e+05
  -1.862031e+06  -2.292398e+06
   1.460797e+06  -1.241853e+06
   1.712724e+06   8.667772e+05
  -9.040283e+05   1.017547e+06
  -2.222556e+06  -1.087954e+06
   8.973982e+04  -2.697731e+06
   3.609490e+06  -1.781536e+06
   4.589138e+06   8.259395e+05
   2.188128e+06   3.313027e+06
  -1.665545e+06   4.757820e+06
  -4.774668e+06   4.418991e+06
  -5.735127e+06   1.476584e+06
  -4.038878e+06  -3.007418e+06
  -7.935013e+05  -5.689938e+06
   1.507359e+06  -4.490673e+06
   1.428169e+06  -1.451054e+06
   3.229510e+05  -1.536300e+05
   4.527107e+05  -1.067960e+06
   1.932517e+06  -1.502854e+06
   2.822187e+06   1.385616e+05
   1.857905e+06   2.197879e+06
  -2.039710e+05   2.260259e+06
  -1.771871e+06   1.639185e+05
  -1.759876e+06  -2.191188e+06
   5.586294e+04  -2.925680e+06
   2.715827e+06  -1.471922e+06
   4.130326e+06   1.278130e+06
   2.824856e+06   3.485093e+06
  -9.757139e+04   3.718064e+06
  -1.970544e+06   2.345111e+06
  -1.876258e+06   1.066231e+06
  -1.625726e+06   7.811832e+05
  -2.811192e+06   6.111655e+05
  -4.229275e+06  -6.081514e+05
  -3.452104e+06  -2.619401e+06
  -1.964656e+05  -4.056884e+06
   3.155186e+06  -3.875749e+06
   4.173150e+06  -2.039091e+06
   2.600019e+06   5.407700e+05
   1.333786e+05   2.262178e+06
  -1.196222e+06   1.854846e+06
  -5.434541e+05  -8.603999e+04
   1.110818e+06  -1.280523e+06
   1.842489e+06  -3.907023e+05
   8.458155e+05   1.159293e+06
  -5.519585e+05   1.115033e+06
  -5.219495e+05  -3.583491e+05
   8.888852e+05  -8.418671e+05
   1.825552e+06   9.082539e+05
   9.610811e+05   3.182931e+06
  -1.121744e+06   3.511663e+06
  -2.921549e+06   1.511334e+06
  -3.456490e+06  -1.146293e+06
  -2.524492e+06  -2.739593e+06
  -5.568095e+05  -2.696205e+06
   1.260366e+06  -1.484251e+06
   1.598031e+06  -2.103664e+05
   4.907950e+05   4.104697e+04
  -3.675458e+05  -7.398748e+05
   3.629222e+05  -1.296249e+06
   1.817139e+06  -5.862091e+05
   1.992021e+06   7.966461e+05
   4.290575e+05   1.350474e+06
  -1.139466e+06   6.003602e+05
  -9.427958e+05  -4.325487e+05
   7.939275e+05  -6.144233e+05
   2.242062e+06   1.787320e+05
   1.888289e+06   1.319636e+06
  -1.498770e+05   2.052526e+06
  -2.289235e+06   1.746015e+06
  -2.771872e+06   3.259637e+05
  -1.215813e+06  -1.214126e+06
   8.770750e+05  -1.450176e+06
   1.488951e+06  -1.886117e+05
   1.763950e+05   1.041505e+06
  -1.489331e+06   7.364641e+05
  -1.722518e+06  -7.297192e+05
  -4.084258e+05  -1.631358e+06
   1.027299e+06  -1.037585e+06
   1.268013e+06   2.280260e+05
   3.021437e+05   7.501435e+05
  -7.591405e+05   7.203066e+04
  -7.299435e+05  -1.032640e+06
   5.736561e+05  -1.415187e+06
   2.000474e+06  -5.419123e+05
   2.028499e+06   1.035367e+06
   4.028257e+05   2.053275e+06
  -1.395994e+06   1.649452e+06
  -1.707215e+06   2.487950e+05
  -5.314431e+05  -8.468706e+05
   6.345197e+05  -8.215816e+05
   6.622576e+05  -8.189948e+04
  -8.415042e+04   4.154805e+05
  -5.293494e+05   2.746518e+05
  -2.157598e+05  -7.365226e+04
   3.952454e+05  -4.916013e+03
   5.470199e+05   5.977845e+05
  -1.474690e+05   1.171200e+06
  -1.349931e+06   9.194279e+05
  -2.078636e+06  -3.809673e+05
  -1.478430e+06  -1.918209e+06
   1.901068e+05  -2.429957e+06
   1.601091e+06  -1.469484e+06
   1.727971e+06   7.210776e+04
   9.321586e+05   9.204277e+05
   3.501537e+05   7.424054e+05
   4.319364e+05   2.766702e+05
   5.670262e+05   2.870498e+05
   8.801198e+04   7.222073e+05
  -8.438460e+05   9.185419e+05
  -1.451498e+06   3.739240e+05
  -1.101326e+06  -7.172577e+05
   2.006787e+05  -1.508691e+06
   1.710261e+06  -1.127091e+06
   2.269955e+06   4.458827e+05
   1.184438e+06   2.072249e+06
  -9.358309e+05   2.366551e+06
  -2.489768e+06   1.088920e+06
  -2.374632e+06  -5.804684e+05
  -1.039235e+06  -1.319257e+06
   1.534057e+05  -1.003951e+06
   4.217600e+05  -5.718230e+05
   1.476209e+05  -7.510793e+05
   1.301481e+05  -1.260789e+06
   6.444984e+05  -1.256983e+06
   1.264582e+06  -3.188569e+05
   1.336407e+06   1.070120e+06
   5.704369e+05   1.889806e+06
  -6.126884e+05   1.442836e+06
  -1.288568e+06   2.178516e+04
  -8.372041e+05  -1.249542e+06
   3.383326e+05  -1.392283e+06
   1.111162e+06  -4.585412e+05
   8.079447e+05   6.206661e+05
  -6.730893e+04   1.034765e+06
  -4.681195e+05   7.911644e+05
  -5.509700e+04   4.385531e+05
   4.264811e+05   3.441406e+05
   5.735516e+04   3.879834e+05
  -1.124071e+06   2.286897e+05
  -2.034955e+06  -2.989578e+05
  -1.624808e+06  -9.977087e+05
  -1.162472e+04  -1.404190e+06
   1.533692e+06  -1.141868e+06
   1.809535e+06  -3.223321e+05
   8.481544e+05   4.362680e+05
  -2.370857e+05   5.478483e+05
  -4.967350e+05   5.780156e+04
  -1.914754e+04  -3.931169e+05
   4.551337e+05  -2.557757e+05
   4.795073e+05   3.376200e+05
   2.281235e+05   7.315762e+05
   6.978776e+04   4.821932e+05
   1.384560e+05  -1.197250e+05
   2.998764e+05  -3.258755e+05
   2.840980e+05   2.248907e+05
  -1.458121e+05   1.000032e+06
  -8.855125e+05   1.069352e+06
  -1.322189e+06   1.662153e+05
  -8.238960e+05  -9.082717e+05
   4.041035e+05  -1.113219e+06
   1.233745e+06  -3.190738e+05
   7.359351e+05   5.752308e+05
  -6.861668e+05   6.621533e+05
  -1.602556e+06  -5.957909e+04
  -1.057195e+06  -8.411812e+05
   4.407641e+05  -1.018873e+06
   1.499834e+06  -5.401557e+05
   1.262722e+06   1.525916e+05
   1.564900e+05   5.194224e+05
  -6.426641e+05   2.910809e+05
  -3.778137e+05  -2.814095e+05
   5.945146e+05  -5.169745e+05
   1.185065e+06   8.831494e+04
   6.622953e+05   1.188149e+06
  -6.006812e+05   1.705638e+06
  -1.492455e+06   8.888603e+05
  -1.268684e+06  -7.550129e+05
  -2.216765e+05  -1.802435e+06
   7.274601e+05  -1.322493e+06
   9.348592e+05   1.497100e+05
   4.638433e+05   1.188429e+06
  -1.872168e+05   9.862115e+05
  -5.566403e+05   9.945478e+04
  -4.880237e+05  -3.759851e+05
  -1.828048e+05  -1.400532e+05
  -4.100818e+04   1.008838e+05
  -2.603811e+05  -2.841646e+05
  -5.145832e+05  -9.605846e+05
  -2.243401e+05  -1.083117e+06
   6.909330e+05  -4.069345e+05
   1.490886e+06   4.494761e+05
   1.314096e+06   8.234570e+05
   1.962627e+05   6.957344e+05
  -8.669884e+05   4.318477e+05
  -9.915988e+05   2.015170e+05
  -3.502634e+05  -4.151294e+04
   1.490382e+05  -2.276878e+05
   1.616312e+04  -2.129114e+05
  -2.853728e+05  -9.875263e+04
  -4.628330e+04  -1.349666e+05
   6.801408e+05  -2.416863e+05
   1.050620e+06   2.926885e+03
   4.205488e+05   6.902403e+05
  -8.461463e+05   1.187252e+06
  -1.689264e+06   7.701232e+05
  -1.406636e+06  -4.254930e+05
  -2.899379e+05  -1.412804e+06
   7.492826e+05  -1.387453e+06
   1.048640e+06  -5.455598e+05
   6.650579e+05   2.319681e+05
   1.334624e+05   3.590384e+05
  -8.270219e+04   6.152390e+04
   7.569130e+04  -2.636593e+04
   3.125198e+05   3.606726e+05
   2.646009e+05   8.081974e+05
  -1.736871e+05   6.829409e+05
  -6.901616e+05  -1.194447e+05
  -7.510461e+05  -9.543768e+05
  -1.190395e+05  -1.035935e+06
   7.614515e+05  -2.513195e+05
   1.049373e+06   7.185490e+05
   3.598820e+05   1.090487e+06
  -7.095031e+05   6.846583e+05
  -1.120962e+06  -6.192490e+04
  -5.364957e+05  -6.017973e+05
   2.792706e+05  -6.768114e+05
   3.681134e+05  -3.717984e+05
  -2.580859e+05  -7.041038e+03
  -6.547959e+05   4.843565e+04
  -1.487608e+05  -3.063097e+05
   8.193265e+05  -6.958241e+05
   1.249199e+06  -5.665559e+05
   7.591769e+05   1.620473e+05
  -8.506422e+04   8.720944e+05
  -5.355941e+05   8.640671e+05
  -4.186163e+05   1.618016e+05
  -5.804969e+04  -4.848907e+05
   2.359792e+05  -4.375454e+05
   3.581849e+05   1.489317e+05
   2.635669e+05   5.767889e+05
  -4.935719e+04   4.246948e+05
  -3.941157e+05  -4.153836e+04
  -4.791730e+05  -2.705272e+05
  -2.442435e+05  -8.904828e+04
   3.246493e+04   1.460642e+05
   8.128741e+04   3.183566e+04
  -9.920527e+03  -3.612930e+05
   5.518874e+04  -5.499237e+05
   3.236931e+05  -2.146030e+05
   4.605942e+05   3.829174e+05
   1.579173e+05   6.521577e+05
  -4.088996e+05   3.208899e+05
  -6.697484e+05  -2.746553e+05
  -2.625191e+05  -5.753584e+05
   5.026171e+05  -3.746648e+05
   8.859929e+05   6.448408e+04
   4.863819e+05   3.722195e+05
  -2.897371e+05   4.032984e+05
  -6.385921e+05   2.347554e+05
  -2.476023e+05   2.065259e+04
   3.537918e+05  -7.213490e+04
   4.147776e+05   6.211991e+04
  -1.675426e+05   3.004044e+05
  -7.500552e+05   2.877624e+05
