
 $NMID
 id='ANONYMOUS ', fmtdat='(2E16.6)'
 volume=1.0
 tramp=1.0
 $END
  -1.094810e+07  -1.200041e+06
  -7.001436e+06  -4.792404e+06
  -5.730203e+04  -6.449085e+06
   4.643530e+06  -5.151184e+06
   4.314218e+06  -1.263853e+06
   5.965509e+05   2.093853e+06
  -2.466565e+06   1.669380e+06
  -2.299402e+06  -1.745703e+06
   2.216904e+05  -3.788062e+06
   2.253638e+06  -1.831858e+06
   1.983062e+06   1.785708e+06
   6.928335e+04   2.848001e+06
  -1.419127e+06   3.794893e+05
  -1.073963e+06  -2.604466e+06
   6.726825e+05  -2.891996e+06
   2.024288e+06  -3.801881e+05
   1.491772e+06   2.364571e+06
  -6.056511e+05   2.919383e+06
  -2.330395e+06   1.126283e+06
  -2.102159e+06  -1.095282e+06
  -4.428419e+05  -1.790831e+06
   6.127827e+05  -9.205482e+05
  -1.060807e+05  -1.955785e+05
  -1.521069e+06  -9.068826e+05
  -1.538936e+06  -2.321402e+06
   5.443521e+05  -2.631879e+06
   3.132274e+06  -1.167264e+06
   3.824716e+06   9.200673e+05
   1.808695e+06   2.013280e+06
  -1.179408e+06   1.491506e+06
  -2.391258e+06  -6.305390e+04
  -8.044502e+05  -1.422752e+06
   1.758226e+06  -1.416038e+06
   2.581638e+06   1.646482e+05
   1.044436e+06   2.008849e+06
  -8.842365e+05   2.270992e+06
  -1.186558e+06   6.274841e+05
  -7.511638e+04  -1.096077e+06
   7.319756e+05  -9.516357e+05
   3.352501e+05   7.784734e+05
  -5.989245e+05   1.946143e+06
  -1.097708e+06   1.173810e+06
  -9.185486e+05  -5.910292e+05
  -2.873394e+05  -1.368513e+06
   4.792637e+05  -4.380391e+05
   7.753145e+05   1.060299e+06
  -4.617102e+04   1.520116e+06
  -1.630477e+06   4.597352e+05
  -2.413994e+06  -1.185727e+06
  -1.239487e+06  -2.029753e+06
   1.047072e+06  -1.447852e+06
   2.324183e+06  -4.218384e+04
   1.526838e+06   9.763029e+05
  -2.931149e+05   9.001328e+05
  -1.301877e+06   7.993926e+04
  -7.962851e+05  -5.546849e+05
   3.700196e+05  -4.234109e+05
   8.825825e+05   2.533995e+05
   2.591456e+05   7.724196e+05
  -7.470498e+05   6.139816e+05
  -9.190785e+05  -9.785156e+04
   7.696840e+04  -6.632765e+05
   1.136991e+06  -4.055224e+05
   8.393681e+05   6.251644e+05
  -8.361239e+05   1.541296e+06
  -2.339432e+06   1.375715e+06
  -2.300758e+06   4.401848e+04
  -1.027702e+06  -1.513951e+06
   9.729742e+04  -2.224922e+06
   3.465799e+05  -1.878635e+06
   2.325732e+05  -1.173525e+06
   5.138948e+05  -8.099318e+05
   1.208782e+06  -6.920746e+05
   1.721184e+06  -1.770772e+05
   1.531048e+06   9.149601e+05
   5.864271e+05   1.792693e+06
  -6.603549e+05   1.454279e+06
  -1.411773e+06  -6.667519e+04
  -1.034040e+06  -1.502473e+06
   2.710914e+05  -1.583461e+06
   1.445857e+06  -3.358695e+05
   1.528858e+06   1.038141e+06
   6.156496e+05   1.478584e+06
  -3.242949e+05   1.022095e+06
  -5.660074e+05   4.616809e+05
  -3.624719e+05   3.570932e+05
  -5.043691e+05   5.487555e+05
  -1.282248e+06   4.822924e+05
  -2.016401e+06  -1.886729e+05
  -1.687129e+06  -1.257990e+06
  -8.168721e+04  -2.052991e+06
   1.740487e+06  -1.907568e+06
   2.323077e+06  -7.616592e+05
   1.270538e+06   6.365849e+05
  -3.011422e+05   1.276804e+06
  -9.224465e+05   7.936841e+05
  -2.675247e+05  -1.704753e+05
   6.896049e+05  -5.989907e+05
   8.924941e+05  -1.340573e+05
   2.693708e+05   5.715456e+05
  -4.212816e+05   6.010436e+05
  -4.810468e+05  -1.434424e+05
   1.420074e+05  -7.357567e+05
   8.992554e+05  -2.366659e+05
   1.049902e+06   1.137455e+06
   2.111792e+05   2.074697e+06
  -1.198737e+06   1.521305e+06
  -2.120295e+06  -1.569926e+05
  -1.754262e+06  -1.545275e+06
  -4.002296e+05  -1.646822e+06
   7.756616e+05  -7.769233e+05
   9.074430e+05  -3.696459e+03
   2.568944e+05   3.683133e+04
  -1.961392e+05  -3.811141e+05
   1.227533e+05  -5.912537e+05
   8.004203e+05  -2.765536e+05
   9.636706e+05   2.984098e+05
   2.939552e+05   6.093384e+05
  -5.572242e+05   3.673139e+05
  -6.208674e+05  -1.997308e+05
   3.040419e+05  -5.068619e+05
   1.310569e+06  -1.420043e+05
   1.271112e+06   6.851629e+05
   6.394686e+04   1.265832e+06
  -1.240507e+06   1.046263e+06
  -1.487038e+06   1.819496e+05
  -6.039485e+05  -5.864050e+05
   4.285965e+05  -6.339861e+05
   6.517583e+05  -4.642525e+04
   1.100203e+04   4.793627e+05
  -7.565647e+05   3.448936e+05
  -9.059278e+05  -3.320326e+05
  -3.237805e+05  -8.450102e+05
   4.435256e+05  -6.673323e+05
   7.076813e+05  -3.010187e+04
   2.819765e+05   3.480249e+05
  -3.094067e+05   7.277619e+04
  -3.384729e+05  -5.034894e+05
   3.338441e+05  -6.948328e+05
   1.044483e+06  -2.106607e+05
   1.009952e+06   5.841290e+05
   1.797972e+05   1.049698e+06
  -7.017547e+05   8.373625e+05
  -8.797474e+05   1.536750e+05
  -3.287539e+05  -4.310601e+05
   3.107623e+05  -4.695727e+05
   4.335678e+05  -3.793954e+04
   3.602695e+04   3.481696e+05
  -3.697978e+05   2.876831e+05
  -3.303510e+05  -5.869638e+04
   7.616058e+04  -1.758220e+05
   3.261005e+05   1.579916e+05
   1.601307e+04   5.656126e+05
  -6.636939e+05   4.835251e+05
  -1.066344e+06  -2.013791e+05
  -7.314021e+05  -1.004765e+06
   1.391189e+05  -1.295151e+06
   8.793426e+05  -8.479252e+05
   1.006814e+06  -1.338339e+04
   6.270954e+05   5.965845e+05
   2.182781e+05   6.327071e+05
   9.564207e+04   2.986434e+05
   1.363643e+05   1.024792e+05
   4.832271e+03   2.724993e+05
  -4.039676e+05   4.803125e+05
  -7.771672e+05   2.470382e+05
  -6.602007e+05  -4.113857e+05
   5.420855e+04  -8.969119e+05
   9.126854e+05  -6.487981e+05
   1.225139e+06   2.361106e+05
   6.677329e+05   1.070171e+06
  -4.013439e+05   1.215643e+06
  -1.229247e+06   6.208838e+05
  -1.296057e+06  -2.102492e+05
  -7.039045e+05  -6.999258e+05
  -3.188152e+03  -6.730419e+05
   3.325695e+05  -4.319741e+05
   2.819218e+05  -3.765334e+05
   1.860528e+05  -5.420055e+05
   3.270683e+05  -5.593860e+05
   6.072823e+05  -1.172860e+05
   6.552794e+05   5.951082e+05
   2.543473e+05   1.009042e+06
  -3.618742e+05   7.500271e+05
  -6.904930e+05   2.007592e+04
  -4.559686e+05  -6.081210e+05
   1.037222e+05  -7.146734e+05
   4.783483e+05  -3.360573e+05
   3.978641e+05   1.634715e+05
   6.814527e+04   4.420462e+05
  -1.034264e+05   4.274594e+05
   2.634375e+04   2.924076e+05
   1.843306e+05   2.225533e+05
   7.854754e+02   2.154924e+05
  -5.358781e+05   1.168784e+05
  -9.792182e+05  -1.593919e+05
  -8.317752e+05  -4.937441e+05
  -8.143893e+04  -6.618260e+05
   7.081945e+05  -5.413321e+05
   9.150155e+05  -2.100084e+05
   4.742960e+05   1.147379e+05
  -8.354171e+04   2.219985e+05
  -2.254862e+05   7.237395e+04
   4.211558e+04  -1.284627e+05
   2.890680e+05  -9.747115e+04
   2.271464e+05   1.932083e+05
   5.457874e+03   4.166624e+05
  -6.374034e+04   2.621505e+05
   8.480165e+04  -1.225025e+05
   2.311649e+05  -2.460079e+05
   1.558204e+05   1.067636e+05
  -1.437994e+05   5.457821e+05
  -4.736279e+05   5.209245e+05
  -5.772282e+05  -1.543215e+03
  -2.991456e+05  -4.938680e+05
   2.339285e+05  -4.835266e+05
   5.877415e+05  -4.660913e+04
   3.574942e+05   3.501271e+05
  -3.505470e+05   3.524430e+05
  -8.846602e+05  -1.130057e+04
  -6.665418e+05  -4.382468e+05
   1.588709e+05  -6.064020e+05
   8.267706e+05  -3.910829e+05
   7.502307e+05   3.221392e+04
   1.233957e+05   3.002794e+05
  -3.331704e+05   1.903484e+05
  -1.644016e+05  -1.233649e+05
   3.680031e+05  -2.132001e+05
   6.134239e+05   1.444138e+05
   2.333105e+05   6.800809e+05
  -4.650894e+05   8.491356e+05
  -8.642920e+05   3.644761e+05
  -6.481781e+05  -4.730795e+05
  -5.575325e+04  -9.882954e+05
   4.237349e+05  -7.383763e+05
   5.130841e+05   4.099950e+04
   2.844592e+05   6.360786e+05
  -3.851908e+04   5.695475e+05
  -2.728113e+05   7.701532e+04
  -3.126264e+05  -2.252966e+05
  -1.629357e+05  -1.002767e+05
   5.173270e+02   7.507296e+04
  -3.642570e+04  -1.102325e+05
  -2.164379e+05  -5.063295e+05
  -1.760553e+05  -6.025325e+05
   2.864101e+05  -2.175089e+05
   8.009578e+05   2.813248e+05
   7.596069e+05   4.748431e+05
   9.598366e+04   3.597678e+05
  -5.429566e+05   1.983738e+05
  -5.608874e+05   1.072787e+05
  -1.286389e+05   9.450881e+03
   1.135440e+05  -1.110747e+05
  -6.349409e+04  -1.543747e+05
  -2.334689e+05  -1.060262e+05
   1.194152e+04  -7.600447e+04
   4.597086e+05  -7.361147e+04
   5.472896e+05   6.054663e+04
   7.553642e+04   3.652103e+05
  -5.710613e+05   5.508476e+05
  -8.660723e+05   2.887606e+05
  -6.256851e+05  -3.234012e+05
  -6.971330e+04  -7.748839e+05
   4.227581e+05  -6.807517e+05
   5.716678e+05  -1.943162e+05
   3.558061e+05   1.926099e+05
   2.234674e+04   1.919087e+05
  -1.181426e+05  -2.098755e+04
   1.382536e+04  -6.878226e+04
   1.929273e+05   1.761275e+05
   1.475898e+05   4.374156e+05
  -1.324014e+05   3.390842e+05
  -3.783673e+05  -1.439886e+05
  -3.139266e+05  -5.897180e+05
   6.766616e+04  -5.454561e+05
   4.637335e+05  -2.459260e+04
   5.017495e+05   4.964690e+05
   9.403836e+04   5.877096e+05
  -4.158883e+05   2.741043e+05
  -5.505369e+05  -9.996278e+04
  -2.147122e+05  -2.828492e+05
   1.669753e+05  -2.731699e+05
   1.414004e+05  -1.666705e+05
  -2.095838e+05  -4.439650e+04
  -3.673880e+05  -1.277422e+04
  -4.076809e+04  -1.536396e+05
   4.618882e+05  -3.472313e+05
   6.222180e+05  -3.076321e+05
   3.233793e+05   5.774996e+04
  -8.628237e+04   4.301168e+05
  -2.538988e+05   4.069012e+05
  -1.543460e+05   1.567559e+04
   2.861138e+04  -2.894377e+05
   1.566170e+05  -1.815730e+05
   1.871336e+05   1.596164e+05
   1.052416e+05   3.188619e+05
  -6.125808e+04   1.624123e+05
  -2.043614e+05  -6.734525e+04
  -2.201495e+05  -1.169754e+05
  -1.252106e+05  -1.623218e+04
  -2.167375e+04   2.642882e+04
   4.132411e+04  -8.730996e+04
   1.021071e+05  -2.342135e+05
   1.830443e+05  -2.156221e+05
   2.223155e+05   2.166427e+04
   1.389165e+05   3.016125e+05
  -6.277615e+04   3.621477e+05
  -2.640941e+05   1.187585e+05
  -2.974606e+05  -2.186564e+05
  -7.941009e+04  -3.423655e+05
   2.619070e+05  -1.664956e+05
   4.262266e+05   1.024581e+05
   2.215304e+05   2.198339e+05
  -1.709230e+05   1.510712e+05
  -3.307729e+05   3.489655e+04
  -7.985901e+04  -1.116683e+04
   2.644691e+05   3.093614e+04
   2.464326e+05   1.264529e+05
  -1.623565e+05   1.970012e+05
  -5.095073e+05   1.163698e+05
