
 $NMID
 id='ANONYMOUS ', fmtdat='(2E16.6)'
 volume=1.0
 tramp=1.0
 $END
   1.821968e+07   4.901139e+05
   1.233302e+07   7.466043e+06
   7.843893e+05   1.097469e+07
  -7.331119e+06   8.826803e+06
  -7.048799e+06   2.203046e+06
  -1.095337e+06  -3.316592e+06
   3.847826e+06  -2.636573e+06
   3.671473e+06   2.729965e+06
  -2.348223e+05   5.954451e+06
  -3.511775e+06   3.017544e+06
  -3.314052e+06  -2.575952e+06
  -4.332989e+05  -4.397222e+06
   2.058515e+06  -7.589910e+05
   1.767042e+06   3.910298e+06
  -9.463305e+05   4.562480e+06
  -3.294509e+06   7.281149e+05
  -2.668302e+06  -3.746850e+06
   6.705543e+05  -4.911183e+06
   3.662024e+06  -2.248731e+06
   3.616154e+06   1.354892e+06
   1.137100e+06   2.752239e+06
  -6.476971e+05   1.661774e+06
   2.411169e+05   5.634143e+05
   2.341008e+06   1.489683e+06
   2.447223e+06   3.536745e+06
  -6.934240e+05   4.088710e+06
  -4.756368e+06   2.024008e+06
  -5.985447e+06  -1.107734e+06
  -2.985339e+06  -2.903749e+06
   1.620398e+06  -2.294542e+06
   3.566342e+06  -3.001682e+04
   1.244628e+06   2.061644e+06
  -2.605970e+06   2.165691e+06
  -3.924287e+06  -1.233169e+05
  -1.757886e+06  -2.940408e+06
   1.079126e+06  -3.509741e+06
   1.676872e+06  -1.168682e+06
   2.300412e+05   1.501969e+06
  -9.375360e+05   1.475288e+06
  -5.008062e+05  -1.084201e+06
   7.980543e+05  -2.992433e+06
   1.656074e+06  -1.921551e+06
   1.520592e+06   8.825883e+05
   4.806527e+05   2.254459e+06
  -9.138870e+05   8.114103e+05
  -1.445390e+06  -1.713078e+06
  -1.578494e+04  -2.594882e+06
   2.646205e+06  -9.248348e+05
   3.939057e+06   1.762670e+06
   2.069939e+06   3.173963e+06
  -1.570343e+06   2.321434e+06
  -3.645574e+06   1.709080e+05
  -2.461231e+06  -1.428046e+06
   3.953672e+05  -1.399217e+06
   2.045765e+06  -2.099570e+05
   1.300417e+06   7.874518e+05
  -5.445669e+05   6.664569e+05
  -1.373420e+06  -3.321665e+05
  -3.919591e+05  -1.151051e+06
   1.174296e+06  -9.244882e+05
   1.387835e+06   2.040409e+05
  -2.239376e+05   1.119668e+06
  -1.893206e+06   7.042695e+05
  -1.435780e+06  -9.993275e+05
   1.157871e+06  -2.576799e+06
   3.540535e+06  -2.426964e+06
   3.628917e+06  -3.278875e+05
   1.808680e+06   2.246067e+06
   8.897459e+04   3.503273e+06
  -3.981296e+05   3.010139e+06
  -3.143557e+05   1.872773e+06
  -7.571141e+05   1.277797e+06
  -1.809047e+06   1.122568e+06
  -2.623967e+06   3.715040e+05
  -2.396044e+06  -1.301930e+06
  -9.960023e+05  -2.684518e+06
   9.161861e+05  -2.222551e+06
   2.128486e+06   5.304056e+04
   1.643405e+06   2.244586e+06
  -3.130689e+05   2.442154e+06
  -2.194161e+06   6.338392e+05
  -2.476909e+06  -1.455867e+06
  -1.156669e+06  -2.244225e+06
   3.544832e+05  -1.684868e+06
   8.506762e+05  -8.682612e+05
   5.942402e+05  -6.550482e+05
   8.036909e+05  -9.041267e+05
   2.015455e+06  -8.194344e+05
   3.205278e+06   1.867035e+05
   2.737655e+06   1.875182e+06
   2.457203e+05   3.210677e+06
  -2.608494e+06   3.091294e+06
  -3.554478e+06   1.347537e+06
  -1.991194e+06  -8.798343e+05
   3.763643e+05  -1.970911e+06
   1.335097e+06  -1.278441e+06
   3.900023e+05   2.347099e+05
  -1.029905e+06   9.500262e+05
  -1.357309e+06   2.535246e+05
  -4.498502e+05  -8.517052e+05
   5.938108e+05  -9.158948e+05
   7.062814e+05   2.227243e+05
  -2.406669e+05   1.118373e+06
  -1.424740e+06   3.256907e+05
  -1.674905e+06  -1.797590e+06
  -3.683185e+05  -3.234350e+06
   1.849911e+06  -2.394386e+06
   3.323918e+06   1.619999e+05
   2.794886e+06   2.308748e+06
   7.027203e+05   2.533390e+06
  -1.151996e+06   1.263170e+06
  -1.397001e+06   7.620503e+04
  -4.007672e+05  -3.239190e+04
   3.150982e+05   5.848181e+05
  -1.735502e+05   9.271570e+05
  -1.238122e+06   4.671680e+05
  -1.503628e+06  -4.219828e+05
  -4.642535e+05  -9.216641e+05
   8.544894e+05  -5.629032e+05
   9.413330e+05   3.090996e+05
  -4.999601e+05   7.916510e+05
  -2.055441e+06   2.455707e+05
  -1.994882e+06  -1.028835e+06
  -1.377903e+05  -1.963916e+06
   1.883301e+06  -1.684730e+06
   2.299742e+06  -3.683150e+05
   9.731909e+05   8.693602e+05
  -6.236158e+05   1.010758e+06
  -1.005319e+06   1.176973e+05
  -4.089800e+04  -7.359939e+05
   1.158382e+06  -5.692204e+05
   1.419525e+06   4.745077e+05
   5.329732e+05   1.290754e+06
  -6.617983e+05   1.037249e+06
  -1.081389e+06   6.113831e+04
  -4.226711e+05  -5.234464e+05
   5.011433e+05  -1.001637e+05
   5.506611e+05   7.982632e+05
  -5.032557e+05   1.116924e+06
  -1.636279e+06   3.866626e+05
  -1.616747e+06  -8.589053e+05
  -3.407531e+05  -1.629477e+06
   1.044568e+06  -1.345715e+06
   1.350243e+06  -2.930245e+05
   5.178362e+05   6.380279e+05
  -4.613572e+05   7.240476e+05
  -6.454140e+05   6.736665e+04
  -3.387250e+04  -5.279000e+05
   5.757517e+05  -4.338054e+05
   4.910984e+05   1.004013e+05
  -1.522274e+05   2.745991e+05
  -5.402493e+05  -2.571823e+05
  -5.025577e+04  -9.117721e+05
   1.027862e+06  -8.057535e+05
   1.693287e+06   2.572375e+05
   1.211251e+06   1.535215e+06
  -1.350233e+05   2.029545e+06
  -1.317231e+06   1.363916e+06
  -1.559368e+06   7.548665e+04
  -9.980712e+05  -8.735402e+05
  -3.739646e+05  -9.353688e+05
  -1.890697e+05  -4.333565e+05
  -2.558733e+05  -1.582741e+05
  -4.514186e+04  -4.537263e+05
   6.116244e+05  -7.975351e+05
   1.223106e+06  -4.376065e+05
   1.067806e+06   6.096109e+05
  -4.055506e+04   1.412874e+06
  -1.406302e+06   1.071726e+06
  -1.938575e+06  -3.032069e+05
  -1.097075e+06  -1.649001e+06
   5.806843e+05  -1.933442e+06
   1.904328e+06  -1.032784e+06
   2.031320e+06   2.720599e+05
   1.112468e+06   1.056124e+06
   2.404670e+04   1.031260e+06
  -4.827913e+05   6.713771e+05
  -3.853665e+05   6.014826e+05
  -2.342948e+05   8.724384e+05
  -4.756943e+05   9.092786e+05
  -9.503316e+05   2.277064e+05
  -1.064725e+06  -8.874697e+05
  -4.597392e+05  -1.559710e+06
   5.180377e+05  -1.190625e+06
   1.075286e+06  -6.349491e+04
   7.436821e+05   9.375978e+05
  -1.358470e+05   1.129012e+06
  -7.525699e+05   5.371254e+05
  -6.433807e+05  -2.643731e+05
  -1.149541e+05  -7.117362e+05
   1.679240e+05  -6.765783e+05
  -4.586171e+04  -4.431157e+05
  -3.145408e+05  -3.274272e+05
  -2.435883e+04  -3.382954e+05
   8.474228e+05  -2.216578e+05
   1.569339e+06   1.896193e+05
   1.337887e+06   7.346760e+05
   1.462775e+05   1.050999e+06
  -1.099746e+06   9.006664e+05
  -1.425960e+06   3.715960e+05
  -7.433056e+05  -1.774473e+05
   1.241242e+05  -3.686560e+05
   3.590805e+05  -1.206830e+05
  -3.820231e+04   2.203487e+05
  -4.300370e+05   1.823320e+05
  -3.745369e+05  -2.800236e+05
  -6.197376e+04  -6.412642e+05
   6.186211e+04  -4.083296e+05
  -1.256680e+05   1.885225e+05
  -3.415235e+05   3.827096e+05
  -2.592248e+05  -1.682438e+05
   1.784414e+05  -8.692586e+05
   7.183654e+05  -8.584896e+05
   9.375640e+05  -5.137456e+04
   5.288944e+05   7.537756e+05
  -3.327888e+05   7.958449e+05
  -9.301717e+05   1.380923e+05
  -5.879545e+05  -5.146360e+05
   5.284449e+05  -5.741298e+05
   1.378502e+06  -3.325624e+04
   1.050069e+06   6.500820e+05
  -2.279413e+05   9.494073e+05
  -1.267778e+06   6.399153e+05
  -1.161631e+06  -1.964041e+04
  -2.009291e+05  -4.585774e+05
   5.131033e+05  -3.066966e+05
   2.701745e+05   1.909940e+05
  -5.538334e+05   3.657926e+05
  -9.695734e+05  -1.715351e+05
  -4.284058e+05  -1.037320e+06
   6.430675e+05  -1.363723e+06
   1.309629e+06  -6.443072e+05
   1.045858e+06   6.822543e+05
   1.610221e+05   1.533198e+06
  -6.110564e+05   1.172044e+06
  -8.036575e+05  -4.333156e+04
  -4.731262e+05  -9.805440e+05
   4.570929e+04  -8.854699e+05
   4.314437e+05  -1.295219e+05
   4.890980e+05   3.325547e+05
   2.429781e+05   1.448177e+05
  -5.089481e+02  -1.118124e+05
   8.727819e+04   1.782350e+05
   3.795785e+05   7.785118e+05
   2.950900e+05   9.254125e+05
  -4.537663e+05   3.574701e+05
  -1.265194e+06  -3.829412e+05
  -1.201170e+06  -6.907345e+05
  -1.747694e+05  -5.605262e+05
   8.172609e+05  -3.488163e+05
   8.638192e+05  -2.001218e+05
   2.158292e+05  -1.682917e+04
  -1.613774e+05   1.804626e+05
   9.265660e+04   2.297194e+05
   3.521952e+05   1.443928e+05
  -6.966424e+03   1.207553e+05
  -6.926395e+05   1.524858e+05
  -8.615519e+05  -5.064323e+04
  -1.737074e+05  -5.642445e+05
   8.307053e+05  -9.098291e+05
   1.342067e+06  -5.311844e+05
   1.024601e+06   4.427247e+05
   1.744369e+05   1.201034e+06
  -6.157462e+05   1.104348e+06
  -8.802421e+05   3.596568e+05
  -5.669299e+05  -2.669536e+05
  -5.616469e+04  -2.997749e+05
   1.685606e+05   1.524432e+04
  -2.567466e+04   9.651372e+04
  -3.061327e+05  -2.700831e+05
  -2.521090e+05  -6.752210e+05
   1.798137e+05  -5.411662e+05
   5.949781e+05   1.873565e+05
   5.409974e+05   8.832534e+05
  -4.396696e+04   8.536547e+05
  -7.062508e+05   8.904951e+04
  -8.235839e+05  -7.182051e+05
  -2.047108e+05  -9.094120e+05
   6.233215e+05  -4.741198e+05
   8.773661e+05   1.076618e+05
   3.701596e+05   4.390482e+05
  -2.408205e+05   4.583460e+05
  -2.258830e+05   2.763592e+05
   3.119948e+05   4.730162e+04
   5.711325e+05  -1.077484e+04
   8.292585e+04   2.394593e+05
  -6.952892e+05   5.745781e+05
  -9.652945e+05   5.165401e+05
  -5.287962e+05  -7.585903e+04
   9.905024e+04  -6.840720e+05
   3.792348e+05  -6.647336e+05
   2.554640e+05  -5.273228e+04
  -1.377641e+04   4.454128e+05
  -2.256192e+05   3.054305e+05
  -3.012829e+05  -2.189355e+05
  -1.915326e+05  -4.890347e+05
   7.630389e+04  -2.720865e+05
   3.233105e+05   8.257422e+04
   3.596673e+05   1.755783e+05
   1.987775e+05   2.496727e+04
   2.219947e+04  -5.416756e+04
  -6.253160e+04   1.140437e+05
  -1.215801e+05   3.593155e+05
  -2.347620e+05   3.621713e+05
  -3.330350e+05   1.050025e+04
  -2.577687e+05  -4.370739e+05
   4.192416e+04  -5.627797e+05
   3.938084e+05  -2.128707e+05
   4.909725e+05   3.058685e+05
   1.579298e+05   5.214058e+05
  -4.009751e+05   2.840966e+05
  -6.821158e+05  -1.182904e+05
  -3.674401e+05  -3.249166e+05
   2.528724e+05  -2.604450e+05
   5.143265e+05  -9.534013e+04
   1.367881e+05   5.287183e+03
  -3.947670e+05  -1.949437e+04
  -3.830732e+05  -1.617105e+05
   2.261448e+05  -3.058451e+05
   7.621570e+05  -2.170765e+05
