
 $NMID
 id='ANONYMOUS ', fmtdat='(2E16.6)'
 volume=1.0
 tramp=1.0
 $END
   4.966436e+07   4.229808e+05
   2.984181e+07   3.063112e+07
  -6.476096e+06   3.348605e+07
  -2.433195e+07   1.317150e+07
  -1.473307e+07  -5.868041e+06
   2.758032e+06  -8.267739e+06
   8.766496e+06   8.475454e+05
   2.669716e+06   8.627792e+06
  -5.391781e+06   8.510940e+06
  -8.594859e+06   1.930937e+06
  -6.226421e+06  -5.580302e+06
  -6.646774e+05  -7.751705e+06
   3.605568e+06  -2.375819e+06
   2.342806e+06   5.034561e+06
  -3.373081e+06   5.993348e+06
  -7.026969e+06  -1.126785e+06
  -3.968798e+06  -9.094345e+06
   3.374077e+06  -1.050269e+07
   8.997645e+06  -5.178188e+06
   9.527317e+06   1.944509e+06
   5.695917e+06   6.661939e+06
   4.944449e+05   7.509953e+06
  -2.464813e+06   5.208476e+06
  -1.372848e+06   2.479404e+06
   1.121633e+06   2.225817e+06
   7.841161e+04   3.941280e+06
  -5.096379e+06   3.855151e+06
  -8.784233e+06   2.126490e+05
  -6.235198e+06  -3.843305e+06
  -2.002692e+04  -4.500299e+06
   3.509697e+06  -2.131175e+06
   2.192023e+06   2.102322e+05
  -8.084138e+05   9.712392e+05
  -2.328003e+06   3.425368e+05
  -1.999229e+06  -1.540152e+06
  -4.297289e+05  -3.678372e+06
   1.718479e+06  -3.369304e+06
   2.748764e+06   2.396003e+05
   1.337391e+06   3.220982e+06
  -6.925250e+05   1.518195e+06
  -1.623965e+05  -2.375811e+06
   2.290152e+06  -2.123581e+06
   2.217164e+06   2.826874e+06
  -2.054028e+06   5.440528e+06
  -6.006426e+06   9.226338e+05
  -4.456804e+06  -6.081738e+06
   1.673831e+06  -7.500318e+06
   6.591532e+06  -2.095139e+06
   6.267845e+06   4.030086e+06
   1.719200e+06   5.482200e+06
  -3.152281e+06   2.510455e+06
  -4.839843e+06  -1.344466e+06
  -2.286944e+06  -3.150538e+06
   2.112664e+06  -1.999941e+06
   4.053879e+06   7.981446e+05
   1.775845e+06   2.410691e+06
  -1.523170e+06   1.220289e+06
  -1.612197e+06  -9.290882e+05
   1.099702e+06  -9.033318e+05
   2.237629e+06   1.412423e+06
  -3.828844e+05   2.961414e+06
  -3.968575e+06   1.723145e+06
  -4.706582e+06  -1.111878e+06
  -2.096527e+06  -3.503936e+06
   1.698326e+06  -4.716303e+06
   4.663717e+06  -4.301085e+06
   5.641490e+06  -1.452339e+06
   4.038781e+06   2.946329e+06
   7.500661e+05   5.605776e+06
  -1.674791e+06   4.356749e+06
  -1.564095e+06   1.228608e+06
  -2.433115e+05  -9.245611e+04
  -1.855033e+05   9.172714e+05
  -1.642539e+06   1.512735e+06
  -2.618450e+06   2.715660e+04
  -1.783493e+06  -1.937624e+06
   1.093318e+05  -2.040971e+06
   1.541551e+06  -1.341580e+05
   1.561335e+06   2.028231e+06
  -7.064707e+04   2.747093e+06
  -2.592742e+06   1.437249e+06
  -4.037431e+06  -1.206161e+06
  -2.823685e+06  -3.451711e+06
   9.660909e+04  -3.767309e+06
   2.041660e+06  -2.389758e+06
   1.976077e+06  -1.026760e+06
   1.663209e+06  -6.604230e+05
   2.733594e+06  -4.546916e+05
   4.038801e+06   7.308488e+05
   3.222997e+06   2.608087e+06
   7.470876e+04   3.861215e+06
  -3.067923e+06   3.601726e+06
  -3.958298e+06   1.886342e+06
  -2.460032e+06  -4.846010e+05
  -1.631888e+05  -2.106054e+06
   1.099053e+06  -1.763034e+06
   5.173219e+05   5.958167e+04
  -1.053461e+06   1.198713e+06
  -1.775835e+06   3.424356e+05
  -8.206944e+05  -1.127046e+06
   5.182215e+05  -1.036209e+06
   4.306272e+05   3.694689e+05
  -9.624933e+05   7.008135e+05
  -1.738850e+06  -1.106715e+06
  -6.791031e+05  -3.205842e+06
   1.398445e+06  -3.251112e+06
   2.926859e+06  -1.148187e+06
   3.162511e+06   1.325865e+06
   2.179873e+06   2.652637e+06
   4.072147e+05   2.504117e+06
  -1.204734e+06   1.361159e+06
  -1.496151e+06   1.780337e+05
  -4.634155e+05  -5.027024e+04
   3.269147e+05   7.115594e+05
  -3.943527e+05   1.243505e+06
  -1.777353e+06   5.183196e+05
  -1.891566e+06  -8.402014e+05
  -3.559066e+05  -1.321832e+06
   1.105606e+06  -5.267294e+05
   8.466409e+05   4.430374e+05
  -8.011741e+05   5.074943e+05
  -2.080308e+06  -3.044217e+05
  -1.666617e+06  -1.312411e+06
   2.475345e+05  -1.886656e+06
   2.208571e+06  -1.545583e+06
   2.623156e+06  -2.222874e+05
   1.127402e+06   1.198703e+06
  -8.764444e+05   1.385146e+06
  -1.450839e+06   1.554502e+05
  -1.645666e+05  -1.007194e+06
   1.434782e+06  -6.677755e+05
   1.610455e+06   7.537092e+05
   3.102886e+05   1.563119e+06
  -1.032647e+06   9.233668e+05
  -1.188492e+06  -2.934018e+05
  -2.356153e+05  -7.354077e+05
   7.418996e+05  -4.290325e+04
   6.731769e+05   1.001650e+06
  -5.699349e+05   1.329804e+06
  -1.902525e+06   4.739675e+05
  -1.899857e+06  -1.024138e+06
  -3.305939e+05  -1.959720e+06
   1.376750e+06  -1.528459e+06
   1.629824e+06  -1.793249e+05
   4.677437e+05   8.238084e+05
  -6.301848e+05   7.517602e+05
  -6.064311e+05   5.984789e+04
   1.141638e+05  -3.550981e+05
   4.836744e+05  -2.019860e+05
   1.395029e+05   7.441079e+04
  -4.137372e+05  -5.396030e+04
  -4.900785e+05  -6.260501e+05
   2.001915e+05  -1.116785e+06
   1.314679e+06  -8.277643e+05
   1.958210e+06   4.208087e+05
   1.351654e+06   1.855375e+06
  -2.423868e+05   2.284739e+06
  -1.549968e+06   1.319643e+06
  -1.606427e+06  -1.379276e+05
  -8.120797e+05  -8.736237e+05
  -2.904919e+05  -6.487315e+05
  -4.295948e+05  -2.289421e+05
  -5.709901e+05  -2.962310e+05
  -7.361392e+04  -7.118252e+05
   8.368714e+05  -8.414404e+05
   1.378246e+06  -2.919632e+05
   9.917420e+05   7.047662e+05
  -2.541337e+05   1.390166e+06
  -1.646382e+06   9.950437e+05
  -2.120687e+06  -4.900441e+05
  -1.045608e+06  -1.998644e+06
   9.771924e+05  -2.218190e+06
   2.407636e+06  -9.446296e+05
   2.217281e+06   6.461600e+05
   9.005175e+05   1.281109e+06
  -2.020079e+05   9.074875e+05
  -3.897441e+05   4.883553e+05
  -1.060214e+05   7.037694e+05
  -1.251030e+05   1.216935e+06
  -6.466894e+05   1.196826e+06
  -1.218488e+06   2.792432e+05
  -1.242819e+06  -1.040495e+06
  -4.950157e+05  -1.796929e+06
   6.103977e+05  -1.346603e+06
   1.214899e+06   1.954523e+04
   7.514091e+05   1.218546e+06
  -3.802260e+05   1.312413e+06
  -1.094549e+06   3.782509e+05
  -7.567397e+05  -6.530244e+05
   1.189649e+05  -1.005810e+06
   5.037602e+05  -7.347215e+05
   8.157775e+04  -3.984255e+05
  -4.010782e+05  -3.262991e+05
  -4.892485e+04  -3.641190e+05
   1.083156e+06  -1.838651e+05
   1.936378e+06   3.406958e+05
   1.511689e+06   9.982121e+05
  -4.776253e+04   1.348794e+06
  -1.506613e+06   1.051689e+06
  -1.730459e+06   2.415173e+05
  -7.847136e+05  -4.682731e+05
   2.494510e+05  -5.289933e+05
   4.816120e+05  -2.931723e+04
   2.112833e+04   3.913105e+05
  -4.248274e+05   2.357136e+05
  -4.490220e+05  -3.295163e+05
  -2.219608e+05  -6.868466e+05
  -7.748875e+04  -4.527868e+05
  -1.332098e+05   9.217256e+04
  -2.749668e+05   2.762965e+05
  -2.582198e+05  -2.237794e+05
   1.517651e+05  -9.314647e+05
   8.643164e+05  -9.927194e+05
   1.280768e+06  -1.437895e+05
   7.850619e+05   8.741106e+05
  -4.065010e+05   1.065061e+06
  -1.187503e+06   2.974106e+05
  -6.841613e+05  -5.526416e+05
   6.714881e+05  -6.040492e+05
   1.502135e+06   1.115878e+05
   9.441793e+05   8.312564e+05
  -4.689070e+05   9.327096e+05
  -1.426466e+06   4.356345e+05
  -1.166911e+06  -1.972302e+05
  -1.207389e+05  -4.894739e+05
   6.179815e+05  -2.465538e+05
   3.584131e+05   2.819939e+05
  -5.603615e+05   4.842483e+05
  -1.116361e+06  -9.264415e+04
  -6.186074e+05  -1.124420e+06
   5.784898e+05  -1.601771e+06
   1.413515e+06  -8.194992e+05
   1.178916e+06   7.315407e+05
   1.696569e+05   1.697655e+06
  -7.177544e+05   1.215175e+06
  -8.740188e+05  -1.800218e+05
  -3.915819e+05  -1.134617e+06
   2.230124e+05  -9.141539e+05
   5.340988e+05  -7.145835e+04
   4.342864e+05   3.638278e+05
   1.505843e+05   1.323665e+05
   4.818996e+04  -8.925375e+04
   2.646860e+05   2.833908e+05
   4.716716e+05   9.210599e+05
   1.638612e+05   1.023313e+06
  -6.849870e+05   3.652016e+05
  -1.389613e+06  -4.582432e+05
  -1.197839e+06  -8.086227e+05
  -1.662746e+05  -6.644873e+05
   8.089071e+05  -3.867623e+05
   9.326367e+05  -1.590672e+05
   3.448297e+05   5.641146e+04
  -1.384132e+05   2.122175e+05
  -4.182215e+04   1.919044e+05
   2.431355e+05   8.987954e+04
   4.888242e+04   1.260146e+05
  -6.215695e+05   2.187290e+05
  -9.919218e+05  -1.862036e+04
  -4.142696e+05  -6.599277e+05
   8.002565e+05  -1.111914e+06
   1.621602e+06  -7.076464e+05
   1.342824e+06   4.153894e+05
   2.518523e+05   1.332841e+06
  -7.406703e+05   1.299748e+06
  -9.987966e+05   5.070869e+05
  -6.173978e+05  -2.206956e+05
  -1.276494e+05  -3.406010e+05
   5.895848e+04  -6.727130e+04
  -8.051132e+04   9.066955e+03
  -2.773080e+05  -3.541979e+05
  -2.234868e+05  -7.681399e+05
   1.728896e+05  -6.441055e+05
   6.420646e+05   1.124996e+05
   6.997668e+05   8.989174e+05
   1.153126e+05   9.786228e+05
  -7.076633e+05   2.408329e+05
  -9.796316e+05  -6.783328e+05
  -3.314264e+05  -1.034759e+06
   6.774301e+05  -6.464361e+05
   1.065137e+06   7.366317e+04
   5.069807e+05   5.911495e+05
  -2.764113e+05   6.515223e+05
  -3.711610e+05   3.491524e+05
   2.235878e+05   6.240605e+03
   6.129120e+05  -3.515757e+04
   1.410837e+05   2.947533e+05
  -7.864111e+05   6.368122e+05
  -1.206418e+06   4.963191e+05
  -7.327931e+05  -1.809055e+05
   9.499017e+04  -8.276978e+05
   5.378324e+05  -8.132882e+05
   4.153974e+05  -1.599069e+05
   5.449764e+04   4.493560e+05
  -2.264034e+05   4.177892e+05
  -3.319568e+05  -1.305457e+05
  -2.398224e+05  -5.478874e+05
   4.860117e+04  -4.144793e+05
   3.706359e+05   3.919880e+04
   4.535823e+05   2.755904e+05
   2.297793e+05   9.934232e+04
  -3.773140e+04  -1.508261e+05
  -7.909746e+04  -5.932314e+04
   2.505309e+04   3.272703e+05
  -2.686937e+04   5.326825e+05
  -2.951821e+05   2.263273e+05
  -4.475883e+05  -3.469254e+05
  -1.666667e+05  -6.119083e+05
   3.819089e+05  -3.023576e+05
   6.364686e+05   2.589530e+05
   2.446909e+05   5.394595e+05
  -4.858152e+05   3.467239e+05
  -8.433730e+05  -6.869687e+04
  -4.565386e+05  -3.590454e+05
   2.793197e+05  -3.876514e+05
   6.093256e+05  -2.257295e+05
   2.470947e+05  -1.906315e+04
  -3.142848e+05   7.337899e+04
  -3.802879e+05  -4.761885e+04
   1.490966e+05  -2.667898e+05
   6.866299e+05  -2.553443e+05
