
 $NMID
 id='ANONYMOUS ', fmtdat='(2E16.6)'
 volume=1.0
 tramp=1.0
 $END
   3.299563e+07   5.057995e+05
   2.058025e+07   1.763681e+07
  -2.170666e+06   2.114741e+07
  -1.482989e+07   1.143008e+07
  -1.067975e+07  -7.817129e+05
   3.708346e+05  -5.564794e+06
   6.113091e+06  -1.504000e+06
   3.612140e+06   5.293996e+06
  -2.233817e+06   7.526030e+06
  -5.836782e+06   2.897180e+06
  -4.864233e+06  -4.022524e+06
  -6.402792e+05  -6.207933e+06
   2.912431e+06  -1.521244e+06
   2.285803e+06   4.741622e+06
  -1.919075e+06   5.610502e+06
  -5.103191e+06   8.459137e+04
  -3.501730e+06  -6.253167e+06
   1.777648e+06  -7.671387e+06
   6.189233e+06  -3.699923e+06
   6.431578e+06   1.721816e+06
   3.132330e+06   4.677088e+06
  -3.046173e+05   4.261488e+06
  -9.072622e+05   2.453099e+06
   1.104726e+06   1.892327e+06
   2.312226e+06   3.260383e+06
  -3.085097e+05   4.497451e+06
  -5.364440e+06   3.138625e+06
  -7.820125e+06  -5.438026e+05
  -4.696773e+06  -3.562807e+06
   1.100519e+06  -3.521534e+06
   3.966526e+06  -1.002356e+06
   1.867045e+06   1.506007e+06
  -2.052152e+06   2.027114e+06
  -3.694408e+06   2.164212e+05
  -2.160203e+06  -2.614020e+06
   4.631211e+05  -3.998370e+06
   1.866348e+06  -2.236833e+06
   1.348213e+06   1.185611e+06
  -9.616220e+04   2.416934e+06
  -7.186956e+05  -1.215396e+05
   3.768786e+05  -3.099065e+06
   2.024869e+06  -2.249173e+06
   1.951611e+06   1.732623e+06
  -4.944637e+05   3.729809e+06
  -3.068250e+06   8.747138e+05
  -2.803390e+06  -3.691615e+06
   6.789866e+05  -4.844598e+06
   4.529175e+06  -1.516210e+06
   5.322560e+06   2.786764e+06
   2.206208e+06   4.373216e+06
  -2.309399e+06   2.660633e+06
  -4.479235e+06  -3.346456e+05
  -2.653646e+06  -2.193779e+06
   1.112476e+06  -1.763565e+06
   3.053353e+06   1.582961e+05
   1.616039e+06   1.501055e+06
  -9.966163e+05   9.582643e+05
  -1.610729e+06  -5.729779e+05
   1.402941e+05  -1.126686e+06
   1.655779e+06  -7.940315e+04
   7.571519e+05   1.276230e+06
  -1.754891e+06   1.420272e+06
  -3.180335e+06   4.578318e+04
  -1.841187e+06  -2.089770e+06
   1.447852e+06  -3.746979e+06
   4.315449e+06  -3.544487e+06
   4.836623e+06  -9.080230e+05
   2.970000e+06   2.745207e+06
   4.448235e+05   4.733716e+06
  -8.858198e+05   3.857740e+06
  -7.774552e+05   1.786309e+06
  -5.489652e+05   8.861250e+05
  -1.288911e+06   1.252875e+06
  -2.509216e+06   9.887709e+05
  -2.810676e+06  -8.184902e+05
  -1.525779e+06  -2.644654e+06
   6.086759e+05  -2.427478e+06
   2.119345e+06  -9.680752e+04
   1.859479e+06   2.338005e+06
  -1.739854e+05   2.837227e+06
  -2.581557e+06   1.092180e+06
  -3.425379e+06  -1.452737e+06
  -2.009393e+06  -2.961984e+06
   2.680411e+05  -2.725294e+06
   1.422004e+06  -1.585589e+06
   1.201831e+06  -8.700652e+05
   1.201892e+06  -9.115264e+05
   2.485337e+06  -8.129553e+05
   3.877841e+06   3.328752e+05
   3.272260e+06   2.285290e+06
   2.984233e+05   3.801341e+06
  -2.973216e+06   3.704429e+06
  -4.055101e+06   1.820734e+06
  -2.427341e+06  -7.546209e+05
   1.331239e+05  -2.256084e+06
   1.346270e+06  -1.656281e+06
   4.935232e+05   1.813510e+05
  -1.123272e+06   1.185442e+06
  -1.665658e+06   3.501854e+05
  -6.693786e+05  -1.047811e+06
   6.016145e+05  -1.079894e+06
   6.740750e+05   2.818749e+05
  -5.188843e+05   1.061919e+06
  -1.669038e+06  -1.837883e+05
  -1.478802e+06  -2.486631e+06
   2.074908e+05  -3.533808e+06
   2.379368e+06  -2.178137e+06
   3.587166e+06   5.378371e+05
   2.905449e+06   2.583425e+06
   7.416190e+05   2.756531e+06
  -1.251707e+06   1.472590e+06
  -1.581285e+06   1.699405e+05
  -4.678243e+05  -3.098031e+04
   3.703255e+05   6.890757e+05
  -2.583535e+05   1.157012e+06
  -1.575846e+06   5.676759e+05
  -1.826498e+06  -5.975793e+05
  -4.889240e+05  -1.167691e+06
   1.032095e+06  -6.311903e+05
   1.012371e+06   3.664909e+05
  -6.439956e+05   7.743820e+05
  -2.265134e+06   1.179715e+05
  -2.101222e+06  -1.179336e+06
  -6.271931e+04  -2.127595e+06
   2.154490e+06  -1.862084e+06
   2.656998e+06  -4.175538e+05
   1.159253e+06   1.066052e+06
  -7.671867e+05   1.284992e+06
  -1.289638e+06   1.685814e+05
  -1.136750e+05  -9.266185e+05
   1.377402e+06  -7.025709e+05
   1.657278e+06   5.959806e+05
   5.340864e+05   1.516473e+06
  -8.485664e+05   1.113768e+06
  -1.231105e+06  -4.614930e+04
  -4.024087e+05  -6.509142e+05
   6.517595e+05  -1.014687e+05
   6.855548e+05   9.500987e+05
  -5.479174e+05   1.340032e+06
  -1.905851e+06   5.158450e+05
  -1.928850e+06  -9.663990e+05
  -4.210996e+05  -1.923654e+06
   1.248268e+06  -1.589579e+06
   1.593153e+06  -3.152944e+05
   5.669977e+05   7.644744e+05
  -5.579378e+05   8.234789e+05
  -6.963696e+05   9.101482e+04
   2.732258e+03  -5.125033e+05
   5.819243e+05  -4.078368e+05
   4.052614e+05   7.813971e+04
  -2.588748e+05   1.724786e+05
  -5.798115e+05  -4.131342e+05
   1.705213e+04  -1.084605e+06
   1.224234e+06  -9.303833e+05
   1.984870e+06   2.967291e+05
   1.442500e+06   1.787196e+06
  -1.288310e+05   2.347837e+06
  -1.503411e+06   1.527606e+06
  -1.734297e+06   4.722609e+04
  -1.053450e+06  -9.274662e+05
  -4.131675e+05  -9.003835e+05
  -3.244834e+05  -3.908147e+05
  -4.153615e+05  -2.256436e+05
  -7.479461e+04  -6.037879e+05
   7.384618e+05  -9.159337e+05
   1.395129e+06  -4.652933e+05
   1.167708e+06   6.717327e+05
  -8.174101e+04   1.548369e+06
  -1.612120e+06   1.197730e+06
  -2.222837e+06  -3.471113e+05
  -1.241632e+06  -1.926702e+06
   7.425871e+05  -2.266423e+06
   2.273378e+06  -1.161233e+06
   2.322898e+06   3.887855e+05
   1.173264e+06   1.218605e+06
  -3.004729e+04   1.084209e+06
  -4.698842e+05   6.837631e+05
  -2.924123e+05   7.224566e+05
  -1.897539e+05   1.113120e+06
  -5.689102e+05   1.134806e+06
  -1.152153e+06   3.004987e+05
  -1.276056e+06  -1.009471e+06
  -5.708038e+05  -1.804618e+06
   5.726210e+05  -1.394606e+06
   1.241870e+06  -6.982620e+04
   8.522731e+05   1.125942e+06
  -2.148545e+05   1.323235e+06
  -9.513913e+05   5.489414e+05
  -7.611632e+05  -4.307664e+05
  -5.154419e+04  -8.996923e+05
   3.012060e+05  -7.728731e+05
  -1.318708e+04  -4.678479e+05
  -3.933065e+05  -3.505291e+05
  -4.844251e+04  -3.826671e+05
   1.023362e+06  -2.553175e+05
   1.887084e+06   2.218492e+05
   1.569975e+06   8.761713e+05
   1.139015e+05   1.276074e+06
  -1.352621e+06   1.088660e+06
  -1.685385e+06   4.003836e+05
  -8.404061e+05  -2.913459e+05
   1.775549e+05  -4.753313e+05
   4.413194e+05  -1.066349e+05
  -1.199895e+04   3.140055e+05
  -4.660315e+05   2.365148e+05
  -4.518335e+05  -3.172874e+05
  -1.544813e+05  -7.250112e+05
  -1.652882e+03  -4.719711e+05
  -1.339633e+05   1.727786e+05
  -3.357390e+05   3.917229e+05
  -2.917663e+05  -1.984008e+05
   1.561626e+05  -9.907276e+05
   8.245916e+05  -1.026125e+06
   1.174743e+06  -1.237874e+05
   7.130374e+05   8.656242e+05
  -3.732078e+05   9.991259e+05
  -1.128403e+06   2.462856e+05
  -7.045904e+05  -5.646572e+05
   6.228072e+05  -6.615850e+05
   1.568783e+06  -2.172801e+04
   1.134982e+06   7.554473e+05
  -3.183188e+05   1.045714e+06
  -1.440649e+06   6.629301e+05
  -1.283144e+06  -5.592652e+04
  -2.037348e+05  -5.114079e+05
   5.989854e+05  -3.298069e+05
   3.401959e+05   2.403413e+05
  -6.030131e+05   4.708855e+05
  -1.136866e+06  -1.262592e+05
  -5.841740e+05  -1.168070e+06
   6.404348e+05  -1.623908e+06
   1.467780e+06  -8.245608e+05
   1.230117e+06   7.397372e+05
   2.300550e+05   1.753546e+06
  -6.796705e+05   1.329971e+06
  -9.159278e+05  -7.781280e+04
  -5.199137e+05  -1.128945e+06
   9.409791e+04  -9.894234e+05
   5.137014e+05  -1.329535e+05
   5.283053e+05   3.633179e+05
   2.353527e+05   1.462887e+05
   1.573177e+04  -1.135880e+05
   1.741871e+05   2.383760e+05
   4.809217e+05   9.059710e+05
   3.011051e+05   1.050783e+06
  -5.839633e+05   4.106483e+05
  -1.458863e+06  -4.130496e+05
  -1.345647e+06  -7.710249e+05
  -2.071134e+05  -6.550790e+05
   8.869601e+05  -4.271829e+05
   9.743971e+05  -2.318530e+05
   2.898335e+05   5.209792e+03
  -1.631862e+05   2.173738e+05
   5.490163e+04   2.336008e+05
   3.494462e+05   1.244378e+05
   1.957196e+04   1.362119e+05
  -7.306087e+05   2.189364e+05
  -1.006237e+06  -1.540139e+04
  -3.081067e+05  -6.579705e+05
   8.759666e+05  -1.114134e+06
   1.579308e+06  -7.002279e+05
   1.275514e+06   4.459987e+05
   2.626414e+05   1.373936e+06
  -6.955789e+05   1.318018e+06
  -1.009110e+06   4.856495e+05
  -6.556964e+05  -2.572010e+05
  -1.011253e+05  -3.463903e+05
   1.421945e+05  -2.351836e+04
  -4.694278e+04   7.116310e+04
  -3.344101e+05  -3.222389e+05
  -2.880510e+05  -7.750001e+05
   1.788465e+05  -6.456075e+05
   6.828930e+05   1.570028e+05
   6.908802e+05   9.648153e+05
   4.356017e+04   9.958659e+05
  -7.781474e+05   1.833987e+05
  -9.963635e+05  -7.503942e+05
  -3.066271e+05  -1.048934e+06
   6.955512e+05  -6.137685e+05
   1.048836e+06   7.732422e+04
   4.780635e+05   5.356151e+05
  -2.665178e+05   5.928189e+05
  -3.004409e+05   3.414398e+05
   3.095538e+05   2.455832e+04
   6.470137e+05  -4.044640e+04
   1.228047e+05   2.844479e+05
  -7.861893e+05   6.815398e+05
  -1.146910e+06   5.914626e+05
  -6.687219e+05  -1.109445e+05
   8.638698e+04  -8.168724e+05
   4.627207e+05  -8.055523e+05
   3.463358e+05  -1.093787e+05
   2.731751e+04   4.938997e+05
  -2.399431e+05   3.904032e+05
  -3.526986e+05  -1.956415e+05
  -2.467174e+05  -5.577348e+05
   6.492263e+04  -3.612345e+05
   3.791419e+05   6.315732e+04
   4.403424e+05   2.236821e+05
   2.322509e+05   5.173268e+04
  -1.194596e+03  -1.005869e+05
  -7.083811e+04   5.670694e+04
  -6.212295e+04   3.883561e+05
  -1.632477e+05   4.785738e+05
  -3.530972e+05   1.110945e+05
  -3.770426e+05  -4.382251e+05
  -5.726740e+04  -6.438578e+05
   4.232385e+05  -2.845145e+05
   6.116729e+05   3.031273e+05
   2.268319e+05   5.781041e+05
  -4.682738e+05   3.517143e+05
  -8.229594e+05  -8.897219e+04
  -4.523306e+05  -3.611336e+05
   2.823137e+05  -3.475619e+05
   6.042582e+05  -1.746365e+05
   1.963336e+05  -7.745126e+03
  -4.040616e+05   2.991509e+04
  -4.276169e+05  -1.193151e+05
   2.078244e+05  -3.294317e+05
   8.032558e+05  -2.805506e+05
