
 $NMID
 id='ANONYMOUS ', fmtdat='(2E16.6)'
 volume=1.0
 tramp=1.0
 $END
  -3.642100e+07   1.932537e+05
  -2.305479e+07  -2.005293e+07
   2.605757e+06  -2.395973e+07
   1.683280e+07  -1.211980e+07
   1.177517e+07   1.796201e+06
  -7.957908e+05   6.262228e+06
  -6.793737e+06   1.061038e+06
  -3.508889e+06  -6.074604e+06
   2.926832e+06  -7.830584e+06
   6.479471e+06  -2.758155e+06
   5.185247e+06   4.295700e+06
   6.827366e+05   6.502633e+06
  -3.005024e+06   1.725312e+06
  -2.260007e+06  -4.764610e+06
   2.248320e+06  -5.700554e+06
   5.554090e+06   1.264614e+05
   3.676466e+06   6.836692e+06
  -2.032885e+06   8.309182e+06
  -6.717336e+06   4.101048e+06
  -7.070355e+06  -1.637566e+06
  -3.757564e+06  -4.965192e+06
  -2.844968e+04  -4.913295e+06
   1.121594e+06  -3.139927e+06
  -5.369700e+05  -2.155869e+06
  -1.923786e+06  -3.070622e+06
   2.835644e+05  -4.291086e+06
   5.222306e+06  -3.208780e+06
   7.903437e+06   3.675201e+05
   4.989029e+06   3.533149e+06
  -7.949265e+05   3.637002e+06
  -3.756265e+06   1.200717e+06
  -1.836955e+06  -1.182866e+06
   1.816146e+06  -1.675686e+06
   3.333518e+06  -1.365446e+05
   2.018688e+06   2.369260e+06
  -3.044644e+05   3.832450e+06
  -1.770420e+06   2.450904e+06
  -1.597040e+06  -8.883554e+05
  -2.627514e+05  -2.493943e+06
   6.109604e+05  -2.489840e+05
  -3.139574e+05   2.863737e+06
  -2.088522e+06   2.191925e+06
  -2.040480e+06  -1.964482e+06
   7.767793e+05  -4.161640e+06
   3.708476e+06  -1.016703e+06
   3.254152e+06   4.122421e+06
  -7.875338e+05   5.443123e+06
  -4.926360e+06   1.709699e+06
  -5.522574e+06  -3.027076e+06
  -2.095965e+06  -4.620947e+06
   2.504451e+06  -2.626660e+06
   4.565068e+06   5.756216e+05
   2.579614e+06   2.432095e+06
  -1.325860e+06   1.851221e+06
  -3.284055e+06  -2.664768e+05
  -1.679299e+06  -1.696833e+06
   1.095452e+06  -1.032569e+06
   1.610685e+06   6.593633e+05
  -3.763398e+05   1.117786e+06
  -1.855569e+06  -2.405374e+05
  -5.761763e+05  -1.716353e+06
   2.233853e+06  -1.583521e+06
   3.559499e+06   1.604012e+05
   1.940697e+06   2.391065e+06
  -1.468028e+06   3.927722e+06
  -4.335689e+06   3.659452e+06
  -4.943459e+06   1.025979e+06
  -3.169525e+06  -2.725514e+06
  -5.202909e+05  -4.867830e+06
   1.060717e+06  -3.967995e+06
   9.985471e+05  -1.677713e+06
   5.393774e+05  -6.284653e+05
   1.051131e+06  -1.085347e+06
   2.257196e+06  -1.026346e+06
   2.677558e+06   6.475404e+05
   1.507419e+06   2.447948e+06
  -5.254458e+05   2.278557e+06
  -1.960241e+06   5.780804e+04
  -1.735443e+06  -2.269503e+06
   1.739665e+05  -2.777200e+06
   2.543376e+06  -1.140172e+06
   3.501451e+06   1.372719e+06
   2.176662e+06   3.012414e+06
  -1.905381e+05   2.922330e+06
  -1.517663e+06   1.774409e+06
  -1.365646e+06   9.280401e+05
  -1.315692e+06   8.580980e+05
  -2.539074e+06   7.138663e+05
  -3.887774e+06  -4.441560e+05
  -3.221511e+06  -2.362860e+06
  -2.160392e+05  -3.785019e+06
   2.995985e+06  -3.617554e+06
   3.997076e+06  -1.776311e+06
   2.386375e+06   7.003704e+05
  -8.898508e+04   2.177595e+06
  -1.280934e+06   1.639131e+06
  -4.862748e+05  -1.515548e+05
   1.100976e+06  -1.162390e+06
   1.674346e+06  -3.399372e+05
   6.943373e+05   1.049705e+06
  -5.841762e+05   1.050376e+06
  -6.131537e+05  -3.144141e+05
   6.404137e+05  -9.867001e+05
   1.712851e+06   4.012495e+05
   1.297778e+06   2.678070e+06
  -5.214730e+05   3.492858e+06
  -2.551876e+06   1.927931e+06
  -3.488435e+06  -7.660530e+05
  -2.689047e+06  -2.634308e+06
  -6.198063e+05  -2.691457e+06
   1.245455e+06  -1.417120e+06
   1.545454e+06  -1.525466e+05
   4.629314e+05   3.920422e+04
  -3.520965e+05  -6.905703e+05
   2.895235e+05  -1.168116e+06
   1.609573e+06  -5.494177e+05
   1.829306e+06   6.547888e+05
   4.546621e+05   1.199263e+06
  -1.044711e+06   5.968555e+05
  -9.628538e+05  -3.941307e+05
   6.920692e+05  -7.051447e+05
   2.218409e+06   9.496247e+03
   1.973722e+06   1.236384e+06
  -3.943716e+04   2.064296e+06
  -2.173808e+06   1.753299e+06
  -2.632868e+06   3.452106e+05
  -1.138561e+06  -1.094897e+06
   7.869829e+05  -1.293751e+06
   1.313921e+06  -1.636743e+05
   1.224913e+05   9.316455e+05
  -1.380820e+06   6.792117e+05
  -1.631369e+06  -6.398170e+05
  -4.685175e+05  -1.525798e+06
   8.987917e+05  -1.061761e+06
   1.220243e+06   1.122899e+05
   3.608656e+05   6.733729e+05
  -6.659695e+05   8.658039e+04
  -6.678876e+05  -9.551785e+05
   5.579863e+05  -1.316405e+06
   1.888033e+06  -4.832509e+05
   1.894102e+06   9.855312e+05
   3.820047e+05   1.917572e+06
  -1.279080e+06   1.554581e+06
  -1.593891e+06   2.708154e+05
  -5.367818e+05  -7.785664e+05
   5.767368e+05  -7.977271e+05
   6.697293e+05  -7.423290e+04
  -3.981122e+04   4.745532e+05
  -5.653867e+05   3.450519e+05
  -3.375540e+05  -9.326989e+04
   3.050042e+05  -1.231404e+05
   5.593951e+05   4.677841e+05
  -6.738946e+04   1.088652e+06
  -1.244290e+06   8.896084e+05
  -1.959239e+06  -3.402513e+05
  -1.393121e+06  -1.798983e+06
   1.762790e+05  -2.311577e+06
   1.520563e+06  -1.453162e+06
   1.696093e+06   1.667245e+04
   9.767212e+05   9.270208e+05
   3.601603e+05   8.439095e+05
   3.326362e+05   3.476110e+05
   4.469037e+05   2.351979e+05
   7.272891e+04   6.225609e+05
  -7.655549e+05   8.866023e+05
  -1.388696e+06   4.057512e+05
  -1.109154e+06  -6.923390e+05
   1.429707e+05  -1.502674e+06
   1.622580e+06  -1.124456e+06
   2.177907e+06   4.005966e+05
   1.169740e+06   1.941002e+06
  -8.086517e+05   2.234446e+06
  -2.298212e+06   1.086405e+06
  -2.282316e+06  -4.673423e+05
  -1.091312e+06  -1.242523e+06
   8.674242e+04  -1.040311e+06
   4.623027e+05  -6.235385e+05
   2.540652e+05  -6.979391e+05
   1.770629e+05  -1.119151e+06
   5.864037e+05  -1.135179e+06
   1.157531e+06  -2.859064e+05
   1.246856e+06   1.017343e+06
   5.314793e+05   1.790680e+06
  -5.885743e+05   1.364787e+06
  -1.226287e+06   3.721457e+04
  -8.146411e+05  -1.145947e+06
   2.614588e+05  -1.311991e+06
   9.857902e+05  -5.031673e+05
   7.585913e+05   4.827140e+05
   9.969095e+03   9.220861e+05
  -3.517503e+05   7.626304e+05
  -1.549902e+04   4.518105e+05
   3.862346e+05   3.447332e+05
   4.325256e+04   3.748705e+05
  -1.031211e+06   2.298362e+05
  -1.880349e+06  -2.608345e+05
  -1.536989e+06  -9.101668e+05
  -6.877218e+04  -1.286163e+06
   1.382806e+06  -1.063432e+06
   1.687459e+06  -3.480322e+05
   8.244311e+05   3.374427e+05
  -1.933804e+05   4.838896e+05
  -4.501337e+05   8.596890e+04
   3.878641e+03  -3.266444e+05
   4.543913e+05  -2.278617e+05
   4.442730e+05   3.209611e+05
   1.595540e+05   7.069592e+05
   1.361198e+04   4.589357e+05
   1.380232e+05  -1.513381e+05
   3.272196e+05  -3.549211e+05
   2.794683e+05   2.066285e+05
  -1.660449e+05   9.644257e+05
  -8.350584e+05   1.000680e+06
  -1.184868e+06   1.207322e+05
  -7.133887e+05  -8.607603e+05
   3.823759e+05  -1.000647e+06
   1.128858e+06  -2.475008e+05
   6.866153e+05   5.630760e+05
  -6.355353e+05   6.382123e+05
  -1.543127e+06  -2.557109e+04
  -1.076424e+06  -7.833903e+05
   3.634367e+05  -1.013154e+06
   1.438153e+06  -5.910373e+05
   1.248825e+06   1.039166e+05
   1.773086e+05   5.064544e+05
  -6.030948e+05   3.031515e+05
  -3.401315e+05  -2.487776e+05
   5.900284e+05  -4.609676e+05
   1.116533e+06   1.283137e+05
   5.728657e+05   1.148655e+06
  -6.348496e+05   1.592287e+06
  -1.446985e+06   7.987799e+05
  -1.198214e+06  -7.430777e+05
  -1.957939e+05  -1.726588e+06
   6.978901e+05  -1.285249e+06
   9.003417e+05   1.099753e+05
   4.754863e+05   1.128081e+06
  -1.340944e+05   9.663530e+05
  -5.162689e+05   1.138907e+05
  -4.979686e+05  -3.683165e+05
  -2.117768e+05  -1.473367e+05
  -2.486163e+04   1.083760e+05
  -1.923110e+05  -2.430350e+05
  -4.662016e+05  -9.037909e+05
  -2.567234e+05  -1.041863e+06
   6.056370e+05  -3.954425e+05
   1.425631e+06   4.346551e+05
   1.292556e+06   7.896699e+05
   1.901269e+05   6.536785e+05
  -8.654896e+05   4.018920e+05
  -9.596503e+05   2.023510e+05
  -3.011776e+05  -1.672472e+04
   1.579492e+05  -2.113780e+05
  -2.867019e+04  -2.268305e+05
  -3.188768e+05  -1.233710e+05
  -2.397438e+04  -1.310458e+05
   7.000539e+05  -2.047231e+05
   9.916366e+05   2.559516e+04
   3.225076e+05   6.488851e+05
  -8.592920e+05   1.089946e+06
  -1.577038e+06   6.819341e+05
  -1.270949e+06  -4.426053e+05
  -2.430552e+05  -1.352355e+06
   7.106264e+05  -1.294916e+06
   9.988331e+05  -4.752483e+05
   6.356006e+05   2.538435e+05
   1.023911e+05   3.407281e+05
  -1.202106e+05   2.781278e+04
   5.739615e+04  -5.759364e+04
   3.164084e+05   3.313240e+05
   2.631783e+05   7.701073e+05
  -1.811409e+05   6.360377e+05
  -6.625079e+05  -1.531625e+05
  -6.735452e+05  -9.449007e+05
  -4.953642e+04  -9.779938e+05
   7.527491e+05  -1.840916e+05
   9.716053e+05   7.356116e+05
   2.987013e+05   1.035743e+06
  -6.878218e+05   6.071208e+05
  -1.039845e+06  -8.438058e+04
  -4.767382e+05  -5.449236e+05
   2.684123e+05  -5.971390e+05
   3.153649e+05  -3.397369e+05
  -2.860827e+05  -2.694285e+04
  -6.328274e+05   3.134297e+04
  -1.233826e+05  -2.839063e+05
   7.856022e+05  -6.569790e+05
   1.156990e+06  -5.561589e+05
   6.777858e+05   1.283533e+05
  -9.410246e+04   8.098488e+05
  -4.811812e+05   7.976013e+05
  -3.565929e+05   1.194019e+05
  -2.659398e+04  -4.775433e+05
   2.365805e+05  -3.893707e+05
   3.394678e+05   1.831216e+05
   2.369681e+05   5.518729e+05
  -6.139465e+04   3.677527e+05
  -3.713751e+05  -6.086080e+04
  -4.387743e+05  -2.360590e+05
  -2.308536e+05  -6.397665e+04
   1.069478e+04   1.089608e+05
   7.767275e+04  -2.997744e+04
   4.824056e+04  -3.658982e+05
   1.328564e+05  -4.776719e+05
   3.320549e+05  -1.297761e+05
   3.805304e+05   4.131907e+05
   7.376931e+04   6.251484e+05
  -4.110936e+05   2.796293e+05
  -6.056387e+05  -2.943226e+05
  -2.212797e+05  -5.642781e+05
   4.703644e+05  -3.432309e+05
   8.165872e+05   8.992991e+04
   4.448998e+05   3.604829e+05
  -2.797451e+05   3.499837e+05
  -5.979065e+05   1.789810e+05
  -2.051121e+05   1.075426e+04
   3.777750e+05  -3.166608e+04
   4.080266e+05   1.078884e+05
  -1.981285e+05   3.072883e+05
  -7.719554e+05   2.593936e+05
