
 $NMID
 id='ANONYMOUS ', fmtdat='(2E16.6)'
 volume=1.0
 tramp=1.0
 $END
   2.749635e+07  -7.585081e+05
   1.679729e+07   1.681073e+07
  -3.389069e+06   1.871325e+07
  -1.328532e+07   7.190221e+06
  -7.911158e+06  -3.468877e+06
   1.632892e+06  -4.524649e+06
   4.696219e+06   6.572676e+05
   1.285854e+06   4.695073e+06
  -2.954477e+06   4.398524e+06
  -4.600895e+06   9.492064e+05
  -3.435592e+06  -2.871870e+06
  -5.368253e+05  -4.073771e+06
   1.863219e+06  -1.417951e+06
   1.343914e+06   2.453995e+06
  -1.713457e+06   3.072745e+06
  -3.781243e+06  -6.110051e+05
  -2.227848e+06  -4.862978e+06
   1.703192e+06  -5.718591e+06
   4.818553e+06  -3.000609e+06
   5.309397e+06   8.091479e+05
   3.406627e+06   3.567204e+06
   4.855376e+05   4.309235e+06
  -1.453924e+06   3.060500e+06
  -1.054534e+06   1.229572e+06
   4.938019e+05   7.970523e+05
   2.969504e+05   1.867461e+06
  -2.360601e+06   2.247593e+06
  -4.545600e+06   5.244267e+05
  -3.482968e+06  -1.798606e+06
  -3.210448e+05  -2.463473e+06
   1.640608e+06  -1.415282e+06
   1.226941e+06  -1.897681e+05
  -7.776625e+04   3.989990e+05
  -8.998022e+05   3.647602e+05
  -1.079810e+06  -4.789373e+05
  -5.319571e+05  -1.790620e+06
   7.562408e+05  -1.936306e+06
   1.668113e+06  -7.187575e+04
   9.906093e+05   1.766395e+06
  -3.762245e+05   1.069401e+06
  -3.127716e+05  -1.070156e+06
   1.085194e+06  -1.099715e+06
   1.185088e+06   1.519439e+06
  -1.180988e+06   2.977795e+06
  -3.454290e+06   5.240970e+05
  -2.590771e+06  -3.351906e+06
   8.660930e+05  -4.182248e+06
   3.572623e+06  -1.273916e+06
   3.346972e+06   2.020011e+06
   9.112600e+05   2.805952e+06
  -1.599352e+06   1.284762e+06
  -2.445156e+06  -6.759428e+05
  -1.126364e+06  -1.613620e+06
   1.160743e+06  -1.050323e+06
   2.172446e+06   4.116672e+05
   9.414746e+05   1.293512e+06
  -8.162871e+05   6.765917e+05
  -8.101804e+05  -4.604647e+05
   6.673487e+05  -3.920782e+05
   1.174576e+06   9.114408e+05
  -3.780589e+05   1.710365e+06
  -2.303627e+06   9.283823e+05
  -2.567511e+06  -6.611602e+05
  -1.132607e+06  -1.912794e+06
   7.532043e+05  -2.549958e+06
   2.236401e+06  -2.418643e+06
   2.900577e+06  -9.875580e+05
   2.285996e+06   1.393815e+06
   5.914720e+05   2.908696e+06
  -8.261641e+05   2.254847e+06
  -8.287092e+05   5.186091e+05
  -7.579808e+03  -1.930055e+05
   1.630682e+05   4.678883e+05
  -6.288529e+05   9.586016e+05
  -1.309295e+06   2.788056e+05
  -1.044736e+06  -7.772092e+05
  -1.365070e+05  -9.736297e+05
   6.566673e+05  -1.669815e+05
   8.157177e+05   8.684238e+05
   9.555342e+04   1.349154e+06
  -1.246462e+06   8.711373e+05
  -2.162814e+06  -4.296837e+05
  -1.643488e+06  -1.727273e+06
  -6.846956e+04  -2.056954e+06
   1.070484e+06  -1.364472e+06
   1.080038e+06  -5.656846e+05
   8.607490e+05  -3.194949e+05
   1.353531e+06  -2.544759e+05
   2.026544e+06   2.806074e+05
   1.665079e+06   1.213627e+06
   1.459876e+05   1.899935e+06
  -1.382165e+06   1.874956e+06
  -1.865588e+06   1.104061e+06
  -1.255139e+06  -9.738368e+04
  -2.245290e+05  -1.024629e+06
   4.366592e+05  -9.460747e+05
   2.695657e+05  -9.387107e+03
  -4.623791e+05   6.401074e+05
  -8.834437e+05   2.296588e+05
  -4.708925e+05  -5.484337e+05
   1.998685e+05  -5.287782e+05
   1.799371e+05   1.680347e+05
  -5.056715e+05   2.945752e+05
  -8.608152e+05  -6.453467e+05
  -2.769316e+05  -1.635387e+06
   7.572510e+05  -1.538137e+06
   1.434810e+06  -4.662961e+05
   1.489305e+06   6.440445e+05
   1.046257e+06   1.191779e+06
   2.552491e+05   1.154635e+06
  -5.253934e+05   7.017510e+05
  -7.161953e+05   1.526572e+05
  -2.282969e+05  -9.978313e+03
   1.805672e+05   3.403340e+05
  -1.754115e+05   6.374176e+05
  -8.907365e+05   3.049752e+05
  -9.644422e+05  -3.886176e+05
  -1.941100e+05  -6.596570e+05
   5.337406e+05  -2.812751e+05
   4.030791e+05   1.900326e+05
  -3.869690e+05   2.271613e+05
  -9.813967e+05  -1.308512e+05
  -7.900098e+05  -5.795302e+05
   8.822023e+04  -8.800816e+05
   1.019946e+06  -7.905918e+05
   1.268133e+06  -1.798691e+05
   5.894061e+05   5.695185e+05
  -4.043064e+05   7.293384e+05
  -7.382032e+05   1.209884e+05
  -1.246648e+05  -5.089114e+05
   6.908180e+05  -3.766145e+05
   8.071654e+05   3.344900e+05
   1.715435e+05   7.549769e+05
  -4.958950e+05   4.516232e+05
  -5.767673e+05  -1.404353e+05
  -1.104043e+05  -3.604235e+05
   3.783728e+05  -3.588917e+04
   3.681967e+05   4.762573e+05
  -2.311070e+05   6.767639e+05
  -9.171602e+05   3.028539e+05
  -9.697958e+05  -4.386724e+05
  -2.221937e+05  -9.552807e+05
   6.387449e+05  -7.898474e+05
   7.957304e+05  -1.253952e+05
   2.413894e+05   3.939431e+05
  -2.912049e+05   3.791827e+05
  -2.801579e+05   5.240177e+04
   5.247907e+04  -1.467308e+05
   2.016635e+05  -8.925620e+04
   2.593265e+04   1.470917e+04
  -2.195634e+05  -5.868445e+04
  -2.381929e+05  -3.208919e+05
   8.814465e+04  -5.534286e+05
   6.252355e+05  -4.372348e+05
   9.707534e+05   1.500924e+05
   7.202897e+05   8.684233e+05
  -4.594337e+04   1.118687e+06
  -7.089537e+05   6.722119e+05
  -7.641714e+05  -3.041951e+04
  -3.945000e+05  -3.753547e+05
  -1.609014e+05  -2.564384e+05
  -2.486220e+05  -7.277712e+04
  -3.169689e+05  -1.442854e+05
  -5.854253e+04  -3.664000e+05
   3.915915e+05  -4.289200e+05
   6.541786e+05  -1.695414e+05
   4.837329e+05   3.028136e+05
  -9.099975e+04   6.571931e+05
  -7.662577e+05   5.185002e+05
  -1.039014e+06  -1.766986e+05
  -5.563339e+05  -9.460989e+05
   4.329960e+05  -1.111313e+06
   1.161917e+06  -5.152255e+05
   1.085959e+06   2.710030e+05
   4.427417e+05   5.922182e+05
  -8.435712e+04   4.145781e+05
  -1.475936e+05   2.261061e+05
   9.653438e+03   3.584517e+05
  -8.139904e+03   6.271027e+05
  -2.890839e+05   6.223541e+05
  -6.005545e+05   1.783402e+05
  -6.465004e+05  -4.677433e+05
  -3.021736e+05  -8.612192e+05
   2.520012e+05  -6.777810e+05
   5.904921e+05  -2.402990e+04
   3.959155e+05   5.821695e+05
  -1.643640e+05   6.512495e+05
  -5.408467e+05   1.917015e+05
  -3.860135e+05  -3.311538e+05
   5.487426e+04  -5.101138e+05
   2.531363e+05  -3.644992e+05
   3.763242e+04  -1.822210e+05
  -2.131676e+05  -1.408070e+05
  -3.974118e+04  -1.739540e+05
   5.330852e+05  -1.176977e+05
   9.702557e+05   1.146456e+05
   7.680303e+05   4.506502e+05
  -2.565675e+03   6.713224e+05
  -7.265592e+05   5.634726e+05
  -8.432107e+05   1.568006e+05
  -3.860725e+05  -2.283449e+05
   1.176312e+05  -2.762345e+05
   2.390954e+05  -1.767369e+04
   2.755049e+04   2.071200e+05
  -1.925121e+05   1.346405e+05
  -2.328797e+05  -1.466550e+05
  -1.504270e+05  -3.263769e+05
  -7.047452e+04  -2.207609e+05
  -5.726989e+04   3.641609e+04
  -1.073849e+05   1.302751e+05
  -1.290529e+05  -1.020696e+05
   3.333444e+04  -4.545962e+05
   3.914790e+05  -5.159411e+05
   6.454440e+05  -1.200572e+05
   4.341066e+05   4.049222e+05
  -1.674383e+05   5.510521e+05
  -5.866088e+05   1.995661e+05
  -3.559951e+05  -2.420285e+05
   3.125768e+05  -3.113515e+05
   7.256597e+05   1.568467e+04
   4.602910e+05   3.754097e+05
  -2.147373e+05   4.499890e+05
  -6.710498e+05   2.316582e+05
  -5.548440e+05  -6.974736e+04
  -6.537098e+04  -2.281883e+05
   2.939488e+05  -1.303032e+05
   1.890602e+05   1.332696e+05
  -2.502015e+05   2.657488e+05
  -5.522744e+05   5.663641e+03
  -3.579225e+05  -5.239058e+05
   2.096579e+05  -8.117471e+05
   6.543798e+05  -4.616911e+05
   6.012179e+05   3.098010e+05
   1.429503e+05   8.168107e+05
  -3.063073e+05   6.049154e+05
  -4.250651e+05  -6.994834e+04
  -2.150154e+05  -5.379318e+05
   9.245502e+04  -4.394491e+05
   2.608282e+05  -4.462472e+04
   2.119439e+05   1.572200e+05
   6.532344e+04   5.242511e+04
   2.477654e+04  -3.984865e+04
   1.554068e+05   1.419505e+05
   2.665128e+05   4.375957e+05
   9.832633e+04   4.859316e+05
  -3.387310e+05   1.937583e+05
  -6.883769e+05  -1.752925e+05
  -5.941917e+05  -3.500143e+05
  -1.005672e+05  -3.203331e+05
   3.673502e+05  -2.195131e+05
   4.421125e+05  -1.046428e+05
   1.791900e+05   2.606185e+04
  -5.527355e+04   1.104037e+05
  -2.801432e+04   8.365848e+04
   1.065055e+05   2.284912e+04
   3.500675e+04   5.990566e+04
  -2.783194e+05   1.382110e+05
  -4.870086e+05   3.035261e+04
  -2.490392e+05  -3.147805e+05
   3.369362e+05  -5.832890e+05
   7.791009e+05  -4.120368e+05
   6.917218e+05   1.496569e+05
   1.771473e+05   6.390208e+05
  -3.204741e+05   6.643412e+05
  -4.714108e+05   2.939641e+05
  -3.082799e+05  -7.572692e+04
  -8.155853e+04  -1.632088e+05
   1.392865e+04  -4.767250e+04
  -4.198137e+04  -5.075181e+03
  -1.389964e+05  -1.662270e+05
  -1.296069e+05  -3.652536e+05
   5.861975e+04  -3.245200e+05
   3.161781e+05   1.998637e+04
   3.855790e+05   4.042679e+05
   1.091071e+05   4.785442e+05
  -3.298356e+05   1.605156e+05
  -5.104466e+05  -2.819612e+05
  -2.094157e+05  -4.956232e+05
   3.067358e+05  -3.521327e+05
   5.309409e+05  -5.734721e+03
   2.755961e+05   2.825664e+05
  -1.151439e+05   3.420115e+05
  -1.820515e+05   1.846005e+05
   9.606857e+04  -1.345099e+04
   2.943027e+05  -4.249150e+04
   8.389376e+04   1.424070e+05
  -3.600927e+05   3.370475e+05
  -5.805249e+05   2.724131e+05
  -3.759825e+05  -7.590173e+04
   1.618743e+04  -4.131557e+05
   2.465682e+05  -4.195426e+05
   2.132046e+05  -1.005978e+05
   5.176741e+04   2.127989e+05
  -9.402834e+04   2.203964e+05
  -1.684543e+05  -3.858013e+04
  -1.391792e+05  -2.584055e+05
   7.427197e+03  -2.164607e+05
   1.839747e+05  -1.513300e+01
   2.340904e+05   1.277743e+05
   1.142279e+05   4.816584e+04
  -2.843635e+04  -8.365501e+04
  -3.674417e+04  -4.707343e+04
   4.390441e+04   1.540515e+05
   2.913032e+04   2.802692e+05
  -1.322815e+05   1.466029e+05
  -2.515386e+05  -1.407970e+05
  -1.273775e+05  -2.950031e+05
   1.698394e+05  -1.694396e+05
   3.306052e+05   9.586332e+04
   1.471590e+05   2.502430e+05
  -2.285119e+05   1.883332e+05
  -4.230459e+05   2.079571e+03
  -2.400787e+05  -1.587406e+05
   1.239109e+05  -2.093657e+05
   2.949613e+05  -1.440988e+05
   1.305564e+05  -1.847498e+04
  -1.384519e+05   6.096281e+04
  -1.846961e+05   6.668556e+03
   4.931357e+04  -1.294019e+05
   3.063895e+05  -1.546226e+05
