
 $NMID
 id='ANONYMOUS ', fmtdat='(2E16.6)'
 volume=1.0
 tramp=1.0
 $END
   2.705949e+07  -2.156728e+06
   1.934056e+07   1.204212e+07
   1.003616e+06   1.773563e+07
  -1.151666e+07   1.193849e+07
  -1.004038e+07   1.107192e+06
  -6.810126e+05  -5.051078e+06
   5.569343e+06  -2.428106e+06
   4.201911e+06   4.393442e+06
  -1.232121e+06   7.424485e+06
  -5.051127e+06   3.417805e+06
  -4.516669e+06  -3.225971e+06
  -8.227875e+05  -5.503931e+06
   2.446371e+06  -1.342814e+06
   2.156629e+06   4.407640e+06
  -1.445811e+06   5.443419e+06
  -4.572206e+06   6.635515e+05
  -3.631766e+06  -5.175491e+06
   8.822608e+05  -6.828861e+06
   4.955040e+06  -3.566549e+06
   5.350059e+06   1.096276e+06
   2.642017e+06   3.513861e+06
   5.928598e+04   3.092703e+06
  -9.622081e+03   1.930395e+06
   1.715317e+06   2.118758e+06
   2.228590e+06   3.573095e+06
  -5.430225e+05   4.296115e+06
  -5.024406e+06   2.671428e+06
  -6.995774e+06  -6.045500e+05
  -4.079702e+06  -3.058333e+06
   1.151655e+06  -2.871683e+06
   3.645692e+06  -5.578069e+05
   1.429014e+06   1.684951e+06
  -2.449193e+06   1.913989e+06
  -3.795689e+06  -1.225590e+05
  -1.852067e+06  -2.793071e+06
   7.622121e+05  -3.696478e+06
   1.626951e+06  -1.795123e+06
   7.584546e+05   1.108026e+06
  -3.117477e+05   1.824701e+06
  -3.810006e+05  -5.238886e+05
   6.561799e+05  -2.993599e+06
   1.899652e+06  -2.173346e+06
   1.962748e+06   1.345230e+06
   1.854786e+05   3.382011e+06
  -2.180873e+06   1.315621e+06
  -2.635348e+06  -2.626849e+06
  -2.918108e+04  -4.091074e+06
   3.680126e+06  -1.609135e+06
   4.979373e+06   2.216624e+06
   2.347183e+06   3.971657e+06
  -2.031831e+06   2.677107e+06
  -4.320645e+06  -5.549769e+04
  -2.750909e+06  -1.942633e+06
   7.757945e+05  -1.789890e+06
   2.756929e+06  -1.626177e+05
   1.648110e+06   1.186607e+06
  -7.683183e+05   9.323490e+05
  -1.583225e+06  -4.701585e+05
  -5.385614e+04  -1.295888e+06
   1.697551e+06  -5.300311e+05
   1.293343e+06   1.010421e+06
  -1.076390e+06   1.650245e+06
  -2.845514e+06   5.627739e+05
  -1.907890e+06  -1.607278e+06
   1.182571e+06  -3.327690e+06
   3.901906e+06  -3.166510e+06
   4.283163e+06  -8.068970e+05
   2.545572e+06   2.386491e+06
   4.468614e+05   4.209574e+06
  -6.033477e+05   3.659639e+06
  -6.762972e+05   1.959863e+06
  -7.932138e+05   1.007345e+06
  -1.563212e+06   1.036357e+06
  -2.486822e+06   6.100827e+05
  -2.526661e+06  -1.045085e+06
  -1.216493e+06  -2.632950e+06
   7.892884e+05  -2.284912e+06
   2.130651e+06   4.350453e+04
   1.744146e+06   2.352890e+06
  -2.359134e+05   2.677908e+06
  -2.381678e+06   9.203296e+05
  -3.021853e+06  -1.360389e+06
  -1.752341e+06  -2.555591e+06
   1.400238e+05  -2.287605e+06
   1.069342e+06  -1.396556e+06
   9.334613e+05  -9.066169e+05
   1.081115e+06  -9.868562e+05
   2.358135e+06  -8.644584e+05
   3.684284e+06   2.408297e+05
   3.126544e+06   2.129762e+06
   2.980318e+05   3.613794e+06
  -2.846829e+06   3.495278e+06
  -3.859460e+06   1.632599e+06
  -2.224407e+06  -7.982119e+05
   2.501312e+05  -2.107436e+06
   1.329255e+06  -1.479311e+06
   4.375039e+05   1.965994e+05
  -1.083978e+06   1.088984e+06
  -1.548433e+06   3.377475e+05
  -6.005041e+05  -9.470187e+05
   6.029544e+05  -1.011410e+06
   7.065391e+05   2.902489e+05
  -4.552399e+05   1.161228e+06
  -1.716970e+06   4.436494e+04
  -1.686732e+06  -2.333770e+06
   1.666497e+03  -3.616340e+06
   2.326369e+06  -2.373100e+06
   3.624914e+06   4.417452e+05
   2.897757e+06   2.591087e+06
   6.992554e+05   2.731691e+06
  -1.232873e+06   1.391601e+06
  -1.515125e+06   1.237707e+05
  -4.470900e+05  -3.136169e+04
   3.557376e+05   6.546020e+05
  -2.063016e+05   1.089857e+06
  -1.450125e+06   5.665718e+05
  -1.744085e+06  -5.101381e+05
  -5.125384e+05  -1.090371e+06
   9.753367e+05  -6.229350e+05
   1.001170e+06   3.635407e+05
  -6.248775e+05   8.092904e+05
  -2.254179e+06   1.491309e+05
  -2.093129e+06  -1.184026e+06
  -6.390438e+04  -2.119714e+06
   2.098529e+06  -1.814986e+06
   2.555456e+06  -4.029623e+05
   1.114728e+06   9.927477e+05
  -6.922944e+05   1.199680e+06
  -1.182037e+06   1.788043e+05
  -1.010833e+05  -8.445872e+05
   1.297257e+06  -6.655157e+05
   1.595631e+06   5.501932e+05
   5.507346e+05   1.464997e+06
  -8.004609e+05   1.121662e+06
  -1.215005e+06  -1.861290e+03
  -4.309307e+05  -6.243245e+05
   5.983104e+05  -1.173418e+05
   6.420388e+05   8.907025e+05
  -5.307068e+05   1.257906e+06
  -1.809652e+06   4.686537e+05
  -1.822195e+06  -9.271030e+05
  -4.015652e+05  -1.826412e+06
   1.176414e+06  -1.522625e+06
   1.523844e+06  -3.197489e+05
   5.642696e+05   7.298006e+05
  -5.277189e+05   8.013914e+05
  -6.839784e+05   7.271212e+04
   8.300355e+03  -5.367345e+05
   6.109499e+05  -4.071914e+05
   4.417669e+05   1.258263e+05
  -2.498522e+05   2.379616e+05
  -5.988095e+05  -3.643609e+05
  -1.673811e+04  -1.047005e+06
   1.164269e+06  -9.000010e+05
   1.895508e+06   2.821029e+05
   1.369991e+06   1.704557e+06
  -1.359348e+05   2.249312e+06
  -1.463747e+06   1.481883e+06
  -1.702219e+06   4.485173e+04
  -1.033603e+06  -9.463051e+05
  -3.651719e+05  -9.406634e+05
  -2.466045e+05  -3.963531e+05
  -3.613493e+05  -1.758207e+05
  -7.845419e+04  -5.457895e+05
   7.015392e+05  -8.884390e+05
   1.358422e+06  -4.553463e+05
   1.139496e+06   6.761429e+05
  -8.678363e+04   1.528510e+06
  -1.565471e+06   1.160814e+06
  -2.141313e+06  -3.420131e+05
  -1.205070e+06  -1.849709e+06
   6.811138e+05  -2.179071e+06
   2.163838e+06  -1.141578e+06
   2.257081e+06   3.517462e+05
   1.169674e+06   1.196538e+06
  -3.047153e+04   1.095794e+06
  -5.062398e+05   6.733057e+05
  -3.351037e+05   6.504703e+05
  -1.920457e+05   1.011531e+06
  -5.220391e+05   1.061637e+06
  -1.078320e+06   2.848307e+05
  -1.203923e+06  -9.674824e+05
  -5.319452e+05  -1.724892e+06
   5.572329e+05  -1.326470e+06
   1.193803e+06  -6.733567e+04
   8.293500e+05   1.067392e+06
  -1.812242e+05   1.276183e+06
  -8.979765e+05   5.716425e+05
  -7.504406e+05  -3.624301e+05
  -9.639034e+04  -8.516989e+05
   2.504241e+05  -7.681319e+05
  -1.865384e+04  -4.751357e+05
  -3.602899e+05  -3.424223e+05
  -3.615253e+04  -3.672628e+05
   9.672526e+05  -2.534833e+05
   1.785176e+06   1.994610e+05
   1.503731e+06   8.280678e+05
   1.422822e+05   1.213283e+06
  -1.258784e+06   1.042898e+06
  -1.611070e+06   4.025417e+05
  -8.324024e+05  -2.507984e+05
   1.476835e+05  -4.446127e+05
   4.210060e+05  -1.201190e+05
  -1.211351e+04   2.727405e+05
  -4.553530e+05   2.109577e+05
  -4.257456e+05  -3.040986e+05
  -1.123473e+05  -6.864360e+05
   2.710653e+04  -4.384471e+05
  -1.431508e+05   1.809772e+05
  -3.566209e+05   3.826777e+05
  -2.832622e+05  -1.921040e+05
   1.746322e+05  -9.469893e+05
   7.891881e+05  -9.698284e+05
   1.079953e+06  -1.106071e+05
   6.431426e+05   8.138401e+05
  -3.479263e+05   9.263201e+05
  -1.046135e+06   2.127241e+05
  -6.607066e+05  -5.500180e+05
   5.950531e+05  -6.386325e+05
   1.520911e+06  -2.071671e+04
   1.121401e+06   7.421688e+05
  -2.966484e+05   1.036262e+06
  -1.410748e+06   6.601761e+05
  -1.262846e+06  -5.462013e+04
  -2.024531e+05  -5.047072e+05
   5.783635e+05  -3.270950e+05
   3.195506e+05   2.175981e+05
  -5.842276e+05   4.251424e+05
  -1.070755e+06  -1.471008e+05
  -5.191473e+05  -1.116443e+06
   6.469841e+05  -1.520149e+06
   1.412692e+06  -7.506769e+05
   1.163302e+06   7.265970e+05
   1.985972e+05   1.683655e+06
  -6.699183e+05   1.281544e+06
  -8.907620e+05  -6.769940e+04
  -5.078030e+05  -1.092510e+06
   8.246756e+04  -9.719278e+05
   4.911399e+05  -1.364826e+05
   5.170285e+05   3.653710e+05
   2.391489e+05   1.581065e+05
   1.196360e+04  -1.186559e+05
   1.451901e+05   2.015559e+05
   4.461470e+05   8.597679e+05
   3.001871e+05   1.025289e+06
  -5.388013e+05   4.072138e+05
  -1.396774e+06  -4.103806e+05
  -1.303312e+06  -7.615667e+05
  -1.977383e+05  -6.259691e+05
   8.703268e+05  -3.885588e+05
   9.457770e+05  -2.166486e+05
   2.679097e+05  -1.244735e+04
  -1.641257e+05   2.006830e+05
   6.629927e+04   2.478205e+05
   3.490723e+05   1.483230e+05
   6.924693e+03   1.264418e+05
  -7.207013e+05   1.785476e+05
  -9.537826e+05  -3.048052e+04
  -2.548501e+05  -6.082887e+05
   8.625900e+05  -1.028213e+06
   1.489647e+06  -6.435828e+05
   1.176410e+06   4.367430e+05
   2.243537e+05   1.313615e+06
  -6.676397e+05   1.246208e+06
  -9.590692e+05   4.364836e+05
  -6.188590e+05  -2.677866e+05
  -8.249614e+04  -3.254354e+05
   1.486836e+05   4.408184e+03
  -4.675874e+04   8.749369e+04
  -3.304551e+05  -3.100185e+05
  -2.760756e+05  -7.474962e+05
   1.794571e+05  -6.061724e+05
   6.454178e+05   1.755729e+05
   6.259265e+05   9.358551e+05
   6.277337e+03   9.340070e+05
  -7.461918e+05   1.365466e+05
  -9.232007e+05  -7.438231e+05
  -2.659934e+05  -9.948165e+05
   6.652728e+05  -5.584500e+05
   9.845838e+05   8.666105e+04
   4.448577e+05   4.939734e+05
  -2.485368e+05   5.422495e+05
  -2.691104e+05   3.270173e+05
   3.113287e+05   4.597301e+04
   6.212022e+05  -2.455917e+04
   1.087949e+05   2.650571e+05
  -7.592888e+05   6.438073e+05
  -1.091589e+06   5.757539e+05
  -6.249013e+05  -8.646920e+04
   8.929023e+04  -7.689537e+05
   4.283592e+05  -7.641303e+05
   3.032785e+05  -9.632048e+04
   4.715884e+03   4.739934e+05
  -2.315029e+05   3.561498e+05
  -3.253402e+05  -2.097612e+05
  -2.251383e+05  -5.339398e+05
   6.226654e+04  -3.241593e+05
   3.555450e+05   7.243706e+04
   4.175736e+05   2.022378e+05
   2.268530e+05   4.055201e+04
   1.672508e+03  -7.639213e+04
  -8.397163e+04   8.329686e+04
  -9.597384e+04   3.675822e+05
  -1.870490e+05   4.144272e+05
  -3.316180e+05   6.156334e+04
  -3.175727e+05  -4.313305e+05
  -1.200722e+04  -5.998106e+05
   4.115730e+05  -2.515226e+05
   5.600253e+05   3.025100e+05
   1.951221e+05   5.562517e+05
  -4.437199e+05   3.293587e+05
  -7.675071e+05  -9.783817e+04
  -4.206051e+05  -3.473901e+05
   2.659369e+05  -3.136006e+05
   5.638352e+05  -1.442874e+05
   1.710947e+05  -9.727077e+03
  -3.977467e+05  -2.570664e+03
  -4.028872e+05  -1.442575e+05
   2.256019e+05  -3.147493e+05
   7.961492e+05  -2.415346e+05
