
 $NMID
 id='ANONYMOUS ', fmtdat='(2E16.6)'
 volume=1.0
 tramp=1.0
 $END
  -2.732615e+07   1.298336e+06
  -1.835670e+07  -1.325588e+07
   2.934261e+05  -1.772100e+07
   1.179300e+07  -1.073731e+07
   9.338167e+06  -2.174899e+05
   1.807057e+05   4.801911e+06
  -5.229668e+06   1.815119e+06
  -3.559081e+06  -4.321970e+06
   1.463254e+06  -6.731700e+06
   4.863684e+06  -2.907709e+06
   4.313237e+06   3.186871e+06
   7.861038e+05   5.270823e+06
  -2.391476e+06   1.368045e+06
  -2.100399e+06  -4.048056e+06
   1.415100e+06  -4.985148e+06
   4.363950e+06  -3.992538e+05
   3.316280e+06   5.115353e+06
  -1.090810e+06   6.588836e+06
  -4.998464e+06   3.401256e+06
  -5.395357e+06  -1.158490e+06
  -2.736016e+06  -3.680399e+06
   3.160015e+04  -3.394858e+06
   4.283402e+05  -2.035866e+06
  -1.235833e+06  -1.755633e+06
  -2.091219e+06  -2.965643e+06
   2.598411e+05  -3.935157e+06
   4.580042e+06  -2.748203e+06
   6.680418e+06   3.227724e+05
   4.050551e+06   2.879008e+06
  -9.061063e+05   2.927076e+06
  -3.384767e+06   8.281110e+05
  -1.535582e+06  -1.354254e+06
   1.922251e+06  -1.801738e+06
   3.316430e+06  -1.493760e+05
   1.869633e+06   2.343280e+06
  -4.271651e+05   3.463388e+06
  -1.524002e+06   1.882468e+06
  -1.021308e+06  -9.887012e+05
   9.848278e+04  -1.940463e+06
   5.155244e+05   2.303413e+05
  -3.671242e+05   2.725701e+06
  -1.710702e+06   2.021179e+06
  -1.787331e+06  -1.363172e+06
   1.115387e+05  -3.218506e+06
   2.404178e+06  -1.015790e+06
   2.531853e+06   2.844340e+06
  -2.376577e+05   4.069794e+06
  -3.699721e+06   1.492508e+06
  -4.685103e+06  -2.159623e+06
  -2.114503e+06  -3.706953e+06
   1.900216e+06  -2.430375e+06
   3.944577e+06   9.901073e+04
   2.452381e+06   1.809616e+06
  -8.296127e+05   1.612002e+06
  -2.622314e+06   4.665736e+04
  -1.491742e+06  -1.189572e+06
   7.824958e+05  -8.704303e+05
   1.439917e+06   4.372450e+05
  -3.165716e+04   1.070208e+06
  -1.494921e+06   2.680611e+05
  -8.990016e+05  -1.032522e+06
   1.293612e+06  -1.394637e+06
   2.721547e+06  -2.979848e+05
   1.716141e+06   1.652044e+06
  -1.110754e+06   3.224134e+06
  -3.617853e+06   3.121136e+06
  -4.091485e+06   8.838848e+05
  -2.559064e+06  -2.248411e+06
  -5.070259e+05  -4.021690e+06
   6.027388e+05  -3.391253e+06
   6.230237e+05  -1.673348e+06
   5.621746e+05  -8.405793e+05
   1.217105e+06  -1.059915e+06
   2.198572e+06  -7.975602e+05
   2.414217e+06   7.451993e+05
   1.305540e+06   2.312257e+06
  -5.503998e+05   2.120789e+06
  -1.885833e+06   8.276568e+04
  -1.665176e+06  -2.044274e+06
   1.124561e+05  -2.472682e+06
   2.201367e+06  -9.707694e+05
   2.940280e+06   1.181181e+06
   1.768724e+06   2.447542e+06
  -1.283038e+05   2.280685e+06
  -1.105719e+06   1.381506e+06
  -9.586859e+05   8.176082e+05
  -1.010099e+06   8.655077e+05
  -2.151677e+06   7.962243e+05
  -3.393047e+06  -1.794783e+05
  -2.913341e+06  -1.908891e+06
  -3.491536e+05  -3.312103e+06
   2.521270e+06  -3.289228e+06
   3.500342e+06  -1.644138e+06
   2.105151e+06   6.315374e+05
  -1.090540e+05   1.956845e+06
  -1.153870e+06   1.442328e+06
  -4.232530e+05  -1.537145e+05
   9.582338e+05  -1.045766e+06
   1.432978e+06  -3.463288e+05
   5.964995e+05   8.807699e+05
  -5.099626e+05   9.509234e+05
  -6.167751e+05  -2.382529e+05
   4.170752e+05  -9.918167e+05
   1.508955e+06   4.788098e+04
   1.445555e+06   2.131724e+06
  -3.727845e+04   3.184020e+06
  -2.056839e+06   2.060331e+06
  -3.221824e+06  -3.696328e+05
  -2.640384e+06  -2.241968e+06
  -7.044182e+05  -2.429799e+06
   1.075999e+06  -1.309881e+06
   1.380997e+06  -1.701531e+05
   4.103911e+05   1.729649e+04
  -3.397170e+05  -5.926049e+05
   1.852527e+05  -1.011998e+06
   1.345478e+06  -5.409422e+05
   1.610970e+06   4.593301e+05
   4.710252e+05   1.000716e+06
  -8.832583e+05   5.817989e+05
  -9.039173e+05  -3.021696e+05
   5.506939e+05  -7.140465e+05
   2.010120e+06  -1.633361e+05
   1.892376e+06   1.006980e+06
   1.015015e+05   1.889921e+06
  -1.858142e+06   1.688015e+06
  -2.321055e+06   4.252873e+05
  -1.041123e+06  -8.974223e+05
   6.270263e+05  -1.131778e+06
   1.106582e+06  -1.838743e+05
   1.184264e+05   7.926013e+05
  -1.181694e+06   6.431443e+05
  -1.467111e+06  -4.774199e+05
  -5.154105e+05  -1.320380e+06
   7.137163e+05  -1.013692e+06
   1.091561e+06  -2.360645e+03
   3.833173e+05   5.604728e+05
  -5.578619e+05   1.098080e+05
  -6.144875e+05  -8.092725e+05
   4.527748e+05  -1.174727e+06
   1.651035e+06  -4.834996e+05
   1.700467e+06   8.042368e+05
   4.104943e+05   1.669092e+06
  -1.050928e+06   1.419715e+06
  -1.387648e+06   3.182919e+05
  -5.217445e+05  -6.553771e+05
   4.669421e+05  -7.377342e+05
   6.126835e+05  -9.064528e+04
   6.246245e+03   4.633685e+05
  -5.189003e+05   3.738859e+05
  -3.736885e+05  -7.816918e+04
   2.251120e+05  -1.812505e+05
   5.320295e+05   3.396381e+05
   1.933085e+04   9.535063e+05
  -1.049369e+06   8.439809e+05
  -1.742250e+06  -2.162754e+05
  -1.297672e+06  -1.530913e+06
   6.590374e+04  -2.058830e+06
   1.291437e+06  -1.377161e+06
   1.532352e+06  -7.893417e+04
   9.515521e+05   8.099445e+05
   3.705836e+05   8.070977e+05
   2.700706e+05   3.428280e+05
   3.559200e+05   1.747485e+05
   8.059925e+04   5.164317e+05
  -6.258703e+05   8.220761e+05
  -1.220179e+06   4.399226e+05
  -1.044009e+06  -5.757467e+05
   4.221596e+04  -1.373733e+06
   1.393834e+06  -1.087699e+06
   1.957982e+06   2.596086e+05
   1.134232e+06   1.661397e+06
  -5.903355e+05   2.003223e+06
  -1.960389e+06   1.076568e+06
  -2.053717e+06  -2.824553e+05
  -1.069938e+06  -1.051702e+06
   3.500452e+03  -9.699451e+05
   4.163274e+05  -6.150424e+05
   2.592832e+05  -6.241828e+05
   1.450432e+05  -9.597762e+05
   4.651425e+05  -9.974617e+05
   9.933841e+05  -2.873870e+05
   1.132887e+06   8.560844e+05
   5.340396e+05   1.566152e+06
  -4.737607e+05   1.230200e+06
  -1.087029e+06   8.847199e+04
  -7.751938e+05  -9.632824e+05
   1.506994e+05  -1.166322e+06
   8.164256e+05  -5.173161e+05
   6.832800e+05   3.432701e+05
   8.100628e+04   7.831904e+05
  -2.336777e+05   6.928249e+05
   2.398409e+04   4.187525e+05
   3.464092e+05   3.010560e+05
   4.697681e+04   3.345947e+05
  -8.863619e+05   2.487081e+05
  -1.649510e+06  -1.491736e+05
  -1.393529e+06  -7.292431e+05
  -1.388812e+05  -1.111363e+06
   1.147790e+06  -9.824895e+05
   1.465716e+06  -3.940617e+05
   7.516159e+05   2.267901e+05
  -1.374775e+05   4.163854e+05
  -3.836148e+05   1.091075e+05
   4.027939e+03  -2.659668e+05
   4.064327e+05  -2.122304e+05
   4.004483e+05   2.682231e+05
   1.388060e+05   6.291528e+05
   1.863022e+03   4.087002e+05
   1.189143e+05  -1.595528e+05
   2.976761e+05  -3.525473e+05
   2.606959e+05   1.687068e+05
  -1.245666e+05   8.704170e+05
  -6.999433e+05   9.113941e+05
  -1.010259e+06   1.304426e+05
  -6.291276e+05  -7.375064e+05
   3.020692e+05  -8.722732e+05
   9.710072e+05  -2.319696e+05
   6.245118e+05   4.824616e+05
  -5.305620e+05   5.947184e+05
  -1.379824e+06   5.315788e+04
  -1.022260e+06  -6.433643e+05
   2.532335e+05  -9.347330e+05
   1.257839e+06  -6.205853e+05
   1.136457e+06   2.142819e+04
   1.920840e+05   4.484706e+05
  -5.187085e+05   3.056785e+05
  -3.007206e+05  -1.985700e+05
   5.201130e+05  -4.163280e+05
   9.918955e+05   9.496669e+04
   5.229515e+05   1.009408e+06
  -5.371579e+05   1.423971e+06
  -1.269948e+06   7.406664e+05
  -1.088383e+06  -6.273033e+05
  -2.321876e+05  -1.532180e+06
   5.727771e+05  -1.182185e+06
   8.083273e+05   4.588097e+04
   4.831160e+05   9.810424e+05
  -5.818907e+04   8.765106e+05
  -4.464633e+05   1.305212e+05
  -4.742196e+05  -3.125565e+05
  -2.139790e+05  -1.289669e+05
  -1.010387e+04   1.032344e+05
  -1.500419e+05  -1.958382e+05
  -4.358136e+05  -7.800880e+05
  -2.907958e+05  -9.198663e+05
   4.952046e+05  -3.769440e+05
   1.286383e+06   3.349726e+05
   1.200221e+06   6.537470e+05
   1.953006e+05   5.687057e+05
  -7.747474e+05   3.864414e+05
  -8.525432e+05   2.223891e+05
  -2.504937e+05   7.608793e+03
   1.408157e+05  -1.914477e+05
  -5.803767e+04  -2.116721e+05
  -3.136621e+05  -1.113609e+05
  -1.582238e+04  -1.174789e+05
   6.423956e+05  -1.969021e+05
   8.779960e+05  -2.872006e+03
   2.700893e+05   5.621633e+05
  -7.511128e+05   9.814277e+05
  -1.359961e+06   6.380499e+05
  -1.111164e+06  -3.664389e+05
  -2.504546e+05  -1.196809e+06
   5.811519e+05  -1.163613e+06
   8.707167e+05  -4.371137e+05
   5.765861e+05   2.184739e+05
   9.096085e+04   2.989575e+05
  -1.284669e+05   1.444278e+04
   4.006634e+04  -6.995359e+04
   3.032339e+05   2.753038e+05
   2.690931e+05   6.739990e+05
  -1.453596e+05   5.649243e+05
  -5.984077e+05  -1.313103e+05
  -6.136899e+05  -8.339417e+05
  -4.758271e+04  -8.644530e+05
   6.779191e+05  -1.641573e+05
   8.783109e+05   6.442054e+05
   2.817361e+05   9.086728e+05
  -5.956505e+05   5.424561e+05
  -9.132963e+05  -4.945139e+04
  -4.255240e+05  -4.521913e+05
   2.184380e+05  -5.159517e+05
   2.491833e+05  -3.052295e+05
  -2.769701e+05  -2.235221e+04
  -5.663316e+05   4.455278e+04
  -1.106208e+05  -2.439888e+05
   6.758091e+05  -6.108536e+05
   9.889598e+05  -5.459769e+05
   5.825047e+05   7.592143e+04
  -6.018538e+04   7.126163e+05
  -3.826447e+05   7.127967e+05
  -2.912444e+05   1.001780e+05
  -2.730817e+04  -4.324082e+05
   2.023802e+05  -3.409927e+05
   3.090129e+05   1.714377e+05
   2.243189e+05   4.830265e+05
  -4.919813e+04   3.102466e+05
  -3.308435e+05  -5.118930e+04
  -3.889285e+05  -1.821807e+05
  -2.059647e+05  -3.713816e+04
   2.100923e+03   8.120782e+04
   6.610586e+04  -6.125506e+04
   5.847756e+04  -3.401694e+05
   1.433718e+05  -4.077873e+05
   3.048613e+05  -8.956854e+04
   3.248662e+05   3.798309e+05
   4.933001e+04   5.571050e+05
  -3.667308e+05   2.511803e+05
  -5.334308e+05  -2.565456e+05
  -2.035759e+05  -5.023376e+05
   4.008369e+05  -3.155118e+05
   7.155256e+05   6.452517e+04
   3.996010e+05   3.069859e+05
  -2.382296e+05   3.038327e+05
  -5.203560e+05   1.581203e+05
  -1.659773e+05   1.175547e+04
   3.570014e+05  -2.439601e+04
   3.749635e+05   1.054322e+05
  -1.838638e+05   2.928934e+05
  -7.066130e+05   2.540430e+05
