
 $NMID
 id='ANONYMOUS ', fmtdat='(2E16.6)'
 volume=1.0
 tramp=1.0
 $END
   4.947284e+07   1.736901e+05
   2.978416e+07   2.981637e+07
  -5.999267e+06   3.301649e+07
  -2.370694e+07   1.358187e+07
  -1.458561e+07  -5.171407e+06
   2.457146e+06  -8.138740e+06
   8.612348e+06   4.289059e+05
   2.975011e+06   8.352108e+06
  -4.942791e+06   8.704078e+06
  -8.434440e+06   2.248180e+06
  -6.376760e+06  -5.515430e+06
  -8.233897e+05  -7.874403e+06
   3.670568e+06  -2.417284e+06
   2.600474e+06   5.173711e+06
  -3.134695e+06   6.231299e+06
  -7.004776e+06  -9.073011e+05
  -4.163659e+06  -8.993332e+06
   3.163823e+06  -1.054883e+07
   8.939522e+06  -5.264624e+06
   9.546735e+06   1.945270e+06
   5.619980e+06   6.696251e+06
   3.674905e+05   7.406133e+06
  -2.389493e+06   4.969696e+06
  -9.983442e+05   2.344278e+06
   1.540426e+06   2.370760e+06
   2.006000e+05   4.265944e+06
  -5.332063e+06   4.131703e+06
  -9.133756e+06   3.151983e+05
  -6.407738e+06  -3.914984e+06
   9.703467e+04  -4.666087e+06
   3.792387e+06  -2.211871e+06
   2.369107e+06   3.901449e+05
  -9.342426e+05   1.329597e+06
  -2.672683e+06   5.337107e+05
  -2.269114e+06  -1.715152e+06
  -4.532496e+05  -3.978978e+06
   1.812651e+06  -3.422713e+06
   2.744285e+06   4.355932e+05
   1.208873e+06   3.329573e+06
  -8.194393e+05   1.350258e+06
  -2.234613e+05  -2.657698e+06
   2.280068e+06  -2.308538e+06
   2.290041e+06   2.738666e+06
  -1.860468e+06   5.375771e+06
  -5.800935e+06   9.190781e+05
  -4.418314e+06  -5.986014e+06
   1.562120e+06  -7.419215e+06
   6.565397e+06  -2.158240e+06
   6.466089e+06   3.896467e+06
   1.981447e+06   5.479934e+06
  -3.077305e+06   2.700288e+06
  -4.989525e+06  -1.112557e+06
  -2.489620e+06  -3.046206e+06
   2.010530e+06  -2.051276e+06
   4.070819e+06   6.811995e+05
   1.844368e+06   2.339108e+06
  -1.496709e+06   1.247573e+06
  -1.696296e+06  -8.643727e+05
   9.492200e+05  -9.442012e+05
   2.179315e+06   1.211725e+06
  -2.553325e+05   2.753007e+06
  -3.772674e+06   1.710508e+06
  -4.634815e+06  -9.459876e+05
  -2.161277e+06  -3.399204e+06
   1.664328e+06  -4.832706e+06
   4.760890e+06  -4.524250e+06
   5.792561e+06  -1.560538e+06
   4.151315e+06   3.016323e+06
   8.541812e+05   5.748409e+06
  -1.524893e+06   4.486740e+06
  -1.425161e+06   1.368784e+06
  -2.254957e+05   9.731371e+04
  -3.164704e+05   1.119569e+06
  -1.862607e+06   1.634176e+06
  -2.855869e+06  -5.287982e+03
  -1.958497e+06  -2.115905e+06
   9.627795e+04  -2.256628e+06
   1.716266e+06  -2.359836e+05
   1.786546e+06   2.106352e+06
   9.139468e+03   2.914780e+06
  -2.704740e+06   1.540956e+06
  -4.204713e+06  -1.223414e+06
  -2.908869e+06  -3.519907e+06
   9.005770e+04  -3.804736e+06
   2.029598e+06  -2.395307e+06
   1.926362e+06  -1.054768e+06
   1.627624e+06  -7.535861e+05
   2.786414e+06  -6.101567e+05
   4.210025e+06   5.774333e+05
   3.457768e+06   2.573694e+06
   2.425238e+05   4.027787e+06
  -3.077426e+06   3.900205e+06
  -4.118396e+06   2.115155e+06
  -2.620437e+06  -4.737307e+05
  -2.067733e+05  -2.258905e+06
   1.146322e+06  -1.893840e+06
   5.529927e+05   6.813633e+04
  -1.079913e+06   1.300499e+06
  -1.837541e+06   4.122044e+05
  -8.694814e+05  -1.157522e+06
   5.210706e+05  -1.121869e+06
   4.995929e+05   3.392401e+05
  -8.841045e+05   7.932312e+05
  -1.777291e+06  -9.561647e+05
  -8.955673e+05  -3.160202e+06
   1.138214e+06  -3.412078e+06
   2.860026e+06  -1.431507e+06
   3.373079e+06   1.119622e+06
   2.495905e+06   2.641676e+06
   5.901468e+05   2.632101e+06
  -1.218286e+06   1.494053e+06
  -1.581486e+06   2.434867e+05
  -4.878079e+05  -3.375958e+04
   3.736026e+05   7.298127e+05
  -3.568748e+05   1.295615e+06
  -1.813930e+06   5.970523e+05
  -1.986878e+06  -7.846673e+05
  -4.284245e+05  -1.342055e+06
   1.124327e+06  -6.036258e+05
   9.275904e+05   4.102750e+05
  -7.755377e+05   5.928881e+05
  -2.192442e+06  -1.623310e+05
  -1.858216e+06  -1.263726e+06
   1.237167e+05  -2.005871e+06
   2.233449e+06  -1.748323e+06
   2.739377e+06  -3.581119e+05
   1.220039e+06   1.197624e+06
  -8.650346e+05   1.460509e+06
  -1.492646e+06   2.010913e+05
  -1.921542e+05  -1.044876e+06
   1.473629e+06  -7.522620e+05
   1.713692e+06   7.076236e+05
   4.125931e+05   1.606777e+06
  -1.008278e+06   1.022432e+06
  -1.246587e+06  -2.236427e+05
  -2.937398e+05  -7.380802e+05
   7.590463e+05  -7.371153e+04
   7.406508e+05   1.019929e+06
  -5.482830e+05   1.417646e+06
  -1.980558e+06   5.711399e+05
  -2.032286e+06  -9.994235e+05
  -4.264590e+05  -2.035386e+06
   1.368994e+06  -1.653102e+06
   1.690058e+06  -2.630210e+05
   5.312170e+05   8.328164e+05
  -6.194533e+05   8.182334e+05
  -6.486704e+05   9.617019e+04
   7.550564e+04  -3.947835e+05
   5.005486e+05  -2.721959e+05
   1.942674e+05   5.133880e+04
  -3.912395e+05  -1.767348e+04
  -5.333148e+05  -5.977243e+05
   1.441523e+05  -1.159533e+06
   1.329489e+06  -9.245126e+05
   2.066617e+06   3.522495e+05
   1.493582e+06   1.884929e+06
  -1.527992e+05   2.410776e+06
  -1.559378e+06   1.470567e+06
  -1.699042e+06  -4.901941e+04
  -9.275355e+05  -8.797077e+05
  -3.682633e+05  -7.037061e+05
  -4.549631e+05  -2.614782e+05
  -5.782819e+05  -2.925912e+05
  -9.291746e+04  -7.268799e+05
   8.277598e+05  -9.166796e+05
   1.426169e+06  -3.843350e+05
   1.092504e+06   6.860564e+05
  -1.774599e+05   1.481277e+06
  -1.673275e+06   1.133017e+06
  -2.250647e+06  -4.100329e+05
  -1.194221e+06  -2.036701e+06
   9.080415e+05  -2.353691e+06
   2.458136e+06  -1.100218e+06
   2.349071e+06   5.519757e+05
   1.030574e+06   1.283078e+06
  -1.381085e+05   9.760981e+05
  -3.902150e+05   5.657784e+05
  -1.170266e+05   7.617720e+05
  -1.094661e+05   1.271307e+06
  -6.311323e+05   1.263195e+06
  -1.258389e+06   3.331302e+05
  -1.344794e+06  -1.043333e+06
  -5.949138e+05  -1.866921e+06
   5.854384e+05  -1.441212e+06
   1.274941e+06  -3.812832e+04
   8.407360e+05   1.231356e+06
  -3.263125e+05   1.380660e+06
  -1.099599e+06   4.517895e+05
  -8.001802e+05  -6.228776e+05
   7.080785e+04  -1.029438e+06
   4.672951e+05  -7.793124e+05
   5.071321e+04  -4.254957e+05
  -4.330840e+05  -3.338084e+05
  -6.520851e+04  -3.838915e+05
   1.115971e+06  -2.372068e+05
   2.028442e+06   2.759345e+05
   1.622627e+06   9.722029e+05
   1.719656e+04   1.393926e+06
  -1.518660e+06   1.150465e+06
  -1.790093e+06   3.357522e+05
  -8.357467e+05  -4.312619e+05
   2.364003e+05  -5.495426e+05
   4.920090e+05  -5.690660e+04
   2.354655e+04   3.999732e+05
  -4.452653e+05   2.653098e+05
  -4.823576e+05  -3.288033e+05
  -2.482094e+05  -7.259907e+05
  -8.558756e+04  -4.825485e+05
  -1.303016e+05   1.148795e+05
  -2.801503e+05   3.241670e+05
  -2.824714e+05  -2.189052e+05
   1.234181e+05  -9.939556e+05
   8.646668e+05  -1.075155e+06
   1.324617e+06  -1.831436e+05
   8.420390e+05   8.960298e+05
  -3.905036e+05   1.119292e+06
  -1.231860e+06   3.395979e+05
  -7.420739e+05  -5.578225e+05
   6.722757e+05  -6.632511e+05
   1.582648e+06   3.846502e+04
   1.046292e+06   8.131837e+05
  -4.265837e+05   1.002761e+06
  -1.468126e+06   5.456266e+05
  -1.241065e+06  -1.343476e+05
  -1.592750e+05  -5.072518e+05
   6.311906e+05  -2.926890e+05
   3.799891e+05   2.785993e+05
  -5.805524e+05   5.292915e+05
  -1.182531e+06  -6.323443e+04
  -6.861419e+05  -1.170669e+06
   5.620642e+05  -1.711633e+06
   1.466255e+06  -9.144031e+05
   1.272944e+06   7.259573e+05
   2.506074e+05   1.782703e+06
  -6.972540e+05   1.317574e+06
  -9.233810e+05  -1.388260e+05
  -4.713137e+05  -1.167652e+06
   1.753590e+05  -9.705983e+05
   5.504040e+05  -1.021289e+05
   4.846165e+05   3.598277e+05
   1.782371e+05   1.295096e+05
   4.024962e+04  -9.692994e+04
   2.689924e+05   2.884644e+05
   5.273861e+05   9.486139e+05
   2.323170e+05   1.063476e+06
  -6.867719e+05   4.066510e+05
  -1.483893e+06  -4.211356e+05
  -1.308089e+06  -7.907850e+05
  -2.034521e+05  -6.876700e+05
   8.467361e+05  -4.469514e+05
   9.757949e+05  -2.144979e+05
   3.508708e+05   4.332104e+04
  -1.420682e+05   2.305701e+05
  -1.786064e+04   2.022932e+05
   2.792601e+05   8.335433e+04
   5.165850e+04   1.347629e+05
  -6.639957e+05   2.598330e+05
  -1.045159e+06   1.595886e+04
  -4.397829e+05  -6.875483e+05
   8.156929e+05  -1.202136e+06
   1.673431e+06  -7.941536e+05
   1.416286e+06   4.013595e+05
   3.151106e+05   1.398025e+06
  -7.249313e+05   1.390453e+06
  -1.035663e+06   5.641449e+05
  -6.656966e+05  -2.138632e+05
  -1.418321e+05  -3.566375e+05
   7.715329e+04  -7.203785e+04
  -7.364103e+04   2.003875e+04
  -3.105538e+05  -3.527610e+05
  -2.725182e+05  -7.955889e+05
   1.606105e+05  -6.835760e+05
   6.890667e+05   1.005220e+05
   7.697998e+05   9.326561e+05
   1.437575e+05   1.033163e+06
  -7.519623e+05   2.731185e+05
  -1.061095e+06  -6.903106e+05
  -3.804203e+05  -1.080435e+06
   6.955055e+05  -6.982705e+05
   1.119297e+06   4.303720e+04
   5.435963e+05   5.968347e+05
  -2.712264e+05   6.833799e+05
  -3.668136e+05   3.726680e+05
   2.510625e+05  -4.778338e+03
   6.481308e+05  -6.143591e+04
   1.543599e+05   3.046275e+05
  -8.011021e+05   7.034561e+05
  -1.233217e+06   5.738672e+05
  -7.597893e+05  -1.585246e+05
   7.109854e+04  -8.704970e+05
   5.254583e+05  -8.655917e+05
   4.234407e+05  -1.681149e+05
   7.152158e+04   4.799986e+05
  -2.281451e+05   4.431650e+05
  -3.619441e+05  -1.351974e+05
  -2.725980e+05  -5.686643e+05
   4.397780e+04  -4.295212e+05
   3.941701e+05   3.194481e+04
   4.796348e+05   2.664911e+05
   2.414276e+05   8.836281e+04
  -3.462385e+04  -1.516679e+05
  -7.446186e+04  -4.075442e+04
   2.765663e+04   3.603313e+05
  -3.744125e+04   5.624625e+05
  -3.214754e+05   2.330653e+05
  -4.775415e+05  -3.703742e+05
  -1.800631e+05  -6.514604e+05
   3.994060e+05  -3.310058e+05
   6.769585e+05   2.598649e+05
   2.755753e+05   5.664603e+05
  -4.953221e+05   3.803126e+05
  -8.867473e+05  -4.852257e+04
  -4.914237e+05  -3.624485e+05
   2.840549e+05  -4.103538e+05
   6.358790e+05  -2.488998e+05
   2.513469e+05  -2.242407e+04
  -3.464224e+05   8.767701e+04
  -4.149843e+05  -4.542995e+04
   1.525005e+05  -3.007153e+05
   7.305098e+05  -3.052655e+05
