
 $NMID
 id='ANONYMOUS ', fmtdat='(2E16.6)'
 volume=1.0
 tramp=1.0
 $END
   4.268289e+07  -1.238366e+06
   2.723504e+07   2.421834e+07
  -3.431041e+06   2.871115e+07
  -2.011781e+07   1.339851e+07
  -1.349778e+07  -3.294124e+06
   1.473544e+06  -7.357986e+06
   7.857774e+06  -4.311771e+05
   3.410676e+06   7.288707e+06
  -3.920342e+06   8.409053e+06
  -7.508636e+06   2.631238e+06
  -5.830026e+06  -4.780270e+06
  -8.347856e+05  -7.112112e+06
   3.238377e+06  -2.102644e+06
   2.388539e+06   4.900491e+06
  -2.687166e+06   5.986160e+06
  -6.330128e+06  -4.100570e+05
  -4.069936e+06  -7.841444e+06
   2.405011e+06  -9.472238e+06
   7.670820e+06  -4.845808e+06
   8.263462e+06   1.542164e+06
   4.823695e+06   5.588687e+06
   4.686621e+05   6.079273e+06
  -1.552601e+06   4.192622e+06
  -2.626000e+05   2.443645e+06
   1.559701e+06   2.755164e+06
  -1.013650e+05   4.152143e+06
  -5.133593e+06   3.574807e+06
  -8.331827e+06   3.453341e+04
  -5.649135e+06  -3.564570e+06
   3.419084e+05  -4.008795e+06
   3.605951e+06  -1.650175e+06
   1.958644e+06   7.170842e+05
  -1.414794e+06   1.328162e+06
  -2.900117e+06   1.961397e+05
  -1.994666e+06  -2.000771e+06
  -4.841605e+04  -3.749468e+06
   1.673406e+06  -2.895221e+06
   2.087679e+06   5.122513e+05
   8.200140e+05   2.763476e+06
  -5.622855e+05   8.284598e+05
   1.071353e+05  -2.642867e+06
   2.177202e+06  -2.217691e+06
   2.218215e+06   2.332272e+06
  -1.218060e+06   4.866231e+06
  -4.760185e+06   1.184373e+06
  -4.000769e+06  -4.912613e+06
   9.854862e+05  -6.478327e+06
   5.665999e+06  -2.066904e+06
   6.007284e+06   3.387799e+06
   2.057668e+06   5.048761e+06
  -2.795415e+06   2.670936e+06
  -4.788481e+06  -8.544747e+05
  -2.547556e+06  -2.766932e+06
   1.659950e+06  -2.003648e+06
   3.697282e+06   4.173705e+05
   1.804479e+06   2.006701e+06
  -1.272905e+06   1.167719e+06
  -1.651890e+06  -7.686751e+05
   7.055043e+05  -1.087624e+06
   2.127110e+06   7.181798e+05
   2.595971e+05   2.347682e+06
  -2.999111e+06   1.805328e+06
  -4.169288e+06  -4.670302e+05
  -2.130438e+06  -2.875477e+06
   1.485448e+06  -4.344606e+06
   4.434726e+06  -4.046727e+06
   5.256530e+06  -1.327134e+06
   3.629201e+06   2.752925e+06
   7.307989e+05   5.217840e+06
  -1.274095e+06   4.229892e+06
  -1.272162e+06   1.541391e+06
  -4.545086e+05   2.972046e+05
  -6.736719e+05   9.718083e+05
  -1.958454e+06   1.235324e+06
  -2.636172e+06  -3.271165e+05
  -1.635730e+06  -2.207703e+06
   3.370048e+05  -2.171075e+06
   1.786648e+06  -8.473663e+04
   1.682154e+06   2.176396e+06
  -1.016601e+05   2.784081e+06
  -2.555632e+06   1.313785e+06
  -3.774669e+06  -1.235707e+06
  -2.546809e+06  -3.166071e+06
   6.025760e+04  -3.319445e+06
   1.701947e+06  -2.116271e+06
   1.631744e+06  -1.037000e+06
   1.485834e+06  -8.162689e+05
   2.658095e+06  -6.467143e+05
   4.014086e+06   5.218984e+05
   3.293689e+06   2.457203e+06
   2.022021e+05   3.860181e+06
  -3.015661e+06   3.680905e+06
  -3.988383e+06   1.882259e+06
  -2.433592e+06  -5.797997e+05
  -4.130701e+04  -2.149202e+06
   1.185725e+06  -1.710283e+06
   5.004183e+05   1.051907e+05
  -1.074843e+06   1.198371e+06
  -1.731599e+06   3.693612e+05
  -7.737840e+05  -1.077941e+06
   5.506342e+05  -1.055892e+06
   5.458067e+05   3.480098e+05
  -7.984750e+05   8.987247e+05
  -1.793839e+06  -6.972883e+05
  -1.100548e+06  -2.965365e+06
   8.948402e+05  -3.483349e+06
   2.774396e+06  -1.652431e+06
   3.421384e+06   1.006362e+06
   2.516324e+06   2.671923e+06
   5.472896e+05   2.640038e+06
  -1.226681e+06   1.415433e+06
  -1.533872e+06   1.783819e+05
  -4.683640e+05  -3.959648e+04
   3.534024e+05   7.041880e+05
  -3.205962e+05   1.223139e+06
  -1.695272e+06   5.701768e+05
  -1.894234e+06  -7.191412e+05
  -4.367003e+05  -1.267459e+06
   1.080178e+06  -5.876339e+05
   9.286299e+05   4.168495e+05
  -7.520306e+05   6.394942e+05
  -2.197392e+06  -1.250774e+05
  -1.874059e+06  -1.280527e+06
   1.216620e+05  -2.018813e+06
   2.203875e+06  -1.703112e+06
   2.657013e+06  -3.216909e+05
   1.162965e+06   1.139618e+06
  -8.136860e+05   1.361113e+06
  -1.385837e+06   1.851605e+05
  -1.578710e+05  -9.698988e+05
   1.410891e+06  -6.994756e+05
   1.652032e+06   6.799276e+05
   4.216712e+05   1.562464e+06
  -9.648883e+05   1.029297e+06
  -1.231623e+06  -1.828396e+05
  -3.205114e+05  -7.125530e+05
   7.080670e+05  -8.150350e+04
   6.907789e+05   9.761967e+05
  -5.520676e+05   1.341349e+06
  -1.906370e+06   5.057897e+05
  -1.927231e+06  -9.899701e+05
  -3.866587e+05  -1.952914e+06
   1.318895e+06  -1.577760e+06
   1.627827e+06  -2.521570e+05
   5.225985e+05   8.052996e+05
  -6.005487e+05   7.950254e+05
  -6.484820e+05   7.138799e+04
   7.573923e+04  -4.319184e+05
   5.401981e+05  -2.857915e+05
   2.527180e+05   9.543827e+04
  -3.663963e+05   5.667001e+04
  -5.495080e+05  -5.403845e+05
   1.127408e+05  -1.120392e+06
   1.280684e+06  -8.886437e+05
   1.985380e+06   3.572680e+05
   1.410833e+06   1.827333e+06
  -1.837788e+05   2.326664e+06
  -1.540728e+06   1.425430e+06
  -1.679983e+06  -5.857488e+04
  -9.183138e+05  -9.126304e+05
  -3.274934e+05  -7.657685e+05
  -3.737635e+05  -2.873926e+05
  -5.126103e+05  -2.503340e+05
  -8.688257e+04  -6.662419e+05
   7.969850e+05  -8.873719e+05
   1.399137e+06  -3.734236e+05
   1.074871e+06   6.995024e+05
  -1.847397e+05   1.474926e+06
  -1.643670e+06   1.096459e+06
  -2.182241e+06  -4.236356e+05
  -1.150635e+06  -1.979518e+06
   8.669104e+05  -2.267952e+06
   2.365177e+06  -1.066272e+06
   2.291575e+06   5.303901e+05
   1.032766e+06   1.272334e+06
  -1.366378e+05   9.998166e+05
  -4.369663e+05   5.690021e+05
  -1.826352e+05   6.989060e+05
  -1.364620e+05   1.170589e+06
  -6.015448e+05   1.183218e+06
  -1.192121e+06   3.025075e+05
  -1.268903e+06  -1.023193e+06
  -5.401425e+05  -1.806070e+06
   5.897990e+05  -1.376884e+06
   1.235843e+06  -2.511800e+04
   8.116934e+05   1.183772e+06
  -3.019190e+05   1.335136e+06
  -1.046067e+06   4.709559e+05
  -7.819506e+05  -5.540875e+05
   3.084812e+04  -9.763644e+05
   4.156945e+05  -7.718277e+05
   4.383372e+04  -4.371450e+05
  -3.984401e+05  -3.342042e+05
  -4.941191e+04  -3.723110e+05
   1.063800e+06  -2.264847e+05
   1.929967e+06   2.736715e+05
   1.555594e+06   9.419586e+05
   3.662265e+04   1.332854e+06
  -1.438823e+06   1.091740e+06
  -1.725260e+06   3.255380e+05
  -8.273318e+05  -3.921418e+05
   2.112915e+05  -5.141814e+05
   4.710629e+05  -6.885449e+04
   1.524536e+04   3.561211e+05
  -4.422459e+05   2.358675e+05
  -4.541985e+05  -3.224297e+05
  -1.946163e+05  -6.978845e+05
  -4.645364e+04  -4.554439e+05
  -1.396234e+05   1.275698e+05
  -3.085897e+05   3.231547e+05
  -2.759112e+05  -2.141136e+05
   1.528383e+05  -9.587179e+05
   8.445527e+05  -1.017157e+06
   1.234358e+06  -1.521250e+05
   7.616530e+05   8.609908e+05
  -3.806535e+05   1.043703e+06
  -1.158162e+06   2.882567e+05
  -6.968023e+05  -5.560566e+05
   6.524908e+05  -6.381215e+05
   1.544878e+06   5.004295e+04
   1.039269e+06   8.091726e+05
  -4.079971e+05   9.979142e+05
  -1.450271e+06   5.423105e+05
  -1.231384e+06  -1.383250e+05
  -1.581646e+05  -5.055397e+05
   6.157809e+05  -2.885314e+05
   3.564238e+05   2.605586e+05
  -5.752730e+05   4.796419e+05
  -1.125026e+06  -1.014208e+05
  -6.088572e+05  -1.138368e+06
   5.974734e+05  -1.613135e+06
   1.434604e+06  -8.281224e+05
   1.207298e+06   7.328656e+05
   2.025678e+05   1.728564e+06
  -7.038363e+05   1.274483e+06
  -9.028208e+05  -1.339356e+05
  -4.553994e+05  -1.141660e+06
   1.676753e+05  -9.597055e+05
   5.304360e+05  -1.031933e+05
   4.779353e+05   3.686923e+05
   1.872059e+05   1.441675e+05
   3.563965e+04  -1.028641e+05
   2.315578e+05   2.555588e+05
   4.838091e+05   9.138312e+05
   2.279654e+05   1.046801e+06
  -6.438498e+05   3.979530e+05
  -1.428587e+06  -4.359857e+05
  -1.271947e+06  -7.977461e+05
  -1.891498e+05  -6.637368e+05
   8.447481e+05  -4.039399e+05
   9.569996e+05  -1.934838e+05
   3.261054e+05   2.790185e+04
  -1.484028e+05   2.138800e+05
  -2.330580e+03   2.181946e+05
   2.871395e+05   1.116395e+05
   3.632342e+04   1.278248e+05
  -6.681890e+05   2.146022e+05
  -1.000158e+06  -1.185499e+04
  -3.736939e+05  -6.491570e+05
   8.272467e+05  -1.114161e+06
   1.601093e+06  -7.196280e+05
   1.316485e+06   4.153451e+05
   2.623332e+05   1.352156e+06
  -7.155204e+05   1.318196e+06
  -9.998984e+05   5.043500e+05
  -6.334422e+05  -2.357374e+05
  -1.182071e+05  -3.406338e+05
   9.100724e+04  -4.231781e+04
  -7.099773e+04   3.900163e+04
  -3.072159e+05  -3.436699e+05
  -2.562804e+05  -7.759795e+05
   1.715248e+05  -6.465776e+05
   6.580022e+05   1.307729e+05
   6.979586e+05   9.235957e+05
   8.967345e+04   9.814619e+05
  -7.332755e+05   2.156135e+05
  -9.873955e+05  -7.055906e+05
  -3.269185e+05  -1.038641e+06
   6.796976e+05  -6.364430e+05
   1.060134e+06   6.717584e+04
   5.035712e+05   5.625819e+05
  -2.637077e+05   6.298294e+05
  -3.382935e+05   3.544376e+05
   2.597383e+05   1.956521e+04
   6.288670e+05  -3.873601e+04
   1.361298e+05   2.884902e+05
  -7.871091e+05   6.623977e+05
  -1.187175e+06   5.508115e+05
  -7.131747e+05  -1.412544e+05
   8.520765e+04  -8.258513e+05
   5.005157e+05  -8.208191e+05
   3.813311e+05  -1.464836e+05
   4.224793e+04   4.669041e+05
  -2.278077e+05   4.070890e+05
  -3.372174e+05  -1.583797e+05
  -2.459937e+05  -5.521032e+05
   4.885630e+04  -3.912764e+05
   3.733576e+05   4.785173e+04
   4.545874e+05   2.496942e+05
   2.356589e+05   7.770607e+04
  -2.698308e+04  -1.262750e+05
  -8.519563e+04  -8.200216e+03
  -1.518100e+04   3.471979e+05
  -7.804544e+04   4.997593e+05
  -3.101947e+05   1.743823e+05
  -4.130391e+05  -3.785054e+05
  -1.212053e+05  -6.171121e+05
   3.970662e+05  -2.944050e+05
   6.250835e+05   2.724091e+05
   2.378555e+05   5.540780e+05
  -4.772447e+05   3.540004e+05
  -8.349031e+05  -7.047815e+04
  -4.577190e+05  -3.572814e+05
   2.754274e+05  -3.726602e+05
   6.027837e+05  -2.084859e+05
   2.246794e+05  -1.978492e+04
  -3.496899e+05   4.981385e+04
  -3.961206e+05  -7.985885e+04
   1.778580e+05  -2.906864e+05
   7.385206e+05  -2.620108e+05
