
 $NMID
 id='ANONYMOUS ', fmtdat='(2E16.6)'
 volume=1.0
 tramp=1.0
 $END
  -5.265061e+06  -2.777778e+05
  -2.093077e+06  -5.078207e+06
   2.556637e+06  -3.963854e+06
   3.392588e+06   6.570309e+05
   6.508088e+05   2.818367e+06
  -1.441187e+06   1.011707e+06
  -8.181399e+05  -1.223113e+06
   7.617907e+05  -1.176012e+06
   1.290084e+06   1.313263e+05
   8.519828e+05   7.771482e+05
   2.975948e+05   6.350345e+05
  -1.566129e+05   4.513765e+05
  -4.124113e+05   3.351199e+05
  -1.565425e+05   1.832067e+05
   3.643568e+05   2.768771e+05
   3.684159e+05   6.404478e+05
  -2.626211e+05   7.508128e+05
  -7.909807e+05   4.088672e+05
  -8.551565e+05   3.335803e+04
  -8.395196e+05  -2.397308e+05
  -7.862480e+05  -7.582755e+05
  -1.319105e+05  -1.307389e+06
   1.014102e+06  -9.884668e+05
   1.484311e+06   2.743055e+05
   6.525895e+05   1.165511e+06
  -5.068753e+05   6.986177e+05
  -7.234228e+05  -3.669032e+05
  -4.303364e+04  -6.712822e+05
   5.952115e+05  -6.980131e+04
   6.963514e+05   5.926595e+05
   3.481074e+05   8.633366e+05
  -3.306865e+05   8.399726e+05
  -1.022676e+06   4.593441e+05
  -1.039402e+06  -2.949579e+05
  -2.218518e+05  -7.872113e+05
   4.455968e+05  -4.030263e+05
   6.590521e+04   3.295606e+05
  -7.443086e+05   3.240775e+05
  -7.201733e+05  -4.315528e+05
   9.392261e+04  -8.835214e+05
   5.023578e+05  -5.937566e+05
   1.699118e+05  -2.836641e+05
   8.307342e+04  -4.305423e+05
   7.282119e+05  -4.450153e+05
   1.160050e+06   1.843746e+05
   5.551945e+05   8.649880e+05
  -3.967797e+05   7.836863e+05
  -5.465378e+05   1.582571e+05
   4.044174e+04  -1.784295e+05
   4.004868e+05   6.704973e+03
   1.487082e+05   2.818449e+05
  -2.703677e+05   3.633528e+05
  -4.845182e+05   2.946743e+05
  -5.007260e+05   6.180587e+04
  -3.067182e+05  -3.065280e+05
   6.746274e+04  -4.527515e+05
   2.301016e+05  -1.503990e+05
  -1.024929e+05   1.318843e+05
  -4.408083e+05  -1.820394e+05
  -9.030570e+04  -7.580518e+05
   6.847134e+05  -7.011311e+05
   9.040466e+05   7.654382e+04
   3.393071e+05   6.588038e+05
  -1.480228e+05   4.734602e+05
   1.959871e+04   3.766766e+04
   3.090541e+05   4.773269e+03
   9.818653e+04   1.999479e+05
  -2.619055e+05   1.480884e+05
  -1.122173e+05  -1.229713e+04
   3.353118e+05   1.746483e+05
   3.027196e+05   5.997962e+05
  -3.273521e+05   6.781645e+05
  -8.514718e+05   2.096122e+05
  -7.569067e+05  -3.939368e+05
  -2.583712e+05  -7.007772e+05
   2.038159e+05  -6.299070e+05
   4.453979e+05  -2.750885e+05
   4.250939e+05   1.935958e+05
   1.431390e+05   4.463608e+05
  -1.797712e+05   2.406088e+05
  -2.076734e+05  -1.792633e+05
   5.391495e+04  -2.953981e+05
   2.136624e+05  -3.423267e+03
   4.497718e+04   2.611834e+05
  -2.121443e+05   1.645370e+05
  -2.354334e+05  -1.161781e+05
  -2.246701e+04  -2.525611e+05
   2.340408e+05  -1.881153e+05
   3.938463e+05  -2.343850e+04
   3.400645e+05   2.035810e+05
  -4.044294e+03   3.977665e+05
  -4.319262e+05   3.407912e+05
  -5.099784e+05   5.025152e+03
  -1.240939e+05  -2.801610e+05
   2.754564e+05  -2.320327e+05
   2.455880e+05  -2.833023e+03
  -6.166334e+04   8.375378e+04
  -1.906917e+05   1.438875e+03
  -4.996949e+04  -5.165265e+04
   8.776449e+04  -2.674111e+04
   1.000825e+05  -4.526494e+03
   9.617951e+04   6.528516e+04
   4.559404e+04   2.418686e+05
  -2.081616e+05   2.955444e+05
  -5.077651e+05  -5.246153e+04
  -4.113803e+05  -5.815515e+05
   1.560456e+05  -6.917060e+05
   6.551382e+05  -1.984881e+05
   5.883227e+05   3.694077e+05
   1.238111e+05   4.635879e+05
  -2.031790e+05   1.799655e+05
  -1.859226e+05  -2.277918e+04
  -4.572856e+04   1.097530e+04
   4.030271e+03   7.694624e+04
  -2.705433e+04   4.404696e+04
  -6.656909e+04  -5.864944e+03
  -7.901056e+04  -1.242557e+04
  -1.823478e+04  -1.236810e+04
   1.004199e+05   1.265409e+04
   1.056505e+05   1.127969e+05
  -1.296595e+05   1.868648e+05
  -4.101653e+05   6.020697e+04
  -3.850828e+05  -2.172383e+05
  -2.568785e+04  -3.692082e+05
   2.991227e+05  -2.546108e+05
   2.967227e+05  -4.191038e+04
   8.545958e+04   5.228264e+04
  -4.583621e+04   2.325760e+04
  -1.281837e+04  -1.465994e+04
   7.394512e+04  -1.909063e+04
   1.317717e+05  -8.557278e+02
   1.447203e+05   5.597087e+04
   8.436147e+04   1.322431e+05
  -3.834229e+04   1.352537e+05
  -1.066163e+05   4.031624e+04
  -3.675565e+04  -2.223968e+04
   6.244046e+04   5.465042e+04
   1.582724e+04   1.708919e+05
  -1.601272e+05   1.479645e+05
  -2.673690e+05  -1.837304e+04
  -1.882914e+05  -1.688283e+05
  -1.037594e+04  -2.004758e+05
   1.156291e+05  -1.435456e+05
   1.259353e+05  -5.395954e+04
   4.383000e+04   3.037852e+04
  -5.632717e+04   4.511303e+04
  -6.836420e+04  -4.200458e+04
   5.103592e+04  -1.258686e+05
   1.821871e+05  -6.385603e+04
   1.491727e+05   9.792539e+04
  -3.649181e+04   1.467861e+05
  -1.533374e+05  -5.861634e+01
  -4.936896e+04  -1.622524e+05
   1.604746e+05  -1.353877e+05
   2.511276e+05   5.626314e+04
   1.510896e+05   2.333785e+05
  -3.535080e+04   2.819669e+05
  -1.871297e+05   2.021385e+05
  -2.446845e+05   3.512000e+04
  -1.914874e+05  -1.370492e+05
  -7.212672e+04  -1.923573e+05
   4.470015e+03  -1.013405e+05
  -1.469586e+04  -1.060319e+04
  -2.971591e+04  -6.214163e+04
   7.897495e+04  -1.671056e+05
   2.389417e+05  -1.109008e+05
   2.380603e+05   1.218179e+05
   1.006384e+04   2.880281e+05
  -2.512493e+05   1.955071e+05
  -3.136498e+05  -6.365962e+04
  -1.503453e+05  -2.546901e+05
   8.831551e+04  -2.633295e+05
   2.552915e+05  -1.390645e+05
   2.872431e+05   2.561627e+04
   1.843212e+05   1.543148e+05
   1.175711e+04   1.868082e+05
  -1.112641e+05   1.271852e+05
  -1.140926e+05   6.638224e+04
  -5.870487e+04   7.365613e+04
  -5.619803e+04   9.012980e+04
  -1.120186e+05   1.220986e+04
  -1.238889e+05  -1.386576e+05
  -3.261755e+04  -2.202593e+05
   9.441948e+04  -1.476170e+05
   1.481236e+05   1.143593e+04
   9.455947e+04   1.317824e+05
  -1.172768e+04   1.532940e+05
  -9.007471e+04   9.095658e+04
  -9.258893e+04  -8.375920e+03
  -3.666019e+04  -8.609550e+04
   6.248717e+03  -1.002819e+05
  -1.365633e+04  -6.917978e+04
  -5.125854e+04  -5.107714e+04
  -1.039921e+04  -5.993883e+04
   1.215699e+05  -4.361343e+04
   2.277842e+05   3.046954e+04
   1.862860e+05   1.151240e+05
   1.357594e+04   1.431363e+05
  -1.510551e+05   1.071793e+05
  -1.890228e+05   4.530249e+04
  -1.031414e+05  -1.284418e+04
   8.828648e+03  -4.569844e+04
   5.118853e+04  -2.901757e+04
   8.067537e+03   2.153899e+04
  -5.248192e+04   3.426453e+04
  -5.475358e+04  -2.780815e+04
  -3.777195e+03  -8.895932e+04
   2.138907e+04  -5.169750e+04
  -2.460934e+04   4.781136e+04
  -8.380394e+04   6.696006e+04
  -6.555464e+04  -4.381337e+04
   3.552121e+04  -1.569665e+05
   1.320700e+05  -1.305484e+05
   1.426193e+05   1.114225e+04
   6.131470e+04   1.204061e+05
  -5.558369e+04   1.062720e+05
  -1.267446e+05   9.206221e+03
  -8.257950e+04  -7.591098e+04
   6.922083e+04  -8.646436e+04
   2.039236e+05  -1.402504e+04
   1.737221e+05   9.544995e+04
  -1.920204e+04   1.557965e+05
  -1.935825e+05   1.085428e+05
  -1.837736e+05  -4.088681e+03
  -3.083614e+04  -7.149793e+04
   7.555417e+04  -3.854816e+04
   2.644600e+04   3.205842e+04
  -9.547275e+04   3.768916e+04
  -1.349791e+05  -4.869627e+04
  -3.870377e+04  -1.551310e+05
   1.095383e+05  -1.802136e+05
   1.880342e+05  -7.722407e+04
   1.430894e+05   9.991571e+04
   1.794649e+04   2.185382e+05
  -9.337899e+04   1.717032e+05
  -1.214652e+05  -5.639157e+03
  -6.722433e+04  -1.498507e+05
   1.520197e+04  -1.360439e+05
   7.002213e+04  -1.467200e+04
   7.265561e+04   6.135026e+04
   3.426853e+04   3.082176e+04
  -3.844631e+03  -1.518395e+04
   1.803736e+03   2.241089e+04
   4.131416e+04   1.099003e+05
   3.843987e+04   1.319859e+05
  -5.841888e+04   4.835360e+04
  -1.763380e+05  -6.151143e+04
  -1.747629e+05  -1.066164e+05
  -2.654699e+04  -8.324034e+04
   1.228396e+05  -4.651746e+04
   1.289741e+05  -2.583380e+04
   2.962282e+04  -7.085777e+03
  -2.230460e+04   1.959379e+04
   2.337653e+04   3.786533e+04
   5.883584e+04   3.590400e+04
  -7.665075e+03   2.526106e+04
  -1.124211e+05   1.256776e+04
  -1.230035e+05  -2.042773e+04
  -9.514605e+03  -7.927543e+04
   1.301159e+05  -1.148783e+05
   1.876606e+05  -6.184167e+04
   1.349401e+05   6.957499e+04
   1.577818e+04   1.742924e+05
  -9.642615e+04   1.566221e+05
  -1.346115e+05   4.099056e+04
  -8.252072e+04  -5.324889e+04
   6.951951e+02  -4.853512e+04
   3.214121e+04   9.200190e+03
  -4.773770e+03   1.969202e+04
  -4.538361e+04  -4.351649e+04
  -2.712799e+04  -1.021347e+05
   3.737450e+04  -6.955500e+04
   8.181856e+04   4.365710e+04
   5.840259e+04   1.345876e+05
  -2.215453e+04   1.141368e+05
  -1.001387e+05  -1.879993e+03
  -1.061836e+05  -1.113242e+05
  -1.983699e+04  -1.287673e+05
   9.200693e+04  -6.006383e+04
   1.237684e+05   2.360795e+04
   4.775772e+04   6.554918e+04
  -4.110943e+04   6.143842e+04
  -3.513925e+04   3.442083e+04
   4.791005e+04   7.090246e+03
   8.567551e+04   2.035017e+03
   1.087772e+04   3.367559e+04
  -1.027221e+05   7.665433e+04
  -1.370210e+05   7.059217e+04
  -6.998484e+04  -7.700030e+03
   1.821845e+04  -9.217951e+04
   5.267445e+04  -9.143568e+04
   3.137121e+04  -5.613112e+03
  -6.685619e+03   6.441070e+04
  -3.404146e+04   4.097762e+04
  -4.123738e+04  -3.641737e+04
  -2.367779e+04  -7.121501e+04
   1.236186e+04  -3.398955e+04
   4.336034e+04   1.628116e+04
   4.797309e+04   2.349361e+04
   2.914136e+04   8.764865e+02
   5.800756e+03  -3.986187e+03
  -1.189579e+04   2.300514e+04
  -2.759290e+04   5.027948e+04
  -4.244340e+04   4.082355e+04
  -4.584907e+04  -9.708145e+03
  -2.542909e+04  -6.589412e+04
   1.721654e+04  -7.751075e+04
   5.923333e+04  -2.556091e+04
   6.528718e+04   4.904570e+04
   1.638827e+04   7.815863e+04
  -5.881974e+04   3.835341e+04
  -9.359622e+04  -2.376444e+04
  -4.772485e+04  -4.884117e+04
   3.651562e+04  -3.007577e+04
   6.859647e+04  -5.124261e+03
   1.375706e+04  -1.201013e+03
  -5.778040e+04  -1.438097e+04
  -5.002059e+04  -3.162404e+04
   4.030796e+04  -4.063509e+04
   1.147562e+05  -2.086430e+04
