
 $NMID
 id='ANONYMOUS ', fmtdat='(2E16.6)'
 volume=1.0
 tramp=1.0
 $END
   3.944871e+07  -7.128634e+04
   2.478347e+07   2.241200e+07
  -3.356248e+06   2.621412e+07
  -1.863478e+07   1.252150e+07
  -1.263320e+07  -2.669018e+06
   1.206728e+06  -6.798545e+06
   7.363759e+06  -6.775505e+05
   3.401271e+06   6.740113e+06
  -3.541189e+06   8.119217e+06
  -7.049963e+06   2.616601e+06
  -5.431725e+06  -4.637911e+06
  -6.302618e+05  -6.833769e+06
   3.160027e+06  -1.843961e+06
   2.236768e+06   4.912961e+06
  -2.574019e+06   5.840891e+06
  -5.947104e+06  -3.463300e+05
  -3.765037e+06  -7.399448e+06
   2.352122e+06  -8.854153e+06
   7.252063e+06  -4.346681e+06
   7.611481e+06   1.722417e+06
   4.168350e+06   5.325603e+06
   1.522229e+05   5.451240e+06
  -1.354833e+06   3.614989e+06
   1.548096e+05   2.333091e+06
   1.707587e+06   3.008589e+06
  -3.002845e+05   4.255825e+06
  -5.285771e+06   3.284095e+06
  -8.139833e+06  -3.505656e+05
  -5.245500e+06  -3.666141e+06
   6.733691e+05  -3.801915e+06
   3.738320e+06  -1.322083e+06
   1.867800e+06   1.026448e+06
  -1.702593e+06   1.487664e+06
  -3.172619e+06   7.998301e+04
  -1.961574e+06  -2.269827e+06
   2.379979e+05  -3.808162e+06
   1.780641e+06  -2.622927e+06
   1.792899e+06   7.515501e+05
   4.627093e+05   2.622321e+06
  -5.828564e+05   4.906559e+05
   2.932777e+05  -2.778457e+06
   2.189881e+06  -2.180167e+06
   2.103906e+06   2.181012e+06
  -1.044599e+06   4.503857e+06
  -4.218290e+06   1.052400e+06
  -3.546907e+06  -4.551303e+06
   9.639833e+05  -5.934263e+06
   5.318233e+06  -1.800039e+06
   5.730027e+06   3.312987e+06
   2.012309e+06   4.893266e+06
  -2.708658e+06   2.623495e+06
  -4.698153e+06  -7.938111e+05
  -2.543444e+06  -2.655603e+06
   1.521684e+06  -1.914546e+06
   3.492722e+06   3.944060e+05
   1.719284e+06   1.880604e+06
  -1.202697e+06   1.082414e+06
  -1.631120e+06  -7.471725e+05
   5.506236e+05  -1.116280e+06
   2.000325e+06   4.847203e+05
   4.237442e+05   2.031433e+06
  -2.615946e+06   1.670726e+06
  -3.862285e+06  -3.532243e+05
  -2.004072e+06  -2.658534e+06
   1.557073e+06  -4.111976e+06
   4.479134e+06  -3.770694e+06
   5.133597e+06  -1.071868e+06
   3.340315e+06   2.812879e+06
   5.237242e+05   5.065969e+06
  -1.239928e+06   4.098620e+06
  -1.165725e+06   1.617155e+06
  -5.278118e+05   4.735526e+05
  -9.192733e+05   1.012069e+06
  -2.160976e+06   1.071556e+06
  -2.659838e+06  -5.700272e+05
  -1.517478e+06  -2.392356e+06
   5.000367e+05  -2.234553e+06
   1.902370e+06  -2.253523e+04
   1.675830e+06   2.287597e+06
  -2.033298e+05   2.798245e+06
  -2.589737e+06   1.171913e+06
  -3.617169e+06  -1.390370e+06
  -2.297418e+06  -3.139421e+06
   1.848697e+05  -3.112066e+06
   1.637431e+06  -1.912046e+06
   1.508883e+06  -9.626848e+05
   1.420098e+06  -8.246627e+05
   2.629684e+06  -6.411784e+05
   3.968925e+06   5.592644e+05
   3.233312e+06   2.489384e+06
   1.344273e+05   3.855094e+06
  -3.103961e+06   3.613699e+06
  -4.061211e+06   1.752935e+06
  -2.408848e+06  -7.032660e+05
   7.992822e+04  -2.178201e+06
   1.283436e+06  -1.653477e+06
   4.922902e+05   1.436721e+05
  -1.123263e+06   1.164342e+06
  -1.720979e+06   3.211578e+05
  -7.132676e+05  -1.084260e+06
   5.981896e+05  -1.048184e+06
   5.842486e+05   3.480283e+05
  -7.394240e+05   9.489569e+05
  -1.764875e+06  -5.677038e+05
  -1.175059e+06  -2.860215e+06
   7.639534e+05  -3.518825e+06
   2.720187e+06  -1.776551e+06
   3.479050e+06   9.533969e+05
   2.580947e+06   2.734996e+06
   5.348160e+05   2.706859e+06
  -1.277392e+06   1.401167e+06
  -1.555541e+06   1.316643e+05
  -4.680973e+05  -4.951701e+04
   3.416866e+05   7.102668e+05
  -3.288892e+05   1.197694e+06
  -1.672602e+06   5.318201e+05
  -1.862023e+06  -7.262659e+05
  -4.268865e+05  -1.250890e+06
   1.083500e+06  -5.774660e+05
   9.497484e+05   4.295691e+05
  -7.408177e+05   6.710186e+05
  -2.231973e+06  -1.066748e+05
  -1.922751e+06  -1.310842e+06
   1.205560e+05  -2.064009e+06
   2.244139e+06  -1.701403e+06
   2.673818e+06  -2.825986e+05
   1.136726e+06   1.147597e+06
  -8.313003e+05   1.318434e+06
  -1.359734e+06   1.482803e+05
  -1.202180e+05  -9.585315e+05
   1.420113e+06  -6.657387e+05
   1.642321e+06   6.971837e+05
   4.204235e+05   1.566800e+06
  -9.597819e+05   1.039672e+06
  -1.236152e+06  -1.703617e+05
  -3.331309e+05  -7.063972e+05
   6.930749e+05  -7.328321e+04
   6.653803e+05   9.858920e+05
  -5.863538e+05   1.327382e+06
  -1.921585e+06   4.588259e+05
  -1.904335e+06  -1.034496e+06
  -3.479310e+05  -1.957369e+06
   1.339752e+06  -1.552023e+06
   1.628644e+06  -2.316122e+05
   5.189858e+05   8.095544e+05
  -6.099232e+05   7.921845e+05
  -6.685564e+05   5.819533e+04
   6.701927e+04  -4.613434e+05
   5.687438e+05  -3.101935e+05
   3.021775e+05   1.047647e+05
  -3.386009e+05   9.132829e+04
  -5.523996e+05  -5.147830e+05
   1.090350e+05  -1.111483e+06
   1.288945e+06  -8.719808e+05
   1.980590e+06   3.905171e+05
   1.375832e+06   1.855055e+06
  -2.293695e+05   2.334004e+06
  -1.573978e+06   1.421566e+06
  -1.704169e+06  -7.178348e+04
  -9.386361e+05  -9.511661e+05
  -3.277326e+05  -8.252823e+05
  -3.437158e+05  -3.293407e+05
  -4.750316e+05  -2.503137e+05
  -6.834867e+04  -6.472525e+05
   8.035749e+05  -8.791023e+05
   1.413768e+06  -3.666950e+05
   1.088949e+06   7.248989e+05
  -1.944834e+05   1.501172e+06
  -1.669439e+06   1.088556e+06
  -2.190384e+06  -4.593072e+05
  -1.131997e+06  -1.999538e+06
   8.867000e+05  -2.253312e+06
   2.370634e+06  -1.040836e+06
   2.298100e+06   5.468897e+05
   1.049632e+06   1.291460e+06
  -1.328743e+05   1.031424e+06
  -4.702757e+05   5.941432e+05
  -2.396235e+05   6.960780e+05
  -1.825530e+05   1.145672e+06
  -6.201848e+05   1.153836e+06
  -1.187814e+06   2.724205e+05
  -1.245728e+06  -1.053958e+06
  -5.025043e+05  -1.823432e+06
   6.225342e+05  -1.369240e+06
   1.242247e+06  -6.686585e+03
   7.976172e+05   1.189521e+06
  -3.081698e+05   1.329269e+06
  -1.032432e+06   4.749444e+05
  -7.679234e+05  -5.329873e+05
   2.500700e+04  -9.554386e+05
   3.983954e+05  -7.683651e+05
   3.831933e+04  -4.500450e+05
  -3.869138e+05  -3.504003e+05
  -3.835727e+04  -3.772478e+05
   1.058769e+06  -2.099432e+05
   1.912588e+06   3.059298e+05
   1.540164e+06   9.632458e+05
   3.023801e+04   1.320364e+06
  -1.440155e+06   1.058012e+06
  -1.726535e+06   3.069166e+05
  -8.278663e+05  -3.816308e+05
   2.117014e+05  -4.978084e+05
   4.654868e+05  -7.061356e+04
  -1.205946e+03   3.410105e+05
  -4.571375e+05   2.227785e+05
  -4.453097e+05  -3.332045e+05
  -1.607236e+05  -7.104655e+05
  -1.814479e+04  -4.600123e+05
  -1.439080e+05   1.393082e+05
  -3.305030e+05   3.364992e+05
  -2.763429e+05  -2.171565e+05
   1.818212e+05  -9.655915e+05
   8.661734e+05  -9.992393e+05
   1.217437e+06  -1.130488e+05
   7.223615e+05   8.807521e+05
  -4.038865e+05   1.019637e+06
  -1.154302e+06   2.448436e+05
  -6.844175e+05  -5.786775e+05
   6.616761e+05  -6.306280e+05
   1.557018e+06   6.912028e+04
   1.053532e+06   8.254415e+05
  -4.079657e+05   1.008983e+06
  -1.469899e+06   5.447037e+05
  -1.250854e+06  -1.469540e+05
  -1.596541e+05  -5.148633e+05
   6.208287e+05  -2.871250e+05
   3.454999e+05   2.625317e+05
  -5.973711e+05   4.599678e+05
  -1.125685e+06  -1.407922e+05
  -5.686215e+05  -1.164192e+06
   6.565621e+05  -1.599405e+06
   1.469090e+06  -7.868925e+05
   1.195756e+06   7.697497e+05
   1.638114e+05   1.745458e+06
  -7.339386e+05   1.276589e+06
  -9.076196e+05  -1.402605e+05
  -4.474615e+05  -1.154315e+06
   1.705598e+05  -9.702786e+05
   5.296680e+05  -1.000433e+05
   4.856638e+05   3.829645e+05
   1.996187e+05   1.528494e+05
   3.239865e+04  -1.068115e+05
   2.065528e+05   2.527824e+05
   4.590855e+05   9.247903e+05
   2.243678e+05   1.059509e+06
  -6.356679e+05   3.887633e+05
  -1.429541e+06  -4.689489e+05
  -1.277839e+06  -8.280630e+05
  -1.779215e+05  -6.674702e+05
   8.719290e+05  -3.867530e+05
   9.710915e+05  -1.797084e+05
   3.146999e+05   2.693197e+04
  -1.595226e+05   2.103836e+05
   1.009783e+04   2.268973e+05
   3.045626e+05   1.274079e+05
   2.679332e+04   1.306504e+05
  -6.957387e+05   1.944993e+05
  -1.002438e+06  -4.034511e+04
  -3.338529e+05  -6.588063e+05
   8.743748e+05  -1.089842e+06
   1.613271e+06  -6.717528e+05
   1.290653e+06   4.591113e+05
   2.248445e+05   1.367631e+06
  -7.448685e+05   1.300987e+06
  -1.016193e+06   4.709121e+05
  -6.337684e+05  -2.614915e+05
  -1.030494e+05  -3.449494e+05
   1.083258e+05  -3.052198e+04
  -6.588928e+04   4.937904e+04
  -3.086266e+05  -3.465715e+05
  -2.463875e+05  -7.850197e+05
   1.914421e+05  -6.417408e+05
   6.618418e+05   1.588669e+05
   6.688253e+05   9.566088e+05
   4.688648e+04   9.868109e+05
  -7.529157e+05   1.824922e+05
  -9.695123e+05  -7.484422e+05
  -2.916818e+05  -1.050541e+06
   7.013950e+05  -6.099904e+05
   1.054700e+06   9.857064e+04
   4.817794e+05   5.659380e+05
  -2.795961e+05   6.105221e+05
  -3.345162e+05   3.434885e+05
   2.759243e+05   3.129007e+04
   6.365887e+05  -2.127938e+04
   1.241730e+05   2.902253e+05
  -8.064260e+05   6.481949e+05
  -1.191800e+06   5.353245e+05
  -6.967309e+05  -1.477551e+05
   1.074288e+05  -8.211179e+05
   5.094048e+05  -8.050433e+05
   3.715597e+05  -1.258489e+05
   2.302255e+04   4.766267e+05
  -2.420742e+05   3.948848e+05
  -3.362023e+05  -1.811071e+05
  -2.311892e+05  -5.611085e+05
   6.309105e+04  -3.791685e+05
   3.734109e+05   6.346794e+04
   4.449562e+05   2.525374e+05
   2.341358e+05   7.517362e+04
  -1.643471e+04  -1.168957e+05
  -8.405394e+04   1.224596e+04
  -4.283818e+04   3.581632e+05
  -1.190866e+05   4.858440e+05
  -3.258735e+05   1.422428e+05
  -3.874568e+05  -4.079701e+05
  -8.147617e+04  -6.260893e+05
   4.135589e+05  -2.790153e+05
   6.118505e+05   2.990544e+05
   2.179362e+05   5.683578e+05
  -4.839907e+05   3.411475e+05
  -8.285124e+05  -9.858305e+04
  -4.463944e+05  -3.708865e+05
   2.865324e+05  -3.566583e+05
   6.073918e+05  -1.808828e+05
   2.151277e+05  -1.133212e+04
  -3.684892e+05   3.050844e+04
  -4.025925e+05  -1.057927e+05
   1.982437e+05  -2.974348e+05
   7.691251e+05  -2.447154e+05
