
 $NMID
 id='ANONYMOUS ', fmtdat='(2E16.6)'
 volume=1.0
 tramp=1.0
 $END
   2.200281e+07   1.809313e+06
   1.283353e+07   1.293685e+07
  -2.615941e+06   1.408409e+07
  -1.050242e+07   6.692341e+06
  -6.965233e+06  -1.280083e+06
   6.431462e+05  -3.672269e+06
   4.104510e+06  -5.385248e+05
   1.997742e+06   3.720739e+06
  -1.937949e+06   4.739196e+06
  -3.998922e+06   1.521300e+06
  -2.997060e+06  -2.873494e+06
  -1.318275e+05  -4.074258e+06
   1.972008e+06  -8.870799e+05
   1.261317e+06   3.141888e+06
  -1.545979e+06   3.510156e+06
  -3.359655e+06  -2.440042e+05
  -1.977704e+06  -4.298741e+06
   1.563371e+06  -4.964231e+06
   4.267921e+06  -2.163555e+06
   4.202777e+06   1.399761e+06
   1.935955e+06   3.245270e+06
  -3.505218e+05   2.899836e+06
  -7.956580e+05   1.672662e+06
   4.749159e+05   1.259669e+06
   1.280958e+06   2.097539e+06
  -3.509811e+05   2.825138e+06
  -3.539390e+06   1.827812e+06
  -5.028780e+06  -6.325255e+05
  -2.935238e+06  -2.499484e+06
   7.949621e+05  -2.271294e+06
   2.559676e+06  -5.455599e+05
   1.161332e+06   9.661990e+05
  -1.309395e+06   1.157407e+06
  -2.282757e+06   5.707466e+03
  -1.264751e+06  -1.687042e+06
   4.072978e+05  -2.512471e+06
   1.281357e+06  -1.412033e+06
   8.978825e+05   7.699980e+05
  -8.512694e+04   1.597705e+06
  -4.661426e+05  -9.124979e+03
   3.286318e+05  -1.921599e+06
   1.395650e+06  -1.340493e+06
   1.177178e+06   1.253239e+06
  -5.765757e+05   2.447612e+06
  -2.167919e+06   4.104117e+05
  -1.716140e+06  -2.625603e+06
   7.105893e+05  -3.212390e+06
   3.076723e+06  -8.001360e+05
   3.326162e+06   2.075162e+06
   1.189241e+06   2.939200e+06
  -1.631731e+06   1.584253e+06
  -2.854480e+06  -4.616838e+05
  -1.566870e+06  -1.562047e+06
   8.493972e+05  -1.082645e+06
   1.995535e+06   2.767126e+05
   9.660401e+05   1.082114e+06
  -7.123520e+05   5.810591e+05
  -9.993853e+05  -4.550225e+05
   1.946038e+05  -6.918499e+05
   1.081922e+06   1.137209e+05
   3.462765e+05   9.387571e+05
  -1.312166e+06   8.339368e+05
  -2.108591e+06  -1.831940e+05
  -1.090390e+06  -1.492601e+06
   1.096616e+06  -2.381656e+06
   2.918133e+06  -2.122499e+06
   3.169094e+06  -4.066351e+05
   1.840877e+06   1.890593e+06
   9.885789e+04   3.087566e+06
  -7.750555e+05   2.442155e+06
  -6.095101e+05   1.062598e+06
  -3.556989e+05   4.842393e+05
  -8.008138e+05   7.365782e+05
  -1.592460e+06   5.693272e+05
  -1.755565e+06  -5.834746e+05
  -8.861192e+05  -1.709717e+06
   4.562935e+05  -1.504934e+06
   1.323008e+06   1.896908e+04
   1.074557e+06   1.547536e+06
  -2.217083e+05   1.797535e+06
  -1.694686e+06   6.100562e+05
  -2.161261e+06  -1.057028e+06
  -1.202026e+06  -2.004807e+06
   2.812478e+05  -1.787271e+06
   1.013023e+06  -9.933151e+05
   8.465125e+05  -5.074757e+05
   8.270703e+05  -5.133091e+05
   1.628245e+06  -3.945359e+05
   2.463426e+06   3.935766e+05
   1.986137e+06   1.607435e+06
   2.181500e+04   2.436476e+06
  -2.049677e+06   2.233198e+06
  -2.653032e+06   9.992206e+05
  -1.520611e+06  -5.657178e+05
   1.587080e+05  -1.426867e+06
   9.136466e+05  -1.007861e+06
   3.104618e+05   1.309887e+05
  -7.618268e+05   7.119615e+05
  -1.084462e+06   1.523958e+05
  -3.915832e+05  -7.030639e+05
   4.253609e+05  -6.619508e+05
   4.050846e+05   2.122457e+05
  -3.984367e+05   6.327236e+05
  -1.055103e+06  -2.394992e+05
  -7.884335e+05  -1.681087e+06
   3.453575e+05  -2.217196e+06
   1.629101e+06  -1.225543e+06
   2.230952e+06   5.321648e+05
   1.701244e+06   1.762794e+06
   3.422996e+05   1.768875e+06
  -8.534748e+05   8.804544e+05
  -1.009150e+06   4.396982e+04
  -2.959184e+05  -4.038054e+04
   2.056202e+05   4.560404e+05
  -2.210106e+05   7.322134e+05
  -1.040536e+06   2.931334e+05
  -1.142869e+06  -4.720846e+05
  -2.542007e+05  -7.748630e+05
   6.895700e+05  -3.547637e+05
   6.224212e+05   2.790476e+05
  -4.481877e+05   4.526441e+05
  -1.434752e+06  -3.867433e+04
  -1.265395e+06  -8.411962e+05
   6.267118e+04  -1.342354e+06
   1.449810e+06  -1.080019e+06
   1.706850e+06  -1.457516e+05
   6.916553e+05   7.353434e+05
  -5.499036e+05   7.928231e+05
  -8.390299e+05   5.161198e+04
  -3.660986e+04  -6.017600e+05
   9.107955e+05  -3.894226e+05
   1.028545e+06   4.572889e+05
   2.642209e+05   9.904576e+05
  -5.973261e+05   6.627767e+05
  -7.797403e+05  -9.516134e+04
  -2.194734e+05  -4.372276e+05
   4.259758e+05  -3.587983e+04
   3.993896e+05   6.360700e+05
  -4.033842e+05   8.321880e+05
  -1.234836e+06   2.501963e+05
  -1.188142e+06  -6.970767e+05
  -1.843663e+05  -1.244711e+06
   8.679688e+05  -9.572913e+05
   1.029533e+06  -1.263174e+05
   3.230863e+05   5.147884e+05
  -3.944605e+05   4.980203e+05
  -4.435365e+05   2.756744e+04
   2.727094e+04  -3.183503e+05
   3.806265e+05  -2.265409e+05
   2.408872e+05   6.372477e+04
  -1.781364e+05   8.601466e+04
  -3.457805e+05  -2.971241e+05
   6.482795e+04  -6.901873e+05
   8.213536e+05  -5.367289e+05
   1.249962e+06   2.760418e+05
   8.407806e+05   1.200157e+06
  -1.840841e+05   1.485778e+06
  -1.021800e+06   8.990277e+05
  -1.097812e+06  -5.115154e+04
  -6.183303e+05  -6.293539e+05
  -2.196326e+05  -5.746963e+05
  -1.972265e+05  -2.526459e+05
  -2.639899e+05  -1.645139e+05
  -2.295854e+04  -3.925706e+05
   5.115209e+05  -5.478379e+05
   9.039464e+05  -2.304891e+05
   7.054840e+05   4.745901e+05
  -1.231861e+05   9.718347e+05
  -1.075126e+06   6.858680e+05
  -1.394781e+06  -3.183831e+05
  -7.013882e+05  -1.280866e+06
   5.781705e+05  -1.410104e+06
   1.502260e+06  -6.343048e+05
   1.456682e+06   3.569102e+05
   6.815243e+05   8.268006e+05
  -7.260118e+04   6.785238e+05
  -3.216071e+05   4.053054e+05
  -2.047751e+05   4.477520e+05
  -1.629989e+05   7.073109e+05
  -4.134170e+05   7.027607e+05
  -7.498256e+05   1.429997e+05
  -7.696513e+05  -6.965446e+05
  -2.858085e+05  -1.172010e+06
   4.236336e+05  -8.621969e+05
   7.923223e+05   1.106792e+04
   4.911916e+05   7.568493e+05
  -2.001219e+05   8.329788e+05
  -6.360901e+05   3.008637e+05
  -4.665149e+05  -3.178180e+05
   1.361887e+04  -5.807031e+05
   2.346661e+05  -4.775492e+05
   1.616023e+04  -2.943874e+05
  -2.362840e+05  -2.373790e+05
  -1.540129e+04  -2.440078e+05
   6.646758e+05  -1.168577e+05
   1.194665e+06   2.242175e+05
   9.606324e+05   6.282819e+05
   1.171851e+04   8.213875e+05
  -9.141516e+05   6.361828e+05
  -1.091998e+06   1.771422e+05
  -5.200681e+05  -2.298884e+05
   1.364030e+05  -2.982870e+05
   2.873192e+05  -4.554955e+04
  -1.872267e+04   2.032154e+05
  -3.037032e+05   1.309130e+05
  -2.740569e+05  -2.210662e+05
  -7.236599e+04  -4.652678e+05
   1.400829e+04  -2.993625e+05
  -9.187660e+04   9.983696e+04
  -2.257578e+05   2.296057e+05
  -1.758727e+05  -1.385801e+05
   1.386364e+05  -6.203467e+05
   5.680230e+05  -6.181575e+05
   7.585236e+05  -3.296971e+04
   4.229445e+05   5.800544e+05
  -2.797504e+05   6.245141e+05
  -7.312959e+05   1.138116e+05
  -4.241251e+05  -3.872933e+05
   4.260336e+05  -3.922603e+05
   9.953095e+05   5.768025e+04
   6.806454e+05   5.310820e+05
  -2.535575e+05   6.459123e+05
  -9.429108e+05   3.504326e+05
  -8.078393e+05  -9.565106e+04
  -1.042024e+05  -3.325835e+05
   3.959603e+05  -1.809943e+05
   2.081139e+05   1.692398e+05
  -4.004855e+05   2.762226e+05
  -7.174792e+05  -1.245464e+05
  -3.263206e+05  -7.647573e+05
   4.702761e+05  -1.006153e+06
   9.646465e+05  -4.645221e+05
   7.496768e+05   5.205268e+05
   7.143574e+04   1.122123e+06
  -4.888782e+05   8.122284e+05
  -5.774477e+05  -9.247496e+04
  -2.779198e+05  -7.400206e+05
   1.072357e+05  -6.219920e+05
   3.335575e+05  -6.060259e+04
   3.163775e+05   2.527532e+05
   1.392606e+05   1.020688e+05
   1.661359e+04  -7.030201e+04
   1.063988e+05   1.612026e+05
   2.687493e+05   5.971363e+05
   1.410616e+05   6.798182e+05
  -3.941701e+05   2.351982e+05
  -9.077859e+05  -3.249538e+05
  -8.167069e+05  -5.477380e+05
  -1.029102e+05  -4.257469e+05
   5.774268e+05  -2.332852e+05
   6.272416e+05  -1.037918e+05
   1.873218e+05   1.784372e+04
  -1.114741e+05   1.313188e+05
   1.984699e+04   1.485566e+05
   2.114523e+05   9.143466e+04
   8.809665e+03   8.682112e+04
  -4.676523e+05   1.095772e+05
  -6.390424e+05  -5.080378e+04
  -1.753221e+05  -4.312088e+05
   5.986114e+05  -6.731770e+05
   1.035913e+06  -3.818285e+05
   7.972020e+05   3.338733e+05
   1.105863e+05   8.826542e+05
  -4.986234e+05   8.095251e+05
  -6.611833e+05   2.694017e+05
  -4.047418e+05  -1.881634e+05
  -5.196347e+04  -2.241872e+05
   8.666950e+04  -1.159341e+04
  -3.470396e+04   3.997777e+04
  -1.966676e+05  -2.204927e+05
  -1.483487e+05  -5.047606e+05
   1.397616e+05  -4.037300e+05
   4.260645e+05   1.251963e+05
   4.009474e+05   6.385494e+05
  -8.878371e+03   6.345650e+05
  -4.987145e+05   8.809860e+04
  -6.024513e+05  -5.141410e+05
  -1.537877e+05  -6.791208e+05
   4.664675e+05  -3.640620e+05
   6.651868e+05   9.153500e+04
   2.842932e+05   3.632548e+05
  -1.939968e+05   3.698103e+05
  -2.090207e+05   2.058360e+05
   1.910148e+05   2.745456e+04
   4.113898e+05   8.785290e+02
   6.760062e+04   1.864793e+05
  -5.281510e+05   3.992255e+05
  -7.574583e+05   3.245241e+05
  -4.247265e+05  -1.016306e+05
   8.873034e+04  -5.169492e+05
   3.314116e+05  -4.943458e+05
   2.285373e+05  -5.846446e+04
  -1.302867e+03   3.128214e+05
  -1.677074e+05   2.401387e+05
  -2.151454e+05  -1.352414e+05
  -1.339076e+05  -3.643937e+05
   5.498983e+04  -2.301604e+05
   2.382044e+05   5.431982e+04
   2.719639e+05   1.631687e+05
   1.456071e+05   4.504421e+04
   1.159268e+03  -6.681179e+04
  -4.807463e+04   2.674080e+04
  -5.059569e+04   2.410525e+05
  -1.156759e+05   3.006537e+05
  -2.257741e+05   6.260046e+04
  -2.258311e+05  -2.890020e+05
  -1.627235e+04  -4.100322e+05
   2.785293e+05  -1.647381e+05
   3.781826e+05   2.152192e+05
   1.217902e+05   3.748709e+05
  -3.132352e+05   2.045412e+05
  -5.211842e+05  -8.888900e+04
  -2.734018e+05  -2.481002e+05
   1.935939e+05  -2.119387e+05
   3.918719e+05  -8.935425e+04
   1.280232e+05   2.414009e+03
  -2.533688e+05   4.848192e+03
  -2.645357e+05  -8.950528e+04
   1.425596e+05  -1.976354e+05
   5.161875e+05  -1.442014e+05
