
 $NMID
 id='ANONYMOUS ', fmtdat='(2E16.6)'
 volume=1.0
 tramp=1.0
 $END
   2.876221e+07  -1.231502e+06
   2.020892e+07   1.233957e+07
   1.210389e+06   1.827733e+07
  -1.195095e+07   1.322169e+07
  -1.085629e+07   2.095456e+06
  -1.126952e+06  -5.320636e+06
   5.979962e+06  -3.205649e+06
   4.994466e+06   4.525028e+06
  -9.303708e+05   8.480871e+06
  -5.430296e+06   4.085334e+06
  -4.976997e+06  -3.658433e+06
  -8.184259e+05  -6.265174e+06
   2.843105e+06  -1.345616e+06
   2.493455e+06   5.251141e+06
  -1.506567e+06   6.337047e+06
  -4.992686e+06   8.924653e+05
  -4.017011e+06  -5.649236e+06
   9.572931e+05  -7.455146e+06
   5.449400e+06  -3.720169e+06
   5.698347e+06   1.514902e+06
   2.434861e+06   3.954281e+06
  -3.359579e+05   3.030324e+06
   1.523985e+05   1.610056e+06
   2.549176e+06   2.291876e+06
   2.949572e+06   4.479951e+06
  -7.657438e+05   5.291713e+06
  -6.164128e+06   2.988683e+06
  -8.208204e+06  -1.046876e+06
  -4.488543e+06  -3.748404e+06
   1.727504e+06  -3.270553e+06
   4.544768e+06  -3.903737e+05
   1.690677e+06   2.348747e+06
  -3.180900e+06   2.568356e+06
  -4.862949e+06  -1.485853e+05
  -2.282094e+06  -3.604738e+06
   1.143485e+06  -4.545183e+06
   2.072482e+06  -1.887232e+06
   6.356248e+05   1.629325e+06
  -7.654809e+05   2.085718e+06
  -5.500035e+05  -9.985850e+05
   9.071959e+05  -3.773761e+06
   2.241925e+06  -2.593561e+06
   2.212668e+06   1.410186e+06
   4.249417e+05   3.585417e+06
  -1.979951e+06   1.366798e+06
  -2.615794e+06  -2.748659e+06
  -4.600469e+04  -4.256162e+06
   4.009063e+06  -1.629989e+06
   5.657878e+06   2.504875e+06
   2.804767e+06   4.519897e+06
  -2.276046e+06   3.166870e+06
  -5.041274e+06   7.872233e+04
  -3.299392e+06  -2.130998e+06
   7.435256e+05  -2.023337e+06
   3.046286e+06  -2.423372e+05
   1.871504e+06   1.249648e+06
  -8.309167e+05   1.017115e+06
  -1.870584e+06  -5.054449e+05
  -2.743539e+05  -1.547895e+06
   1.825826e+06  -9.119720e+05
   1.693640e+06   7.859851e+05
  -8.368327e+05   1.768101e+06
  -3.012673e+06   8.066172e+05
  -2.127680e+06  -1.652692e+06
   1.463807e+06  -3.744900e+06
   4.689300e+06  -3.556365e+06
   5.000172e+06  -7.414417e+05
   2.770338e+06   2.913786e+06
   3.602509e+05   4.877257e+06
  -6.253135e+05   4.223729e+06
  -6.290478e+05   2.421492e+06
  -9.769831e+05   1.435189e+06
  -2.117341e+06   1.360793e+06
  -3.215800e+06   6.296204e+05
  -3.107488e+06  -1.467006e+06
  -1.405081e+06  -3.347134e+06
   1.067501e+06  -2.843511e+06
   2.685033e+06   5.721245e+04
   2.142843e+06   2.897482e+06
  -3.377923e+05   3.233660e+06
  -2.885928e+06   9.928757e+05
  -3.482760e+06  -1.763254e+06
  -1.856808e+06  -3.026335e+06
   2.972040e+05  -2.518986e+06
   1.209535e+06  -1.445618e+06
   9.683685e+05  -9.956491e+05
   1.193092e+06  -1.198488e+06
   2.764535e+06  -1.069782e+06
   4.357124e+06   2.603736e+05
   3.713160e+06   2.522713e+06
   3.538394e+05   4.312128e+06
  -3.435957e+06   4.170311e+06
  -4.676684e+06   1.895764e+06
  -2.664462e+06  -1.050059e+06
   3.868384e+05  -2.574235e+06
   1.675275e+06  -1.745811e+06
   5.227400e+05   2.702515e+05
  -1.331454e+06   1.291376e+06
  -1.835776e+06   3.785734e+05
  -6.681707e+05  -1.134529e+06
   7.526522e+05  -1.218116e+06
   8.915754e+05   3.246190e+05
  -4.426929e+05   1.440607e+06
  -1.990850e+06   2.304687e+05
  -2.127552e+06  -2.615843e+06
  -2.302625e+05  -4.331293e+06
   2.641290e+06  -3.012318e+06
   4.391050e+06   3.790225e+05
   3.597889e+06   3.089911e+06
   8.902274e+05   3.322961e+06
  -1.501801e+06   1.679872e+06
  -1.838089e+06   1.309735e+05
  -5.356029e+05  -3.896546e+04
   4.256141e+05   7.824808e+05
  -2.375192e+05   1.276678e+06
  -1.698944e+06   6.582651e+05
  -2.055260e+06  -5.856372e+05
  -6.196246e+05  -1.271972e+06
   1.155891e+06  -7.515395e+05
   1.227416e+06   4.238959e+05
  -7.111790e+05   1.012290e+06
  -2.722993e+06   2.519514e+05
  -2.583210e+06  -1.394718e+06
  -1.301294e+05  -2.579054e+06
   2.511702e+06  -2.215124e+06
   3.066444e+06  -4.935669e+05
   1.322423e+06   1.174163e+06
  -8.280752e+05   1.400113e+06
  -1.382839e+06   1.916665e+05
  -9.314223e+04  -9.988738e+05
   1.550122e+06  -7.841954e+05
   1.906973e+06   6.440964e+05
   6.872039e+05   1.740830e+06
  -9.232327e+05   1.365382e+06
  -1.451679e+06   3.831993e+04
  -5.397272e+05  -7.258278e+05
   6.960507e+05  -1.393809e+05
   7.571189e+05   1.065786e+06
  -6.491753e+05   1.502619e+06
  -2.175788e+06   5.463331e+05
  -2.175854e+06  -1.122854e+06
  -4.743714e+05  -2.182756e+06
   1.399616e+06  -1.815947e+06
   1.815492e+06  -3.907927e+05
   6.849289e+05   8.635148e+05
  -6.236868e+05   9.649672e+05
  -8.389675e+05   8.952805e+04
  -1.573455e+04  -6.721328e+05
   7.488864e+05  -5.309593e+05
   5.873921e+05   1.430727e+05
  -2.560043e+05   3.236902e+05
  -7.214137e+05  -3.929659e+05
  -4.458682e+04  -1.238805e+06
   1.383134e+06  -1.081314e+06
   2.268680e+06   3.354556e+05
   1.636094e+06   2.043119e+06
  -1.649679e+05   2.703435e+06
  -1.753400e+06   1.800745e+06
  -2.059866e+06   7.916472e+04
  -1.283634e+06  -1.146777e+06
  -4.672193e+05  -1.181739e+06
  -2.766998e+05  -5.207571e+05
  -3.927322e+05  -2.093721e+05
  -8.095918e+04  -6.321100e+05
   8.275548e+05  -1.067454e+06
   1.629947e+06  -5.673680e+05
   1.395331e+06   8.092851e+05
  -7.753786e+04   1.857853e+06
  -1.874739e+06   1.414197e+06
  -2.578438e+06  -4.020864e+05
  -1.459224e+06  -2.208080e+06
   7.923460e+05  -2.601426e+06
   2.568814e+06  -1.379651e+06
   2.710740e+06   3.897170e+05
   1.443223e+06   1.421429e+06
  -3.249797e+03   1.343029e+06
  -6.228340e+05   8.486252e+05
  -4.510086e+05   7.905998e+05
  -2.644700e+05   1.191381e+06
  -6.270167e+05   1.247940e+06
  -1.281357e+06   3.276994e+05
  -1.436317e+06  -1.168166e+06
  -6.315538e+05  -2.073499e+06
   6.754373e+05  -1.591726e+06
   1.433543e+06  -8.559265e+04
   9.969760e+05   1.265402e+06
  -1.977109e+05   1.521008e+06
  -1.043392e+06   7.026854e+05
  -8.832601e+05  -3.957280e+05
  -1.354067e+05  -9.896137e+05
   2.640585e+05  -9.145396e+05
  -4.084933e+04  -5.798697e+05
  -4.274090e+05  -4.214093e+05
  -3.950079e+04  -4.452727e+05
   1.146474e+06  -3.033049e+05
   2.121104e+06   2.402552e+05
   1.798229e+06   9.835990e+05
   1.853047e+05   1.431889e+06
  -1.488177e+06   1.232902e+06
  -1.918677e+06   4.931838e+05
  -9.968889e+05  -2.699915e+05
   1.704909e+05  -5.153486e+05
   4.933090e+05  -1.530845e+05
  -2.981096e+04   3.119809e+05
  -5.579175e+05   2.496517e+05
  -5.065535e+05  -3.675351e+05
  -1.130111e+05  -8.372273e+05
   5.397637e+04  -5.341654e+05
  -1.696609e+05   2.330627e+05
  -4.398348e+05   4.831754e+05
  -3.433827e+05  -2.269861e+05
   2.198118e+05  -1.147246e+06
   9.494549e+05  -1.157842e+06
   1.275131e+06  -1.073462e+05
   7.441878e+05   9.874566e+05
  -4.265232e+05   1.090098e+06
  -1.247834e+06   2.263708e+05
  -7.903450e+05  -6.701240e+05
   7.083177e+05  -7.678590e+05
   1.831549e+06  -3.755418e+04
   1.372730e+06   8.776279e+05
  -3.301046e+05   1.255161e+06
  -1.691070e+06   8.236450e+05
  -1.531440e+06  -4.482148e+04
  -2.555136e+05  -6.081396e+05
   6.891757e+05  -4.016040e+05
   3.738346e+05   2.573566e+05
  -7.168362e+05   5.015680e+05
  -1.288906e+06  -1.972619e+05
  -6.025564e+05  -1.357887e+06
   8.089632e+05  -1.823178e+06
   1.716301e+06  -8.856600e+05
   1.397319e+06   8.860523e+05
   2.320366e+05   2.031016e+06
  -8.058507e+05   1.551205e+06
  -1.070859e+06  -6.839640e+04
  -6.221550e+05  -1.308720e+06
   7.952095e+04  -1.173767e+06
   5.830311e+05  -1.693000e+05
   6.358391e+05   4.397636e+05
   3.040719e+05   1.910456e+05
   7.382605e+03  -1.455713e+05
   1.489334e+05   2.391992e+05
   5.246268e+05   1.033512e+06
   3.778620e+05   1.231881e+06
  -6.270125e+05   4.851985e+05
  -1.682457e+06  -4.971918e+05
  -1.583308e+06  -9.142688e+05
  -2.371767e+05  -7.491494e+05
   1.063991e+06  -4.678016e+05
   1.142360e+06  -2.654988e+05
   3.065209e+05  -1.932739e+04
  -2.046729e+05   2.410452e+05
   9.988978e+04   3.016464e+05
   4.420898e+05   1.840866e+05
   7.285913e+02   1.558174e+05
  -8.908966e+05   2.108555e+05
  -1.146678e+06  -4.798757e+04
  -2.740788e+05  -7.389281e+05
   1.065099e+06  -1.226616e+06
   1.786777e+06  -7.477584e+05
   1.392328e+06   5.504333e+05
   2.561550e+05   1.587191e+06
  -8.068227e+05   1.487300e+06
  -1.159978e+06   5.065247e+05
  -7.493079e+05  -3.354435e+05
  -8.903638e+04  -3.943908e+05
   1.991390e+05   1.202125e+04
  -4.629963e+04   1.159766e+05
  -4.028496e+05  -3.660590e+05
  -3.355279e+05  -8.981655e+05
   2.247672e+05  -7.253356e+05
   7.833724e+05   2.267968e+05
   7.400029e+05   1.146059e+06
  -1.984747e+04   1.128408e+06
  -9.157172e+05   1.452185e+05
  -1.105236e+06  -9.195338e+05
  -3.010336e+05  -1.201492e+06
   8.114735e+05  -6.548253e+05
   1.176579e+06   1.190397e+05
   5.173730e+05   5.881591e+05
  -3.068037e+05   6.336984e+05
  -3.122682e+05   3.827667e+05
   3.927343e+05   5.827277e+04
   7.527037e+05  -2.423536e+04
   1.223426e+05   3.182440e+05
  -9.168473e+05   7.717964e+05
  -1.298602e+06   6.932380e+05
  -7.303018e+05  -1.005845e+05
   1.162469e+05  -9.183008e+05
   5.081653e+05  -9.047452e+05
   3.529460e+05  -9.635699e+04
  -4.075836e+03   5.799963e+05
  -2.870830e+05   4.189154e+05
  -3.957972e+05  -2.690471e+05
  -2.649445e+05  -6.452965e+05
   8.576182e+04  -3.773059e+05
   4.287707e+05   9.645208e+04
   4.922190e+05   2.376426e+05
   2.693346e+05   4.112428e+04
   1.399505e+04  -8.275742e+04
  -9.325500e+04   1.237132e+05
  -1.356202e+05   4.581118e+05
  -2.630051e+05   4.907203e+05
  -4.180364e+05   4.752254e+04
  -3.650071e+05  -5.458078e+05
   1.578256e+04  -7.330701e+05
   5.072066e+05  -2.946784e+05
   6.648723e+05   3.815768e+05
   2.248993e+05   6.794285e+05
  -5.326055e+05   3.891682e+05
  -9.160773e+05  -1.333834e+05
  -4.990387e+05  -4.231094e+05
   3.262460e+05  -3.639642e+05
   6.801556e+05  -1.539642e+05
   1.948945e+05  -3.937212e+03
  -4.992689e+05  -1.276619e+04
  -4.958580e+05  -1.914250e+05
   2.840842e+05  -3.916338e+05
   9.823428e+05  -2.912961e+05
