
 $NMID
 id='ANONYMOUS ', fmtdat='(2E16.6)'
 volume=1.0
 tramp=1.0
 $END
   3.255911e+07   1.689074e+06
   1.999686e+07   1.825119e+07
  -2.785564e+06   2.105750e+07
  -1.536180e+07   1.091559e+07
  -1.087774e+07  -1.253675e+06
   5.596611e+05  -5.658023e+06
   6.316515e+06  -1.251833e+06
   3.438248e+06   5.554678e+06
  -2.668122e+06   7.510110e+06
  -6.047498e+06   2.649004e+06
  -4.640841e+06  -4.228764e+06
  -3.049172e+05  -6.190633e+06
   2.929953e+06  -1.356354e+06
   1.948033e+06   4.840209e+06
  -2.268434e+06   5.510530e+06
  -5.136860e+06  -1.473276e+05
  -3.210422e+06  -6.403895e+06
   2.118819e+06  -7.571200e+06
   6.291366e+06  -3.407132e+06
   6.254850e+06   1.953639e+06
   2.900171e+06   4.673022e+06
  -3.781216e+05   4.137465e+06
  -8.797395e+05   2.475798e+06
   9.903378e+05   2.132903e+06
   1.967965e+06   3.475271e+06
  -6.711718e+05   4.390643e+06
  -5.472312e+06   2.693576e+06
  -7.633100e+06  -1.027832e+06
  -4.412164e+06  -3.744331e+06
   1.259283e+06  -3.323431e+06
   3.904264e+06  -6.814361e+05
   1.644516e+06   1.592515e+06
  -2.246997e+06   1.765017e+06
  -3.657868e+06  -1.520208e+05
  -1.870911e+06  -2.758123e+06
   7.711830e+05  -3.863744e+06
   1.931540e+06  -2.070270e+06
   1.186756e+06   1.169250e+06
  -2.073246e+05   2.280618e+06
  -5.828974e+05  -1.732760e+05
   6.485115e+05  -2.995785e+06
   2.174825e+06  -2.093659e+06
   1.885903e+06   1.834750e+06
  -6.317528e+05   3.760967e+06
  -3.089486e+06   8.541197e+05
  -2.673860e+06  -3.727335e+06
   8.299565e+05  -4.803831e+06
   4.540682e+06  -1.316582e+06
   5.143715e+06   3.069427e+06
   1.942460e+06   4.515562e+06
  -2.483994e+06   2.525621e+06
  -4.475904e+06  -6.263141e+05
  -2.538665e+06  -2.389544e+06
   1.204224e+06  -1.742557e+06
   3.054133e+06   2.989015e+05
   1.562198e+06   1.589170e+06
  -1.030610e+06   9.172726e+05
  -1.579490e+06  -6.805881e+05
   2.310008e+05  -1.175212e+06
   1.750520e+06  -5.055097e+03
   7.829685e+05   1.395678e+06
  -1.812207e+06   1.435328e+06
  -3.230695e+06  -7.617553e+04
  -1.769408e+06  -2.181637e+06
   1.637980e+06  -3.615790e+06
   4.473345e+06  -3.212424e+06
   4.808870e+06  -6.012874e+05
   2.750401e+06   2.854224e+06
   1.591037e+05   4.691817e+06
  -1.120612e+06   3.809522e+06
  -9.432779e+05   1.768621e+06
  -6.836965e+05   8.123515e+05
  -1.390603e+06   1.060305e+06
  -2.510004e+06   7.295108e+05
  -2.653906e+06  -1.025299e+06
  -1.266575e+06  -2.702879e+06
   8.012007e+05  -2.319333e+06
   2.097141e+06   9.556991e+04
   1.648163e+06   2.463561e+06
  -3.810900e+05   2.784350e+06
  -2.604920e+06   8.951760e+05
  -3.263303e+06  -1.639993e+06
  -1.806786e+06  -3.016952e+06
   3.893231e+05  -2.663753e+06
   1.465850e+06  -1.508085e+06
   1.242555e+06  -8.263821e+05
   1.272863e+06  -8.447624e+05
   2.539565e+06  -6.388085e+05
   3.834521e+06   6.011991e+05
   3.089535e+06   2.500654e+06
   2.282773e+04   3.792974e+06
  -3.214307e+06   3.449462e+06
  -4.134830e+06   1.497844e+06
  -2.325591e+06  -9.174774e+05
   3.042608e+05  -2.197973e+06
   1.441942e+06  -1.524358e+06
   4.672421e+05   2.098501e+05
  -1.192150e+06   1.085512e+06
  -1.670902e+06   2.368906e+05
  -5.937869e+05  -1.071482e+06
   6.722728e+05  -1.020601e+06
   6.515705e+05   3.404168e+05
  -6.119210e+05   1.042063e+06
  -1.697919e+06  -2.961729e+05
  -1.331194e+06  -2.620358e+06
   4.806039e+05  -3.562022e+06
   2.582406e+06  -2.018400e+06
   3.562944e+06   8.237169e+05
   2.689462e+06   2.816887e+06
   5.144838e+05   2.801803e+06
  -1.352980e+06   1.360956e+06
  -1.575795e+06   4.758485e+04
  -4.624104e+05  -6.496898e+04
   3.178520e+05   7.094153e+05
  -3.311461e+05   1.133049e+06
  -1.599783e+06   4.623321e+05
  -1.779064e+06  -7.149000e+05
  -4.128804e+05  -1.196412e+06
   1.068734e+06  -5.552347e+05
   9.773848e+05   4.434721e+05
  -7.098208e+05   7.259183e+05
  -2.273663e+06  -6.229587e+04
  -1.998239e+06  -1.347784e+06
   1.093993e+05  -2.127469e+06
   2.285745e+06  -1.687123e+06
   2.670012e+06  -2.182199e+05
   1.079335e+06   1.139252e+06
  -8.425842e+05   1.222904e+06
  -1.287671e+06   8.654740e+04
  -5.272397e+04  -9.190661e+05
   1.412664e+06  -5.991699e+05
   1.605614e+06   7.106662e+05
   4.230763e+05   1.552326e+06
  -9.304929e+05   1.053465e+06
  -1.230251e+06  -1.349267e+05
  -3.587422e+05  -6.815308e+05
   6.516191e+05  -5.895318e+04
   6.091460e+05   9.871634e+05
  -6.397179e+05   1.282591e+06
  -1.921986e+06   3.691017e+05
  -1.838507e+06  -1.097046e+06
  -2.791244e+05  -1.937290e+06
   1.352650e+06  -1.489829e+06
   1.607691e+06  -2.002264e+05
   5.116121e+05   8.024080e+05
  -6.135272e+05   7.791259e+05
  -6.961241e+05   3.569731e+04
   4.960624e+04  -5.111579e+05
   6.166697e+05  -3.525499e+05
   3.926543e+05   1.241451e+05
  -2.842653e+05   1.599665e+05
  -5.560654e+05  -4.582616e+05
   9.552827e+04  -1.082735e+06
   1.285217e+06  -8.348647e+05
   1.947502e+06   4.406530e+05
   1.299052e+06   1.877632e+06
  -3.027538e+05   2.319098e+06
  -1.611263e+06   1.404419e+06
  -1.731099e+06  -8.796017e+04
  -9.716738e+05  -1.010927e+06
  -3.267825e+05  -9.302713e+05
  -2.809755e+05  -4.044604e+05
  -3.973988e+05  -2.439687e+05
  -3.506715e+04  -6.029131e+05
   8.037673e+05  -8.571910e+05
   1.425331e+06  -3.543900e+05
   1.106237e+06   7.633662e+05
  -2.063009e+05   1.536029e+06
  -1.695137e+06   1.066622e+06
  -2.180510e+06  -5.132119e+05
  -1.090806e+06  -2.007093e+06
   9.018448e+05  -2.200187e+06
   2.344991e+06  -9.908532e+05
   2.284667e+06   5.596284e+05
   1.075991e+06   1.307466e+06
  -1.197066e+05   1.081126e+06
  -5.275451e+05   6.368358e+05
  -3.437651e+05   6.807183e+05
  -2.623359e+05   1.082128e+06
  -6.409173e+05   1.085187e+06
  -1.161853e+06   2.172274e+05
  -1.189502e+06  -1.092975e+06
  -4.321049e+05  -1.830059e+06
   6.704910e+05  -1.339106e+06
   1.237882e+06   2.282602e+04
   7.660781e+05   1.180887e+06
  -3.091108e+05   1.302593e+06
  -9.904772e+05   4.826645e+05
  -7.345217e+05  -4.809396e+05
   7.712632e+03  -9.031574e+05
   3.556417e+05  -7.543684e+05
   2.477189e+04  -4.698047e+05
  -3.614898e+05  -3.758349e+05
  -1.802256e+04  -3.824149e+05
   1.035021e+06  -1.806713e+05
   1.856102e+06   3.552351e+05
   1.495050e+06   9.844083e+05
   2.423528e+04   1.278578e+06
  -1.418156e+06   9.862000e+05
  -1.704822e+06   2.761908e+05
  -8.205253e+05  -3.517077e+05
   2.069821e+05  -4.609661e+05
   4.487814e+05  -7.563270e+04
  -3.091588e+04   3.079321e+05
  -4.793824e+05   1.975771e+05
  -4.247187e+05  -3.475016e+05
  -9.671252e+04  -7.250901e+05
   3.453728e+04  -4.625792e+05
  -1.505122e+05   1.611568e+05
  -3.679917e+05   3.587403e+05
  -2.743975e+05  -2.204134e+05
   2.322763e+05  -9.679253e+05
   8.929261e+05  -9.551623e+05
   1.168188e+06  -4.106754e+04
   6.407722e+05   9.041731e+05
  -4.386825e+05   9.616833e+05
  -1.130693e+06   1.633790e+05
  -6.546979e+05  -6.117539e+05
   6.679203e+05  -6.118136e+05
   1.561626e+06   9.724995e+04
   1.072369e+06   8.418420e+05
  -3.979629e+05   1.020462e+06
  -1.487158e+06   5.498766e+05
  -1.273623e+06  -1.559207e+05
  -1.630290e+05  -5.256709e+05
   6.209713e+05  -2.837555e+05
   3.207986e+05   2.609053e+05
  -6.301092e+05   4.182548e+05
  -1.112587e+06  -2.098676e+05
  -4.888305e+05  -1.196067e+06
   7.544262e+05  -1.555276e+06
   1.512966e+06  -7.044288e+05
   1.162163e+06   8.251975e+05
   9.559385e+04   1.755185e+06
  -7.766065e+05   1.268187e+06
  -9.061650e+05  -1.462862e+05
  -4.319431e+05  -1.161948e+06
   1.693996e+05  -9.789794e+05
   5.208495e+05  -9.491449e+04
   4.960021e+05   4.034838e+05
   2.215892e+05   1.666874e+05
   2.498985e+04  -1.133669e+05
   1.565650e+05   2.428998e+05
   4.099055e+05   9.315280e+05
   2.200430e+05   1.069235e+06
  -6.094907e+05   3.692905e+05
  -1.415432e+06  -5.194559e+05
  -1.277157e+06  -8.698584e+05
  -1.571964e+05  -6.654672e+05
   9.116441e+05  -3.529273e+05
   9.851535e+05  -1.555370e+05
   2.888100e+05   2.311206e+04
  -1.777337e+05   2.017802e+05
   3.532570e+04   2.411647e+05
   3.347995e+05   1.551985e+05
   8.197916e+03   1.342887e+05
  -7.393385e+05   1.561751e+05
  -9.939502e+05  -9.016998e+04
  -2.555264e+05  -6.671793e+05
   9.488451e+05  -1.032954e+06
   1.612621e+06  -5.785419e+05
   1.226347e+06   5.314778e+05
   1.561338e+05   1.379027e+06
  -7.858765e+05   1.254633e+06
  -1.032450e+06   4.048092e+05
  -6.272867e+05  -3.051722e+05
  -7.373193e+04  -3.482719e+05
   1.403783e+05  -7.556756e+03
  -5.500427e+04   6.920356e+04
  -3.090128e+05  -3.462849e+05
  -2.277586e+05  -7.910186e+05
   2.242664e+05  -6.246868e+05
   6.611650e+05   2.080469e+05
   6.083212e+05   1.004631e+06
  -3.155990e+04   9.839816e+05
  -7.801898e+05   1.197669e+05
  -9.261431e+05  -8.168772e+05
  -2.249681e+05  -1.058641e+06
   7.314076e+05  -5.544129e+05
   1.031093e+06   1.529698e+05
   4.360054e+05   5.628024e+05
  -3.038978e+05   5.664622e+05
  -3.210863e+05   3.192583e+05
   3.041421e+05   5.215680e+04
   6.434053e+05   9.744393e+03
   1.008828e+05   2.893236e+05
  -8.302043e+05   6.164246e+05
  -1.182713e+06   5.045170e+05
  -6.567133e+05  -1.548231e+05
   1.448533e+05  -8.019193e+05
   5.159929e+05  -7.667754e+05
   3.472667e+05  -8.613727e+04
  -1.212545e+04   4.893002e+05
  -2.646976e+05   3.674153e+05
  -3.308797e+05  -2.211801e+05
  -2.023514e+05  -5.702262e+05
   8.793902e+04  -3.511476e+05
   3.689923e+05   9.099599e+04
   4.218667e+05   2.524719e+05
   2.286388e+05   6.809513e+04
   3.661157e+03  -9.706540e+04
  -8.075282e+04   5.217232e+04
  -9.410607e+04   3.749600e+05
  -1.945820e+05   4.531666e+05
  -3.512933e+05   7.979856e+04
  -3.349566e+05  -4.578201e+05
  -6.583356e+03  -6.350231e+05
   4.388527e+05  -2.476804e+05
   5.798550e+05   3.438343e+05
   1.793086e+05   5.876885e+05
  -4.891942e+05   3.142690e+05
  -8.059443e+05  -1.476475e+05
  -4.205563e+05  -3.902065e+05
   3.024754e+05  -3.224814e+05
   6.074961e+05  -1.282197e+05
   1.938572e+05   3.962838e+03
  -3.998489e+05  -5.465288e+03
  -4.104059e+05  -1.525494e+05
   2.336376e+05  -3.075904e+05
   8.172407e+05  -2.119244e+05
