
 $NMID
 id='ANONYMOUS ', fmtdat='(2E16.6)'
 volume=1.0
 tramp=1.0
 $END
  -2.390436e+07  -6.378730e+05
  -1.383108e+07  -1.552794e+07
   3.889170e+06  -1.619248e+07
   1.200724e+07  -5.537912e+06
   6.754083e+06   3.542142e+06
  -1.696129e+06   3.888559e+06
  -4.092591e+06  -8.883897e+05
  -8.289598e+05  -4.207778e+06
   2.883294e+06  -3.638684e+06
   4.079988e+06  -5.346515e+05
   2.807028e+06   2.664150e+06
   2.341939e+05   3.523856e+06
  -1.661994e+06   1.129916e+06
  -9.804229e+05  -2.157406e+06
   1.693023e+06  -2.528046e+06
   3.259444e+06   7.568829e+05
   1.661664e+06   4.343489e+06
  -1.788691e+06   4.868404e+06
  -4.324212e+06   2.359877e+06
  -4.554910e+06  -9.393468e+05
  -2.808432e+06  -3.230005e+06
  -2.637029e+05  -3.776856e+06
   1.409678e+06  -2.650353e+06
   1.064349e+06  -1.063671e+06
  -2.761733e+05  -6.854504e+05
  -1.314720e+05  -1.547613e+06
   2.090649e+06  -1.760008e+06
   3.870238e+06  -2.119903e+05
   2.887090e+06   1.701041e+06
   1.924994e+05   2.100815e+06
  -1.412615e+06   1.121809e+06
  -1.018928e+06   1.513600e+05
   6.249329e+04  -2.429169e+05
   7.091041e+05  -2.142113e+05
   8.355157e+05   4.241259e+05
   3.643179e+05   1.494016e+06
  -7.181812e+05   1.624792e+06
  -1.442475e+06   3.919491e+04
  -8.091164e+05  -1.541571e+06
   3.350493e+05  -9.503042e+05
   1.982167e+05   8.673511e+05
  -9.969922e+05   8.544564e+05
  -9.408539e+05  -1.395040e+06
   1.206363e+06  -2.549160e+06
   3.069908e+06  -3.060073e+05
   2.106728e+06   3.043689e+06
  -9.647187e+05   3.608382e+06
  -3.159913e+06   9.271993e+05
  -2.759190e+06  -1.940887e+06
  -5.933416e+05  -2.479144e+06
   1.468693e+06  -9.922056e+05
   2.054138e+06   7.617872e+05
   8.511525e+05   1.482086e+06
  -1.082313e+06   8.466141e+05
  -1.862154e+06  -4.864596e+05
  -7.403606e+05  -1.184277e+06
   7.459081e+05  -5.428287e+05
   6.602817e+05   4.553748e+05
  -6.375896e+05   3.033334e+05
  -9.980654e+05  -8.943729e+05
   4.323436e+05  -1.524318e+06
   2.088736e+06  -7.100200e+05
   2.217632e+06   7.300301e+05
   8.806580e+05   1.737007e+06
  -7.787760e+05   2.143841e+06
  -2.025107e+06   1.931286e+06
  -2.518473e+06   6.917092e+05
  -1.884681e+06  -1.293970e+06
  -3.493404e+05  -2.510068e+06
   8.607974e+05  -1.884751e+06
   7.820153e+05  -3.778401e+05
   7.604164e+03   2.181068e+05
  -1.498332e+05  -3.548127e+05
   5.323586e+05  -7.635533e+05
   1.082308e+06  -1.845722e+05
   8.179539e+05   6.777762e+05
   6.431458e+04   7.923452e+05
  -5.329375e+05   8.260621e+04
  -6.050342e+05  -7.748525e+05
   4.342762e+03  -1.130382e+06
   1.091864e+06  -6.673149e+05
   1.808342e+06   4.695804e+05
   1.320648e+06   1.553645e+06
  -3.592766e+04   1.774190e+06
  -9.913263e+05   1.132148e+06
  -9.743608e+05   4.352690e+05
  -7.717161e+05   2.142808e+05
  -1.173905e+06   1.168162e+05
  -1.701042e+06  -3.795771e+05
  -1.325739e+06  -1.141525e+06
   8.405836e+03  -1.612313e+06
   1.287071e+06  -1.481795e+06
   1.628998e+06  -8.065359e+05
   1.040095e+06   1.485183e+05
   1.322281e+05   8.580094e+05
  -4.121411e+05   7.631805e+05
  -2.242617e+05  -3.127284e+03
   4.253316e+05  -5.058035e+05
   7.613160e+05  -1.385822e+05
   3.691777e+05   4.897049e+05
  -1.991259e+05   4.260506e+05
  -1.311718e+05  -1.640125e+05
   4.749385e+05  -2.104796e+05
   7.111246e+05   6.385554e+05
   1.102143e+05   1.447188e+06
  -7.990607e+05   1.262806e+06
  -1.289622e+06   2.658395e+05
  -1.210444e+06  -6.857685e+05
  -7.682971e+05  -1.091201e+06
  -1.166156e+05  -9.825009e+05
   4.866500e+05  -5.481179e+05
   6.061101e+05  -7.990153e+04
   1.911348e+05   2.408969e+04
  -1.281959e+05  -2.994595e+05
   1.920761e+05  -5.315629e+05
   7.778533e+05  -2.021212e+05
   7.942090e+05   3.977172e+05
   1.184847e+05   5.771734e+05
  -4.725292e+05   1.988387e+05
  -3.203712e+05  -1.939297e+05
   3.544688e+05  -1.577677e+05
   8.183880e+05   1.981895e+05
   6.086523e+05   5.558581e+05
  -1.523312e+05   7.301307e+05
  -9.180739e+05   5.841135e+05
  -1.079245e+06   5.909004e+04
  -4.600670e+05  -5.228284e+05
   3.883054e+05  -5.937129e+05
   6.350239e+05  -5.806929e+04
   7.660537e+04   4.372919e+05
  -6.074447e+05   2.715419e+05
  -6.579269e+05  -3.413525e+05
  -8.600202e+04  -6.530850e+05
   4.594200e+05  -3.432232e+05
   4.800187e+05   1.680108e+05
   6.390515e+04   3.184859e+05
  -3.258644e+05   5.757908e+03
  -2.793607e+05  -4.259594e+05
   2.385391e+05  -5.530987e+05
   7.897853e+05  -1.931796e+05
   7.856004e+05   4.337445e+05
   1.217789e+05   8.198699e+05
  -5.943871e+05   6.222782e+05
  -6.811588e+05   4.856737e+04
  -1.740562e+05  -3.517551e+05
   2.742802e+05  -2.980378e+05
   2.350503e+05  -2.172223e+04
  -6.337816e+04   1.156272e+05
  -1.763102e+05   4.932587e+04
  -8.130326e+03  -2.163642e+04
   1.943609e+05   6.945043e+04
   1.811980e+05   2.970975e+05
  -1.171233e+05   4.654023e+05
  -5.597043e+05   3.244207e+05
  -8.069348e+05  -1.948023e+05
  -5.460963e+05  -7.804526e+05
   1.175901e+05  -9.355874e+05
   6.460825e+05  -5.096780e+05
   6.382479e+05   8.718404e+04
   2.935615e+05   3.446270e+05
   1.051345e+05   2.169198e+05
   2.040751e+05   6.608076e+04
   2.661301e+05   1.400408e+05
   2.881176e+04   3.161602e+05
  -3.627001e+05   3.339472e+05
  -5.637242e+05   9.157168e+04
  -3.788540e+05  -2.916068e+05
   1.312667e+05  -5.428229e+05
   6.834326e+05  -3.771151e+05
   8.594130e+05   2.246059e+05
   3.987076e+05   8.384035e+05
  -4.470579e+05   9.089505e+05
  -1.020373e+06   3.512122e+05
  -8.959551e+05  -3.124015e+05
  -3.221155e+05  -5.361667e+05
   1.108072e+05  -3.389313e+05
   1.402308e+05  -1.684410e+05
   6.530389e+03  -2.948190e+05
   4.089186e+04  -5.284419e+05
   2.842558e+05  -5.086629e+05
   5.189113e+05  -1.119944e+05
   5.115330e+05   4.362219e+05
   1.943316e+05   7.435533e+05
  -2.580690e+05   5.511047e+05
  -4.981638e+05  -2.280446e+04
  -2.926486e+05  -5.210796e+05
   1.878489e+05  -5.400427e+05
   4.778185e+05  -1.221848e+05
   3.089103e+05   3.132343e+05
  -8.372192e+04   4.344470e+05
  -2.464982e+05   2.936830e+05
  -4.986987e+04   1.499066e+05
   1.693789e+05   1.303191e+05
   2.166791e+04   1.474912e+05
  -4.595649e+05   6.291315e+04
  -8.122362e+05  -1.625151e+05
  -6.160797e+05  -4.347433e+05
   5.074632e+04  -5.711793e+05
   6.539349e+05  -4.288184e+05
   7.241209e+05  -7.115423e+04
   3.117597e+05   2.264083e+05
  -1.181889e+05   2.288299e+05
  -2.058707e+05  -2.996245e+03
  -1.373060e+04  -1.781226e+05
   1.680875e+05  -9.925656e+04
   1.860879e+05   1.385733e+05
   1.073049e+05   2.794644e+05
   4.799541e+04   1.864543e+05
   5.270538e+04  -2.298727e+04
   9.893242e+04  -9.506904e+04
   1.008789e+05   9.601619e+04
  -5.857976e+04   3.761080e+05
  -3.642293e+05   4.072306e+05
  -5.534628e+05   6.350859e+04
  -3.418240e+05  -3.656292e+05
   1.753386e+05  -4.555523e+05
   5.060103e+05  -1.339853e+05
   2.816741e+05   2.258115e+05
  -2.861325e+05   2.397492e+05
  -6.083100e+05  -6.805412e+04
  -3.550591e+05  -3.536490e+05
   2.195042e+05  -3.626735e+05
   5.837076e+05  -1.399449e+05
   4.594937e+05   1.042960e+05
   3.556187e+04   1.969893e+05
  -2.582863e+05   8.701546e+04
  -1.521472e+05  -1.253473e+05
   2.244192e+05  -2.062078e+05
   4.615369e+05   2.965179e+04
   2.669199e+05   4.591791e+05
  -2.255578e+05   6.643710e+05
  -5.759057e+05   3.433404e+05
  -4.816037e+05  -2.994839e+05
  -6.293854e+04  -6.932592e+05
   3.009089e+05  -4.832830e+05
   3.530364e+05   9.205159e+04
   1.398677e+05   4.690182e+05
  -1.141281e+05   3.628857e+05
  -2.244261e+05   1.839397e+04
  -1.631892e+05  -1.482785e+05
  -4.695387e+04  -5.004303e+04
  -2.562732e+04   3.163226e+04
  -1.269214e+05  -1.284422e+05
  -1.954560e+05  -3.850643e+05
  -4.389418e+04  -4.166255e+05
   3.026936e+05  -1.416304e+05
   5.640709e+05   1.953794e+05
   4.698956e+05   3.378505e+05
   6.213584e+04   2.767440e+05
  -3.195939e+05   1.562476e+05
  -3.776452e+05   5.467500e+04
  -1.527679e+05  -3.413470e+04
   5.240781e+04  -8.803995e+04
   3.474637e+04  -6.925536e+04
  -8.173518e+04  -2.751809e+04
  -2.663666e+04  -5.111627e+04
   2.370359e+05  -9.478949e+04
   4.097726e+05   6.340812e+03
   1.938165e+05   2.768406e+05
  -3.163869e+05   4.651637e+05
  -6.815655e+05   2.972181e+05
  -5.727799e+05  -1.663441e+05
  -1.058458e+05  -5.455827e+05
   3.140254e+05  -5.370595e+05
   4.130224e+05  -2.170382e+05
   2.507524e+05   8.265551e+04
   5.904727e+04   1.410265e+05
  -9.431769e+03   3.868708e+04
   3.835336e+04   8.909332e+03
   1.041425e+05   1.515542e+05
   8.198653e+04   3.162366e+05
  -6.972837e+04   2.681509e+05
  -2.605897e+05  -3.612448e+04
  -2.958815e+05  -3.603240e+05
  -6.373223e+04  -4.053210e+05
   2.817879e+05  -1.140901e+05
   4.070102e+05   2.662252e+05
   1.446068e+05   4.276205e+05
  -2.779408e+05   2.766555e+05
  -4.462836e+05  -2.854784e+04
  -2.160721e+05  -2.564111e+05
   1.171784e+05  -2.825520e+05
   1.676631e+05  -1.456503e+05
  -7.674022e+04   3.409595e+03
  -2.480433e+05   1.549754e+04
  -6.241189e+04  -1.247363e+05
   3.249334e+05  -2.574273e+05
   5.100025e+05  -1.884647e+05
   3.156037e+05   8.917560e+04
  -4.014844e+04   3.462081e+05
  -2.370265e+05   3.386502e+05
  -1.870222e+05   7.519665e+04
  -2.973307e+04  -1.788123e+05
   9.149909e+04  -1.796990e+05
   1.358341e+05   4.065299e+04
   9.952571e+04   2.253512e+05
  -1.771684e+04   1.831049e+05
  -1.531527e+05  -1.089036e+04
  -1.903127e+05  -1.242467e+05
  -9.401480e+04  -5.006834e+04
   2.174967e+04   7.328498e+04
   3.168514e+04   4.714162e+04
  -2.927989e+04  -1.264506e+05
  -1.462464e+04  -2.353835e+05
   1.140822e+05  -1.182344e+05
   2.025412e+05   1.276965e+05
   9.218812e+04   2.507244e+05
  -1.507657e+05   1.308154e+05
  -2.709558e+05  -9.871296e+04
  -1.070635e+05  -2.168924e+05
   2.046869e+05  -1.435800e+05
   3.552653e+05   2.378304e+04
   1.912929e+05   1.482815e+05
  -1.159840e+05   1.694605e+05
  -2.552954e+05   1.045284e+05
  -1.127529e+05   9.190000e+03
   1.144111e+05  -4.162420e+04
   1.508868e+05   4.244672e+03
  -4.872715e+04   1.005879e+05
  -2.620225e+05   1.053040e+05
