
 $NMID
 id='ANONYMOUS ', fmtdat='(2E16.6)'
 volume=1.0
 tramp=1.0
 $END
   5.725347e+07  -1.023312e+06
   3.478982e+07   3.464607e+07
  -6.884323e+06   3.857437e+07
  -2.737291e+07   1.532049e+07
  -1.652439e+07  -6.566309e+06
   3.118079e+06  -9.278588e+06
   9.727532e+06   1.029113e+06
   2.949061e+06   9.628650e+06
  -5.891930e+06   9.432244e+06
  -9.551446e+06   2.241398e+06
  -7.234755e+06  -6.040607e+06
  -1.130377e+06  -8.649846e+06
   3.949655e+06  -2.890817e+06
   2.879960e+06   5.406459e+06
  -3.537984e+06   6.701883e+06
  -7.944542e+06  -1.138581e+06
  -4.777751e+06  -1.019189e+07
   3.482808e+06  -1.206082e+07
   1.010450e+07  -6.293027e+06
   1.108701e+07   1.814712e+06
   6.920057e+06   7.525020e+06
   8.120086e+05   8.814629e+06
  -2.892764e+06   6.106810e+06
  -1.712615e+06   2.585926e+06
   1.416056e+06   2.082088e+06
   5.148475e+05   4.339597e+06
  -5.410639e+06   4.777031e+06
  -9.907368e+06   8.620743e+05
  -7.309979e+06  -4.003842e+06
  -3.611926e+05  -5.202407e+06
   3.787544e+06  -2.785792e+06
   2.631578e+06  -5.481469e+04
  -5.063535e+05   1.150596e+06
  -2.370415e+06   7.735699e+05
  -2.476587e+06  -1.337810e+06
  -9.758289e+05  -4.080463e+06
   1.730896e+06  -4.042647e+06
   3.359907e+06   8.150509e+04
   1.807033e+06   3.743063e+06
  -8.750035e+05   1.959510e+06
  -5.389889e+05  -2.587993e+06
   2.382750e+06  -2.481628e+06
   2.538609e+06   3.123704e+06
  -2.324804e+06   6.176728e+06
  -6.987696e+06   1.064802e+06
  -5.273751e+06  -6.961354e+06
   1.807799e+06  -8.663787e+06
   7.508691e+06  -2.610625e+06
   7.198849e+06   4.293077e+06
   2.099970e+06   6.014351e+06
  -3.377165e+06   2.861410e+06
  -5.343376e+06  -1.305986e+06
  -2.574977e+06  -3.348185e+06
   2.338386e+06  -2.212958e+06
   4.555573e+06   8.116069e+05
   2.014719e+06   2.640167e+06
  -1.696738e+06   1.393811e+06
  -1.781913e+06  -9.438449e+05
   1.253472e+06  -8.848915e+05
   2.428920e+06   1.688579e+06
  -6.208939e+05   3.359693e+06
  -4.614519e+06   1.929777e+06
  -5.334248e+06  -1.232278e+06
  -2.431548e+06  -3.938091e+06
   1.662832e+06  -5.465145e+06
   4.961630e+06  -5.206689e+06
   6.314181e+06  -2.029099e+06
   4.825697e+06   3.110001e+06
   1.200186e+06   6.288591e+06
  -1.667375e+06   4.892042e+06
  -1.631778e+06   1.300447e+06
  -7.758371e+04  -1.450361e+05
   5.556960e+04   1.163021e+06
  -1.675872e+06   1.993823e+06
  -2.992205e+06   3.627461e+05
  -2.243710e+06  -1.943210e+06
  -1.516626e+05  -2.262966e+06
   1.607117e+06  -3.365601e+05
   1.865792e+06   2.034619e+06
   1.561879e+05   3.029089e+06
  -2.796341e+06   1.827727e+06
  -4.671903e+06  -1.063994e+06
  -3.443155e+06  -3.765657e+06
  -7.908283e+04  -4.339474e+06
   2.259251e+06  -2.839332e+06
   2.230950e+06  -1.219822e+06
   1.819605e+06  -7.701366e+05
   2.981585e+06  -6.339083e+05
   4.503661e+06   5.691840e+05
   3.724407e+06   2.669265e+06
   3.425124e+05   4.244801e+06
  -3.116301e+06   4.201570e+06
  -4.223121e+06   2.419640e+06
  -2.788401e+06  -3.124445e+05
  -4.000129e+05  -2.331007e+06
   1.048305e+06  -2.070593e+06
   5.784392e+05   1.781588e+04
  -1.070280e+06   1.405711e+06
  -1.938942e+06   4.837464e+05
  -9.896695e+05  -1.209210e+06
   4.742682e+05  -1.166275e+06
   4.418604e+05   3.693197e+05
  -1.038782e+06   7.266138e+05
  -1.896144e+06  -1.248462e+06
  -7.859947e+05  -3.488148e+06
   1.423335e+06  -3.491512e+06
   3.080983e+06  -1.275517e+06
   3.431815e+06   1.260251e+06
   2.507347e+06   2.660922e+06
   6.362439e+05   2.654014e+06
  -1.198584e+06   1.594901e+06
  -1.622080e+06   3.312011e+05
  -5.098195e+05  -1.715275e+04
   4.008831e+05   7.619092e+05
  -3.814803e+05   1.395149e+06
  -1.947702e+06   6.637576e+05
  -2.117206e+06  -8.352868e+05
  -4.348697e+05  -1.431034e+06
   1.187166e+06  -6.222906e+05
   9.270886e+05   4.320511e+05
  -8.517632e+05   5.697628e+05
  -2.254674e+06  -2.162784e+05
  -1.867526e+06  -1.289831e+06
   1.431809e+05  -2.032028e+06
   2.288604e+06  -1.826746e+06
   2.845996e+06  -4.262274e+05
   1.308838e+06   1.246388e+06
  -8.915709e+05   1.588767e+06
  -1.604077e+06   2.543941e+05
  -2.454133e+05  -1.115714e+06
   1.540466e+06  -8.273323e+05
   1.803268e+06   7.294636e+05
   4.165183e+05   1.673935e+06
  -1.071680e+06   1.034559e+06
  -1.285896e+06  -2.730755e+05
  -2.636423e+05  -7.834727e+05
   8.366924e+05  -7.040979e+04
   8.147795e+05   1.080048e+06
  -5.399253e+05   1.522954e+06
  -2.073872e+06   6.677791e+05
  -2.173451e+06  -9.932690e+05
  -4.984665e+05  -2.134814e+06
   1.411848e+06  -1.766825e+06
   1.764352e+06  -2.989441e+05
   5.454216e+05   8.626230e+05
  -6.442583e+05   8.469490e+05
  -6.407086e+05   1.092555e+05
   1.092583e+05  -3.679573e+05
   4.899598e+05  -2.395189e+05
   1.236789e+05   4.583613e+04
  -4.632573e+05  -7.253813e+04
  -5.614284e+05  -6.742188e+05
   1.599366e+05  -1.240949e+06
   1.393066e+06  -1.000516e+06
   2.186417e+06   3.252804e+05
   1.623967e+06   1.946696e+06
  -9.316364e+04   2.520930e+06
  -1.584954e+06   1.541642e+06
  -1.738719e+06  -3.342817e+04
  -9.362123e+05  -8.507178e+05
  -3.908574e+05  -6.282034e+05
  -5.383816e+05  -2.026988e+05
  -6.801020e+05  -3.146419e+05
  -1.341552e+05  -8.044394e+05
   8.601979e+05  -9.848310e+05
   1.483623e+06  -4.209080e+05
   1.135308e+06   6.785051e+05
  -1.693389e+05   1.518749e+06
  -1.725405e+06   1.206379e+06
  -2.357997e+06  -3.800884e+05
  -1.275892e+06  -2.118937e+06
   9.414704e+05  -2.497072e+06
   2.585129e+06  -1.182691e+06
   2.450968e+06   5.680689e+05
   1.041142e+06   1.318421e+06
  -1.574937e+05   9.659393e+05
  -3.510929e+05   5.492335e+05
  -2.421272e+04   8.093912e+05
  -4.120764e+04   1.382625e+06
  -6.398817e+05   1.376263e+06
  -1.334759e+06   3.946821e+05
  -1.449544e+06  -1.052581e+06
  -6.796151e+05  -1.937714e+06
   5.683999e+05  -1.524791e+06
   1.329793e+06  -6.099439e+04
   8.991450e+05   1.293765e+06
  -3.441443e+05   1.459875e+06
  -1.186119e+06   4.562284e+05
  -8.623534e+05  -7.032482e+05
   9.570170e+04  -1.122065e+06
   5.331514e+05  -8.212776e+05
   6.731815e+04  -4.200955e+05
  -4.791982e+05  -3.219045e+05
  -9.099801e+04  -3.963654e+05
   1.187318e+06  -2.756962e+05
   2.171237e+06   2.439480e+05
   1.730909e+06   9.982173e+05
   1.413297e+04   1.493425e+06
  -1.609560e+06   1.261533e+06
  -1.882948e+06   3.709118e+05
  -8.716818e+05  -4.829753e+05
   2.529759e+05  -6.085842e+05
   5.292206e+05  -5.328017e+04
   5.743071e+04   4.505623e+05
  -4.371105e+05   3.038743e+05
  -5.225943e+05  -3.255489e+05
  -3.250740e+05  -7.405724e+05
  -1.423020e+05  -4.994732e+05
  -1.283572e+05   9.972022e+04
  -2.576075e+05   3.162106e+05
  -3.023523e+05  -2.285628e+05
   7.733023e+04  -1.039087e+06
   8.815390e+05  -1.165891e+06
   1.437183e+06  -2.586014e+05
   9.594644e+05   9.149867e+05
  -3.763624e+05   1.225220e+06
  -1.309264e+06   4.342590e+05
  -8.020988e+05  -5.475731e+05
   6.933956e+05  -7.075297e+05
   1.640453e+06   1.357367e+04
   1.067807e+06   8.301894e+05
  -4.546678e+05   1.030270e+06
  -1.510059e+06   5.588270e+05
  -1.267328e+06  -1.343426e+05
  -1.602629e+05  -5.166920e+05
   6.577098e+05  -3.034424e+05
   4.181836e+05   2.956113e+05
  -5.748870e+05   5.919414e+05
  -1.245097e+06  -5.435505e+02
  -7.922045e+05  -1.188891e+06
   4.889574e+05  -1.824893e+06
   1.481828e+06  -1.032752e+06
   1.356507e+06   7.001249e+05
   3.269568e+05   1.844155e+06
  -6.843840e+05   1.377038e+06
  -9.616698e+05  -1.416192e+05
  -5.016864e+05  -1.209317e+06
   1.895881e+05  -1.000027e+06
   5.843759e+05  -1.082486e+05
   4.919234e+05   3.559428e+05
   1.606682e+05   1.215836e+05
   4.949775e+04  -9.249308e+04
   3.309195e+05   3.134661e+05
   5.951781e+05   9.821947e+05
   2.402427e+05   1.094966e+06
  -7.438533e+05   4.388825e+05
  -1.555754e+06  -3.904469e+05
  -1.357861e+06  -7.826855e+05
  -2.315628e+05  -7.188094e+05
   8.398207e+05  -4.987159e+05
   1.000977e+06  -2.450794e+05
   3.925565e+05   5.083110e+04
  -1.286765e+05   2.474851e+05
  -4.468007e+04   1.938767e+05
   2.594179e+05   5.904071e+04
   7.272607e+04   1.390065e+05
  -6.469618e+05   3.094064e+05
  -1.097315e+06   6.376629e+04
  -5.376609e+05  -7.099013e+05
   7.750061e+05  -1.307604e+06
   1.745432e+06  -9.173260e+05
   1.540953e+06   3.469851e+05
   3.956408e+05   1.444090e+06
  -7.174683e+05   1.493895e+06
  -1.065010e+06   6.533063e+05
  -7.001101e+05  -1.802246e+05
  -1.766771e+05  -3.701392e+05
   4.759777e+04  -9.995899e+04
  -8.809511e+04  -6.807994e+02
  -3.209475e+05  -3.693136e+05
  -2.982746e+05  -8.232869e+05
   1.371576e+05  -7.280332e+05
   7.175750e+05   5.692215e+04
   8.601328e+05   9.235471e+05
   2.278189e+05   1.078387e+06
  -7.543499e+05   3.476000e+05
  -1.147135e+06  -6.495729e+05
  -4.624503e+05  -1.117303e+06
   6.950881e+05  -7.833335e+05
   1.190528e+06  -7.867184e+03
   6.116815e+05   6.285265e+05
  -2.611317e+05   7.579258e+05
  -3.996113e+05   4.108274e+05
   2.306464e+05  -2.814383e+04
   6.679661e+05  -9.492338e+04
   1.846130e+05   3.188506e+05
  -8.109585e+05   7.618471e+05
  -1.294757e+06   6.232517e+05
  -8.318908e+05  -1.613594e+05
   3.810655e+04  -9.253312e+05
   5.437306e+05  -9.385286e+05
   4.680345e+05  -2.154773e+05
   1.106264e+05   4.862400e+05
  -2.152695e+05   4.901142e+05
  -3.823513e+05  -9.878071e+04
  -3.120868e+05  -5.831844e+05
   2.148591e+04  -4.770045e+05
   4.146165e+05   5.637001e+03
   5.217745e+05   2.797831e+05
   2.562621e+05   1.004103e+05
  -5.625039e+04  -1.798216e+05
  -7.986739e+04  -8.581849e+04
   8.247050e+04   3.574891e+05
   3.919211e+04   6.209413e+05
  -3.087549e+05   3.085405e+05
  -5.520714e+05  -3.342816e+05
  -2.651910e+05  -6.698165e+05
   3.900901e+05  -3.767335e+05
   7.382222e+05   2.256429e+05
   3.260243e+05   5.704674e+05
  -5.118512e+05   4.223445e+05
  -9.470337e+05  -2.397576e+03
  -5.371428e+05  -3.588833e+05
   2.807584e+05  -4.619106e+05
   6.625145e+05  -3.120953e+05
   2.840250e+05  -3.865873e+04
  -3.271472e+05   1.280041e+05
  -4.228433e+05   1.169234e+03
   1.219139e+05  -3.009986e+05
   7.092307e+05  -3.496226e+05
