
 $NMID
 id='ANONYMOUS ', fmtdat='(2E16.6)'
 volume=1.0
 tramp=1.0
 $END
  -5.547243e+07  -6.341257e+05
  -3.262934e+07  -3.513619e+07
   8.204400e+06  -3.747319e+07
   2.736834e+07  -1.356752e+07
   1.578181e+07   7.539043e+06
  -3.599903e+06   9.031885e+06
  -9.473341e+06  -1.635235e+06
  -2.291738e+06  -9.595415e+06
   6.303816e+06  -8.724682e+06
   9.391774e+06  -1.599660e+06
   6.715388e+06   6.084562e+06
   7.442923e+05   8.290843e+06
  -3.880046e+06   2.699458e+06
  -2.504012e+06  -5.110196e+06
   3.725065e+06  -6.115815e+06
   7.607722e+06   1.513765e+06
   4.129888e+06   1.000540e+07
  -3.886147e+06   1.142674e+07
  -9.962609e+06   5.673109e+06
  -1.063191e+07  -2.063551e+06
  -6.561178e+06  -7.449207e+06
  -6.402768e+05  -8.686408e+06
   3.122801e+06  -6.043829e+06
   2.167776e+06  -2.455641e+06
  -9.337446e+05  -1.739566e+06
  -3.929182e+05  -3.834289e+06
   5.007887e+06  -4.311608e+06
   9.244712e+06  -6.302891e+05
   6.870913e+06   3.941191e+06
   4.090806e+05   4.977582e+06
  -3.454519e+06   2.670942e+06
  -2.465066e+06   2.358700e+05
   2.684503e+05  -8.009464e+05
   1.906898e+06  -6.096028e+05
   2.124473e+06   1.120150e+06
   8.702429e+05   3.680411e+06
  -1.698513e+06   3.826326e+06
  -3.328560e+06  -4.199279e+03
  -1.822248e+06  -3.621126e+06
   8.210081e+05  -2.085220e+06
   4.930990e+05   2.214938e+06
  -2.310465e+06   2.143868e+06
  -2.288295e+06  -3.162894e+06
   2.589889e+06  -5.934349e+06
   6.981638e+06  -8.167827e+05
   4.962499e+06   6.943731e+06
  -2.057302e+06   8.367325e+06
  -7.307947e+06   2.286817e+06
  -6.619003e+06  -4.366624e+06
  -1.630003e+06  -5.776048e+06
   3.355549e+06  -2.488943e+06
   4.927653e+06   1.568861e+06
   2.176704e+06   3.372511e+06
  -2.422492e+06   2.047367e+06
  -4.366502e+06  -9.967286e+05
  -1.813283e+06  -2.688333e+06
   1.700434e+06  -1.304875e+06
   1.614681e+06   1.003358e+06
  -1.370267e+06   7.689101e+05
  -2.326773e+06  -1.901817e+06
   8.471375e+05  -3.421638e+06
   4.695705e+06  -1.721037e+06
   5.144922e+06   1.511575e+06
   2.152497e+06   3.948595e+06
  -1.744241e+06   5.091296e+06
  -4.752741e+06   4.689345e+06
  -5.955816e+06   1.733203e+06
  -4.487023e+06  -3.020162e+06
  -9.369725e+05  -5.938702e+06
   1.859524e+06  -4.515724e+06
   1.728376e+06  -1.017247e+06
   3.719542e+04   3.705196e+05
  -2.395955e+05  -9.449345e+05
   1.384815e+06  -1.845296e+06
   2.671205e+06  -4.065538e+05
   2.020452e+06   1.697615e+06
   1.559539e+05   1.991569e+06
  -1.369364e+06   2.578813e+05
  -1.575737e+06  -1.864518e+06
  -5.767996e+04  -2.753974e+06
   2.609805e+06  -1.640620e+06
   4.331616e+06   1.074194e+06
   3.164361e+06   3.634285e+06
  -3.523937e+04   4.153288e+06
  -2.267119e+06   2.664699e+06
  -2.223310e+06   1.063908e+06
  -1.775239e+06   5.880279e+05
  -2.781302e+06   4.046880e+05
  -4.102465e+06  -7.509439e+05
  -3.280819e+06  -2.622614e+06
  -1.210235e+05  -3.884413e+06
   2.994793e+06  -3.686077e+06
   3.904390e+06  -2.059739e+06
   2.535091e+06   3.276261e+05
   3.432614e+05   2.102312e+06
  -9.849023e+05   1.871970e+06
  -5.449169e+05  -9.654576e+03
   1.004358e+06  -1.254710e+06
   1.815963e+06  -3.854278e+05
   9.024972e+05   1.154047e+06
  -4.612240e+05   1.055557e+06
  -3.598507e+05  -3.630915e+05
   1.053378e+06  -5.745970e+05
   1.713144e+06   1.364792e+06
   4.514921e+05   3.354743e+06
  -1.659997e+06   3.100521e+06
  -2.977638e+06   8.588026e+05
  -3.005117e+06  -1.442626e+06
  -2.038625e+06  -2.546224e+06
  -4.102322e+05  -2.392306e+06
   1.142330e+06  -1.378961e+06
   1.474757e+06  -2.382949e+05
   4.644204e+05   4.195865e+04
  -3.362765e+05  -7.102993e+05
   4.116823e+05  -1.280705e+06
   1.836420e+06  -5.415106e+05
   1.929329e+06   8.740824e+05
   3.400753e+05   1.359293e+06
  -1.113195e+06   5.257723e+05
  -8.086273e+05  -4.277990e+05
   8.123093e+05  -4.370821e+05
   2.002162e+06   3.540544e+05
   1.568594e+06   1.264643e+06
  -2.623711e+05   1.798819e+06
  -2.159690e+06   1.521012e+06
  -2.604547e+06   2.480427e+05
  -1.149029e+06  -1.212503e+06
   8.866674e+05  -1.444621e+06
   1.508733e+06  -1.799390e+05
   2.051073e+05   1.043059e+06
  -1.440967e+06   7.018564e+05
  -1.615777e+06  -7.550604e+05
  -2.844869e+05  -1.557617e+06
   1.052083e+06  -8.823273e+05
   1.168249e+06   3.346228e+05
   1.976666e+05   7.456341e+05
  -7.715004e+05   4.039414e+04
  -7.040125e+05  -1.003360e+06
   5.359882e+05  -1.354876e+06
   1.896749e+06  -5.276868e+05
   1.932860e+06   9.860163e+05
   3.630837e+05   1.966656e+06
  -1.373970e+06   1.550724e+06
  -1.634072e+06   1.835571e+05
  -4.581332e+05  -8.256211e+05
   6.286578e+05  -7.475398e+05
   5.785911e+05  -7.807781e+04
  -1.221284e+05   3.012203e+05
  -4.279726e+05   1.652880e+05
  -5.939964e+04  -4.042315e+04
   4.429440e+05   1.292786e+05
   4.624400e+05   6.722767e+05
  -2.267530e+05   1.121892e+06
  -1.315065e+06   8.344696e+05
  -1.964972e+06  -3.969718e+05
  -1.385740e+06  -1.837685e+06
   2.006153e+05  -2.277143e+06
   1.512493e+06  -1.306940e+06
   1.561595e+06   1.339541e+05
   7.727236e+05   8.110337e+05
   2.993279e+05   5.494077e+05
   4.907335e+05   1.747409e+05
   6.277857e+05   3.179412e+05
   8.631129e+04   7.480561e+05
  -8.380052e+05   8.398837e+05
  -1.353559e+06   2.859419e+05
  -9.613969e+05  -6.678675e+05
   2.485959e+05  -1.338641e+06
   1.614749e+06  -9.876153e+05
   2.104318e+06   4.594001e+05
   1.048033e+06   1.982555e+06
  -9.831529e+05   2.227132e+06
  -2.416180e+06   9.459349e+05
  -2.194027e+06  -6.518234e+05
  -8.538822e+05  -1.253860e+06
   2.114884e+05  -8.460031e+05
   3.306016e+05  -4.497574e+05
   2.192240e+04  -7.255909e+05
   7.678623e+04  -1.270021e+06
   6.445303e+05  -1.238407e+06
   1.237792e+06  -3.069373e+05
   1.271822e+06   1.014684e+06
   5.331435e+05   1.784182e+06
  -5.789004e+05   1.357150e+06
  -1.207152e+06  -6.499757e+03
  -7.546785e+05  -1.222965e+06
   3.928434e+05  -1.314123e+06
   1.119305e+06  -3.469218e+05
   7.595353e+05   7.043805e+05
  -1.528882e+05   1.033954e+06
  -5.450869e+05   7.238651e+05
  -9.312742e+04   3.720414e+05
   4.191504e+05   3.080370e+05
   6.329271e+04   3.585800e+05
  -1.096419e+06   1.914269e+05
  -1.964905e+06  -3.228775e+05
  -1.524103e+06  -9.896214e+05
   6.346345e+04  -1.367786e+06
   1.529373e+06  -1.081113e+06
   1.733992e+06  -2.433281e+05
   7.700384e+05   4.979986e+05
  -2.625049e+05   5.508860e+05
  -4.891357e+05   1.625690e+04
  -3.689682e+04  -4.208846e+05
   4.063822e+05  -2.542402e+05
   4.601476e+05   3.208713e+05
   2.710455e+05   6.783450e+05
   1.188948e+05   4.546736e+05
   1.224569e+05  -7.113363e+04
   2.364817e+05  -2.565602e+05
   2.543188e+05   2.206548e+05
  -1.142481e+05   9.237142e+05
  -8.467821e+05   1.013692e+06
  -1.321115e+06   1.833425e+05
  -8.416406e+05  -8.641780e+05
   3.916782e+05  -1.103741e+06
   1.209919e+06  -3.487723e+05
   7.012017e+05   5.282571e+05
  -6.664878e+05   6.063708e+05
  -1.481111e+06  -1.001902e+05
  -9.084190e+05  -8.117143e+05
   4.791352e+05  -9.026840e+05
   1.394953e+06  -4.129779e+05
   1.129968e+06   1.946906e+05
   1.128693e+05   4.737264e+05
  -6.124839e+05   2.397071e+05
  -3.721912e+05  -2.877280e+05
   5.361000e+05  -5.146718e+05
   1.124085e+06   4.406188e+04
   6.748789e+05   1.101524e+06
  -5.084857e+05   1.630470e+06
  -1.378645e+06   8.744097e+05
  -1.194759e+06  -6.907760e+05
  -2.116744e+05  -1.679689e+06
   6.842760e+05  -1.205933e+06
   8.623403e+05   1.816529e+05
   3.893609e+05   1.118983e+06
  -2.288990e+05   8.911474e+05
  -5.361109e+05   6.783923e+04
  -4.189870e+05  -3.431754e+05
  -1.301674e+05  -1.157829e+05
  -5.387376e+04   8.037261e+04
  -3.006244e+05  -3.000890e+05
  -5.003575e+05  -9.162295e+05
  -1.564611e+05  -1.003048e+06
   7.061191e+05  -3.654725e+05
   1.387248e+06   4.242782e+05
   1.180901e+06   7.730606e+05
   1.749593e+05   6.625330e+05
  -7.726763e+05   4.100822e+05
  -9.132711e+05   1.710376e+05
  -3.617081e+05  -6.737574e+04
   1.241713e+05  -2.188038e+05
   6.311884e+04  -1.715524e+05
  -2.170010e+05  -6.095027e+04
  -6.407602e+04  -1.248501e+05
   5.834653e+05  -2.510939e+05
   9.945409e+05  -1.392315e+04
   4.726250e+05   6.619382e+05
  -7.451212e+05   1.152127e+06
  -1.624101e+06   7.633608e+05
  -1.390036e+06  -3.712659e+05
  -2.973503e+05  -1.319368e+06
   7.160836e+05  -1.322456e+06
   9.877933e+05  -5.511509e+05
   6.201703e+05   1.864740e+05
   1.489536e+05   3.395403e+05
  -3.454633e+04   9.193371e+04
   8.552788e+04   1.149042e+04
   2.693361e+05   3.523448e+05
   2.299906e+05   7.578652e+05
  -1.511758e+05   6.545007e+05
  -6.415379e+05  -7.409734e+04
  -7.430958e+05  -8.621882e+05
  -1.725357e+05  -9.830866e+05
   6.876219e+05  -2.906877e+05
   1.009855e+06   6.264165e+05
   3.765940e+05   1.028846e+06
  -6.583130e+05   6.850922e+05
  -1.080393e+06  -3.986642e+04
  -5.337648e+05  -5.993371e+05
   2.658294e+05  -6.830563e+05
   3.859473e+05  -3.594932e+05
  -1.991861e+05   1.508543e+04
  -6.043403e+05   5.696855e+04
  -1.565008e+05  -2.971791e+05
   7.668888e+05  -6.522232e+05
   1.208576e+06  -5.024298e+05
   7.575194e+05   1.871294e+05
  -7.267755e+04   8.390784e+05
  -5.400537e+05   8.314905e+05
  -4.400847e+05   1.841083e+05
  -8.248404e+04  -4.388461e+05
   2.125875e+05  -4.380741e+05
   3.379792e+05   9.765797e+04
   2.579660e+05   5.399624e+05
  -3.534544e+04   4.375934e+05
  -3.740218e+05  -1.893356e+04
  -4.648745e+05  -2.808024e+05
  -2.291318e+05  -1.076743e+05
   4.985244e+04   1.703728e+05
   7.303983e+04   9.535319e+04
  -6.980705e+04  -3.174287e+05
  -2.892072e+04  -5.677477e+05
   2.822967e+05  -2.801008e+05
   4.933776e+05   3.121647e+05
   2.259727e+05   6.108760e+05
  -3.630510e+05   3.265339e+05
  -6.614280e+05  -2.281511e+05
  -2.733999e+05  -5.244087e+05
   4.829822e+05  -3.615823e+05
   8.598879e+05   3.718710e+04
   4.728714e+05   3.464251e+05
  -2.716002e+05   4.125720e+05
  -6.127628e+05   2.629340e+05
  -2.655381e+05   2.587075e+04
   2.894420e+05  -1.067100e+05
   3.761230e+05   8.056394e+03
  -1.165784e+05   2.589799e+05
  -6.430878e+05   2.824438e+05
