
 $NMID
 id='ANONYMOUS ', fmtdat='(2E16.6)'
 volume=1.0
 tramp=1.0
 $END
   3.097434e+07   1.436656e+06
   1.897823e+07   1.743369e+07
  -2.730341e+06   2.005906e+07
  -1.458388e+07   1.022568e+07
  -1.020485e+07  -1.341719e+06
   6.129416e+05  -5.341552e+06
   5.932124e+06  -1.078924e+06
   3.153868e+06   5.253992e+06
  -2.553702e+06   6.989346e+06
  -5.690503e+06   2.434672e+06
  -4.387050e+06  -3.961790e+06
  -3.271420e+05  -5.805851e+06
   2.747344e+06  -1.317221e+06
   1.858474e+06   4.480315e+06
  -2.113977e+06   5.128957e+06
  -4.833393e+06  -1.639024e+05
  -3.026358e+06  -6.036240e+06
   1.993413e+06  -7.145366e+06
   5.941615e+06  -3.253713e+06
   5.956875e+06   1.795565e+06
   2.829770e+06   4.427210e+06
  -3.148927e+05   4.001741e+06
  -9.024342e+05   2.408940e+06
   8.158707e+05   1.952718e+06
   1.823400e+06   3.128484e+06
  -5.436463e+05   4.055308e+06
  -5.037544e+06   2.597454e+06
  -7.142123e+06  -8.439712e+05
  -4.199236e+06  -3.457602e+06
   1.093118e+06  -3.159100e+06
   3.608343e+06  -7.363751e+05
   1.578282e+06   1.401670e+06
  -1.987197e+06   1.630700e+06
  -3.327677e+06  -7.229633e+04
  -1.771468e+06  -2.479990e+06
   6.252449e+05  -3.584790e+06
   1.775962e+06  -1.993494e+06
   1.191903e+06   1.047804e+06
  -1.114587e+05   2.175680e+06
  -5.657562e+05  -7.582437e+04
   5.298320e+05  -2.756951e+06
   2.000754e+06  -1.954481e+06
   1.763603e+06   1.734783e+06
  -6.419390e+05   3.550136e+06
  -2.992670e+06   7.853076e+05
  -2.563567e+06  -3.560917e+06
   7.994365e+05  -4.571820e+06
   4.297829e+06  -1.269380e+06
   4.827663e+06   2.856961e+06
   1.812079e+06   4.206111e+06
  -2.310805e+06   2.348493e+06
  -4.156173e+06  -5.826924e+05
  -2.345848e+06  -2.225322e+06
   1.149438e+06  -1.624362e+06
   2.871826e+06   2.887528e+05
   1.457962e+06   1.501729e+06
  -9.749847e+05   8.665123e+05
  -1.465754e+06  -6.304465e+05
   2.440880e+05  -1.067173e+06
   1.627647e+06   5.558406e+04
   6.616746e+05   1.348359e+06
  -1.772106e+06   1.332335e+06
  -3.048253e+06  -1.113552e+05
  -1.654805e+06  -2.071196e+06
   1.501407e+06  -3.409411e+06
   4.133461e+06  -3.056991e+06
   4.493158e+06  -6.259421e+05
   2.627710e+06   2.637663e+06
   2.018519e+05   4.390000e+06
  -1.040042e+06   3.552700e+06
  -8.822076e+05   1.609293e+06
  -5.933901e+05   7.174199e+05
  -1.217290e+06   9.993842e+05
  -2.283569e+06   7.439881e+05
  -2.474895e+06  -8.757377e+05
  -1.227755e+06  -2.460586e+06
   6.868729e+05  -2.148012e+06
   1.918340e+06   5.419124e+04
   1.546164e+06   2.245226e+06
  -3.153798e+05   2.581758e+06
  -2.409276e+06   8.752259e+05
  -3.074484e+06  -1.479609e+06
  -1.738952e+06  -2.809276e+06
   3.378657e+05  -2.523292e+06
   1.381423e+06  -1.441909e+06
   1.179628e+06  -7.752060e+05
   1.186861e+06  -7.785146e+05
   2.351333e+06  -6.009874e+05
   3.560583e+06   5.331330e+05
   2.883683e+06   2.294948e+06
   5.376158e+04   3.513073e+06
  -2.940351e+06   3.226709e+06
  -3.809566e+06   1.439803e+06
  -2.170921e+06  -8.114457e+05
   2.404192e+05  -2.037580e+06
   1.309047e+06  -1.437282e+06
   4.388231e+05   1.845256e+05
  -1.089406e+06   1.021641e+06
  -1.551362e+06   2.363296e+05
  -5.683662e+05  -9.927031e+05
   6.077736e+05  -9.528130e+05
   5.958511e+05   3.089708e+05
  -5.706707e+05   9.498267e+05
  -1.566849e+06  -2.987086e+05
  -1.215391e+06  -2.434071e+06
   4.563024e+05  -3.274462e+06
   2.379443e+06  -1.842982e+06
   3.277821e+06   7.528017e+05
   2.488249e+06   2.570939e+06
   4.969355e+05   2.572632e+06
  -1.233608e+06   1.271542e+06
  -1.455251e+06   6.348570e+04
  -4.284471e+05  -5.592105e+04
   3.005594e+05   6.542607e+05
  -3.014377e+05   1.056184e+06
  -1.486144e+06   4.417020e+05
  -1.656611e+06  -6.548100e+05
  -3.877268e+05  -1.110103e+06
   9.865680e+05  -5.215328e+05
   9.028530e+05   4.008845e+05
  -6.520103e+05   6.667731e+05
  -2.092228e+06  -4.763144e+04
  -1.844806e+06  -1.225001e+06
   8.748210e+04  -1.956452e+06
   2.095920e+06  -1.573873e+06
   2.466627e+06  -2.240605e+05
   1.009412e+06   1.049237e+06
  -7.736221e+05   1.145935e+06
  -1.199780e+06   9.163572e+04
  -6.062167e+04  -8.560262e+05
   1.304462e+06  -5.691950e+05
   1.491524e+06   6.468719e+05
   3.984786e+05   1.432681e+06
  -8.564043e+05   9.752937e+05
  -1.136373e+06  -1.221902e+05
  -3.313586e+05  -6.297234e+05
   6.068913e+05  -5.903988e+04
   5.753897e+05   9.093815e+05
  -5.778649e+05   1.195235e+06
  -1.775266e+06   3.629328e+05
  -1.713849e+06  -9.970215e+05
  -2.762580e+05  -1.791941e+06
   1.241264e+06  -1.391030e+06
   1.487017e+06  -1.966065e+05
   4.775246e+05   7.395800e+05
  -5.623283e+05   7.249186e+05
  -6.405516e+05   4.073623e+04
   4.247948e+04  -4.658674e+05
   5.596356e+05  -3.263062e+05
   3.533521e+05   1.061082e+05
  -2.647955e+05   1.389638e+05
  -5.129740e+05  -4.260719e+05
   8.455834e+04  -1.002522e+06
   1.183117e+06  -7.822389e+05
   1.805971e+06   3.906847e+05
   1.219942e+06   1.725874e+06
  -2.581137e+05   2.147046e+06
  -1.475727e+06   1.309034e+06
  -1.595873e+06  -6.856217e+04
  -9.007566e+05  -9.194765e+05
  -3.107180e+05  -8.444625e+05
  -2.717731e+05  -3.650864e+05
  -3.770586e+05  -2.263642e+05
  -3.802789e+04  -5.624372e+05
   7.375656e+05  -7.980598e+05
   1.312148e+06  -3.371607e+05
   1.024483e+06   6.926746e+05
  -1.787696e+05   1.414925e+06
  -1.555968e+06   9.978107e+05
  -2.018767e+06  -4.549962e+05
  -1.023797e+06  -1.847048e+06
   8.198754e+05  -2.043203e+06
   2.163962e+06  -9.332345e+05
   2.114437e+06   5.025438e+05
   9.982959e+05   1.198045e+06
  -1.040180e+05   9.923832e+05
  -4.749554e+05   5.879529e+05
  -3.016866e+05   6.360253e+05
  -2.289499e+05   1.010937e+06
  -5.855876e+05   1.014351e+06
  -1.076445e+06   2.127774e+05
  -1.112482e+06  -9.996038e+05
  -4.180285e+05  -1.688787e+06
   6.067260e+05  -1.245470e+06
   1.144599e+06   1.054040e+04
   7.175190e+05   1.087882e+06
  -2.786915e+05   1.207493e+06
  -9.162521e+05   4.489219e+05
  -6.829003e+05  -4.470025e+05
   5.782070e+03  -8.392963e+05
   3.294148e+05  -6.986257e+05
   2.108590e+04  -4.311186e+05
  -3.395972e+05  -3.427409e+05
  -2.133908e+04  -3.528846e+05
   9.580987e+05  -1.752745e+05
   1.723686e+06   3.133618e+05
   1.391907e+06   8.991621e+05
   2.915411e+04   1.185345e+06
  -1.308558e+06   9.263365e+05
  -1.575987e+06   2.676570e+05
  -7.594196e+05  -3.237193e+05
   1.902519e+05  -4.308348e+05
   4.155737e+05  -7.122300e+04
  -2.460389e+04   2.891988e+05
  -4.397474e+05   1.886499e+05
  -3.968554e+05  -3.174955e+05
  -1.012695e+05  -6.693074e+05
   2.306048e+04  -4.287903e+05
  -1.364058e+05   1.472450e+05
  -3.323294e+05   3.320930e+05
  -2.548065e+05  -2.012747e+05
   2.027604e+05  -8.961038e+05
   8.169286e+05  -8.929870e+05
   1.086218e+06  -5.150301e+04
   6.070499e+05   8.309741e+05
  -3.973054e+05   8.982235e+05
  -1.048359e+06   1.659597e+05
  -6.124547e+05  -5.581792e+05
   6.130283e+05  -5.709923e+05
   1.442592e+06   7.742911e+04
   9.931322e+05   7.683932e+05
  -3.622779e+05   9.425730e+05
  -1.367497e+06   5.161746e+05
  -1.174322e+06  -1.347170e+05
  -1.535377e+05  -4.829786e+05
   5.717657e+05  -2.660184e+05
   3.005743e+05   2.400215e+05
  -5.768719e+05   3.958072e+05
  -1.032267e+06  -1.796875e+05
  -4.685652e+05  -1.100418e+06
   6.777151e+05  -1.448641e+06
   1.390473e+06  -6.700417e+05
   1.083404e+06   7.499043e+05
   1.065390e+05   1.621017e+06
  -7.049890e+05   1.177664e+06
  -8.377587e+05  -1.291366e+05
  -4.075879e+05  -1.069807e+06
   1.504535e+05  -9.037591e+05
   4.814393e+05  -9.102701e+04
   4.598011e+05   3.668435e+05
   2.035485e+05   1.502496e+05
   2.308440e+04  -1.038135e+05
   1.514000e+05   2.261551e+05
   3.897531e+05   8.585403e+05
   2.101820e+05   9.849445e+05
  -5.642390e+05   3.458437e+05
  -1.313094e+06  -4.660547e+05
  -1.185599e+06  -7.908743e+05
  -1.512846e+05  -6.143333e+05
   8.361550e+05  -3.362999e+05
   9.077774e+05  -1.525603e+05
   2.695845e+05   2.097288e+04
  -1.611656e+05   1.889313e+05
   3.153947e+04   2.199217e+05
   3.074609e+05   1.370426e+05
   1.067882e+04   1.240832e+05
  -6.778866e+05   1.543771e+05
  -9.208129e+05  -7.198139e+04
  -2.490803e+05  -6.161350e+05
   8.633625e+05  -9.682100e+05
   1.488656e+06  -5.541604e+05
   1.145058e+06   4.774093e+05
   1.604140e+05   1.273202e+06
  -7.150375e+05   1.169527e+06
  -9.511040e+05   3.878969e+05
  -5.831108e+05  -2.732156e+05
  -7.363716e+04  -3.216717e+05
   1.266174e+05  -1.153083e+04
  -5.094464e+04   6.156330e+04
  -2.872609e+05  -3.178849e+05
  -2.172775e+05  -7.288978e+05
   2.001876e+05  -5.811571e+05
   6.133907e+05   1.825484e+05
   5.760745e+05   9.204982e+05
  -1.451003e+04   9.116207e+05
  -7.186001e+05   1.232222e+05
  -8.670562e+05  -7.424003e+05
  -2.217571e+05  -9.773531e+05
   6.704345e+05  -5.234604e+05
   9.573204e+05   1.297586e+05
   4.109672e+05   5.189022e+05
  -2.758988e+05   5.306047e+05
  -2.968974e+05   2.989999e+05
   2.785298e+05   4.309402e+04
   5.942782e+05   1.468250e+03
   9.744225e+04   2.673888e+05
  -7.612212e+05   5.783602e+05
  -1.091053e+06   4.758824e+05
  -6.120129e+05  -1.396662e+05
   1.254401e+05  -7.446567e+05
   4.724504e+05  -7.154973e+05
   3.242001e+05  -8.526794e+04
  -3.911447e+03   4.515148e+05
  -2.405550e+05   3.446288e+05
  -3.086943e+05  -1.978634e+05
  -1.937349e+05  -5.251790e+05
   7.723746e+04  -3.287363e+05
   3.426284e+05   7.886035e+04
   3.935941e+05   2.314265e+05
   2.118623e+05   6.254337e+04
   1.163458e+03  -9.258094e+04
  -7.329006e+04   4.394706e+04
  -7.825986e+04   3.465175e+05
  -1.694604e+05   4.257829e+05
  -3.230469e+05   8.371139e+04
  -3.195813e+05  -4.167786e+05
  -1.864309e+04  -5.877067e+05
   4.018585e+05  -2.356433e+05
   5.424822e+05   3.099926e+05
   1.740359e+05   5.405794e+05
  -4.500914e+05   2.962334e+05
  -7.491453e+05  -1.267471e+05
  -3.941481e+05  -3.564526e+05
   2.767044e+05  -3.039422e+05
   5.618836e+05  -1.279383e+05
   1.819477e+05   1.523160e+03
  -3.668235e+05   2.471681e+03
  -3.804807e+05  -1.328467e+05
   2.095201e+05  -2.853803e+05
   7.488648e+05  -2.057799e+05
