
 $NMID
 id='ANONYMOUS ', fmtdat='(2E16.6)'
 volume=1.0
 tramp=1.0
 $END
  -2.279794e+07   1.035324e+06
  -1.613856e+07  -9.267290e+06
  -1.346475e+06  -1.427254e+07
   9.170151e+06  -1.092730e+07
   8.690001e+06  -2.213436e+06
   1.146455e+06   4.195360e+06
  -4.739759e+06   2.891231e+06
  -4.256802e+06  -3.470021e+06
   4.660205e+05  -6.998754e+06
   4.283387e+06  -3.514234e+06
   4.075147e+06   2.918824e+06
   7.182990e+05   5.123761e+06
  -2.327788e+06   1.072461e+06
  -2.127145e+06  -4.364535e+06
   1.098175e+06  -5.281577e+06
   4.011109e+06  -8.641183e+05
   3.346192e+06   4.484389e+06
  -6.454627e+05   6.018342e+06
  -4.334494e+06   3.016349e+06
  -4.545383e+06  -1.244489e+06
  -1.845114e+06  -3.173895e+06
   3.661756e+05  -2.295496e+06
  -2.301881e+05  -1.103416e+06
  -2.357366e+06  -1.817610e+06
  -2.632062e+06  -3.804120e+06
   6.193625e+05  -4.503912e+06
   5.184699e+06  -2.510605e+06
   6.835646e+06   8.835899e+05
   3.670579e+06   3.107981e+06
  -1.530284e+06   2.695451e+06
  -3.867144e+06   2.787381e+05
  -1.431722e+06  -2.069566e+06
   2.734989e+06  -2.289290e+06
   4.198612e+06   7.065459e+04
   1.979401e+06   3.089042e+06
  -9.841766e+05   3.864328e+06
  -1.749138e+06   1.514148e+06
  -4.466262e+05  -1.458125e+06
   7.535055e+05  -1.713019e+06
   4.976337e+05   9.668466e+05
  -7.612349e+05   3.244814e+06
  -1.836120e+06   2.205837e+06
  -1.832085e+06  -1.078590e+06
  -4.885351e+05  -2.844964e+06
   1.413745e+06  -1.117142e+06
   2.051016e+06   2.117871e+06
   1.160429e+05   3.345913e+06
  -3.195692e+06   1.327171e+06
  -4.680267e+06  -1.967916e+06
  -2.419494e+06  -3.674475e+06
   1.812369e+06  -2.678686e+06
   4.188251e+06  -1.874222e+05
   2.804719e+06   1.674452e+06
  -5.283570e+05   1.667812e+06
  -2.463325e+06   2.663551e+05
  -1.553994e+06  -9.590606e+05
   6.503003e+05  -8.299241e+05
   1.568564e+06   3.785754e+05
   3.246488e+05   1.299095e+06
  -1.454236e+06   8.936024e+05
  -1.494385e+06  -4.903261e+05
   5.129894e+05  -1.434232e+06
   2.381904e+06  -7.763294e+05
   1.760687e+06   1.257745e+06
  -1.188268e+06   3.077853e+06
  -3.888498e+06   2.965419e+06
  -4.136196e+06   6.134606e+05
  -2.264383e+06  -2.421234e+06
  -3.097754e+05  -4.026175e+06
   4.288727e+05  -3.500032e+06
   4.318135e+05  -2.073531e+06
   8.161298e+05  -1.300517e+06
   1.851403e+06  -1.207981e+06
   2.775682e+06  -5.284791e+05
   2.652501e+06   1.271186e+06
   1.198975e+06   2.860512e+06
  -9.068909e+05   2.435683e+06
  -2.302741e+06  -1.987961e+04
  -1.853311e+06  -2.435493e+06
   2.623808e+05  -2.727091e+06
   2.418981e+06  -8.310195e+05
   2.894958e+06   1.478419e+06
   1.514143e+06   2.496684e+06
  -2.552034e+05   2.036323e+06
  -9.636501e+05   1.151705e+06
  -7.434890e+05   8.222083e+05
  -9.503897e+05   1.031853e+06
  -2.287937e+06   9.492932e+05
  -3.644572e+06  -1.491903e+05
  -3.141826e+06  -2.058517e+06
  -3.533103e+05  -3.611278e+06
   2.839847e+06  -3.541737e+06
   3.920038e+06  -1.630950e+06
   2.248124e+06   8.806938e+05
  -3.241562e+05   2.182119e+06
  -1.412558e+06   1.475412e+06
  -4.400509e+05  -2.332355e+05
   1.113371e+06  -1.095788e+06
   1.528901e+06  -3.320881e+05
   5.567766e+05   9.426191e+05
  -6.276931e+05   1.032820e+06
  -7.692084e+05  -2.554294e+05
   3.191027e+05  -1.236232e+06
   1.651762e+06  -2.837341e+05
   1.864875e+06   2.108685e+06
   3.328451e+05   3.641168e+06
  -2.132122e+06   2.629516e+06
  -3.714729e+06  -2.078328e+05
  -3.107935e+06  -2.545977e+06
  -8.087791e+05  -2.798741e+06
   1.248083e+06  -1.434720e+06
   1.549224e+06  -1.274662e+05
   4.500356e+05   2.597219e+04
  -3.672802e+05  -6.513661e+05
   1.791923e+05  -1.065424e+06
   1.404447e+06  -5.683180e+05
   1.721854e+06   4.557441e+05
   5.387126e+05   1.048272e+06
  -9.577629e+05   6.475733e+05
  -1.046695e+06  -3.380986e+05
   5.731434e+05  -8.767688e+05
   2.295174e+06  -2.727038e+05
   2.216075e+06   1.131903e+06
   1.607943e+05   2.180612e+06
  -2.081173e+06   1.908109e+06
  -2.570910e+06   4.584071e+05
  -1.121367e+06  -9.628742e+05
   6.758230e+05  -1.173107e+06
   1.146029e+06  -1.715549e+05
   8.103393e+04   8.323288e+05
  -1.290260e+06   6.739508e+05
  -1.608661e+06  -5.109588e+05
  -6.095157e+05  -1.448762e+06
   7.458920e+05  -1.166888e+06
   1.218236e+06  -6.482185e+04
   4.707113e+05   5.957955e+05
  -5.766493e+05   1.258757e+05
  -6.462076e+05  -8.856032e+05
   5.305880e+05  -1.269736e+06
   1.823481e+06  -4.822367e+05
   1.839850e+06   9.188133e+05
   4.248195e+05   1.825157e+06
  -1.148013e+06   1.540790e+06
  -1.515805e+06   3.548201e+05
  -5.891500e+05  -7.126136e+05
   5.089347e+05  -8.200056e+05
   7.102942e+05  -8.555035e+04
   2.935313e+04   5.761144e+05
  -6.303465e+05   4.705807e+05
  -5.164898e+05  -1.122015e+05
   1.970262e+05  -2.910715e+05
   6.147314e+05   3.050698e+05
   6.349560e+04   1.035754e+06
  -1.143577e+06   9.286191e+05
  -1.909823e+06  -2.506783e+05
  -1.399735e+06  -1.694842e+06
   1.037566e+05  -2.275858e+06
   1.449577e+06  -1.544389e+06
   1.736871e+06  -1.020616e+05
   1.108564e+06   9.517512e+05
   4.166946e+05   1.005941e+06
   2.315269e+05   4.488158e+05
   3.192092e+05   1.687335e+05
   7.329281e+04   5.219556e+05
  -6.760589e+05   9.097392e+05
  -1.363423e+06   5.066971e+05
  -1.194154e+06  -6.615130e+05
   3.154813e+04  -1.572172e+06
   1.556629e+06  -1.221722e+06
   2.176431e+06   3.011245e+05
   1.260734e+06   1.833546e+06
  -6.229100e+05   2.193553e+06
  -2.131977e+06   1.197750e+06
  -2.285398e+06  -2.809147e+05
  -1.245772e+06  -1.172133e+06
  -2.544240e+04  -1.139709e+06
   5.189593e+05  -7.350718e+05
   3.858255e+05  -6.722986e+05
   2.175397e+05  -9.959052e+05
   5.098949e+05  -1.048126e+06
   1.067911e+06  -2.878593e+05
   1.219552e+06   9.652295e+05
   5.556241e+05   1.735657e+06
  -5.492441e+05   1.346528e+06
  -1.204441e+06   9.222280e+04
  -8.558097e+05  -1.045453e+06
   1.390975e+05  -1.278246e+06
   8.567724e+05  -6.112510e+05
   7.432273e+05   3.070504e+05
   1.347434e+05   8.197599e+05
  -1.973569e+05   7.711052e+05
   4.783927e+04   4.907212e+05
   3.629464e+05   3.517261e+05
   3.789110e+04   3.751243e+05
  -9.547831e+05   2.705962e+05
  -1.779162e+06  -1.731965e+05
  -1.522921e+06  -7.994523e+05
  -1.803188e+05  -1.193776e+06
   1.226579e+06  -1.050547e+06
   1.601652e+06  -4.436589e+05
   8.418688e+05   2.033800e+05
  -1.335114e+05   4.295696e+05
  -4.089291e+05   1.387506e+05
   2.524217e+04  -2.567557e+05
   4.690270e+05  -2.156587e+05
   4.290081e+05   3.027044e+05
   9.838804e+04   7.057704e+05
  -4.579953e+04   4.515303e+05
   1.392756e+05  -2.037374e+05
   3.683537e+05  -4.198556e+05
   2.934679e+05   1.851108e+05
  -1.730148e+05   9.708368e+05
  -7.834475e+05   9.841937e+05
  -1.062860e+06   9.959690e+04
  -6.291800e+05  -8.228400e+05
   3.462775e+05  -9.145496e+05
   1.042264e+06  -1.975345e+05
   6.720012e+05   5.559765e+05
  -5.831953e+05   6.555075e+05
  -1.541514e+06   5.999826e+04
  -1.175105e+06  -7.159883e+05
   2.523934e+05  -1.064265e+06
   1.410995e+06  -7.254388e+05
   1.294050e+06   1.098890e+04
   2.269443e+05   5.091007e+05
  -5.727745e+05   3.498347e+05
  -3.145506e+05  -2.099296e+05
   6.010013e+05  -4.276931e+05
   1.086684e+06   1.559101e+05
   5.169501e+05   1.138763e+06
  -6.666601e+05   1.541579e+06
  -1.437246e+06   7.612948e+05
  -1.186083e+06  -7.309176e+05
  -2.195068e+05  -1.707274e+06
   6.578789e+05  -1.318916e+06
   9.021856e+05   3.905220e+04
   5.446988e+05   1.091590e+06
  -4.517479e+04   9.910233e+05
  -4.860837e+05   1.521500e+05
  -5.454396e+05  -3.623361e+05
  -2.637492e+05  -1.577570e+05
  -2.083394e+03   1.237118e+05
  -1.200529e+05  -1.972918e+05
  -4.509521e+05  -8.619924e+05
  -3.396244e+05  -1.031612e+06
   5.139994e+05  -4.156845e+05
   1.422635e+06   3.974437e+05
   1.349360e+06   7.483383e+05
   2.094092e+05   6.258710e+05
  -8.946359e+05   4.071015e+05
  -9.593686e+05   2.398854e+05
  -2.525976e+05   2.238167e+04
   1.714127e+05  -2.050113e+05
  -9.461207e+04  -2.543398e+05
  -3.816324e+05  -1.518309e+05
  -6.297745e+01  -1.321632e+05
   7.546326e+05  -1.869859e+05
   9.648297e+05   2.904892e+04
   2.292892e+05   6.192744e+05
  -8.887195e+05   1.041559e+06
  -1.490746e+06   6.440714e+05
  -1.170170e+06  -4.521671e+05
  -2.316410e+05  -1.333805e+06
   6.600019e+05  -1.258020e+06
   9.707491e+05  -4.351559e+05
   6.360755e+05   2.770018e+05
   7.664148e+04   3.313432e+05
  -1.742078e+05  -1.045536e+04
   3.454930e+04  -1.021451e+05
   3.458318e+05   3.006603e+05
   2.952529e+05   7.511697e+05
  -1.824911e+05   6.116354e+05
  -6.638633e+05  -1.860464e+05
  -6.325640e+05  -9.608237e+05
   1.118249e+04  -9.501938e+05
   7.737808e+05  -1.271785e+05
   9.392450e+05   7.670996e+05
   2.626488e+05   1.007758e+06
  -6.771526e+05   5.556091e+05
  -9.883875e+05  -8.923837e+04
  -4.374617e+05  -4.854162e+05
   2.516956e+05  -5.308558e+05
   2.536086e+05  -3.231124e+05
  -3.370365e+05  -4.548495e+04
  -6.345840e+05   2.839113e+04
  -1.043591e+05  -2.656001e+05
   7.622856e+05  -6.603925e+05
   1.078697e+06  -6.010974e+05
   6.087985e+05   7.305223e+04
  -8.839983e+04   7.715597e+05
  -4.127161e+05   7.633914e+05
  -2.909961e+05   7.976013e+04
  -6.254717e+02  -4.908820e+05
   2.384717e+05  -3.527840e+05
   3.373643e+05   2.268198e+05
   2.293588e+05   5.401975e+05
  -7.028273e+04   3.139836e+05
  -3.620024e+05  -7.864305e+04
  -4.141204e+05  -1.912224e+05
  -2.262562e+05  -2.837115e+04
  -1.429742e+04   6.635256e+04
   7.517635e+04  -1.133791e+05
   1.153691e+05  -3.917020e+05
   2.270772e+05  -4.122627e+05
   3.563600e+05  -3.596580e+04
   3.076031e+05   4.626446e+05
  -1.405219e+04   6.196091e+05
  -4.265475e+05   2.515470e+05
  -5.608458e+05  -3.177708e+05
  -1.945495e+05  -5.717163e+05
   4.423365e+05  -3.321898e+05
   7.695421e+05   1.050716e+05
   4.229440e+05   3.508867e+05
  -2.712969e+05   3.058635e+05
  -5.700749e+05   1.319009e+05
  -1.599655e+05   3.743724e+03
   4.267454e+05   8.231768e+03
   4.226842e+05   1.609151e+05
  -2.386015e+05   3.370256e+05
  -8.308310e+05   2.572643e+05
