
 $NMID
 id='ANONYMOUS ', fmtdat='(2E16.6)'
 volume=1.0
 tramp=1.0
 $END
   4.234939e+07   1.429084e+06
   2.549850e+07   2.488684e+07
  -4.670638e+06   2.779041e+07
  -2.020585e+07   1.264062e+07
  -1.318150e+07  -3.219027e+06
   1.520050e+06  -7.114000e+06
   7.733871e+06  -5.029137e+05
   3.376764e+06   7.181061e+06
  -3.913482e+06   8.473698e+06
  -7.513738e+06   2.573801e+06
  -5.693101e+06  -5.115607e+06
  -5.226358e+05  -7.350970e+06
   3.468818e+06  -1.910083e+06
   2.351590e+06   5.301166e+06
  -2.828186e+06   6.157695e+06
  -6.296693e+06  -5.473662e+05
  -3.789343e+06  -8.007492e+06
   2.792669e+06  -9.381157e+06
   7.930190e+06  -4.414109e+06
   8.147350e+06   2.133772e+06
   4.287889e+06   5.938234e+06
  -1.177584e+05   5.906441e+06
  -1.674323e+06   3.750196e+06
   1.245554e+05   2.330012e+06
   1.899437e+06   3.173109e+06
  -3.169855e+05   4.610669e+06
  -5.766698e+06   3.510331e+06
  -8.805811e+06  -5.103026e+05
  -5.589050e+06  -4.090401e+06
   8.273004e+05  -4.159755e+06
   4.114329e+06  -1.422497e+06
   2.093974e+06   1.148901e+06
  -1.774026e+06   1.686817e+06
  -3.434980e+06   1.627946e+05
  -2.178109e+06  -2.454285e+06
   2.633918e+05  -4.168376e+06
   2.019594e+06  -2.816990e+06
   1.986276e+06   9.288694e+05
   4.120584e+05   2.924451e+06
  -7.509310e+05   5.141104e+05
   2.865405e+05  -3.033243e+06
   2.362731e+06  -2.312880e+06
   2.168203e+06   2.373172e+06
  -1.270183e+06   4.712483e+06
  -4.529804e+06   8.863236e+05
  -3.596587e+06  -5.027660e+06
   1.269316e+06  -6.287130e+06
   5.765079e+06  -1.742689e+06
   6.044870e+06   3.668240e+06
   2.052894e+06   5.238080e+06
  -2.916034e+06   2.744255e+06
  -4.974427e+06  -9.061554e+05
  -2.654069e+06  -2.841830e+06
   1.657623e+06  -1.975371e+06
   3.701278e+06   5.158026e+05
   1.771767e+06   2.039213e+06
  -1.315074e+06   1.115767e+06
  -1.724633e+06  -8.117737e+05
   5.750756e+05  -1.128064e+06
   2.035076e+06   5.663711e+05
   3.271240e+05   2.091542e+06
  -2.833429e+06   1.614228e+06
  -4.059786e+06  -5.112108e+05
  -2.033139e+06  -2.885184e+06
   1.776290e+06  -4.391587e+06
   4.904094e+06  -3.997295e+06
   5.569705e+06  -1.054068e+06
   3.554077e+06   3.129630e+06
   4.624707e+05   5.474201e+06
  -1.393902e+06   4.343458e+06
  -1.220322e+06   1.681373e+06
  -5.042646e+05   5.371383e+05
  -9.822897e+05   1.165486e+06
  -2.378707e+06   1.195732e+06
  -2.921282e+06  -6.255094e+05
  -1.665864e+06  -2.609063e+06
   5.283340e+05  -2.440104e+06
   2.053270e+06  -5.325933e+04
   1.812094e+06   2.453367e+06
  -2.320897e+05   3.018228e+06
  -2.820562e+06   1.240069e+06
  -3.897878e+06  -1.568871e+06
  -2.409874e+06  -3.452690e+06
   2.986736e+05  -3.354984e+06
   1.831854e+06  -1.996341e+06
   1.638518e+06  -9.680617e+05
   1.513796e+06  -8.453216e+05
   2.807743e+06  -6.547912e+05
   4.238424e+06   6.407860e+05
   3.439483e+06   2.697946e+06
   1.136838e+05   4.133978e+06
  -3.359905e+06   3.861011e+06
  -4.390105e+06   1.864462e+06
  -2.607261e+06  -7.778588e+05
   9.254019e+04  -2.366355e+06
   1.401887e+06  -1.788599e+06
   5.369572e+05   1.594538e+05
  -1.218081e+06   1.249584e+06
  -1.852096e+06   3.259883e+05
  -7.533046e+05  -1.181578e+06
   6.469179e+05  -1.130125e+06
   6.202322e+05   3.593018e+05
  -7.726174e+05   9.846875e+05
  -1.825987e+06  -6.232759e+05
  -1.196514e+06  -3.023643e+06
   8.182625e+05  -3.696704e+06
   2.861567e+06  -1.859693e+06
   3.684204e+06   1.014736e+06
   2.759397e+06   2.909085e+06
   5.771128e+05   2.895135e+06
  -1.377680e+06   1.503777e+06
  -1.676902e+06   1.373209e+05
  -5.024508e+05  -5.592476e+04
   3.609756e+05   7.632231e+05
  -3.679435e+05   1.275403e+06
  -1.798337e+06   5.456830e+05
  -1.979892e+06  -7.972992e+05
  -4.402930e+05  -1.337047e+06
   1.160819e+06  -6.080821e+05
   1.013097e+06   4.561034e+05
  -7.823336e+05   7.057851e+05
  -2.371740e+06  -1.157663e+05
  -2.052795e+06  -1.392456e+06
   1.252220e+05  -2.199433e+06
   2.404307e+06  -1.813224e+06
   2.866067e+06  -2.891121e+05
   1.206155e+06   1.239599e+06
  -9.102240e+05   1.404312e+06
  -1.462093e+06   1.386609e+05
  -1.163491e+05  -1.034971e+06
   1.529827e+06  -7.020661e+05
   1.751062e+06   7.573150e+05
   4.396905e+05   1.672021e+06
  -1.024341e+06   1.099682e+06
  -1.310500e+06  -1.868021e+05
  -3.482187e+05  -7.485217e+05
   7.407784e+05  -6.631371e+04
   7.039442e+05   1.065171e+06
  -6.410141e+05   1.422354e+06
  -2.069030e+06   4.795224e+05
  -2.038130e+06  -1.125291e+06
  -3.582510e+05  -2.102523e+06
   1.447714e+06  -1.652034e+06
   1.744331e+06  -2.365580e+05
   5.494753e+05   8.663657e+05
  -6.555692e+05   8.429268e+05
  -7.173804e+05   6.510641e+04
   6.368452e+04  -4.877963e+05
   5.997447e+05  -3.373298e+05
   3.257339e+05   9.567710e+04
  -3.482454e+05   8.530899e+04
  -5.758771e+05  -5.511152e+05
   1.273221e+05  -1.182529e+06
   1.386482e+06  -9.231204e+05
   2.120508e+06   4.325918e+05
   1.463072e+06   2.000307e+06
  -2.583441e+05   2.503243e+06
  -1.688783e+06   1.517174e+06
  -1.821377e+06  -7.853999e+04
  -1.009965e+06  -1.012953e+06
  -3.672512e+05  -8.834377e+05
  -3.795517e+05  -3.663761e+05
  -5.034545e+05  -2.848707e+05
  -6.051021e+04  -6.974720e+05
   8.662255e+05  -9.342216e+05
   1.513026e+06  -3.864319e+05
   1.166231e+06   7.760347e+05
  -2.079516e+05   1.603545e+06
  -1.790793e+06   1.158310e+06
  -2.345083e+06  -5.024549e+05
  -1.199618e+06  -2.145956e+06
   9.663091e+05  -2.401840e+06
   2.542683e+06  -1.094336e+06
   2.451344e+06   5.958094e+05
   1.117686e+06   1.376800e+06
  -1.360478e+05   1.097484e+06
  -4.963387e+05   6.436164e+05
  -2.627615e+05   7.621008e+05
  -2.130521e+05   1.236618e+06
  -6.802977e+05   1.231616e+06
  -1.278873e+06   2.797654e+05
  -1.331424e+06  -1.141144e+06
  -5.287835e+05  -1.961145e+06
   6.762690e+05  -1.467025e+06
   1.330680e+06  -6.873973e+02
   8.434602e+05   1.278308e+06
  -3.397323e+05   1.416345e+06
  -1.101142e+06   4.937469e+05
  -8.058557e+05  -5.780286e+05
   4.120559e+04  -1.014893e+06
   4.305793e+05  -8.088917e+05
   3.850647e+04  -4.773145e+05
  -4.161767e+05  -3.811152e+05
  -3.998727e+04  -4.069944e+05
   1.136152e+06  -2.141067e+05
   2.048153e+06   3.468938e+05
   1.642260e+06   1.043478e+06
   1.790717e+04   1.408901e+06
  -1.554869e+06   1.116856e+06
  -1.848674e+06   3.153530e+05
  -8.751030e+05  -4.115931e+05
   2.354534e+05  -5.287176e+05
   4.956752e+05  -6.991253e+04
  -9.857351e+03   3.697716e+05
  -4.941765e+05   2.402436e+05
  -4.765057e+05  -3.617415e+05
  -1.707868e+05  -7.719791e+05
  -1.741996e+04  -5.016000e+05
  -1.499004e+05   1.495540e+05
  -3.499308e+05   3.650897e+05
  -2.941913e+05  -2.337445e+05
   1.986641e+05  -1.039614e+06
   9.377930e+05  -1.066670e+06
   1.313173e+06  -1.039955e+05
   7.704107e+05   9.596413e+05
  -4.475697e+05   1.092235e+06
  -1.248807e+06   2.503973e+05
  -7.340793e+05  -6.266788e+05
   7.124274e+05  -6.709895e+05
   1.666418e+06   7.971638e+04
   1.123808e+06   8.813772e+05
  -4.371008e+05   1.072652e+06
  -1.569349e+06   5.782754e+05
  -1.335583e+06  -1.575860e+05
  -1.703307e+05  -5.492303e+05
   6.639372e+05  -3.035453e+05
   3.666187e+05   2.864369e+05
  -6.480068e+05   4.941421e+05
  -1.213944e+06  -1.584651e+05
  -6.071476e+05  -1.260844e+06
   7.172070e+05  -1.722792e+06
   1.587756e+06  -8.412751e+05
   1.283279e+06   8.336016e+05
   1.686107e+05   1.876630e+06
  -7.904665e+05   1.367197e+06
  -9.686530e+05  -1.538909e+05
  -4.736196e+05  -1.236324e+06
   1.843080e+05  -1.033800e+06
   5.662341e+05  -1.023913e+05
   5.205689e+05   4.086056e+05
   2.152567e+05   1.593884e+05
   3.350561e+04  -1.123530e+05
   2.165684e+05   2.807077e+05
   4.865537e+05   9.984460e+05
   2.368331e+05   1.131856e+06
  -6.833029e+05   4.062820e+05
  -1.532988e+06  -5.096524e+05
  -1.368009e+06  -8.891979e+05
  -1.862257e+05  -7.169829e+05
   9.390986e+05  -4.166785e+05
   1.041647e+06  -1.901576e+05
   3.344721e+05   3.543697e+04
  -1.729375e+05   2.274444e+05
   1.306698e+04   2.370519e+05
   3.302625e+05   1.312833e+05
   2.841885e+04   1.433242e+05
  -7.512986e+05   2.130086e+05
  -1.079111e+06  -4.965367e+04
  -3.541055e+05  -7.203885e+05
   9.497548e+05  -1.173450e+06
   1.742781e+06  -7.084281e+05
   1.388920e+06   5.093203e+05
   2.355702e+05   1.474001e+06
  -8.101362e+05   1.392316e+06
  -1.099732e+06   5.004218e+05
  -6.836986e+05  -2.834894e+05
  -1.086854e+05  -3.744115e+05
   1.207866e+05  -3.843880e+04
  -6.626400e+04   5.031599e+04
  -3.275519e+05  -3.708641e+05
  -2.603977e+05  -8.421119e+05
   2.107519e+05  -6.901134e+05
   7.152587e+05   1.729214e+05
   7.185095e+05   1.036064e+06
   4.442569e+04   1.068862e+06
  -8.170612e+05   1.964574e+05
  -1.044590e+06  -8.120727e+05
  -3.075765e+05  -1.135636e+06
   7.625620e+05  -6.532090e+05
   1.135472e+06   1.151811e+05
   5.101644e+05   6.151386e+05
  -3.102927e+05   6.544217e+05
  -3.630772e+05   3.617324e+05
   2.988840e+05   2.887455e+04
   6.855841e+05  -2.101205e+04
   1.307486e+05   3.149340e+05
  -8.696720e+05   6.924762e+05
  -1.279627e+06   5.636300e+05
  -7.434897e+05  -1.689403e+05
   1.224350e+05  -8.828526e+05
   5.547522e+05  -8.573800e+05
   4.048468e+05  -1.271341e+05
   2.478594e+04   5.159083e+05
  -2.658580e+05   4.245366e+05
  -3.661035e+05  -1.961422e+05
  -2.457537e+05  -6.055247e+05
   7.501304e+04  -4.089915e+05
   4.036493e+05   7.047864e+04
   4.732087e+05   2.760107e+05
   2.478736e+05   8.223862e+04
  -1.266627e+04  -1.286919e+05
  -8.134187e+04   1.244924e+04
  -4.425767e+04   3.926475e+05
  -1.366790e+05   5.330263e+05
  -3.614338e+05   1.549619e+05
  -4.213237e+05  -4.482171e+05
  -8.528310e+04  -6.837845e+05
   4.490702e+05  -3.007364e+05
   6.602485e+05   3.287280e+05
   2.335845e+05   6.153525e+05
  -5.233067e+05   3.625429e+05
  -8.931504e+05  -1.139187e+05
  -4.782357e+05  -4.030314e+05
   3.143681e+05  -3.821049e+05
   6.595024e+05  -1.898172e+05
   2.324765e+05  -6.610604e+03
  -4.008919e+05   3.713547e+04
  -4.387271e+05  -1.133613e+05
   2.109143e+05  -3.238298e+05
   8.286258e+05  -2.674046e+05
