
 $NMID
 id='ANONYMOUS ', fmtdat='(2E16.6)'
 volume=1.0
 tramp=1.0
 $END
   2.474554e+07  -1.048684e+06
   1.741084e+07   1.100906e+07
   8.102397e+05   1.596251e+07
  -1.058893e+07   1.110056e+07
  -9.381678e+06   1.370421e+06
  -7.800600e+05  -4.639977e+06
   5.214263e+06  -2.486941e+06
   4.090651e+06   4.041231e+06
  -1.063611e+06   7.135608e+06
  -4.739772e+06   3.307261e+06
  -4.174821e+06  -3.152685e+06
  -6.204243e+05  -5.274955e+06
   2.385101e+06  -1.135211e+06
   1.985855e+06   4.390439e+06
  -1.420213e+06   5.271415e+06
  -4.284321e+06   6.408078e+05
  -3.335280e+06  -4.881304e+06
   9.212733e+05  -6.351146e+06
   4.679638e+06  -3.152018e+06
   4.867982e+06   1.264311e+06
   2.155925e+06   3.345111e+06
  -1.836861e+05   2.664913e+06
   8.756289e+04   1.539956e+06
   1.936827e+06   2.038585e+06
   2.261901e+06   3.716916e+06
  -7.093477e+05   4.310581e+06
  -5.098109e+06   2.403197e+06
  -6.793076e+06  -9.221381e+05
  -3.744143e+06  -3.137888e+06
   1.383582e+06  -2.697879e+06
   3.697984e+06  -3.034310e+05
   1.339795e+06   1.879282e+06
  -2.623103e+06   1.969974e+06
  -3.925861e+06  -2.326968e+05
  -1.784146e+06  -2.952024e+06
   9.732971e+05  -3.687055e+06
   1.698783e+06  -1.586599e+06
   5.537803e+05   1.258280e+06
  -5.567156e+05   1.715328e+06
  -3.886279e+05  -7.360959e+05
   7.979417e+05  -3.041163e+06
   1.910839e+06  -2.104750e+06
   1.851025e+06   1.256774e+06
   2.504974e+05   3.113362e+06
  -1.829353e+06   1.185124e+06
  -2.283376e+06  -2.404211e+06
   1.122567e+04  -3.700557e+06
   3.440334e+06  -1.376135e+06
   4.722090e+06   2.203705e+06
   2.245994e+06   3.855062e+06
  -1.983762e+06   2.592814e+06
  -4.212743e+06  -6.531568e+04
  -2.694390e+06  -1.879321e+06
   6.994855e+05  -1.701243e+06
   2.596493e+06  -1.419781e+05
   1.560153e+06   1.111308e+06
  -7.262519e+05   8.572461e+05
  -1.546140e+06  -4.685429e+05
  -1.376095e+05  -1.296812e+06
   1.599827e+06  -6.513785e+05
   1.366424e+06   8.098076e+05
  -8.418040e+05   1.528674e+06
  -2.623574e+06   5.931750e+05
  -1.785859e+06  -1.474447e+06
   1.254169e+06  -3.131674e+06
   3.924807e+06  -2.914816e+06
   4.169868e+06  -5.878498e+05
   2.308920e+06   2.429490e+06
   2.627329e+05   4.073538e+06
  -6.161739e+05   3.528048e+06
  -6.208647e+05   1.977508e+06
  -8.391224e+05   1.101207e+06
  -1.712745e+06   1.037109e+06
  -2.596974e+06   4.745769e+05
  -2.505198e+06  -1.215360e+06
  -1.100955e+06  -2.735351e+06
   9.081861e+05  -2.292332e+06
   2.179875e+06   1.047945e+05
   1.695500e+06   2.416011e+06
  -3.270802e+05   2.655053e+06
  -2.388294e+06   7.940881e+05
  -2.875159e+06  -1.478331e+06
  -1.546494e+06  -2.532437e+06
   2.449897e+05  -2.130785e+06
   1.034458e+06  -1.239340e+06
   8.562225e+05  -8.379646e+05
   1.038299e+06  -9.685566e+05
   2.323634e+06  -8.248419e+05
   3.612665e+06   3.031243e+05
   3.030480e+06   2.161609e+06
   2.117361e+05   3.574357e+06
  -2.910557e+06   3.383480e+06
  -3.882021e+06   1.490896e+06
  -2.176272e+06  -8.922726e+05
   3.471346e+05  -2.100821e+06
   1.392878e+06  -1.413056e+06
   4.251545e+05   2.237189e+05
  -1.115053e+06   1.043421e+06
  -1.528166e+06   2.857746e+05
  -5.446213e+05  -9.475338e+05
   6.373243e+05  -9.883667e+05
   7.190635e+05   2.946275e+05
  -4.253137e+05   1.173663e+06
  -1.678068e+06   1.058486e+05
  -1.687651e+06  -2.258787e+06
  -4.178818e+04  -3.596174e+06
   2.290441e+06  -2.398601e+06
   3.615290e+06   4.421298e+05
   2.878593e+06   2.632717e+06
   6.543711e+05   2.751233e+06
  -1.266584e+06   1.354253e+06
  -1.513657e+06   7.659712e+04
  -4.416338e+05  -4.205826e+04
   3.369337e+05   6.552404e+05
  -2.219397e+05   1.059126e+06
  -1.426201e+06   5.191830e+05
  -1.697999e+06  -5.288112e+05
  -4.876771e+05  -1.073041e+06
   9.736276e+05  -5.980070e+05
   9.989671e+05   3.788417e+05
  -6.199769e+05   8.131037e+05
  -2.252596e+06   1.342938e+05
  -2.087789e+06  -1.212724e+06
  -4.086828e+04  -2.125295e+06
   2.120624e+06  -1.770819e+06
   2.542229e+06  -3.457198e+05
   1.074544e+06   9.990745e+05
  -7.094483e+05   1.151463e+06
  -1.154381e+06   1.399229e+05
  -6.631000e+04  -8.293267e+05
   1.296344e+06  -6.221463e+05
   1.565440e+06   5.728096e+05
   5.273728e+05   1.457120e+06
  -8.004253e+05   1.106252e+06
  -1.203587e+06  -7.586116e+03
  -4.265015e+05  -6.178250e+05
   5.838649e+05  -1.034147e+05
   6.089099e+05   8.949183e+05
  -5.610341e+05   1.229854e+06
  -1.805237e+06   4.137904e+05
  -1.777744e+06  -9.655251e+05
  -3.523601e+05  -1.813722e+06
   1.193514e+06  -1.476424e+06
   1.510732e+06  -2.863697e+05
   5.472725e+05   7.302495e+05
  -5.366803e+05   7.844231e+05
  -6.896189e+05   5.595096e+04
   8.788630e+03  -5.491019e+05
   6.266989e+05  -4.113940e+05
   4.667685e+05   1.349056e+05
  -2.320417e+05   2.542558e+05
  -5.899394e+05  -3.508431e+05
  -7.256336e+03  -1.030161e+06
   1.166868e+06  -8.668754e+05
   1.868861e+06   3.210328e+05
   1.314214e+06   1.718769e+06
  -1.878824e+05   2.227897e+06
  -1.484646e+06   1.447059e+06
  -1.698985e+06   1.763797e+04
  -1.024952e+06  -9.708399e+05
  -3.518343e+05  -9.713837e+05
  -2.213590e+05  -4.213964e+05
  -3.319949e+05  -1.784687e+05
  -5.987679e+04  -5.291391e+05
   7.077905e+05  -8.660385e+05
   1.357970e+06  -4.315043e+05
   1.128965e+06   6.970309e+05
  -1.083908e+05   1.527464e+06
  -1.577439e+06   1.126158e+06
  -2.119473e+06  -3.842990e+05
  -1.159581e+06  -1.855449e+06
   7.105717e+05  -2.138278e+06
   2.156213e+06  -1.088769e+06
   2.232172e+06   3.832255e+05
   1.154035e+06   1.207873e+06
  -3.953559e+04   1.102932e+06
  -5.285860e+05   6.764166e+05
  -3.743440e+05   6.385411e+05
  -2.303731e+05   9.831065e+05
  -5.401028e+05   1.025774e+06
  -1.067172e+06   2.506965e+05
  -1.165593e+06  -9.897197e+05
  -4.833905e+05  -1.722970e+06
   5.864509e+05  -1.301055e+06
   1.185466e+06  -4.170389e+04
   7.993840e+05   1.068598e+06
  -1.974871e+05   1.256309e+06
  -8.857776e+05   5.574609e+05
  -7.289588e+05  -3.538440e+05
  -8.910722e+04  -8.301433e+05
   2.455448e+05  -7.543238e+05
  -1.676070e+04  -4.779365e+05
  -3.456283e+05  -3.528558e+05
  -2.494813e+04  -3.668779e+05
   9.564763e+05  -2.295701e+05
   1.752856e+06   2.375442e+05
   1.468427e+06   8.492343e+05
   1.228078e+05   1.193707e+06
  -1.257845e+06   9.961290e+05
  -1.598609e+06   3.683519e+05
  -8.203997e+05  -2.508052e+05
   1.515076e+05  -4.278387e+05
   4.141819e+05  -1.151165e+05
  -2.534072e+04   2.604260e+05
  -4.619563e+05   1.957047e+05
  -4.122608e+05  -3.121897e+05
  -8.263758e+04  -6.883327e+05
   4.921957e+04  -4.364892e+05
  -1.460677e+05   1.848187e+05
  -3.704988e+05   3.831056e+05
  -2.785011e+05  -1.951441e+05
   2.011424e+05  -9.394333e+05
   8.051527e+05  -9.395197e+05
   1.059456e+06  -7.270833e+04
   6.028090e+05   8.249454e+05
  -3.692683e+05   8.975638e+05
  -1.035156e+06   1.716553e+05
  -6.398635e+05  -5.654878e+05
   6.013381e+05  -6.203565e+05
   1.512004e+06   8.134470e+03
   1.109761e+06   7.563085e+05
  -3.046898e+05   1.028312e+06
  -1.414575e+06   6.388475e+05
  -1.260413e+06  -7.323452e+04
  -1.955971e+05  -5.071203e+05
   5.787527e+05  -3.160995e+05
   3.067420e+05   2.202202e+05
  -5.965841e+05   4.019563e+05
  -1.058198e+06  -1.819723e+05
  -4.762309e+05  -1.126486e+06
   6.936871e+05  -1.488302e+06
   1.427334e+06  -7.014194e+05
   1.135572e+06   7.545418e+05
   1.537576e+05   1.678146e+06
  -6.954432e+05   1.261518e+06
  -8.831678e+05  -8.079286e+04
  -4.851425e+05  -1.094046e+06
   9.416707e+04  -9.667957e+05
   4.868466e+05  -1.274475e+05
   5.121715e+05   3.758943e+05
   2.424944e+05   1.642637e+05
   1.107751e+04  -1.195641e+05
   1.257587e+05   1.996324e+05
   4.163175e+05   8.623639e+05
   2.832379e+05   1.025119e+06
  -5.324417e+05   3.907678e+05
  -1.377658e+06  -4.418996e+05
  -1.284339e+06  -7.864001e+05
  -1.816335e+05  -6.237190e+05
   8.820720e+05  -3.642479e+05
   9.466175e+05  -1.952961e+05
   2.580022e+05  -9.733250e+03
  -1.714655e+05   1.945709e+05
   7.065084e+04   2.509864e+05
   3.545818e+05   1.601421e+05
  -4.460913e+02   1.270776e+05
  -7.320897e+05   1.564399e+05
  -9.446801e+05  -5.851330e+04
  -2.206386e+05  -6.109793e+05
   8.940964e+05  -9.926961e+05
   1.488549e+06  -5.901928e+05
   1.143077e+06   4.725826e+05
   1.841280e+05   1.311664e+06
  -6.926700e+05   1.214651e+06
  -9.639561e+05   4.003942e+05
  -6.095861e+05  -2.877538e+05
  -6.857662e+04  -3.256966e+05
   1.579093e+05   1.306349e+04
  -4.390753e+04   9.234684e+04
  -3.242063e+05  -3.120856e+05
  -2.585555e+05  -7.480527e+05
   1.967405e+05  -5.946825e+05
   6.390557e+05   1.982725e+05
   5.908425e+05   9.533718e+05
  -3.073016e+04   9.276071e+05
  -7.520569e+05   1.064105e+05
  -8.941152e+05  -7.727047e+05
  -2.302195e+05  -9.946235e+05
   6.779774e+05  -5.287185e+05
   9.697816e+05   1.162924e+05
   4.209154e+05   4.959299e+05
  -2.620401e+05   5.217375e+05
  -2.676760e+05   3.134886e+05
   3.175257e+05   5.592565e+04
   6.196253e+05  -6.630125e+03
   9.724619e+04   2.645874e+05
  -7.702394e+05   6.195882e+05
  -1.088997e+06   5.475274e+05
  -6.068798e+05  -9.680702e+04
   1.107698e+05  -7.567735e+05
   4.379214e+05  -7.411683e+05
   2.952606e+05  -7.893203e+04
  -1.240152e+04   4.750728e+05
  -2.419414e+05   3.422613e+05
  -3.190834e+05  -2.251486e+05
  -2.076049e+05  -5.363242e+05
   7.421217e+04  -3.125769e+05
   3.510319e+05   8.529574e+04
   4.047166e+05   2.065900e+05
   2.228862e+05   4.110001e+04
   9.192903e+03  -6.988940e+04
  -8.294960e+04   9.405370e+04
  -1.159872e+05   3.696103e+05
  -2.152291e+05   3.997183e+05
  -3.387970e+05   3.750463e+04
  -2.938026e+05  -4.487093e+05
   1.930956e+04  -5.994243e+05
   4.202573e+05  -2.348298e+05
   5.426168e+05   3.221280e+05
   1.745910e+05   5.614034e+05
  -4.468625e+05   3.128561e+05
  -7.543392e+05  -1.228780e+05
  -4.052054e+05  -3.568473e+05
   2.736202e+05  -2.973700e+05
   5.624322e+05  -1.193171e+05
   1.635010e+05  -2.333716e+03
  -4.052009e+05  -1.870111e+04
  -4.011492e+05  -1.631331e+05
   2.391472e+05  -3.131695e+05
   8.091819e+05  -2.196361e+05
