
 $NMID
 id='ANONYMOUS ', fmtdat='(2E16.6)'
 volume=1.0
 tramp=1.0
 $END
  -3.760058e+07  -8.745284e+05
  -2.312559e+07  -2.122314e+07
   3.344911e+06  -2.451586e+07
   1.755823e+07  -1.207313e+07
   1.200831e+07   2.029531e+06
  -9.386589e+05   6.381375e+06
  -6.967488e+06   9.952978e+05
  -3.502437e+06  -6.276128e+06
   3.114581e+06  -8.017475e+06
   6.705247e+06  -2.730170e+06
   5.269444e+06   4.566848e+06
   5.676918e+05   6.766302e+06
  -3.174721e+06   1.712352e+06
  -2.281216e+06  -5.010346e+06
   2.405789e+06  -5.871590e+06
   5.711806e+06   2.399469e+05
   3.639423e+06   7.136151e+06
  -2.292730e+06   8.526217e+06
  -7.050813e+06   4.056313e+06
  -7.271537e+06  -1.910128e+06
  -3.716355e+06  -5.271491e+06
   1.704639e+05  -5.067321e+06
   1.260060e+06  -3.135707e+06
  -5.857203e+05  -2.168052e+06
  -2.034530e+06  -3.235284e+06
   3.557526e+05  -4.513461e+06
   5.541878e+06  -3.264375e+06
   8.256318e+06   5.567618e+05
   5.110150e+06   3.810495e+06
  -9.505656e+05   3.797630e+06
  -3.995995e+06   1.179518e+06
  -1.934328e+06  -1.314189e+06
   1.929375e+06  -1.796355e+06
   3.534455e+06  -1.317818e+05
   2.115091e+06   2.536270e+06
  -3.926456e+05   4.042513e+06
  -1.928910e+06   2.508064e+06
  -1.644907e+06  -1.025594e+06
  -1.688496e+05  -2.633407e+06
   6.952120e+05  -2.024859e+05
  -3.651756e+05   3.029748e+06
  -2.205962e+06   2.256941e+06
  -2.062514e+06  -2.060827e+06
   8.820135e+05  -4.240621e+06
   3.807280e+06  -9.135614e+05
   3.216406e+06   4.341179e+06
  -9.597505e+05   5.570258e+06
  -5.135051e+06   1.631530e+06
  -5.663469e+06  -3.242171e+06
  -2.102592e+06  -4.816641e+06
   2.629043e+06  -2.687899e+06
   4.723903e+06   6.516876e+05
   2.643086e+06   2.542306e+06
  -1.391459e+06   1.877760e+06
  -3.380639e+06  -3.401492e+05
  -1.697837e+06  -1.777400e+06
   1.153453e+06  -1.038966e+06
   1.663663e+06   7.030586e+05
  -3.742127e+05   1.139935e+06
  -1.872657e+06  -2.526458e+05
  -5.582649e+05  -1.716907e+06
   2.303225e+06  -1.543777e+06
   3.638591e+06   2.344687e+05
   1.941900e+06   2.495854e+06
  -1.617983e+06   4.049680e+06
  -4.604246e+06   3.729145e+06
  -5.179777e+06   9.569760e+05
  -3.235994e+06  -2.926543e+06
  -4.343736e+05  -5.083319e+06
   1.161066e+06  -4.095116e+06
   1.028480e+06  -1.732439e+06
   5.523919e+05  -6.888279e+05
   1.139057e+06  -1.164371e+06
   2.419483e+06  -1.050750e+06
   2.823454e+06   7.374466e+05
   1.554302e+06   2.612828e+06
  -5.868280e+05   2.402808e+06
  -2.069819e+06   4.796933e+04
  -1.799823e+06  -2.400027e+06
   2.240511e+05  -2.908369e+06
   2.688154e+06  -1.143587e+06
   3.631388e+06   1.515429e+06
   2.191668e+06   3.194915e+06
  -2.812852e+05   3.028172e+06
  -1.621040e+06   1.789661e+06
  -1.424286e+06   9.212274e+05
  -1.367554e+06   8.708722e+05
  -2.648159e+06   7.113602e+05
  -4.042933e+06  -5.164805e+05
  -3.325694e+06  -2.509153e+06
  -1.736916e+05  -3.953853e+06
   3.182656e+06  -3.739136e+06
   4.213076e+06  -1.798942e+06
   2.493203e+06   7.777270e+05
  -1.301569e+05   2.290351e+06
  -1.375325e+06   1.699918e+06
  -5.093491e+05  -1.701396e+05
   1.171672e+06  -1.200992e+06
   1.752819e+06  -3.271401e+05
   7.034002e+05   1.110732e+06
  -6.278229e+05   1.093775e+06
  -6.410009e+05  -3.277568e+05
   6.600324e+05  -1.019206e+06
   1.754378e+06   4.200942e+05
   1.318588e+06   2.774189e+06
  -5.533051e+05   3.616929e+06
  -2.649608e+06   1.992107e+06
  -3.625760e+06  -8.167976e+05
  -2.793054e+06  -2.771317e+06
  -6.258132e+05  -2.821953e+06
   1.322170e+06  -1.468550e+06
   1.621808e+06  -1.387911e+05
   4.832275e+05   4.721957e+04
  -3.584296e+05  -7.256073e+05
   3.191295e+05  -1.210544e+06
   1.684269e+06  -5.455086e+05
   1.893928e+06   7.071882e+05
   4.566281e+05   1.252290e+06
  -1.096180e+06   6.092156e+05
  -1.003603e+06  -4.193021e+05
   7.216222e+05  -7.301168e+05
   2.312771e+06   2.505044e+04
   2.054846e+06   1.305523e+06
  -5.553124e+04   2.156284e+06
  -2.288838e+06   1.809088e+06
  -2.754237e+06   3.283909e+05
  -1.171302e+06  -1.157411e+06
   8.425276e+05  -1.334963e+06
   1.371545e+06  -1.467695e+05
   1.099825e+05   9.754599e+05
  -1.451782e+06   6.888330e+05
  -1.693233e+06  -6.876359e+05
  -4.723727e+05  -1.594586e+06
   9.445423e+05  -1.096976e+06
   1.268094e+06   1.270269e+05
   3.696085e+05   7.018480e+05
  -6.933308e+05   7.921671e+04
  -6.828015e+05  -1.007443e+06
   6.027736e+05  -1.368203e+06
   1.981189e+06  -4.782565e+05
   1.965542e+06   1.056954e+06
   3.722409e+05   2.007747e+06
  -1.355632e+06   1.604701e+06
  -1.665964e+06   2.622844e+05
  -5.508906e+05  -8.174509e+05
   6.108051e+05  -8.255427e+05
   7.032729e+05  -7.133956e+04
  -4.062041e+04   4.969076e+05
  -5.931384e+05   3.615531e+05
  -3.597185e+05  -9.447724e+04
   3.092609e+05  -1.260975e+05
   5.741589e+05   4.886811e+05
  -8.250546e+04   1.131173e+06
  -1.309224e+06   9.120676e+05
  -2.041347e+06  -3.810075e+05
  -1.430762e+06  -1.898081e+06
   2.138585e+05  -2.413810e+06
   1.604565e+06  -1.502014e+06
   1.772029e+06   3.336508e+04
   1.016816e+06   9.784156e+05
   3.757991e+05   8.919097e+05
   3.447757e+05   3.768851e+05
   4.570982e+05   2.556914e+05
   6.329975e+04   6.492212e+05
  -8.090221e+05   9.151567e+05
  -1.454046e+06   4.092265e+05
  -1.154195e+06  -7.345652e+05
   1.621093e+05  -1.569210e+06
   1.707053e+06  -1.156820e+06
   2.270878e+06   4.444796e+05
   1.197929e+06   2.039813e+06
  -8.711567e+05   2.319238e+06
  -2.409678e+06   1.104011e+06
  -2.375466e+06  -5.122497e+05
  -1.129063e+06  -1.305707e+06
   9.566690e+04  -1.086784e+06
   4.892173e+05  -6.537261e+05
   2.812925e+05  -7.327937e+05
   2.073310e+05  -1.167050e+06
   6.302027e+05  -1.174357e+06
   1.212563e+06  -2.801517e+05
   1.289010e+06   1.081087e+06
   5.314734e+05   1.879087e+06
  -6.336441e+05   1.419058e+06
  -1.281330e+06   2.393976e+04
  -8.349548e+05  -1.205113e+06
   2.880349e+05  -1.363598e+06
   1.029126e+06  -5.120108e+05
   7.793325e+05   5.096731e+05
  -1.799755e+03   9.561655e+05
  -3.722398e+05   7.871493e+05
  -1.796886e+04   4.714418e+05
   3.994440e+05   3.674576e+05
   4.018683e+04   3.934350e+05
  -1.078239e+06   2.251140e+05
  -1.957956e+06  -2.993068e+05
  -1.591998e+06  -9.698738e+05
  -5.498263e+04  -1.339183e+06
   1.456894e+06  -1.087780e+06
   1.764105e+06  -3.419236e+05
   8.533437e+05   3.583882e+05
  -2.091875e+05   4.994124e+05
  -4.685427e+05   8.415897e+04
   1.241265e+04  -3.404696e+05
   4.799914e+05  -2.329365e+05
   4.596684e+05   3.419982e+05
   1.555189e+05   7.453102e+05
   5.700543e+03   4.833239e+05
   1.441365e+05  -1.586834e+05
   3.458236e+05  -3.717227e+05
   2.894570e+05   2.186385e+05
  -1.865251e+05   1.008410e+06
  -8.865186e+05   1.033981e+06
  -1.238917e+06   1.043805e+05
  -7.309210e+05  -9.133447e+05
   4.162659e+05  -1.038049e+06
   1.184604e+06  -2.384958e+05
   7.108306e+05   5.991150e+05
  -6.711908e+05   6.582546e+05
  -1.611681e+06  -4.389124e+04
  -1.117553e+06  -8.274055e+05
   3.873818e+05  -1.052988e+06
   1.506577e+06  -6.038511e+05
   1.303815e+06   1.196222e+05
   1.810222e+05   5.304862e+05
  -6.322487e+05   3.098922e+05
  -3.501704e+05  -2.647411e+05
   6.259204e+05  -4.742995e+05
   1.167809e+06   1.514266e+05
   5.823636e+05   1.212709e+06
  -6.892685e+05   1.658862e+06
  -1.527252e+06   8.157547e+05
  -1.244119e+06  -7.940149e+05
  -1.824180e+05  -1.808954e+06
   7.446514e+05  -1.336243e+06
   9.382027e+05   1.242517e+05
   4.840383e+05   1.183032e+06
  -1.486353e+05   1.007006e+06
  -5.392432e+05   1.125035e+05
  -5.181561e+05  -3.897970e+05
  -2.222696e+05  -1.550132e+05
  -2.588626e+04   1.126764e+05
  -1.933873e+05  -2.587377e+05
  -4.738793e+05  -9.517810e+05
  -2.578185e+05  -1.090197e+06
   6.350920e+05  -4.026536e+05
   1.485480e+06   4.726269e+05
   1.343489e+06   8.397258e+05
   1.899603e+05   6.851389e+05
  -9.125103e+05   4.111238e+05
  -1.005895e+06   2.007284e+05
  -3.115594e+05  -2.229459e+04
   1.689773e+05  -2.197047e+05
  -3.079495e+04  -2.358594e+05
  -3.359915e+05  -1.314904e+05
  -2.254596e+04  -1.387159e+05
   7.386883e+05  -2.071338e+05
   1.037342e+06   4.118027e+04
   3.244065e+05   6.870647e+05
  -9.175486e+05   1.129811e+06
  -1.659100e+06   6.880653e+05
  -1.321953e+06  -4.852645e+05
  -2.355409e+05  -1.419323e+06
   7.610410e+05  -1.343077e+06
   1.053120e+06  -4.818192e+05
   6.634214e+05   2.750085e+05
   1.013653e+05   3.590340e+05
  -1.300588e+05   2.866702e+04
   5.792390e+04  -6.014180e+04
   3.266733e+05   3.486105e+05
   2.658314e+05   8.077418e+05
  -1.992237e+05   6.628838e+05
  -6.934079e+05  -1.702321e+05
  -6.922411e+05  -1.000898e+06
  -3.551971e+04  -1.026697e+06
   7.941984e+05  -1.818200e+05
   1.008189e+06   7.857964e+05
   2.966090e+05   1.089278e+06
  -7.303170e+05   6.244045e+05
  -1.086218e+06  -1.045887e+05
  -4.878799e+05  -5.765674e+05
   2.914207e+05  -6.186029e+05
   3.332088e+05  -3.481409e+05
  -3.020240e+05  -3.025388e+04
  -6.633618e+05   2.450735e+04
  -1.239313e+05  -2.991623e+05
   8.303183e+05  -6.767832e+05
   1.213952e+06  -5.652899e+05
   7.029914e+05   1.444870e+05
  -1.107407e+05   8.452157e+05
  -5.134425e+05   8.245220e+05
  -3.744481e+05   1.158221e+05
  -2.126251e+04  -5.021861e+05
   2.546567e+05  -4.034133e+05
   3.550973e+05   1.979449e+05
   2.401134e+05   5.809919e+05
  -7.197050e+04   3.827589e+05
  -3.886235e+05  -6.969931e+04
  -4.534052e+05  -2.524584e+05
  -2.390870e+05  -6.891974e+04
   6.842500e+03   1.138453e+05
   7.772341e+04  -3.335379e+04
   5.658762e+04  -3.866774e+05
   1.519602e+05  -5.005199e+05
   3.547650e+05  -1.292294e+05
   3.927328e+05   4.429700e+05
   6.555413e+04   6.595941e+05
  -4.360851e+05   2.871513e+05
  -6.298585e+05  -3.191452e+05
  -2.237084e+05  -5.953861e+05
   4.965768e+05  -3.515698e+05
   8.529809e+05   1.076482e+05
   4.599471e+05   3.840259e+05
  -2.993117e+05   3.608335e+05
  -6.296970e+05   1.765627e+05
  -2.136085e+05   6.196909e+03
   3.997369e+05  -2.904203e+04
   4.289406e+05   1.196042e+05
  -2.116179e+05   3.222263e+05
  -8.141281e+05   2.642407e+05
