
 $NMID
 id='ANONYMOUS ', fmtdat='(2E16.6)'
 volume=1.0
 tramp=1.0
 $END
  -1.512994e+07  -7.066532e+04
  -1.028333e+07  -6.740674e+06
  -3.196989e+05  -9.476927e+06
   6.415276e+06  -6.812128e+06
   5.726460e+06  -1.096672e+06
   5.758954e+05   2.783786e+06
  -3.177587e+06   1.702664e+06
  -2.637954e+06  -2.409104e+06
   5.372843e+05  -4.530599e+06
   2.911787e+06  -2.138184e+06
   2.588078e+06   2.043463e+06
   3.238419e+05   3.382758e+06
  -1.565540e+06   6.490195e+05
  -1.277241e+06  -2.899814e+06
   8.726935e+05  -3.402407e+06
   2.650482e+06  -4.223276e+05
   2.041852e+06   3.053685e+06
  -6.296211e+05   3.928445e+06
  -2.960043e+06   1.845268e+06
  -2.974539e+06  -9.639232e+05
  -1.139817e+06  -2.173059e+06
   3.190572e+05  -1.546108e+06
  -6.638952e+04  -7.520284e+05
  -1.440674e+06  -1.225319e+06
  -1.608116e+06  -2.511864e+06
   5.034661e+05  -2.910235e+06
   3.439653e+06  -1.519226e+06
   4.451412e+06   7.427009e+05
   2.336107e+06   2.135745e+06
  -1.053502e+06   1.746877e+06
  -2.529038e+06   1.114115e+05
  -9.007457e+05  -1.364155e+06
   1.805668e+06  -1.418529e+06
   2.710767e+06   1.348963e+05
   1.219111e+06   2.043754e+06
  -7.220591e+05   2.497378e+06
  -1.188811e+06   9.614557e+05
  -2.884175e+05  -9.617655e+05
   5.182314e+05  -1.125520e+06
   3.165444e+05   6.151239e+05
  -5.603791e+05   2.087032e+06
  -1.253514e+06   1.384219e+06
  -1.159126e+06  -7.690213e+05
  -2.050836e+05  -1.875204e+06
   9.949040e+05  -6.621080e+05
   1.283656e+06   1.483917e+06
  -5.079055e+04   2.211099e+06
  -2.150989e+06   7.712949e+05
  -2.998373e+06  -1.426742e+06
  -1.463264e+06  -2.464449e+06
   1.258753e+06  -1.687916e+06
   2.726700e+06   2.318518e+03
   1.768732e+06   1.173528e+06
  -4.041975e+05   1.068804e+06
  -1.621039e+06   9.219810e+04
  -9.825225e+05  -6.810259e+05
   4.548541e+05  -5.246019e+05
   1.009092e+06   2.915339e+05
   1.666463e+05   8.418031e+05
  -9.636620e+05   5.162924e+05
  -9.264641e+05  -3.719137e+05
   4.073989e+05  -9.026430e+05
   1.582047e+06  -4.106364e+05
   1.103239e+06   8.882772e+05
  -8.661730e+05   1.985245e+06
  -2.619970e+06   1.839122e+06
  -2.726125e+06   2.943601e+05
  -1.427402e+06  -1.647951e+06
  -9.559137e+04  -2.646323e+06
   3.860150e+05  -2.267878e+06
   3.416635e+05  -1.321407e+06
   5.500303e+05  -8.120344e+05
   1.213802e+06  -7.444741e+05
   1.810073e+06  -2.916528e+05
   1.699761e+06   8.775022e+05
   7.210501e+05   1.882973e+06
  -6.384049e+05   1.562617e+06
  -1.489869e+06  -6.269657e+04
  -1.144924e+06  -1.623274e+06
   2.359327e+05  -1.768810e+06
   1.599402e+06  -4.862584e+05
   1.859844e+06   1.037704e+06
   9.302945e+05   1.680220e+06
  -2.263693e+05   1.337626e+06
  -6.752872e+05   7.309506e+05
  -5.189200e+05   5.097315e+05
  -6.490163e+05   6.381914e+05
  -1.512416e+06   5.518174e+05
  -2.365737e+06  -1.968425e+05
  -1.988394e+06  -1.423335e+06
  -1.352270e+05  -2.357473e+06
   1.937219e+06  -2.230678e+06
   2.591504e+06  -9.651121e+05
   1.445142e+06   6.253775e+05
  -2.589024e+05   1.413075e+06
  -9.539555e+05   9.301136e+05
  -2.832530e+05  -1.605552e+05
   7.505447e+05  -6.869162e+05
   1.005548e+06  -1.776540e+05
   3.412830e+05   6.304224e+05
  -4.323062e+05   6.581608e+05
  -4.902069e+05  -1.831324e+05
   2.406612e+05  -7.865142e+05
   1.072696e+06  -1.290572e+05
   1.140511e+06   1.421523e+06
   1.097497e+05   2.361232e+06
  -1.451131e+06   1.635791e+06
  -2.397344e+06  -2.369836e+05
  -1.946700e+06  -1.728910e+06
  -4.534694e+05  -1.834296e+06
   8.467083e+05  -9.009686e+05
   1.010725e+06  -4.496860e+04
   2.922162e+05   2.866646e+04
  -2.221334e+05  -4.327288e+05
   1.457038e+05  -6.888977e+05
   9.307070e+05  -3.324625e+05
   1.108389e+06   3.434972e+05
   3.219227e+05   6.968310e+05
  -6.387438e+05   3.961395e+05
  -6.695983e+05  -2.443771e+05
   3.934784e+05  -5.497416e+05
   1.492113e+06  -1.155130e+05
   1.405338e+06   7.890942e+05
   4.798238e+04   1.415789e+06
  -1.399553e+06   1.184169e+06
  -1.682376e+06   2.312942e+05
  -7.043037e+05  -6.567519e+05
   4.718654e+05  -7.475328e+05
   7.530209e+05  -8.146668e+04
   3.250725e+04   5.456202e+05
  -8.568703e+05   4.056605e+05
  -1.032090e+06  -3.744229e+05
  -3.570160e+05  -9.567111e+05
   5.152366e+05  -7.365817e+05
   7.916297e+05  -9.069140e+03
   2.889957e+05   3.988561e+05
  -3.781627e+05   6.620461e+04
  -3.972783e+05  -5.921223e+05
   3.768715e+05  -8.117684e+05
   1.197573e+06  -2.672709e+05
   1.172942e+06   6.445061e+05
   2.290042e+05   1.198014e+06
  -7.871703e+05   9.719064e+05
  -9.951129e+05   1.906321e+05
  -3.642613e+05  -4.786300e+05
   3.516391e+05  -5.197210e+05
   4.629910e+05  -3.918098e+04
   5.538960e+03   3.715355e+05
  -4.174059e+05   2.884546e+05
  -3.289834e+05  -8.235869e+04
   1.349827e+05  -1.786111e+05
   3.879195e+05   2.163760e+05
   1.168417e+04   6.736112e+05
  -7.676899e+05   5.724447e+05
  -1.234380e+06  -2.129078e+05
  -8.658486e+05  -1.138134e+06
   1.259579e+05  -1.476399e+06
   9.808364e+05  -9.651945e+05
   1.129250e+06  -2.124958e+04
   6.947225e+05   6.443797e+05
   2.468408e+05   6.606980e+05
   1.424579e+05   2.971112e+05
   2.044125e+05   1.207882e+05
   3.258379e+04   3.429220e+05
  -4.639248e+05   5.721397e+05
  -8.975687e+05   2.921505e+05
  -7.567298e+05  -4.594986e+05
   6.141989e+04  -1.017663e+06
   1.041894e+06  -7.517842e+05
   1.405265e+06   2.519826e+05
   7.704756e+05   1.223534e+06
  -4.632560e+05   1.408167e+06
  -1.416910e+06   7.211136e+05
  -1.475880e+06  -2.427743e+05
  -7.768279e+05  -7.919844e+05
   1.246991e+04  -7.379459e+05
   3.529547e+05  -4.634919e+05
   2.653688e+05  -4.297267e+05
   1.671503e+05  -6.449247e+05
   3.601811e+05  -6.692529e+05
   7.029374e+05  -1.592923e+05
   7.684728e+05   6.590033e+05
   3.168544e+05   1.142574e+06
  -3.913271e+05   8.614070e+05
  -7.846969e+05   2.887336e+04
  -5.280759e+05  -7.019012e+05
   1.248756e+05  -8.262105e+05
   5.727916e+05  -3.721807e+05
   4.730568e+05   2.214575e+05
   6.340332e+04   5.361349e+05
  -1.500089e+05   4.938045e+05
   1.839578e+04   3.186289e+05
   2.275026e+05   2.381076e+05
   1.510985e+04   2.448748e+05
  -6.281186e+05   1.499464e+05
  -1.152374e+06  -1.602422e+05
  -9.684326e+05  -5.596959e+05
  -8.425980e+04  -7.801770e+05
   8.262347e+05  -6.501392e+05
   1.052253e+06  -2.456730e+05
   5.399102e+05   1.551265e+05
  -9.941890e+04   2.758958e+05
  -2.691836e+05   7.835039e+04
   2.380215e+04  -1.679361e+05
   3.105601e+05  -1.288674e+05
   2.713620e+05   2.082684e+05
   4.721350e+04   4.624071e+05
  -4.016128e+04   2.935153e+05
   9.488337e+04  -1.279249e+05
   2.480406e+05  -2.630235e+05
   1.850664e+05   1.278369e+05
  -1.368452e+05   6.264385e+05
  -5.348499e+05   6.192497e+05
  -6.954190e+05   3.645466e+04
  -3.890695e+05  -5.524953e+05
   2.499199e+05  -5.865993e+05
   6.847187e+05  -1.017193e+05
   4.230733e+05   3.786718e+05
  -3.962278e+05   4.104484e+05
  -1.002383e+06  -1.114199e+03
  -7.432115e+05  -4.945224e+05
   1.919060e+05  -6.829181e+05
   9.337650e+05  -4.335470e+05
   8.386631e+05   4.034847e+04
   1.340296e+05   3.357816e+05
  -3.807663e+05   2.119428e+05
  -1.990636e+05  -1.452125e+05
   4.015775e+05  -2.636923e+05
   7.033666e+05   1.284263e+05
   3.083927e+05   7.541969e+05
  -4.721995e+05   9.868960e+05
  -9.542354e+05   4.594798e+05
  -7.528800e+05  -5.053023e+05
  -9.927806e+04  -1.115423e+06
   4.608274e+05  -8.397831e+05
   5.843195e+05   4.909608e+04
   3.250635e+05   7.226570e+05
  -5.509516e+04   6.411681e+05
  -3.195204e+05   8.562931e+04
  -3.446007e+05  -2.484197e+05
  -1.668659e+05  -1.080317e+05
  -4.564905e+03   7.982276e+04
  -7.353257e+04  -1.331175e+05
  -2.712594e+05  -5.725441e+05
  -1.936137e+05  -6.779880e+05
   3.456682e+05  -2.556258e+05
   9.144319e+05   2.945838e+05
   8.569462e+05   5.200011e+05
   1.196525e+05   4.122520e+05
  -5.912992e+05   2.426527e+05
  -6.290798e+05   1.313332e+05
  -1.648993e+05   6.777441e+03
   1.164609e+05  -1.294015e+05
  -5.447925e+04  -1.662655e+05
  -2.436566e+05  -1.067175e+05
   2.908416e+03  -8.616487e+04
   4.946213e+05  -1.038088e+05
   6.269298e+05   4.334555e+04
   1.345866e+05   4.102927e+05
  -6.041022e+05   6.561994e+05
  -9.872609e+05   3.806595e+05
  -7.512030e+05  -3.247558e+05
  -1.170781e+05  -8.734036e+05
   4.619532e+05  -8.010159e+05
   6.429889e+05  -2.587228e+05
   4.068524e+05   1.955602e+05
   4.178025e+04   2.177857e+05
  -1.127145e+05  -9.691135e+03
   2.464344e+04  -6.443386e+04
   2.163028e+05   2.040689e+05
   1.723920e+05   4.953984e+05
  -1.341850e+05   3.934661e+05
  -4.273947e+05  -1.368948e+05
  -3.881966e+05  -6.407908e+05
   3.044294e+04  -6.189178e+05
   5.068413e+05  -6.463944e+04
   5.925123e+05   5.222219e+05
   1.456576e+05   6.627834e+05
  -4.551528e+05   3.448959e+05
  -6.411835e+05  -8.351677e+04
  -2.718494e+05  -3.280438e+05
   1.782253e+05  -3.395078e+05
   1.740984e+05  -2.029484e+05
  -2.175379e+05  -3.692504e+04
  -4.132648e+05   2.612233e+03
  -6.117061e+04  -1.758994e+05
   5.124008e+05  -4.098501e+05
   7.168072e+05  -3.618348e+05
   3.941657e+05   6.473331e+04
  -7.747054e+04   4.999394e+05
  -2.890630e+05   4.853928e+05
  -1.928754e+05   4.408808e+04
   1.125949e+04  -3.193849e+05
   1.644565e+05  -2.239743e+05
   2.144112e+05   1.552702e+05
   1.355180e+05   3.572422e+05
  -5.429896e+04   2.033641e+05
  -2.338319e+05  -6.003918e+04
  -2.641155e+05  -1.357797e+05
  -1.458792e+05  -2.475723e+04
  -1.125715e+04   4.384515e+04
   5.037138e+04  -7.047579e+04
   8.330006e+04  -2.524755e+05
   1.575303e+05  -2.649524e+05
   2.337677e+05  -1.636454e+04
   1.903962e+05   3.089079e+05
  -2.334639e+04   4.040225e+05
  -2.838283e+05   1.535528e+05
  -3.577454e+05  -2.210024e+05
  -1.127030e+05  -3.768595e+05
   2.964993e+05  -2.045871e+05
   4.986431e+05   8.809055e+04
   2.663844e+05   2.391992e+05
  -1.848735e+05   1.926431e+05
  -3.751568e+05   7.181448e+04
  -1.049653e+05  -2.214249e+03
   2.771084e+05   1.452446e+04
   2.714590e+05   1.140704e+05
  -1.623804e+05   2.133673e+05
  -5.456841e+05   1.475248e+05
