
 $NMID
 id='ANONYMOUS ', fmtdat='(2E16.6)'
 volume=1.0
 tramp=1.0
 $END
  -4.650681e+07  -1.356990e+06
  -2.707534e+07  -2.977814e+07
   7.196654e+06  -3.135359e+07
   2.320853e+07  -1.127303e+07
   1.338459e+07   6.362821e+06
  -3.037341e+06   7.621935e+06
  -8.067360e+06  -1.357043e+06
  -1.958140e+06  -8.154265e+06
   5.413807e+06  -7.457092e+06
   8.006807e+06  -1.328279e+06
   5.588131e+06   5.270847e+06
   4.595903e+05   7.066104e+06
  -3.335008e+06   2.177877e+06
  -2.007644e+06  -4.474696e+06
   3.280603e+06  -5.223919e+06
   6.442168e+06   1.340364e+06
   3.372733e+06   8.521004e+06
  -3.434607e+06   9.609389e+06
  -8.475573e+06   4.618048e+06
  -8.872349e+06  -1.930384e+06
  -5.327820e+06  -6.329327e+06
  -4.010573e+05  -7.203279e+06
   2.593935e+06  -4.988519e+06
   1.712966e+06  -2.165115e+06
  -7.752946e+05  -1.702831e+06
  -1.366625e+05  -3.347405e+06
   4.450922e+06  -3.474888e+06
   7.880830e+06  -2.274264e+05
   5.695153e+06   3.517008e+06
   1.561664e+05   4.162037e+06
  -3.040646e+06   2.067896e+06
  -2.026147e+06   3.305556e+04
   4.348731e+05  -6.893010e+05
   1.776863e+06  -3.578839e+05
   1.738564e+06   1.147037e+06
   5.249832e+05   3.182297e+06
  -1.540881e+06   3.143465e+06
  -2.697718e+06  -1.068091e+05
  -1.383579e+06  -3.030332e+06
   6.737267e+05  -1.633590e+06
   2.551680e+05   1.956405e+06
  -2.058003e+06   1.800464e+06
  -1.920862e+06  -2.703606e+06
   2.195501e+06  -4.999849e+06
   5.809987e+06  -6.581220e+05
   4.069682e+06   5.858232e+06
  -1.804178e+06   7.000758e+06
  -6.180736e+06   1.812533e+06
  -5.572171e+06  -3.833722e+06
  -1.324182e+06  -4.987558e+06
   2.925421e+06  -2.105826e+06
   4.243228e+06   1.416387e+06
   1.861847e+06   2.936658e+06
  -2.063545e+06   1.737282e+06
  -3.700055e+06  -8.892996e+05
  -1.525032e+06  -2.300464e+06
   1.451773e+06  -1.084801e+06
   1.386528e+06   8.928556e+05
  -1.143304e+06   7.027194e+05
  -1.997654e+06  -1.557438e+06
   6.381549e+05  -2.862289e+06
   3.909322e+06  -1.448436e+06
   4.343614e+06   1.284870e+06
   1.796614e+06   3.351268e+06
  -1.600089e+06   4.273847e+06
  -4.192518e+06   3.845361e+06
  -5.103715e+06   1.297498e+06
  -3.695886e+06  -2.678496e+06
  -6.357534e+05  -5.072666e+06
   1.665171e+06  -3.851063e+06
   1.502917e+06  -9.197334e+05
   1.134384e+05   2.610512e+05
  -5.830978e+04  -7.768266e+05
   1.297160e+06  -1.443392e+06
   2.281112e+06  -1.750592e+05
   1.618926e+06   1.579266e+06
  -1.242058e+03   1.726864e+06
  -1.239108e+06   1.350529e+05
  -1.303082e+06  -1.711889e+06
   5.959786e+04  -2.383866e+06
   2.288778e+06  -1.299880e+06
   3.638768e+06   1.058924e+06
   2.572584e+06   3.156104e+06
  -1.202249e+05   3.489453e+06
  -1.946829e+06   2.197346e+06
  -1.883406e+06   8.798958e+05
  -1.532731e+06   4.979394e+05
  -2.420334e+06   2.995485e+05
  -3.531751e+06  -7.477698e+05
  -2.769629e+06  -2.357151e+06
   7.479502e+03  -3.371063e+06
   2.715166e+06  -3.096033e+06
   3.450140e+06  -1.632339e+06
   2.159588e+06   3.913943e+05
   1.891756e+05   1.821884e+06
  -9.303050e+05   1.559441e+06
  -4.616301e+05  -3.489932e+04
   9.157003e+05  -1.044494e+06
   1.574455e+06  -2.797588e+05
   7.337971e+05   1.011779e+06
  -4.444486e+05   8.962937e+05
  -3.255942e+05  -3.334738e+05
   9.154209e+05  -5.205808e+05
   1.488102e+06   1.154931e+06
   3.895443e+05   2.907382e+06
  -1.460219e+06   2.726351e+06
  -2.626085e+06   7.627707e+05
  -2.636289e+06  -1.313941e+06
  -1.739765e+06  -2.315255e+06
  -2.826169e+05  -2.125880e+06
   1.047254e+06  -1.158198e+06
   1.290289e+06  -1.482038e+05
   4.019952e+05   5.129035e+04
  -2.715333e+05  -6.261028e+05
   3.820276e+05  -1.094298e+06
   1.591722e+06  -4.228290e+05
   1.648681e+06   7.962877e+05
   2.701181e+05   1.182229e+06
  -9.796980e+05   4.307804e+05
  -7.032102e+05  -4.006128e+05
   7.205123e+05  -3.815524e+05
   1.760687e+06   3.521527e+05
   1.356976e+06   1.164724e+06
  -2.788282e+05   1.586299e+06
  -1.935776e+06   1.270016e+06
  -2.276018e+06   1.383966e+05
  -9.633590e+05  -1.078916e+06
   8.001409e+05  -1.217325e+06
   1.297921e+06  -1.157961e+05
   1.430739e+05   8.982842e+05
  -1.266723e+06   5.639815e+05
  -1.385179e+06  -6.978230e+05
  -2.148042e+05  -1.367257e+06
   9.364797e+05  -7.555055e+05
   1.018657e+06   3.104340e+05
   1.661500e+05   6.547019e+05
  -6.628743e+05   1.964909e+04
  -5.773436e+05  -8.867014e+05
   5.087065e+05  -1.153362e+06
   1.659781e+06  -3.929520e+05
   1.642063e+06   9.162386e+05
   2.556588e+05   1.715234e+06
  -1.234551e+06   1.306655e+06
  -1.425392e+06   1.163344e+05
  -3.809067e+05  -7.311414e+05
   5.671205e+05  -6.359611e+05
   5.126824e+05  -4.518591e+04
  -1.160159e+05   2.760124e+05
  -3.965466e+05   1.388267e+05
  -7.173362e+04  -5.427011e+04
   3.798578e+05   9.857757e+04
   3.971300e+05   5.853507e+05
  -2.180468e+05   9.706184e+05
  -1.164748e+06   6.893496e+05
  -1.694418e+06  -4.030800e+05
  -1.145423e+06  -1.636745e+06
   2.474628e+05  -1.974199e+06
   1.362850e+06  -1.098057e+06
   1.368678e+06   1.629580e+05
   6.571118e+05   7.492787e+05
   2.334865e+05   5.158869e+05
   3.979824e+05   1.756763e+05
   5.220753e+05   2.806546e+05
   5.473349e+04   6.402880e+05
  -7.508231e+05   7.087833e+05
  -1.192625e+06   2.123721e+05
  -8.239589e+05  -6.203791e+05
   2.580990e+05  -1.172876e+06
   1.440567e+06  -8.158835e+05
   1.820399e+06   4.654343e+05
   8.579450e+05   1.756461e+06
  -9.101942e+05   1.909706e+06
  -2.123717e+06   7.606913e+05
  -1.899695e+06  -6.245282e+05
  -7.222215e+05  -1.126039e+06
   2.089422e+05  -7.504957e+05
   3.213508e+05  -3.888689e+05
   6.188926e+04  -6.157762e+05
   1.097090e+05  -1.081850e+06
   5.896192e+05  -1.047613e+06
   1.076180e+06  -2.281801e+05
   1.068635e+06   9.209520e+05
   4.045121e+05   1.566295e+06
  -5.475495e+05   1.159436e+06
  -1.051182e+06  -4.160776e+04
  -6.242763e+05  -1.081714e+06
   3.717291e+05  -1.133724e+06
   9.780037e+05  -2.849473e+05
   6.464697e+05   6.161620e+05
  -1.465532e+05   8.899377e+05
  -4.810200e+05   6.229186e+05
  -8.958382e+04   3.306879e+05
   3.490197e+05   2.829285e+05
   4.050895e+04   3.138468e+05
  -9.538091e+05   1.367382e+05
  -1.690016e+06  -3.348376e+05
  -1.295372e+06  -9.018531e+05
   8.378070e+04  -1.183668e+06
   1.348416e+06  -8.938011e+05
   1.513576e+06  -1.665563e+05
   6.645030e+05   4.452386e+05
  -2.365053e+05   4.667521e+05
  -4.247836e+05   6.175974e+03
  -1.877848e+04  -3.563064e+05
   3.643930e+05  -2.028622e+05
   3.875936e+05   2.929436e+05
   2.017519e+05   5.952174e+05
   7.875048e+04   3.941350e+05
   1.137699e+05  -6.411330e+04
   2.261160e+05  -2.194477e+05
   2.160220e+05   1.997355e+05
  -1.360478e+05   7.990342e+05
  -7.661789e+05   8.512728e+05
  -1.137183e+06   1.165879e+05
  -6.908317e+05  -7.712043e+05
   3.703212e+05  -9.362784e+05
   1.049581e+06  -2.578462e+05
   5.885155e+05   4.838763e+05
  -5.969881e+05   5.089206e+05
  -1.291383e+06  -1.313774e+05
  -7.784181e+05  -7.393498e+05
   4.400341e+05  -7.831383e+05
   1.236282e+06  -3.270345e+05
   9.892279e+05   2.030337e+05
   8.686722e+04   4.207269e+05
  -5.413790e+05   1.943516e+05
  -3.125829e+05  -2.567207e+05
   4.843299e+05  -4.219187e+05
   9.696030e+05   8.197846e+04
   5.386021e+05   9.775668e+05
  -5.040404e+05   1.389481e+06
  -1.227869e+06   7.041966e+05
  -1.012536e+06  -6.433973e+05
  -1.254686e+05  -1.468405e+06
   6.380596e+05  -1.030983e+06
   7.492299e+05   1.810138e+05
   3.088628e+05   9.885812e+05
  -2.224590e+05   7.770221e+05
  -4.676985e+05   4.647017e+04
  -3.584261e+05  -3.172770e+05
  -1.151604e+05  -1.111958e+05
  -4.802194e+04   7.191477e+04
  -2.439631e+05  -2.601214e+05
  -4.020210e+05  -8.088215e+05
  -1.105638e+05  -8.837767e+05
   6.170322e+05  -3.015589e+05
   1.193325e+06   4.160667e+05
   1.009175e+06   7.160097e+05
   1.320067e+05   5.806406e+05
  -6.920761e+05   3.258141e+05
  -8.038648e+05   1.194388e+05
  -3.085702e+05  -6.295579e+04
   1.176173e+05  -1.837434e+05
   5.462638e+04  -1.560764e+05
  -1.926465e+05  -7.019604e+04
  -4.759702e+04  -1.090798e+05
   5.229845e+05  -1.894115e+05
   8.615534e+05   2.368594e+04
   3.756930e+05   5.818945e+05
  -6.917093e+05   9.649809e+05
  -1.426554e+06   6.045070e+05
  -1.180413e+06  -3.685664e+05
  -2.087086e+05  -1.155369e+06
   6.628415e+05  -1.122213e+06
   8.727838e+05  -4.387866e+05
   5.304543e+05   1.887929e+05
   1.139484e+05   2.974539e+05
  -3.778157e+04   6.895243e+04
   7.444568e+04   5.250874e+03
   2.274844e+05   3.147805e+05
   1.774440e+05   6.678014e+05
  -1.542782e+05   5.601135e+05
  -5.526751e+05  -9.320371e+04
  -6.069327e+05  -7.767782e+05
  -1.069304e+05  -8.528763e+05
   6.073612e+05  -2.173798e+05
   8.477585e+05   5.847180e+05
   2.860192e+05   9.023672e+05
  -5.928387e+05   5.647958e+05
  -9.307152e+05  -7.197180e+04
  -4.410334e+05  -5.300122e+05
   2.492734e+05  -5.762391e+05
   3.393083e+05  -3.008545e+05
  -1.793992e+05  -1.178729e+03
  -5.278027e+05   2.612131e+04
  -1.237404e+05  -2.603468e+05
   6.887645e+05  -5.407458e+05
   1.063109e+06  -4.039827e+05
   6.468710e+05   1.781436e+05
  -9.098928e+04   7.223349e+05
  -4.889513e+05   7.037317e+05
  -3.774870e+05   1.433705e+05
  -5.048016e+04  -3.845782e+05
   1.987658e+05  -3.677980e+05
   2.864430e+05   1.035953e+05
   2.038814e+05   4.771945e+05
  -4.412313e+04   3.711598e+05
  -3.218924e+05  -3.226958e+04
  -3.940351e+05  -2.536127e+05
  -1.975183e+05  -9.704878e+04
   3.696408e+04   1.421475e+05
   6.638714e+04   7.399645e+04
  -3.738574e+04  -2.768373e+05
   3.946892e+03  -4.782621e+05
   2.518608e+05  -2.180747e+05
   4.032975e+05   2.910582e+05
   1.618162e+05   5.319876e+05
  -3.279795e+05   2.651686e+05
  -5.586055e+05  -2.230368e+05
  -2.136859e+05  -4.653054e+05
   4.290024e+05  -2.970081e+05
   7.388166e+05   6.307841e+04
   3.959961e+05   3.160713e+05
  -2.470573e+05   3.432400e+05
  -5.352851e+05   2.013767e+05
  -2.252037e+05   1.517143e+04
   2.592898e+05  -7.245686e+04
   3.246035e+05   2.968638e+04
  -1.191528e+05   2.216958e+05
  -5.779975e+05   2.163370e+05
