
 $NMID
 id='ANONYMOUS ', fmtdat='(2E16.6)'
 volume=1.0
 tramp=1.0
 $END
  -3.466754e+07  -2.430886e+05
  -2.178326e+07  -1.871163e+07
   2.321998e+06  -2.244743e+07
   1.575678e+07  -1.186661e+07
   1.124434e+07   1.139940e+06
  -5.297034e+05   5.907681e+06
  -6.472540e+06   1.379362e+06
  -3.646237e+06  -5.666346e+06
   2.523150e+06  -7.772774e+06
   6.166229e+06  -2.898377e+06
   5.045193e+06   4.190975e+06
   6.470139e+05   6.410794e+06
  -2.997271e+06   1.602637e+06
  -2.304697e+06  -4.843102e+06
   2.074061e+06  -5.741695e+06
   5.344191e+06  -1.635459e+04
   3.618331e+06   6.550330e+06
  -1.888767e+06   8.004613e+06
  -6.455252e+06   3.888569e+06
  -6.734718e+06  -1.717729e+06
  -3.386036e+06  -4.834779e+06
   1.900637e+05  -4.536105e+06
   9.819180e+05  -2.724279e+06
  -9.332053e+05  -2.023780e+06
  -2.208085e+06  -3.259598e+06
   3.174604e+05  -4.499560e+06
   5.408862e+06  -3.201060e+06
   7.973149e+06   5.089601e+05
   4.863585e+06   3.620611e+06
  -1.027338e+06   3.614232e+06
  -3.966892e+06   1.071547e+06
  -1.879276e+06  -1.430280e+06
   2.021280e+06  -1.932328e+06
   3.634058e+06  -1.742166e+05
   2.127755e+06   2.580793e+06
  -4.375877e+05   3.995443e+06
  -1.863615e+06   2.330889e+06
  -1.438672e+06  -1.105636e+06
  -1.710463e+04  -2.473906e+06
   6.834931e+05   2.541001e+03
  -3.746818e+05   3.067079e+06
  -2.083391e+06   2.262676e+06
  -2.014131e+06  -1.843489e+06
   5.940505e+05  -3.946803e+06
   3.333637e+06  -9.508006e+05
   3.010156e+06   3.890893e+06
  -7.150535e+05   5.130245e+06
  -4.733821e+06   1.611649e+06
  -5.480125e+06  -2.916272e+06
  -2.203399e+06  -4.535016e+06
   2.422187e+06  -2.692659e+06
   4.588299e+06   4.306538e+05
   2.668328e+06   2.321016e+06
  -1.212871e+06   1.826240e+06
  -3.187536e+06  -2.018554e+05
  -1.661986e+06  -1.599455e+06
   1.051647e+06  -1.001269e+06
   1.637962e+06   6.186070e+05
  -2.297885e+05   1.151143e+06
  -1.762622e+06  -2.834124e+04
  -7.173476e+05  -1.458340e+06
   1.944633e+06  -1.511221e+06
   3.364727e+06   1.950287e+04
   1.907904e+06   2.225317e+06
  -1.477905e+06   3.861708e+06
  -4.390632e+06   3.628104e+06
  -4.944934e+06   9.550963e+05
  -3.076595e+06  -2.781427e+06
  -4.688551e+05  -4.851965e+06
   9.669923e+05  -3.956859e+06
   8.716891e+05  -1.777412e+06
   5.597430e+05  -8.072264e+05
   1.231775e+06  -1.207302e+06
   2.463977e+06  -1.009052e+06
   2.806288e+06   7.812197e+05
   1.534197e+06   2.626285e+06
  -6.018286e+05   2.415101e+06
  -2.104460e+06   7.552638e+04
  -1.841725e+06  -2.362929e+06
   1.862160e+05  -2.863983e+06
   2.612752e+06  -1.118893e+06
   3.499938e+06   1.454754e+06
   2.091138e+06   3.024935e+06
  -2.469519e+05   2.830365e+06
  -1.473123e+06   1.672203e+06
  -1.273739e+06   9.044379e+05
  -1.261080e+06   9.090122e+05
  -2.546685e+06   7.907395e+05
  -3.944678e+06  -3.808050e+05
  -3.304541e+06  -2.354397e+06
  -2.682941e+05  -3.859619e+06
   3.036646e+06  -3.729782e+06
   4.104911e+06  -1.824747e+06
   2.450152e+06   7.561456e+05
  -1.275783e+05   2.265544e+06
  -1.352293e+06   1.671599e+06
  -4.997191e+05  -1.780408e+05
   1.138488e+06  -1.195612e+06
   1.699581e+06  -3.483083e+05
   6.865349e+05   1.068576e+06
  -6.124328e+05   1.086895e+06
  -6.682667e+05  -3.022768e+05
   5.731964e+05  -1.059579e+06
   1.719682e+06   2.597240e+05
   1.443634e+06   2.599115e+06
  -3.255308e+05   3.586317e+06
  -2.487377e+06   2.129479e+06
  -3.615268e+06  -6.336252e+05
  -2.873678e+06  -2.654297e+06
  -7.048315e+05  -2.783409e+06
   1.273610e+06  -1.473688e+06
   1.594994e+06  -1.611733e+05
   4.733062e+05   3.605944e+04
  -3.697538e+05  -7.027592e+05
   2.748669e+05  -1.181683e+06
   1.616020e+06  -5.694997e+05
   1.859725e+06   6.316998e+05
   4.841287e+05   1.202750e+06
  -1.057979e+06   6.308831e+05
  -1.015832e+06  -3.855220e+05
   6.720203e+05  -7.666433e+05
   2.290124e+06  -7.409594e+04
   2.092864e+06   1.224400e+06
   2.424914e+04   2.144318e+06
  -2.202493e+06   1.852305e+06
  -2.694808e+06   3.932210e+05
  -1.169199e+06  -1.097288e+06
   7.898795e+05  -1.308311e+06
   1.320389e+06  -1.667759e+05
   1.168512e+05   9.450318e+05
  -1.404075e+06   7.043710e+05
  -1.676579e+06  -6.251547e+05
  -5.175586e+05  -1.548849e+06
   8.849585e+05  -1.115129e+06
   1.251624e+06   7.289409e+04
   3.953296e+05   6.739626e+05
  -6.690209e+05   1.004702e+05
  -6.919284e+05  -9.675613e+05
   5.606860e+05  -1.353908e+06
   1.931399e+06  -5.109960e+05
   1.947169e+06   9.919880e+05
   4.110607e+05   1.954599e+06
  -1.283420e+06   1.601782e+06
  -1.621708e+06   3.007964e+05
  -5.645707e+05  -7.860111e+05
   5.773626e+05  -8.291332e+05
   7.016501e+05  -8.403057e+04
  -1.580076e+04   5.115359e+05
  -5.886076e+05   3.940908e+05
  -3.911515e+05  -8.657304e+04
   2.783994e+05  -1.608844e+05
   5.827701e+05   4.376229e+05
  -3.465815e+04   1.103402e+06
  -1.251695e+06   9.300906e+05
  -2.007984e+06  -3.192909e+05
  -1.445993e+06  -1.822665e+06
   1.526601e+05  -2.373659e+06
   1.539032e+06  -1.524115e+06
   1.751077e+06  -2.110681e+04
   1.041088e+06   9.476382e+05
   3.961435e+05   8.987318e+05
   3.284657e+05   3.820689e+05
   4.317074e+05   2.301248e+05
   7.529561e+04   6.174989e+05
  -7.600539e+05   9.188464e+05
  -1.415415e+06   4.505169e+05
  -1.164660e+06  -6.915214e+05
   1.070516e+05  -1.558078e+06
   1.643816e+06  -1.189725e+06
   2.243275e+06   3.749819e+05
   1.235110e+06   1.966199e+06
  -7.803940e+05   2.293215e+06
  -2.322178e+06   1.152219e+06
  -2.348780e+06  -4.269606e+05
  -1.163391e+06  -1.251994e+06
   5.346191e+04  -1.089507e+06
   4.789452e+05  -6.730073e+05
   2.868995e+05  -7.225314e+05
   1.903220e+05  -1.130743e+06
   5.854145e+05  -1.151990e+06
   1.172722e+06  -2.985964e+05
   1.284584e+06   1.031127e+06
   5.628280e+05   1.830702e+06
  -5.907143e+05   1.406170e+06
  -1.258045e+06   5.745421e+04
  -8.525819e+05  -1.153055e+06
   2.360589e+05  -1.342064e+06
   9.806619e+05  -5.431307e+05
   7.743764e+05   4.551444e+05
   3.904203e+04   9.230436e+05
  -3.237569e+05   7.841851e+05
   1.980174e+03   4.717569e+05
   3.951752e+05   3.545123e+05
   4.618179e+04   3.854551e+05
  -1.042287e+06   2.496076e+05
  -1.914102e+06  -2.405542e+05
  -1.583424e+06  -9.043782e+05
  -1.003632e+05  -1.301706e+06
   1.385486e+06  -1.096879e+06
   1.715519e+06  -3.867529e+05
   8.507703e+05   3.131188e+05
  -1.852593e+05   4.856956e+05
  -4.519714e+05   1.014601e+05
   9.570813e+03  -3.212232e+05
   4.700172e+05  -2.345285e+05
   4.550346e+05   3.245775e+05
   1.551700e+05   7.291531e+05
   3.465968e+03   4.736435e+05
   1.386942e+05  -1.681920e+05
   3.405995e+05  -3.848041e+05
   2.921055e+05   2.039158e+05
  -1.643906e+05   9.959649e+05
  -8.421347e+05   1.032420e+06
  -1.194550e+06   1.244495e+05
  -7.216688e+05  -8.769663e+05
   3.825575e+05  -1.013887e+06
   1.144564e+06  -2.483196e+05
   7.075363e+05   5.747672e+05
  -6.387298e+05   6.632080e+05
  -1.586394e+06   2.011726e+03
  -1.133070e+06  -7.814408e+05
   3.415296e+05  -1.052801e+06
   1.466913e+06  -6.467382e+05
   1.294127e+06   7.667466e+04
   1.970298e+05   5.195774e+05
  -6.117232e+05   3.256396e+05
  -3.457613e+05  -2.469904e+05
   6.088401e+05  -4.727709e+05
   1.146728e+06   1.319213e+05
   5.855291e+05   1.180386e+06
  -6.531611e+05   1.635352e+06
  -1.485555e+06   8.236078e+05
  -1.236200e+06  -7.561849e+05
  -2.169880e+05  -1.772909e+06
   7.009875e+05  -1.334826e+06
   9.264055e+05   9.179365e+04
   5.114749e+05   1.149053e+06
  -1.112522e+05   9.995317e+05
  -5.234690e+05   1.286097e+05
  -5.262489e+05  -3.732555e+05
  -2.313839e+05  -1.511016e+05
  -1.964700e+04   1.143266e+05
  -1.825003e+05  -2.418778e+05
  -4.814829e+05  -9.202578e+05
  -2.888319e+05  -1.067377e+06
   6.011067e+05  -4.126262e+05
   1.470109e+06   4.310865e+05
   1.348095e+06   7.945697e+05
   2.034504e+05   6.654309e+05
  -8.954754e+05   4.217010e+05
  -9.862941e+05   2.229401e+05
  -2.983472e+05  -8.351767e+03
   1.649446e+05  -2.178064e+05
  -4.624153e+04  -2.369797e+05
  -3.445366e+05  -1.287781e+05
  -2.089557e+04  -1.359740e+05
   7.326526e+05  -2.138141e+05
   1.016702e+06   2.153096e+04
   3.151601e+05   6.635527e+05
  -8.870285e+05   1.119307e+06
  -1.603505e+06   7.014730e+05
  -1.290774e+06  -4.536809e+05
  -2.559785e+05  -1.388412e+06
   7.139674e+05  -1.329320e+06
   1.021443e+06  -4.868397e+05
   6.579353e+05   2.622622e+05
   1.021724e+05   3.494255e+05
  -1.368355e+05   2.313339e+04
   5.212928e+04  -6.875314e+04
   3.338283e+05   3.316145e+05
   2.828725e+05   7.870650e+05
  -1.838911e+05   6.518799e+05
  -6.857242e+05  -1.607212e+05
  -6.920170e+05  -9.748742e+05
  -4.278609e+04  -1.003928e+06
   7.814469e+05  -1.826254e+05
   9.999768e+05   7.601900e+05
   3.054748e+05   1.060631e+06
  -7.043705e+05   6.183730e+05
  -1.061094e+06  -8.300638e+04
  -4.844246e+05  -5.467289e+05
   2.711490e+05  -6.022468e+05
   3.099363e+05  -3.468039e+05
  -3.065469e+05  -2.844673e+04
  -6.523212e+05   3.586939e+04
  -1.241320e+05  -2.883079e+05
   8.003275e+05  -6.820193e+05
   1.170258e+06  -5.876927e+05
   6.822554e+05   1.182871e+05
  -9.205983e+04   8.266622e+05
  -4.770042e+05   8.151575e+05
  -3.535655e+05   1.143630e+05
  -2.513419e+04  -4.957185e+05
   2.429095e+05  -3.947478e+05
   3.519455e+05   1.962271e+05
   2.456498e+05   5.649196e+05
  -6.472700e+04   3.678629e+05
  -3.817272e+05  -6.466503e+04
  -4.467632e+05  -2.315878e+05
  -2.360232e+05  -5.682547e+04
   4.829982e+03   1.037676e+05
   7.647087e+04  -4.962906e+04
   6.131041e+04  -3.854241e+05
   1.569338e+05  -4.819628e+05
   3.499712e+05  -1.159516e+05
   3.803760e+05   4.368535e+05
   6.044722e+04   6.455545e+05
  -4.262004e+05   2.851290e+05
  -6.169595e+05  -3.060897e+05
  -2.260942e+05  -5.826255e+05
   4.767169e+05  -3.533840e+05
   8.323650e+05   9.238432e+04
   4.556855e+05   3.673836e+05
  -2.858507e+05   3.525107e+05
  -6.106871e+05   1.768138e+05
  -2.015377e+05   9.131456e+03
   4.015167e+05  -2.789419e+04
   4.263276e+05   1.199697e+05
  -2.102800e+05   3.259887e+05
  -8.071289e+05   2.737068e+05
