
 $NMID
 id='ANONYMOUS ', fmtdat='(2E16.6)'
 volume=1.0
 tramp=1.0
 $END
   2.035092e+07  -1.740412e+05
   1.385506e+07   9.017329e+06
   4.640899e+05   1.275891e+07
  -8.527892e+06   9.110267e+06
  -7.581866e+06   1.432386e+06
  -7.579267e+05  -3.698958e+06
   4.180975e+06  -2.243594e+06
   3.483625e+06   3.175852e+06
  -6.742588e+05   5.973190e+06
  -3.837534e+06   2.845279e+06
  -3.486216e+06  -2.666498e+06
  -5.114222e+05  -4.481479e+06
   2.061264e+06  -9.177991e+05
   1.753852e+06   3.782495e+06
  -1.100333e+06   4.495076e+06
  -3.519015e+06   5.776390e+05
  -2.758394e+06  -4.046802e+06
   7.918550e+05  -5.255418e+06
   3.938578e+06  -2.528937e+06
   4.026359e+06   1.219021e+06
   1.614123e+06   2.903570e+06
  -3.798757e+05   2.137672e+06
   4.686140e+04   1.053672e+06
   1.856881e+06   1.578071e+06
   2.153735e+06   3.231004e+06
  -5.757723e+05   3.828895e+06
  -4.483291e+06   2.105223e+06
  -5.902922e+06  -8.486049e+05
  -3.166685e+06  -2.762324e+06
   1.312551e+06  -2.353719e+06
   3.312451e+06  -2.444010e+05
   1.234461e+06   1.736217e+06
  -2.297523e+06   1.891222e+06
  -3.534511e+06  -9.479118e+04
  -1.664123e+06  -2.628612e+06
   8.548541e+05  -3.305742e+06
   1.542784e+06  -1.331908e+06
   4.511964e+05   1.238599e+06
  -6.178458e+05   1.523912e+06
  -4.426934e+05  -7.573293e+05
   6.645606e+05  -2.744328e+06
   1.621350e+06  -1.848524e+06
   1.545338e+06   1.011190e+06
   2.644152e+05   2.493864e+06
  -1.369705e+06   8.755690e+05
  -1.750842e+06  -1.994238e+06
   5.887418e+04  -2.971761e+06
   2.869560e+06  -1.068003e+06
   3.995433e+06   1.841798e+06
   1.966477e+06   3.231221e+06
  -1.632264e+06   2.242888e+06
  -3.588679e+06   3.856965e+04
  -2.344007e+06  -1.519228e+06
   5.265730e+05  -1.415146e+06
   2.149629e+06  -1.417327e+05
   1.310591e+06   8.918843e+05
  -5.970196e+05   7.039152e+05
  -1.332531e+06  -3.646725e+05
  -2.199919e+05  -1.088521e+06
   1.257371e+06  -6.619952e+05
   1.186497e+06   4.985185e+05
  -5.734040e+05   1.188432e+06
  -2.104219e+06   5.392436e+05
  -1.471526e+06  -1.180760e+06
   1.104314e+06  -2.661029e+06
   3.418226e+06  -2.506919e+06
   3.607301e+06  -4.659916e+05
   1.948798e+06   2.145822e+06
   1.971159e+05   3.506036e+06
  -4.725970e+05   3.003662e+06
  -4.327872e+05   1.730614e+06
  -6.906122e+05   1.061543e+06
  -1.549396e+06   1.008972e+06
  -2.355412e+06   4.472162e+05
  -2.258113e+06  -1.088687e+06
  -1.007762e+06  -2.440500e+06
   7.824146e+05  -2.063552e+06
   1.944120e+06   3.888666e+04
   1.541203e+06   2.093906e+06
  -2.605926e+05   2.330232e+06
  -2.093402e+06   6.901455e+05
  -2.492137e+06  -1.314985e+06
  -1.286796e+06  -2.206465e+06
   2.659353e+05  -1.796496e+06
   8.934196e+05  -9.977577e+05
   6.935660e+05  -6.835486e+05
   8.495569e+05  -8.461176e+05
   1.980722e+06  -7.519796e+05
   3.119916e+06   2.123326e+05
   2.649183e+06   1.831605e+06
   2.307760e+05   3.098368e+06
  -2.495123e+06   2.980318e+06
  -3.383311e+06   1.338428e+06
  -1.919522e+06  -7.778498e+05
   2.953583e+05  -1.862923e+06
   1.223722e+06  -1.253242e+06
   3.769237e+05   1.991042e+05
  -9.670547e+05   9.224509e+05
  -1.319108e+06   2.589888e+05
  -4.685377e+05  -8.220959e+05
   5.466916e+05  -8.754281e+05
   6.399958e+05   2.278468e+05
  -3.054943e+05   1.025622e+06
  -1.401148e+06   1.700930e+05
  -1.508960e+06  -1.855018e+06
  -1.748182e+05  -3.087078e+06
   1.874962e+06  -2.157092e+06
   3.144275e+06   2.688905e+05
   2.586362e+06   2.221740e+06
   6.362128e+05   2.392913e+06
  -1.089453e+06   1.205034e+06
  -1.326703e+06   8.667791e+04
  -3.853161e+05  -3.026837e+04
   3.012661e+05   5.633817e+05
  -1.785398e+05   9.100617e+05
  -1.219837e+06   4.576015e+05
  -1.465306e+06  -4.295710e+05
  -4.363715e+05  -9.092529e+05
   8.295841e+05  -5.321473e+05
   8.795263e+05   3.050997e+05
  -5.074555e+05   7.228523e+05
  -1.951872e+06   1.777389e+05
  -1.855261e+06  -1.003611e+06
  -9.177534e+04  -1.852210e+06
   1.810402e+06  -1.584133e+06
   2.205005e+06  -3.425138e+05
   9.418003e+05   8.484743e+05
  -6.044982e+05   9.969401e+05
  -9.919427e+05   1.255141e+05
  -5.738711e+04  -7.182634e+05
   1.117411e+06  -5.534359e+05
   1.364087e+06   4.697467e+05
   4.878544e+05   1.247965e+06
  -6.612869e+05   9.748991e+05
  -1.036590e+06   2.636287e+04
  -3.845116e+05  -5.164079e+05
   4.968995e+05  -9.223949e+04
   5.349123e+05   7.711737e+05
  -4.776302e+05   1.076372e+06
  -1.569109e+06   3.794773e+05
  -1.558079e+06  -8.203235e+05
  -3.287872e+05  -1.570585e+06
   1.013587e+06  -1.296099e+06
   1.303846e+06  -2.731623e+05
   4.884844e+05   6.196132e+05
  -4.496492e+05   6.891152e+05
  -6.038352e+05   6.356361e+04
  -1.376168e+04  -4.818907e+05
   5.375146e+05  -3.835461e+05
   4.264644e+05   9.846903e+04
  -1.769511e+05   2.302175e+05
  -5.120876e+05  -2.815056e+05
  -2.617296e+04  -8.864718e+05
   9.985414e+05  -7.689871e+05
   1.628370e+06   2.529705e+05
   1.165022e+06   1.477609e+06
  -1.307680e+05   1.943662e+06
  -1.265336e+06   1.289166e+06
  -1.480500e+06   5.312668e+04
  -9.253585e+05  -8.261928e+05
  -3.416754e+05  -8.549435e+05
  -2.003019e+05  -3.842716e+05
  -2.762271e+05  -1.583022e+05
  -5.032428e+04  -4.549775e+05
   5.993747e+05  -7.626625e+05
   1.173568e+06  -4.020878e+05
   1.003209e+06   5.863028e+05
  -5.918052e+04   1.335906e+06
  -1.352676e+06   1.009612e+06
  -1.852146e+06  -2.999312e+05
  -1.038165e+06  -1.591264e+06
   5.809190e+05  -1.860951e+06
   1.848286e+06  -9.770210e+05
   1.942720e+06   2.883042e+05
   1.033941e+06   1.021246e+06
  -7.441663e+02   9.644575e+05
  -4.483698e+05   6.142747e+05
  -3.326715e+05   5.740277e+05
  -2.026896e+05   8.570648e+05
  -4.599351e+05   8.911470e+05
  -9.229367e+05   2.261682e+05
  -1.026913e+06  -8.484957e+05
  -4.438526e+05  -1.494758e+06
   4.937124e+05  -1.141771e+06
   1.030015e+06  -5.542997e+04
   7.085621e+05   9.121511e+05
  -1.482959e+05   1.088401e+06
  -7.467822e+05   4.974325e+05
  -6.254661e+05  -2.864164e+05
  -9.043846e+04  -7.053596e+05
   1.907836e+05  -6.499878e+05
  -3.049252e+04  -4.155431e+05
  -3.065739e+05  -3.073609e+05
  -2.645398e+04  -3.219654e+05
   8.246412e+05  -2.104835e+05
   1.521850e+06   1.864332e+05
   1.285827e+06   7.155876e+05
   1.243747e+05   1.024959e+06
  -1.075723e+06   8.735318e+05
  -1.378196e+06   3.447631e+05
  -7.104832e+05  -1.951299e+05
   1.269207e+05  -3.666179e+05
   3.528425e+05  -1.070708e+05
  -2.681005e+04   2.251284e+05
  -4.044090e+05   1.788168e+05
  -3.628269e+05  -2.675357e+05
  -7.701441e+04  -6.077148e+05
   4.256267e+04  -3.880202e+05
  -1.208176e+05   1.685427e+05
  -3.168494e+05   3.496038e+05
  -2.456748e+05  -1.648830e+05
   1.638209e+05  -8.273204e+05
   6.901543e+05  -8.273108e+05
   9.189322e+05  -6.420516e+04
   5.285371e+05   7.193556e+05
  -3.164264e+05   7.805581e+05
  -9.019964e+05   1.522468e+05
  -5.665657e+05  -4.872220e+05
   5.120178e+05  -5.483572e+05
   1.316315e+06  -2.107559e+04
   9.845023e+05   6.320728e+05
  -2.384619e+05   8.988359e+05
  -1.215097e+06   5.878864e+05
  -1.099821e+06  -3.465331e+04
  -1.827318e+05  -4.368691e+05
   4.952752e+05  -2.857366e+05
   2.655343e+05   1.877454e+05
  -5.210701e+05   3.583197e+05
  -9.292709e+05  -1.499766e+05
  -4.270590e+05  -9.844564e+05
   5.942267e+05  -1.312016e+06
   1.243085e+06  -6.303866e+05
   1.003120e+06   6.450370e+05
   1.583875e+05   1.463857e+06
  -5.849327e+05   1.113634e+06
  -7.679833e+05  -5.245801e+04
  -4.422283e+05  -9.417770e+05
   5.944770e+04  -8.413027e+05
   4.184231e+05  -1.183615e+05
   4.569750e+05   3.170811e+05
   2.197872e+05   1.362484e+05
   4.532098e+03  -1.039471e+05
   1.024122e+05   1.763112e+05
   3.713082e+05   7.473452e+05
   2.683278e+05   8.847777e+05
  -4.512253e+05   3.424359e+05
  -1.208920e+06  -3.648761e+05
  -1.136606e+06  -6.618617e+05
  -1.666761e+05  -5.397162e+05
   7.694440e+05  -3.347323e+05
   8.227380e+05  -1.873422e+05
   2.180891e+05  -1.059764e+04
  -1.490264e+05   1.736338e+05
   7.362562e+04   2.148335e+05
   3.206261e+05   1.317483e+05
  -7.393494e+02   1.137826e+05
  -6.453438e+05   1.509610e+05
  -8.262325e+05  -4.106559e+04
  -1.911476e+05  -5.386573e+05
   7.762724e+05  -8.807811e+05
   1.292016e+06  -5.262336e+05
   1.000468e+06   4.085312e+05
   1.768677e+05   1.145910e+06
  -5.892884e+05   1.065565e+06
  -8.404094e+05   3.579292e+05
  -5.401046e+05  -2.455741e+05
  -6.136063e+04  -2.860432e+05
   1.467217e+05   7.223946e+03
  -3.098454e+04   8.292912e+04
  -2.876610e+05  -2.634714e+05
  -2.375296e+05  -6.467630e+05
   1.664829e+05  -5.214783e+05
   5.655834e+05   1.673819e+05
   5.288446e+05   8.319001e+05
  -2.158922e+04   8.163626e+05
  -6.643792e+05   1.011230e+05
  -7.943427e+05  -6.699311e+05
  -2.098915e+05  -8.691535e+05
   5.906067e+05  -4.673068e+05
   8.472713e+05   9.380121e+04
   3.664263e+05   4.274984e+05
  -2.274676e+05   4.534513e+05
  -2.266028e+05   2.707072e+05
   2.850242e+05   4.098312e+04
   5.431386e+05  -1.435718e+04
   8.554475e+04   2.307963e+05
  -6.636602e+05   5.514567e+05
  -9.352562e+05   4.908532e+05
  -5.218290e+05  -7.843854e+04
   8.962812e+04  -6.606453e+05
   3.708776e+05  -6.458089e+05
   2.560403e+05  -6.360329e+04
  -5.012234e+03   4.199498e+05
  -2.108954e+05   3.003767e+05
  -2.867773e+05  -1.965361e+05
  -1.875783e+05  -4.666429e+05
   6.661288e+04  -2.712707e+05
   3.095894e+05   7.214489e+04
   3.509447e+05   1.739560e+05
   1.919682e+05   3.038096e+04
   1.333012e+04  -6.026232e+04
  -6.297200e+04   9.015840e+04
  -9.939982e+04   3.340101e+05
  -1.970161e+05   3.569435e+05
  -3.073649e+05   3.230220e+04
  -2.624830e+05  -4.000567e+05
   1.625879e+04  -5.334335e+05
   3.688449e+05  -2.107792e+05
   4.784030e+05   2.808899e+05
   1.592726e+05   4.925353e+05
  -3.858298e+05   2.766120e+05
  -6.600192e+05  -1.029381e+05
  -3.571370e+05  -3.082158e+05
   2.390600e+05  -2.598102e+05
   4.931898e+05  -1.058408e+05
   1.401775e+05   5.699512e+02
  -3.629716e+05  -9.202788e+03
  -3.599661e+05  -1.401041e+05
   2.054355e+05  -2.839777e+05
   7.106246e+05  -2.092982e+05
