
 $NMID
 id='ANONYMOUS ', fmtdat='(2E16.6)'
 volume=1.0
 tramp=1.0
 $END
   5.197201e+07  -9.350222e+05
   3.231445e+07   3.081989e+07
  -5.462199e+06   3.513693e+07
  -2.498942e+07   1.492980e+07
  -1.583657e+07  -5.287217e+06
   2.439359e+06  -8.802215e+06
   9.328902e+06   3.339204e+05
   3.337693e+06   8.962044e+06
  -5.270789e+06   9.401825e+06
  -9.024563e+06   2.504957e+06
  -6.771530e+06  -5.744826e+06
  -8.987889e+05  -8.265548e+06
   3.788760e+06  -2.556787e+06
   2.654684e+06   5.449129e+06
  -3.373323e+06   6.631355e+06
  -7.483034e+06  -8.692043e+05
  -4.533000e+06  -9.467397e+06
   3.188958e+06  -1.120361e+07
   9.307173e+06  -5.698941e+06
   1.001817e+07   1.836683e+06
   6.035642e+06   6.822109e+06
   6.589613e+05   7.707162e+06
  -2.283544e+06   5.391535e+06
  -1.069025e+06   2.743913e+06
   1.408844e+06   2.625837e+06
   6.905666e+04   4.395173e+06
  -5.547874e+06   4.193665e+06
  -9.465836e+06   2.913579e+05
  -6.681616e+06  -4.024771e+06
   4.494769e+04  -4.753142e+06
   3.852097e+06  -2.206349e+06
   2.313845e+06   3.838104e+05
  -1.102774e+06   1.194385e+06
  -2.753791e+06   3.407176e+05
  -2.198370e+06  -1.830125e+06
  -3.754641e+05  -4.044073e+06
   1.815208e+06  -3.542536e+06
   2.769626e+06   3.153046e+05
   1.328215e+06   3.339339e+06
  -6.784001e+05   1.425968e+06
  -1.056302e+05  -2.695420e+06
   2.443999e+06  -2.395127e+06
   2.478262e+06   2.893035e+06
  -1.866151e+06   5.803984e+06
  -6.128434e+06   1.212211e+06
  -4.827843e+06  -6.177960e+06
   1.464240e+06  -7.892074e+06
   6.864681e+06  -2.394490e+06
   6.847020e+06   4.098292e+06
   2.089713e+06   5.839542e+06
  -3.299559e+06   2.860280e+06
  -5.318050e+06  -1.233139e+06
  -2.649617e+06  -3.293153e+06
   2.130777e+06  -2.232151e+06
   4.336767e+06   6.788280e+05
   1.996023e+06   2.477521e+06
  -1.565252e+06   1.345109e+06
  -1.798125e+06  -9.422552e+05
   1.057005e+06  -1.081667e+06
   2.448291e+06   1.266499e+06
  -1.352138e+05   3.045788e+06
  -3.979684e+06   1.992936e+06
  -4.993883e+06  -9.125924e+05
  -2.370046e+06  -3.587237e+06
   1.714720e+06  -5.062015e+06
   4.967885e+06  -4.688524e+06
   6.023877e+06  -1.628705e+06
   4.321916e+06   3.099110e+06
   8.955415e+05   5.995986e+06
  -1.632982e+06   4.760718e+06
  -1.599696e+06   1.485057e+06
  -3.509951e+05   3.701192e+04
  -3.679094e+05   1.018474e+06
  -1.890363e+06   1.575108e+06
  -2.871644e+06  -6.421997e+04
  -1.922653e+06  -2.198030e+06
   1.798544e+05  -2.283829e+06
   1.778855e+06  -1.439049e+05
   1.780366e+06   2.262022e+06
  -5.454628e+04   3.027560e+06
  -2.809675e+06   1.565730e+06
  -4.347242e+06  -1.275901e+06
  -3.045984e+06  -3.638723e+06
   3.470994e+04  -3.969688e+06
   2.077849e+06  -2.553951e+06
   2.027401e+06  -1.162059e+06
   1.753229e+06  -8.064790e+05
   2.968060e+06  -6.067018e+05
   4.433863e+06   6.709474e+05
   3.597484e+06   2.763945e+06
   1.793875e+05   4.236026e+06
  -3.299336e+06   4.020572e+06
  -4.327217e+06   2.118399e+06
  -2.693220e+06  -5.342134e+05
  -1.610899e+05  -2.321547e+06
   1.214076e+06  -1.926619e+06
   5.620076e+05   7.610355e+04
  -1.148296e+06   1.328813e+06
  -1.929214e+06   4.090660e+05
  -8.988084e+05  -1.207823e+06
   5.689486e+05  -1.150407e+06
   5.212147e+05   3.949959e+05
  -9.911298e+05   8.583363e+05
  -1.951533e+06  -1.041936e+06
  -9.459274e+05  -3.428163e+06
   1.312868e+06  -3.679348e+06
   3.149890e+06  -1.484594e+06
   3.585887e+06   1.301803e+06
   2.546831e+06   2.894785e+06
   5.275264e+05   2.793263e+06
  -1.312295e+06   1.527416e+06
  -1.652137e+06   2.135190e+05
  -5.106725e+05  -4.563339e+04
   3.781263e+05   7.744070e+05
  -3.888983e+05   1.364046e+06
  -1.914627e+06   6.128104e+05
  -2.090267e+06  -8.535228e+05
  -4.383404e+05  -1.428724e+06
   1.199044e+06  -6.162360e+05
   9.666106e+05   4.671518e+05
  -8.558735e+05   6.176472e+05
  -2.332139e+06  -2.422478e+05
  -1.922048e+06  -1.409753e+06
   2.031505e+05  -2.123573e+06
   2.403594e+06  -1.781893e+06
   2.888633e+06  -3.133426e+05
   1.266168e+06   1.279869e+06
  -9.204494e+05   1.523533e+06
  -1.566808e+06   2.011634e+05
  -1.920430e+05  -1.089692e+06
   1.557477e+06  -7.637205e+05
   1.793473e+06   7.799156e+05
   4.012396e+05   1.713289e+06
  -1.098997e+06   1.066806e+06
  -1.326562e+06  -2.673072e+05
  -2.999604e+05  -7.983595e+05
   8.022698e+05  -7.309453e+04
   7.598501e+05   1.080200e+06
  -6.000701e+05   1.471075e+06
  -2.082000e+06   5.573071e+05
  -2.108007e+06  -1.085896e+06
  -4.089943e+05  -2.143778e+06
   1.470169e+06  -1.713578e+06
   1.786351e+06  -2.439056e+05
   5.440384e+05   8.929941e+05
  -6.722591e+05   8.499322e+05
  -6.810436e+05   7.661816e+04
   1.073759e+05  -4.209366e+05
   5.502736e+05  -2.584370e+05
   1.957028e+05   8.942738e+04
  -4.385674e+05  -1.181007e+04
  -5.689915e+05  -6.491241e+05
   1.723570e+05  -1.229911e+06
   1.418975e+06  -9.481358e+05
   2.164046e+06   4.125470e+05
   1.528981e+06   2.007503e+06
  -2.154536e+05   2.525115e+06
  -1.681722e+06   1.506158e+06
  -1.792039e+06  -1.032170e+05
  -9.392514e+05  -9.644411e+05
  -3.370463e+05  -7.513552e+05
  -4.517065e+05  -2.651955e+05
  -6.094332e+05  -2.984176e+05
  -9.614323e+04  -7.622086e+05
   8.922556e+05  -9.507893e+05
   1.515827e+06  -3.678895e+05
   1.126697e+06   7.588169e+05
  -2.364763e+05   1.559661e+06
  -1.792697e+06   1.150071e+06
  -2.355647e+06  -4.860652e+05
  -1.212189e+06  -2.173162e+06
   1.002689e+06  -2.466392e+06
   2.615025e+06  -1.113405e+06
   2.470111e+06   6.388463e+05
   1.053093e+06   1.393308e+06
  -1.879437e+05   1.033445e+06
  -4.403749e+05   5.689883e+05
  -1.351362e+05   7.691737e+05
  -1.243419e+05   1.318495e+06
  -6.765064e+05   1.316830e+06
  -1.323257e+06   3.313965e+05
  -1.386413e+06  -1.118860e+06
  -5.827568e+05  -1.968371e+06
   6.448932e+05  -1.496317e+06
   1.341463e+06  -1.051459e+04
   8.632188e+05   1.314962e+06
  -3.713426e+05   1.454497e+06
  -1.179754e+06   4.647613e+05
  -8.503148e+05  -6.700100e+05
   8.373537e+04  -1.095811e+06
   5.110227e+05  -8.284540e+05
   7.147212e+04  -4.533779e+05
  -4.424695e+05  -3.551202e+05
  -5.829495e+04  -4.012398e+05
   1.178722e+06  -2.320470e+05
   2.126456e+06   3.228264e+05
   1.688256e+06   1.054754e+06
  -2.657203e+03   1.475974e+06
  -1.613850e+06   1.189683e+06
  -1.894617e+06   3.186822e+05
  -8.845862e+05  -4.761838e+05
   2.518968e+05  -5.787181e+05
   5.247001e+05  -5.341390e+04
   2.694640e+04   4.150905e+05
  -4.690552e+05   2.630187e+05
  -4.983510e+05  -3.529707e+05
  -2.415174e+05  -7.531104e+05
  -7.911762e+04  -4.953603e+05
  -1.480717e+05   1.156036e+05
  -3.113986e+05   3.230664e+05
  -2.927614e+05  -2.382311e+05
   1.550320e+05  -1.032643e+06
   9.272968e+05  -1.109289e+06
   1.384756e+06  -1.793094e+05
   8.637169e+05   9.420442e+05
  -4.212328e+05   1.165577e+06
  -1.286423e+06   3.389693e+05
  -7.615961e+05  -5.984967e+05
   7.221644e+05  -6.839775e+05
   1.665624e+06   8.129674e+04
   1.081662e+06   8.934729e+05
  -4.811584e+05   1.054393e+06
  -1.569932e+06   5.349983e+05
  -1.307428e+06  -1.809620e+05
  -1.521789e+05  -5.420971e+05
   6.747628e+05  -2.941257e+05
   3.966797e+05   2.963914e+05
  -6.132453e+05   5.361064e+05
  -1.227940e+06  -9.040310e+04
  -6.887294e+05  -1.229346e+06
   6.207215e+05  -1.766891e+06
   1.546865e+06  -9.190795e+05
   1.312156e+06   7.879901e+05
   2.192127e+05   1.871096e+06
  -7.675967e+05   1.363768e+06
  -9.725109e+05  -1.696175e+05
  -4.676557e+05  -1.243137e+06
   2.131734e+05  -1.023757e+06
   5.840886e+05  -9.743144e+04
   4.970026e+05   3.962487e+05
   1.802057e+05   1.487123e+05
   4.749322e+04  -1.039460e+05
   2.823986e+05   2.957103e+05
   5.337907e+05   1.001197e+06
   2.160819e+05   1.130469e+06
  -7.318012e+05   4.227870e+05
  -1.544368e+06  -4.772028e+05
  -1.351431e+06  -8.690620e+05
  -1.994549e+05  -7.265222e+05
   8.954904e+05  -4.396219e+05
   1.030340e+06  -1.985554e+05
   3.725673e+05   4.607374e+04
  -1.528426e+05   2.346992e+05
  -2.953226e+04   2.219057e+05
   2.834504e+05   1.047560e+05
   5.062805e+04   1.376857e+05
  -6.956348e+05   2.448572e+05
  -1.090800e+06  -5.143641e+03
  -4.478862e+05  -7.125955e+05
   8.728653e+05  -1.229145e+06
   1.760925e+06  -8.018548e+05
   1.467332e+06   4.369589e+05
   2.966647e+05   1.465102e+06
  -7.859920e+05   1.441926e+06
  -1.088354e+06   5.678431e+05
  -6.851367e+05  -2.398561e+05
  -1.409537e+05  -3.713333e+05
   7.486784e+04  -6.419116e+04
  -8.551284e+04   2.248443e+04
  -3.201284e+05  -3.815988e+05
  -2.670849e+05  -8.430644e+05
   1.806594e+05  -7.093539e+05
   7.107006e+05   1.222172e+05
   7.773216e+05   9.854059e+05
   1.294222e+05   1.071454e+06
  -7.813320e+05   2.629004e+05
  -1.084572e+06  -7.412443e+05
  -3.748852e+05  -1.131138e+06
   7.345848e+05  -7.135102e+05
   1.166721e+06   6.423672e+04
   5.630969e+05   6.304690e+05
  -2.889115e+05   7.100408e+05
  -3.901239e+05   3.907002e+05
   2.581562e+05   1.017789e+04
   6.773397e+05  -4.734470e+04
   1.567990e+05   3.186861e+05
  -8.547814e+05   7.177537e+05
  -1.310456e+06   5.806904e+05
  -7.994864e+05  -1.733123e+05
   8.967112e+04  -9.080848e+05
   5.652154e+05  -9.024196e+05
   4.399983e+05  -1.767496e+05
   6.039546e+04   4.979436e+05
  -2.428637e+05   4.567805e+05
  -3.665586e+05  -1.493520e+05
  -2.721467e+05  -5.991561e+05
   4.721437e+04  -4.462263e+05
   4.074988e+05   4.148214e+04
   5.019676e+05   2.865352e+05
   2.560276e+05   9.801133e+04
  -4.012623e+04  -1.552951e+05
  -9.142372e+04  -4.507389e+04
   1.601113e+04   3.645307e+05
  -4.061104e+04   5.702093e+05
  -3.245216e+05   2.319559e+05
  -4.811161e+05  -3.851300e+05
  -1.734405e+05  -6.689588e+05
   4.200483e+05  -3.328800e+05
   6.962444e+05   2.801839e+05
   2.721893e+05   5.933007e+05
  -5.249671e+05   3.893488e+05
  -9.220435e+05  -6.469444e+04
  -5.055695e+05  -3.869796e+05
   2.991871e+05  -4.230561e+05
   6.619499e+05  -2.490727e+05
   2.622084e+05  -2.505135e+04
  -3.560610e+05   7.455780e+04
  -4.223461e+05  -5.987282e+04
   1.715168e+05  -3.023980e+05
   7.689358e+05  -2.895918e+05
