
 $NMID
 id='ANONYMOUS ', fmtdat='(2E16.6)'
 volume=1.0
 tramp=1.0
 $END
   5.891624e+07  -1.739915e+06
   3.633903e+07   3.597823e+07
  -7.043882e+06   4.029940e+07
  -2.866519e+07   1.564218e+07
  -1.727273e+07  -7.423671e+06
   3.461079e+06  -9.841315e+06
   1.026499e+07   1.374882e+06
   2.852468e+06   1.021872e+07
  -6.459205e+06   9.601540e+06
  -1.000849e+07   2.074042e+06
  -7.361846e+06  -6.215171e+06
  -1.074170e+06  -8.769665e+06
   3.994402e+06  -2.998443e+06
   2.779147e+06   5.349722e+06
  -3.801603e+06   6.655811e+06
  -8.192030e+06  -1.316768e+06
  -4.793557e+06  -1.049675e+07
   3.680419e+06  -1.231957e+07
   1.034275e+07  -6.436853e+06
   1.134590e+07   1.730000e+06
   7.280869e+06   7.577343e+06
   1.112299e+06   9.162742e+06
  -2.998233e+06   6.612486e+06
  -2.238341e+06   2.827062e+06
   9.309842e+05   1.882680e+06
   4.673572e+05   4.005759e+06
  -5.141654e+06   4.660169e+06
  -9.718891e+06   9.499590e+05
  -7.393218e+06  -3.911832e+06
  -6.277358e+05  -5.189946e+06
   3.506713e+06  -2.884701e+06
   2.514056e+06  -3.475278e+05
  -3.201929e+05   7.455364e+05
  -1.968156e+06   5.904610e+05
  -2.187522e+06  -1.128727e+06
  -9.908922e+05  -3.797913e+06
   1.627221e+06  -4.086914e+06
   3.472423e+06  -1.835151e+05
   2.086113e+06   3.698645e+06
  -7.044281e+05   2.248386e+06
  -5.275503e+05  -2.278371e+06
   2.407148e+06  -2.332434e+06
   2.569171e+06   3.293016e+06
  -2.512175e+06   6.469895e+06
  -7.408066e+06   1.227376e+06
  -5.597043e+06  -7.152759e+06
   1.816813e+06  -9.005476e+06
   7.666671e+06  -2.735308e+06
   7.196139e+06   4.422545e+06
   1.919924e+06   6.121599e+06
  -3.517553e+06   2.760774e+06
  -5.319935e+06  -1.542497e+06
  -2.433736e+06  -3.559682e+06
   2.518673e+06  -2.291753e+06
   4.700071e+06   8.990628e+05
   2.040943e+06   2.807371e+06
  -1.760703e+06   1.458519e+06
  -1.753343e+06  -1.032224e+06
   1.465646e+06  -9.077525e+05
   2.617921e+06   1.944461e+06
  -7.204375e+05   3.747028e+06
  -4.941782e+06   2.085742e+06
  -5.578511e+06  -1.395861e+06
  -2.466196e+06  -4.131233e+06
   1.665328e+06  -5.451451e+06
   4.869024e+06  -5.096255e+06
   6.228830e+06  -2.029149e+06
   4.839787e+06   3.019192e+06
   1.187167e+06   6.247068e+06
  -1.844803e+06   4.875935e+06
  -1.857300e+06   1.157123e+06
  -1.102346e+05  -4.311089e+05
   2.710556e+05   9.089136e+05
  -1.369791e+06   1.929017e+06
  -2.750567e+06   4.900560e+05
  -2.126471e+06  -1.719232e+06
  -1.888093e+05  -2.059188e+06
   1.429527e+06  -2.615147e+05
   1.678686e+06   1.952411e+06
   1.160439e+05   2.900143e+06
  -2.697646e+06   1.797337e+06
  -4.593216e+06  -9.921201e+05
  -3.471788e+06  -3.720563e+06
  -1.311828e+05  -4.394368e+06
   2.289687e+06  -2.922948e+06
   2.327192e+06  -1.230627e+06
   1.888187e+06  -6.889280e+05
   2.959459e+06  -5.007381e+05
   4.382098e+06   6.979052e+05
   3.546152e+06   2.707512e+06
   2.139087e+05   4.118625e+06
  -3.091683e+06   3.965762e+06
  -4.073512e+06   2.256258e+06
  -2.667257e+06  -2.840045e+05
  -4.031722e+05  -2.190402e+06
   9.884133e+05  -1.983351e+06
   5.682208e+05  -4.595118e+03
  -1.032142e+06   1.343581e+06
  -1.913838e+06   4.543574e+05
  -9.871120e+05  -1.191062e+06
   4.672485e+05  -1.118951e+06
   3.912856e+05   3.954641e+05
  -1.134376e+06   6.567414e+05
  -1.908407e+06  -1.414980e+06
  -5.885892e+05  -3.604436e+06
   1.727167e+06  -3.392799e+06
   3.210465e+06  -9.939979e+05
   3.255094e+06   1.502349e+06
   2.201561e+06   2.698502e+06
   4.620898e+05   2.537974e+06
  -1.183533e+06   1.476452e+06
  -1.550696e+06   2.777919e+05
  -4.926980e+05  -3.500126e+04
   3.720448e+05   7.469563e+05
  -4.031259e+05   1.374153e+06
  -1.936226e+06   6.262811e+05
  -2.076965e+06  -8.814980e+05
  -3.977589e+05  -1.442251e+06
   1.174525e+06  -5.842202e+05
   8.676501e+05   4.477621e+05
  -8.699519e+05   4.873762e+05
  -2.150504e+06  -3.496679e+05
  -1.687649e+06  -1.334857e+06
   2.600190e+05  -1.924660e+06
   2.272104e+06  -1.653129e+06
   2.759957e+06  -3.132356e+05
   1.249402e+06   1.260977e+06
  -9.004020e+05   1.555594e+06
  -1.594368e+06   2.341331e+05
  -2.462033e+05  -1.096026e+06
   1.511118e+06  -7.770190e+05
   1.734686e+06   7.687454e+05
   3.340277e+05   1.656970e+06
  -1.109860e+06   9.654947e+05
  -1.259464e+06  -3.357418e+05
  -2.285524e+05  -7.979836e+05
   8.207057e+05  -6.608669e+04
   7.705096e+05   1.046175e+06
  -5.367805e+05   1.445289e+06
  -1.995228e+06   5.990736e+05
  -2.067775e+06  -1.002040e+06
  -4.279680e+05  -2.077165e+06
   1.424474e+06  -1.676791e+06
   1.733082e+06  -2.295576e+05
   5.044805e+05   8.712603e+05
  -6.548961e+05   8.080458e+05
  -6.110660e+05   8.789477e+04
   1.352053e+05  -3.271038e+05
   4.617710e+05  -1.742731e+05
   5.942129e+04   6.017539e+04
  -4.891447e+05  -1.191775e+05
  -5.170630e+05  -7.095010e+05
   2.151937e+05  -1.203628e+06
   1.379416e+06  -9.155023e+05
   2.093134e+06   3.797551e+05
   1.507995e+06   1.918432e+06
  -1.683913e+05   2.417184e+06
  -1.585192e+06   1.413660e+06
  -1.663815e+06  -1.198497e+05
  -8.256164e+05  -8.565315e+05
  -3.073954e+05  -5.783275e+05
  -5.120297e+05  -1.630983e+05
  -6.779396e+05  -3.114506e+05
  -1.156943e+05  -7.896571e+05
   8.732454e+05  -9.112584e+05
   1.435120e+06  -3.280492e+05
   1.029426e+06   6.969298e+05
  -2.471236e+05   1.428999e+06
  -1.698772e+06   1.078152e+06
  -2.241693e+06  -4.483989e+05
  -1.153083e+06  -2.086788e+06
   9.968355e+05  -2.391065e+06
   2.549865e+06  -1.058864e+06
   2.349345e+06   6.524795e+05
   9.296109e+05   1.327027e+06
  -2.206914e+05   9.080667e+05
  -3.522836e+05   4.731853e+05
  -5.385382e+03   7.529493e+05
  -4.450871e+04   1.340297e+06
  -6.504420e+05   1.329174e+06
  -1.303552e+06   3.560327e+05
  -1.367666e+06  -1.046865e+06
  -6.007218e+05  -1.878582e+06
   5.858858e+05  -1.448525e+06
   1.281696e+06  -1.629188e+04
   8.294763e+05   1.284316e+06
  -3.895863e+05   1.408964e+06
  -1.189824e+06   3.989645e+05
  -8.343017e+05  -7.312839e+05
   1.336155e+05  -1.109994e+06
   5.659986e+05  -7.911822e+05
   9.701427e+04  -4.009965e+05
  -4.476830e+05  -3.149812e+05
  -7.339364e+04  -3.767756e+05
   1.159979e+06  -2.296546e+05
   2.092104e+06   2.957730e+05
   1.639935e+06   1.017972e+06
  -3.393711e+04   1.459610e+06
  -1.596927e+06   1.186738e+06
  -1.839000e+06   2.959387e+05
  -8.367682e+05  -5.162313e+05
   2.622709e+05  -5.938902e+05
   5.226571e+05  -2.969876e+04
   5.448585e+04   4.422734e+05
  -4.229403e+05   2.740762e+05
  -4.937435e+05  -3.292261e+05
  -2.993210e+05  -7.046750e+05
  -1.353281e+05  -4.715969e+05
  -1.336490e+05   7.637470e+04
  -2.515757e+05   2.699295e+05
  -2.748511e+05  -2.299184e+05
   1.043455e+05  -9.765698e+05
   8.748154e+05  -1.091957e+06
   1.391442e+06  -2.314331e+05
   9.099112e+05   8.887502e+05
  -3.848212e+05   1.178006e+06
  -1.267248e+06   4.003340e+05
  -7.509183e+05  -5.438127e+05
   6.957108e+05  -6.577426e+05
   1.575366e+06   8.047361e+04
   9.798172e+05   8.528281e+05
  -4.971132e+05   9.732880e+05
  -1.481027e+06   4.620960e+05
  -1.206478e+06  -1.917319e+05
  -1.266543e+05  -5.037617e+05
   6.483001e+05  -2.668187e+05
   4.030405e+05   2.950361e+05
  -5.531501e+05   5.525606e+05
  -1.185461e+06  -2.267880e+04
  -7.344053e+05  -1.145273e+06
   5.018450e+05  -1.728255e+06
   1.436365e+06  -9.496346e+05
   1.275557e+06   7.070677e+05
   2.552676e+05   1.772999e+06
  -7.054426e+05   1.289716e+06
  -9.218125e+05  -1.776497e+05
  -4.343082e+05  -1.183035e+06
   2.297992e+05  -9.548814e+05
   5.697092e+05  -8.415489e+04
   4.486969e+05   3.602938e+05
   1.377029e+05   1.256361e+05
   5.755943e+04  -8.813391e+04
   3.290486e+05   3.041980e+05
   5.496704e+05   9.576927e+05
   1.830154e+05   1.066002e+06
  -7.428607e+05   4.084947e+05
  -1.476829e+06  -4.235848e+05
  -1.264698e+06  -8.022874e+05
  -1.994413e+05  -6.990707e+05
   8.088115e+05  -4.435129e+05
   9.656204e+05  -1.964283e+05
   3.882455e+05   5.983048e+04
  -1.263948e+05   2.318515e+05
  -6.766667e+04   1.891756e+05
   2.262507e+05   6.699869e+04
   7.024950e+04   1.280318e+05
  -6.089102e+05   2.698433e+05
  -1.050156e+06   3.554314e+04
  -5.156473e+05  -6.806880e+05
   7.605732e+05  -1.227496e+06
   1.698642e+06  -8.453338e+05
   1.475013e+06   3.558937e+05
   3.398226e+05   1.387036e+06
  -7.291928e+05   1.415632e+06
  -1.029267e+06   6.035228e+05
  -6.557773e+05  -1.855007e+05
  -1.648935e+05  -3.532160e+05
   2.977231e+04  -9.229180e+04
  -9.581662e+04  -8.698290e+03
  -2.937774e+05  -3.710180e+05
  -2.581358e+05  -8.002054e+05
   1.452630e+05  -6.942326e+05
   6.752721e+05   6.646285e+04
   7.990434e+05   8.925759e+05
   2.037018e+05   1.028843e+06
  -7.143922e+05   3.177175e+05
  -1.074624e+06  -6.395011e+05
  -4.197149e+05  -1.076211e+06
   6.773958e+05  -7.372075e+05
   1.141919e+06   1.696159e+04
   5.816897e+05   6.198866e+05
  -2.613288e+05   7.290101e+05
  -4.002469e+05   3.937825e+05
   2.072054e+05  -1.403091e+04
   6.368305e+05  -7.082857e+04
   1.729020e+05   3.091659e+05
  -7.990054e+05   7.050429e+05
  -1.273589e+06   5.602617e+05
  -8.105222e+05  -1.772269e+05
   5.762206e+04  -8.886396e+05
   5.526891e+05  -8.959022e+05
   4.579821e+05  -2.101977e+05
   9.381902e+04   4.588706e+05
  -2.125528e+05   4.667477e+05
  -3.538026e+05  -9.622593e+04
  -2.834860e+05  -5.649569e+05
   2.337973e+04  -4.625539e+05
   3.934978e+05   1.203111e+04
   5.013303e+05   2.861778e+05
   2.479337e+05   1.096343e+05
  -6.082846e+04  -1.768797e+05
  -8.819687e+04  -1.003359e+05
   7.747106e+04   3.261209e+05
   4.933520e+04   5.894947e+05
  -2.822989e+05   2.994735e+05
  -5.221371e+05  -3.120130e+05
  -2.514352e+05  -6.313627e+05
   3.742105e+05  -3.500050e+05
   7.006226e+05   2.237785e+05
   2.976700e+05   5.458340e+05
  -5.027766e+05   3.937865e+05
  -9.077839e+05  -1.843966e+04
  -5.069752e+05  -3.551154e+05
   2.746901e+05  -4.421502e+05
   6.376097e+05  -2.923789e+05
   2.798194e+05  -3.717123e+04
  -2.986557e+05   1.129554e+05
  -3.912409e+05  -2.711218e+03
   1.212663e+05  -2.706536e+05
   6.730605e+05  -3.031944e+05
