
 $NMID
 id='ANONYMOUS ', fmtdat='(2E16.6)'
 volume=1.0
 tramp=1.0
 $END
   5.694172e+07  -2.176425e+06
   3.547729e+07   3.418517e+07
  -6.263548e+06   3.888088e+07
  -2.740286e+07   1.561611e+07
  -1.680522e+07  -6.706347e+06
   3.112065e+06  -9.530282e+06
   9.930435e+06   1.030188e+06
   3.021519e+06   9.780917e+06
  -5.997186e+06   9.500973e+06
  -9.644292e+06   2.253971e+06
  -7.249275e+06  -5.962315e+06
  -1.153440e+06  -8.569651e+06
   3.885888e+06  -2.938643e+06
   2.827268e+06   5.270324e+06
  -3.559427e+06   6.621105e+06
  -7.960718e+06  -1.113186e+06
  -4.813593e+06  -1.011369e+07
   3.395674e+06  -1.200385e+07
   9.961315e+06  -6.342232e+06
   1.100182e+07   1.614358e+06
   7.045878e+06   7.297051e+06
   1.082912e+06   8.787670e+06
  -2.784667e+06   6.310578e+06
  -1.939440e+06   2.747374e+06
   1.095072e+06   1.962500e+06
   4.797124e+05   4.056391e+06
  -5.113054e+06   4.635847e+06
  -9.590136e+06   9.677578e+05
  -7.251741e+06  -3.805120e+06
  -5.543343e+05  -5.079980e+06
   3.528261e+06  -2.805188e+06
   2.487714e+06  -2.324305e+05
  -4.292552e+05   8.808575e+05
  -2.107180e+06   6.194020e+05
  -2.230763e+06  -1.215609e+06
  -9.422604e+05  -3.827626e+06
   1.608686e+06  -3.977406e+06
   3.325629e+06  -1.010332e+05
   1.958276e+06   3.599114e+06
  -7.033784e+05   2.073461e+06
  -5.056424e+05  -2.353372e+06
   2.343452e+06  -2.365128e+06
   2.557742e+06   3.139181e+06
  -2.284579e+06   6.274081e+06
  -7.056250e+06   1.262978e+06
  -5.452190e+06  -6.833084e+06
   1.637534e+06  -8.700367e+06
   7.399746e+06  -2.725199e+06
   7.109122e+06   4.205318e+06
   2.024265e+06   5.956084e+06
  -3.381699e+06   2.800176e+06
  -5.271137e+06  -1.370350e+06
  -2.497447e+06  -3.412587e+06
   2.378056e+06  -2.276616e+06
   4.580851e+06   7.848293e+05
   2.040185e+06   2.679009e+06
  -1.684346e+06   1.440012e+06
  -1.756466e+06  -9.693473e+05
   1.342178e+06  -9.329509e+05
   2.548800e+06   1.754011e+06
  -5.744758e+05   3.545013e+06
  -4.668270e+06   2.072882e+06
  -5.398676e+06  -1.223218e+06
  -2.460469e+06  -3.942377e+06
   1.585013e+06  -5.349609e+06
   4.771955e+06  -5.054624e+06
   6.111445e+06  -2.026620e+06
   4.745169e+06   2.949335e+06
   1.212633e+06   6.128610e+06
  -1.703924e+06   4.821265e+06
  -1.745908e+06   1.226530e+06
  -1.351440e+05  -3.172955e+05
   1.652568e+05   9.558634e+05
  -1.445453e+06   1.895696e+06
  -2.771071e+06   4.323165e+05
  -2.124486e+06  -1.770042e+06
  -1.652030e+05  -2.101356e+06
   1.485769e+06  -2.831851e+05
   1.735217e+06   1.956180e+06
   1.410401e+05   2.903094e+06
  -2.673540e+06   1.787828e+06
  -4.531534e+06  -9.711062e+05
  -3.412207e+06  -3.629966e+06
  -1.486258e+05  -4.272251e+06
   2.194939e+06  -2.846692e+06
   2.225984e+06  -1.226575e+06
   1.821955e+06  -7.298091e+05
   2.914081e+06  -5.694132e+05
   4.356369e+06   6.040359e+05
   3.570269e+06   2.623568e+06
   2.855193e+05   4.096281e+06
  -3.025679e+06   4.002390e+06
  -4.048690e+06   2.293596e+06
  -2.664851e+06  -2.810223e+05
  -3.985458e+05  -2.200944e+06
   9.905347e+05  -1.983044e+06
   5.660108e+05   1.419444e+03
  -1.020887e+06   1.352090e+06
  -1.891208e+06   4.758641e+05
  -9.816349e+05  -1.169569e+06
   4.601901e+05  -1.128122e+06
   4.196911e+05   3.757907e+05
  -1.069545e+06   7.005741e+05
  -1.898144e+06  -1.289707e+06
  -7.057553e+05  -3.498409e+06
   1.548734e+06  -3.417895e+06
   3.115864e+06  -1.133395e+06
   3.299862e+06   1.368221e+06
   2.306608e+06   2.647657e+06
   5.312850e+05   2.548953e+06
  -1.166893e+06   1.499968e+06
  -1.553367e+06   2.962012e+05
  -4.923492e+05  -2.682130e+04
   3.843245e+05   7.373331e+05
  -3.721030e+05   1.363764e+06
  -1.900963e+06   6.501571e+05
  -2.071446e+06  -8.286032e+05
  -4.265388e+05  -1.414473e+06
   1.154204e+06  -6.068165e+05
   8.869877e+05   4.249394e+05
  -8.409847e+05   5.222393e+05
  -2.162714e+06  -2.751765e+05
  -1.744235e+06  -1.290588e+06
   1.992794e+05  -1.944344e+06
   2.236274e+06  -1.709612e+06
   2.750391e+06  -3.672061e+05
   1.263158e+06   1.227955e+06
  -8.690009e+05   1.550087e+06
  -1.569895e+06   2.519238e+05
  -2.521377e+05  -1.082074e+06
   1.491078e+06  -7.959968e+05
   1.742206e+06   7.280883e+05
   3.768682e+05   1.640219e+06
  -1.072223e+06   9.943295e+05
  -1.260925e+06  -2.918836e+05
  -2.545363e+05  -7.808530e+05
   8.065146e+05  -8.017629e+04
   7.808075e+05   1.028591e+06
  -5.162179e+05   1.448353e+06
  -1.982982e+06   6.253355e+05
  -2.076750e+06  -9.685680e+05
  -4.608539e+05  -2.061746e+06
   1.386132e+06  -1.694475e+06
   1.720202e+06  -2.642474e+05
   5.239276e+05   8.547306e+05
  -6.341814e+05   8.204882e+05
  -6.174385e+05   1.001662e+05
   1.164947e+05  -3.425897e+05
   4.657587e+05  -2.027011e+05
   8.842908e+04   5.560221e+04
  -4.693593e+05  -9.138746e+04
  -5.305236e+05  -6.776943e+05
   1.815170e+05  -1.197114e+06
   1.354239e+06  -9.391316e+05
   2.093617e+06   3.405397e+05
   1.535773e+06   1.887445e+06
  -1.260777e+05   2.418726e+06
  -1.556366e+06   1.451183e+06
  -1.672511e+06  -7.759304e+04
  -8.613617e+05  -8.468736e+05
  -3.312488e+05  -5.990155e+05
  -5.040510e+05  -1.762704e+05
  -6.618816e+05  -2.979248e+05
  -1.227999e+05  -7.750820e+05
   8.491310e+05  -9.260383e+05
   1.427464e+06  -3.628725e+05
   1.053882e+06   6.774026e+05
  -2.088507e+05   1.443264e+06
  -1.675550e+06   1.116879e+06
  -2.250613e+06  -4.040696e+05
  -1.194969e+06  -2.057331e+06
   9.401024e+05  -2.398480e+06
   2.513254e+06  -1.107776e+06
   2.358869e+06   5.934046e+05
   9.718724e+05   1.301588e+06
  -1.877778e+05   9.249560e+05
  -3.514195e+05   4.988872e+05
  -1.650921e+04   7.564717e+05
  -3.734288e+04   1.327606e+06
  -6.258185e+05   1.325814e+06
  -1.288792e+06   3.717991e+05
  -1.379967e+06  -1.024416e+06
  -6.298672e+05  -1.866733e+06
   5.624862e+05  -1.456675e+06
   1.279876e+06  -4.156781e+04
   8.520407e+05   1.259773e+06
  -3.539084e+05   1.408681e+06
  -1.163867e+06   4.281753e+05
  -8.376327e+05  -6.955760e+05
   1.035582e+05  -1.094552e+06
   5.326888e+05  -7.966244e+05
   8.045983e+04  -4.071559e+05
  -4.500361e+05  -3.119773e+05
  -7.784759e+04  -3.772794e+05
   1.147118e+06  -2.494270e+05
   2.083555e+06   2.586963e+05
   1.652380e+06   9.821953e+05
  -4.581131e+02   1.445840e+06
  -1.561977e+06   1.204068e+06
  -1.823655e+06   3.334884e+05
  -8.438835e+05  -4.848945e+05
   2.478717e+05  -5.885568e+05
   5.154561e+05  -4.345314e+04
   5.455344e+04   4.330369e+05
  -4.234318e+05   2.794566e+05
  -4.967838e+05  -3.213755e+05
  -3.003230e+05  -7.051575e+05
  -1.326855e+05  -4.724735e+05
  -1.312343e+05   8.658577e+04
  -2.525124e+05   2.857831e+05
  -2.800029e+05  -2.231429e+05
   9.240697e+04  -9.823179e+05
   8.553994e+05  -1.102545e+06
   1.374496e+06  -2.428624e+05
   9.102363e+05   8.766319e+05
  -3.678294e+05   1.172137e+06
  -1.254374e+06   4.076393e+05
  -7.581812e+05  -5.348266e+05
   6.801879e+05  -6.699588e+05
   1.577902e+06   4.606246e+04
   1.007212e+06   8.278851e+05
  -4.662323e+05   9.867348e+05
  -1.469942e+06   5.035177e+05
  -1.216251e+06  -1.597056e+05
  -1.417342e+05  -5.020749e+05
   6.401100e+05  -2.825622e+05
   4.027923e+05   2.853957e+05
  -5.503602e+05   5.570636e+05
  -1.185934e+06  -1.205878e+04
  -7.432579e+05  -1.139561e+06
   4.868364e+05  -1.733995e+06
   1.428005e+06  -9.660556e+05
   1.286939e+06   6.905467e+05
   2.831668e+05   1.771277e+06
  -6.825808e+05   1.307093e+06
  -9.246268e+05  -1.545787e+05
  -4.610835e+05  -1.172442e+06
   2.027139e+05  -9.612796e+05
   5.641111e+05  -9.688362e+04
   4.621300e+05   3.524869e+05
   1.483286e+05   1.236640e+05
   5.237235e+04  -9.069845e+04
   3.211694e+05   2.964376e+05
   5.604540e+05   9.473362e+05
   2.106522e+05   1.061986e+06
  -7.245875e+05   4.194232e+05
  -1.485382e+06  -3.991267e+05
  -1.286859e+06  -7.789254e+05
  -2.114645e+05  -6.935091e+05
   8.097036e+05  -4.579289e+05
   9.644876e+05  -2.160286e+05
   3.811873e+05   5.060918e+04
  -1.259693e+05   2.338954e+05
  -5.395787e+04   1.923839e+05
   2.387295e+05   6.605542e+04
   6.849674e+04   1.285772e+05
  -6.163644e+05   2.783886e+05
  -1.048957e+06   4.835680e+04
  -5.108825e+05  -6.749445e+05
   7.527663e+05  -1.235440e+06
   1.680640e+06  -8.618529e+05
   1.469295e+06   3.424615e+05
   3.572787e+05   1.384420e+06
  -7.058611e+05   1.422296e+06
  -1.021554e+06   6.120656e+05
  -6.613469e+05  -1.807491e+05
  -1.658202e+05  -3.516315e+05
   3.852941e+04  -8.917855e+04
  -9.090982e+04  -1.416107e+03
  -3.030953e+05  -3.622461e+05
  -2.740868e+05  -7.949659e+05
   1.374106e+05  -6.946530e+05
   6.798139e+05   6.250707e+04
   8.080266e+05   8.886054e+05
   2.078512e+05   1.027451e+06
  -7.178853e+05   3.204830e+05
  -1.083017e+06  -6.330822e+05
  -4.289967e+05  -1.071030e+06
   6.699291e+05  -7.403512e+05
   1.137978e+06   4.288350e+03
   5.834687e+05   6.062505e+05
  -2.522938e+05   7.238808e+05
  -3.871861e+05   3.954032e+05
   2.163816e+05  -1.605107e+04
   6.382980e+05  -7.932086e+04
   1.739675e+05   3.057265e+05
  -7.881834e+05   7.177877e+05
  -1.256040e+06   5.832697e+05
  -8.025916e+05  -1.609075e+05
   4.632994e+04  -8.860900e+05
   5.329719e+05  -8.982389e+05
   4.479788e+05  -2.083062e+05
   9.686509e+04   4.621870e+05
  -2.086472e+05   4.655197e+05
  -3.576773e+05  -9.860331e+04
  -2.904367e+05  -5.613931e+05
   2.069183e+04  -4.563460e+05
   3.941756e+05   9.840399e+03
   5.012065e+05   2.742672e+05
   2.480858e+05   1.012557e+05
  -5.783538e+04  -1.709822e+05
  -8.611364e+04  -8.658116e+04
   7.276256e+04   3.328116e+05
   4.025425e+04   5.843189e+05
  -2.866681e+05   2.906718e+05
  -5.187092e+05  -3.165126e+05
  -2.469613e+05  -6.326226e+05
   3.741743e+05  -3.524728e+05
   6.998829e+05   2.204004e+05
   3.021884e+05   5.457525e+05
  -4.951058e+05   3.990460e+05
  -9.042213e+05  -1.037268e+04
  -5.096359e+05  -3.487244e+05
   2.699876e+05  -4.401112e+05
   6.332226e+05  -2.935830e+05
   2.734863e+05  -3.820977e+04
  -3.072703e+05   1.131640e+05
  -3.969417e+05  -5.025259e+03
   1.230484e+05  -2.794204e+05
   6.803149e+05  -3.153820e+05
