
 $NMID
 id='ANONYMOUS ', fmtdat='(2E16.6)'
 volume=1.0
 tramp=1.0
 $END
  -2.152937e+07  -7.573372e+05
  -1.253443e+07  -1.315695e+07
   2.932368e+06  -1.414519e+07
   1.032496e+07  -5.745967e+06
   6.252705e+06   2.196316e+06
  -1.069662e+06   3.472452e+06
  -3.702303e+06  -1.438796e+05
  -1.302774e+06  -3.588896e+06
   2.115539e+06  -3.816992e+06
   3.662666e+06  -9.854427e+05
   2.763020e+06   2.487027e+06
   2.982728e+05   3.508543e+06
  -1.668464e+06   1.014603e+06
  -1.155442e+06  -2.364641e+06
   1.377141e+06  -2.776854e+06
   3.042963e+06   4.165951e+05
   1.758793e+06   3.959862e+06
  -1.466196e+06   4.584414e+06
  -3.969608e+06   2.195068e+06
  -4.148267e+06  -1.003592e+06
  -2.315753e+06  -3.026805e+06
   6.281826e+03  -3.193848e+06
   1.083245e+06  -2.037395e+06
   3.144687e+05  -9.668613e+05
  -8.015214e+05  -1.135473e+06
  -5.779657e+04  -2.003909e+06
   2.500782e+06  -1.824191e+06
   4.140455e+06  -2.262541e+04
   2.804948e+06   1.845523e+06
  -1.684342e+05   2.099268e+06
  -1.808340e+06   9.295711e+05
  -1.094361e+06  -2.872629e+05
   4.932421e+05  -7.087160e+05
   1.324842e+06  -2.571420e+05
   1.070125e+06   8.679154e+05
   1.345977e+05   1.871680e+06
  -8.874531e+05   1.486229e+06
  -1.184158e+06  -3.138879e+05
  -4.188878e+05  -1.513303e+06
   4.256853e+05  -5.027176e+05
   7.031771e+04   1.282549e+06
  -1.035456e+06   1.048389e+06
  -9.902011e+05  -1.198167e+06
   8.155803e+05  -2.297078e+06
   2.462287e+06  -3.141853e+05
   1.820333e+06   2.642950e+06
  -7.523759e+05   3.184090e+06
  -2.892583e+06   8.636871e+05
  -2.846993e+06  -1.756825e+06
  -8.857929e+05  -2.432913e+06
   1.362005e+06  -1.211317e+06
   2.230856e+06   4.744503e+05
   1.127390e+06   1.333762e+06
  -8.682199e+05   8.891073e+05
  -1.777362e+06  -3.133639e+05
  -8.003541e+05  -1.022681e+06
   6.620963e+05  -5.332269e+05
   7.642829e+05   3.799446e+05
  -3.675601e+05   4.191533e+05
  -9.148886e+05  -4.780266e+05
   9.471079e+04  -1.115311e+06
   1.592913e+06  -6.878755e+05
   1.985348e+06   4.160958e+05
   9.200159e+05   1.478250e+06
  -7.950921e+05   2.133707e+06
  -2.200823e+06   1.988635e+06
  -2.621587e+06   6.279123e+05
  -1.808938e+06  -1.416988e+06
  -3.194856e+05  -2.587122e+06
   6.799697e+05  -1.994914e+06
   5.923347e+05  -6.390256e+05
   1.007557e+05  -1.185161e+05
   2.183813e+05  -5.621305e+05
   9.345271e+05  -7.251042e+05
   1.343176e+06   7.007861e+04
   8.872380e+05   1.034500e+06
  -7.961334e+04   1.072973e+06
  -8.282142e+05   1.119467e+05
  -8.367125e+05  -9.877703e+05
   1.501222e+04  -1.344774e+06
   1.255300e+06  -6.688206e+05
   1.885280e+06   6.143865e+05
   1.247188e+06   1.615197e+06
  -9.880617e+04   1.676357e+06
  -9.204617e+05   1.016657e+06
  -8.393372e+05   4.431836e+05
  -7.118602e+05   3.425603e+05
  -1.253958e+06   2.836707e+05
  -1.905361e+06  -2.629457e+05
  -1.566879e+06  -1.173802e+06
  -1.045813e+05  -1.837376e+06
   1.421124e+06  -1.776453e+06
   1.906610e+06  -9.465588e+05
   1.203283e+06   2.495225e+05
   6.695742e+04   1.054094e+06
  -5.544857e+05   8.614289e+05
  -2.546161e+05  -4.260579e+04
   5.063470e+05  -5.914398e+05
   8.362995e+05  -1.777388e+05
   3.804737e+05   5.330680e+05
  -2.486505e+05   5.168877e+05
  -2.416197e+05  -1.453582e+05
   3.692097e+05  -3.724111e+05
   7.810576e+05   3.854931e+05
   4.310540e+05   1.383073e+06
  -4.497591e+05   1.547246e+06
  -1.254227e+06   6.984822e+05
  -1.549627e+06  -4.653790e+05
  -1.178838e+06  -1.200288e+06
  -2.865524e+05  -1.218226e+06
   5.664501e+05  -6.874916e+05
   7.322612e+05  -1.052997e+05
   2.233214e+05   1.648283e+04
  -1.699486e+05  -3.335724e+05
   1.627963e+05  -5.824322e+05
   8.190293e+05  -2.628316e+05
   8.959651e+05   3.542851e+05
   1.950935e+05   6.029469e+05
  -5.101701e+05   2.762896e+05
  -4.322150e+05  -1.828984e+05
   3.407774e+05  -2.817340e+05
   1.005696e+06   5.197252e+04
   8.715384e+05   5.683414e+05
  -3.941286e+04   9.272228e+05
  -1.020637e+06   8.103265e+05
  -1.254702e+06   1.646622e+05
  -5.521000e+05  -5.450354e+05
   3.986904e+05  -6.554156e+05
   6.736787e+05  -8.164117e+04
   7.740416e+04   4.754458e+05
  -6.741606e+05   3.382964e+05
  -7.810085e+05  -3.207613e+05
  -1.953631e+05  -7.294709e+05
   4.495105e+05  -4.719920e+05
   5.667187e+05   9.042560e+04
   1.403777e+05   3.293737e+05
  -3.401854e+05   3.153134e+04
  -3.334749e+05  -4.671882e+05
   2.568055e+05  -6.467784e+05
   9.096710e+05  -2.544621e+05
   9.267721e+05   4.636708e+05
   1.904630e+05   9.301831e+05
  -6.253449e+05   7.517119e+05
  -7.699895e+05   1.206144e+05
  -2.448058e+05  -3.775893e+05
   2.809644e+05  -3.749837e+05
   3.030212e+05  -4.548175e+04
  -2.486805e+04   1.881958e+05
  -2.320744e+05   1.386756e+05
  -1.069107e+05  -1.791778e+04
   1.628779e+05  -1.267217e+03
   2.419962e+05   2.599453e+05
  -6.041214e+04   5.238223e+05
  -6.053080e+05   4.215654e+05
  -9.440013e+05  -1.628670e+05
  -6.793872e+05  -8.645495e+05
   7.285581e+04  -1.105646e+06
   7.136274e+05  -6.792979e+05
   7.826130e+05   1.502239e+04
   4.388357e+05   4.054773e+05
   1.802876e+05   3.387052e+05
   2.041724e+05   1.361598e+05
   2.509495e+05   1.363727e+05
   3.598993e+04   3.263118e+05
  -3.756257e+05   4.184989e+05
  -6.524867e+05   1.810010e+05
  -5.084442e+05  -3.134841e+05
   7.315226e+04  -6.845158e+05
   7.652626e+05  -5.236719e+05
   1.032785e+06   1.870741e+05
   5.485246e+05   9.295287e+05
  -4.107957e+05   1.071295e+06
  -1.117365e+06   5.031546e+05
  -1.074462e+06  -2.444370e+05
  -4.830392e+05  -5.818988e+05
   5.179967e+04  -4.543822e+05
   1.821871e+05  -2.728985e+05
   6.989518e+04  -3.547334e+05
   6.381145e+04  -5.767231e+05
   2.919728e+05  -5.695013e+05
   5.733597e+05  -1.460131e+05
   6.125489e+05   4.820654e+05
   2.685894e+05   8.572757e+05
  -2.717937e+05   6.599125e+05
  -5.840334e+05   1.786358e+04
  -3.835649e+05  -5.596307e+05
   1.449244e+05  -6.275634e+05
   4.919351e+05  -2.094632e+05
   3.580166e+05   2.741657e+05
  -2.877425e+04   4.596748e+05
  -2.031888e+05   3.520721e+05
  -1.700893e+04   1.970710e+05
   1.969278e+05   1.571944e+05
   2.832916e+04   1.776656e+05
  -5.068095e+05   1.063082e+05
  -9.218488e+05  -1.300937e+05
  -7.395482e+05  -4.440080e+05
  -9.951010e+03  -6.296529e+05
   6.903849e+05  -5.179934e+05
   8.149146e+05  -1.545483e+05
   3.800220e+05   1.882255e+05
  -1.076616e+05   2.450819e+05
  -2.210113e+05   2.781077e+04
  -4.370050e+03  -1.791025e+05
   2.083809e+05  -1.205577e+05
   2.193634e+05   1.523145e+05
   1.064221e+05   3.385802e+05
   3.204645e+04   2.250092e+05
   5.828355e+04  -5.756970e+04
   1.312286e+05  -1.566613e+05
   1.299042e+05   9.927716e+04
  -6.055763e+04   4.592245e+05
  -3.983288e+05   4.895365e+05
  -6.013261e+05   7.280608e+04
  -3.761272e+05  -4.164425e+05
   1.842592e+05  -5.056119e+05
   5.637531e+05  -1.442060e+05
   3.390628e+05   2.598356e+05
  -3.067084e+05   3.032932e+05
  -7.264041e+05  -1.477388e+04
  -4.866288e+05  -3.678595e+05
   1.873183e+05  -4.613092e+05
   6.707490e+05  -2.586551e+05
   5.724756e+05   5.511299e+04
   7.672741e+04   2.326401e+05
  -2.872682e+05   1.361721e+05
  -1.703488e+05  -1.272356e+05
   2.721388e+05  -2.398205e+05
   5.440345e+05   3.684417e+04
   3.072971e+05   5.440982e+05
  -2.701336e+05   7.849500e+05
  -6.804859e+05   4.134761e+05
  -5.836061e+05  -3.385292e+05
  -1.114090e+05  -8.207880e+05
   3.207063e+05  -6.073425e+05
   4.227317e+05   6.021204e+04
   2.187475e+05   5.338508e+05
  -7.445481e+04   4.457293e+05
  -2.497505e+05   4.764837e+04
  -2.267566e+05  -1.648765e+05
  -8.725462e+04  -5.894254e+04
  -1.603455e+04   4.505050e+04
  -1.143444e+05  -1.329335e+05
  -2.371255e+05  -4.362583e+05
  -1.112874e+05  -4.868973e+05
   3.086952e+05  -1.833131e+05
   6.816629e+05   1.956841e+05
   6.048049e+05   3.626642e+05
   9.228437e+04   3.145569e+05
  -3.947908e+05   2.054419e+05
  -4.493615e+05   9.946232e+04
  -1.554470e+05  -1.961685e+04
   6.786920e+04  -1.060114e+05
   1.412794e+03  -9.295067e+04
  -1.358383e+05  -3.918984e+04
  -2.119523e+04  -6.352304e+04
   3.132631e+05  -1.186213e+05
   4.800825e+05  -2.538471e+03
   1.906659e+05   3.201682e+05
  -3.852784e+05   5.490839e+05
  -7.684955e+05   3.538010e+05
  -6.433724e+05  -1.952186e+05
  -1.391071e+05  -6.450701e+05
   3.358932e+05  -6.337155e+05
   4.789665e+05  -2.520438e+05
   3.076675e+05   1.029742e+05
   6.147522e+04   1.653169e+05
  -4.267425e+04   3.182744e+04
   2.987048e+04  -1.219056e+04
   1.436180e+05   1.595608e+05
   1.254698e+05   3.648186e+05
  -7.749353e+04   3.127717e+05
  -3.193523e+05  -5.159517e+04
  -3.492502e+05  -4.362742e+05
  -5.610948e+04  -4.774802e+05
   3.525359e+05  -1.192787e+05
   4.859893e+05   3.264371e+05
   1.675040e+05   4.989099e+05
  -3.245733e+05   3.147529e+05
  -5.118566e+05  -2.619746e+04
  -2.426007e+05  -2.733410e+05
   1.287680e+05  -3.075269e+05
   1.653726e+05  -1.664805e+05
  -1.215853e+05   1.954803e+03
  -2.996593e+05   2.609876e+04
  -6.764895e+04  -1.402347e+05
   3.696378e+05  -3.214493e+05
   5.615987e+05  -2.617068e+05
   3.411755e+05   7.346848e+04
  -3.675953e+04   3.977133e+05
  -2.403524e+05   3.915453e+05
  -1.915780e+05   6.952418e+04
  -2.964001e+04  -2.242353e+05
   1.085550e+05  -2.004563e+05
   1.684281e+05   6.778871e+04
   1.227802e+05   2.625912e+05
  -2.493984e+04   1.934364e+05
  -1.817673e+05  -1.809451e+04
  -2.161895e+05  -1.213952e+05
  -1.091129e+05  -3.839147e+04
   1.120443e+04   6.721283e+04
   3.021973e+04   1.126289e+04
  -6.448127e+03  -1.719048e+05
   3.094795e+04  -2.575995e+05
   1.556924e+05  -9.879082e+04
   2.146050e+05   1.804659e+05
   7.249000e+04   3.047428e+05
  -1.881476e+05   1.495672e+05
  -3.084756e+05  -1.263463e+05
  -1.232150e+05  -2.642563e+05
   2.276826e+05  -1.716604e+05
   4.053894e+05   2.876554e+04
   2.231797e+05   1.689392e+05
  -1.336117e+05   1.839640e+05
  -2.938098e+05   1.071714e+05
  -1.121465e+05   6.840791e+03
   1.666274e+05  -3.783938e+04
   1.952159e+05   2.662538e+04
  -7.381365e+04   1.429862e+05
  -3.438317e+05   1.410847e+05
