
 $NMID
 id='ANONYMOUS ', fmtdat='(2E16.6)'
 volume=1.0
 tramp=1.0
 $END
  -2.094011e+07   1.054158e+06
  -1.462573e+07  -8.866687e+06
  -8.965873e+05  -1.319938e+07
   8.504005e+06  -9.585632e+06
   7.717298e+06  -1.592397e+06
   8.348516e+05   3.788591e+06
  -4.223695e+06   2.354299e+06
  -3.613563e+06  -3.176261e+06
   5.510293e+05  -6.083959e+06
   3.844609e+06  -2.989191e+06
   3.649188e+06   2.593686e+06
   6.821436e+05   4.531462e+06
  -2.057889e+06   1.021935e+06
  -1.905951e+06  -3.753279e+06
   9.820471e+05  -4.583508e+06
   3.580557e+06  -6.888585e+05
   2.954925e+06   4.042614e+06
  -6.256499e+05   5.399242e+06
  -3.929896e+06   2.745771e+06
  -4.177019e+06  -1.060551e+06
  -1.815072e+06  -2.895397e+06
   2.577600e+05  -2.249188e+06
  -5.876853e+04  -1.145590e+06
  -1.856177e+06  -1.546905e+06
  -2.244462e+06  -3.141928e+06
   4.270107e+05  -3.851505e+06
   4.416360e+06  -2.303957e+06
   5.990913e+06   6.065718e+05
   3.332207e+06   2.662681e+06
  -1.198715e+06   2.440291e+06
  -3.306878e+06   3.978308e+05
  -1.308646e+06  -1.662489e+06
   2.211175e+06  -1.947987e+06
   3.514469e+06  -2.970427e+04
   1.753051e+06   2.548269e+06
  -7.173192e+05   3.333795e+06
  -1.488914e+06   1.422584e+06
  -5.303137e+05  -1.194196e+06
   5.194674e+05  -1.569595e+06
   4.611550e+05   6.965780e+05
  -5.551142e+05   2.758103e+06
  -1.568114e+06   1.915804e+06
  -1.604555e+06  -9.912185e+05
  -3.237081e+05  -2.560680e+06
   1.431603e+06  -9.543119e+05
   1.902418e+06   1.999237e+06
   4.361363e+04   3.077081e+06
  -2.901186e+06   1.214222e+06
  -4.123130e+06  -1.731469e+06
  -2.090697e+06  -3.210586e+06
   1.585304e+06  -2.316073e+06
   3.624199e+06  -1.431568e+05
   2.404178e+06   1.472732e+06
  -5.110788e+05   1.455653e+06
  -2.191815e+06   2.067974e+05
  -1.358051e+06  -8.776331e+05
   5.917837e+05  -7.417770e+05
   1.355066e+06   3.302394e+05
   2.280459e+05   1.087679e+06
  -1.268857e+06   6.697723e+05
  -1.188312e+06  -5.187670e+05
   5.962585e+05  -1.242172e+06
   2.147098e+06  -5.965786e+05
   1.539801e+06   1.171085e+06
  -1.009256e+06   2.742990e+06
  -3.343226e+06   2.668987e+06
  -3.625063e+06   6.241235e+05
  -2.069672e+06  -2.081188e+06
  -3.417818e+05  -3.538254e+06
   3.848512e+05  -3.053950e+06
   3.973149e+05  -1.740546e+06
   6.492555e+05  -1.058714e+06
   1.486221e+06  -1.054751e+06
   2.320949e+06  -5.493668e+05
   2.300042e+06   9.853356e+05
   1.106833e+06   2.394297e+06
  -6.995636e+05   2.089846e+06
  -1.940619e+06   2.936231e+04
  -1.616370e+06  -2.042540e+06
   1.744006e+05  -2.349444e+06
   2.077408e+06  -7.810392e+05
   2.569109e+06   1.217948e+06
   1.401036e+06   2.177441e+06
  -1.884755e+05   1.842936e+06
  -8.717546e+05   1.062373e+06
  -6.910689e+05   7.220894e+05
  -8.362838e+05   8.781171e+05
  -1.971842e+06   8.220462e+05
  -3.150390e+06  -1.058847e+05
  -2.731192e+06  -1.750679e+06
  -3.418761e+05  -3.108695e+06
   2.398944e+06  -3.086452e+06
   3.346770e+06  -1.472121e+06
   1.957593e+06   7.034543e+05
  -2.203138e+05   1.877702e+06
  -1.177072e+06   1.305603e+06
  -3.872262e+05  -1.844183e+05
   9.368252e+05  -9.641522e+05
   1.321659e+06  -3.089731e+05
   5.062762e+05   8.119830e+05
  -5.177522e+05   8.989187e+05
  -6.475973e+05  -2.110764e+05
   2.852125e+05  -1.037227e+06
   1.412984e+06  -1.980845e+05
   1.568530e+06   1.834928e+06
   2.533135e+05   3.096975e+06
  -1.827528e+06   2.211948e+06
  -3.162108e+06  -1.791998e+05
  -2.660157e+06  -2.143814e+06
  -7.168294e+05  -2.375979e+06
   1.048950e+06  -1.247321e+06
   1.327186e+06  -1.351523e+05
   3.879320e+05   1.714604e+04
  -3.232704e+05  -5.566771e+05
   1.490020e+05  -9.262297e+05
   1.216623e+06  -5.058997e+05
   1.493973e+06   3.852430e+05
   4.695340e+05   9.057416e+05
  -8.191330e+05   5.649738e+05
  -8.937571e+05  -2.779302e+05
   4.883873e+05  -7.411155e+05
   1.953331e+06  -2.398310e+05
   1.891493e+06   9.460181e+05
   1.511011e+05   1.854010e+06
  -1.764493e+06   1.651217e+06
  -2.203997e+06   4.199038e+05
  -9.777440e+05  -8.228289e+05
   5.739775e+05  -1.028562e+06
   9.979895e+05  -1.630088e+05
   8.636886e+04   7.231025e+05
  -1.105428e+06   5.978611e+05
  -1.389126e+06  -4.269489e+05
  -5.302309e+05  -1.240422e+06
   6.366930e+05  -1.000902e+06
   1.043141e+06  -5.665540e+04
   4.019349e+05   5.106312e+05
  -5.003164e+05   1.123713e+05
  -5.686726e+05  -7.560363e+05
   4.387856e+05  -1.100523e+06
   1.562581e+06  -4.402329e+05
   1.596494e+06   7.675032e+05
   3.868132e+05   1.568116e+06
  -9.750341e+05   1.339528e+06
  -1.302758e+06   3.182928e+05
  -5.111538e+05  -6.087779e+05
   4.302908e+05  -7.088109e+05
   6.037934e+05  -8.414549e+04
   2.831550e+04   4.819747e+05
  -5.249791e+05   4.005675e+05
  -4.259454e+05  -8.454853e+04
   1.741350e+05  -2.336788e+05
   5.241014e+05   2.690332e+05
   5.553213e+04   8.913654e+05
  -9.769298e+05   8.081553e+05
  -1.645707e+06  -1.962255e+05
  -1.224047e+06  -1.443272e+06
   6.277465e+04  -1.956767e+06
   1.226889e+06  -1.336707e+06
   1.483423e+06  -1.016613e+05
   9.521519e+05   7.967119e+05
   3.681155e+05   8.402579e+05
   2.162233e+05   3.724767e+05
   2.882132e+05   1.480621e+05
   6.895850e+04   4.568158e+05
  -5.758078e+05   7.866755e+05
  -1.163473e+06   4.434457e+05
  -1.024442e+06  -5.525921e+05
   1.501452e+04  -1.340589e+06
   1.322798e+06  -1.059883e+06
   1.870154e+06   2.362399e+05
   1.098395e+06   1.563672e+06
  -5.205095e+05   1.892958e+06
  -1.826441e+06   1.046455e+06
  -1.962607e+06  -2.255070e+05
  -1.070046e+06  -9.924882e+05
  -2.850426e+04  -9.661821e+05
   4.274809e+05  -6.275105e+05
   3.079316e+05  -5.862669e+05
   1.688558e+05  -8.704361e+05
   4.302993e+05  -9.148315e+05
   9.207511e+05  -2.618396e+05
   1.062766e+06   8.152317e+05
   4.996150e+05   1.485776e+06
  -4.550413e+05   1.164736e+06
  -1.033337e+06   9.153184e+04
  -7.445699e+05  -8.935331e+05
   1.128059e+05  -1.100696e+06
   7.375736e+05  -5.250164e+05
   6.417691e+05   2.700293e+05
   1.142465e+05   7.100757e+05
  -1.730355e+05   6.618848e+05
   4.251812e+04   4.158032e+05
   3.188263e+05   2.961371e+05
   3.833242e+04   3.213343e+05
  -8.222769e+05   2.411479e+05
  -1.537731e+06  -1.322655e+05
  -1.318358e+06  -6.743059e+05
  -1.604538e+05  -1.029127e+06
   1.052107e+06  -9.189646e+05
   1.374899e+06  -3.941386e+05
   7.221067e+05   1.749446e+05
  -1.147564e+05   3.752005e+05
  -3.522759e+05   1.193051e+05
   1.677398e+04  -2.279878e+05
   3.982378e+05  -1.933391e+05
   3.739393e+05   2.555484e+05
   1.007746e+05   6.050513e+05
  -2.680936e+04   3.895416e+05
   1.158823e+05  -1.715227e+05
   3.048457e+05  -3.594019e+05
   2.523537e+05   1.565507e+05
  -1.337222e+05   8.345940e+05
  -6.627676e+05   8.564953e+05
  -9.222880e+05   1.016050e+05
  -5.596055e+05  -7.012747e+05
   2.881346e+05  -7.976587e+05
   9.003965e+05  -1.886864e+05
   5.861055e+05   4.680278e+05
  -4.957348e+05   5.687166e+05
  -1.320918e+06   6.568006e+04
  -1.008154e+06  -6.025582e+05
   2.113577e+05  -9.104748e+05
   1.200995e+06  -6.295587e+05
   1.104754e+06  -1.021654e+03
   1.973690e+05   4.325605e+05
  -4.885617e+05   3.037287e+05
  -2.750226e+05  -1.793997e+05
   5.084456e+05  -3.791440e+05
   9.377408e+05   1.152349e+05
   4.657485e+05   9.708932e+05
  -5.466159e+05   1.337853e+06
  -1.223323e+06   6.780169e+05
  -1.029546e+06  -6.109784e+05
  -2.109692e+05  -1.463241e+06
   5.485239e+05  -1.137506e+06
   7.735375e+05   2.715408e+04
   4.761638e+05   9.311570e+05
  -3.247173e+04   8.472722e+05
  -4.171300e+05   1.335497e+05
  -4.684970e+05  -3.027270e+05
  -2.236401e+05  -1.296816e+05
  -1.995336e+03   1.044580e+05
  -1.124354e+05  -1.728011e+05
  -4.006983e+05  -7.371199e+05
  -2.984968e+05  -8.800595e+05
   4.435524e+05  -3.611867e+05
   1.226336e+06   3.236270e+05
   1.162698e+06   6.254851e+05
   1.866056e+05   5.363811e+05
  -7.586948e+05   3.623218e+05
  -8.191231e+05   2.162799e+05
  -2.206601e+05   1.846547e+04
   1.427893e+05  -1.793045e+05
  -7.875283e+04  -2.133937e+05
  -3.237445e+05  -1.210336e+05
  -4.293725e+03  -1.134462e+05
   6.394944e+05  -1.739121e+05
   8.307990e+05   1.062030e+04
   2.146378e+05   5.319348e+05
  -7.447717e+05   9.118870e+05
  -1.278410e+06   5.772919e+05
  -1.020644e+06  -3.709959e+05
  -2.192961e+05  -1.142904e+06
   5.531077e+05  -1.091982e+06
   8.296000e+05  -3.911702e+05
   5.499346e+05   2.259523e+05
   7.302079e+04   2.842702e+05
  -1.447605e+05  -2.024757e+03
   2.981935e+04  -8.347701e+04
   2.978471e+05   2.554424e+05
   2.610738e+05   6.414548e+05
  -1.475718e+05   5.298279e+05
  -5.725146e+05  -1.464699e+05
  -5.611819e+05  -8.138472e+05
  -1.013205e+04  -8.188828e+05
   6.606488e+05  -1.264426e+05
   8.207805e+05   6.415790e+05
   2.434128e+05   8.639498e+05
  -5.744681e+05   4.915877e+05
  -8.543726e+05  -6.214765e+04
  -3.855358e+05  -4.162638e+05
   2.105395e+05  -4.653532e+05
   2.189531e+05  -2.817903e+05
  -2.851604e+05  -3.164785e+04
  -5.438871e+05   3.398778e+04
  -9.506332e+04  -2.283840e+05
   6.464943e+05  -5.772539e+05
   9.237010e+05  -5.263183e+05
   5.294945e+05   5.995110e+04
  -6.545694e+04   6.669881e+05
  -3.499536e+05   6.635682e+05
  -2.554123e+05   7.575866e+04
  -1.047743e+04  -4.201966e+05
   1.996911e+05  -3.097846e+05
   2.935579e+05   1.854027e+05
   2.053523e+05   4.613279e+05
  -5.547112e+04   2.757974e+05
  -3.128984e+05  -6.048509e+04
  -3.600006e+05  -1.626248e+05
  -1.945596e+05  -2.455367e+04
  -9.370972e+03   6.159727e+04
   6.202675e+04  -9.020276e+04
   8.629386e+04  -3.360924e+05
   1.803331e+05  -3.646614e+05
   3.040346e+05  -4.561776e+04
   2.785228e+05   3.884799e+05
   5.609622e+03   5.334715e+05
  -3.611023e+05   2.250486e+05
  -4.905416e+05  -2.626404e+05
  -1.780436e+05  -4.872383e+05
   3.774830e+05  -2.922474e+05
   6.665705e+05   7.788706e+04
   3.700912e+05   2.960029e+05
  -2.296057e+05   2.706615e+05
  -4.904883e+05   1.258884e+05
  -1.417441e+05   5.692203e+03
   3.619479e+05  -3.817503e+03
   3.642962e+05   1.264028e+05
  -1.953606e+05   2.903036e+05
  -7.032949e+05   2.339902e+05
