
 $NMID
 id='ANONYMOUS ', fmtdat='(2E16.6)'
 volume=1.0
 tramp=1.0
 $END
  -4.087204e+07   1.206607e+06
  -2.604738e+07  -2.244228e+07
   2.837201e+06  -2.703906e+07
   1.868396e+07  -1.334962e+07
   1.284426e+07   2.330336e+06
  -1.068179e+06   6.912668e+06
  -7.405464e+06   9.041342e+05
  -3.644829e+06  -6.714539e+06
   3.280714e+06  -8.355398e+06
   7.068160e+06  -2.901072e+06
   5.765759e+06   4.570167e+06
   9.390399e+05   7.013054e+06
  -3.209591e+06   2.032921e+06
  -2.564650e+06  -4.948572e+06
   2.356054e+06  -6.077440e+06
   6.086937e+06   1.524361e+05
   4.129886e+06   7.467081e+06
  -2.104327e+06   9.188589e+06
  -7.343512e+06   4.738403e+06
  -7.965459e+06  -1.536847e+06
  -4.500715e+06  -5.442354e+06
  -2.567120e+05  -5.697700e+06
   1.389683e+06  -3.716265e+06
  -2.478389e+05  -2.220137e+06
  -2.018312e+06  -2.912232e+06
   1.273708e+04  -4.441593e+06
   5.318217e+06  -3.730684e+06
   8.487283e+06  -5.139417e+04
   5.613449e+06   3.589975e+06
  -5.452400e+05   4.044735e+06
  -3.863424e+06   1.613808e+06
  -2.081682e+06  -9.705805e+05
   1.586690e+06  -1.719461e+06
   3.269557e+06  -3.740318e+05
   2.239195e+06   2.196328e+06
   1.904994e+04   3.997376e+06
  -1.752538e+06   2.831133e+06
  -1.966592e+06  -7.590591e+05
  -5.818064e+05  -2.786292e+06
   6.930408e+05  -5.548886e+05
  -8.013355e+04   2.921297e+06
  -2.122064e+06   2.364686e+06
  -2.219840e+06  -2.151720e+06
   9.524349e+05  -4.611524e+06
   4.322004e+06  -1.121756e+06
   3.771051e+06   4.634072e+06
  -8.472458e+05   6.140174e+06
  -5.447673e+06   2.030970e+06
  -6.034873e+06  -3.161607e+06
  -2.286106e+06  -4.906868e+06
   2.636072e+06  -2.803534e+06
   4.824760e+06   5.758545e+05
   2.705896e+06   2.563362e+06
  -1.484801e+06   1.982882e+06
  -3.584775e+06  -2.839008e+05
  -1.811874e+06  -1.853085e+06
   1.204095e+06  -1.144788e+06
   1.697232e+06   6.776415e+05
  -4.979006e+05   1.107007e+06
  -1.985622e+06  -4.402875e+05
  -4.179003e+05  -2.001504e+06
   2.644696e+06  -1.720395e+06
   3.935109e+06   2.528919e+05
   2.128043e+06   2.653359e+06
  -1.428063e+06   4.331543e+06
  -4.451218e+06   4.148925e+06
  -5.281726e+06   1.365101e+06
  -3.613076e+06  -2.780970e+06
  -7.846663e+05  -5.224714e+06
   1.073247e+06  -4.247549e+06
   1.063616e+06  -1.676604e+06
   4.349917e+05  -5.409122e+05
   8.556654e+05  -1.185946e+06
   2.205428e+06  -1.306106e+06
   2.845284e+06   4.118022e+05
   1.761262e+06   2.395659e+06
  -3.550322e+05   2.368439e+06
  -1.961312e+06   1.742507e+05
  -1.883516e+06  -2.240261e+06
   3.829236e+04  -2.906387e+06
   2.629075e+06  -1.364181e+06
   3.839839e+06   1.261244e+06
   2.531650e+06   3.164091e+06
  -7.611374e+04   3.243454e+06
  -1.635954e+06   2.035525e+06
  -1.515139e+06   1.032994e+06
  -1.402007e+06   9.039898e+05
  -2.655396e+06   8.009181e+05
  -4.108128e+06  -3.522744e+05
  -3.466952e+06  -2.374749e+06
  -3.640808e+05  -3.959011e+06
   2.983042e+06  -3.913334e+06
   4.092811e+06  -2.061959e+06
   2.547552e+06   5.840004e+05
   5.897894e+04   2.274585e+06
  -1.231702e+06   1.799218e+06
  -5.225167e+05  -1.232081e+05
   1.093931e+06  -1.272809e+06
   1.757652e+06  -4.215008e+05
   7.928464e+05   1.089349e+06
  -5.540682e+05   1.118327e+06
  -6.140519e+05  -3.130425e+05
   6.892123e+05  -9.889452e+05
   1.794179e+06   4.968641e+05
   1.327019e+06   2.832987e+06
  -5.680355e+05   3.590311e+06
  -2.632749e+06   1.950150e+06
  -3.589035e+06  -7.486907e+05
  -2.818336e+06  -2.615206e+06
  -7.309544e+05  -2.736978e+06
   1.225097e+06  -1.526930e+06
   1.596416e+06  -2.357391e+05
   4.837663e+05   2.225196e+04
  -3.923562e+05  -7.117392e+05
   2.782492e+05  -1.247979e+06
   1.695464e+06  -6.317380e+05
   1.947335e+06   6.492771e+05
   4.980194e+05   1.259032e+06
  -1.082234e+06   6.514536e+05
  -1.000010e+06  -3.811527e+05
   7.108708e+05  -7.276760e+05
   2.284162e+06  -3.371121e+04
   2.053205e+06   1.210266e+06
   1.327869e+04   2.116287e+06
  -2.194388e+06   1.885371e+06
  -2.729252e+06   4.522652e+05
  -1.230485e+06  -1.115567e+06
   7.891011e+05  -1.402257e+06
   1.394489e+06  -2.203927e+05
   1.732219e+05   9.875886e+05
  -1.426593e+06   7.663403e+05
  -1.725196e+06  -6.216990e+05
  -5.199999e+05  -1.577085e+06
   9.188195e+05  -1.113471e+06
   1.267663e+06   1.047728e+05
   3.746123e+05   7.003683e+05
  -7.130432e+05   1.087339e+05
  -7.450596e+05  -9.822627e+05
   5.267260e+05  -1.408772e+06
   1.957191e+06  -5.907856e+05
   2.026263e+06   9.532027e+05
   4.730688e+05   1.995067e+06
  -1.287543e+06   1.672522e+06
  -1.656616e+06   3.315127e+05
  -5.755860e+05  -7.984062e+05
   5.807082e+05  -8.465922e+05
   6.836063e+05  -1.026851e+05
  -3.444811e+04   4.741147e+05
  -5.569514e+05   3.601308e+05
  -3.181037e+05  -7.347578e+04
   3.306720e+05  -1.048647e+05
   5.885966e+05   4.928403e+05
  -4.733460e+04   1.143627e+06
  -1.272416e+06   9.734682e+05
  -2.061939e+06  -2.822743e+05
  -1.528680e+06  -1.827478e+06
   9.228914e+04  -2.415384e+06
   1.525191e+06  -1.556662e+06
   1.748759e+06  -3.586513e+04
   1.026546e+06   9.060876e+05
   4.040116e+05   8.185105e+05
   3.882137e+05   3.229507e+05
   5.048802e+05   2.403416e+05
   1.053722e+05   6.656089e+05
  -7.703805e+05   9.512114e+05
  -1.426142e+06   4.673756e+05
  -1.167080e+06  -6.685554e+05
   9.849518e+04  -1.549666e+06
   1.644682e+06  -1.223637e+06
   2.280608e+06   3.351509e+05
   1.283599e+06   1.985304e+06
  -7.799207e+05   2.365777e+06
  -2.373306e+06   1.206599e+06
  -2.387392e+06  -4.225750e+05
  -1.153358e+06  -1.252783e+06
   6.562427e+04  -1.059019e+06
   4.350827e+05  -6.446879e+05
   2.008441e+05  -7.455573e+05
   1.247086e+05  -1.199745e+06
   5.756205e+05  -1.224675e+06
   1.209784e+06  -3.486752e+05
   1.348016e+06   1.011180e+06
   6.288608e+05   1.847704e+06
  -5.576264e+05   1.448494e+06
  -1.276626e+06   8.203526e+04
  -8.884332e+05  -1.175524e+06
   2.396578e+05  -1.380674e+06
   1.029065e+06  -5.409919e+05
   8.114968e+05   5.073402e+05
   2.264421e+04   9.794075e+05
  -3.662148e+05   8.044168e+05
  -9.772005e+03   4.593423e+05
   4.231992e+05   3.371959e+05
   6.496204e+04   3.865883e+05
  -1.076802e+06   2.775391e+05
  -1.987981e+06  -2.030285e+05
  -1.641177e+06  -8.992394e+05
  -1.038566e+05  -1.353837e+06
   1.423766e+06  -1.170544e+06
   1.754928e+06  -4.159484e+05
   8.657361e+05   3.439989e+05
  -1.926796e+05   5.236983e+05
  -4.722147e+05   9.774705e+04
  -1.655067e+04  -3.551175e+05
   4.559739e+05  -2.605800e+05
   4.790072e+05   3.158656e+05
   2.138733e+05   7.261831e+05
   4.980890e+04   4.777877e+05
   1.344819e+05  -1.515878e+05
   3.126143e+05  -3.701832e+05
   2.983882e+05   2.051495e+05
  -1.228933e+05   1.008225e+06
  -8.318641e+05   1.083708e+06
  -1.254962e+06   1.866073e+05
  -8.019944e+05  -8.696729e+05
   3.588578e+05  -1.077608e+06
   1.181052e+06  -3.218811e+05
   7.425424e+05   5.533478e+05
  -6.413670e+05   6.874524e+05
  -1.601598e+06   2.614440e+04
  -1.129906e+06  -7.766703e+05
   3.547129e+05  -1.055025e+06
   1.469490e+06  -6.491227e+05
   1.289492e+06   7.051355e+04
   1.960274e+05   5.162244e+05
  -6.190499e+05   3.313629e+05
  -3.708249e+05  -2.525043e+05
   5.888350e+05  -5.149391e+05
   1.172963e+06   7.428826e+04
   6.622282e+05   1.168295e+06
  -5.765337e+05   1.694790e+06
  -1.466237e+06   9.059432e+05
  -1.280887e+06  -7.173509e+05
  -2.788430e+05  -1.786488e+06
   6.726948e+05  -1.358197e+06
   9.386736e+05   8.853868e+04
   5.300419e+05   1.156794e+06
  -1.150027e+05   1.003301e+06
  -5.380509e+05   1.335087e+05
  -5.231123e+05  -3.601122e+05
  -2.143544e+05  -1.405177e+05
  -2.623580e+04   1.094827e+05
  -2.283855e+05  -2.549302e+05
  -5.296394e+05  -9.264281e+05
  -2.949040e+05  -1.071119e+06
   6.321144e+05  -4.332732e+05
   1.500189e+06   3.929423e+05
   1.364461e+06   7.679906e+05
   2.236417e+05   6.758286e+05
  -8.717133e+05   4.568553e+05
  -9.860898e+05   2.463140e+05
  -3.248719e+05  -1.272567e+04
   1.508232e+05  -2.280475e+05
  -2.476080e+04  -2.265266e+05
  -3.222457e+05  -1.056695e+05
  -3.733828e+04  -1.352004e+05
   7.037997e+05  -2.505326e+05
   1.037185e+06  -2.090166e+04
   3.878396e+05   6.660204e+05
  -8.335498e+05   1.183447e+06
  -1.625482e+06   7.907019e+05
  -1.364213e+06  -3.973596e+05
  -3.189258e+05  -1.396319e+06
   6.885344e+05  -1.386356e+06
   1.021327e+06  -5.504655e+05
   6.721599e+05   2.277513e+05
   1.288451e+05   3.516175e+05
  -1.106574e+05   4.437861e+04
   6.211331e+04  -5.163322e+04
   3.369181e+05   3.362848e+05
   3.015706e+05   7.916784e+05
  -1.582613e+05   6.748191e+05
  -6.950382e+05  -1.200084e+05
  -7.534864e+05  -9.455912e+05
  -1.118173e+05  -1.019657e+06
   7.676727e+05  -2.402550e+05
   1.050803e+06   7.100481e+05
   3.674832e+05   1.067563e+06
  -6.878199e+05   6.750241e+05
  -1.095724e+06  -3.737181e+04
  -5.300476e+05  -5.577738e+05
   2.547100e+05  -6.488198e+05
   3.267460e+05  -3.714465e+05
  -2.854382e+05  -9.543367e+03
  -6.547564e+05   6.340565e+04
  -1.460858e+05  -2.931934e+05
   7.898645e+05  -7.178083e+05
   1.193193e+06  -6.203111e+05
   7.257814e+05   1.150057e+05
  -6.111297e+04   8.539727e+05
  -4.784297e+05   8.582978e+05
  -3.804451e+05   1.501882e+05
  -5.658725e+04  -4.910275e+05
   2.266653e+05  -4.241717e+05
   3.615622e+05   1.632366e+05
   2.737931e+05   5.643061e+05
  -4.440309e+04   3.976228e+05
  -3.905812e+05  -4.141923e+04
  -4.721573e+05  -2.353396e+05
  -2.434365e+05  -6.412198e+04
   2.213234e+04   1.231506e+05
   7.938973e+04  -1.444481e+04
   1.638000e+04  -3.760013e+05
   9.272481e+04  -5.182179e+05
   3.328811e+05  -1.731963e+05
   4.322512e+05   3.990579e+05
   1.274382e+05   6.468913e+05
  -4.096666e+05   3.165276e+05
  -6.534111e+05  -2.711944e+05
  -2.629425e+05  -5.734061e+05
   4.787113e+05  -3.810432e+05
   8.631853e+05   5.126268e+04
   4.839680e+05   3.555455e+05
  -2.761222e+05   3.870022e+05
  -6.189394e+05   2.250821e+05
  -2.231252e+05   2.229627e+04
   3.789321e+05  -6.040369e+04
   4.250595e+05   7.993880e+04
  -1.812982e+05   3.211289e+05
  -7.745188e+05   3.062281e+05
