
 $NMID
 id='ANONYMOUS ', fmtdat='(2E16.6)'
 volume=1.0
 tramp=1.0
 $END
   5.013976e+07  -1.396661e+06
   3.184975e+07   2.952263e+07
  -4.778724e+06   3.424450e+07
  -2.432079e+07   1.485055e+07
  -1.575417e+07  -5.043059e+06
   2.264107e+06  -8.715818e+06
   9.278893e+06   2.476753e+05
   3.384013e+06   8.852729e+06
  -5.225107e+06   9.320080e+06
  -8.898884e+06   2.505052e+06
  -6.562444e+06  -5.578916e+06
  -8.148426e+05  -8.010440e+06
   3.632376e+06  -2.441976e+06
   2.445288e+06   5.339847e+06
  -3.398658e+06   6.490374e+06
  -7.344309e+06  -8.168432e+05
  -4.446189e+06  -9.212115e+06
   3.061108e+06  -1.091391e+07
   8.971185e+06  -5.564364e+06
   9.637601e+06   1.697874e+06
   5.854422e+06   6.450223e+06
   7.971038e+05   7.349101e+06
  -2.019008e+06   5.314382e+06
  -1.022940e+06   2.922374e+06
   1.166930e+06   2.738346e+06
  -1.364497e+05   4.211063e+06
  -5.406010e+06   3.852062e+06
  -9.064955e+06   1.123751e+05
  -6.367173e+06  -3.900647e+06
   7.200055e+04  -4.452454e+06
   3.657010e+06  -1.956802e+06
   2.066117e+06   4.105623e+05
  -1.242829e+06   9.803455e+05
  -2.672283e+06   7.850282e+04
  -1.942647e+06  -1.868880e+06
  -1.937684e+05  -3.820881e+06
   1.727116e+06  -3.345762e+06
   2.543527e+06   2.257509e+05
   1.271722e+06   3.087977e+06
  -4.979046e+05   1.340716e+06
   7.206576e+04  -2.551588e+06
   2.449589e+06  -2.277459e+06
   2.444366e+06   2.830329e+06
  -1.752696e+06   5.734357e+06
  -5.930661e+06   1.350039e+06
  -4.763658e+06  -5.894022e+06
   1.316518e+06  -7.686484e+06
   6.621176e+06  -2.358510e+06
   6.644430e+06   4.040962e+06
   1.987854e+06   5.761014e+06
  -3.287742e+06   2.774713e+06
  -5.229367e+06  -1.297126e+06
  -2.588034e+06  -3.302501e+06
   2.088098e+06  -2.219556e+06
   4.245584e+06   6.553102e+05
   1.970076e+06   2.428865e+06
  -1.516000e+06   1.318537e+06
  -1.756572e+06  -9.612170e+05
   1.071532e+06  -1.136064e+06
   2.508987e+06   1.211292e+06
  -2.009195e+03   3.065994e+06
  -3.850479e+06   2.077992e+06
  -4.932131e+06  -8.341661e+05
  -2.356675e+06  -3.497104e+06
   1.690808e+06  -4.867407e+06
   4.852465e+06  -4.421958e+06
   5.803048e+06  -1.487958e+06
   4.103086e+06   2.995568e+06
   7.910401e+05   5.783347e+06
  -1.654210e+06   4.650752e+06
  -1.654987e+06   1.491632e+06
  -4.658461e+05  -3.664214e+03
  -4.385616e+05   8.404255e+05
  -1.818660e+06   1.355095e+06
  -2.673388e+06  -1.791287e+05
  -1.705842e+06  -2.158426e+06
   2.931522e+05  -2.147073e+06
   1.726001e+06  -1.621658e+04
   1.620709e+06   2.280372e+06
  -1.543569e+05   2.916110e+06
  -2.722677e+06   1.429692e+06
  -4.132175e+06  -1.291792e+06
  -2.890549e+06  -3.507933e+06
   2.680627e+04  -3.809339e+06
   1.983257e+06  -2.476875e+06
   1.970562e+06  -1.156343e+06
   1.746991e+06  -7.861127e+05
   2.930823e+06  -5.314440e+05
   4.316172e+06   7.589555e+05
   3.437380e+06   2.785083e+06
   5.619119e+04   4.130153e+06
  -3.323975e+06   3.803016e+06
  -4.242899e+06   1.907503e+06
  -2.556730e+06  -5.953796e+05
  -6.577716e+04  -2.215915e+06
   1.221373e+06  -1.797418e+06
   5.269700e+05   8.759523e+04
  -1.148813e+06   1.242930e+06
  -1.878485e+06   3.529816e+05
  -8.427142e+05  -1.175710e+06
   5.899304e+05  -1.087430e+06
   5.056434e+05   4.252235e+05
  -1.023266e+06   8.583525e+05
  -1.968088e+06  -1.048293e+06
  -9.081424e+05  -3.435622e+06
   1.403116e+06  -3.669179e+06
   3.212697e+06  -1.418960e+06
   3.531257e+06   1.411833e+06
   2.393119e+06   2.965640e+06
   3.989744e+05   2.761692e+06
  -1.329866e+06   1.433740e+06
  -1.605165e+06   1.467250e+05
  -4.954435e+05  -5.986641e+04
   3.460174e+05   7.651629e+05
  -4.044414e+05   1.323583e+06
  -1.874178e+06   5.613361e+05
  -2.026140e+06  -8.768337e+05
  -4.028136e+05  -1.409565e+06
   1.189161e+06  -5.709624e+05
   9.317528e+05   4.990112e+05
  -8.769141e+05   5.925940e+05
  -2.301394e+06  -3.230032e+05
  -1.837233e+06  -1.472924e+06
   2.864646e+05  -2.088242e+06
   2.416678e+06  -1.661620e+06
   2.828469e+06  -2.147315e+05
   1.203877e+06   1.278663e+06
  -9.222890e+05   1.459311e+06
  -1.522099e+06   1.683094e+05
  -1.632827e+05  -1.052693e+06
   1.532801e+06  -7.000198e+05
   1.731686e+06   8.118057e+05
   3.455367e+05   1.696359e+06
  -1.115988e+06   1.024202e+06
  -1.306105e+06  -3.000865e+05
  -2.792024e+05  -8.001798e+05
   7.833158e+05  -5.837556e+04
   7.083587e+05   1.067893e+06
  -6.255466e+05   1.406927e+06
  -2.035456e+06   4.762713e+05
  -2.013827e+06  -1.116598e+06
  -3.368885e+05  -2.096857e+06
   1.479733e+06  -1.630404e+06
   1.752243e+06  -1.888495e+05
   5.087926e+05   8.915418e+05
  -6.830547e+05   8.121142e+05
  -6.657369e+05   4.399346e+04
   1.340224e+05  -4.182553e+05
   5.653194e+05  -2.232357e+05
   1.882010e+05   1.243861e+05
  -4.499955e+05  -4.313881e+03
  -5.572307e+05  -6.544061e+05
   1.985728e+05  -1.206489e+06
   1.413021e+06  -8.861731e+05
   2.096325e+06   4.664008e+05
   1.427891e+06   1.998525e+06
  -2.908463e+05   2.451167e+06
  -1.697164e+06   1.414809e+06
  -1.754858e+06  -1.672825e+05
  -8.761666e+05  -9.916352e+05
  -2.744714e+05  -7.551676e+05
  -4.082114e+05  -2.595323e+05
  -5.871644e+05  -2.877791e+05
  -8.249437e+04  -7.395278e+05
   9.005745e+05  -9.053864e+05
   1.498997e+06  -3.091437e+05
   1.072556e+06   7.898105e+05
  -2.937955e+05   1.524296e+06
  -1.793450e+06   1.064344e+06
  -2.282584e+06  -5.523781e+05
  -1.118015e+06  -2.161728e+06
   1.047468e+06  -2.384643e+06
   2.588099e+06  -1.017141e+06
   2.402976e+06   7.021789e+05
   9.877160e+05   1.411920e+06
  -2.323040e+05   1.016942e+06
  -4.677293e+05   5.297242e+05
  -1.582626e+05   7.178644e+05
  -1.481734e+05   1.263108e+06
  -6.858186e+05   1.262517e+06
  -1.292082e+06   2.890787e+05
  -1.311823e+06  -1.127882e+06
  -5.045589e+05  -1.931141e+06
   6.742141e+05  -1.433420e+06
   1.309139e+06   3.229632e+04
   8.078264e+05   1.309194e+06
  -4.024637e+05   1.416063e+06
  -1.174228e+06   4.332977e+05
  -8.291568e+05  -6.718645e+05
   9.938110e+04  -1.076896e+06
   5.215492e+05  -8.107955e+05
   8.992345e+04  -4.487590e+05
  -4.143418e+05  -3.565920e+05
  -4.182098e+04  -3.902895e+05
   1.155489e+06  -1.966900e+05
   2.061270e+06   3.695954e+05
   1.616801e+06   1.077043e+06
  -3.646058e+04   1.446228e+06
  -1.599871e+06   1.121133e+06
  -1.861229e+06   2.586138e+05
  -8.633735e+05  -4.918293e+05
   2.539987e+05  -5.602821e+05
   5.181023e+05  -4.148813e+04
   2.215261e+04   3.978052e+05
  -4.627599e+05   2.355184e+05
  -4.731940e+05  -3.569852e+05
  -2.054863e+05  -7.286881e+05
  -5.838139e+04  -4.729911e+05
  -1.565575e+05   1.081726e+05
  -3.255375e+05   2.970525e+05
  -2.790560e+05  -2.433119e+05
   1.888437e+05  -9.945613e+05
   9.343792e+05  -1.049991e+06
   1.341378e+06  -1.436475e+05
   8.071390e+05   9.290125e+05
  -4.346753e+05   1.118109e+06
  -1.248273e+06   2.953493e+05
  -7.176874e+05  -6.048629e+05
   7.258464e+05  -6.465588e+05
   1.626119e+06   1.354309e+05
   1.030998e+06   9.192322e+05
  -5.092521e+05   1.025106e+06
  -1.562644e+06   4.712388e+05
  -1.277856e+06  -2.268057e+05
  -1.292724e+05  -5.392935e+05
   6.713716e+05  -2.675318e+05
   3.795373e+05   2.959522e+05
  -6.084522e+05   4.948366e+05
  -1.181584e+06  -1.274631e+05
  -6.235943e+05  -1.206798e+06
   6.575186e+05  -1.683893e+06
   1.526018e+06  -8.362011e+05
   1.245637e+06   8.084676e+05
   1.495954e+05   1.825207e+06
  -7.972669e+05   1.302412e+06
  -9.485559e+05  -1.973019e+05
  -4.171130e+05  -1.232192e+06
   2.445431e+05  -1.000280e+06
   5.750462e+05  -7.970259e+04
   4.700801e+05   4.095686e+05
   1.692724e+05   1.594836e+05
   5.154482e+04  -1.033669e+05
   2.684561e+05   2.833428e+05
   4.881599e+05   9.858169e+05
   1.734689e+05   1.117043e+06
  -7.249838e+05   3.995424e+05
  -1.486259e+06  -5.161413e+05
  -1.287773e+06  -8.989469e+05
  -1.725653e+05  -7.138197e+05
   8.857117e+05  -3.895443e+05
   1.012201e+06  -1.568822e+05
   3.644827e+05   4.873755e+04
  -1.559102e+05   2.196927e+05
  -3.902252e+04   2.259225e+05
   2.682595e+05   1.229986e+05
   4.313327e+04   1.313256e+05
  -6.819513e+05   2.028631e+05
  -1.055842e+06  -3.966991e+04
  -4.106606e+05  -6.904847e+05
   8.830721e+05  -1.154030e+06
   1.726843e+06  -7.275091e+05
   1.402165e+06   4.597435e+05
   2.379163e+05   1.428541e+06
  -8.058945e+05   1.376972e+06
  -1.067907e+06   5.148865e+05
  -6.517558e+05  -2.578698e+05
  -1.240502e+05  -3.604323e+05
   7.025795e+04  -4.937400e+04
  -9.035411e+04   2.391933e+04
  -3.026795e+05  -3.852794e+05
  -2.329226e+05  -8.315077e+05
   1.964535e+05  -6.801842e+05
   6.791694e+05   1.451322e+05
   7.144326e+05   9.767767e+05
   8.988388e+04   1.032441e+06
  -7.581310e+05   2.216955e+05
  -1.018766e+06  -7.530318e+05
  -3.264898e+05  -1.103188e+06
   7.288433e+05  -6.655945e+05
   1.126365e+06   9.566842e+04
   5.319008e+05   6.229702e+05
  -2.940162e+05   6.786339e+05
  -3.874253e+05   3.744491e+05
   2.485322e+05   2.810899e+04
   6.579444e+05  -2.126378e+04
   1.430301e+05   3.108644e+05
  -8.541718e+05   6.692631e+05
  -1.296150e+06   5.305005e+05
  -7.758509e+05  -1.834407e+05
   1.128684e+05  -8.769048e+05
   5.724033e+05  -8.649090e+05
   4.242741e+05  -1.651883e+05
   3.771883e+04   4.810630e+05
  -2.458228e+05   4.326828e+05
  -3.427625e+05  -1.589570e+05
  -2.441051e+05  -5.889816e+05
   5.313113e+04  -4.277463e+05
   3.903458e+05   5.378859e+04
   4.830369e+05   2.902241e+05
   2.504600e+05   1.022854e+05
  -3.958787e+04  -1.464935e+05
  -1.007191e+05  -4.389869e+04
  -3.898126e+03   3.437095e+05
  -5.194015e+04   5.337250e+05
  -3.081972e+05   2.062946e+05
  -4.421955e+05  -3.801058e+05
  -1.423551e+05  -6.400772e+05
   4.149970e+05  -3.042569e+05
   6.596827e+05   2.898905e+05
   2.405747e+05   5.807532e+05
  -5.201615e+05   3.629640e+05
  -8.875890e+05  -8.840086e+04
  -4.771943e+05  -3.893052e+05
   2.976082e+05  -3.994495e+05
   6.419905e+05  -2.209374e+05
   2.525392e+05  -2.216174e+04
  -3.427985e+05   5.022359e+04
  -3.990331e+05  -7.721540e+04
   1.832617e+05  -2.812980e+05
   7.573312e+05  -2.434980e+05
