
 $NMID
 id='ANONYMOUS ', fmtdat='(2E16.6)'
 volume=1.0
 tramp=1.0
 $END
   2.561083e+07   2.753192e+06
   1.501939e+07   1.378412e+07
  -2.164530e+06   1.567035e+07
  -1.154574e+07   9.094014e+06
  -8.540333e+06   1.911110e+05
  -5.436335e+04  -4.277497e+06
   4.882812e+06  -1.769050e+06
   3.311959e+06   4.052706e+06
  -1.499940e+06   6.525977e+06
  -4.713861e+06   2.639220e+06
  -3.883427e+06  -3.567992e+06
  -2.364713e+05  -5.372538e+06
   2.615030e+06  -1.000808e+06
   1.878539e+06   4.456220e+06
  -1.634765e+06   4.985435e+06
  -4.138932e+06   1.340446e+05
  -2.714312e+06  -5.164172e+06
   1.664455e+06  -6.156402e+06
   5.169654e+06  -2.586391e+06
   4.962838e+06   1.986208e+06
   1.821038e+06   4.010283e+06
  -8.640535e+05   2.983940e+06
  -5.771570e+05   1.339715e+06
   1.691174e+06   1.574698e+06
   2.394471e+06   3.465254e+06
  -6.305491e+05   4.378605e+06
  -5.288876e+06   2.439247e+06
  -7.011187e+06  -1.178923e+06
  -3.727550e+06  -3.531516e+06
   1.580650e+06  -2.967788e+06
   3.933904e+06  -4.022003e+05
   1.608067e+06   1.916217e+06
  -2.381712e+06   2.162052e+06
  -3.906590e+06   1.299208e+04
  -1.976961e+06  -2.902965e+06
   9.122187e+05  -3.863490e+06
   1.954410e+06  -1.654323e+06
   8.002189e+05   1.521781e+06
  -6.867568e+05   2.051569e+06
  -7.258302e+05  -6.669542e+05
   6.619258e+05  -3.126665e+06
   1.929258e+06  -2.030283e+06
   1.624179e+06   1.386978e+06
  -2.154722e+05   2.875049e+06
  -1.990280e+06   5.504770e+05
  -1.831993e+06  -2.895982e+06
   6.603738e+05  -3.623723e+06
   3.684857e+06  -9.311964e+05
   4.495498e+06   2.524458e+06
   1.954446e+06   3.844610e+06
  -2.028007e+06   2.394958e+06
  -4.031971e+06  -2.363893e+05
  -2.465265e+06  -1.881864e+06
   8.154045e+05  -1.496516e+06
   2.516042e+06   1.280653e+05
   1.367177e+06   1.205942e+06
  -8.176461e+05   7.505667e+05
  -1.470870e+06  -5.044189e+05
  -1.274915e+05  -1.090091e+06
   1.324073e+06  -4.465447e+05
   9.557839e+05   6.620013e+05
  -1.025013e+06   1.071164e+06
  -2.464612e+06   1.925882e+05
  -1.489492e+06  -1.617543e+06
   1.511090e+06  -3.121117e+06
   4.150463e+06  -2.842281e+06
   4.344995e+06  -3.961408e+05
   2.294963e+06   2.700901e+06
   4.575969e+04   4.195894e+06
  -7.990859e+05   3.390804e+06
  -5.621147e+05   1.789138e+06
  -6.353253e+05   1.119507e+06
  -1.614352e+06   1.240471e+06
  -2.687868e+06   6.509498e+05
  -2.671660e+06  -1.174071e+06
  -1.232358e+06  -2.783793e+06
   8.368310e+05  -2.378509e+06
   2.169875e+06   9.052342e+03
   1.724907e+06   2.370249e+06
  -3.370986e+05   2.679481e+06
  -2.480770e+06   7.811455e+05
  -2.948335e+06  -1.636809e+06
  -1.455918e+06  -2.754062e+06
   4.825892e+05  -2.218698e+06
   1.249622e+06  -1.137857e+06
   9.366636e+05  -6.762223e+05
   1.021895e+06  -8.527936e+05
   2.279610e+06  -7.328224e+05
   3.548827e+06   3.988429e+05
   2.948241e+06   2.210895e+06
   1.474324e+05   3.548151e+06
  -2.946518e+06   3.339385e+06
  -3.926121e+06   1.474408e+06
  -2.232618e+06  -9.172670e+05
   3.295812e+05  -2.161265e+06
   1.426807e+06  -1.458446e+06
   4.498475e+05   2.297673e+05
  -1.132480e+06   1.049056e+06
  -1.540602e+06   2.441981e+05
  -5.246431e+05  -9.931267e+05
   6.389657e+05  -9.991121e+05
   6.884620e+05   2.580203e+05
  -3.856325e+05   1.063704e+06
  -1.495636e+06   2.976269e+04
  -1.481295e+06  -2.152303e+06
  -6.153520e+03  -3.348658e+06
   2.136205e+06  -2.221092e+06
   3.441213e+06   4.317171e+05
   2.813365e+06   2.528106e+06
   6.629863e+05   2.689439e+06
  -1.262420e+06   1.350324e+06
  -1.518654e+06   7.743823e+04
  -4.386046e+05  -4.715394e+04
   3.234946e+05   6.541526e+05
  -2.604226e+05   1.035961e+06
  -1.437091e+06   4.589911e+05
  -1.649840e+06  -5.763538e+05
  -4.373568e+05  -1.061849e+06
   9.667854e+05  -5.675527e+05
   9.747338e+05   3.621259e+05
  -5.843629e+05   7.647088e+05
  -2.167858e+06   1.278033e+05
  -2.035367e+06  -1.157901e+06
  -5.236621e+04  -2.059313e+06
   2.086918e+06  -1.727734e+06
   2.514459e+06  -3.153364e+05
   1.037440e+06   1.015006e+06
  -7.522126e+05   1.128744e+06
  -1.164801e+06   9.184750e+04
  -4.128014e+04  -8.477197e+05
   1.304742e+06  -5.951184e+05
   1.529628e+06   5.914086e+05
   4.919752e+05   1.424284e+06
  -7.852123e+05   1.053464e+06
  -1.154087e+06  -2.461900e+04
  -3.946820e+05  -5.941370e+05
   5.801602e+05  -7.442338e+04
   5.894876e+05   9.069413e+05
  -5.777356e+05   1.224153e+06
  -1.809886e+06   3.928942e+05
  -1.760788e+06  -9.876990e+05
  -3.205185e+05  -1.808394e+06
   1.209036e+06  -1.438581e+06
   1.493057e+06  -2.557656e+05
   5.232348e+05   7.212298e+05
  -5.367785e+05   7.622153e+05
  -6.822309e+05   6.478196e+04
  -1.180794e+04  -5.212167e+05
   5.874884e+05  -4.169263e+05
   4.563065e+05   8.568438e+04
  -1.959208e+05   2.105255e+05
  -5.403334e+05  -3.500627e+05
   1.957695e+04  -9.982860e+05
   1.165013e+06  -8.337379e+05
   1.846421e+06   3.445415e+05
   1.281464e+06   1.726031e+06
  -2.067701e+05   2.208675e+06
  -1.466398e+06   1.416517e+06
  -1.661692e+06   1.635916e+04
  -1.018366e+06  -9.334315e+05
  -3.894817e+05  -9.420642e+05
  -2.565142e+05  -4.403762e+05
  -3.241092e+05  -2.191147e+05
  -3.176459e+04  -5.371741e+05
   7.096872e+05  -8.381847e+05
   1.332364e+06  -4.138635e+05
   1.111682e+06   6.777498e+05
  -1.010404e+05   1.490067e+06
  -1.556958e+06   1.096760e+06
  -2.090071e+06  -3.959308e+05
  -1.118767e+06  -1.839712e+06
   7.398312e+05  -2.087999e+06
   2.139342e+06  -1.029912e+06
   2.178407e+06   4.009162e+05
   1.119021e+06   1.172268e+06
  -2.353269e+04   1.062991e+06
  -4.940792e+05   6.810487e+05
  -3.709053e+05   6.752700e+05
  -2.616816e+05   1.003036e+06
  -5.710970e+05   1.010402e+06
  -1.073416e+06   2.243198e+05
  -1.151034e+06  -1.002264e+06
  -4.633019e+05  -1.719993e+06
   5.960791e+05  -1.289647e+06
   1.171168e+06  -2.927174e+04
   7.661664e+05   1.065981e+06
  -2.186061e+05   1.224315e+06
  -8.671655e+05   5.114268e+05
  -6.812605e+05  -3.735160e+05
  -4.948703e+04  -8.041361e+05
   2.571184e+05  -7.105053e+05
  -2.131433e+04  -4.569584e+05
  -3.487293e+05  -3.587765e+05
  -2.496314e+04  -3.680774e+05
   9.513047e+05  -2.037895e+05
   1.735591e+06   2.748131e+05
   1.436806e+06   8.637650e+05
   8.631296e+04   1.170144e+06
  -1.274762e+06   9.518345e+05
  -1.578720e+06   3.342267e+05
  -7.812356e+05  -2.583032e+05
   1.717988e+05  -4.155113e+05
   4.030928e+05  -9.876742e+04
  -4.279882e+04   2.718964e+05
  -4.638164e+05   1.999763e+05
  -4.077897e+05  -3.181030e+05
  -8.648393e+04  -7.045231e+05
   4.677856e+04  -4.527571e+05
  -1.318731e+05   1.804150e+05
  -3.496867e+05   3.878913e+05
  -2.710293e+05  -1.935337e+05
   2.000227e+05  -9.397675e+05
   8.147514e+05  -9.248251e+05
   1.074716e+06  -3.960419e+04
   5.978318e+05   8.512070e+05
  -3.967244e+05   8.936343e+05
  -1.055339e+06   1.506789e+05
  -6.377624e+05  -5.704183e+05
   6.013334e+05  -6.032224e+05
   1.487397e+06   1.791149e+04
   1.080979e+06   7.360219e+05
  -3.013208e+05   9.924091e+05
  -1.379872e+06   6.174784e+05
  -1.229999e+06  -7.054893e+04
  -1.911929e+05  -4.931812e+05
   5.684919e+05  -3.027104e+05
   2.976551e+05   2.307202e+05
  -6.047555e+05   4.064568e+05
  -1.066918e+06  -1.891657e+05
  -4.761488e+05  -1.142125e+06
   7.062389e+05  -1.498777e+06
   1.437934e+06  -6.992300e+05
   1.131108e+06   7.597160e+05
   1.439817e+05   1.671897e+06
  -6.907864e+05   1.245567e+06
  -8.627497e+05  -8.749235e+04
  -4.672883e+05  -1.077957e+06
   9.634395e+04  -9.394222e+05
   4.787392e+05  -1.151204e+05
   5.054612e+05   3.638926e+05
   2.404120e+05   1.494413e+05
   8.972319e+03  -1.119179e+05
   1.190068e+05   2.231712e+05
   4.045622e+05   8.697884e+05
   2.716588e+05   1.002783e+06
  -5.347247e+05   3.629477e+05
  -1.365783e+06  -4.473895e+05
  -1.265895e+06  -7.755018e+05
  -1.713761e+05  -6.205025e+05
   8.778356e+05  -3.701472e+05
   9.357862e+05  -1.904948e+05
   2.512560e+05   7.180657e+03
  -1.721351e+05   1.983239e+05
   7.215405e+04   2.305683e+05
   3.564344e+05   1.410473e+05
   1.669917e+03   1.334087e+05
  -7.318277e+05   1.715887e+05
  -9.468831e+05  -6.684510e+04
  -2.193841e+05  -6.385844e+05
   9.053044e+05  -1.002539e+06
   1.505547e+06  -5.672096e+05
   1.152444e+06   5.003607e+05
   1.780034e+05   1.315333e+06
  -7.080929e+05   1.201844e+06
  -9.769251e+05   3.943677e+05
  -6.148465e+05  -2.862980e+05
  -6.763930e+04  -3.333093e+05
   1.635908e+05  -4.658605e+03
  -3.381834e+04   8.219838e+04
  -3.125915e+05  -3.068590e+05
  -2.493108e+05  -7.405706e+05
   2.039559e+05  -5.962151e+05
   6.469547e+05   1.958748e+05
   5.966663e+05   9.630781e+05
  -3.444698e+04   9.455065e+05
  -7.651535e+05   1.157792e+05
  -9.034417e+05  -7.793425e+05
  -2.240247e+05  -1.006162e+06
   6.929975e+05  -5.287101e+05
   9.743693e+05   1.311689e+05
   4.069219e+05   5.118183e+05
  -2.820272e+05   5.219347e+05
  -2.776572e+05   2.973670e+05
   3.178622e+05   4.084607e+04
   6.197029e+05  -6.472609e+03
   9.341769e+04   2.712065e+05
  -7.714116e+05   6.112402e+05
  -1.083115e+06   5.203034e+05
  -5.969472e+05  -1.210422e+05
   1.226386e+05  -7.575585e+05
   4.536684e+05  -7.240872e+05
   3.114528e+05  -6.395397e+04
  -7.219753e+03   4.805275e+05
  -2.519925e+05   3.452152e+05
  -3.305318e+05  -2.222375e+05
  -2.041080e+05  -5.391592e+05
   8.846481e+04  -3.191521e+05
   3.561940e+05   8.675270e+04
   3.939062e+05   2.174771e+05
   2.133107e+05   4.564530e+04
   1.876725e+04  -8.023083e+04
  -6.051106e+04   8.608048e+04
  -1.036767e+05   3.851571e+05
  -2.253830e+05   4.302155e+05
  -3.619792e+05   5.157332e+04
  -3.125305e+05  -4.643284e+05
   1.418741e+04  -6.231836e+05
   4.265136e+05  -2.405982e+05
   5.518214e+05   3.327892e+05
   1.779143e+05   5.677567e+05
  -4.522649e+05   3.052241e+05
  -7.615430e+05  -1.353584e+05
  -4.035461e+05  -3.638655e+05
   2.864973e+05  -2.981257e+05
   5.772110e+05  -1.148211e+05
   1.690803e+05   9.576533e+03
  -4.114587e+05  -2.558027e+03
  -4.136906e+05  -1.550445e+05
   2.278257e+05  -3.209936e+05
   8.042643e+05  -2.344660e+05
