
 $NMID
 id='ANONYMOUS ', fmtdat='(2E16.6)'
 volume=1.0
 tramp=1.0
 $END
   1.787949e+07  -1.299877e+06
   1.193110e+07   9.432596e+06
  -7.407583e+05   1.202694e+07
  -8.091688e+06   6.218439e+06
  -5.807997e+06  -8.904465e+05
   3.537142e+05  -3.152461e+06
   3.318213e+06  -5.248096e+05
   1.738850e+06   2.955183e+06
  -1.359143e+06   3.772603e+06
  -3.116552e+06   1.390102e+06
  -2.616063e+06  -1.932905e+06
  -5.073644e+05  -3.082022e+06
   1.381280e+06  -9.584239e+05
   1.182531e+06   2.122911e+06
  -9.741011e+05   2.699740e+06
  -2.696591e+06   1.419417e+04
  -1.916692e+06  -3.233630e+06
   8.135807e+05  -4.069001e+06
   3.162701e+06  -2.178534e+06
   3.508331e+06   5.503945e+05
   2.067870e+06   2.292425e+06
   2.460358e+05   2.492294e+06
  -5.297835e+05   1.708026e+06
   8.405510e+04   1.042743e+06
   8.286352e+05   1.258767e+06
   1.531373e+04   1.890998e+06
  -2.237783e+06   1.653671e+06
  -3.663267e+06   1.325020e+05
  -2.504572e+06  -1.469884e+06
   1.407962e+05  -1.754687e+06
   1.616681e+06  -7.564263e+05
   8.840964e+05   3.634000e+05
  -6.802309e+05   7.046807e+05
  -1.387441e+06   1.428819e+05
  -9.444866e+05  -9.415456e+05
  -2.314640e+04  -1.715936e+06
   7.232646e+05  -1.250280e+06
   8.630265e+05   2.708161e+05
   3.220640e+05   1.179027e+06
  -2.456835e+05   2.694022e+05
   2.803607e+04  -1.235008e+06
   9.113406e+05  -1.036306e+06
   1.018099e+06   9.285081e+05
  -3.425585e+05   2.072365e+06
  -1.896329e+06   6.062723e+05
  -1.758913e+06  -1.950651e+06
   2.513034e+05  -2.714856e+06
   2.343270e+06  -9.829377e+05
   2.673502e+06   1.307507e+06
   1.045436e+06   2.132892e+06
  -1.137375e+06   1.259925e+06
  -2.129557e+06  -2.163785e+05
  -1.219040e+06  -1.128844e+06
   6.336123e+05  -9.247004e+05
   1.597044e+06   6.692006e+04
   8.421995e+05   8.078798e+05
  -5.078315e+05   5.375908e+05
  -7.587277e+05  -2.865694e+05
   2.208333e+05  -5.198373e+05
   9.222306e+05   1.728922e+05
   2.433399e+05   9.228841e+05
  -1.147316e+06   8.345693e+05
  -1.760302e+06  -5.770460e+04
  -9.801968e+05  -1.147888e+06
   5.747117e+05  -1.895162e+06
   1.888675e+06  -1.829154e+06
   2.269451e+06  -6.453535e+05
   1.596246e+06   1.155051e+06
   3.985109e+05   2.262790e+06
  -4.416670e+05   1.880825e+06
  -4.921210e+05   7.468745e+05
  -2.216385e+05   2.018745e+05
  -3.543129e+05   4.666640e+05
  -9.042766e+05   5.568383e+05
  -1.197324e+06  -1.468161e+05
  -7.644593e+05  -1.001589e+06
   1.347536e+05  -1.010618e+06
   8.380858e+05  -8.106318e+04
   8.229476e+05   9.564775e+05
   6.334966e+03   1.256147e+06
  -1.118163e+06   6.166555e+05
  -1.670793e+06  -5.001264e+05
  -1.138115e+06  -1.339687e+06
  -1.503429e+04  -1.414140e+06
   6.854124e+05  -9.151523e+05
   6.584805e+05  -4.735766e+05
   6.137199e+05  -4.041314e+05
   1.151127e+06  -3.618338e+05
   1.783408e+06   1.301155e+05
   1.516255e+06   1.011089e+06
   1.808502e+05   1.711723e+06
  -1.265449e+06   1.705042e+06
  -1.751349e+06   9.133670e+05
  -1.100780e+06  -2.284204e+05
  -4.381561e+04  -9.718128e+05
   5.155780e+05  -7.863955e+05
   2.303153e+05   4.190636e+04
  -4.575663e+05   5.593196e+05
  -7.605073e+05   2.054722e+05
  -3.613329e+05  -4.617282e+05
   2.282238e+05  -4.942936e+05
   2.708830e+05   1.298902e+05
  -2.987421e+05   4.408671e+05
  -7.992391e+05  -2.060187e+05
  -5.999544e+05  -1.244290e+06
   2.453580e+05  -1.585904e+06
   1.160800e+06  -8.598387e+05
   1.571550e+06   3.286707e+05
   1.225500e+06   1.137637e+06
   3.198897e+05   1.183453e+06
  -5.246303e+05   6.624821e+05
  -6.900695e+05   1.086843e+05
  -2.115033e+05  -8.357466e+03
   1.763495e+05   3.036690e+05
  -1.061109e+05   5.454659e+05
  -7.294275e+05   2.939780e+05
  -8.575220e+05  -2.624605e+05
  -2.358332e+05  -5.455253e+05
   4.593352e+05  -2.965049e+05
   4.349110e+05   1.535302e+05
  -3.039635e+05   3.136819e+05
  -9.870469e+05   1.894770e+04
  -8.889659e+05  -5.194036e+05
  -1.012529e+04  -9.161331e+05
   9.430329e+05  -8.252228e+05
   1.182244e+06  -2.101973e+05
   5.459717e+05   4.775222e+05
  -3.282803e+05   6.190116e+05
  -6.060424e+05   1.125720e+05
  -8.946151e+04  -4.246823e+05
   6.098627e+05  -3.449336e+05
   7.548367e+05   2.571403e+05
   2.380664e+05   6.852970e+05
  -3.942414e+05   4.949581e+05
  -5.570306e+05  -3.479535e+04
  -1.744908e+05  -3.029448e+05
   3.012084e+05  -5.704444e+04
   3.255727e+05   4.119635e+05
  -2.157749e+05   6.045211e+05
  -8.363358e+05   2.643275e+05
  -8.788919e+05  -3.987775e+05
  -2.173621e+05  -8.603030e+05
   5.483780e+05  -7.347818e+05
   7.213527e+05  -1.552377e+05
   2.607967e+05   3.452684e+05
  -2.437077e+05   3.750341e+05
  -2.956731e+05   5.230738e+04
   1.116581e+04  -2.013963e+05
   2.357652e+05  -1.538912e+05
   1.317954e+05   3.209817e+04
  -1.470839e+05   4.320192e+04
  -2.558918e+05  -2.153830e+05
   1.861548e+04  -4.952918e+05
   5.463033e+05  -4.242539e+05
   8.909523e+05   1.131575e+05
   6.684348e+05   7.820787e+05
  -2.965698e+04   1.045823e+06
  -6.561472e+05   6.816264e+05
  -7.603140e+05   2.009122e+04
  -4.469668e+05  -3.948743e+05
  -1.721977e+05  -3.569347e+05
  -1.642378e+05  -1.367042e+05
  -2.177362e+05  -9.914652e+04
  -4.610004e+04  -2.865724e+05
   3.333582e+05  -4.118188e+05
   6.153094e+05  -2.009227e+05
   5.012072e+05   2.902288e+05
  -4.329215e+04   6.694625e+05
  -7.074504e+05   5.309206e+05
  -9.854156e+05  -1.375208e+05
  -5.640585e+05  -8.521915e+05
   3.241181e+05  -1.027551e+06
   1.021254e+06  -5.355772e+05
   1.038368e+06   1.716460e+05
   5.066985e+05   5.403752e+05
  -2.610378e+04   4.610187e+05
  -1.888378e+05   2.785357e+05
  -8.383118e+04   3.190424e+05
  -4.617273e+04   5.177903e+05
  -2.413053e+05   5.335604e+05
  -5.207109e+05   1.579769e+05
  -5.873668e+05  -4.300557e+05
  -2.809487e+05  -7.953346e+05
   2.334729e+05  -6.290311e+05
   5.516224e+05  -4.274962e+04
   3.910589e+05   5.033431e+05
  -9.599576e+04   5.997661e+05
  -4.431861e+05   2.418197e+05
  -3.555717e+05  -2.138924e+05
  -1.683237e+04  -4.242447e+05
   1.529323e+05  -3.518149e+05
   2.068474e+03  -2.010290e+05
  -1.824872e+05  -1.454802e+05
  -2.739221e+04  -1.670132e+05
   4.644370e+05  -1.237201e+05
   8.584647e+05   7.963512e+04
   7.132526e+05   3.806777e+05
   5.393139e+04   5.838661e+05
  -6.075007e+05   5.133201e+05
  -7.577792e+05   1.901463e+05
  -3.787090e+05  -1.430304e+05
   7.998624e+04  -2.270349e+05
   2.041631e+05  -4.470502e+04
   7.244240e+03   1.530362e+05
  -1.989155e+05   1.134947e+05
  -2.087518e+05  -1.361601e+05
  -9.272453e+04  -3.137687e+05
  -2.204386e+04  -2.059870e+05
  -5.935441e+04   6.576247e+04
  -1.346692e+05   1.597030e+05
  -1.266314e+05  -8.811159e+04
   5.296613e+04  -4.341347e+05
   3.543474e+05  -4.684863e+05
   5.368362e+05  -8.449975e+04
   3.469274e+05   3.711761e+05
  -1.500565e+05   4.649667e+05
  -5.074611e+05   1.421936e+05
  -3.226028e+05  -2.375397e+05
   2.754694e+05  -3.005519e+05
   6.948303e+05  -1.691027e+04
   4.935474e+05   3.337644e+05
  -1.501396e+05   4.601002e+05
  -6.356082e+05   2.875872e+05
  -5.598418e+05  -2.566766e+04
  -8.736755e+04  -2.233983e+05
   2.661554e+05  -1.472358e+05
   1.612234e+05   1.057051e+05
  -2.518699e+05   2.232137e+05
  -5.058399e+05  -2.814385e+04
  -2.890336e+05  -5.019947e+05
   2.444049e+05  -7.338146e+05
   6.317868e+05  -3.958949e+05
   5.568787e+05   3.068496e+05
   1.264169e+05   7.729093e+05
  -2.870470e+05   5.910146e+05
  -4.071043e+05  -3.415580e+04
  -2.344977e+05  -4.984856e+05
   4.440859e+04  -4.351903e+05
   2.310631e+05  -6.037328e+04
   2.281199e+05   1.540485e+05
   9.438704e+04   6.024648e+04
   1.060525e+04  -4.857585e+04
   9.825628e+04   1.073167e+05
   2.325478e+05   3.978875e+05
   1.337677e+05   4.634913e+05
  -2.700525e+05   1.912590e+05
  -6.511981e+05  -1.646183e+05
  -5.947655e+05  -3.281898e+05
  -9.900384e+04  -2.914099e+05
   3.772282e+05  -1.998879e+05
   4.264628e+05  -1.102385e+05
   1.397330e+05   3.332225e+03
  -6.491552e+04   9.945770e+04
   1.234651e+04   9.990878e+04
   1.402584e+05   4.589481e+04
   1.552608e+04   5.727202e+04
  -3.046729e+05   1.089733e+05
  -4.475704e+05   1.253572e+04
  -1.676984e+05  -2.851577e+05
   3.573911e+05  -5.133423e+05
   6.986978e+05  -3.470329e+05
   5.889612e+05   1.675436e+05
   1.416721e+05   6.029287e+05
  -2.924522e+05   6.009437e+05
  -4.387199e+05   2.398044e+05
  -2.905224e+05  -9.695090e+04
  -5.602524e+04  -1.505123e+05
   4.847649e+04  -1.771725e+04
  -2.656890e+04   2.374965e+04
  -1.475867e+05  -1.437618e+05
  -1.341393e+05  -3.408490e+05
   6.543320e+04  -2.917281e+05
   3.004190e+05   5.005063e+04
   3.280928e+05   4.064422e+05
   5.059232e+04   4.398310e+05
  -3.316614e+05   1.049205e+05
  -4.560549e+05  -3.048197e+05
  -1.614222e+05  -4.600988e+05
   2.951261e+05  -2.927489e+05
   4.726578e+05   1.279733e+04
   2.301315e+05   2.375335e+05
  -1.070891e+05   2.792971e+05
  -1.377843e+05   1.616939e+05
   1.252656e+05   4.687842e+03
   2.831495e+05  -2.884444e+04
   6.351538e+04   1.259522e+05
  -3.392376e+05   3.134335e+05
  -5.130134e+05   2.740909e+05
  -3.133351e+05  -4.557798e+04
   2.335578e+04  -3.690998e+05
   2.025531e+05  -3.726956e+05
   1.621907e+05  -6.541798e+04
   2.493768e+04   2.126695e+05
  -9.680914e+04   1.831098e+05
  -1.565498e+05  -7.099996e+04
  -1.199650e+05  -2.431424e+05
   1.787775e+04  -1.707109e+05
   1.688580e+05   1.709077e+04
   2.049597e+05   9.900249e+04
   1.058551e+05   2.616368e+04
  -9.684150e+03  -5.171344e+04
  -3.502989e+04   8.794101e+03
  -7.974333e+03   1.629318e+05
  -4.059816e+04   2.221126e+05
  -1.435790e+05   7.325813e+04
  -1.859720e+05  -1.722931e+05
  -5.461998e+04  -2.788280e+05
   1.766808e+05  -1.371932e+05
   2.820732e+05   1.158901e+05
   1.144869e+05   2.473388e+05
  -2.052571e+05   1.660952e+05
  -3.722759e+05  -1.969560e+04
  -2.100620e+05  -1.519858e+05
   1.176793e+05  -1.673587e+05
   2.662539e+05  -9.846089e+04
   9.557726e+04  -1.045191e+04
  -1.647383e+05   2.613075e+04
  -1.844358e+05  -3.468625e+04
   7.865066e+04  -1.401498e+05
   3.359970e+05  -1.344977e+05
