
 $NMID
 id='ANONYMOUS ', fmtdat='(2E16.6)'
 volume=1.0
 tramp=1.0
 $END
  -4.799324e+07   8.923170e+05
  -3.009731e+07  -2.787724e+07
   4.534793e+06  -3.227758e+07
   2.283728e+07  -1.440168e+07
   1.488038e+07   4.238525e+06
  -1.938165e+06   8.177189e+06
  -8.713617e+06   1.248938e+05
  -3.481573e+06  -8.216315e+06
   4.612226e+06  -9.099860e+06
   8.387738e+06  -2.656058e+06
   6.407205e+06   5.372983e+06
   8.651887e+05   7.853479e+06
  -3.598847e+06   2.347941e+06
  -2.582407e+06  -5.326113e+06
   3.070980e+06  -6.468049e+06
   7.017818e+06   6.300560e+05
   4.373244e+06   8.798584e+06
  -2.849211e+06   1.050509e+07
  -8.638858e+06   5.326983e+06
  -9.270121e+06  -1.772405e+06
  -5.447227e+06  -6.331958e+06
  -5.050190e+05  -6.957175e+06
   1.931999e+06  -4.792706e+06
   5.764039e+05  -2.627420e+06
  -1.589042e+06  -2.819264e+06
   4.130380e+04  -4.435675e+06
   5.532985e+06  -3.959503e+06
   9.133133e+06  -1.045478e+05
   6.270992e+06   3.922678e+06
  -2.700635e+05   4.475668e+06
  -3.877935e+06   1.927559e+06
  -2.193895e+06  -6.370229e+05
   1.353205e+06  -1.356818e+06
   2.981870e+06  -2.739869e+05
   2.173087e+06   2.029707e+06
   1.699820e+05   4.039546e+06
  -1.819994e+06   3.261659e+06
  -2.442016e+06  -4.866924e+05
  -1.025903e+06  -3.119177e+06
   6.548371e+05  -1.081829e+06
  -2.773169e+04   2.790461e+06
  -2.373781e+06   2.377072e+06
  -2.394563e+06  -2.647598e+06
   1.538931e+06  -5.403144e+06
   5.474385e+06  -1.199951e+06
   4.441659e+06   5.623629e+06
  -1.250273e+06   7.270090e+06
  -6.369386e+06   2.243056e+06
  -6.563439e+06  -3.820547e+06
  -2.141311e+06  -5.560674e+06
   3.106171e+06  -2.845528e+06
   5.182685e+06   1.041307e+06
   2.683384e+06   3.080377e+06
  -1.911616e+06   2.160090e+06
  -4.086829e+06  -5.502284e+05
  -1.939828e+06  -2.272305e+06
   1.441990e+06  -1.275263e+06
   1.773665e+06   8.683847e+05
  -8.630070e+05   1.119712e+06
  -2.317330e+06  -9.603952e+05
  -1.007979e+05  -2.690655e+06
   3.497296e+06  -1.919667e+06
   4.640317e+06   6.762743e+05
   2.290593e+06   3.270161e+06
  -1.654858e+06   4.797475e+06
  -4.845417e+06   4.454142e+06
  -5.783579e+06   1.479479e+06
  -4.039533e+06  -3.023370e+06
  -8.052854e+05  -5.742513e+06
   1.473662e+06  -4.601766e+06
   1.441558e+06  -1.578678e+06
   4.234543e+05  -2.213607e+05
   5.904128e+05  -1.049044e+06
   2.033047e+06  -1.425019e+06
   2.853988e+06   2.476647e+05
   1.821658e+06   2.310933e+06
  -2.928136e+05   2.317640e+06
  -1.866016e+06   1.159052e+05
  -1.796134e+06  -2.304524e+06
   9.138855e+04  -3.000457e+06
   2.770697e+06  -1.461544e+06
   4.156186e+06   1.319885e+06
   2.832971e+06   3.496107e+06
  -7.246678e+04   3.708495e+06
  -1.929444e+06   2.360443e+06
  -1.852637e+06   1.116826e+06
  -1.647704e+06   8.418761e+05
  -2.887396e+06   6.552754e+05
  -4.343259e+06  -6.064670e+05
  -3.546779e+06  -2.683412e+06
  -1.978880e+05  -4.169605e+06
   3.258919e+06  -3.967333e+06
   4.296285e+06  -2.050543e+06
   2.641713e+06   5.932025e+05
   8.601043e+04   2.314040e+06
  -1.253559e+06   1.868559e+06
  -5.468243e+05  -1.006187e+05
   1.152316e+06  -1.299823e+06
   1.882305e+06  -3.965895e+05
   8.515879e+05   1.177207e+06
  -5.831094e+05   1.138356e+06
  -5.599063e+05  -3.784085e+05
   9.008072e+05  -9.176998e+05
   1.918856e+06   8.572201e+05
   1.081130e+06   3.258003e+06
  -1.086783e+06   3.695005e+06
  -3.023908e+06   1.656194e+06
  -3.624674e+06  -1.156653e+06
  -2.638357e+06  -2.866749e+06
  -5.658694e+05  -2.811882e+06
   1.313590e+06  -1.519996e+06
   1.646896e+06  -1.987860e+05
   5.046587e+05   4.397829e+04
  -3.772264e+05  -7.616454e+05
   3.628624e+05  -1.327609e+06
   1.852085e+06  -6.065035e+05
   2.047054e+06   8.040011e+05
   4.530716e+05   1.382218e+06
  -1.171989e+06   6.221030e+05
  -9.831016e+05  -4.532370e+05
   8.212321e+05  -6.579026e+05
   2.340670e+06   1.730924e+05
   1.973791e+06   1.381843e+06
  -1.556157e+05   2.144456e+06
  -2.374278e+06   1.806114e+06
  -2.859646e+06   3.307775e+05
  -1.250005e+06  -1.243203e+06
   8.925610e+05  -1.479313e+06
   1.514461e+06  -1.953027e+05
   1.748970e+05   1.058429e+06
  -1.528785e+06   7.520159e+05
  -1.775477e+06  -7.485317e+05
  -4.308487e+05  -1.685570e+06
   1.056002e+06  -1.085832e+06
   1.318266e+06   2.228344e+05
   3.252798e+05   7.741653e+05
  -7.741209e+05   7.981840e+04
  -7.455627e+05  -1.059460e+06
   5.962630e+05  -1.448940e+06
   2.057286e+06  -5.454658e+05
   2.078847e+06   1.071789e+06
   4.096040e+05   2.110360e+06
  -1.434797e+06   1.695519e+06
  -1.757657e+06   2.582182e+05
  -5.521312e+05  -8.728892e+05
   6.539786e+05  -8.492167e+05
   6.894035e+05  -7.680138e+04
  -8.920026e+04   4.461539e+05
  -5.662006e+05   2.897005e+05
  -2.436771e+05  -9.432051e+04
   4.062221e+05  -3.207298e+04
   5.782617e+05   6.037266e+05
  -1.410470e+05   1.208650e+06
  -1.388838e+06   9.482337e+05
  -2.138729e+06  -3.954143e+05
  -1.515128e+06  -1.976360e+06
   2.052969e+05  -2.502915e+06
   1.660686e+06  -1.517274e+06
   1.794442e+06   7.742761e+04
   9.674967e+05   9.704137e+05
   3.486751e+05   7.938638e+05
   4.211895e+05   2.942471e+05
   5.700257e+05   2.819552e+05
   9.217291e+04   7.316001e+05
  -8.676778e+05   9.488079e+05
  -1.503348e+06   3.874546e+05
  -1.141748e+06  -7.514735e+05
   2.111252e+05  -1.570438e+06
   1.771094e+06  -1.163858e+06
   2.342333e+06   4.665040e+05
   1.222245e+06   2.138658e+06
  -9.576625e+05   2.439173e+06
  -2.561879e+06   1.127424e+06
  -2.456553e+06  -5.950446e+05
  -1.084818e+06  -1.371515e+06
   1.601394e+05  -1.054962e+06
   4.559426e+05  -5.955649e+05
   1.741527e+05  -7.587155e+05
   1.409956e+05  -1.278404e+06
   6.583536e+05  -1.283886e+06
   1.294116e+06  -3.245282e+05
   1.367839e+06   1.105502e+06
   5.783240e+05   1.946851e+06
  -6.375603e+05   1.481789e+06
  -1.329297e+06   1.989446e+04
  -8.647604e+05  -1.284913e+06
   3.422690e+05  -1.436674e+06
   1.140486e+06  -4.869349e+05
   8.387241e+05   6.223348e+05
  -5.407971e+04   1.061888e+06
  -4.696966e+05   8.242770e+05
  -5.543267e+04   4.615087e+05
   4.326477e+05   3.574782e+05
   5.485291e+04   3.998350e+05
  -1.153297e+06   2.369227e+05
  -2.087461e+06  -3.067127e+05
  -1.671981e+06  -1.026782e+06
  -2.144026e+04  -1.443473e+06
   1.568759e+06  -1.173378e+06
   1.863526e+06  -3.352752e+05
   8.828716e+05   4.407882e+05
  -2.369893e+05   5.598794e+05
  -5.110338e+05   6.530926e+04
  -1.886649e+04  -3.942662e+05
   4.722173e+05  -2.566228e+05
   4.904123e+05   3.485698e+05
   2.204437e+05   7.507942e+05
   6.030036e+04   4.917552e+05
   1.480328e+05  -1.288998e+05
   3.224175e+05  -3.383651e+05
   2.941813e+05   2.324721e+05
  -1.606435e+05   1.029241e+06
  -9.137673e+05   1.095673e+06
  -1.345895e+06   1.662606e+05
  -8.325631e+05  -9.314876e+05
   4.147520e+05  -1.134785e+06
   1.258584e+06  -3.178956e+05
   7.516789e+05   5.971883e+05
  -7.073784e+05   6.824624e+05
  -1.657132e+06  -6.438764e+04
  -1.100010e+06  -8.750881e+05
   4.526754e+05  -1.061302e+06
   1.557181e+06  -5.629233e+05
   1.312930e+06   1.598697e+05
   1.629105e+05   5.408460e+05
  -6.644450e+05   3.027093e+05
  -3.864481e+05  -2.861587e+05
   6.159676e+05  -5.220390e+05
   1.214047e+06   1.029058e+05
   6.650835e+05   1.224361e+06
  -6.344099e+05   1.742699e+06
  -1.541425e+06   8.981793e+05
  -1.299690e+06  -7.867483e+05
  -2.168298e+05  -1.858370e+06
   7.587797e+05  -1.363632e+06
   9.676917e+05   1.534246e+05
   4.792512e+05   1.229255e+06
  -1.919366e+05   1.024710e+06
  -5.734222e+05   1.049249e+05
  -5.061811e+05  -3.947189e+05
  -1.931423e+05  -1.514263e+05
  -4.136895e+04   1.074104e+05
  -2.597913e+05  -2.833384e+05
  -5.228413e+05  -9.875879e+05
  -2.331760e+05  -1.123179e+06
   7.050195e+05  -4.229933e+05
   1.534574e+06   4.713535e+05
   1.357287e+06   8.592668e+05
   2.006956e+05   7.164225e+05
  -9.014108e+05   4.355028e+05
  -1.026389e+06   2.036858e+05
  -3.571717e+05  -3.690403e+04
   1.568880e+05  -2.313449e+05
   1.204259e+04  -2.280788e+05
  -2.991679e+05  -1.130296e+05
  -4.323087e+04  -1.377072e+05
   7.087203e+05  -2.362223e+05
   1.078605e+06   1.078635e+04
   4.171057e+05   7.036323e+05
  -8.825220e+05   1.206889e+06
  -1.732968e+06   7.800925e+05
  -1.431340e+06  -4.443227e+05
  -2.859687e+05  -1.454857e+06
   7.748393e+05  -1.421872e+06
   1.078411e+06  -5.495812e+05
   6.813432e+05   2.480616e+05
   1.316254e+05   3.678228e+05
  -8.986152e+04   5.330690e+04
   7.872739e+04  -3.418355e+04
   3.250659e+05   3.726793e+05
   2.711058e+05   8.350966e+05
  -1.833239e+05   6.987492e+05
  -7.075780e+05  -1.337107e+05
  -7.585522e+05  -9.889068e+05
  -1.075052e+05  -1.059917e+06
   7.850631e+05  -2.428954e+05
   1.067933e+06   7.513658e+05
   3.584222e+05   1.120209e+06
  -7.316662e+05   6.930486e+05
  -1.147171e+06  -7.044753e+04
  -5.468585e+05  -6.138630e+05
   2.863446e+05  -6.873586e+05
   3.731139e+05  -3.824565e+05
  -2.711121e+05  -1.607892e+04
  -6.750620e+05   4.347950e+04
  -1.494418e+05  -3.129984e+05
   8.475998e+05  -7.118365e+05
   1.285354e+06  -5.846335e+05
   7.759807e+05   1.610098e+05
  -9.170154e+04   8.931456e+05
  -5.478319e+05   8.863285e+05
  -4.209359e+05   1.628882e+05
  -5.095015e+04  -4.998109e+05
   2.444169e+05  -4.436854e+05
   3.639539e+05   1.622830e+05
   2.662805e+05   5.944884e+05
  -5.158936e+04   4.293016e+05
  -4.030374e+05  -4.795187e+04
  -4.915525e+05  -2.751525e+05
  -2.530552e+05  -8.887297e+04
   3.220780e+04   1.431646e+05
   8.974265e+04   2.230226e+04
   3.952165e+03  -3.704251e+05
   6.909038e+04  -5.499744e+05
   3.312169e+05  -2.038576e+05
   4.575403e+05   3.994297e+05
   1.456548e+05   6.656473e+05
  -4.239943e+05   3.219921e+05
  -6.797835e+05  -2.885547e+05
  -2.611708e+05  -5.940147e+05
   5.166315e+05  -3.822531e+05
   9.048336e+05   7.268226e+04
   4.956281e+05   3.848641e+05
  -2.975321e+05   4.077488e+05
  -6.526477e+05   2.321020e+05
  -2.487668e+05   2.169430e+04
   3.684820e+05  -6.198705e+04
   4.245313e+05   7.591006e+04
  -1.830305e+05   3.087322e+05
  -7.829939e+05   2.847902e+05
