
 $NMID
 id='ANONYMOUS ', fmtdat='(2E16.6)'
 volume=1.0
 tramp=1.0
 $END
  -4.038365e+07   1.965757e+05
  -2.551253e+07  -2.226172e+07
   2.934116e+06  -2.654877e+07
   1.865084e+07  -1.338853e+07
   1.301033e+07   2.016002e+06
  -8.984281e+05   6.925007e+06
  -7.506654e+06   1.156955e+06
  -3.865158e+06  -6.719953e+06
   3.240293e+06  -8.647765e+06
   7.165764e+06  -3.041131e+06
   5.743474e+06   4.754356e+06
   7.636055e+05   7.197922e+06
  -3.328590e+06   1.917495e+06
  -2.512366e+06  -5.262908e+06
   2.480196e+06  -6.300616e+06
   6.144363e+06   1.458107e+05
   4.067069e+06   7.570080e+06
  -2.254502e+06   9.199791e+06
  -7.444776e+06   4.543407e+06
  -7.842074e+06  -1.814215e+06
  -4.172215e+06  -5.512129e+06
  -2.631724e+04  -5.461305e+06
   1.263387e+06  -3.481399e+06
  -5.787585e+05  -2.365096e+06
  -2.137593e+06  -3.371315e+06
   2.918554e+05  -4.744590e+06
   5.767290e+06  -3.572298e+06
   8.752379e+06   3.828532e+05
   5.535960e+06   3.904549e+06
  -8.673005e+05   4.039903e+06
  -4.155312e+06   1.351585e+06
  -2.047964e+06  -1.295449e+06
   1.984929e+06  -1.861721e+06
   3.676615e+06  -1.743449e+05
   2.247535e+06   2.603819e+06
  -3.149755e+05   4.243257e+06
  -1.957558e+06   2.724661e+06
  -1.786193e+06  -9.819503e+05
  -3.020249e+05  -2.773990e+06
   6.881545e+05  -2.889609e+05
  -3.277818e+05   3.166672e+06
  -2.302549e+06   2.427288e+06
  -2.255179e+06  -2.175001e+06
   8.701428e+05  -4.602679e+06
   4.117656e+06  -1.112260e+06
   3.603176e+06   4.577456e+06
  -8.816438e+05   6.030888e+06
  -5.460167e+06   1.893547e+06
  -6.112158e+06  -3.344923e+06
  -2.320075e+06  -5.105646e+06
   2.764845e+06  -2.904281e+06
   5.043171e+06   6.312962e+05
   2.849500e+06   2.683937e+06
  -1.468771e+06   2.044346e+06
  -3.633392e+06  -2.965867e+05
  -1.855703e+06  -1.878137e+06
   1.213640e+06  -1.142652e+06
   1.779976e+06   7.261695e+05
  -4.172748e+05   1.227502e+06
  -2.043945e+06  -2.750860e+05
  -6.206601e+05  -1.897992e+06
   2.482494e+06  -1.741859e+06
   3.936906e+06   1.862763e+05
   2.143600e+06   2.649079e+06
  -1.619724e+06   4.352057e+06
  -4.790006e+06   4.062745e+06
  -5.472200e+06   1.147926e+06
  -3.519095e+06  -3.013054e+06
  -5.863040e+05  -5.388742e+06
   1.169170e+06  -4.387399e+06
   1.099178e+06  -1.847702e+06
   5.838517e+05  -6.923537e+05
   1.147978e+06  -1.210394e+06
   2.490511e+06  -1.153200e+06
   2.968245e+06   6.995021e+05
   1.682453e+06   2.698700e+06
  -5.666951e+05   2.522411e+06
  -2.163377e+06   7.547417e+04
  -1.926760e+06  -2.498797e+06
   1.816550e+05  -3.071302e+06
   2.811141e+06  -1.271341e+06
   3.882103e+06   1.509404e+06
   2.418146e+06   3.333456e+06
  -2.083970e+05   3.240236e+06
  -1.683001e+06   1.967287e+06
  -1.513429e+06   1.025251e+06
  -1.452879e+06   9.475297e+05
  -2.803587e+06   7.931832e+05
  -4.297647e+06  -4.821765e+05
  -3.566577e+06  -2.603467e+06
  -2.494250e+05  -4.182584e+06
   3.300112e+06  -4.008101e+06
   4.413134e+06  -1.978491e+06
   2.643196e+06   7.647990e+05
  -8.782814e+04   2.409295e+06
  -1.409933e+06   1.819268e+06
  -5.393062e+05  -1.653421e+05
   1.213037e+06  -1.289491e+06
   1.850765e+06  -3.803954e+05
   7.715254e+05   1.160092e+06
  -6.414847e+05   1.163609e+06
  -6.765472e+05  -3.442178e+05
   7.048875e+05  -1.086853e+06
   1.887933e+06   4.449393e+05
   1.432209e+06   2.954929e+06
  -5.708631e+05   3.851570e+06
  -2.810181e+06   2.128302e+06
  -3.849840e+06  -8.372596e+05
  -2.976153e+06  -2.897961e+06
  -6.940095e+05  -2.969073e+06
   1.370983e+06  -1.570538e+06
   1.707609e+06  -1.745627e+05
   5.117443e+05   4.190100e+04
  -3.910930e+05  -7.621417e+05
   3.178966e+05  -1.291935e+06
   1.778750e+06  -6.107708e+05
   2.023115e+06   7.201240e+05
   5.044226e+05   1.324410e+06
  -1.152758e+06   6.620280e+05
  -1.064098e+06  -4.317458e+05
   7.616890e+05  -7.788089e+05
   2.447952e+06   4.477897e+03
   2.182173e+06   1.357688e+06
  -3.687280e+04   2.278187e+06
  -2.395281e+06   1.943056e+06
  -2.907899e+06   3.893524e+05
  -1.261101e+06  -1.207402e+06
   8.674024e+05  -1.432781e+06
   1.453153e+06  -1.838756e+05
   1.381941e+05   1.030634e+06
  -1.524518e+06   7.548190e+05
  -1.804150e+06  -7.026825e+05
  -5.211078e+05  -1.683849e+06
   9.899059e+05  -1.174014e+06
   1.347143e+06   1.214906e+05
   3.993301e+05   7.425291e+05
  -7.362065e+05   9.680524e+04
  -7.411404e+05  -1.054103e+06
   6.125756e+05  -1.457077e+06
   2.085454e+06  -5.403513e+05
   2.096753e+06   1.083449e+06
   4.278099e+05   2.118311e+06
  -1.409371e+06   1.721516e+06
  -1.760430e+06   3.034488e+05
  -5.948461e+05  -8.586114e+05
   6.349309e+05  -8.827916e+05
   7.393436e+05  -8.480158e+04
  -4.190972e+04   5.228239e+05
  -6.215774e+05   3.827863e+05
  -3.717222e+05  -9.976791e+04
   3.359905e+05  -1.343320e+05
   6.176546e+05   5.160275e+05
  -7.238645e+04   1.202548e+06
  -1.372487e+06   9.862633e+05
  -2.166072e+06  -3.702691e+05
  -1.545059e+06  -1.984028e+06
   1.874474e+05  -2.554888e+06
   1.674893e+06  -1.609847e+06
   1.872822e+06   1.301157e+04
   1.081696e+06   1.019272e+06
   4.022180e+05   9.290340e+05
   3.709937e+05   3.829278e+05
   4.953978e+05   2.603010e+05
   8.161299e+04   6.887873e+05
  -8.434745e+05   9.814564e+05
  -1.532417e+06   4.522027e+05
  -1.227102e+06  -7.604831e+05
   1.529153e+05  -1.659301e+06
   1.788716e+06  -1.246947e+06
   2.407347e+06   4.357596e+05
   1.297799e+06   2.140959e+06
  -8.878243e+05   2.470853e+06
  -2.536439e+06   1.206190e+06
  -2.522033e+06  -5.100080e+05
  -1.208277e+06  -1.368287e+06
   9.217815e+04  -1.147807e+06
   5.068670e+05  -6.902212e+05
   2.771033e+05  -7.738924e+05
   1.924258e+05  -1.239179e+06
   6.455924e+05  -1.256803e+06
   1.279102e+06  -3.192699e+05
   1.381437e+06   1.120554e+06
   5.931185e+05   1.977327e+06
  -6.460436e+05   1.510231e+06
  -1.354745e+06   4.483409e+04
  -9.030346e+05  -1.264063e+06
   2.857548e+05  -1.449980e+06
   1.087814e+06  -5.572277e+05
   8.384623e+05   5.326712e+05
   1.204259e+04   1.018772e+06
  -3.874537e+05   8.424182e+05
  -1.572676e+04   4.983094e+05
   4.284233e+05   3.797262e+05
   4.923590e+04   4.141753e+05
  -1.139160e+06   2.565725e+05
  -2.079153e+06  -2.833100e+05
  -1.700934e+06  -1.001514e+06
  -7.861046e+04  -1.420948e+06
   1.526051e+06  -1.178840e+06
   1.863507e+06  -3.889378e+05
   9.107825e+05   3.711110e+05
  -2.131218e+05   5.354220e+05
  -4.970265e+05   9.568400e+04
   3.589950e+03  -3.619490e+05
   5.013026e+05  -2.537631e+05
   4.921303e+05   3.534244e+05
   1.795498e+05   7.813478e+05
   1.727082e+04   5.078315e+05
   1.514207e+05  -1.672223e+05
   3.592145e+05  -3.931916e+05
   3.092414e+05   2.273993e+05
  -1.798162e+05   1.066437e+06
  -9.198834e+05   1.108599e+06
  -1.310490e+06   1.367402e+05
  -7.920431e+05  -9.499053e+05
   4.201693e+05  -1.107784e+06
   1.248057e+06  -2.772940e+05
   7.609525e+05   6.199808e+05
  -7.003777e+05   7.069250e+05
  -1.704594e+06  -2.350049e+04
  -1.190749e+06  -8.614807e+05
   3.985542e+05  -1.119328e+06
   1.586079e+06  -6.567799e+05
   1.379074e+06   1.107535e+05
   1.973219e+05   5.585102e+05
  -6.652243e+05   3.364413e+05
  -3.766735e+05  -2.743546e+05
   6.506004e+05  -5.120641e+05
   1.234995e+06   1.377230e+05
   6.377981e+05   1.268003e+06
  -6.959428e+05   1.762891e+06
  -1.596677e+06   8.883680e+05
  -1.326924e+06  -8.170569e+05
  -2.222740e+05  -1.907358e+06
   7.666134e+05  -1.422178e+06
   9.946540e+05   1.189500e+05
   5.285253e+05   1.244604e+06
  -1.453124e+05   1.067272e+06
  -5.700492e+05   1.270526e+05
  -5.511231e+05  -4.047820e+05
  -2.341523e+05  -1.614034e+05
  -2.715686e+04   1.194665e+05
  -2.137033e+05  -2.691058e+05
  -5.182650e+05  -9.976975e+05
  -2.865728e+05  -1.149711e+06
   6.686070e+05  -4.380851e+05
   1.576765e+06   4.755373e+05
   1.430337e+06   8.677907e+05
   2.120295e+05   7.217972e+05
  -9.546533e+05   4.475730e+05
  -1.059419e+06   2.267576e+05
  -3.330057e+05  -1.828681e+04
   1.737064e+05  -2.343882e+05
  -3.211482e+04  -2.496043e+05
  -3.524983e+05  -1.342234e+05
  -2.723874e+04  -1.449711e+05
   7.725202e+05  -2.295699e+05
   1.096307e+06   2.488406e+04
   3.594646e+05   7.171977e+05
  -9.458293e+05   1.208509e+06
  -1.741634e+06   7.589270e+05
  -1.407351e+06  -4.854159e+05
  -2.735046e+05  -1.493960e+06
   7.814931e+05  -1.433534e+06
   1.102811e+06  -5.290131e+05
   7.035956e+05   2.779503e+05
   1.145807e+05   3.765403e+05
  -1.325807e+05   3.213661e+04
   6.299574e+04  -6.315950e+04
   3.502696e+05   3.650115e+05
   2.931492e+05   8.499757e+05
  -1.980880e+05   7.038461e+05
  -7.330545e+05  -1.664751e+05
  -7.484258e+05  -1.042033e+06
  -5.868154e+04  -1.081557e+06
   8.315879e+05  -2.070223e+05
   1.077125e+06   8.093927e+05
   3.339970e+05   1.144209e+06
  -7.585534e+05   6.739061e+05
  -1.150070e+06  -8.991405e+04
  -5.286583e+05  -6.014912e+05
   2.952986e+05  -6.614260e+05
   3.480894e+05  -3.761508e+05
  -3.159211e+05  -2.800524e+04
  -6.992595e+05   3.701209e+04
  -1.374064e+05  -3.136901e+05
   8.659951e+05  -7.286630e+05
   1.276944e+06  -6.176054e+05
   7.496659e+05   1.406488e+05
  -1.014777e+05   8.956821e+05
  -5.299100e+05   8.828764e+05
  -3.947394e+05   1.329995e+05
  -3.155240e+04  -5.277842e+05
   2.603831e+05  -4.315784e+05
   3.763059e+05   2.006948e+05
   2.638685e+05   6.092267e+05
  -6.696270e+04   4.072957e+05
  -4.109270e+05  -6.580754e+04
  -4.855671e+05  -2.599888e+05
  -2.550398e+05  -7.027367e+04
   1.203907e+04   1.210801e+05
   8.489216e+04  -3.252030e+04
   5.100260e+04  -4.049722e+05
   1.447664e+05  -5.300386e+05
   3.672084e+05  -1.458686e+05
   4.233282e+05   4.554759e+05
   8.467871e+04   6.915720e+05
  -4.534185e+05   3.109919e+05
  -6.711057e+05  -3.232622e+05
  -2.469733e+05  -6.229925e+05
   5.189636e+05  -3.808711e+05
   9.034203e+05   9.671458e+04
   4.931303e+05   3.970771e+05
  -3.084169e+05   3.881808e+05
  -6.608906e+05   2.001974e+05
  -2.271807e+05   1.224359e+04
   4.172818e+05  -3.730547e+04
   4.517195e+05   1.170297e+05
  -2.171022e+05   3.404342e+05
  -8.515758e+05   2.901333e+05
