
 $NMID
 id='ANONYMOUS ', fmtdat='(2E16.6)'
 volume=1.0
 tramp=1.0
 $END
  -3.918297e+07  -9.643621e+05
  -2.344107e+07  -2.373582e+07
   4.869022e+06  -2.605343e+07
   1.899274e+07  -1.090103e+07
   1.184605e+07   3.911093e+06
  -1.851435e+06   6.532083e+06
  -7.014026e+06  -1.723405e+05
  -2.545611e+06  -6.731186e+06
   3.979909e+06  -7.210884e+06
   6.857943e+06  -1.891371e+06
   5.058378e+06   4.575272e+06
   4.822045e+05   6.435566e+06
  -3.024904e+06   1.813331e+06
  -1.992224e+06  -4.411180e+06
   2.651238e+06  -5.165434e+06
   5.665154e+06   7.330174e+05
   3.274264e+06   7.290507e+06
  -2.657082e+06   8.451348e+06
  -7.223385e+06   4.052580e+06
  -7.519958e+06  -1.771243e+06
  -4.226109e+06  -5.389774e+06
  -1.265630e+05  -5.716171e+06
   1.786484e+06  -3.797499e+06
   5.339157e+05  -2.028576e+06
  -1.294914e+06  -2.295721e+06
   1.032387e+05  -3.649251e+06
   4.640994e+06  -3.133823e+06
   7.501898e+06   1.469759e+05
   5.029693e+06   3.401653e+06
  -3.611256e+05   3.698512e+06
  -3.263757e+06   1.510687e+06
  -1.835669e+06  -5.883733e+05
   1.098099e+06  -1.143165e+06
   2.460548e+06  -2.210511e+05
   1.784300e+06   1.706159e+06
   6.437567e+04   3.350299e+06
  -1.605820e+06   2.631075e+06
  -2.019986e+06  -5.145183e+05
  -7.319694e+05  -2.629527e+06
   6.283727e+05  -8.619224e+05
  -5.232348e+04   2.311000e+06
  -1.984046e+06   1.886248e+06
  -1.857084e+06  -2.219411e+06
   1.432138e+06  -4.311602e+06
   4.486307e+06  -7.439809e+05
   3.406186e+06   4.747040e+06
  -1.278634e+06   5.862825e+06
  -5.268747e+06   1.613076e+06
  -5.233209e+06  -3.292489e+06
  -1.594562e+06  -4.565802e+06
   2.587684e+06  -2.230281e+06
   4.174269e+06   9.663265e+05
   2.094989e+06   2.553441e+06
  -1.611290e+06   1.684619e+06
  -3.299002e+06  -5.717832e+05
  -1.501509e+06  -1.899664e+06
   1.213361e+06  -9.900218e+05
   1.418661e+06   7.442942e+05
  -7.126196e+05   8.591991e+05
  -1.808877e+06  -8.477073e+05
   3.656308e+04  -2.143369e+06
   2.898898e+06  -1.402564e+06
   3.723660e+06   7.056969e+05
   1.745400e+06   2.724286e+06
  -1.492348e+06   3.874957e+06
  -4.086641e+06   3.525980e+06
  -4.781236e+06   1.054289e+06
  -3.228157e+06  -2.601252e+06
  -5.023631e+05  -4.723172e+06
   1.315940e+06  -3.698856e+06
   1.182937e+06  -1.232843e+06
   3.116187e+05  -1.922868e+05
   4.979176e+05  -8.957349e+05
   1.721037e+06  -1.157965e+06
   2.367827e+06   2.584617e+05
   1.472152e+06   1.944028e+06
  -2.735331e+05   1.914662e+06
  -1.534806e+06   8.147146e+04
  -1.438216e+06  -1.911689e+06
   1.327000e+05  -2.458589e+06
   2.311881e+06  -1.136776e+06
   3.380739e+06   1.192877e+06
   2.220519e+06   2.950589e+06
  -1.809139e+05   3.033773e+06
  -1.657601e+06   1.860271e+06
  -1.540556e+06   8.418106e+05
  -1.351770e+06   6.371433e+05
  -2.359195e+06   4.689452e+05
  -3.523685e+06  -5.893544e+05
  -2.834143e+06  -2.264187e+06
  -7.570366e+04  -3.406174e+06
   2.742939e+06  -3.176620e+06
   3.561222e+06  -1.594020e+06
   2.161112e+06   5.424976e+05
   2.763929e+04   1.909112e+06
  -1.070163e+06   1.513571e+06
  -4.505277e+05  -9.512871e+04
   9.704011e+05  -1.043069e+06
   1.547276e+06  -2.816517e+05
   6.685620e+05   9.865605e+05
  -4.988583e+05   9.236641e+05
  -4.482843e+05  -3.098088e+05
   7.372094e+05  -7.159036e+05
   1.512475e+06   7.373644e+05
   7.927336e+05   2.649008e+06
  -9.445254e+05   2.952448e+06
  -2.460517e+06   1.277099e+06
  -2.911808e+06  -9.970694e+05
  -2.102602e+06  -2.368360e+06
  -4.187420e+05  -2.300049e+06
   1.101631e+06  -1.219852e+06
   1.352800e+06  -1.326915e+05
   4.113518e+05   4.596497e+04
  -2.924755e+05  -6.288865e+05
   3.267453e+05  -1.072511e+06
   1.524398e+06  -4.502509e+05
   1.647895e+06   7.006809e+05
   3.370092e+05   1.133434e+06
  -9.665376e+05   4.827231e+05
  -7.929358e+05  -3.831450e+05
   6.729247e+05  -5.164458e+05
   1.894911e+06   1.787772e+05
   1.584143e+06   1.151558e+06
  -1.587080e+05   1.739968e+06
  -1.965876e+06   1.429339e+06
  -2.338797e+06   2.151275e+05
  -9.921712e+05  -1.040569e+06
   7.640732e+05  -1.187032e+06
   1.241659e+06  -1.221987e+05
   1.178040e+05   8.712667e+05
  -1.264426e+06   5.819836e+05
  -1.431194e+06  -6.456241e+05
  -3.177929e+05  -1.378179e+06
   8.767658e+05  -8.604668e+05
   1.063854e+06   2.055920e+05
   2.479893e+05   6.322488e+05
  -6.317746e+05   4.595535e+04
  -5.861505e+05  -8.812587e+05
   5.170225e+05  -1.172488e+06
   1.692870e+06  -4.046437e+05
   1.676964e+06   9.179382e+05
   2.911639e+05   1.731209e+06
  -1.205251e+06   1.353150e+06
  -1.437590e+06   1.748835e+05
  -4.322751e+05  -7.208273e+05
   5.487849e+05  -6.789913e+05
   5.649242e+05  -5.298986e+04
  -7.455535e+04   3.593760e+05
  -4.609669e+05   2.310143e+05
  -1.993219e+05  -7.073474e+04
   3.223499e+05  -1.268541e+04
   4.522692e+05   5.006935e+05
  -1.403894e+05   9.781259e+05
  -1.150971e+06   7.443262e+05
  -1.736961e+06  -3.653819e+05
  -1.197150e+06  -1.643980e+06
   2.156674e+05  -2.039648e+06
   1.380754e+06  -1.207203e+06
   1.459862e+06   9.323151e+04
   7.760059e+05   8.039265e+05
   2.808886e+05   6.533100e+05
   3.449455e+05   2.551368e+05
   4.565626e+05   2.487149e+05
   5.571252e+04   5.998869e+05
  -7.257292e+05   7.549780e+05
  -1.230936e+06   2.881093e+05
  -9.187430e+05  -6.306679e+05
   1.970040e+05  -1.274544e+06
   1.464293e+06  -9.160520e+05
   1.901846e+06   4.243545e+05
   9.546964e+05   1.766199e+06
  -8.298893e+05   1.966669e+06
  -2.109276e+06   8.659322e+05
  -1.987781e+06  -5.308119e+05
  -8.589412e+05  -1.132320e+06
   1.437731e+05  -8.538442e+05
   3.774121e+05  -4.828891e+05
   1.585217e+05  -6.255530e+05
   1.464609e+05  -1.045421e+06
   5.671667e+05  -1.033448e+06
   1.064315e+06  -2.363993e+05
   1.095671e+06   9.310169e+05
   4.343319e+05   1.601818e+06
  -5.496936e+05   1.198298e+06
  -1.084537e+06  -9.098628e+03
  -6.780783e+05  -1.064178e+06
   3.078623e+05  -1.161620e+06
   9.348780e+05  -3.701320e+05
   6.640201e+05   5.247287e+05
  -6.941421e+04   8.597619e+05
  -3.981745e+05   6.563976e+05
  -5.110306e+04   3.729209e+05
   3.477652e+05   3.019626e+05
   3.748302e+04   3.285305e+05
  -9.451986e+05   1.681606e+05
  -1.696551e+06  -2.951015e+05
  -1.342377e+06  -8.711317e+05
   1.403785e+04  -1.174156e+06
   1.305149e+06  -9.216979e+05
   1.524684e+06  -2.354274e+05
   7.061838e+05   3.751075e+05
  -2.072517e+05   4.498423e+05
  -4.159221e+05   4.176423e+04
  -3.753922e+03  -3.240064e+05
   3.920135e+05  -2.021984e+05
   3.937424e+05   2.951149e+05
   1.662435e+05   6.222108e+05
   3.960067e+04   4.071383e+05
   1.203107e+05  -1.030525e+05
   2.661918e+05  -2.737227e+05
   2.350682e+05   1.947072e+05
  -1.500702e+05   8.396511e+05
  -7.685541e+05   8.764159e+05
  -1.104984e+06   1.036743e+05
  -6.613868e+05  -7.824696e+05
   3.653252e+05  -9.182802e+05
   1.038362e+06  -2.314477e+05
   6.036289e+05   5.033306e+05
  -5.900448e+05   5.423427e+05
  -1.349553e+06  -8.276867e+04
  -8.803723e+05  -7.298494e+05
   3.862235e+05  -8.535417e+05
   1.276109e+06  -4.310323e+05
   1.065867e+06   1.516546e+05
   1.237952e+05   4.424878e+05
  -5.461820e+05   2.338903e+05
  -3.084413e+05  -2.425819e+05
   5.156645e+05  -4.163691e+05
   9.930538e+05   1.084115e+05
   5.209001e+05   1.017430e+06
  -5.543340e+05   1.416107e+06
  -1.280057e+06   7.059439e+05
  -1.048304e+06  -6.682991e+05
  -1.422915e+05  -1.523102e+06
   6.436183e+05  -1.099616e+06
   7.846424e+05   1.428281e+05
   3.676959e+05   1.010176e+06
  -1.738630e+05   8.295558e+05
  -4.685871e+05   7.364807e+04
  -4.067974e+05  -3.292798e+05
  -1.561617e+05  -1.242538e+05
  -3.475190e+04   8.581665e+04
  -2.041967e+05  -2.408413e+05
  -4.070859e+05  -8.184212e+05
  -1.700258e+05  -9.181580e+05
   5.829368e+05  -3.276465e+05
   1.244765e+06   4.138116e+05
   1.092618e+06   7.242768e+05
   1.494503e+05   5.885868e+05
  -7.454253e+05   3.416712e+05
  -8.412798e+05   1.480233e+05
  -2.889281e+05  -3.956864e+04
   1.330719e+05  -1.872546e+05
   1.201475e+04  -1.824891e+05
  -2.447690e+05  -9.422549e+04
  -3.277732e+04  -1.149313e+05
   5.856155e+05  -1.835768e+05
   8.824575e+05   3.026416e+04
   3.261165e+05   5.890258e+05
  -7.473951e+05   9.729876e+05
  -1.434261e+06   6.010516e+05
  -1.163189e+06  -3.961072e+05
  -2.061254e+05  -1.196339e+06
   6.621366e+05  -1.145946e+06
   8.948395e+05  -4.279791e+05
   5.543841e+05   2.155530e+05
   1.002412e+05   3.049138e+05
  -7.713739e+04   4.511425e+04
   6.217613e+04  -2.532812e+04
   2.573971e+05   3.089295e+05
   2.055247e+05   6.861970e+05
  -1.643009e+05   5.683581e+05
  -5.785627e+05  -1.224353e+05
  -6.033769e+05  -8.256885e+05
  -6.654522e+04  -8.728991e+05
   6.504793e+05  -1.854062e+05
   8.618997e+05   6.365537e+05
   2.708485e+05   9.253116e+05
  -6.145520e+05   5.527775e+05
  -9.374499e+05  -8.188927e+04
  -4.323307e+05  -5.144597e+05
   2.509290e+05  -5.558110e+05
   3.130162e+05  -3.021945e+05
  -2.229757e+05  -1.506966e+04
  -5.533778e+05   2.328601e+04
  -1.153133e+05  -2.599536e+05
   7.062887e+05  -5.655253e+05
   1.059315e+06  -4.502181e+05
   6.282547e+05   1.499697e+05
  -9.374162e+04   7.286256e+05
  -4.663035e+05   7.108155e+05
  -3.495635e+05   1.213041e+05
  -3.322592e+04  -4.116019e+05
   2.104179e+05  -3.585113e+05
   2.975432e+05   1.398181e+05
   2.062337e+05   4.917532e+05
  -5.346032e+04   3.506269e+05
  -3.299758e+05  -4.728831e+04
  -3.942883e+05  -2.354598e+05
  -2.032162e+05  -7.747104e+04
   2.096589e+04   1.190697e+05
   6.784444e+04   1.963208e+04
   8.753577e+03  -3.073282e+05
   7.113515e+04  -4.542862e+05
   2.807047e+05  -1.617873e+05
   3.697845e+05   3.399989e+05
   1.062058e+05   5.527755e+05
  -3.546686e+05   2.565249e+05
  -5.521922e+05  -2.514756e+05
  -2.031450e+05  -4.925492e+05
   4.303003e+05  -3.015234e+05
   7.397749e+05   7.904856e+04
   3.978064e+05   3.253189e+05
  -2.536235e+05   3.274614e+05
  -5.410839e+05   1.760166e+05
  -2.041813e+05   1.036165e+04
   3.053662e+05  -4.682123e+04
   3.493617e+05   6.923796e+04
  -1.537741e+05   2.519355e+05
  -6.463498e+05   2.223394e+05
