
 $NMID
 id='ANONYMOUS ', fmtdat='(2E16.6)'
 volume=1.0
 tramp=1.0
 $END
   2.368357e+07  -1.396263e+06
   1.704176e+07   9.838384e+06
   1.405775e+06   1.515140e+07
  -9.800158e+06   1.126421e+07
  -9.169211e+06   1.942180e+06
  -1.056777e+06  -4.477212e+06
   5.039556e+06  -2.794321e+06
   4.288172e+06   3.768638e+06
  -7.196556e+05   7.176646e+06
  -4.536658e+06   3.502371e+06
  -4.164925e+06  -3.013216e+06
  -6.971367e+05  -5.216125e+06
   2.347285e+06  -1.113017e+06
   2.068163e+06   4.403737e+06
  -1.250011e+06   5.336114e+06
  -4.178022e+06   8.091724e+05
  -3.409374e+06  -4.670195e+06
   7.177444e+05  -6.218131e+06
   4.470560e+06  -3.134573e+06
   4.694154e+06   1.199818e+06
   2.015669e+06   3.196398e+06
  -2.157272e+05   2.431472e+06
   2.427763e+05   1.332069e+06
   2.198458e+06   1.998432e+06
   2.438671e+06   3.830570e+06
  -6.986075e+05   4.427126e+06
  -5.161859e+06   2.441555e+06
  -6.820516e+06  -9.107946e+05
  -3.710563e+06  -3.109542e+06
   1.460352e+06  -2.671751e+06
   3.783854e+06  -2.611520e+05
   1.354275e+06   1.996915e+06
  -2.741940e+06   2.118618e+06
  -4.100350e+06  -1.995638e+05
  -1.858659e+06  -3.064378e+06
   1.017813e+06  -3.779730e+06
   1.715648e+06  -1.535586e+06
   4.595066e+05   1.347765e+06
  -6.619269e+05   1.677829e+06
  -4.029710e+05  -8.798173e+05
   8.176611e+05  -3.154994e+06
   1.889958e+06  -2.169698e+06
   1.873652e+06   1.159398e+06
   4.283345e+05   3.013634e+06
  -1.592761e+06   1.226343e+06
  -2.211405e+06  -2.205038e+06
  -1.240788e+05  -3.530863e+06
   3.297080e+06  -1.393782e+06
   4.739759e+06   2.069024e+06
   2.369659e+06   3.789469e+06
  -1.908921e+06   2.669878e+06
  -4.246006e+06   7.285057e+04
  -2.790212e+06  -1.793647e+06
   6.032087e+05  -1.718379e+06
   2.549905e+06  -2.332718e+05
   1.586182e+06   1.031631e+06
  -6.806818e+05   8.588223e+05
  -1.575648e+06  -4.257709e+05
  -2.370778e+05  -1.335201e+06
   1.568764e+06  -8.082874e+05
   1.496437e+06   6.642931e+05
  -6.470901e+05   1.539632e+06
  -2.527369e+06   7.344987e+05
  -1.810726e+06  -1.353890e+06
   1.211145e+06  -3.110769e+06
   3.915031e+06  -2.941906e+06
   4.153997e+06  -6.033304e+05
   2.282701e+06   2.417304e+06
   2.930788e+05   4.055589e+06
  -5.141217e+05   3.546584e+06
  -5.408658e+05   2.062148e+06
  -8.657878e+05   1.208669e+06
  -1.817787e+06   1.098948e+06
  -2.699601e+06   4.682071e+05
  -2.570836e+06  -1.272413e+06
  -1.128821e+06  -2.819699e+06
   9.344596e+05  -2.368990e+06
   2.261298e+06   8.212308e+04
   1.775632e+06   2.455734e+06
  -3.067787e+05   2.705225e+06
  -2.411309e+06   8.069461e+05
  -2.883417e+06  -1.483404e+06
  -1.532632e+06  -2.507445e+06
   2.350326e+05  -2.076734e+06
   9.808697e+05  -1.203063e+06
   7.929095e+05  -8.482033e+05
   1.002610e+06  -1.016995e+06
   2.325975e+06  -8.962179e+05
   3.654956e+06   2.285872e+05
   3.105519e+06   2.127659e+06
   2.786307e+05   3.618186e+06
  -2.901936e+06   3.477112e+06
  -3.927245e+06   1.555361e+06
  -2.215993e+06  -9.002192e+05
   3.505892e+05  -2.147651e+06
   1.415958e+06  -1.442144e+06
   4.324720e+05   2.313230e+05
  -1.123379e+06   1.071592e+06
  -1.537461e+06   3.107041e+05
  -5.523773e+05  -9.473538e+05
   6.407882e+05  -1.015063e+06
   7.541242e+05   2.819808e+05
  -3.790476e+05   1.227122e+06
  -1.695839e+06   2.070286e+05
  -1.808764e+06  -2.210352e+06
  -1.877237e+05  -3.673164e+06
   2.248581e+06  -2.549525e+06
   3.709905e+06   3.376871e+05
   3.014396e+06   2.630066e+06
   7.260702e+05   2.804403e+06
  -1.272163e+06   1.398844e+06
  -1.541953e+06   9.584626e+04
  -4.490913e+05  -3.560738e+04
   3.539000e+05   6.583638e+05
  -1.997601e+05   1.070022e+06
  -1.423018e+06   5.494813e+05
  -1.724325e+06  -4.939136e+05
  -5.204890e+05  -1.069439e+06
   9.733851e+05  -6.283853e+05
   1.032216e+06   3.646394e+05
  -6.051559e+05   8.548045e+05
  -2.298807e+06   1.999234e+05
  -2.169634e+06  -1.193006e+06
  -9.413097e+04  -2.175868e+06
   2.124602e+06  -1.849708e+06
   2.577734e+06  -3.991658e+05
   1.105806e+06   9.888692e+05
  -6.956229e+05   1.168996e+06
  -1.155873e+06   1.581514e+05
  -7.397096e+04  -8.335086e+05
   1.302119e+06  -6.507195e+05
   1.599509e+06   5.478141e+05
   5.726615e+05   1.467889e+06
  -7.824922e+05   1.149028e+06
  -1.225149e+06   2.881982e+04
  -4.552743e+05  -6.141914e+05
   5.826825e+05  -1.176001e+05
   6.296920e+05   8.951074e+05
  -5.515596e+05   1.254836e+06
  -1.825842e+06   4.457166e+05
  -1.817698e+06  -9.521331e+05
  -3.879566e+05  -1.832378e+06
   1.181346e+06  -1.518144e+06
   1.526291e+06  -3.212124e+05
   5.733659e+05   7.290424e+05
  -5.281424e+05   8.089911e+05
  -7.065699e+05   6.848374e+04
  -7.699216e+03  -5.701392e+05
   6.385458e+05  -4.424142e+05
   4.973716e+05   1.312646e+05
  -2.191785e+05   2.796756e+05
  -6.101950e+05  -3.307525e+05
  -3.545347e+04  -1.042086e+06
   1.165217e+06  -9.023425e+05
   1.901857e+06   2.919229e+05
   1.362147e+06   1.721316e+06
  -1.532601e+05   2.267805e+06
  -1.484279e+06   1.504257e+06
  -1.734431e+06   5.464513e+04
  -1.072427e+06  -9.771582e+05
  -3.792163e+05  -1.002849e+06
  -2.205614e+05  -4.385997e+05
  -3.254997e+05  -1.708772e+05
  -6.707362e+04  -5.267751e+05
   6.992044e+05  -8.933609e+05
   1.373607e+06  -4.687586e+05
   1.168403e+06   6.906679e+05
  -7.678273e+04   1.564158e+06
  -1.583320e+06   1.178807e+06
  -2.163283e+06  -3.515152e+05
  -1.216022e+06  -1.861513e+06
   6.740455e+05  -2.181961e+06
   2.162233e+06  -1.149865e+06
   2.278295e+06   3.389610e+05
   1.209132e+06   1.205716e+06
  -1.175737e+04   1.134517e+06
  -5.347818e+05   7.093534e+05
  -3.877745e+05   6.538659e+05
  -2.269553e+05   9.912580e+05
  -5.284453e+05   1.042044e+06
  -1.073739e+06   2.694433e+05
  -1.197521e+06  -9.868055e+05
  -5.182838e+05  -1.742405e+06
   5.754276e+05  -1.331216e+06
   1.204294e+06  -6.479502e+04
   8.328379e+05   1.066042e+06
  -1.705123e+05   1.277810e+06
  -8.793135e+05   5.911974e+05
  -7.442183e+05  -3.307851e+05
  -1.153512e+05  -8.318629e+05
   2.222515e+05  -7.715028e+05
  -3.111222e+04  -4.906625e+05
  -3.542030e+05  -3.558934e+05
  -2.963215e+04  -3.734818e+05
   9.622953e+05  -2.506880e+05
   1.776651e+06   2.092316e+05
   1.505000e+06   8.327671e+05
   1.533476e+05   1.202965e+06
  -1.250260e+06   1.029176e+06
  -1.613205e+06   4.072190e+05
  -8.401660e+05  -2.289327e+05
   1.422366e+05  -4.312196e+05
   4.152556e+05  -1.285002e+05
  -2.552114e+04   2.579157e+05
  -4.699812e+05   2.042862e+05
  -4.223473e+05  -3.106934e+05
  -8.639908e+04  -7.006727e+05
   5.111071e+04  -4.451102e+05
  -1.460250e+05   1.961588e+05
  -3.762717e+05   4.030160e+05
  -2.875070e+05  -1.923870e+05
   1.930915e+05  -9.603977e+05
   8.016983e+05  -9.655748e+05
   1.064441e+06  -8.489711e+04
   6.152789e+05   8.286693e+05
  -3.607005e+05   9.092420e+05
  -1.042874e+06   1.823437e+05
  -6.578148e+05  -5.668775e+05
   5.982293e+05  -6.416843e+05
   1.539730e+06  -2.182383e+04
   1.151532e+06   7.470556e+05
  -2.834867e+05   1.056646e+06
  -1.428338e+06   6.850836e+05
  -1.289487e+06  -4.655011e+04
  -2.118515e+05  -5.139000e+05
   5.814846e+05  -3.350326e+05
   3.122803e+05   2.159156e+05
  -6.038581e+05   4.138973e+05
  -1.077414e+06  -1.744457e+05
  -4.939810e+05  -1.140635e+06
   6.907678e+05  -1.520269e+06
   1.444080e+06  -7.295605e+05
   1.165729e+06   7.522256e+05
   1.818299e+05   1.705372e+06
  -6.866735e+05   1.298216e+06
  -9.004797e+05  -6.224487e+04
  -5.166857e+05  -1.103287e+06
   7.238284e+04  -9.882990e+05
   4.904154e+05  -1.405691e+05
   5.322949e+05   3.748901e+05
   2.553821e+05   1.647607e+05
   6.932418e+03  -1.235655e+05
   1.221328e+05   1.970668e+05
   4.337516e+05   8.683551e+05
   3.119195e+05   1.038765e+06
  -5.265098e+05   4.068749e+05
  -1.408997e+06  -4.273954e+05
  -1.325366e+06  -7.786625e+05
  -1.954087e+05  -6.296606e+05
   8.971387e+05  -3.838682e+05
   9.614770e+05  -2.160637e+05
   2.567928e+05  -1.743881e+04
  -1.737027e+05   1.999972e+05
   8.314777e+04   2.573651e+05
   3.708535e+05   1.610311e+05
  -1.475000e+03   1.297430e+05
  -7.501823e+05   1.677128e+05
  -9.602266e+05  -4.745699e+04
  -2.220856e+05  -6.169540e+05
   9.013833e+05  -1.018247e+06
   1.499122e+06  -6.163226e+05
   1.159541e+06   4.681012e+05
   2.038131e+05   1.331912e+06
  -6.838486e+05   1.242189e+06
  -9.738163e+05   4.160822e+05
  -6.251918e+05  -2.875619e+05
  -7.123887e+04  -3.300067e+05
   1.675866e+05   1.509928e+04
  -4.045403e+04   9.958630e+04
  -3.376371e+05  -3.097764e+05
  -2.771049e+05  -7.561718e+05
   1.927254e+05  -6.057949e+05
   6.542436e+05   1.970806e+05
   6.103647e+05   9.655611e+05
  -2.597758e+04   9.429214e+05
  -7.677748e+05   1.122508e+05
  -9.180233e+05  -7.791476e+05
  -2.435905e+05  -1.007417e+06
   6.828850e+05  -5.418214e+05
   9.837628e+05   1.064179e+05
   4.304866e+05   4.930770e+05
  -2.585812e+05   5.273102e+05
  -2.614806e+05   3.205658e+05
   3.303301e+05   5.441393e+04
   6.314451e+05  -1.477173e+04
   1.002796e+05   2.663400e+05
  -7.737116e+05   6.418817e+05
  -1.092765e+06   5.770484e+05
  -6.112248e+05  -8.471156e+04
   1.023330e+05  -7.681285e+05
   4.286277e+05  -7.565261e+05
   2.925818e+05  -7.923469e+04
  -9.104889e+03   4.859898e+05
  -2.424488e+05   3.477817e+05
  -3.282983e+05  -2.301569e+05
  -2.177784e+05  -5.423768e+05
   7.290734e+04  -3.133747e+05
   3.579062e+05   8.429246e+04
   4.119212e+05   2.000921e+05
   2.268022e+05   3.482383e+04
   1.167660e+04  -6.664749e+04
  -8.220524e+04   1.065253e+05
  -1.206717e+05   3.817402e+05
  -2.253358e+05   4.035137e+05
  -3.483530e+05   3.221481e+04
  -2.974739e+05  -4.595822e+05
   2.174593e+04  -6.111716e+05
   4.270604e+05  -2.418372e+05
   5.522584e+05   3.239968e+05
   1.824481e+05   5.707350e+05
  -4.479466e+05   3.232602e+05
  -7.649610e+05  -1.171793e+05
  -4.150693e+05  -3.572074e+05
   2.741985e+05  -3.015435e+05
   5.686898e+05  -1.235102e+05
   1.614506e+05  -3.352849e+03
  -4.191107e+05  -1.769516e+04
  -4.131269e+05  -1.667561e+05
   2.438082e+05  -3.261248e+05
   8.283057e+05  -2.350205e+05
