
 $NMID
 id='ANONYMOUS ', fmtdat='(2E16.6)'
 volume=1.0
 tramp=1.0
 $END
   4.708506e+07  -1.786198e+05
   2.886879e+07   2.744302e+07
  -4.846815e+06   3.124513e+07
  -2.217695e+07   1.386548e+07
  -1.424818e+07  -4.005296e+06
   1.888452e+06  -7.824838e+06
   8.334313e+06  -1.974797e+05
   3.395653e+06   7.861438e+06
  -4.331499e+06   8.855107e+06
  -8.088055e+06   2.630159e+06
  -6.296611e+06  -5.300109e+06
  -8.708432e+05  -7.771112e+06
   3.606959e+06  -2.300496e+06
   2.668464e+06   5.291492e+06
  -2.894731e+06   6.394548e+06
  -6.813066e+06  -5.990813e+05
  -4.259147e+06  -8.606381e+06
   2.821671e+06  -1.026355e+07
   8.528617e+06  -5.148132e+06
   9.117920e+06   1.888493e+06
   5.225830e+06   6.374858e+06
   2.648306e+05   6.836329e+06
  -2.011769e+06   4.505153e+06
  -4.054406e+05   2.362041e+06
   1.848396e+06   2.759088e+06
   7.677593e+04   4.544246e+06
  -5.579935e+06   4.071566e+06
  -9.194186e+06   1.368934e+05
  -6.247248e+06  -3.955452e+06
   3.634644e+05  -4.548910e+06
   4.010103e+06  -1.979237e+06
   2.326590e+06   7.242303e+05
  -1.317465e+06   1.593939e+06
  -3.105526e+06   4.657277e+05
  -2.348443e+06  -2.056425e+06
  -2.234161e+05  -4.171643e+06
   1.887385e+06  -3.251965e+06
   2.459954e+06   6.482465e+05
   9.102613e+05   3.203624e+06
  -8.048751e+05   9.864470e+05
  -6.315000e+04  -2.914975e+06
   2.308046e+06  -2.422942e+06
   2.332209e+06   2.562873e+06
  -1.501208e+06   5.186852e+06
  -5.278408e+06   1.017140e+06
  -4.222281e+06  -5.565547e+06
   1.308914e+06  -7.050730e+06
   6.275052e+06  -2.136132e+06
   6.488757e+06   3.718359e+06
   2.190395e+06   5.423006e+06
  -2.991816e+06   2.850596e+06
  -5.107020e+06  -9.070318e+05
  -2.690713e+06  -2.937124e+06
   1.832005e+06  -2.090673e+06
   3.984960e+06   5.275082e+05
   1.892015e+06   2.196350e+06
  -1.414377e+06   1.238222e+06
  -1.764723e+06  -8.123239e+05
   7.551487e+05  -1.061350e+06
   2.157250e+06   8.721952e+05
   6.521168e+04   2.468541e+06
  -3.352596e+06   1.756349e+06
  -4.455751e+06  -6.570813e+05
  -2.210108e+06  -3.167776e+06
   1.646127e+06  -4.766819e+06
   4.835006e+06  -4.492530e+06
   5.786448e+06  -1.487160e+06
   4.029503e+06   3.052851e+06
   8.175205e+05   5.728986e+06
  -1.381829e+06   4.543416e+06
  -1.303311e+06   1.578130e+06
  -3.427314e+05   3.340925e+05
  -6.182036e+05   1.205198e+06
  -2.133555e+06   1.525799e+06
  -2.977021e+06  -2.332478e+05
  -1.932276e+06  -2.365618e+06
   2.452700e+05  -2.415497e+06
   1.920316e+06  -2.090395e+05
   1.905768e+06   2.274833e+06
  -2.995060e+04   3.037200e+06
  -2.792086e+06   1.500360e+06
  -4.189475e+06  -1.322924e+06
  -2.813914e+06  -3.506527e+06
   1.143663e+05  -3.675121e+06
   1.929342e+06  -2.294504e+06
   1.801088e+06  -1.072874e+06
   1.582270e+06  -8.527098e+05
   2.838559e+06  -7.191623e+05
   4.331726e+06   5.090925e+05
   3.594989e+06   2.599513e+06
   2.940203e+05   4.164985e+06
  -3.181527e+06   4.056844e+06
  -4.294792e+06   2.155995e+06
  -2.694584e+06  -5.661927e+05
  -1.269991e+05  -2.367324e+06
   1.251630e+06  -1.922031e+06
   5.619136e+05   1.020359e+05
  -1.140118e+06   1.336852e+06
  -1.876932e+06   4.255202e+05
  -8.609319e+05  -1.176871e+06
   5.657009e+05  -1.167384e+06
   5.790865e+05   3.397987e+05
  -8.206605e+05   9.225889e+05
  -1.850802e+06  -7.654202e+05
  -1.138939e+06  -3.124319e+06
   9.045591e+05  -3.639782e+06
   2.865734e+06  -1.746656e+06
   3.621530e+06   9.899120e+05
   2.758177e+06   2.751950e+06
   6.763058e+05   2.802137e+06
  -1.282540e+06   1.569170e+06
  -1.659518e+06   2.416942e+05
  -5.067859e+05  -3.195610e+04
   3.955999e+05   7.530829e+05
  -3.378372e+05   1.323354e+06
  -1.832222e+06   6.304268e+05
  -2.046337e+06  -7.574768e+05
  -4.765889e+05  -1.357236e+06
   1.151878e+06  -6.488550e+05
   1.002507e+06   4.152475e+05
  -7.758144e+05   6.827909e+05
  -2.330504e+06  -7.766523e+04
  -2.032360e+06  -1.297392e+06
   6.661036e+04  -2.147328e+06
   2.316736e+06  -1.882926e+06
   2.853193e+06  -4.083046e+05
   1.271389e+06   1.212642e+06
  -8.705927e+05   1.487917e+06
  -1.506655e+06   2.114278e+05
  -1.849992e+05  -1.060870e+06
   1.515782e+06  -7.839964e+05
   1.788900e+06   7.015344e+05
   4.784563e+05   1.661254e+06
  -1.008501e+06   1.108362e+06
  -1.308740e+06  -1.763129e+05
  -3.453703e+05  -7.498738e+05
   7.661599e+05  -9.065905e+04
   7.679691e+05   1.047089e+06
  -5.683049e+05   1.469656e+06
  -2.055833e+06   5.944399e+05
  -2.110308e+06  -1.029275e+06
  -4.578758e+05  -2.103591e+06
   1.393884e+06  -1.726461e+06
   1.746455e+06  -3.013171e+05
   5.735152e+05   8.527346e+05
  -6.289854e+05   8.650172e+05
  -6.952367e+05   1.017254e+05
   5.768986e+04  -4.514123e+05
   5.510273e+05  -3.276674e+05
   2.668707e+05   6.405998e+04
  -3.745957e+05   4.189237e+04
  -5.799247e+05  -5.712486e+05
   1.069011e+05  -1.198837e+06
   1.361462e+06  -9.813628e+05
   2.150055e+06   3.424730e+05
   1.564959e+06   1.943852e+06
  -1.408545e+05   2.515727e+06
  -1.615656e+06   1.570552e+06
  -1.797381e+06  -1.513864e+04
  -1.015631e+06  -9.356804e+05
  -4.010300e+05  -7.965299e+05
  -4.389236e+05  -3.090513e+05
  -5.618320e+05  -2.824786e+05
  -9.772989e+04  -7.266283e+05
   8.387158e+05  -9.685356e+05
   1.488805e+06  -4.355846e+05
   1.174183e+06   7.122657e+05
  -1.516005e+05   1.578845e+06
  -1.735635e+06   1.219067e+06
  -2.359852e+06  -4.008100e+05
  -1.280480e+06  -2.102590e+06
   8.925627e+05  -2.454284e+06
   2.523884e+06  -1.188753e+06
   2.465669e+06   5.199074e+05
   1.132367e+06   1.326184e+06
  -1.098695e+05   1.059972e+06
  -4.325785e+05   6.303387e+05
  -1.707401e+05   7.869571e+05
  -1.304527e+05   1.288397e+06
  -6.368296e+05   1.293239e+06
  -1.288787e+06   3.479716e+05
  -1.398316e+06  -1.078864e+06
  -6.279159e+05  -1.940159e+06
   6.038003e+05  -1.503667e+06
   1.330244e+06  -5.604982e+04
   8.943563e+05   1.258845e+06
  -3.023720e+05   1.436991e+06
  -1.110780e+06   5.109724e+05
  -8.350702e+05  -5.931784e+05
   3.130598e+04  -1.045421e+06
   4.379956e+05  -8.216692e+05
   3.291791e+04  -4.607953e+05
  -4.447512e+05  -3.529856e+05
  -6.552852e+04  -4.024753e+05
   1.144357e+06  -2.614664e+05
   2.091869e+06   2.619736e+05
   1.695657e+06   9.845563e+05
   5.512762e+04   1.431246e+06
  -1.540258e+06   1.200405e+06
  -1.849354e+06   3.821014e+05
  -8.836775e+05  -4.077918e+05
   2.272370e+05  -5.574999e+05
   5.024380e+05  -7.767649e+04
   1.748515e+04   3.941737e+05
  -4.722234e+05   2.721475e+05
  -4.995760e+05  -3.392408e+05
  -2.366704e+05  -7.599757e+05
  -6.759364e+04  -5.022887e+05
  -1.382448e+05   1.384925e+05
  -3.102895e+05   3.612904e+05
  -3.011046e+05  -2.226967e+05
   1.343723e+05  -1.043747e+06
   8.908399e+05  -1.120217e+06
   1.345943e+06  -1.835637e+05
   8.515209e+05   9.266245e+05
  -3.980354e+05   1.142806e+06
  -1.260835e+06   3.367749e+05
  -7.713137e+05  -5.839983e+05
   6.884989e+05  -7.004473e+05
   1.659985e+06   1.464512e+04
   1.130531e+06   8.335479e+05
  -4.118883e+05   1.070073e+06
  -1.533610e+06   6.156578e+05
  -1.318391e+06  -1.125105e+05
  -1.829375e+05  -5.341279e+05
   6.528738e+05  -3.220601e+05
   3.894310e+05   2.790630e+05
  -6.133245e+05   5.414288e+05
  -1.228540e+06  -7.870337e+04
  -6.965726e+05  -1.224588e+06
   6.042007e+05  -1.774236e+06
   1.535415e+06  -9.413961e+05
   1.328263e+06   7.600647e+05
   2.663867e+05   1.863100e+06
  -7.212165e+05   1.391840e+06
  -9.696676e+05  -1.232101e+05
  -5.159073e+05  -1.213962e+06
   1.558001e+05  -1.027562e+06
   5.675133e+05  -1.196637e+05
   5.238897e+05   3.774466e+05
   2.045718e+05   1.410510e+05
   3.481432e+04  -1.073134e+05
   2.567549e+05   2.856322e+05
   5.456581e+05   9.809650e+05
   2.697968e+05   1.113619e+06
  -6.893421e+05   4.333218e+05
  -1.554033e+06  -4.325495e+05
  -1.389795e+06  -8.192822e+05
  -2.187226e+05  -7.120293e+05
   8.991656e+05  -4.673621e+05
   1.024167e+06  -2.353132e+05
   3.514165e+05   3.163780e+04
  -1.542147e+05   2.387381e+05
   3.300071e+03   2.229548e+05
   3.140504e+05   9.941631e+04
   4.544690e+04   1.413599e+05
  -7.155890e+05   2.632246e+05
  -1.086239e+06   1.314279e+04
  -4.269665e+05  -7.096801e+05
   8.678288e+05  -1.240271e+06
   1.725373e+06  -8.162449e+05
   1.447913e+06   4.259832e+05
   3.227813e+05   1.459625e+06
  -7.452429e+05   1.443667e+06
  -1.076562e+06   5.750571e+05
  -6.970086e+05  -2.341688e+05
  -1.388954e+05  -3.704773e+05
   9.926274e+04  -6.078719e+04
  -7.013680e+04   3.693248e+04
  -3.355650e+05  -3.605066e+05
  -2.951217e+05  -8.288549e+05
   1.703189e+05  -7.076012e+05
   7.219361e+05   1.189186e+05
   7.896263e+05   9.846779e+05
   1.269843e+05   1.072454e+06
  -7.952648e+05   2.637253e+05
  -1.098334e+06  -7.370342e+05
  -3.836532e+05  -1.123073e+06
   7.262113e+05  -7.121539e+05
   1.155051e+06   4.887211e+04
   5.556583e+05   6.054658e+05
  -2.789697e+05   6.927407e+05
  -3.635852e+05   3.851330e+05
   2.806397e+05   3.267886e+03
   6.801279e+05  -6.154260e+04
   1.546611e+05   3.129176e+05
  -8.336448e+05   7.368306e+05
  -1.267812e+06   6.154885e+05
  -7.729228e+05  -1.474736e+05
   7.421109e+04  -8.989781e+05
   5.285028e+05  -8.952901e+05
   4.204720e+05  -1.624897e+05
   6.422624e+04   5.074932e+05
  -2.402843e+05   4.510245e+05
  -3.773719e+05  -1.580306e+05
  -2.817290e+05  -5.926149e+05
   4.931063e+04  -4.310590e+05
   4.094474e+05   4.066154e+04
   4.943024e+05   2.644629e+05
   2.519426e+05   8.070496e+04
  -2.798312e+04  -1.436178e+05
  -7.879817e+04  -1.359171e+04
   3.855894e+03   3.854742e+05
  -7.257526e+04   5.645671e+05
  -3.442293e+05   2.099397e+05
  -4.728914e+05  -4.054509e+05
  -1.561903e+05  -6.796297e+05
   4.244475e+05  -3.356773e+05
   6.926857e+05   2.815990e+05
   2.777611e+05   5.966298e+05
  -5.102179e+05   3.939959e+05
  -9.125865e+05  -5.769376e+04
  -5.066142e+05  -3.775104e+05
   2.950575e+05  -4.140371e+05
   6.565278e+05  -2.431351e+05
   2.475100e+05  -2.125586e+04
  -3.797969e+05   7.587676e+04
  -4.389296e+05  -6.776021e+04
   1.755748e+05  -3.244094e+05
   7.872835e+05  -3.159473e+05
