
 $NMID
 id='ANONYMOUS ', fmtdat='(2E16.6)'
 volume=1.0
 tramp=1.0
 $END
  -2.797345e+07   4.291918e+05
  -1.827168e+07  -1.438018e+07
   1.049343e+06  -1.819971e+07
   1.252123e+07  -1.038084e+07
   9.497210e+06   3.271977e+05
  -7.507194e+04   4.903498e+06
  -5.374223e+06   1.516858e+06
  -3.346124e+06  -4.565613e+06
   1.824776e+06  -6.677379e+06
   5.055251e+06  -2.683584e+06
   4.246246e+06   3.366485e+06
   6.212442e+05   5.323138e+06
  -2.436056e+06   1.327800e+06
  -1.944575e+06  -4.086733e+06
   1.642714e+06  -4.913684e+06
   4.442758e+06  -1.949664e+05
   3.153376e+06   5.328850e+06
  -1.373213e+06   6.656239e+06
  -5.213429e+06   3.300747e+06
  -5.477432e+06  -1.325141e+06
  -2.733548e+06  -3.832361e+06
   8.717015e+04  -3.528360e+06
   5.559377e+05  -2.154999e+06
  -1.045648e+06  -1.831761e+06
  -1.905268e+06  -2.971606e+06
   3.791503e+05  -3.862241e+06
   4.616999e+06  -2.598090e+06
   6.650560e+06   5.053022e+05
   3.992795e+06   2.989997e+06
  -9.302805e+05   2.903661e+06
  -3.343228e+06   7.563230e+05
  -1.479543e+06  -1.324572e+06
   1.908815e+06  -1.657810e+06
   3.223853e+06  -3.484966e+04
   1.767653e+06   2.333208e+06
  -4.889804e+05   3.402613e+06
  -1.559150e+06   1.878549e+06
  -1.047918e+06  -9.531240e+05
   8.451149e+04  -1.950181e+06
   4.933195e+05   1.638518e+05
  -4.340715e+05   2.650243e+06
  -1.781158e+06   1.941619e+06
  -1.745306e+06  -1.462773e+06
   2.914686e+05  -3.276471e+06
   2.564949e+06  -9.386863e+05
   2.502286e+06   3.019027e+06
  -4.182910e+05   4.162746e+06
  -3.821456e+06   1.388104e+06
  -4.621523e+06  -2.362835e+06
  -1.948983e+06  -3.806297e+06
   2.007011e+06  -2.340094e+06
   3.927866e+06   2.806159e+05
   2.360173e+06   1.922778e+06
  -9.172334e+05   1.583123e+06
  -2.649045e+06  -6.706834e+04
  -1.453215e+06  -1.267451e+06
   8.250972e+05  -8.485176e+05
   1.413280e+06   4.966295e+05
  -1.130694e+05   1.048922e+06
  -1.523463e+06   1.445956e+05
  -8.058138e+05  -1.138320e+06
   1.439891e+06  -1.360962e+06
   2.791987e+06  -1.520032e+05
   1.665699e+06   1.767610e+06
  -1.221500e+06   3.213811e+06
  -3.712317e+06   3.015725e+06
  -4.129002e+06   7.689110e+05
  -2.517929e+06  -2.323060e+06
  -3.878229e+05  -4.048530e+06
   7.471442e+05  -3.373417e+06
   7.158381e+05  -1.619450e+06
   5.787493e+05  -7.693330e+05
   1.194429e+06  -9.875613e+05
   2.163331e+06  -7.333388e+05
   2.352470e+06   7.829296e+05
   1.222704e+06   2.298468e+06
  -5.933993e+05   2.058323e+06
  -1.839104e+06   1.624095e+04
  -1.562163e+06  -2.066594e+06
   1.900122e+05  -2.440090e+06
   2.212612e+06  -9.046166e+05
   2.905011e+06   1.255359e+06
   1.716015e+06   2.508502e+06
  -1.901231e+05   2.311082e+06
  -1.172442e+06   1.378614e+06
  -1.019666e+06   7.917443e+05
  -1.057899e+06   8.134178e+05
  -2.176731e+06   6.970491e+05
  -3.370089e+06  -3.163516e+05
  -2.823224e+06  -2.011122e+06
  -2.202096e+05  -3.300445e+06
   2.620401e+06  -3.169634e+06
   3.522354e+06  -1.513180e+06
   2.064511e+06   6.830786e+05
  -1.610302e+05   1.925817e+06
  -1.177435e+06   1.394795e+06
  -4.121250e+05  -1.582994e+05
   9.810690e+05  -1.001770e+06
   1.434444e+06  -2.944153e+05
   5.684138e+05   8.940944e+05
  -5.302381e+05   9.201033e+05
  -5.870391e+05  -2.620481e+05
   4.720666e+05  -9.488454e+05
   1.499688e+06   1.493253e+05
   1.321190e+06   2.204273e+06
  -2.078910e+05   3.145909e+06
  -2.143074e+06   1.921864e+06
  -3.165774e+06  -5.187279e+05
  -2.506114e+06  -2.320085e+06
  -5.969644e+05  -2.422542e+06
   1.110424e+06  -1.257222e+06
   1.370793e+06  -1.228661e+05
   4.065752e+05   3.131725e+04
  -3.130522e+05  -5.999062e+05
   2.256274e+05  -9.999111e+05
   1.361309e+06  -4.868904e+05
   1.582715e+06   5.216447e+05
   4.252443e+05   1.012871e+06
  -8.976430e+05   5.376489e+05
  -8.734589e+05  -3.359966e+05
   5.829345e+05  -6.734188e+05
   1.991592e+06  -6.693732e+04
   1.818676e+06   1.073892e+06
   1.731383e+04   1.865944e+06
  -1.904808e+06   1.593040e+06
  -2.314532e+06   3.323285e+05
  -1.000426e+06  -9.307281e+05
   6.643156e+05  -1.105019e+06
   1.109915e+06  -1.450732e+05
   9.253432e+04   7.917073e+05
  -1.195627e+06   5.940051e+05
  -1.434864e+06  -5.315668e+05
  -4.542045e+05  -1.328129e+06
   7.507936e+05  -9.697874e+05
   1.078278e+06   4.763436e+04
   3.506874e+05   5.709622e+05
  -5.610971e+05   8.318300e+04
  -5.780108e+05  -8.285088e+05
   4.938454e+05  -1.148195e+06
   1.655292e+06  -4.182960e+05
   1.656918e+06   8.604156e+05
   3.446698e+05   1.671179e+06
  -1.097048e+06   1.368721e+06
  -1.388008e+06   2.624362e+05
  -4.895754e+05  -6.684182e+05
   4.908916e+05  -7.097701e+05
   6.033417e+05  -6.681106e+04
  -1.860557e+04   4.498349e+05
  -5.237175e+05   3.390743e+05
  -3.523725e+05  -9.275243e+04
   2.409302e+05  -1.601595e+05
   5.131564e+05   3.687685e+05
  -2.425215e+04   9.505472e+05
  -1.076822e+06   7.960131e+05
  -1.720453e+06  -2.823270e+05
  -1.229804e+06  -1.568096e+06
   1.420199e+05  -2.037157e+06
   1.330518e+06  -1.310958e+06
   1.516336e+06  -1.638573e+04
   9.044395e+05   8.325993e+05
   3.346118e+05   7.995378e+05
   2.628631e+05   3.408953e+05
   3.565717e+05   1.906068e+05
   6.256049e+04   5.232186e+05
  -6.561229e+05   7.921047e+05
  -1.227949e+06   3.851151e+05
  -1.008473e+06  -6.111065e+05
   9.945138e+04  -1.355132e+06
   1.424629e+06  -1.020498e+06
   1.929279e+06   3.338773e+05
   1.056668e+06   1.692060e+06
  -6.685738e+05   1.964160e+06
  -1.989535e+06   9.882111e+05
  -2.021607e+06  -3.648865e+05
  -1.010077e+06  -1.083073e+06
   4.631416e+04  -9.521001e+05
   4.297005e+05  -5.851952e+05
   2.681423e+05  -6.096242e+05
   1.728997e+05  -9.532795e+05
   4.998440e+05  -9.772524e+05
   9.991805e+05  -2.498322e+05
   1.092732e+06   8.900543e+05
   4.716924e+05   1.571671e+06
  -5.143074e+05   1.201270e+06
  -1.079522e+06   4.506446e+04
  -7.298196e+05  -9.877259e+05
   1.991196e+05  -1.151181e+06
   8.358305e+05  -4.749786e+05
   6.656037e+05   3.772710e+05
   4.321363e+04   7.859397e+05
  -2.676574e+05   6.765961e+05
   4.352586e+03   4.118123e+05
   3.348551e+05   3.095647e+05
   3.558200e+04   3.333978e+05
  -8.924224e+05   2.124702e+05
  -1.635746e+06  -2.121447e+05
  -1.354405e+06  -7.790194e+05
  -8.924884e+04  -1.111457e+06
   1.182184e+06  -9.328189e+05
   1.469988e+06  -3.314260e+05
   7.339413e+05   2.610052e+05
  -1.552417e+05   4.117680e+05
  -3.869404e+05   9.053459e+04
   1.075667e+04  -2.693546e+05
   4.080745e+05  -1.980207e+05
   3.888300e+05   2.802636e+05
   1.213046e+05   6.276030e+05
  -7.137746e+03   4.049592e+05
   1.234827e+05  -1.499202e+05
   3.042371e+05  -3.328774e+05
   2.514982e+05   1.791945e+05
  -1.534342e+05   8.577053e+05
  -7.296374e+05   8.788385e+05
  -1.014934e+06   9.491990e+04
  -6.038571e+05  -7.551980e+05
   3.323633e+05  -8.598212e+05
   9.762268e+05  -2.002411e+05
   6.028141e+05   4.994005e+05
  -5.495798e+05   5.690660e+05
  -1.367444e+06  -1.507524e+03
  -9.816165e+05  -6.773784e+05
   2.917433e+05  -9.124157e+05
   1.268310e+06  -5.598646e+05
   1.120036e+06   6.814216e+04
   1.704645e+05   4.500682e+05
  -5.259916e+05   2.803480e+05
  -2.922464e+05  -2.101451e+05
   5.283363e+05  -3.963518e+05
   9.803947e+05   1.262319e+05
   4.870945e+05   1.017561e+06
  -5.776734e+05   1.394617e+06
  -1.282615e+06   6.925845e+05
  -1.056521e+06  -6.587497e+05
  -1.754686e+05  -1.525555e+06
   6.105573e+05  -1.147303e+06
   7.980464e+05   7.918970e+04
   4.382455e+05   9.903816e+05
  -9.556645e+04   8.628320e+05
  -4.488938e+05   1.100808e+05
  -4.542199e+05  -3.262300e+05
  -2.025818e+05  -1.340103e+05
  -1.522560e+04   1.003934e+05
  -1.475672e+05  -2.029833e+05
  -4.054510e+05  -7.901392e+05
  -2.491059e+05  -9.204227e+05
   5.104464e+05  -3.539365e+05
   1.261355e+06   3.785300e+05
   1.160265e+06   6.913045e+05
   1.721014e+05   5.719237e+05
  -7.773636e+05   3.556241e+05
  -8.511665e+05   1.876277e+05
  -2.522570e+05  -4.503509e+03
   1.444948e+05  -1.851165e+05
  -4.490873e+04  -2.090694e+05
  -3.012172e+05  -1.187622e+05
  -1.329766e+04  -1.169958e+05
   6.380075e+05  -1.742774e+05
   8.710088e+05   2.730757e+04
   2.556802e+05   5.682390e+05
  -7.743492e+05   9.493445e+05
  -1.374785e+06   5.876739e+05
  -1.095543e+06  -4.000528e+05
  -2.077520e+05  -1.194460e+06
   6.195681e+05  -1.134499e+06
   8.793138e+05  -4.057634e+05
   5.629622e+05   2.343540e+05
   8.158345e+04   2.999268e+05
  -1.232532e+05   1.316384e+04
   4.394590e+04  -6.400113e+04
   2.878967e+05   2.854743e+05
   2.400016e+05   6.775656e+05
  -1.632901e+05   5.556648e+05
  -5.872579e+05  -1.479090e+05
  -5.817994e+05  -8.447732e+05
  -2.254643e+04  -8.592042e+05
   6.745453e+05  -1.440774e+05
   8.497425e+05   6.647591e+05
   2.506757e+05   9.112004e+05
  -6.090462e+05   5.207318e+05
  -9.064314e+05  -8.008379e+04
  -4.085719e+05  -4.673983e+05
   2.357283e+05  -5.085824e+05
   2.624676e+05  -2.943915e+05
  -2.691051e+05  -2.963572e+04
  -5.619041e+05   2.491837e+04
  -1.027385e+05  -2.469003e+05
   6.915178e+05  -5.808602e+05
   1.003682e+06  -5.022305e+05
   5.794692e+05   9.991938e+04
  -8.447029e+04   7.061921e+05
  -4.089290e+05   6.949049e+05
  -2.974047e+05   9.239291e+04
  -1.454141e+04  -4.277520e+05
   2.119126e+05  -3.336822e+05
   3.002651e+05   1.764516e+05
   2.060372e+05   4.866528e+05
  -5.869784e+04   3.099244e+05
  -3.263869e+05  -6.046482e+04
  -3.805063e+05  -1.974241e+05
  -2.028451e+05  -4.681056e+04
   1.243440e+03   8.413335e+04
   6.746548e+04  -5.120498e+04
   6.369234e+04  -3.325115e+05
   1.478920e+05  -4.044087e+05
   3.028404e+05  -8.633608e+04
   3.148322e+05   3.828530e+05
   3.727336e+04   5.536496e+05
  -3.702518e+05   2.384528e+05
  -5.229711e+05  -2.702732e+05
  -1.865016e+05  -5.035292e+05
   4.099157e+05  -2.993159e+05
   7.098251e+05   8.724692e+04
   3.866712e+05   3.182994e+05
  -2.469099e+05   2.961460e+05
  -5.226538e+05   1.426096e+05
  -1.685019e+05   6.567667e+03
   3.498130e+05  -1.538506e+04
   3.661422e+05   1.124848e+05
  -1.883538e+05   2.809338e+05
  -7.026791e+05   2.274810e+05
