
 $NMID
 id='ANONYMOUS ', fmtdat='(2E16.6)'
 volume=1.0
 tramp=1.0
 $END
   6.053523e+07  -2.365448e+05
   3.642006e+07   3.776674e+07
  -8.179375e+06   4.115341e+07
  -2.979216e+07   1.544488e+07
  -1.760020e+07  -7.932135e+06
   3.740566e+06  -1.002625e+07
   1.052687e+07   1.582786e+06
   2.751145e+06   1.055441e+07
  -6.827643e+06   9.784338e+06
  -1.034428e+07   1.943964e+06
  -7.430262e+06  -6.591700e+06
  -8.792422e+05  -9.083705e+06
   4.203339e+06  -2.970781e+06
   2.741698e+06   5.633103e+06
  -4.069712e+06   6.811971e+06
  -8.401337e+06  -1.529351e+06
  -4.686672e+06  -1.091762e+07
   4.083835e+06  -1.258844e+07
   1.080050e+07  -6.349791e+06
   1.160786e+07   2.094201e+06
   7.246205e+06   7.979598e+06
   8.767703e+05   9.400354e+06
  -3.212185e+06   6.668528e+06
  -2.279908e+06   2.866857e+06
   9.697557e+05   2.048834e+06
   3.484317e+05   4.210445e+06
  -5.495637e+06   4.666933e+06
  -1.009228e+07   6.799560e+05
  -7.510223e+06  -4.258560e+06
  -4.559295e+05  -5.364220e+06
   3.748773e+06  -2.843612e+06
   2.602424e+06  -2.262591e+05
  -4.256273e+05   8.135950e+05
  -2.136420e+06   5.431725e+05
  -2.247653e+06  -1.295392e+06
  -8.753626e+05  -3.995338e+06
   1.811987e+06  -4.150759e+06
   3.543519e+06  -5.244649e+04
   1.998559e+06   3.860002e+06
  -7.881211e+05   2.236103e+06
  -4.516484e+05  -2.421421e+06
   2.560576e+06  -2.368289e+06
   2.575434e+06   3.443805e+06
  -2.707935e+06   6.586864e+06
  -7.596212e+06   1.083620e+06
  -5.553980e+06  -7.472583e+06
   2.079854e+06  -9.193799e+06
   7.950435e+06  -2.612779e+06
   7.325953e+06   4.739802e+06
   1.857038e+06   6.374986e+06
  -3.698626e+06   2.788215e+06
  -5.483792e+06  -1.702844e+06
  -2.459103e+06  -3.729222e+06
   2.633570e+06  -2.309900e+06
   4.821056e+06   1.029508e+06
   2.044118e+06   2.933105e+06
  -1.845190e+06   1.458908e+06
  -1.799054e+06  -1.105981e+06
   1.502978e+06  -9.215666e+05
   2.650292e+06   2.017620e+06
  -7.861460e+05   3.800905e+06
  -5.088328e+06   2.029675e+06
  -5.697950e+06  -1.542691e+06
  -2.446339e+06  -4.297557e+06
   1.871097e+06  -5.580829e+06
   5.193633e+06  -5.130894e+06
   6.499351e+06  -1.911977e+06
   4.899673e+06   3.265031e+06
   1.048016e+06   6.492422e+06
  -2.016019e+06   5.004875e+06
  -1.930616e+06   1.186717e+06
  -1.257916e+05  -4.033050e+05
   1.964144e+05   9.636993e+05
  -1.522561e+06   1.936136e+06
  -2.882082e+06   3.867095e+05
  -2.147344e+06  -1.885507e+06
  -1.099931e+05  -2.166337e+06
   1.525412e+06  -2.262676e+05
   1.705970e+06   2.098512e+06
   3.256543e+04   3.027278e+06
  -2.857411e+06   1.777103e+06
  -4.721572e+06  -1.172915e+06
  -3.470301e+06  -3.943017e+06
  -9.021719e+03  -4.524975e+06
   2.430804e+06  -2.940902e+06
   2.417832e+06  -1.211905e+06
   1.963851e+06  -6.793299e+05
   3.085485e+06  -4.568250e+05
   4.537391e+06   8.305805e+05
   3.619955e+06   2.904496e+06
   1.170353e+05   4.293182e+06
  -3.328546e+06   4.047031e+06
  -4.310909e+06   2.229153e+06
  -2.765978e+06  -3.853489e+05
  -3.411746e+05  -2.298119e+06
   1.097745e+06  -2.030333e+06
   5.898651e+05   1.704757e+04
  -1.116255e+06   1.368461e+06
  -1.999948e+06   4.201192e+05
  -9.868912e+05  -1.263023e+06
   5.224674e+05  -1.153860e+06
   4.091338e+05   4.194230e+05
  -1.178916e+06   6.727843e+05
  -1.948686e+06  -1.479589e+06
  -5.559668e+05  -3.738027e+06
   1.835390e+06  -3.506117e+06
   3.349852e+06  -1.000309e+06
   3.374098e+06   1.619500e+06
   2.253744e+06   2.874204e+06
   4.243682e+05   2.671366e+06
  -1.277944e+06   1.509194e+06
  -1.627261e+06   2.441479e+05
  -5.125590e+05  -4.951728e+04
   3.684754e+05   7.873462e+05
  -4.511808e+05   1.415590e+06
  -2.023650e+06   6.008638e+05
  -2.135740e+06  -9.637233e+05
  -3.813154e+05  -1.505611e+06
   1.235951e+06  -5.807136e+05
   8.993907e+05   4.876706e+05
  -9.133179e+05   4.969348e+05
  -2.241314e+06  -4.051553e+05
  -1.742347e+06  -1.434081e+06
   3.112490e+05  -2.011054e+06
   2.412353e+06  -1.673233e+06
   2.885991e+06  -2.574058e+05
   1.267768e+06   1.341945e+06
  -9.754402e+05   1.589774e+06
  -1.658611e+06   2.003167e+05
  -2.231932e+05  -1.143597e+06
   1.592707e+06  -7.681986e+05
   1.787803e+06   8.419135e+05
   3.126766e+05   1.733820e+06
  -1.174602e+06   9.848690e+05
  -1.305550e+06  -3.726330e+05
  -2.246251e+05  -8.337151e+05
   8.516794e+05  -4.878878e+04
   7.729418e+05   1.108612e+06
  -5.993340e+05   1.489900e+06
  -2.095074e+06   5.686489e+05
  -2.126290e+06  -1.099753e+06
  -3.912553e+05  -2.173862e+06
   1.524861e+06  -1.709471e+06
   1.810296e+06  -1.971159e+05
   5.062982e+05   9.189664e+05
  -7.013492e+05   8.269267e+05
  -6.434684e+05   7.545662e+04
   1.452940e+05  -3.451600e+05
   4.919436e+05  -1.780386e+05
   7.358560e+04   6.616220e+04
  -4.994907e+05  -1.257145e+05
  -5.239836e+05  -7.434387e+05
   2.491045e+05  -1.246726e+06
   1.458720e+06  -9.195893e+05
   2.170879e+06   4.492135e+05
   1.520495e+06   2.037952e+06
  -2.389600e+05   2.516349e+06
  -1.689979e+06   1.437998e+06
  -1.737075e+06  -1.634706e+05
  -8.477283e+05  -9.199063e+05
  -3.086246e+05  -6.250324e+05
  -5.221502e+05  -1.924633e+05
  -6.892978e+05  -3.393460e+05
  -9.834228e+04  -8.202194e+05
   9.311113e+05  -9.283921e+05
   1.506004e+06  -3.091114e+05
   1.061320e+06   7.549359e+05
  -2.905170e+05   1.490347e+06
  -1.799507e+06   1.084627e+06
  -2.327682e+06  -5.244624e+05
  -1.151545e+06  -2.203436e+06
   1.094566e+06  -2.465140e+06
   2.679814e+06  -1.041703e+06
   2.434812e+06   7.338161e+05
   9.447146e+05   1.406746e+06
  -2.478165e+05   9.494781e+05
  -3.856970e+05   4.924102e+05
  -3.698307e+04   7.838916e+05
  -8.746984e+04   1.388751e+06
  -7.109687e+05   1.362797e+06
  -1.364326e+06   3.349462e+05
  -1.396185e+06  -1.127871e+06
  -5.757265e+05  -1.974277e+06
   6.498202e+05  -1.494377e+06
   1.337000e+06   1.517204e+04
   8.327472e+05   1.356867e+06
  -4.374625e+05   1.457544e+06
  -1.243887e+06   3.910630e+05
  -8.492591e+05  -7.738858e+05
   1.615009e+05  -1.147452e+06
   6.016950e+05  -8.107141e+05
   1.078691e+05  -4.189407e+05
  -4.566892e+05  -3.421921e+05
  -6.544842e+04  -3.955425e+05
   1.211929e+06  -2.098971e+05
   2.168300e+06   3.616528e+05
   1.682276e+06   1.101052e+06
  -6.837450e+04   1.515978e+06
  -1.689150e+06   1.192768e+06
  -1.922026e+06   2.640997e+05
  -8.604083e+05  -5.525456e+05
   2.861501e+05  -6.085306e+05
   5.434657e+05  -2.016832e+04
   4.268177e+04   4.580789e+05
  -4.505925e+05   2.732526e+05
  -5.050678e+05  -3.564365e+05
  -2.878299e+05  -7.442230e+05
  -1.233818e+05  -4.956800e+05
  -1.418895e+05   7.990949e+04
  -2.735085e+05   2.795190e+05
  -2.813942e+05  -2.463369e+05
   1.373923e+05  -1.017145e+06
   9.405537e+05  -1.113893e+06
   1.450042e+06  -2.004150e+05
   9.183225e+05   9.509210e+05
  -4.325329e+05   1.212458e+06
  -1.327945e+06   3.781631e+05
  -7.674921e+05  -5.886397e+05
   7.411561e+05  -6.683458e+05
   1.642550e+06   1.223093e+05
   1.006352e+06   9.132675e+05
  -5.383260e+05   1.006065e+06
  -1.557526e+06   4.506135e+05
  -1.257731e+06  -2.274475e+05
  -1.217017e+05  -5.298060e+05
   6.821593e+05  -2.637377e+05
   4.104753e+05   3.164974e+05
  -5.940628e+05   5.586361e+05
  -1.234797e+06  -5.947004e+04
  -7.299845e+05  -1.215896e+06
   5.755275e+05  -1.786387e+06
   1.526016e+06  -9.478733e+05
   1.310859e+06   7.736152e+05
   2.179452e+05   1.857068e+06
  -7.702133e+05   1.329163e+06
  -9.575939e+05  -2.063013e+05
  -4.251050e+05  -1.244810e+06
   2.603080e+05  -9.923411e+05
   5.949131e+05  -7.456439e+04
   4.618454e+05   3.884902e+05
   1.441580e+05   1.358700e+05
   6.085814e+04  -9.157774e+04
   3.294047e+05   3.234621e+05
   5.455574e+05   1.012371e+06
   1.671469e+05   1.117468e+06
  -7.802534e+05   4.069716e+05
  -1.529755e+06  -4.814118e+05
  -1.302054e+06  -8.705089e+05
  -1.898256e+05  -7.334868e+05
   8.593634e+05  -4.404890e+05
   1.013809e+06  -1.805027e+05
   3.999787e+05   7.052998e+04
  -1.395796e+05   2.380262e+05
  -7.100537e+04   1.977369e+05
   2.390822e+05   7.857422e+04
   6.785104e+04   1.357374e+05
  -6.476142e+05   2.630549e+05
  -1.095442e+06   6.994053e+03
  -5.119350e+05  -7.231102e+05
   8.312669e+05  -1.256356e+06
   1.791052e+06  -8.314762e+05
   1.522308e+06   4.142651e+05
   3.145083e+05   1.456506e+06
  -7.977728e+05   1.454547e+06
  -1.089696e+06   5.978028e+05
  -6.794437e+05  -2.141066e+05
  -1.601410e+05  -3.727491e+05
   3.782318e+04  -9.257606e+04
  -9.806090e+04  -8.409645e+03
  -2.984271e+05  -3.934014e+05
  -2.492237e+05  -8.413845e+05
   1.714828e+05  -7.188552e+05
   7.032537e+05   9.108718e+04
   8.058059e+05   9.558652e+05
   1.788322e+05   1.077908e+06
  -7.565507e+05   3.071000e+05
  -1.101411e+06  -7.006723e+05
  -4.048938e+05  -1.133510e+06
   7.274422e+05  -7.465513e+05
   1.187899e+06   5.055467e+04
   5.867204e+05   6.592316e+05
  -2.923145e+05   7.486674e+05
  -4.243669e+05   3.984954e+05
   2.206655e+05  -7.336522e+03
   6.670899e+05  -5.560772e+04
   1.702866e+05   3.263377e+05
  -8.525320e+05   7.137120e+05
  -1.339748e+06   5.522240e+05
  -8.359990e+05  -2.038632e+05
   8.498233e+04  -9.233058e+05
   5.973258e+05  -9.171269e+05
   4.791688e+05  -2.034238e+05
   8.292879e+04   4.828174e+05
  -2.353571e+05   4.785106e+05
  -3.665259e+05  -1.138757e+05
  -2.793540e+05  -5.970632e+05
   3.824066e+04  -4.781999e+05
   4.098079e+05   2.510103e+04
   5.134447e+05   3.096311e+05
   2.554157e+05   1.188051e+05
  -5.657588e+04  -1.831553e+05
  -8.904915e+04  -1.009017e+05
   6.649588e+04   3.446850e+05
   2.756425e+04   6.119233e+05
  -3.051300e+05   2.975083e+05
  -5.307493e+05  -3.444040e+05
  -2.378770e+05  -6.659575e+05
   4.018623e+05  -3.526679e+05
   7.217614e+05   2.553710e+05
   2.932404e+05   5.789565e+05
  -5.340259e+05   3.960243e+05
  -9.437299e+05  -4.621886e+04
  -5.175798e+05  -3.844654e+05
   2.987308e+05  -4.504909e+05
   6.719377e+05  -2.835755e+05
   2.897926e+05  -3.032767e+04
  -3.187753e+05   1.064154e+05
  -4.095548e+05  -1.798780e+04
   1.373912e+05  -2.814222e+05
   7.158778e+05  -2.972887e+05
