
 $NMID
 id='ANONYMOUS ', fmtdat='(2E16.6)'
 volume=1.0
 tramp=1.0
 $END
  -2.785020e+07  -1.564796e+06
  -1.727483e+07  -1.462264e+07
   1.662004e+06  -1.754546e+07
   1.258495e+07  -1.025822e+07
   9.539137e+06  -7.873310e+04
   5.839412e+04   4.824335e+06
  -5.442047e+06   1.831623e+06
  -3.594296e+06  -4.534735e+06
   1.736022e+06  -7.061208e+06
   5.170928e+06  -2.854522e+06
   4.244673e+06   3.712113e+06
   3.650261e+05   5.677292e+06
  -2.696160e+06   1.158772e+06
  -1.972104e+06  -4.622644e+06
   1.777003e+06  -5.292150e+06
   4.526531e+06  -1.844126e+05
   3.059512e+06   5.534071e+06
  -1.635388e+06   6.715398e+06
  -5.461008e+06   3.008796e+06
  -5.402969e+06  -1.834345e+06
  -2.247542e+06  -4.115219e+06
   5.804401e+05  -3.295865e+06
   5.209209e+05  -1.731302e+06
  -1.583295e+06  -1.857060e+06
  -2.299957e+06  -3.576682e+06
   6.545047e+05  -4.447272e+06
   5.383671e+06  -2.566234e+06
   7.268056e+06   1.074323e+06
   4.004419e+06   3.553632e+06
  -1.463197e+06   3.067421e+06
  -3.941872e+06   4.811782e+05
  -1.594782e+06  -1.844635e+06
   2.431473e+06  -2.054641e+06
   3.910126e+06   7.337002e+04
   1.950273e+06   2.917405e+06
  -8.878866e+05   3.896863e+06
  -1.920167e+06   1.793684e+06
  -8.749333e+05  -1.387980e+06
   5.270151e+05  -2.081033e+06
   6.261604e+05   5.518832e+05
  -6.884666e+05   3.128903e+06
  -2.021494e+06   2.107988e+06
  -1.782532e+06  -1.503470e+06
   2.231280e+05  -3.230316e+06
   2.298812e+06  -7.940377e+05
   2.213320e+06   3.066896e+06
  -5.629047e+05   4.041320e+06
  -3.934844e+06   1.168888e+06
  -4.818355e+06  -2.635820e+06
  -2.064669e+06  -4.097884e+06
   2.174396e+06  -2.525945e+06
   4.270266e+06   2.980043e+05
   2.587722e+06   2.049312e+06
  -9.086161e+05   1.641231e+06
  -2.731356e+06  -1.094627e+05
  -1.493981e+06  -1.309806e+06
   8.693694e+05  -8.378024e+05
   1.546384e+06   5.498141e+05
   3.474556e+04   1.178947e+06
  -1.527674e+06   3.799995e+05
  -1.017423e+06  -9.104034e+05
   1.221259e+06  -1.298312e+06
   2.759616e+06  -2.178397e+05
   1.666770e+06   1.768670e+06
  -1.505529e+06   3.324498e+06
  -4.255309e+06   3.028940e+06
  -4.513356e+06   5.196683e+05
  -2.477694e+06  -2.723837e+06
  -1.421693e+05  -4.383667e+06
   8.512208e+05  -3.603015e+06
   6.863645e+05  -1.859031e+06
   7.013845e+05  -1.050873e+06
   1.597067e+06  -1.172517e+06
   2.662893e+06  -6.556277e+05
   2.681704e+06   1.152163e+06
   1.245232e+06   2.795218e+06
  -8.486195e+05   2.388212e+06
  -2.190231e+06  -4.678394e+04
  -1.736258e+06  -2.442593e+06
   3.433738e+05  -2.752745e+06
   2.536720e+06  -8.393821e+05
   3.079800e+06   1.620890e+06
   1.611302e+06   2.823050e+06
  -4.040397e+05   2.366407e+06
  -1.281218e+06   1.289879e+06
  -1.019555e+06   7.699646e+05
  -1.111540e+06   8.951037e+05
  -2.400742e+06   7.480899e+05
  -3.708417e+06  -4.288610e+05
  -3.067093e+06  -2.310409e+06
  -1.421948e+05  -3.685840e+06
   3.054413e+06  -3.450654e+06
   4.039881e+06  -1.525483e+06
   2.289634e+06   9.198595e+05
  -3.241624e+05   2.197999e+06
  -1.443609e+06   1.498346e+06
  -4.581996e+05  -2.251892e+05
   1.161758e+06  -1.081022e+06
   1.601242e+06  -2.614435e+05
   5.616805e+05   1.020933e+06
  -6.556750e+05   1.023036e+06
  -6.980475e+05  -2.914102e+05
   4.612728e+05  -1.102313e+06
   1.619711e+06   3.943307e+04
   1.518901e+06   2.341054e+06
  -1.110517e+05   3.523437e+06
  -2.326340e+06   2.250574e+06
  -3.577099e+06  -5.398294e+05
  -2.852278e+06  -2.667575e+06
  -6.408583e+05  -2.780366e+06
   1.306464e+06  -1.382930e+06
   1.560503e+06  -7.581075e+04
   4.540093e+05   5.028551e+04
  -3.330708e+05  -6.804600e+05
   2.726745e+05  -1.087955e+06
   1.504565e+06  -4.867852e+05
   1.728588e+06   6.091189e+05
   4.533570e+05   1.119658e+06
  -1.012199e+06   5.845392e+05
  -9.995531e+05  -3.916104e+05
   6.352595e+05  -7.802058e+05
   2.254642e+06  -8.579500e+04
   2.077014e+06   1.236801e+06
   1.265170e+04   2.129676e+06
  -2.181376e+06   1.764303e+06
  -2.608235e+06   3.095405e+05
  -1.079768e+06  -1.060855e+06
   7.775068e+05  -1.183313e+06
   1.217660e+06  -1.069647e+05
   5.395844e+04   8.787657e+05
  -1.354423e+06   6.176993e+05
  -1.588495e+06  -6.258618e+05
  -4.944022e+05  -1.491312e+06
   8.397218e+05  -1.086859e+06
   1.207242e+06   4.815852e+04
   4.008410e+05   6.331898e+05
  -6.111922e+05   7.995255e+04
  -6.131767e+05  -9.408976e+05
   5.973176e+05  -1.265845e+06
   1.871318e+06  -4.044724e+05
   1.821528e+06   1.024785e+06
   3.282714e+05   1.877049e+06
  -1.262420e+06   1.491567e+06
  -1.555059e+06   2.569402e+05
  -5.373034e+05  -7.570890e+05
   5.651684e+05  -7.875042e+05
   6.997146e+05  -5.832252e+04
  -7.941454e+03   5.337590e+05
  -6.133064e+05   4.071023e+05
  -4.490596e+05  -1.072657e+05
   2.315901e+05  -2.103557e+05
   5.666536e+05   3.850740e+05
  -3.178949e+04   1.047059e+06
  -1.217083e+06   8.605312e+05
  -1.914124e+06  -3.658317e+05
  -1.322889e+06  -1.793301e+06
   2.252460e+05  -2.284277e+06
   1.532288e+06  -1.450538e+06
   1.719135e+06   6.408046e+03
   1.028248e+06   9.765078e+05
   3.738646e+05   9.606020e+05
   2.618409e+05   4.329510e+05
   3.531298e+05   2.198668e+05
   4.143592e+04   5.634338e+05
  -7.454349e+05   8.672607e+05
  -1.386524e+06   4.132198e+05
  -1.136263e+06  -7.142130e+05
   1.287358e+05  -1.538257e+06
   1.624245e+06  -1.120021e+06
   2.160842e+06   4.258518e+05
   1.146628e+06   1.919145e+06
  -7.846075e+05   2.170765e+06
  -2.235510e+06   1.058159e+06
  -2.260648e+06  -4.409411e+05
  -1.138902e+06  -1.235109e+06
   5.073230e+04  -1.095993e+06
   5.174653e+05  -6.815046e+05
   3.681262e+05  -6.820991e+05
   2.559101e+05  -1.039829e+06
   5.904226e+05  -1.055058e+06
   1.115332e+06  -2.361122e+05
   1.189347e+06   1.038740e+06
   4.735446e+05   1.780706e+06
  -6.208360e+05   1.331343e+06
  -1.213950e+06   2.215663e+04
  -7.910841e+05  -1.115194e+06
   2.388778e+05  -1.276140e+06
   9.196828e+05  -5.258048e+05
   7.203725e+05   4.036526e+05
   4.594065e+04   8.520078e+05
  -2.843433e+05   7.461982e+05
   9.363597e+03   4.733015e+05
   3.591863e+05   3.674116e+05
   2.479092e+04   3.783399e+05
  -9.923114e+05   2.100908e+05
  -1.805406e+06  -2.878040e+05
  -1.489053e+06  -9.047331e+05
  -8.270815e+04  -1.226517e+06
   1.330740e+06  -9.930046e+05
   1.645658e+06  -3.371717e+05
   8.158787e+05   2.847406e+05
  -1.787846e+05   4.391147e+05
  -4.252725e+05   9.909301e+04
   3.535887e+04  -2.845521e+05
   4.753560e+05  -2.036333e+05
   4.220108e+05   3.292802e+05
   9.265382e+04   7.190166e+05
  -4.303092e+04   4.601918e+05
   1.419665e+05  -1.796523e+05
   3.642621e+05  -3.868044e+05
   2.791611e+05   2.039402e+05
  -2.095035e+05   9.651421e+05
  -8.458342e+05   9.561221e+05
  -1.116751e+06   5.198236e+04
  -6.248459e+05  -8.733471e+05
   4.062957e+05  -9.311149e+05
   1.090433e+06  -1.654660e+05
   6.564904e+05   5.888360e+05
  -6.286480e+05   6.224155e+05
  -1.540408e+06  -3.299547e+04
  -1.106911e+06  -7.795395e+05
   3.310767e+05  -1.027085e+06
   1.440184e+06  -6.192161e+05
   1.271246e+06   9.197340e+04
   1.894449e+05   5.135309e+05
  -5.946008e+05   3.078173e+05
  -3.123560e+05  -2.399361e+05
   6.194008e+05  -4.182693e+05
   1.097618e+06   1.928682e+05
   4.924480e+05   1.172528e+06
  -7.241596e+05   1.541765e+06
  -1.479871e+06   7.189558e+05
  -1.163851e+06  -7.864584e+05
  -1.412054e+05  -1.726107e+06
   7.237883e+05  -1.280254e+06
   8.952363e+05   1.009944e+05
   4.735635e+05   1.122738e+06
  -1.147416e+05   9.737532e+05
  -5.005316e+05   1.159552e+05
  -5.146338e+05  -3.823511e+05
  -2.404021e+05  -1.593619e+05
  -1.370512e+04   1.160498e+05
  -1.340413e+05  -2.270833e+05
  -4.190915e+05  -8.996102e+05
  -2.681947e+05  -1.043374e+06
   5.635291e+05  -3.793318e+05
   1.408450e+06   4.694771e+05
   1.298603e+06   8.137272e+05
   1.749795e+05   6.443509e+05
  -9.026273e+05   3.738216e+05
  -9.681176e+05   1.885326e+05
  -2.678554e+05  -7.145827e+03
   1.759108e+05  -2.026478e+05
  -6.356453e+04  -2.419236e+05
  -3.567986e+05  -1.504653e+05
  -3.561676e+03  -1.346297e+05
   7.464394e+05  -1.696449e+05
   9.768270e+05   6.929702e+04
   2.361244e+05   6.511496e+05
  -9.275917e+05   1.030178e+06
  -1.556803e+06   5.911489e+05
  -1.193646e+06  -5.077036e+05
  -1.811986e+05  -1.355328e+06
   7.348601e+05  -1.243628e+06
   1.005719e+06  -4.092747e+05
   6.292211e+05   2.947959e+05
   7.199691e+04   3.415483e+05
  -1.586887e+05   2.244643e+03
   4.232647e+04  -8.236450e+04
   3.208553e+05   3.234665e+05
   2.524472e+05   7.687602e+05
  -2.095377e+05   6.153044e+05
  -6.614885e+05  -2.009540e+05
  -6.128656e+05  -9.876577e+05
   2.994675e+04  -9.694191e+05
   7.797405e+05  -1.197181e+05
   9.267865e+05   7.990613e+05
   2.333587e+05   1.035564e+06
  -7.109491e+05   5.479523e+05
  -1.007240e+06  -1.327952e+05
  -4.273640e+05  -5.303357e+05
   2.869000e+05  -5.448077e+05
   2.915668e+05  -3.134337e+05
  -3.197460e+05  -4.693063e+04
  -6.374153e+05   4.323374e+03
  -9.903370e+04  -2.793567e+05
   7.992687e+05  -6.282985e+05
   1.129944e+06  -5.351365e+05
   6.271097e+05   1.251873e+05
  -1.256888e+05   7.838813e+05
  -4.732146e+05   7.545028e+05
  -3.233084e+05   7.580712e+04
   8.111336e+03  -4.904062e+05
   2.565891e+05  -3.579168e+05
   3.348211e+05   2.253366e+05
   2.100113e+05   5.561762e+05
  -8.557511e+04   3.327517e+05
  -3.653447e+05  -8.786704e+04
  -4.120173e+05  -2.273809e+05
  -2.237280e+05  -5.100698e+04
  -1.243049e+04   8.419737e+04
   7.194238e+04  -8.003417e+04
   1.041302e+05  -3.861052e+05
   2.168927e+05  -4.384670e+05
   3.601191e+05  -5.868212e+04
   3.220104e+05   4.661853e+05
  -7.420845e+03   6.324575e+05
  -4.353456e+05   2.471863e+05
  -5.687748e+05  -3.374657e+05
  -1.828369e+05  -5.814613e+05
   4.684453e+05  -3.165739e+05
   7.865756e+05   1.356867e+05
   4.172561e+05   3.747610e+05
  -2.921805e+05   3.112084e+05
  -5.923775e+05   1.237687e+05
  -1.778952e+05  -4.911408e+03
   4.141568e+05   5.474532e+03
   4.179524e+05   1.573730e+05
  -2.348526e+05   3.220541e+05
  -8.225113e+05   2.319759e+05
