
 $NMID
 id='ANONYMOUS ', fmtdat='(2E16.6)'
 volume=1.0
 tramp=1.0
 $END
  -4.034926e+07   5.751988e+05
  -2.486208e+07  -2.397620e+07
   4.391291e+06  -2.715308e+07
   1.930914e+07  -1.145360e+07
   1.212878e+07   4.104224e+06
  -1.912196e+06   6.754087e+06
  -7.138979e+06  -2.710929e+05
  -2.544222e+06  -6.875921e+06
   4.026920e+06  -7.216943e+06
   6.933464e+06  -1.925174e+06
   5.254798e+06   4.442063e+06
   7.260382e+05   6.407824e+06
  -2.949209e+06   1.999212e+06
  -2.110991e+06  -4.200710e+06
   2.559313e+06  -5.121302e+06
   5.765742e+06   6.752501e+05
   3.501524e+06   7.320312e+06
  -2.474369e+06   8.665751e+06
  -7.228787e+06   4.407771e+06
  -7.791983e+06  -1.449243e+06
  -4.677541e+06  -5.343617e+06
  -4.550455e+05  -6.014050e+06
   1.835078e+06  -4.143712e+06
   8.252830e+05  -2.031879e+06
  -1.170493e+06  -1.968852e+06
  -1.295833e+05  -3.428817e+06
   4.290725e+06  -3.332294e+06
   7.379604e+06  -2.931467e+05
   5.221974e+06   3.115485e+06
  -2.239375e+04   3.740543e+06
  -3.014330e+06   1.778629e+06
  -1.858878e+06  -2.847224e+05
   7.938737e+05  -9.956380e+05
   2.139347e+06  -3.585338e+05
   1.777675e+06   1.387706e+06
   3.545740e+05   3.176434e+06
  -1.419010e+06   2.779750e+06
  -2.197860e+06  -2.746841e+05
  -1.034697e+06  -2.641918e+06
   5.842402e+05  -1.116733e+06
   1.462422e+05   2.115582e+06
  -1.864343e+06   1.876110e+06
  -1.908572e+06  -2.229239e+06
   1.459312e+06  -4.457334e+06
   4.746993e+06  -8.791389e+05
   3.711884e+06   4.815975e+06
  -1.166335e+06   6.099877e+06
  -5.328895e+06   1.845231e+06
  -5.307284e+06  -3.145854e+06
  -1.639842e+06  -4.487890e+06
   2.521537e+06  -2.220835e+06
   4.097380e+06   9.119395e+05
   2.052738e+06   2.509082e+06
  -1.638065e+06   1.712342e+06
  -3.345622e+06  -5.214910e+05
  -1.537882e+06  -1.906842e+06
   1.210835e+06  -1.038447e+06
   1.390823e+06   7.102735e+05
  -7.976441e+05   8.080814e+05
  -1.847720e+06  -9.812959e+05
   1.462263e+05  -2.314418e+06
   3.081001e+06  -1.493074e+06
   3.836147e+06   7.198473e+05
   1.818048e+06   2.769748e+06
  -1.316723e+06   3.939765e+06
  -3.837599e+06   3.683105e+06
  -4.683511e+06   1.298476e+06
  -3.383227e+06  -2.404539e+06
  -7.260944e+05  -4.659230e+06
   1.234852e+06  -3.680126e+06
   1.199656e+06  -1.136639e+06
   2.282132e+05  -4.705982e+04
   2.589562e+05  -8.448506e+05
   1.473032e+06  -1.283702e+06
   2.268216e+06   7.847220e+03
   1.550167e+06   1.695329e+06
  -9.513107e+04   1.797277e+06
  -1.380367e+06   1.586098e+05
  -1.422261e+06  -1.721482e+06
   2.789787e+03  -2.355565e+06
   2.178571e+06  -1.247978e+06
   3.401526e+06   9.675330e+05
   2.385717e+06   2.826825e+06
  -2.771677e+04   3.090966e+06
  -1.620404e+06   1.979703e+06
  -1.568344e+06   8.910800e+05
  -1.340937e+06   6.255850e+05
  -2.281447e+06   4.939363e+05
  -3.432546e+06  -4.771941e+05
  -2.810725e+06  -2.102285e+06
  -1.855505e+05  -3.276721e+06
   2.510586e+06  -3.155538e+06
   3.338064e+06  -1.699475e+06
   2.109310e+06   3.846149e+05
   1.589813e+05   1.813729e+06
  -9.245495e+05   1.521245e+06
  -4.424064e+05  -5.322704e+04
   8.764566e+05  -1.047892e+06
   1.492277e+06  -3.351087e+05
   7.082871e+05   9.337860e+05
  -4.257785e+05   9.032704e+05
  -4.046390e+05  -2.894350e+05
   7.433374e+05  -6.571788e+05
   1.485119e+06   7.902270e+05
   7.411599e+05   2.614798e+06
  -9.641773e+05   2.817762e+06
  -2.381954e+06   1.163981e+06
  -2.763646e+06  -9.501074e+05
  -2.007831e+06  -2.185075e+06
  -4.533477e+05  -2.147398e+06
   9.961384e+05  -1.203396e+06
   1.280613e+06  -1.890449e+05
   3.962122e+05   2.918611e+04
  -3.013789e+05  -5.947919e+05
   2.901172e+05  -1.057152e+06
   1.476987e+06  -4.887025e+05
   1.621444e+06   6.412271e+05
   3.497836e+05   1.097663e+06
  -9.187116e+05   4.885319e+05
  -7.517923e+05  -3.440138e+05
   6.456801e+05  -4.818439e+05
   1.794293e+06   1.532677e+05
   1.502240e+06   1.052776e+06
  -1.224536e+05   1.636867e+06
  -1.831164e+06   1.408698e+06
  -2.230183e+06   2.783769e+05
  -9.919393e+05  -9.773643e+05
   7.013173e+05  -1.188531e+06
   1.213378e+06  -1.672089e+05
   1.580890e+05   8.458606e+05
  -1.198622e+06   6.082535e+05
  -1.394141e+06  -5.825467e+05
  -3.292269e+05  -1.315139e+06
   8.320351e+05  -8.324062e+05
   1.021440e+06   1.902040e+05
   2.380537e+05   6.084163e+05
  -6.192714e+05   6.145155e+04
  -5.997209e+05  -8.295637e+05
   4.487907e+05  -1.147993e+06
   1.608287e+06  -4.567018e+05
   1.646602e+06   8.175080e+05
   3.407152e+05   1.655585e+06
  -1.118742e+06   1.341640e+06
  -1.377807e+06   2.086022e+05
  -4.300302e+05  -6.821544e+05
   5.086222e+05  -6.641157e+05
   5.260533e+05  -7.150455e+04
  -7.168545e+04   3.226079e+05
  -4.148817e+05   2.110231e+05
  -1.527691e+05  -5.527269e+04
   3.307780e+05   1.135304e+04
   4.397128e+05   4.937393e+05
  -1.212879e+05   9.488740e+05
  -1.086378e+06   7.484613e+05
  -1.679479e+06  -2.942309e+05
  -1.207295e+06  -1.537012e+06
   1.351200e+05  -1.957954e+06
   1.278723e+06  -1.186780e+06
   1.384118e+06   5.349304e+04
   7.429899e+05   7.267483e+05
   2.820892e+05   5.736608e+05
   3.614567e+05   2.054377e+05
   4.736563e+05   2.320087e+05
   7.855724e+04   5.910413e+05
  -6.786622e+05   7.442949e+05
  -1.165171e+06   3.038583e+05
  -8.822497e+05  -5.683834e+05
   1.585300e+05  -1.206029e+06
   1.369677e+06  -9.120901e+05
   1.828234e+06   3.456581e+05
   9.628868e+05   1.664468e+06
  -7.480393e+05   1.915841e+06
  -2.007735e+06   8.884655e+05
  -1.913421e+06  -4.627001e+05
  -8.307532e+05  -1.057073e+06
   1.259509e+05  -7.965279e+05
   3.262770e+05  -4.504498e+05
   9.495338e+04  -6.074053e+05
   8.590461e+04  -1.028324e+06
   5.128879e+05  -1.026844e+06
   1.022713e+06  -2.696204e+05
   1.088051e+06   8.511710e+05
   4.756239e+05   1.518115e+06
  -4.811750e+05   1.167519e+06
  -1.037283e+06   2.485825e+04
  -6.811098e+05  -1.006476e+06
   2.711379e+05  -1.126047e+06
   9.029310e+05  -3.677443e+05
   6.577575e+05   5.104749e+05
  -5.742756e+04   8.441138e+05
  -3.856903e+05   6.397657e+05
  -4.708591e+04   3.483700e+05
   3.489488e+05   2.709988e+05
   5.082229e+04   3.110009e+05
  -9.094760e+05   1.910549e+05
  -1.649662e+06  -2.284836e+05
  -1.317475e+06  -7.969263e+05
  -1.140847e+04  -1.138698e+06
   1.237871e+06  -9.353083e+05
   1.460117e+06  -2.671949e+05
   6.840828e+05   3.570990e+05
  -1.914794e+05   4.490709e+05
  -4.033199e+05   4.560989e+04
  -2.226948e+04  -3.237689e+05
   3.610827e+05  -2.117651e+05
   3.906150e+05   2.681426e+05
   1.982729e+05   5.851562e+05
   6.823827e+04   3.872607e+05
   1.099368e+05  -9.146985e+04
   2.326995e+05  -2.571232e+05
   2.289366e+05   1.802614e+05
  -1.057105e+05   8.039928e+05
  -7.058698e+05   8.702874e+05
  -1.074441e+06   1.502981e+05
  -6.813780e+05  -7.249628e+05
   3.167315e+05  -9.085934e+05
   9.975612e+05  -2.755240e+05
   5.989670e+05   4.549299e+05
  -5.502105e+05   5.372468e+05
  -1.288124e+06  -4.076634e+04
  -8.466211e+05  -6.724595e+05
   3.563031e+05  -8.172744e+05
   1.202314e+06  -4.340977e+05
   1.010648e+06   1.201045e+05
   1.253853e+05   4.152865e+05
  -5.166755e+05   2.352092e+05
  -3.095066e+05  -2.264678e+05
   4.705765e+05  -4.254162e+05
   9.561349e+05   5.494839e+04
   5.512196e+05   9.481895e+05
  -4.603084e+05   1.382194e+06
  -1.190201e+06   7.343101e+05
  -1.028490e+06  -5.941974e+05
  -1.945951e+05  -1.447575e+06
   5.748856e+05  -1.066061e+06
   7.523567e+05   1.186023e+05
   3.771507e+05   9.539525e+05
  -1.503530e+05   7.913131e+05
  -4.496212e+05   8.135118e+04
  -3.903662e+05  -2.975532e+05
  -1.421490e+05  -1.093911e+05
  -3.455502e+04   7.970782e+04
  -2.207568e+05  -2.306745e+05
  -4.254434e+05  -7.708470e+05
  -1.820390e+05  -8.688434e+05
   5.613820e+05  -3.320208e+05
   1.202630e+06   3.493958e+05
   1.057614e+06   6.522672e+05
   1.628516e+05   5.600027e+05
  -6.882785e+05   3.554538e+05
  -7.943486e+05   1.680362e+05
  -2.875640e+05  -3.410824e+04
   1.156434e+05  -1.851931e+05
   1.851628e+04  -1.680816e+05
  -2.227794e+05  -7.305040e+04
  -4.139832e+04  -1.077213e+05
   5.372027e+05  -2.033496e+05
   8.469601e+05  -9.343545e+03
   3.561829e+05   5.531569e+05
  -6.632894e+05   9.682263e+05
  -1.358558e+06   6.412368e+05
  -1.146145e+06  -3.253481e+05
  -2.493646e+05  -1.133749e+06
   5.928397e+05  -1.126782e+06
   8.396049e+05  -4.541383e+05
   5.364949e+05   1.764771e+05
   1.140581e+05   2.879783e+05
  -5.932832e+04   5.468666e+04
   6.329348e+04  -1.677843e+04
   2.514380e+05   2.900005e+05
   2.174020e+05   6.485377e+05
  -1.319688e+05   5.531991e+05
  -5.553205e+05  -8.467394e+04
  -6.181952e+05  -7.564773e+05
  -1.139170e+05  -8.338674e+05
   6.062599e+05  -2.166696e+05
   8.542415e+05   5.620774e+05
   3.050172e+05   8.751913e+05
  -5.636637e+05   5.635648e+05
  -9.070062e+05  -3.707264e+04
  -4.420497e+05  -4.845269e+05
   2.189057e+05  -5.543915e+05
   2.989055e+05  -3.046006e+05
  -2.013334e+05  -7.967811e+02
  -5.251722e+05   4.624642e+04
  -1.250332e+05  -2.465460e+05
   6.533349e+05  -5.672609e+05
   1.006524e+06  -4.632569e+05
   6.197005e+05   1.283967e+05
  -5.957031e+04   7.058477e+05
  -4.289073e+05   7.038693e+05
  -3.421367e+05   1.392289e+05
  -5.485053e+04  -3.871984e+05
   1.845537e+05  -3.582486e+05
   2.894377e+05   1.106269e+05
   2.187760e+05   4.617850e+05
  -3.394331e+04   3.479389e+05
  -3.180430e+05  -2.702392e+04
  -3.907316e+05  -2.173716e+05
  -1.977306e+05  -7.308921e+04
   3.066122e+04   1.219321e+05
   6.608064e+04   3.452105e+04
  -1.969892e+04  -2.868902e+05
   2.720216e+04  -4.497851e+05
   2.546278e+05  -1.868368e+05
   3.825257e+05   2.966339e+05
   1.441746e+05   5.225708e+05
  -3.230974e+05   2.653784e+05
  -5.460788e+05  -2.105725e+05
  -2.201303e+05  -4.583597e+05
   4.029480e+05  -3.076421e+05
   7.177807e+05   4.043235e+04
   3.972226e+05   2.948233e+05
  -2.292859e+05   3.322222e+05
  -5.135489e+05   2.009892e+05
  -2.039519e+05   2.016074e+04
   2.775104e+05  -6.633290e+04
   3.319562e+05   3.921699e+04
  -1.266226e+05   2.394725e+05
  -5.923679e+05   2.392864e+05
