
 $NMID
 id='ANONYMOUS ', fmtdat='(2E16.6)'
 volume=1.0
 tramp=1.0
 $END
   1.709078e+07   3.639796e+05
   1.113923e+07   7.988612e+06
  -1.290737e+05   1.059446e+07
  -7.240029e+06   7.182238e+06
  -6.101212e+06   9.233134e+05
  -4.644641e+05  -3.000881e+06
   3.394924e+06  -1.689918e+06
   2.713482e+06   2.636743e+06
  -6.459343e+05   4.797344e+06
  -3.161819e+06   2.215118e+06
  -2.838255e+06  -2.257825e+06
  -3.781376e+05  -3.702464e+06
   1.734413e+06  -7.514961e+05
   1.444138e+06   3.100471e+06
  -9.297967e+05   3.640271e+06
  -2.879760e+06   3.881725e+05
  -2.184207e+06  -3.383788e+06
   7.624225e+05  -4.312228e+06
   3.329189e+06  -2.021475e+06
   3.367066e+06   1.094493e+06
   1.326872e+06   2.510792e+06
  -4.005926e+05   1.863284e+06
  -1.007547e+05   8.718155e+05
   1.441852e+06   1.197295e+06
   1.791135e+06   2.555318e+06
  -4.156233e+05   3.136459e+06
  -3.676557e+06   1.779060e+06
  -4.889787e+06  -6.784407e+05
  -2.634363e+06  -2.311909e+06
   1.074352e+06  -2.003674e+06
   2.745369e+06  -2.636578e+05
   1.079173e+06   1.394958e+06
  -1.796951e+06   1.580731e+06
  -2.859848e+06  -1.885137e+03
  -1.409233e+06  -2.103325e+06
   6.470629e+05  -2.728882e+06
   1.291611e+06  -1.129077e+06
   4.449069e+05   1.040763e+06
  -4.918936e+05   1.326052e+06
  -4.283028e+05  -5.726197e+05
   4.857571e+05  -2.250183e+06
   1.316095e+06  -1.508152e+06
   1.233561e+06   8.581515e+05
   1.236666e+05   2.026455e+06
  -1.196017e+06   6.150845e+05
  -1.399383e+06  -1.748361e+06
   1.555900e+05  -2.466766e+06
   2.417958e+06  -8.299561e+05
   3.259185e+06   1.551109e+06
   1.573345e+06   2.642327e+06
  -1.340236e+06   1.807435e+06
  -2.906816e+06   1.065753e+04
  -1.876235e+06  -1.240935e+06
   4.633530e+05  -1.127051e+06
   1.760874e+06  -6.996747e+04
   1.042958e+06   7.546041e+05
  -5.118169e+05   5.657546e+05
  -1.077643e+06  -3.021546e+05
  -1.658923e+05  -8.472733e+05
   9.845692e+05  -4.848193e+05
   8.775678e+05   4.053994e+05
  -5.333040e+05   9.010165e+05
  -1.713615e+06   3.651760e+05
  -1.163561e+06  -1.003242e+06
   9.280808e+05  -2.197333e+06
   2.814757e+06  -2.076520e+06
   2.987010e+06  -3.872114e+05
   1.626273e+06   1.787687e+06
   1.559590e+05   2.899164e+06
  -4.093113e+05   2.440086e+06
  -3.419738e+05   1.370228e+06
  -5.098814e+05   8.564564e+05
  -1.216768e+06   8.688794e+05
  -1.921194e+06   4.291255e+05
  -1.882159e+06  -8.467420e+05
  -8.724617e+05  -1.982788e+06
   6.019814e+05  -1.702129e+06
   1.578481e+06  -1.180427e+03
   1.276674e+06   1.686240e+06
  -1.948030e+05   1.909619e+06
  -1.722371e+06   5.847132e+05
  -2.070860e+06  -1.077701e+06
  -1.067341e+06  -1.839526e+06
   2.415754e+05  -1.503163e+06
   7.697567e+05  -8.181548e+05
   5.874366e+05  -5.379773e+05
   6.913482e+05  -6.736414e+05
   1.608341e+06  -6.093927e+05
   2.542246e+06   1.697534e+05
   2.164342e+06   1.487662e+06
   1.997709e+05   2.526156e+06
  -2.020656e+06   2.447166e+06
  -2.758788e+06   1.120263e+06
  -1.585752e+06  -6.201041e+05
   2.176011e+05  -1.533413e+06
   9.923167e+05  -1.043280e+06
   3.151657e+05   1.603949e+05
  -7.856280e+05   7.639059e+05
  -1.081689e+06   2.139147e+05
  -3.884307e+05  -6.790291e+05
   4.408501e+05  -7.210315e+05
   5.167780e+05   1.776671e+05
  -2.431106e+05   8.164101e+05
  -1.114569e+06   1.212517e+05
  -1.198197e+06  -1.497276e+06
  -1.402806e+05  -2.472040e+06
   1.496375e+06  -1.728201e+06
   2.531498e+06   2.054265e+05
   2.106046e+06   1.775864e+06
   5.354292e+05   1.933903e+06
  -8.777842e+05   9.904936e+05
  -1.082078e+06   8.151719e+04
  -3.139777e+05  -2.308180e+04
   2.481467e+05   4.587302e+05
  -1.478730e+05   7.437927e+05
  -9.998223e+05   3.728128e+05
  -1.194699e+06  -3.530882e+05
  -3.522619e+05  -7.424260e+05
   6.757909e+05  -4.356503e+05
   7.161808e+05   2.413000e+05
  -4.043858e+05   5.837419e+05
  -1.575773e+06   1.546653e+05
  -1.508304e+06  -7.967337e+05
  -8.750043e+04  -1.497205e+06
   1.461034e+06  -1.296656e+06
   1.793315e+06  -2.890191e+05
   7.689412e+05   6.914299e+05
  -4.961452e+05   8.176032e+05
  -8.148965e+05   1.012098e+05
  -4.907688e+04  -5.923286e+05
   9.119371e+05  -4.565532e+05
   1.111978e+06   3.792601e+05
   3.982148e+05   1.011711e+06
  -5.343020e+05   7.896128e+05
  -8.385662e+05   2.163473e+04
  -3.098911e+05  -4.181162e+05
   4.077377e+05  -7.506935e+04
   4.420740e+05   6.284639e+05
  -3.830755e+05   8.835908e+05
  -1.279489e+06   3.203732e+05
  -1.276986e+06  -6.614676e+05
  -2.747869e+05  -1.280409e+06
   8.227153e+05  -1.059655e+06
   1.060781e+06  -2.252239e+05
   3.976118e+05   5.031336e+05
  -3.643455e+05   5.622795e+05
  -4.912618e+05   5.715850e+04
  -1.742981e+04  -3.876831e+05
   4.278638e+05  -3.166664e+05
   3.439206e+05   6.797074e+04
  -1.380990e+05   1.789718e+05
  -4.106434e+05  -2.279501e+05
  -2.207380e+04  -7.184779e+05
   8.095685e+05  -6.296181e+05
   1.328010e+06   1.982765e+05
   9.573344e+05   1.199156e+06
  -9.574726e+04   1.584191e+06
  -1.020827e+06   1.054445e+06
  -1.200031e+06   5.185455e+04
  -7.563204e+05  -6.599753e+05
  -2.893066e+05  -6.857375e+05
  -1.740714e+05  -3.117998e+05
  -2.284470e+05  -1.339865e+05
  -4.084355e+04  -3.733085e+05
   4.839031e+05  -6.215669e+05
   9.491942e+05  -3.331678e+05
   8.179631e+05   4.662666e+05
  -3.797525e+04   1.081876e+06
  -1.092406e+06   8.281148e+05
  -1.508502e+06  -2.330120e+05
  -8.517667e+05  -1.289689e+06
   4.674715e+05  -1.516457e+06
   1.501345e+06  -8.004342e+05
   1.578841e+06   2.269549e+05
   8.424179e+05   8.212891e+05
   6.792083e+03   7.783149e+05
  -3.540964e+05   5.026043e+05
  -2.630020e+05   4.769717e+05
  -1.623277e+05   7.065584e+05
  -3.746452e+05   7.302450e+05
  -7.541326e+05   1.878577e+05
  -8.429568e+05  -6.869996e+05
  -3.704877e+05  -1.216671e+06
   3.960828e+05  -9.341544e+05
   8.384447e+05  -5.032018e+04
   5.795997e+05   7.404417e+05
  -1.182893e+05   8.851355e+05
  -6.056122e+05   4.024869e+05
  -5.059735e+05  -2.355396e+05
  -7.079613e+04  -5.732761e+05
   1.557423e+05  -5.253556e+05
  -2.709849e+04  -3.347848e+05
  -2.531876e+05  -2.485039e+05
  -2.435846e+04  -2.620633e+05
   6.714524e+05  -1.736961e+05
   1.242230e+06   1.467450e+05
   1.050338e+06   5.778186e+05
   1.020748e+05   8.341132e+05
  -8.764401e+05   7.153114e+05
  -1.120693e+06   2.848893e+05
  -5.752212e+05  -1.579494e+05
   1.047587e+05  -2.994913e+05
   2.861656e+05  -8.661909e+04
  -2.205629e+04   1.865308e+05
  -3.280008e+05   1.493404e+05
  -2.972989e+05  -2.165158e+05
  -6.934574e+04  -4.968147e+05
   3.002026e+04  -3.190489e+05
  -9.490437e+04   1.364408e+05
  -2.514525e+05   2.870550e+05
  -2.004435e+05  -1.319608e+05
   1.260135e+05  -6.753307e+05
   5.580764e+05  -6.788326e+05
   7.535889e+05  -5.633316e+04
   4.381737e+05   5.865005e+05
  -2.561580e+05   6.404879e+05
  -7.387999e+05   1.296676e+05
  -4.656698e+05  -3.935358e+05
   4.143468e+05  -4.481953e+05
   1.069503e+06  -2.407385e+04
   8.012394e+05   5.062732e+05
  -1.894371e+05   7.283781e+05
  -9.818553e+05   4.827564e+05
  -8.917936e+05  -2.133759e+04
  -1.506641e+05  -3.528346e+05
   4.011000e+05  -2.340552e+05
   2.176335e+05   1.534163e+05
  -4.228298e+05   2.979028e+05
  -7.608988e+05  -1.151515e+05
  -3.573342e+05  -8.016548e+05
   4.751649e+05  -1.076918e+06
   1.010168e+06  -5.241118e+05
   8.223917e+05   5.190897e+05
   1.385862e+05   1.191729e+06
  -4.684797e+05   9.095077e+05
  -6.237820e+05  -3.924854e+04
  -3.640655e+05  -7.630816e+05
   4.412248e+04  -6.824022e+05
   3.398985e+05  -9.751300e+04
   3.732231e+05   2.534509e+05
   1.789104e+05   1.072613e+05
   3.259468e+03  -8.339374e+04
   8.580662e+04   1.471036e+05
   3.074169e+05   6.084854e+05
   2.221055e+05   7.167577e+05
  -3.677697e+05   2.786285e+05
  -9.869659e+05  -2.897326e+05
  -9.280163e+05  -5.303021e+05
  -1.383457e+05  -4.388347e+05
   6.233672e+05  -2.794511e+05
   6.678541e+05  -1.576585e+05
   1.779486e+05  -7.271619e+03
  -1.200403e+05   1.433015e+05
   6.024301e+04   1.711504e+05
   2.612982e+05   1.016130e+05
   1.356614e+03   9.354230e+04
  -5.235453e+05   1.306129e+05
  -6.749440e+05  -2.792510e+04
  -1.621482e+05  -4.419314e+05
   6.268083e+05  -7.265661e+05
   1.053495e+06  -4.370129e+05
   8.223603e+05   3.285870e+05
   1.526211e+05   9.336742e+05
  -4.751417e+05   8.725611e+05
  -6.845992e+05   2.987222e+05
  -4.430340e+05  -1.950958e+05
  -5.293569e+04  -2.339442e+05
   1.190851e+05   1.471302e+03
  -2.382565e+04   6.550657e+04
  -2.344740e+05  -2.125728e+05
  -1.968876e+05  -5.250399e+05
   1.325896e+05  -4.274236e+05
   4.635841e+05   1.309174e+05
   4.394623e+05   6.751074e+05
  -1.034455e+04   6.687801e+05
  -5.421131e+05   9.012237e+04
  -6.547513e+05  -5.401472e+05
  -1.779217e+05  -7.090651e+05
   4.799827e+05  -3.867825e+05
   6.932736e+05   7.157403e+04
   3.013290e+05   3.490455e+05
  -1.847313e+05   3.731483e+05
  -1.853930e+05   2.209770e+05
   2.313934e+05   2.890126e+04
   4.425742e+05  -1.604007e+04
   7.149085e+04   1.887104e+05
  -5.374864e+05   4.535900e+05
  -7.597972e+05   4.029005e+05
  -4.263848e+05  -6.432262e+04
   6.963562e+04  -5.403070e+05
   3.009691e+05  -5.279933e+05
   2.118064e+05  -5.287935e+04
   4.374946e+02   3.427374e+05
  -1.707811e+05   2.477373e+05
  -2.367846e+05  -1.565743e+05
  -1.562890e+05  -3.795874e+05
   5.379385e+04  -2.237733e+05
   2.538515e+05   5.619574e+04
   2.866734e+05   1.415739e+05
   1.555962e+05   2.470747e+04
   1.099518e+04  -5.157980e+04
  -4.784342e+04   7.099381e+04
  -7.529014e+04   2.744596e+05
  -1.569302e+05   2.979555e+05
  -2.527088e+05   3.269780e+04
  -2.211813e+05  -3.249391e+05
   6.386924e+03  -4.381382e+05
   2.994601e+05  -1.760976e+05
   3.944165e+05   2.260325e+05
   1.347708e+05   4.008956e+05
  -3.137071e+05   2.278184e+05
  -5.409216e+05  -7.998624e+04
  -2.938761e+05  -2.496289e+05
   1.947530e+05  -2.148238e+05
   4.038360e+05  -9.061469e+04
   1.160242e+05   7.929553e+02
  -2.957173e+05  -1.690028e+03
  -2.958366e+05  -1.092142e+05
   1.629296e+05  -2.334482e+05
   5.757478e+05  -1.780715e+05
