
 $NMID
 id='ANONYMOUS ', fmtdat='(2E16.6)'
 volume=1.0
 tramp=1.0
 $END
   2.341755e+07  -2.159487e+06
   1.729476e+07   8.641345e+06
   2.282524e+06   1.470769e+07
  -9.007626e+06   1.195766e+07
  -9.105479e+06   2.836827e+06
  -1.475502e+06  -4.373643e+06
   4.894484e+06  -3.327963e+06
   4.703386e+06   3.457351e+06
  -1.705698e+05   7.441504e+06
  -4.354946e+06   3.925545e+06
  -4.371265e+06  -2.877762e+06
  -9.360772e+05  -5.329792e+06
   2.379237e+06  -1.187165e+06
   2.366615e+06   4.525845e+06
  -9.554990e+05   5.618001e+06
  -4.170487e+06   1.109107e+06
  -3.703309e+06  -4.527147e+06
   3.939951e+05  -6.303418e+06
   4.354244e+06  -3.315665e+06
   4.723250e+06   1.101010e+06
   1.996165e+06   3.158491e+06
  -2.615332e+05   2.298768e+06
   3.974506e+05   1.110569e+06
   2.622923e+06   1.902432e+06
   2.877327e+06   4.000880e+06
  -5.612164e+05   4.762317e+06
  -5.377322e+06   2.748724e+06
  -7.165806e+06  -7.445124e+05
  -3.907664e+06  -3.121086e+06
   1.543872e+06  -2.817849e+06
   4.045213e+06  -3.515392e+05
   1.516471e+06   2.170870e+06
  -2.887257e+06   2.481683e+06
  -4.462323e+06  -6.665386e+03
  -2.139383e+06  -3.242456e+06
   9.749434e+05  -4.082734e+06
   1.778062e+06  -1.599513e+06
   4.393728e+05   1.516408e+06
  -7.705518e+05   1.757981e+06
  -5.036708e+05  -1.058523e+06
   7.535776e+05  -3.443499e+06
   1.869865e+06  -2.380591e+06
   1.980605e+06   1.044628e+06
   6.904715e+05   2.969767e+06
  -1.359993e+06   1.295197e+06
  -2.228343e+06  -2.047753e+06
  -3.194258e+05  -3.457181e+06
   3.242794e+06  -1.520022e+06
   4.980766e+06   1.879000e+06
   2.690388e+06   3.780600e+06
  -1.813535e+06   2.897430e+06
  -4.421010e+06   3.518076e+05
  -3.037267e+06  -1.670213e+06
   4.719215e+05  -1.794690e+06
   2.573307e+06  -3.968793e+05
   1.684961e+06   9.360668e+05
  -6.367934e+05   8.999179e+05
  -1.672947e+06  -3.452478e+05
  -4.027310e+05  -1.395566e+06
   1.531630e+06  -1.045904e+06
   1.673796e+06   4.539221e+05
  -4.196826e+05   1.576128e+06
  -2.469612e+06   9.601824e+05
  -1.917315e+06  -1.224479e+06
   1.136460e+06  -3.244853e+06
   3.984120e+06  -3.205989e+06
   4.295919e+06  -7.573107e+05
   2.416937e+06   2.453333e+06
   4.457402e+05   4.193772e+06
  -3.210411e+05   3.702732e+06
  -3.929309e+05   2.234491e+06
  -8.649822e+05   1.411661e+06
  -1.962284e+06   1.297343e+06
  -2.918838e+06   5.868375e+05
  -2.806312e+06  -1.300115e+06
  -1.309867e+06  -2.994166e+06
   9.160573e+05  -2.587030e+06
   2.442168e+06  -2.414067e+04
   2.017348e+06   2.532310e+06
  -2.091968e+05   2.878079e+06
  -2.514226e+06   9.283346e+05
  -3.059361e+06  -1.471043e+06
  -1.646089e+06  -2.550251e+06
   1.925543e+05  -2.111598e+06
   9.424285e+05  -1.227785e+06
   7.320494e+05  -9.001285e+05
   9.651336e+05  -1.131146e+06
   2.384086e+06  -1.077286e+06
   3.844304e+06   4.437030e+04
   3.370547e+06   2.075118e+06
   4.757322e+05   3.795195e+06
  -2.895170e+06   3.807201e+06
  -4.084283e+06   1.814480e+06
  -2.381424e+06  -8.751372e+05
   2.969184e+05  -2.301845e+06
   1.453253e+06  -1.581007e+06
   4.664047e+05   2.360245e+05
  -1.143772e+06   1.180987e+06
  -1.597327e+06   3.949031e+05
  -6.095199e+05  -9.704156e+05
   6.364742e+05  -1.104712e+06
   8.274987e+05   2.505524e+05
  -2.970057e+05   1.333944e+06
  -1.753096e+06   3.758232e+05
  -2.064351e+06  -2.168281e+06
  -4.776723e+05  -3.866315e+06
   2.185459e+06  -2.872589e+06
   3.951193e+06   1.080294e+05
   3.363784e+06   2.616732e+06
   9.284866e+05   2.942009e+06
  -1.281087e+06   1.544851e+06
  -1.630466e+06   1.721065e+05
  -4.754279e+05  -1.524712e+04
   4.061537e+05   6.757806e+05
  -1.526109e+05   1.126842e+06
  -1.457290e+06   6.433117e+05
  -1.829622e+06  -4.231318e+05
  -6.052213e+05  -1.087412e+06
   9.898105e+05  -7.136126e+05
   1.118078e+06   3.283327e+05
  -5.809083e+05   9.497107e+05
  -2.424569e+06   3.561487e+05
  -2.379422e+06  -1.139954e+06
  -2.304085e+05  -2.306717e+06
   2.146794e+06  -2.074809e+06
   2.700584e+06  -5.557835e+05
   1.211105e+06   9.805524e+05
  -6.735597e+05   1.252929e+06
  -1.197181e+06   2.164670e+05
  -1.088001e+05  -8.696502e+05
   1.338655e+06  -7.466776e+05
   1.712783e+06   4.907988e+05
   6.892944e+05   1.513489e+06
  -7.528408e+05   1.260191e+06
  -1.289135e+06   1.086247e+05
  -5.204880e+05  -6.158252e+05
   6.004339e+05  -1.526938e+05
   7.043704e+05   9.120972e+05
  -5.240714e+05   1.349686e+06
  -1.906564e+06   5.561539e+05
  -1.962403e+06  -9.173074e+05
  -4.991728e+05  -1.910827e+06
   1.165101e+06  -1.657703e+06
   1.589296e+06  -4.193088e+05
   6.450818e+05   7.353274e+05
  -5.126968e+05   8.816419e+05
  -7.493340e+05   1.085647e+05
  -4.657939e+04  -6.128468e+05
   6.586317e+05  -5.158628e+05
   5.546502e+05   1.110588e+05
  -2.002933e+05   3.221470e+05
  -6.626661e+05  -3.006711e+05
  -1.001446e+05  -1.091640e+06
   1.178912e+06  -1.012219e+06
   2.020111e+06   2.107351e+05
   1.521814e+06   1.747152e+06
  -4.775744e+04   2.403239e+06
  -1.489455e+06   1.671933e+06
  -1.835067e+06   1.555671e+05
  -1.198804e+06  -9.817985e+05
  -4.623934e+05  -1.060643e+06
  -2.471241e+05  -4.696918e+05
  -3.360871e+05  -1.630315e+05
  -9.255334e+04  -5.436590e+05
   6.871897e+05  -9.793747e+05
   1.426689e+06  -5.729116e+05
   1.279866e+06   6.694267e+05
   8.598674e+03   1.664950e+06
  -1.610562e+06   1.333135e+06
  -2.305092e+06  -2.584017e+05
  -1.383046e+06  -1.899042e+06
   5.911915e+05  -2.332117e+06
   2.213214e+06  -1.327171e+06
   2.423087e+06   2.296327e+05
   1.353165e+06   1.206014e+06
   5.805882e+04   1.209568e+06
  -5.350314e+05   7.919553e+05
  -3.957995e+05   7.134707e+05
  -2.027728e+05   1.048587e+06
  -5.050827e+05   1.116270e+06
  -1.114616e+06   3.331950e+05
  -1.310566e+06  -9.838663e+05
  -6.324557e+05  -1.814384e+06
   5.427681e+05  -1.434167e+06
   1.268313e+06  -1.311311e+05
   9.337924e+05   1.077045e+06
  -1.074356e+05   1.353415e+06
  -8.847972e+05   6.753682e+05
  -7.957230e+05  -2.958628e+05
  -1.718856e+05  -8.595237e+05
   1.811008e+05  -8.229720e+05
  -6.494469e+04  -5.202709e+05
  -3.899916e+05  -3.618681e+05
  -4.870351e+04  -3.945984e+05
   9.975217e+05  -3.131515e+05
   1.877763e+06   1.311814e+05
   1.628393e+06   7.989274e+05
   2.285441e+05   1.252645e+06
  -1.258759e+06   1.142365e+06
  -1.676464e+06   5.155392e+05
  -8.977722e+05  -1.868753e+05
   1.255409e+05  -4.552469e+05
   4.272020e+05  -1.603011e+05
  -1.971460e+04   2.674337e+05
  -4.901946e+05   2.380989e+05
  -4.598662e+05  -3.075005e+05
  -1.180685e+05  -7.404470e+05
   3.992187e+04  -4.754681e+05
  -1.434822e+05   2.208344e+05
  -3.817592e+05   4.539007e+05
  -3.147936e+05  -1.872906e+05
   1.593151e+05  -1.028010e+06
   7.984951e+05  -1.057562e+06
   1.111127e+06  -1.335242e+05
   6.805084e+05   8.478128e+05
  -3.382105e+05   9.695538e+05
  -1.088521e+06   2.339340e+05
  -7.220716e+05  -5.690380e+05
   5.966951e+05  -7.082969e+05
   1.626843e+06  -1.060405e+05
   1.264190e+06   7.252902e+05
  -2.355408e+05   1.134538e+06
  -1.472520e+06   8.079520e+05
  -1.369999e+06   2.422845e+04
  -2.545881e+05  -5.327973e+05
   5.949788e+05  -3.866515e+05
   3.367317e+05   2.106236e+05
  -6.227181e+05   4.639629e+05
  -1.147610e+06  -1.378766e+05
  -5.709972e+05  -1.186110e+06
   6.650451e+05  -1.639164e+06
   1.495611e+06  -8.371524e+05
   1.269075e+06   7.405552e+05
   2.757866e+05   1.795105e+06
  -6.599411e+05   1.410419e+06
  -9.545412e+05  -1.506702e+04
  -6.063056e+05  -1.137660e+06
   1.881777e+04  -1.049953e+06
   5.081492e+05  -1.753787e+05
   5.869206e+05   3.694329e+05
   2.846116e+05   1.616269e+05
  -1.689392e+03  -1.320526e+05
   1.289285e+05   2.006817e+05
   4.975411e+05   8.953097e+05
   3.887552e+05   1.081368e+06
  -5.274531e+05   4.548552e+05
  -1.511405e+06  -3.817087e+05
  -1.446078e+06  -7.550895e+05
  -2.381383e+05  -6.539992e+05
   9.352940e+05  -4.511591e+05
   1.006948e+06  -2.788927e+05
   2.643262e+05  -3.321783e+04
  -1.762482e+05   2.199342e+05
   1.088265e+05   2.692365e+05
   4.087512e+05   1.537736e+05
   1.981574e+03   1.386593e+05
  -7.936787e+05   2.135463e+05
  -1.016805e+06  -6.027642e+03
  -2.531083e+05  -6.434017e+05
   9.117180e+05  -1.117465e+06
   1.550815e+06  -7.168079e+05
   1.239955e+06   4.456887e+05
   2.773852e+05   1.399856e+06
  -6.611925e+05   1.342658e+06
  -1.010440e+06   4.816710e+05
  -6.770869e+05  -2.775326e+05
  -8.793696e+04  -3.462625e+05
   1.858171e+05   1.020784e+04
  -3.386031e+04   1.115484e+05
  -3.745966e+05  -3.076139e+05
  -3.324039e+05  -7.846805e+05
   1.765163e+05  -6.483329e+05
   7.039907e+05   1.813551e+05
   6.886401e+05   9.973615e+05
   9.477801e+03   9.994829e+05
  -8.126480e+05   1.499092e+05
  -1.007330e+06  -7.865684e+05
  -3.009534e+05  -1.054032e+06
   6.985216e+05  -6.004321e+05
   1.041849e+06   6.844068e+04
   4.729231e+05   4.968398e+05
  -2.495894e+05   5.630005e+05
  -2.555863e+05   3.478471e+05
   3.589624e+05   4.199091e+04
   6.686542e+05  -4.547464e+04
   1.161199e+05   2.761043e+05
  -7.864633e+05   7.163938e+05
  -1.119855e+06   6.654071e+05
  -6.417948e+05  -5.712740e+04
   7.269172e+04  -8.142016e+05
   4.117858e+05  -8.155032e+05
   3.004278e+05  -9.094946e+04
   1.112040e+04   5.178295e+05
  -2.419309e+05   3.760290e+05
  -3.602465e+05  -2.331678e+05
  -2.552700e+05  -5.632783e+05
   6.538402e+04  -3.298386e+05
   3.828489e+05   7.462025e+04
   4.414734e+05   1.883334e+05
   2.400732e+05   2.229016e+04
   1.363482e+04  -6.738469e+04
  -7.853763e+04   1.259904e+05
  -1.161848e+05   4.156618e+05
  -2.325643e+05   4.345697e+05
  -3.738578e+05   4.118024e+04
  -3.308149e+05  -4.810847e+05
   3.949213e+03  -6.513355e+05
   4.437660e+05  -2.740324e+05
   5.964679e+05   3.213217e+05
   2.177921e+05   5.978872e+05
  -4.565199e+05   3.615276e+05
  -8.114068e+05  -9.123767e+04
  -4.539534e+05  -3.584828e+05
   2.769178e+05  -3.272802e+05
   5.953401e+05  -1.515966e+05
   1.661085e+05  -8.735782e+03
  -4.518893e+05  -1.397053e+03
  -4.492999e+05  -1.623761e+05
   2.461792e+05  -3.619960e+05
   8.730555e+05  -2.904492e+05
