
 $NMID
 id='ANONYMOUS ', fmtdat='(2E16.6)'
 volume=1.0
 tramp=1.0
 $END
   6.439451e+06   2.171625e+06
   1.939588e+06   6.364520e+06
  -3.495805e+06   4.385601e+06
  -4.344234e+06  -6.218321e+05
  -1.116472e+06  -2.941390e+06
   1.567622e+06  -1.292656e+06
   1.247431e+06   1.082119e+06
  -5.379359e+05   1.524675e+06
  -1.536780e+06   4.368592e+05
  -1.285232e+06  -6.854103e+05
  -4.091813e+05  -1.186647e+06
   4.871174e+05  -9.914137e+05
   7.995732e+05  -2.209533e+05
   1.972699e+05   4.335154e+05
  -6.520568e+05   1.631870e+05
  -6.246530e+05  -7.635251e+05
   3.535268e+05  -1.191813e+06
   1.226706e+06  -6.440264e+05
   1.318996e+06   2.221585e+05
   9.525891e+05   8.067243e+05
   4.612945e+05   1.180771e+06
  -2.955589e+05   1.313355e+06
  -1.108977e+06   8.022703e+05
  -1.204847e+06  -1.779584e+05
  -4.293767e+05  -6.569290e+05
   2.364557e+05  -1.997288e+05
  -1.666891e+03   3.582179e+05
  -6.397745e+05   1.365925e+05
  -7.388609e+05  -5.534635e+05
  -2.490076e+05  -8.713239e+05
   2.338865e+05  -6.903667e+05
   4.716207e+05  -4.283227e+05
   5.827788e+05  -1.851789e+05
   4.885501e+05   1.344881e+05
   1.435802e+05   2.624109e+05
  -2.553647e+04  -2.984675e+04
   3.095557e+05  -2.824168e+05
   6.627093e+05   5.469760e+04
   3.910730e+05   6.218133e+05
  -1.901829e+05   6.358154e+05
  -2.591822e+05   2.044033e+05
   1.003615e+05   1.625159e+05
  -2.083612e+04   5.934702e+05
  -7.781447e+05   5.799960e+05
  -1.142411e+06  -2.795152e+05
  -4.415994e+05  -1.082441e+06
   5.759949e+05  -8.841023e+05
   8.043711e+05  -2.585835e+03
   2.237173e+05   5.497421e+05
  -3.471273e+05   3.852580e+05
  -4.200950e+05  -1.102146e+05
  -1.190366e+05  -5.007674e+05
   3.098482e+05  -5.647751e+05
   6.256555e+05  -1.868326e+05
   5.150478e+05   4.143393e+05
  -5.903989e+03   6.268646e+05
  -3.393561e+05   1.932853e+05
  -4.269815e+04  -2.455060e+05
   4.007786e+05   2.408308e+04
   1.971296e+05   6.562468e+05
  -5.313783e+05   6.752273e+05
  -8.703060e+05  -7.140068e+04
  -4.460909e+05  -6.976852e+05
   1.309035e+05  -5.977463e+05
   2.972587e+05  -1.767509e+05
   2.513675e+05   2.094125e+03
   3.134557e+05   5.027678e+04
   2.635978e+05   2.637223e+05
  -1.527854e+05   4.017927e+05
  -5.553978e+05   8.529089e+04
  -3.888737e+05  -4.348871e+05
   2.073763e+05  -5.362457e+05
   5.594180e+05  -1.104071e+05
   3.702526e+05   3.342439e+05
  -1.859906e+04   4.017409e+05
  -2.207244e+05   1.946297e+05
  -2.091836e+05  -1.791665e+04
  -1.133520e+05  -1.164875e+05
  -9.889469e+03  -7.623706e+04
   9.714771e+03   6.483819e+04
  -1.193369e+05   1.223341e+05
  -2.487178e+05  -6.661735e+04
  -1.391234e+05  -3.464784e+05
   1.703961e+05  -3.802022e+05
   3.673011e+05  -1.180286e+05
   2.931652e+05   1.429310e+05
   1.127179e+05   2.060219e+05
  -2.330886e+02   1.843118e+05
  -7.277424e+04   1.902072e+05
  -1.401100e+05   1.340985e+05
  -1.200904e+05  -2.438285e+04
  -1.570645e+04  -1.144077e+05
   8.492655e+03  -3.493998e+04
  -9.187096e+04   4.655992e+04
  -1.210853e+05  -1.774073e+04
   2.085836e+04  -9.351374e+04
   1.246032e+05  -2.018903e+04
   1.190849e+04   7.903546e+04
  -1.412691e+05   1.444253e+04
  -9.568776e+04  -1.173954e+05
   3.870755e+04  -1.070022e+05
   1.514511e+04  -2.640459e+04
  -7.377143e+04  -1.003109e+05
   6.969014e+04  -2.504823e+05
   3.855154e+05  -1.527378e+05
   4.479337e+05   2.182183e+05
   9.689567e+04   4.681328e+05
  -2.952347e+05   3.291837e+05
  -3.456919e+05   1.625793e+04
  -1.417551e+05  -1.300056e+05
   1.645091e+03  -9.019939e+04
   5.983654e+03  -4.745533e+04
   4.050035e+02  -4.123551e+04
   1.381179e+04   5.928945e+03
  -2.883269e+04   5.531854e+04
  -9.627112e+04   3.026526e+03
  -8.274740e+04  -1.036632e+05
  -7.242631e+03  -1.250432e+05
   2.388833e+04  -6.672017e+04
   2.025513e+04  -5.607880e+04
   7.939932e+04  -1.028479e+05
   1.764199e+05  -8.238415e+04
   1.775893e+05   3.582492e+04
   6.983288e+04   1.307914e+05
  -1.092729e+04   1.318266e+05
  -7.434905e+03   1.067383e+05
  -1.604356e+04   1.027870e+05
  -8.515405e+04   6.271349e+04
  -1.150916e+05  -3.152790e+04
  -4.181247e+04  -7.916221e+04
   3.343350e+04  -1.745955e+04
   4.943633e+03   6.086800e+04
  -6.998429e+04   4.635378e+04
  -7.948249e+04  -2.802367e+04
  -3.363576e+04  -6.572842e+04
  -1.205862e+04  -6.032942e+04
  -1.334205e+04  -6.445653e+04
   1.748766e+04  -7.313547e+04
   6.519778e+04  -4.811929e+04
   7.047115e+04  -1.038364e+04
   4.531058e+04  -3.610601e+03
   4.859730e+04  -3.074733e+03
   7.066229e+04   3.848600e+04
   5.154434e+04   8.799086e+04
  -2.621422e+03   7.924770e+04
  -3.052939e+04   3.516312e+04
  -3.276312e+04   3.059332e+04
  -6.400278e+04   5.038779e+04
  -1.063254e+05   8.294109e+03
  -7.145133e+04  -8.776498e+04
   4.418247e+04  -1.173800e+05
   1.208440e+05  -2.831009e+04
   7.830421e+04   7.923204e+04
  -2.061598e+04   9.897718e+04
  -8.014444e+04   4.823977e+04
  -9.120865e+04  -6.264072e+03
  -8.016065e+04  -5.427604e+04
  -3.143964e+04  -9.877063e+04
   5.485117e+04  -9.440983e+04
   1.046345e+05  -2.258555e+04
   6.623990e+04   3.876140e+04
   8.477775e+03   2.028680e+04
   2.099676e+04  -1.623115e+04
   6.175971e+04   3.022243e+04
   1.883677e+04   1.217752e+05
  -9.796873e+04   1.185756e+05
  -1.507108e+05  -1.070371e+04
  -6.953564e+04  -1.347335e+05
   5.595219e+04  -1.390556e+05
   1.128697e+05  -5.524218e+04
   9.474089e+04   2.666708e+04
   5.074485e+04   7.771399e+04
  -4.454798e+03   1.044543e+05
  -6.471487e+04   8.581498e+04
  -8.534307e+04   1.371203e+04
  -3.968483e+04  -5.333639e+04
   1.775607e+04  -5.332389e+04
   1.590704e+04  -9.990982e+03
  -3.015911e+04   5.075376e+03
  -4.457712e+04  -2.159969e+04
  -1.762302e+03  -3.876470e+04
   4.794909e+04  -1.695602e+04
   5.587971e+04   1.760564e+04
   2.425261e+04   3.329055e+04
  -1.973337e+04   2.591618e+04
  -5.064591e+04   4.107692e+01
  -4.532709e+04  -3.613457e+04
  -1.389134e+03  -5.403468e+04
   4.237742e+04  -2.773505e+04
   4.474988e+04   1.945476e+04
   2.097544e+04   3.407589e+04
   1.943349e+04   7.917485e+03
   4.020198e+04  -7.768450e+03
   3.043102e+04   2.157258e+04
  -2.766011e+04   6.347121e+04
  -7.947533e+04   6.600861e+04
  -7.444173e+04   2.279179e+04
  -3.206042e+04  -3.224719e+04
   7.142124e+02  -6.642449e+04
   1.518540e+04  -6.297873e+04
   2.427670e+04  -2.293957e+04
   1.808774e+04   2.252080e+04
  -1.340362e+04   2.782699e+04
  -3.801740e+04  -1.153730e+04
  -1.634052e+04  -4.344680e+04
   3.180919e+04  -2.775640e+04
   4.815528e+04   5.481299e+03
   2.168698e+04   3.524327e+03
   2.867833e+03  -2.575939e+04
   2.348223e+04  -2.590207e+04
   4.947090e+04   2.155197e+04
   3.428657e+04   7.099567e+04
  -1.651228e+04   7.687736e+04
  -5.818044e+04   4.150906e+04
  -5.961603e+04  -8.264295e+03
  -2.348456e+04  -5.026219e+04
   2.417388e+04  -6.017028e+04
   4.585500e+04  -1.887086e+04
   1.653791e+04   4.808574e+04
  -4.231371e+04   7.335176e+04
  -7.131569e+04   2.305792e+04
  -3.853800e+04  -5.331214e+04
   1.924038e+04  -7.938304e+04
   4.281799e+04  -4.152470e+04
   2.196128e+04   7.450716e+03
  -5.193103e+03   1.994443e+04
  -8.970804e+03  -2.677833e+03
   7.736808e+03  -2.920545e+04
   3.290142e+04  -3.002619e+04
   5.574706e+04   6.725784e+03
   5.352102e+04   6.076222e+04
   6.776301e+03   8.264278e+04
  -5.938758e+04   4.109529e+04
  -8.295359e+04  -3.004851e+04
  -3.652244e+04  -6.131053e+04
   3.153035e+04  -2.955906e+04
   5.217798e+04   1.832289e+04
   1.694791e+04   3.180556e+04
  -2.164452e+04   1.469296e+04
  -2.231703e+04   1.720979e+02
   1.368676e+02  -1.249500e+03
   5.495845e+03  -1.354968e+03
  -1.814575e+04  -3.248531e+03
  -4.323264e+04  -2.638245e+03
  -3.671898e+04  -8.372834e+03
   3.896376e+03  -2.992075e+04
   4.746132e+04  -4.866444e+04
   5.950113e+04  -3.297328e+04
   3.535037e+04   1.412727e+04
   1.320653e+03   4.961071e+04
  -1.626785e+04   4.273253e+04
  -1.587312e+04   1.134233e+04
  -1.187569e+04  -6.772957e+03
  -1.157018e+04  -2.244365e+03
  -1.053458e+04   2.160724e+03
  -3.748597e+03  -1.223997e+04
   9.820933e+03  -3.445574e+04
   2.838813e+04  -3.451448e+04
   4.153992e+04   4.249810e+03
   2.978407e+04   6.073934e+04
  -1.307026e+04   8.589258e+04
  -5.896347e+04   4.878227e+04
  -6.666814e+04  -2.431269e+04
  -2.927400e+04  -7.062766e+04
   1.537806e+04  -5.728562e+04
   2.913355e+04  -1.344835e+04
   1.406269e+04   1.199013e+04
  -3.318316e+02   7.731999e+03
   3.719197e+03  -1.145991e+03
   1.868067e+04   3.058451e+03
   2.664949e+04   1.312828e+04
   1.429820e+04   1.826200e+04
  -1.825178e+04   1.721571e+04
  -4.927109e+04   7.256243e+03
  -4.526493e+04  -1.589800e+04
   1.999467e+03  -3.828698e+04
   5.294517e+04  -3.057750e+04
   5.628060e+04   1.230883e+04
   9.543805e+03   5.073807e+04
  -3.647794e+04   4.189035e+04
  -3.935123e+04  -4.857015e+03
  -1.123685e+04  -3.605782e+04
   6.933599e+03  -1.910680e+04
  -1.075500e+03   1.974527e+04
  -1.701333e+04   2.996374e+04
  -2.018290e+04  -3.678701e+03
  -8.246143e+03  -4.706277e+04
   1.083696e+04  -5.647843e+04
   2.832584e+04  -2.269940e+04
   3.320332e+04   2.366647e+04
   1.721185e+04   4.386878e+04
  -1.078165e+04   2.609449e+04
  -2.590994e+04  -7.599391e+03
  -1.244789e+04  -2.577747e+04
   1.632805e+04  -1.713814e+04
   3.079890e+04   3.985251e+03
   1.673894e+04   1.726582e+04
  -1.007630e+04   1.630537e+04
  -2.182932e+04   9.359073e+03
  -9.442114e+03   6.079274e+03
   7.047985e+03   7.208337e+03
   2.247983e+03   5.572185e+03
  -2.097990e+04  -4.921027e+03
  -3.051080e+04  -2.050693e+04
  -4.973569e+03  -2.781819e+04
   3.313667e+04  -1.604203e+04
   3.981550e+04   9.432925e+03
   4.770568e+03   2.817952e+04
  -3.303443e+04   2.271893e+04
  -3.267110e+04  -4.272434e+03
   7.197567e+02  -3.095753e+04
   2.831426e+04  -3.434048e+04
   2.706296e+04  -9.849821e+03
   8.934722e+03   2.279090e+04
  -4.561306e+03   3.441626e+04
  -6.885295e+03   1.408855e+04
  -2.039310e+03  -1.600048e+04
   6.374708e+03  -2.077530e+04
   1.171480e+04   7.314313e+03
   2.962961e+03   3.523125e+04
