
 $NMID
 id='ANONYMOUS ', fmtdat='(2E16.6)'
 volume=1.0
 tramp=1.0
 $END
   1.996008e+07  -8.253785e+05
   1.351193e+07   1.041734e+07
  -6.095207e+05   1.341495e+07
  -9.263462e+06   7.411522e+06
  -7.018098e+06  -6.110579e+05
   1.992671e+05  -3.671063e+06
   4.030273e+06  -8.566819e+05
   2.270334e+06   3.489951e+06
  -1.599806e+06   4.712911e+06
  -3.743439e+06   1.765537e+06
  -2.951424e+06  -2.386989e+06
  -3.705654e+05  -3.677708e+06
   1.654944e+06  -9.289594e+05
   1.203921e+06   2.796105e+06
  -1.321953e+06   3.362028e+06
  -3.206902e+06   5.270828e+04
  -2.199768e+06  -3.818882e+06
   1.007279e+06  -4.725043e+06
   3.658680e+06  -2.376065e+06
   3.860116e+06   8.092108e+05
   2.069671e+06   2.579273e+06
   1.622027e+05   2.544316e+06
  -3.486631e+05   1.762447e+06
   4.752650e+05   1.477010e+06
   1.000592e+06   2.019204e+06
  -3.643952e+05   2.471365e+06
  -3.053192e+06   1.638297e+06
  -4.421347e+06  -3.808402e+05
  -2.716795e+06  -2.006046e+06
   5.345739e+05  -1.904403e+06
   2.122592e+06  -4.704258e+05
   8.764935e+05   7.878937e+05
  -1.288322e+06   8.618488e+05
  -2.009681e+06  -1.623488e+05
  -1.000553e+06  -1.514428e+06
   3.763824e+05  -2.137066e+06
   9.856677e+05  -1.276848e+06
   7.083764e+05   4.780170e+05
   7.054160e+04   1.249689e+06
  -1.929266e+05   1.585953e+04
   3.707698e+05  -1.640346e+06
   1.263471e+06  -1.245746e+06
   1.221411e+06   1.093565e+06
  -2.837117e+05   2.434529e+06
  -1.973627e+06   7.867554e+05
  -1.907203e+06  -2.144972e+06
   2.638562e+05  -3.053948e+06
   2.699864e+06  -1.028720e+06
   3.177530e+06   1.722258e+06
   1.232234e+06   2.707355e+06
  -1.481454e+06   1.547765e+06
  -2.705891e+06  -3.548365e+05
  -1.547407e+06  -1.453776e+06
   7.294249e+05  -1.123101e+06
   1.893634e+06   9.959727e+04
   1.007677e+06   9.530275e+05
  -6.014097e+05   6.051463e+05
  -9.506564e+05  -4.029542e+05
   2.087905e+05  -7.512986e+05
   1.183281e+06   3.166006e+04
   5.360137e+05   1.016166e+06
  -1.157739e+06   1.063711e+06
  -2.072678e+06   4.326634e+04
  -1.185495e+06  -1.316285e+06
   8.404686e+05  -2.191862e+06
   2.506746e+06  -1.981765e+06
   2.777343e+06  -5.038226e+05
   1.707529e+06   1.540070e+06
   2.358330e+05   2.740655e+06
  -6.200920e+05   2.313939e+06
  -6.298111e+05   1.059781e+06
  -4.500337e+05   3.804845e+05
  -7.444752e+05   5.069045e+05
  -1.336624e+06   4.082882e+05
  -1.456828e+06  -5.234274e+05
  -7.150754e+05  -1.478226e+06
   4.399629e+05  -1.278617e+06
   1.170969e+06   8.241788e+04
   9.298496e+05   1.412585e+06
  -1.935090e+05   1.597703e+06
  -1.466801e+06   5.678324e+05
  -1.921504e+06  -8.439591e+05
  -1.172000e+06  -1.685977e+06
   9.499027e+04  -1.597853e+06
   8.024520e+05  -9.944164e+05
   7.474076e+05  -5.680767e+05
   7.794886e+05  -5.242421e+05
   1.508402e+06  -3.927657e+05
   2.266478e+06   3.203737e+05
   1.834694e+06   1.438727e+06
   4.209504e+04   2.214367e+06
  -1.836340e+06   2.026698e+06
  -2.360546e+06   9.030484e+05
  -1.331490e+06  -4.856755e+05
   1.464971e+05  -1.236954e+06
   7.922172e+05  -8.803933e+05
   2.637484e+05   1.071329e+05
  -6.723386e+05   6.346586e+05
  -9.723007e+05   1.625637e+05
  -3.711917e+05  -6.061164e+05
   3.777359e+05  -5.865885e+05
   3.723177e+05   2.181200e+05
  -4.052021e+05   6.238441e+05
  -1.070892e+06  -2.098034e+05
  -8.047068e+05  -1.619387e+06
   3.478755e+05  -2.148049e+06
   1.599046e+06  -1.170024e+06
   2.105911e+06   5.308027e+05
   1.537925e+06   1.668290e+06
   2.805565e+05   1.625113e+06
  -7.740012e+05   7.876792e+05
  -9.030352e+05   3.600233e+04
  -2.689280e+05  -3.482989e+04
   1.902126e+05   4.122497e+05
  -1.814147e+05   6.765127e+05
  -9.382526e+05   2.980626e+05
  -1.061683e+06  -4.064241e+05
  -2.552215e+05  -7.106194e+05
   6.270451e+05  -3.320515e+05
   5.660388e+05   2.661759e+05
  -4.359768e+05   4.233507e+05
  -1.338629e+06  -5.670878e+04
  -1.150590e+06  -8.050651e+05
   8.349865e+04  -1.241125e+06
   1.334673e+06  -9.812015e+05
   1.555050e+06  -1.366182e+05
   6.443493e+05   6.595653e+05
  -4.735155e+05   7.316779e+05
  -7.556562e+05   7.593543e+04
  -5.038203e+04  -5.321521e+05
   8.174346e+05  -3.635490e+05
   9.458823e+05   4.093899e+05
   2.488625e+05   9.159984e+05
  -5.569385e+05   6.216332e+05
  -7.318610e+05  -8.646085e+04
  -2.106157e+05  -4.116864e+05
   3.876741e+05  -4.592706e+04
   3.668424e+05   5.680814e+05
  -3.577516e+05   7.490793e+05
  -1.109494e+06   2.304885e+05
  -1.076414e+06  -6.209874e+05
  -1.780734e+05  -1.126678e+06
   7.805568e+05  -8.814673e+05
   9.413947e+05  -1.253543e+05
   3.020094e+05   4.720901e+05
  -3.584242e+05   4.584129e+05
  -3.993158e+05   1.740735e+04
   4.424973e+04  -2.958311e+05
   3.641082e+05  -1.882444e+05
   2.103702e+05   9.052153e+04
  -1.922482e+05   9.401184e+04
  -3.383397e+05  -2.805387e+05
   5.316987e+04  -6.441088e+05
   7.482765e+05  -4.964046e+05
   1.138185e+06   2.449078e+05
   7.693374e+05   1.083398e+06
  -1.646105e+05   1.348016e+06
  -9.380850e+05   8.173273e+05
  -1.008300e+06  -5.740260e+04
  -5.496923e+05  -5.920264e+05
  -1.667752e+05  -5.278305e+05
  -1.585940e+05  -2.101191e+05
  -2.485556e+05  -1.271105e+05
  -3.606947e+04  -3.543677e+05
   4.679832e+05  -5.063762e+05
   8.327239e+05  -2.062061e+05
   6.371069e+05   4.465978e+05
  -1.287852e+05   8.931350e+05
  -9.875555e+05   6.226736e+05
  -1.269939e+06  -2.924112e+05
  -6.439129e+05  -1.170074e+06
   5.180872e+05  -1.297692e+06
   1.372446e+06  -5.937485e+05
   1.341090e+06   3.267496e+05
   6.219356e+05   7.729468e+05
  -8.558447e+04   6.291842e+05
  -3.103256e+05   3.527150e+05
  -1.807763e+05   3.784179e+05
  -1.268902e+05   6.285358e+05
  -3.587313e+05   6.442129e+05
  -6.750075e+05   1.418043e+05
  -6.985323e+05  -6.240392e+05
  -2.624044e+05  -1.058650e+06
   3.804277e+05  -7.803310e+05
   7.214475e+05   8.899677e+03
   4.561603e+05   6.893174e+05
  -1.771857e+05   7.695358e+05
  -5.919956e+05   2.904773e+05
  -4.488908e+05  -2.852510e+05
  -3.140552e+03  -5.440253e+05
   2.144846e+05  -4.551577e+05
   2.225086e+04  -2.755890e+05
  -2.105490e+05  -2.107990e+05
  -1.258444e+04  -2.190038e+05
   6.058187e+05  -1.155014e+05
   1.088880e+06   1.893106e+05
   8.803920e+05   5.663102e+05
   2.319357e+04   7.575629e+05
  -8.221350e+05   5.955225e+05
  -9.990145e+05   1.703370e+05
  -4.898850e+05  -2.115645e+05
   1.145914e+05  -2.782549e+05
   2.679197e+05  -4.679364e+04
  -5.609927e+03   1.798167e+05
  -2.720271e+05   1.146771e+05
  -2.493489e+05  -1.974231e+05
  -6.387847e+04  -4.086723e+05
   1.212134e+04  -2.591031e+05
  -9.242888e+04   8.905084e+04
  -2.151005e+05   1.977828e+05
  -1.606659e+05  -1.286435e+05
   1.290826e+05  -5.563080e+05
   5.108994e+05  -5.619205e+05
   6.787203e+05  -4.700444e+04
   3.845670e+05   5.090673e+05
  -2.394137e+05   5.668617e+05
  -6.499685e+05   1.145263e+05
  -3.814837e+05  -3.475390e+05
   3.878223e+05  -3.604397e+05
   9.100493e+05   5.535901e+04
   6.217360e+05   4.975065e+05
  -2.396608e+05   5.992463e+05
  -8.726655e+05   3.161095e+05
  -7.420119e+05  -9.702837e+04
  -9.195584e+04  -3.079632e+05
   3.645446e+05  -1.664431e+05
   1.930098e+05   1.483945e+05
  -3.553413e+05   2.448697e+05
  -6.399016e+05  -1.094462e+05
  -2.925150e+05  -6.793416e+05
   4.177387e+05  -8.980682e+05
   8.630291e+05  -4.163766e+05
   6.748518e+05   4.688027e+05
   6.365431e+04   1.013893e+06
  -4.485080e+05   7.357009e+05
  -5.311338e+05  -8.579283e+04
  -2.532392e+05  -6.784262e+05
   1.031229e+05  -5.738123e+05
   3.066260e+05  -5.807776e+04
   2.843378e+05   2.365125e+05
   1.228618e+05   1.009157e+05
   1.772356e+04  -6.710414e+04
   1.029483e+05   1.331430e+05
   2.468105e+05   5.353858e+05
   1.262674e+05   6.259088e+05
  -3.588807e+05   2.257080e+05
  -8.218033e+05  -2.949311e+05
  -7.396658e+05  -5.052895e+05
  -9.564096e+04  -3.867833e+05
   5.211888e+05  -2.029363e+05
   5.709752e+05  -9.109001e+04
   1.752030e+05   8.644814e+03
  -9.949205e+04   1.156058e+05
   1.256707e+04   1.450142e+05
   1.846920e+05   9.367361e+04
   7.189205e+03   7.397268e+04
  -4.179443e+05   8.752883e+04
  -5.739397e+05  -4.345772e+04
  -1.613419e+05  -3.727313e+05
   5.324702e+05  -5.985690e+05
   9.269129e+05  -3.545626e+05
   7.146027e+05   2.861050e+05
   9.949847e+04   7.925508e+05
  -4.454040e+05   7.349686e+05
  -5.889892e+05   2.445737e+05
  -3.592533e+05  -1.708348e+05
  -4.737843e+04  -1.973795e+05
   7.141258e+04  -9.481582e+02
  -3.897090e+04   3.956770e+04
  -1.811246e+05  -2.040638e+05
  -1.347001e+05  -4.597954e+05
   1.228469e+05  -3.622609e+05
   3.769861e+05   1.142125e+05
   3.557694e+05   5.685900e+05
  -5.229480e+03   5.604794e+05
  -4.391816e+05   7.417593e+04
  -5.349458e+05  -4.589865e+05
  -1.407909e+05  -6.054427e+05
   4.122637e+05  -3.277609e+05
   5.972906e+05   7.606982e+04
   2.644053e+05   3.212571e+05
  -1.647508e+05   3.347475e+05
  -1.859376e+05   1.946749e+05
   1.686901e+05   3.389975e+04
   3.696221e+05   2.625771e+03
   6.326772e+04   1.648887e+05
  -4.770812e+05   3.612302e+05
  -6.901970e+05   3.024358e+05
  -3.912207e+05  -8.134412e+04
   7.509122e+04  -4.657736e+05
   2.942194e+05  -4.551856e+05
   1.993009e+05  -6.290989e+04
  -4.454919e+03   2.770513e+05
  -1.455997e+05   2.152004e+05
  -1.857503e+05  -1.220008e+05
  -1.211621e+05  -3.270236e+05
   4.119414e+04  -2.054731e+05
   2.110999e+05   4.803422e+04
   2.517045e+05   1.436126e+05
   1.368824e+05   4.033035e+04
  -5.935963e+03  -5.593050e+04
  -5.740365e+04   2.414242e+04
  -5.053772e+04   2.052752e+05
  -9.384187e+04   2.543287e+05
  -1.874604e+05   5.168195e+04
  -1.940074e+05  -2.483515e+05
  -1.433606e+04  -3.541455e+05
   2.463997e+05  -1.446701e+05
   3.355883e+05   1.873769e+05
   1.069913e+05   3.331423e+05
  -2.807191e+05   1.876094e+05
  -4.660421e+05  -7.383982e+04
  -2.467310e+05  -2.204236e+05
   1.674061e+05  -1.915013e+05
   3.449119e+05  -8.389691e+04
   1.141547e+05  -5.072998e+03
  -2.209912e+05  -4.624916e+03
  -2.286810e+05  -8.367462e+04
   1.337585e+05  -1.703754e+05
   4.642933e+05  -1.180639e+05
