
 $NMID
 id='ANONYMOUS ', fmtdat='(2E16.6)'
 volume=1.0
 tramp=1.0
 $END
  -3.506124e+07  -2.476341e+05
  -2.227312e+07  -1.901997e+07
   2.264704e+06  -2.292178e+07
   1.618932e+07  -1.212885e+07
   1.166878e+07   1.243513e+06
  -5.131047e+05   6.125701e+06
  -6.709827e+06   1.393876e+06
  -3.738246e+06  -5.874070e+06
   2.688273e+06  -7.977847e+06
   6.372370e+06  -2.933917e+06
   5.103584e+06   4.294354e+06
   5.926026e+05   6.518456e+06
  -3.026310e+06   1.611224e+06
  -2.232146e+06  -4.933694e+06
   2.223817e+06  -5.825559e+06
   5.477557e+06   2.544080e+04
   3.636759e+06   6.712363e+06
  -1.994687e+06   8.150082e+06
  -6.585782e+06   3.915433e+06
  -6.801169e+06  -1.761312e+06
  -3.415810e+06  -4.856416e+06
   1.295266e+05  -4.557064e+06
   9.205662e+05  -2.839001e+06
  -8.975578e+05  -2.229282e+06
  -2.060308e+06  -3.422188e+06
   4.798717e+05  -4.503586e+06
   5.499995e+06  -3.066931e+06
   7.994128e+06   6.638922e+05
   4.850299e+06   3.688020e+06
  -1.047278e+06   3.563539e+06
  -3.949437e+06   9.709621e+05
  -1.785061e+06  -1.455572e+06
   2.143527e+06  -1.817093e+06
   3.663576e+06   4.097087e+03
   2.023306e+06   2.685208e+06
  -5.660546e+05   3.993552e+06
  -1.893560e+06   2.313661e+06
  -1.391952e+06  -1.069915e+06
  -1.239538e+04  -2.422373e+06
   5.936326e+05   1.507356e+04
  -5.032633e+05   3.051683e+06
  -2.180773e+06   2.239764e+06
  -2.056483e+06  -1.906296e+06
   6.094000e+05  -4.062726e+06
   3.397175e+06  -1.037762e+06
   3.072429e+06   3.917872e+06
  -7.166196e+05   5.216601e+06
  -4.795080e+06   1.611346e+06
  -5.520603e+06  -3.046358e+06
  -2.158966e+06  -4.673289e+06
   2.528924e+06  -2.706134e+06
   4.683521e+06   5.396506e+05
   2.699667e+06   2.448037e+06
  -1.249840e+06   1.885619e+06
  -3.257058e+06  -2.218451e+05
  -1.706238e+06  -1.653292e+06
   1.064517e+06  -1.021589e+06
   1.664860e+06   6.655389e+05
  -2.680783e+05   1.215164e+06
  -1.868940e+06  -3.944113e+04
  -7.888972e+05  -1.558132e+06
   1.991268e+06  -1.599423e+06
   3.474489e+06   3.141343e+04
   1.947548e+06   2.295565e+06
  -1.557922e+06   3.879801e+06
  -4.509385e+06   3.561890e+06
  -5.000635e+06   8.684893e+05
  -3.046720e+06  -2.841411e+06
  -3.905303e+05  -4.908008e+06
   1.063390e+06  -4.028467e+06
   9.764225e+05  -1.823493e+06
   6.587244e+05  -7.774561e+05
   1.299535e+06  -1.109425e+06
   2.476815e+06  -8.929242e+05
   2.754750e+06   8.746926e+05
   1.437834e+06   2.671613e+06
  -6.868746e+05   2.391434e+06
  -2.118151e+06  -8.070143e+03
  -1.778664e+06  -2.446584e+06
   2.664384e+05  -2.881361e+06
   2.648423e+06  -1.063485e+06
   3.485656e+06   1.530924e+06
   2.061458e+06   3.074972e+06
  -2.709209e+05   2.852315e+06
  -1.498809e+06   1.687748e+06
  -1.313790e+06   9.202228e+05
  -1.318891e+06   9.043225e+05
  -2.614769e+06   7.346103e+05
  -3.994074e+06  -4.946790e+05
  -3.287189e+06  -2.479338e+06
  -1.627704e+05  -3.916865e+06
   3.180022e+06  -3.681617e+06
   4.194236e+06  -1.721535e+06
   2.439523e+06   8.250727e+05
  -1.966261e+05   2.265130e+06
  -1.402539e+06   1.642818e+06
  -4.944860e+05  -1.837915e+05
   1.175978e+06  -1.171550e+06
   1.723463e+06  -3.180430e+05
   6.735959e+05   1.085508e+06
  -6.418738e+05   1.080778e+06
  -6.676810e+05  -3.287729e+05
   6.237833e+05  -1.073122e+06
   1.772905e+06   3.092100e+05
   1.419226e+06   2.712163e+06
  -4.490097e+05   3.679139e+06
  -2.632638e+06   2.106127e+06
  -3.679435e+06  -7.728254e+05
  -2.830929e+06  -2.806325e+06
  -6.168553e+05  -2.849735e+06
   1.336991e+06  -1.449830e+06
   1.617762e+06  -1.146093e+05
   4.803473e+05   4.990272e+04
  -3.547116e+05  -7.194211e+05
   3.029769e+05  -1.190279e+06
   1.646699e+06  -5.427710e+05
   1.873521e+06   6.801249e+05
   4.697584e+05   1.229801e+06
  -1.082420e+06   6.116470e+05
  -1.012857e+06  -4.198780e+05
   7.139453e+05  -7.539377e+05
   2.331469e+06   6.586062e+03
   2.079936e+06   1.319553e+06
  -5.138882e+04   2.179346e+06
  -2.293207e+06   1.808920e+06
  -2.744008e+06   3.201490e+05
  -1.160776e+06  -1.141705e+06
   8.255633e+05  -1.307210e+06
   1.339166e+06  -1.447646e+05
   9.972819e+04   9.517882e+05
  -1.435748e+06   6.757088e+05
  -1.683509e+06  -6.780664e+05
  -4.847087e+05  -1.588962e+06
   9.309747e+05  -1.112748e+06
   1.273320e+06   1.059997e+05
   3.881687e+05   6.945512e+05
  -6.737052e+05   8.467203e+04
  -6.666622e+05  -9.939549e+05
   6.074536e+05  -1.345479e+06
   1.964678e+06  -4.557390e+05
   1.938489e+06   1.059650e+06
   3.613634e+05   1.989745e+06
  -1.344160e+06   1.589390e+06
  -1.655407e+06   2.634707e+05
  -5.560674e+05  -8.118532e+05
   6.047249e+05  -8.253316e+05
   7.094076e+05  -6.542858e+04
  -3.780768e+04   5.144827e+05
  -6.115717e+05   3.710780e+05
  -3.864902e+05  -1.111829e+05
   2.999600e+05  -1.562808e+05
   5.839619e+05   4.688195e+05
  -7.056527e+04   1.123095e+06
  -1.299092e+06   9.042984e+05
  -2.024024e+06  -3.851541e+05
  -1.409197e+06  -1.888902e+06
   2.265028e+05  -2.400215e+06
   1.609150e+06  -1.499082e+06
   1.780547e+06   3.516259e+04
   1.025043e+06   1.000915e+06
   3.646909e+05   9.280166e+05
   3.137564e+05   3.933444e+05
   4.312870e+05   2.412097e+05
   5.899352e+04   6.292389e+05
  -8.038962e+05   9.098695e+05
  -1.454682e+06   4.070410e+05
  -1.156120e+06  -7.471216e+05
   1.662102e+05  -1.579743e+06
   1.708220e+06  -1.151279e+06
   2.261268e+06   4.526018e+05
   1.191535e+06   2.030922e+06
  -8.581107e+05   2.302288e+06
  -2.388789e+06   1.101508e+06
  -2.372136e+06  -5.036904e+05
  -1.142733e+06  -1.310000e+06
   9.289709e+04  -1.106590e+06
   5.123215e+05  -6.628514e+05
   3.122039e+05  -7.144322e+05
   2.210197e+05  -1.135381e+06
   6.226858e+05  -1.151023e+06
   1.194818e+06  -2.702484e+05
   1.269232e+06   1.081054e+06
   5.149629e+05   1.869367e+06
  -6.393859e+05   1.405213e+06
  -1.275518e+06   2.070190e+04
  -8.307699e+05  -1.193579e+06
   2.782341e+05  -1.355546e+06
   1.012878e+06  -5.253774e+05
   7.767904e+05   4.831815e+05
   1.576304e+04   9.399703e+05
  -3.512907e+05   7.895361e+05
  -1.334709e+04   4.806324e+05
   3.884311e+05   3.719402e+05
   3.338082e+04   3.926114e+05
  -1.065144e+06   2.221830e+05
  -1.932310e+06  -3.009855e+05
  -1.577376e+06  -9.638472e+05
  -6.501603e+04  -1.322624e+06
   1.434007e+06  -1.071907e+06
   1.750795e+06  -3.427385e+05
   8.565965e+05   3.423178e+05
  -2.004651e+05   4.878379e+05
  -4.629286e+05   9.009207e+04
   1.779344e+04  -3.253588e+05
   4.845963e+05  -2.233487e+05
   4.523847e+05   3.429097e+05
   1.338974e+05   7.421381e+05
  -1.121768e+04   4.776391e+05
   1.489747e+05  -1.659365e+05
   3.600547e+05  -3.756809e+05
   2.879745e+05   2.185726e+05
  -2.013544e+05   1.002870e+06
  -8.853947e+05   1.017608e+06
  -1.210491e+06   9.002657e+04
  -7.022954e+05  -9.076770e+05
   4.164983e+05  -1.014320e+06
   1.164588e+06  -2.175053e+05
   6.987550e+05   6.041555e+05
  -6.682729e+05   6.539871e+05
  -1.610392e+06  -4.730750e+04
  -1.126039e+06  -8.309363e+05
   3.808217e+05  -1.060359e+06
   1.510885e+06  -6.103946e+05
   1.311320e+06   1.197286e+05
   1.833855e+05   5.339357e+05
  -6.301171e+05   3.118926e+05
  -3.426994e+05  -2.588367e+05
   6.297312e+05  -4.578217e+05
   1.154640e+06   1.688822e+05
   5.553128e+05   1.211054e+06
  -7.110382e+05   1.633905e+06
  -1.529010e+06   7.878327e+05
  -1.229027e+06  -8.040711e+05
  -1.651121e+05  -1.803299e+06
   7.527954e+05  -1.331419e+06
   9.374276e+05   1.218380e+05
   4.829944e+05   1.181315e+06
  -1.442693e+05   1.010618e+06
  -5.344259e+05   1.142109e+05
  -5.209554e+05  -3.958037e+05
  -2.292332e+05  -1.614200e+05
  -2.343597e+04   1.163031e+05
  -1.776860e+05  -2.477496e+05
  -4.599708e+05  -9.455738e+05
  -2.606449e+05  -1.091924e+06
   6.210660e+05  -4.020912e+05
   1.476434e+06   4.819195e+05
   1.342094e+06   8.483600e+05
   1.857933e+05   6.809137e+05
  -9.208804e+05   3.982073e+05
  -1.006981e+06   1.949854e+05
  -3.026990e+05  -1.625077e+04
   1.734278e+05  -2.153509e+05
  -3.919131e+04  -2.442925e+05
  -3.437988e+05  -1.436817e+05
  -1.579555e+04  -1.372532e+05
   7.485705e+05  -1.911020e+05
   1.027940e+06   5.310614e+04
   2.981707e+05   6.785887e+05
  -9.318915e+05   1.104294e+06
  -1.643787e+06   6.623528e+05
  -1.291828e+06  -4.972045e+05
  -2.158944e+05  -1.413715e+06
   7.636745e+05  -1.324473e+06
   1.048165e+06  -4.605467e+05
   6.565640e+05   2.867844e+05
   9.190933e+04   3.557603e+05
  -1.386044e+05   1.680394e+04
   5.614473e+04  -6.893748e+04
   3.284096e+05   3.468362e+05
   2.623062e+05   8.059491e+05
  -2.054540e+05   6.534036e+05
  -6.875914e+05  -1.843954e+05
  -6.691991e+05  -1.007117e+06
  -1.253384e+04  -1.015669e+06
   7.953874e+05  -1.595945e+05
   9.877606e+05   8.003397e+05
   2.765846e+05   1.082463e+06
  -7.312902e+05   6.038846e+05
  -1.071162e+06  -1.162291e+05
  -4.741878e+05  -5.671554e+05
   2.916918e+05  -6.006248e+05
   3.232724e+05  -3.424872e+05
  -3.100609e+05  -4.003518e+04
  -6.618035e+05   1.543121e+04
  -1.169245e+05  -2.953697e+05
   8.316641e+05  -6.663160e+05
   1.203949e+06  -5.611817e+05
   6.882509e+05   1.386251e+05
  -1.177917e+05   8.341359e+05
  -5.070409e+05   8.122435e+05
  -3.600911e+05   1.061003e+05
  -9.270992e+03  -5.023725e+05
   2.575852e+05  -3.917501e+05
   3.491397e+05   2.102375e+05
   2.312623e+05   5.795394e+05
  -7.569113e+04   3.697734e+05
  -3.839321e+05  -7.723816e+04
  -4.462558e+05  -2.472865e+05
  -2.383270e+05  -6.451535e+04
   2.540627e+03   1.040069e+05
   8.132042e+04  -4.872881e+04
   7.545165e+04  -3.866949e+05
   1.729751e+05  -4.799777e+05
   3.556853e+05  -1.050538e+05
   3.695808e+05   4.527202e+05
   4.031656e+04   6.532291e+05
  -4.400257e+05   2.746559e+05
  -6.140968e+05  -3.284639e+05
  -2.100345e+05  -5.964824e+05
   4.933828e+05  -3.434558e+05
   8.390748e+05   1.185647e+05
   4.499861e+05   3.855541e+05
  -2.990428e+05   3.478809e+05
  -6.223304e+05   1.605216e+05
  -2.040371e+05   4.299837e+03
   4.064893e+05  -1.413241e+04
   4.266403e+05   1.354115e+05
  -2.240897e+05   3.226080e+05
  -8.262632e+05   2.503878e+05
