
 $NMID
 id='ANONYMOUS ', fmtdat='(2E16.6)'
 volume=1.0
 tramp=1.0
 $END
  -1.026478e+03   4.440672e+02
  -8.055601e+02  -4.587618e+02
  -4.025216e+02  -7.848162e+02
   2.840398e+02  -6.754067e+02
   3.694433e+02  -2.465151e+02
   1.117254e+02   1.180607e+02
  -1.509671e+02   2.202995e+01
  -1.238055e+02  -1.892488e+02
   4.206028e+01  -2.757414e+02
   2.014245e+02  -1.163390e+02
   2.407505e+02   9.352148e+01
   1.231284e+02   2.181789e+02
  -4.336301e+01   1.247750e+02
  -1.534982e+02  -9.073176e+01
  -6.348370e+01  -2.025489e+02
   1.430024e+02  -1.086961e+02
   2.064899e+02   1.338330e+02
   4.799053e+01   2.715330e+02
  -1.374970e+02   2.020881e+02
  -1.974689e+02   1.534153e+01
  -1.051958e+02  -1.186121e+02
  -1.563844e+01  -1.135162e+02
  -1.660658e+01  -6.157590e+01
  -7.261164e+01  -5.312714e+01
  -7.649050e+01  -8.610093e+01
  -5.571849e+00  -9.201098e+01
   1.347045e+02  -6.708776e+01
   1.997175e+02   1.611017e+01
   1.163502e+02   7.798513e+01
  -5.855045e+01   9.354078e+01
  -1.718241e+02   2.255195e+01
  -1.278253e+02  -8.641179e+01
   2.071080e+01  -1.528915e+02
   1.174749e+02  -1.145029e+02
   1.304001e+02  -6.858350e+00
   8.457614e+01   8.790536e+01
   3.337615e+01   7.479054e+01
   1.874409e+01  -5.944148e+00
   2.829560e+01  -5.505594e+01
   5.463454e+01   1.004350e+01
   6.151039e+01   1.452321e+02
   3.598343e+00   1.861036e+02
  -9.144728e+01   8.778807e+01
  -1.072318e+02  -5.829375e+01
  -1.355818e+00  -7.493526e+01
   7.317881e+01   4.511933e+01
   3.347211e+01   1.329870e+02
  -1.383403e+02   8.210438e+01
  -2.298156e+02  -5.324966e+01
  -1.360038e+02  -1.429981e+02
   5.421488e+01  -1.370639e+02
   1.810663e+02  -6.161198e+01
   1.738830e+02   2.919574e+01
   3.830944e+01   8.329272e+01
  -8.854100e+01   8.836281e+01
  -1.213344e+02   3.867572e+01
  -4.066206e+01  -2.180398e+01
   2.758495e+01  -2.287936e+01
  -2.331103e+00   1.696554e+01
  -8.163985e+01   2.004615e+01
  -7.530202e+01  -4.130967e+01
   2.224281e+01  -1.138273e+02
   1.209894e+02  -9.995646e+01
   1.132801e+02   1.183806e+01
   5.290323e+00   1.349892e+02
  -8.348355e+01   1.551531e+02
  -1.032185e+02   8.734474e+01
  -9.294140e+01  -2.156615e+01
  -7.450324e+01  -9.932780e+01
  -5.822329e+01  -1.082759e+02
  -2.598439e+01  -8.056681e+01
   5.147336e+00  -5.910583e+01
   5.096786e+01  -5.418320e+01
   7.989637e+01  -3.555547e+01
   8.990831e+01   1.292183e+01
   6.659009e+01   7.206748e+01
  -1.295110e+00   7.288478e+01
  -6.236385e+01   1.482762e+01
  -7.320959e+01  -6.657817e+01
  -1.196985e+01  -9.113794e+01
   7.894923e+01  -4.481150e+01
   1.285454e+02   2.403122e+01
   9.911134e+01   8.410010e+01
   2.591621e+01   1.074644e+02
  -3.455011e+01   9.153537e+01
  -5.517454e+01   6.619166e+01
  -6.402055e+01   4.687904e+01
  -1.101222e+02   4.086514e+01
  -1.699566e+02   6.422236e+00
  -1.600059e+02  -6.930840e+01
  -5.260945e+01  -1.649287e+02
   8.456115e+01  -1.970737e+02
   1.455958e+02  -1.246102e+02
   1.090569e+02  -1.338824e+01
   3.963627e+01   7.334829e+01
   6.016021e+00   7.844272e+01
   1.597955e+01   2.461003e+01
   3.586076e+01  -1.502279e+01
   3.840361e+01  -5.900507e+00
   2.017747e+01   4.226201e+01
  -2.264853e+01   5.545658e+01
  -4.596456e+01   3.827089e+00
  -1.446050e+01  -4.547064e+01
   4.809214e+01  -2.182158e+01
   8.501560e+01   6.267489e+01
   4.275670e+01   1.281408e+02
  -6.982816e+01   1.040824e+02
  -1.458311e+02   9.788191e+00
  -1.453398e+02  -7.727583e+01
  -5.602027e+01  -1.087775e+02
   4.165658e+01  -7.230547e+01
   6.556517e+01  -2.035661e+01
   2.667810e+01   7.909232e-01
  -1.656626e+01  -1.266412e+01
  -6.319007e+00  -3.436467e+01
   3.097142e+01  -2.911210e+01
   4.532836e+01  -9.808806e+00
   1.070789e+01   8.391804e+00
  -2.778783e+01  -5.398426e+00
  -1.734611e+01  -3.136142e+01
   4.786055e+01  -4.713892e+01
   1.098703e+02  -2.236575e+01
   1.096048e+02   3.352821e+01
   3.895562e+01   8.720808e+01
  -4.164192e+01   1.011349e+02
  -8.386097e+01   6.497412e+01
  -5.778664e+01   5.686635e+00
  -6.370090e-01  -2.333298e+01
   2.123970e+01  -2.571732e+00
  -6.539571e+00   3.317125e+01
  -6.251367e+01   2.940485e+01
  -8.128954e+01  -1.531631e+01
  -4.498344e+01  -5.775329e+01
   1.319703e+01  -5.620170e+01
   3.841439e+01  -2.360915e+01
   1.635785e+01   2.283316e+00
  -1.659386e+01  -9.830239e+00
  -1.487110e+01  -3.950047e+01
   3.429739e+01  -4.477366e+01
   7.818082e+01  -2.217765e+01
   7.938265e+01   3.041083e+01
   2.678560e+01   7.520315e+01
  -4.181169e+01   7.516713e+01
  -6.219625e+01   2.884961e+01
  -3.172293e+01  -2.317411e+01
   9.592128e+00  -3.984607e+01
   1.686406e+01  -1.795161e+01
  -2.890583e+00   4.289911e+00
  -1.398295e+01   1.531182e+00
   8.009489e+00  -1.556976e+01
   4.396483e+01  -6.211823e+00
   5.233595e+01   3.058195e+01
   1.878308e+01   7.040559e+01
  -4.347012e+01   7.186091e+01
  -8.875549e+01   1.857668e+01
  -8.127794e+01  -4.074314e+01
  -3.613797e+01  -7.583784e+01
   1.679136e+01  -6.616336e+01
   4.156449e+01  -2.321628e+01
   3.131770e+01   7.876533e+00
   1.463965e+01   4.110328e+00
   1.772485e+01  -1.729146e+01
   3.369837e+01  -1.449680e+01
   2.977122e+01   1.954661e+01
  -1.721830e+00   4.740064e+01
  -4.355524e+01   3.893312e+01
  -4.672066e+01  -1.087253e+01
  -1.409113e+00  -5.257343e+01
   6.130813e+01  -4.682955e+01
   8.809206e+01   1.069652e+01
   5.147640e+01   7.641059e+01
  -3.382939e+01   9.370182e+01
  -1.003555e+02   5.253026e+01
  -1.042031e+02  -8.756997e+00
  -5.261086e+01  -4.793467e+01
   2.041803e+00  -5.393723e+01
   2.596194e+01  -4.089725e+01
   1.718632e+01  -3.570456e+01
   9.320386e+00  -4.547085e+01
   2.618769e+01  -3.925358e+01
   5.149468e+01  -8.711348e+00
   6.425367e+01   4.302173e+01
   3.425783e+01   7.834103e+01
  -1.671851e+01   6.952268e+01
  -5.831054e+01   2.051346e+01
  -5.450814e+01  -3.566265e+01
  -1.579995e+01  -5.530556e+01
   1.883176e+01  -3.480290e+01
   2.280423e+01   1.331966e+00
   1.961254e+00   2.048242e+01
  -5.940497e+00   1.441285e+01
   1.343960e+01   2.277942e+00
   3.598089e+01   1.881949e+00
   1.913446e+01   1.350261e+01
  -2.860029e+01   2.119760e+01
  -6.750673e+01   1.380800e+01
  -5.622817e+01  -1.293887e+01
  -5.835259e+00  -3.531449e+01
   4.267502e+01  -3.672705e+01
   5.080896e+01  -1.671147e+01
   1.892583e+01   1.146822e+01
  -1.726312e+01   1.752229e+01
  -2.968805e+01  -4.717880e-01
  -1.428617e+01  -2.706980e+01
   9.926556e+00  -3.061465e+01
   2.583248e+01  -7.058252e+00
   2.745159e+01   1.312426e+01
   2.417901e+01   8.933801e+00
   2.155857e+01  -8.727445e+00
   2.434678e+01  -6.365853e+00
   2.540215e+01   2.609571e+01
   4.262102e+00   6.104368e+01
  -3.299882e+01   6.469172e+01
  -6.392040e+01   2.816005e+01
  -5.349231e+01  -2.102839e+01
  -1.074768e+01  -4.648334e+01
   3.415228e+01  -3.196112e+01
   2.286057e+01  -8.667694e-01
  -2.450338e+01   1.459209e+01
  -6.116692e+01   1.360727e+00
  -4.063794e+01  -3.116104e+01
   2.087182e+01  -4.981414e+01
   6.490908e+01  -3.788617e+01
   5.776721e+01  -2.918097e+00
   2.148544e+01   2.438488e+01
  -1.070189e+01   2.677804e+01
  -1.254940e+01   5.970163e+00
   1.316083e+01  -9.582142e+00
   3.533549e+01   3.883037e-01
   2.694949e+01   3.994226e+01
  -9.894050e+00   6.679697e+01
  -4.956626e+01   4.400536e+01
  -5.786277e+01  -1.591941e+01
  -3.050370e+01  -6.711065e+01
   1.323815e+01  -6.002615e+01
   3.754136e+01  -5.629094e+00
   3.051048e+01   3.653147e+01
   5.054927e+00   3.555879e+01
  -1.712055e+01   7.305177e+00
  -1.917714e+01  -5.264965e+00
  -7.128679e+00  -9.236596e-02
  -2.928396e-01   6.569778e+00
  -1.318629e+01  -7.404161e+00
  -2.988953e+01  -2.938427e+01
  -2.304641e+01  -3.454539e+01
   1.573822e+01  -1.945703e+01
   5.420643e+01  -1.279153e+00
   5.213717e+01   1.179318e+01
   1.068662e+01   1.748192e+01
  -2.549830e+01   1.995877e+01
  -2.926203e+01   1.082358e+01
  -6.129207e+00  -2.056095e+00
   8.941341e+00  -1.113802e+01
   3.045351e+00  -5.313630e+00
  -6.718957e+00   3.823367e+00
   2.211716e+00   3.979941e-01
   2.471207e+01  -1.081933e+01
   3.602649e+01  -4.162263e+00
   1.804627e+01   2.918314e+01
  -2.319745e+01   6.043395e+01
  -6.032866e+01   4.846656e+01
  -6.480517e+01   1.617112e-01
  -3.273344e+01  -5.341411e+01
   8.511954e+00  -6.713999e+01
   3.637593e+01  -3.946774e+01
   3.409276e+01  -1.937180e+00
   1.376588e+01   1.261070e+01
   2.354089e+00   5.104264e+00
   4.738369e+00   2.231063e+00
   1.622573e+01   1.344351e+01
   1.909543e+01   3.133059e+01
  -4.394529e-01   3.096285e+01
  -3.155568e+01   5.491420e+00
  -4.453056e+01  -2.794696e+01
  -2.019749e+01  -4.102783e+01
   2.374213e+01  -2.296176e+01
   4.927931e+01   1.267242e+01
   2.844423e+01   3.488540e+01
  -1.649594e+01   3.196884e+01
  -4.049774e+01   7.979078e+00
  -2.301879e+01  -1.870403e+01
   7.101849e+00  -2.741012e+01
   1.306089e+01  -1.322171e+01
  -8.327326e+00   6.593984e+00
  -2.452635e+01   1.135247e+01
  -9.686843e+00  -8.420969e+00
   2.296608e+01  -3.427996e+01
   3.742089e+01  -3.270944e+01
   2.743344e+01  -6.756137e-01
   5.482703e+00   3.542998e+01
  -1.285678e+01   3.964888e+01
  -1.856502e+01   9.967257e+00
  -1.160558e+01  -1.855451e+01
   2.696392e+00  -2.251801e+01
   1.744662e+01  -2.465553e+00
   1.727138e+01   1.672077e+01
   3.028509e+00   1.618479e+01
  -1.394798e+01   2.219604e+00
  -1.643515e+01  -5.547340e+00
  -5.103804e+00  -2.509218e-01
   3.599152e+00   7.727454e+00
   7.534060e-01   4.604109e+00
  -7.236541e+00  -1.113739e+01
  -6.294192e+00  -2.226581e+01
   9.651089e+00  -1.574719e+01
   2.306395e+01   6.721998e+00
   1.462225e+01   2.386038e+01
  -1.257501e+01   1.716336e+01
  -2.961914e+01  -3.841884e+00
  -1.438793e+01  -2.042636e+01
   1.754074e+01  -1.994421e+01
   3.691926e+01  -4.651857e+00
   2.200439e+01   1.147021e+01
  -8.341731e+00   2.092061e+01
  -2.369095e+01   1.869329e+01
  -1.224758e+01   5.146405e+00
   8.710731e+00  -7.402928e+00
   1.458536e+01  -5.504596e+00
  -2.878637e+00   1.204145e+01
  -2.472685e+01   1.978486e+01
