
 $NMID
 id='ANONYMOUS ', fmtdat='(2E16.6)'
 volume=1.0
 tramp=1.0
 $END
   2.536328e+02  -4.287893e+02
   2.122494e+02   2.255391e+02
   3.100062e+02   2.849955e+02
  -3.487776e+01   3.004431e+02
  -1.583106e+02   9.840325e+01
  -6.079103e+01  -1.057534e+02
   1.109015e+02  -6.326382e+01
   1.364661e+02   4.248552e+01
   5.495502e+01   1.132476e+02
  -6.604310e+01   7.332128e+01
  -1.200544e+02   3.833798e+00
  -8.796528e+01  -6.575993e+01
   1.355665e+00  -6.101526e+01
   9.029616e+01   1.344281e+01
   6.603950e+01   7.047805e+01
  -3.596374e+01   6.660981e+01
  -8.861146e+01  -1.707958e+01
  -4.544221e+01  -8.933925e+01
   2.248415e+01  -9.378728e+01
   6.541436e+01  -3.886387e+01
   5.292542e+01   2.459556e+01
   3.786221e+01   6.174505e+01
   6.549887e+00   5.179196e+01
  -1.632341e+01   5.370128e+00
  -1.110695e+00  -3.660426e+01
   3.899564e+01  -2.173632e+01
   2.004422e+01   4.124641e+01
  -4.142775e+01   8.228825e+01
  -9.149128e+01   3.508743e+01
  -5.445293e+01  -6.213567e+01
   3.647416e+01  -8.782019e+01
   8.754690e+01  -3.201721e+01
   6.237399e+01   4.785635e+01
   7.220713e+00   7.509906e+01
  -4.468542e+01   5.365659e+01
  -6.604182e+01  -8.599929e+00
  -2.737149e+01  -4.585869e+01
   2.916701e+01  -2.510745e+01
   3.846277e+01   4.141312e+01
  -1.663110e+01   6.403402e+01
  -9.336891e+01  -1.000182e+01
  -7.516257e+01  -9.351618e+01
   1.060892e+01  -9.600286e+01
   7.778010e+01  -1.119041e+01
   3.109182e+01   5.352265e+01
  -5.012904e+01   1.802306e+01
  -6.540575e+01  -3.577650e+01
   1.943370e+01  -6.184456e+01
   9.459062e+01  -4.673325e+01
   8.236416e+01   6.456446e+00
   1.937724e+01   5.087497e+01
  -3.972014e+01   7.188994e+01
  -7.555730e+01   2.682497e+01
  -3.986598e+01  -3.603729e+01
   2.477914e+01  -6.368140e+01
   6.245871e+01  -2.442142e+01
   2.149019e+01   2.750312e+01
  -3.189522e+01   2.369992e+01
  -1.742286e+01  -2.370308e+01
   3.918092e+01  -3.658256e+01
   4.719511e+01  -4.016849e+00
   7.534004e+00   3.724462e+01
  -2.219486e+01   3.442651e+01
  -6.595295e+00   2.126996e+01
   8.874204e-01  -7.872095e+00
  -1.281456e+01  -2.052436e+01
  -1.883928e+01  -3.946225e+01
   1.296668e+01  -3.253617e+01
   4.812493e+01  -1.083225e+00
   4.650896e+01   3.236636e+01
   7.702771e+00   2.945586e+01
  -6.582818e+00   5.374899e+00
   1.726852e+00  -3.329111e+00
   1.164412e+01   1.132135e+01
  -5.365026e+00   2.944389e+01
  -4.027678e+01   1.603305e+01
  -3.281446e+01  -1.271164e+01
   2.046090e+00  -2.760329e+01
   3.068054e+01  -1.166922e+01
   2.683400e+01   1.377274e+01
   9.287323e-01   3.362186e+01
  -3.250768e+01   3.015161e+01
  -4.391255e+01  -2.141472e+00
  -3.487638e+01  -3.086395e+01
  -8.919357e-02  -3.813015e+01
   1.877979e+01  -1.847423e+01
   1.487421e+01  -4.891900e+00
   8.910569e+00  -1.789417e+01
   2.981973e+01  -3.715864e+01
   5.011842e+01  -2.231975e+01
   4.285574e+01   2.512667e+01
   2.158832e+01   6.446633e+01
  -1.210204e+00   5.920883e+01
  -1.839076e+01   4.242906e+01
  -2.815314e+01   3.245707e+00
  -2.655733e+01  -2.122462e+01
  -1.336604e+01  -1.671708e+01
  -2.600875e+00   6.718135e+00
  -7.465806e+00   2.274962e+01
  -1.907396e+01  -3.836749e+00
  -2.041869e+00  -2.659678e+01
   2.002611e+01  -1.791784e+01
   2.154194e+01   1.251664e+01
  -7.820872e+00   2.253312e+01
  -3.774796e+01  -1.328336e+00
  -3.812363e+01  -2.665606e+01
  -7.853568e-01  -3.564004e+01
   3.239706e+01  -1.335896e+01
   5.390298e+01  -1.055331e+00
   3.435758e+01   1.704132e+01
   1.308106e+00   2.528323e+01
  -2.322581e+01   2.172670e+01
  -2.301226e+01   2.097775e+00
  -4.419242e+00  -9.622324e+00
   8.408048e+00  -4.518918e+00
   5.793324e+00   9.183682e+00
  -2.353302e+00   1.874793e+01
  -4.095587e+00   1.013189e+01
   9.552271e-01  -2.352873e+00
   6.283102e+00  -3.169401e+00
  -1.782894e+00   1.122034e+01
  -1.467749e+01   2.156361e+01
  -2.651517e+01   1.729602e+01
  -2.691071e+01   1.238667e+00
  -1.898913e+01  -1.856662e+01
  -2.459136e-01  -3.599553e+01
   1.683155e+01  -2.363404e+01
   9.231112e+00  -3.879339e-01
  -3.796704e+00   8.028778e+00
  -9.016301e+00  -4.329550e+00
   9.337885e+00  -1.770881e+01
   2.735562e+01  -1.643848e+01
   2.550615e+01   1.295171e+00
   1.013334e+01   1.568110e+01
  -1.867898e+00   1.884781e+01
  -4.213790e+00   1.227672e+01
  -1.563451e+00   4.914438e+00
   1.652782e+00  -3.145865e-01
  -5.003364e+00  -3.344628e+00
  -1.002884e+01   8.679732e+00
  -1.648924e+01   9.651341e+00
  -1.517876e+01  -6.535943e+00
  -1.291378e+00  -2.353284e+01
   1.246543e+01  -2.236811e+01
   1.386900e+01  -4.370695e+00
   9.201322e+00   1.100892e+01
   4.239851e+00   1.147180e+01
   1.981075e+00   3.803642e+00
  -1.985611e+00   1.693992e+00
  -5.484437e+00   2.023891e+00
  -9.840890e+00   3.336117e-01
  -1.017513e+01  -3.054473e+00
  -1.125998e+01  -7.164585e+00
  -4.092606e+00  -1.437758e+01
   1.418069e+01  -1.699750e+01
   1.895586e+01  -7.893710e+00
   1.808673e+01   3.742334e+00
   1.129510e+01   1.637304e+01
  -9.584745e-01   1.247348e+01
  -6.539393e+00   4.388691e+00
  -6.935674e+00   2.802971e+00
  -5.083122e+00   7.323025e+00
  -5.047909e+00   7.706479e+00
  -3.293851e+00  -6.395309e-02
  -9.293108e-01  -4.981816e+00
   1.224476e+00  -9.892798e+00
   2.626505e+00  -3.704759e+00
   2.155197e+00   3.949610e+00
  -4.116981e+00   1.017228e+01
  -1.172212e+01   1.019152e+01
  -1.759755e+01  -2.277437e+00
  -5.487503e+00  -1.574079e+01
   9.251985e+00  -1.966364e+01
   1.847717e+01  -1.598637e+01
   1.744653e+01  -4.838271e+00
   7.867603e+00   9.100443e+00
   1.330251e+00   1.296118e+01
   8.131182e-02   1.095159e+01
   6.168037e+00   1.089006e+01
   3.771391e+00   9.326014e+00
  -4.538477e+00   1.236697e+01
  -1.911967e+01   5.346861e+00
  -2.306806e+01  -6.366299e+00
  -1.357059e+01  -1.714367e+01
   3.438927e+00  -1.674857e+01
   1.237575e+01  -5.028481e+00
   1.260287e+01   6.102489e+00
   8.376541e+00   9.090553e+00
   1.451306e+00   4.941963e+00
  -9.268242e-01   7.145339e-01
  -3.846231e+00  -1.503114e-01
  -6.752922e+00   2.022716e+00
  -8.656797e+00   2.933771e+00
  -4.555603e+00   2.232828e+00
   2.783948e+00  -1.254937e+00
   1.178160e+01  -9.033011e+00
   1.009186e+01  -8.506833e+00
   4.235300e+00  -1.709079e+00
  -4.333446e+00   9.792201e+00
  -7.818915e+00   1.197656e+01
  -4.991988e+00   5.272839e+00
  -6.352613e-01  -3.731430e+00
   2.981461e+00  -5.262933e+00
   2.921052e+00   3.244388e+00
   3.344224e+00   8.566872e+00
  -9.751068e-01   3.693850e+00
  -5.289890e+00  -9.283351e-01
  -8.807614e+00   2.725014e+00
  -5.893838e+00   1.109851e+01
  -5.538542e+00   1.020473e+01
  -7.008107e+00   1.456010e+00
  -8.448425e+00  -9.643393e+00
  -5.947191e+00  -1.573174e+01
   4.142542e+00  -1.483946e+01
   9.303253e+00  -6.358597e+00
   9.012867e+00   4.938430e+00
  -3.668446e+00   1.067573e+01
  -2.814955e+00   3.897550e+00
   5.372207e+00  -3.668958e+00
   1.597245e+01  -5.610503e+00
   1.485427e+01   1.578364e-01
   3.707040e+00   1.193452e+01
  -5.707745e+00   2.146456e+01
  -9.841875e+00   1.535466e+01
  -1.028917e+01   2.431660e+00
  -7.214493e+00  -8.851188e+00
  -2.656354e-01  -8.000030e+00
  -1.539497e+00  -5.273346e-01
  -5.843515e+00   6.423124e+00
  -1.073604e+01  -4.271606e+00
  -6.742977e+00  -1.976395e+01
   5.962509e+00  -2.155372e+01
   1.607266e+01  -7.263585e+00
   1.797695e+01   1.150018e+01
   7.347105e+00   1.737837e+01
  -4.724868e+00   9.197794e+00
  -1.191950e+01   1.560094e-01
  -1.111030e+01  -3.554509e+00
  -7.207574e-01  -3.476357e+00
   5.277047e+00  -4.953368e+00
   2.892159e+00  -3.570726e+00
  -2.259318e+00  -1.745577e+00
   5.356911e-02   1.310496e+00
   1.104288e+01   5.558421e-01
   1.608880e+01   1.706049e+00
   4.709006e+00   3.608720e+00
  -1.383964e+01   1.111762e+01
  -1.685685e+01   8.873973e+00
  -3.595012e+00  -2.470073e-02
   5.060449e+00  -1.114019e+01
   5.438511e+00  -1.187343e+01
  -7.044936e-01  -2.259783e+00
  -1.107067e+00   4.456792e+00
   3.094051e+00   3.469938e+00
   4.736885e+00  -2.312431e+00
  -2.076435e+00  -8.128367e-01
  -7.949928e+00   6.386422e+00
  -8.139180e+00   7.884367e+00
  -5.825322e+00  -5.231558e+00
  -2.171280e+00  -1.951199e+01
   7.768140e+00  -2.087509e+01
   1.645832e+01  -1.147052e+01
   1.561349e+01   6.154874e+00
   8.235722e+00   1.490961e+01
  -4.802637e+00   1.368389e+01
  -8.297297e+00   5.033689e+00
  -2.547801e+00  -5.484930e-01
   8.469252e-01  -1.689981e+00
   1.032853e+00  -2.444725e+00
  -3.166273e+00  -5.975500e-01
  -8.496827e+00  -3.095504e+00
  -5.054047e+00  -5.935452e+00
   7.350590e+00  -6.424521e+00
   1.613136e+01   4.334272e-01
   1.154428e+01   7.560162e+00
  -1.922297e+00   8.859797e+00
  -1.332862e+01   2.981933e+00
  -1.081095e+01  -2.862999e+00
  -4.264927e-01  -6.425162e+00
   5.561425e+00  -5.952139e+00
   5.042495e+00  -9.303257e-01
   1.690775e+00   5.358320e+00
   8.200081e-01   4.234851e+00
   1.419660e+00  -2.121579e+00
   2.608140e+00  -7.142923e+00
   1.305261e+00  -2.281874e+00
  -2.569528e+00   8.100745e+00
  -5.080914e-01   1.228419e+01
  -8.219157e-01   5.114737e+00
  -5.004847e+00  -5.788976e+00
  -4.071162e+00  -8.530188e+00
   2.987671e+00  -3.232576e+00
   6.356960e+00   2.871289e+00
   3.436742e+00   5.545800e+00
  -3.992610e+00   3.979530e+00
  -6.455692e+00   2.053047e+00
  -4.242221e+00   1.698247e-01
  -1.091743e-01  -1.905860e+00
   1.100967e+00  -4.323534e+00
  -3.916920e-01  -4.461148e+00
   3.609468e-02  -2.838085e+00
   1.551210e+00  -4.181948e-01
   1.623898e+00   2.963964e+00
   1.929265e+00   4.467765e+00
  -2.245980e+00   3.626585e+00
  -6.761047e+00  -1.883513e+00
  -5.538063e+00  -6.402011e+00
   2.520414e+00  -4.862169e+00
   7.836579e+00  -5.750724e-02
   4.780898e+00   3.246515e+00
  -2.106348e+00   3.563649e+00
  -7.572390e+00   1.424551e+00
  -3.662856e+00  -3.581635e-01
   1.199828e+00  -3.886017e+00
   4.629091e+00  -5.354687e+00
   2.423887e+00  -1.052908e+00
  -2.559883e+00   4.813306e+00
  -5.413141e+00   3.716500e+00
  -1.980103e+00  -5.891308e+00
   3.981851e+00  -1.125497e+01
