
 $NMID
 id='ANONYMOUS ', fmtdat='(2E16.6)'
 volume=1.0
 tramp=1.0
 $END
   2.538965e+03  -2.420711e+02
   1.879614e+03   1.242022e+03
   4.572618e+02   1.734109e+03
  -8.650775e+02   1.349276e+03
  -9.907468e+02   5.540162e+02
  -3.492530e+02  -8.623518e+01
   1.913277e+02  -1.076136e+02
   1.644056e+02   3.204993e+02
  -2.548130e+02   5.576784e+02
  -5.752204e+02   2.406350e+02
  -4.620325e+02  -3.476501e+02
  -1.247130e+02  -5.881364e+02
   1.942307e+02  -2.504515e+02
   1.944984e+02   2.774689e+02
  -4.306850e+01   4.620379e+02
  -3.347867e+02   1.302239e+02
  -3.294082e+02  -3.871178e+02
   1.358187e+01  -6.202091e+02
   4.004875e+02  -3.728877e+02
   4.765982e+02   8.156696e+01
   2.042524e+02   3.173254e+02
  -6.788528e+01   2.284614e+02
  -2.665846e+01   8.177785e+01
   1.866942e+02   1.475437e+02
   2.286215e+02   3.270349e+02
  -6.380363e+01   3.412598e+02
  -4.509114e+02   8.436247e+01
  -5.115280e+02  -2.010414e+02
  -1.655958e+02  -2.837411e+02
   2.683771e+02  -1.158242e+02
   3.979632e+02   1.457051e+02
   1.415271e+02   3.088487e+02
  -2.341666e+02   2.999213e+02
  -4.020703e+02   1.195451e+02
  -2.858336e+02  -1.300688e+02
  -8.294266e+01  -2.637613e+02
  -1.796685e+01  -1.618317e+02
  -1.038339e+02   4.576359e+01
  -2.068976e+02   6.279135e+01
  -1.188295e+02  -1.896543e+02
   8.452630e+01  -4.282009e+02
   2.469325e+02  -3.413695e+02
   2.163889e+02   1.250597e+01
   5.427006e+01   2.279085e+02
  -9.403642e+01   7.064860e+01
  -8.644938e+01  -2.550266e+02
   1.170464e+02  -3.182277e+02
   3.817686e+02  -1.899226e+01
   4.360466e+02   3.479003e+02
   1.635773e+02   4.675755e+02
  -2.545865e+02   2.605625e+02
  -4.743928e+02  -3.563582e+01
  -3.388925e+02  -1.966713e+02
   2.826785e+00  -1.756033e+02
   2.176981e+02  -8.699441e+01
   1.889587e+02  -2.809803e+01
   4.100793e+01  -1.103892e+01
  -2.517927e+01  -1.714671e+01
   7.053322e+01  -1.588977e+01
   1.850298e+02   3.374002e+01
   1.301559e+02   1.431514e+02
  -1.184891e+02   2.432158e+02
  -3.465456e+02   1.837099e+02
  -3.163019e+02  -8.396632e+01
  -5.137542e+00  -3.662926e+02
   3.251797e+02  -3.968428e+02
   4.015506e+02  -1.373102e+02
   2.268461e+02   1.870851e+02
   3.556397e+01   3.294102e+02
  -1.597737e+01   2.748918e+02
   1.234879e+01   1.849410e+02
  -3.906765e+01   1.597436e+02
  -1.817456e+02   1.420714e+02
  -2.753468e+02   2.609670e+01
  -2.272016e+02  -1.559996e+02
  -6.343819e+01  -2.638055e+02
   9.967310e+01  -1.714335e+02
   1.747920e+02   5.854327e+01
   1.148323e+02   2.352787e+02
  -4.797308e+01   2.248719e+02
  -2.266352e+02   5.301607e+01
  -2.781815e+02  -1.510199e+02
  -1.647582e+02  -2.458493e+02
   1.484054e+01  -2.340757e+02
   1.281203e+02  -1.626039e+02
   1.318694e+02  -1.121620e+02
   1.567974e+02  -8.507599e+01
   2.712041e+02  -3.796686e+01
   3.985787e+02   8.675518e+01
   3.193078e+02   2.779076e+02
  -9.417949e+00   4.255590e+02
  -3.680173e+02   3.807351e+02
  -4.699010e+02   1.622675e+02
  -2.710706e+02  -1.115600e+02
  -3.331132e+00  -2.400195e+02
   9.337593e+01  -1.697700e+02
  -8.161874e+00  -3.574037e+01
  -1.149223e+02   1.565833e+01
  -9.968012e+01  -4.978257e+01
   1.647009e+01  -1.151049e+02
   9.563584e+01  -6.496206e+01
   7.223521e+01   5.859374e+01
  -4.075468e+01   1.101435e+02
  -1.542401e+02  -8.967120e+00
  -1.521660e+02  -2.267108e+02
   8.122346e+00  -3.466703e+02
   2.411222e+02  -2.365846e+02
   3.766080e+02   6.039096e+01
   2.872725e+02   2.829785e+02
   5.177620e+01   2.891882e+02
  -1.401979e+02   1.379338e+02
  -1.490506e+02  -5.439035e+00
  -2.717645e+01  -1.320222e+01
   4.082158e+01   6.765798e+01
  -1.668246e+01   1.084789e+02
  -1.241508e+02   5.758815e+01
  -1.328353e+02  -3.589345e+01
  -1.785965e+01  -5.454144e+01
   8.985782e+01   1.559103e+01
   3.993962e+01   1.015873e+02
  -1.536758e+02   9.927397e+01
  -3.109002e+02  -2.437046e+01
  -2.539972e+02  -1.890427e+02
  -1.611506e+01  -2.795804e+02
   2.226802e+02  -2.230753e+02
   2.734638e+02  -7.134372e+01
   1.333763e+02   5.651393e+01
  -3.156374e+01   7.172400e+01
  -5.492194e+01  -1.070824e+01
   5.736618e+01  -7.352385e+01
   1.772537e+02  -2.201437e+01
   1.780278e+02   1.016268e+02
   5.327786e+01   1.812753e+02
  -8.739241e+01   1.302552e+02
  -1.189578e+02   1.075219e+01
  -3.606212e+01  -4.257450e+01
   5.406206e+01   2.476156e+01
   2.989735e+01   1.247210e+02
  -1.088441e+02   1.258409e+02
  -2.173244e+02   1.369024e+01
  -1.817192e+02  -1.372449e+02
  -1.566171e+01  -2.060390e+02
   1.444928e+02  -1.481615e+02
   1.657502e+02  -1.628038e+01
   5.604827e+01   8.384294e+01
  -5.407553e+01   8.486776e+01
  -6.472691e+01   1.959062e+01
   4.205625e+00  -2.912409e+01
   4.593157e+01  -5.998045e+00
  -1.826758e+00   3.857068e+01
  -9.398723e+01   1.762207e+01
  -1.192561e+02  -9.119500e+01
  -1.941200e+01  -1.865190e+02
   1.462045e+02  -1.658747e+02
   2.506415e+02  -1.619909e+01
   1.988202e+02   1.628410e+02
   4.152943e+01   2.270737e+02
  -9.415678e+01   1.590912e+02
  -1.275838e+02   3.686649e+01
  -7.701435e+01  -3.837923e+01
  -3.480807e+01  -2.570542e+01
  -5.113470e+01   1.646034e+01
  -9.046680e+01   1.174814e+01
  -7.050169e+01  -5.887422e+01
   3.444930e+01  -1.167102e+02
   1.347036e+02  -7.893969e+01
   1.243414e+02   4.948431e+01
  -1.589660e+01   1.467272e+02
  -1.777439e+02   9.556972e+01
  -2.157432e+02  -7.586077e+01
  -7.797443e+01  -2.239556e+02
   1.388355e+02  -2.181539e+02
   2.671695e+02  -6.864825e+01
   2.344755e+02   9.705553e+01
   8.849315e+01   1.620553e+02
  -4.175578e+01   1.294524e+02
  -7.990130e+01   7.150021e+01
  -5.568159e+01   6.996201e+01
  -4.983676e+01   9.958993e+01
  -8.739427e+01   8.976081e+01
  -1.369649e+02  -7.283135e+00
  -1.279931e+02  -1.480312e+02
  -3.200604e+01  -2.262409e+02
   1.012637e+02  -1.693554e+02
   1.719709e+02  -9.956344e+00
   1.250627e+02   1.295595e+02
   3.484637e+00   1.573332e+02
  -8.362510e+01   7.466861e+01
  -6.856453e+01  -2.437672e+01
   5.620526e+00  -6.200760e+01
   3.867463e+01  -3.801896e+01
  -1.931993e+01  -8.407696e+00
  -8.659917e+01  -1.375061e+01
  -5.501573e+01  -4.167526e+01
   7.466135e+01  -4.713425e+01
   1.798831e+02   2.468796e+00
   1.443854e+02   7.085515e+01
  -5.013431e+00   1.069066e+02
  -1.414947e+02   7.441239e+01
  -1.441121e+02  -3.085371e+00
  -4.540124e+01  -6.083210e+01
   5.872744e+01  -4.960636e+01
   8.245945e+01   1.830588e+01
   2.947971e+01   7.763878e+01
  -4.030012e+01   7.212526e+01
  -7.360664e+01   6.415068e+00
  -6.586274e+01  -5.153658e+01
  -4.662262e+01  -4.535052e+01
  -4.712411e+01  -1.082028e+00
  -6.357415e+01   2.205900e+00
  -5.374464e+01  -6.992230e+01
   1.593793e+01  -1.578118e+02
   1.232814e+02  -1.535608e+02
   1.854998e+02  -4.141910e+01
   1.436586e+02   9.480144e+01
   1.001683e+01   1.405997e+02
  -9.262684e+01   8.081064e+01
  -6.991607e+01  -7.243654e+00
   4.941687e+01  -2.596307e+01
   1.303717e+02   3.398976e+01
   7.262213e+01   1.037382e+02
  -8.143982e+01   1.055825e+02
  -1.879088e+02   3.967921e+01
  -1.554719e+02  -4.486544e+01
  -2.717127e+01  -8.483468e+01
   6.578852e+01  -5.588600e+01
   5.070798e+01   5.747232e+00
  -4.190477e+01   3.497828e+01
  -9.687108e+01  -1.435935e+01
  -4.668445e+01  -1.152131e+02
   7.295971e+01  -1.617878e+02
   1.566788e+02  -7.798181e+01
   1.313497e+02   8.847651e+01
   2.020724e+01   1.927874e+02
  -8.492026e+01   1.368527e+02
  -1.076403e+02  -1.666337e+01
  -5.119078e+01  -1.216234e+02
   2.191383e+01  -9.561002e+01
   5.469747e+01  -8.035142e+00
   3.832240e+01   3.328170e+01
   9.085935e+00   2.655994e+00
   8.559407e+00  -1.914645e+01
   4.045022e+01   2.151731e+01
   5.924765e+01   8.998471e+01
   2.611187e+01   1.056936e+02
  -6.149066e+01   5.023211e+01
  -1.374678e+02  -2.952595e+01
  -1.211902e+02  -7.084528e+01
  -1.881594e+01  -6.234313e+01
   7.756473e+01  -3.242942e+01
   8.708769e+01  -4.960133e+00
   2.202878e+01   1.650092e+01
  -3.205454e+01   2.180518e+01
  -2.189942e+01   1.201260e+01
   1.219006e+01  -3.433641e+00
  -6.021129e-01  -6.466843e-01
  -6.230470e+01   7.029798e+00
  -9.463135e+01  -1.831196e+01
  -3.364427e+01  -8.231702e+01
   9.451546e+01  -1.252119e+02
   1.825392e+02  -7.494128e+01
   1.572910e+02   5.169552e+01
   3.849245e+01   1.567919e+02
  -7.708630e+01   1.567542e+02
  -1.167082e+02   6.594666e+01
  -8.236198e+01  -1.904088e+01
  -2.925739e+01  -3.994388e+01
  -5.347056e+00  -1.410021e+01
  -1.579732e+01  -8.306941e+00
  -3.174033e+01  -4.913095e+01
  -1.748539e+01  -9.090450e+01
   2.874387e+01  -7.429107e+01
   7.807498e+01   8.589179e+00
   8.375726e+01   9.399835e+01
   2.176368e+01   1.100583e+02
  -7.118001e+01   4.202451e+01
  -1.122619e+02  -5.492633e+01
  -5.154690e+01  -1.044847e+02
   5.985806e+01  -7.540485e+01
   1.101490e+02  -5.012394e-01
   5.634976e+01   5.865864e+01
  -2.945833e+01   6.625380e+01
  -4.148534e+01   2.988675e+01
   1.966449e+01  -1.046019e+01
   6.709325e+01  -1.106846e+01
   2.322033e+01   2.753696e+01
  -7.028999e+01   6.553666e+01
  -1.163247e+02   5.235035e+01
  -7.648301e+01  -1.709167e+01
   7.289511e+00  -8.589171e+01
   5.919457e+01  -8.340569e+01
   5.024820e+01  -1.371110e+01
   1.053793e+01   5.376726e+01
  -2.467865e+01   5.251919e+01
  -4.010658e+01  -6.926114e+00
  -3.196576e+01  -5.619361e+01
  -3.885804e-01  -4.568882e+01
   3.414644e+01   1.478399e+00
   4.352406e+01   2.664722e+01
   2.163465e+01   7.203455e+00
  -5.149577e+00  -2.213261e+01
  -4.768846e+00  -1.431428e+01
   1.207268e+01   2.843939e+01
   9.874064e+00   5.569282e+01
  -2.337063e+01   3.215393e+01
  -5.065894e+01  -2.603323e+01
  -2.545718e+01  -5.932073e+01
   3.669419e+01  -3.171066e+01
   6.990654e+01   2.515110e+01
   2.731219e+01   5.822156e+01
  -5.427960e+01   4.119891e+01
  -9.300405e+01  -4.596783e+00
  -5.292129e+01  -4.151337e+01
   2.524258e+01  -4.907563e+01
   6.409942e+01  -3.275137e+01
   3.241049e+01  -8.452820e+00
  -2.146044e+01   8.154524e+00
  -3.041243e+01   9.838605e-01
   1.658252e+01  -2.360245e+01
   6.709897e+01  -2.528027e+01
