
 $NMID
 id='ANONYMOUS ', fmtdat='(2E16.6)'
 volume=1.0
 tramp=1.0
 $END
  -2.693468e+03  -6.228534e+01
  -1.737874e+03  -1.257335e+03
  -3.201510e+02  -1.582824e+03
   7.947192e+02  -1.237439e+03
   8.606043e+02  -5.746746e+02
   2.887727e+02  -2.043082e+01
  -1.338466e+02   3.651397e+01
  -9.045040e+01  -3.207130e+02
   2.849530e+02  -5.178857e+02
   5.485234e+02  -2.168926e+02
   4.445777e+02   3.501594e+02
   1.110587e+02   5.633170e+02
  -1.821768e+02   2.271187e+02
  -1.794764e+02  -2.817922e+02
   5.386283e+01  -4.348915e+02
   3.168531e+02  -8.476878e+01
   3.031790e+02   3.979203e+02
  -3.183565e+01   5.958253e+02
  -3.859428e+02   3.340815e+02
  -4.543847e+02  -9.361803e+01
  -1.938326e+02  -3.118086e+02
   7.128109e+01  -2.176600e+02
   2.099558e+01  -7.011751e+01
  -2.191026e+02  -1.372417e+02
  -2.648723e+02  -3.387206e+02
   5.251842e+01  -3.762463e+02
   4.740406e+02  -1.064835e+02
   5.300957e+02   2.161161e+02
   1.541341e+02   3.170165e+02
  -3.047932e+02   1.067495e+02
  -4.159557e+02  -1.860109e+02
  -1.306378e+02  -3.393042e+02
   2.613788e+02  -3.038590e+02
   4.162073e+02  -1.134152e+02
   2.803609e+02   1.430832e+02
   7.971136e+01   2.624225e+02
   1.541409e+01   1.402703e+02
   1.146567e+02  -6.546576e+01
   2.243747e+02  -8.313127e+01
   1.381288e+02   2.085977e+02
  -8.265685e+01   4.460488e+02
  -2.417649e+02   3.447460e+02
  -2.200083e+02  -2.781140e+01
  -4.153458e+01  -2.243958e+02
   1.074745e+02  -5.239109e+01
   9.527960e+01   2.593652e+02
  -1.302332e+02   3.117076e+02
  -3.930547e+02   7.257157e+00
  -4.393460e+02  -3.497361e+02
  -1.564022e+02  -4.504259e+02
   2.624233e+02  -2.466342e+02
   4.711097e+02   4.336463e+01
   3.245836e+02   1.996036e+02
  -1.175275e+01   1.673714e+02
  -2.228712e+02   7.512264e+01
  -1.835263e+02   3.238294e+01
  -3.705370e+01   2.271446e+01
   9.792840e+00   2.667141e+01
  -9.403910e+01   8.717537e+00
  -1.908113e+02  -4.547467e+01
  -1.191154e+02  -1.492314e+02
   1.289207e+02  -2.329882e+02
   3.413622e+02  -1.752308e+02
   3.043275e+02   7.690961e+01
   1.286630e+01   3.449843e+02
  -3.115754e+02   4.019114e+02
  -3.974776e+02   1.531065e+02
  -2.282140e+02  -1.847941e+02
  -3.511637e+01  -3.336550e+02
   2.254649e+01  -2.746445e+02
  -1.881511e+01  -1.743200e+02
   2.566435e+01  -1.584590e+02
   1.758545e+02  -1.440337e+02
   2.764991e+02  -3.564593e+01
   2.339259e+02   1.527806e+02
   6.537513e+01   2.667054e+02
  -1.074215e+02   1.783933e+02
  -1.864846e+02  -5.653946e+01
  -1.248914e+02  -2.437921e+02
   4.785202e+01  -2.385964e+02
   2.357432e+02  -6.040257e+01
   2.923229e+02   1.518040e+02
   1.722151e+02   2.473915e+02
  -1.918010e+01   2.328312e+02
  -1.268458e+02   1.654716e+02
  -1.244093e+02   1.163458e+02
  -1.489976e+02   9.785403e+01
  -2.813931e+02   5.016199e+01
  -4.109324e+02  -8.011771e+01
  -3.211213e+02  -2.739837e+02
   1.111853e+01  -4.220541e+02
   3.636983e+02  -3.866296e+02
   4.653168e+02  -1.737255e+02
   2.711295e+02   1.072278e+02
   5.960134e+00   2.474379e+02
  -8.591506e+01   1.737108e+02
   1.028809e+01   2.993549e+01
   1.201766e+02  -2.544277e+01
   1.028735e+02   5.126590e+01
  -1.529574e+01   1.215312e+02
  -9.945898e+01   7.423088e+01
  -7.447045e+01  -6.020601e+01
   4.654473e+01  -1.095101e+02
   1.534811e+02   1.514859e+01
   1.400301e+02   2.346251e+02
  -2.177133e+01   3.452317e+02
  -2.375853e+02   2.331263e+02
  -3.787566e+02  -5.357785e+01
  -3.017485e+02  -2.812806e+02
  -6.472844e+01  -2.976263e+02
   1.423131e+02  -1.488925e+02
   1.574688e+02   8.558294e-01
   3.411021e+01   1.507256e+01
  -4.222576e+01  -6.614236e+01
   1.535544e+01  -1.092279e+02
   1.248010e+02  -5.815041e+01
   1.339710e+02   3.848405e+01
   1.624072e+01   5.537396e+01
  -9.174228e+01  -1.782868e+01
  -4.153423e+01  -1.043088e+02
   1.505960e+02  -1.013471e+02
   3.117290e+02   2.157057e+01
   2.617589e+02   1.815192e+02
   2.889694e+01   2.779479e+02
  -2.160443e+02   2.337396e+02
  -2.790658e+02   8.236495e+01
  -1.387494e+02  -5.161367e+01
   2.976172e+01  -7.054407e+01
   5.612693e+01   1.371400e+01
  -5.764622e+01   7.624330e+01
  -1.769019e+02   2.230908e+01
  -1.786249e+02  -1.022282e+02
  -5.277849e+01  -1.799450e+02
   8.612653e+01  -1.285133e+02
   1.211259e+02  -1.138334e+01
   3.813883e+01   4.139710e+01
  -5.752103e+01  -2.329416e+01
  -3.686222e+01  -1.240250e+02
   1.064256e+02  -1.311235e+02
   2.252065e+02  -2.486104e+01
   1.920742e+02   1.351506e+02
   1.774080e+01   2.119040e+02
  -1.455309e+02   1.558614e+02
  -1.654983e+02   1.929668e+01
  -5.399247e+01  -8.404159e+01
   5.362793e+01  -8.553885e+01
   6.160364e+01  -1.835270e+01
  -5.764255e+00   3.010624e+01
  -4.763588e+01   6.980047e+00
  -1.467004e+00  -3.802789e+01
   9.093852e+01  -1.810048e+01
   1.196594e+02   8.924223e+01
   2.286297e+01   1.866919e+02
  -1.456038e+02   1.655112e+02
  -2.439608e+02   1.421361e+01
  -1.969333e+02  -1.612763e+02
  -4.092547e+01  -2.274723e+02
   9.443056e+01  -1.572748e+02
   1.271151e+02  -3.491568e+01
   7.833202e+01   3.940022e+01
   3.606892e+01   2.692396e+01
   5.065695e+01  -1.633734e+01
   8.846058e+01  -1.252974e+01
   6.891082e+01   5.510670e+01
  -3.222619e+01   1.180599e+02
  -1.302600e+02   8.347313e+01
  -1.248632e+02  -4.313924e+01
   9.852141e+00  -1.424357e+02
   1.730221e+02  -9.988574e+01
   2.182663e+02   6.599472e+01
   8.722498e+01   2.197198e+02
  -1.300135e+02   2.263191e+02
  -2.683080e+02   8.373785e+01
  -2.430365e+02  -8.606816e+01
  -9.434273e+01  -1.627526e+02
   4.152644e+01  -1.323668e+02
   8.438154e+01  -7.232087e+01
   6.004914e+01  -6.793894e+01
   5.246368e+01  -9.622284e+01
   8.557884e+01  -8.708372e+01
   1.328725e+02   1.061716e+01
   1.223452e+02   1.463887e+02
   3.073031e+01   2.226156e+02
  -9.966570e+01   1.676627e+02
  -1.723424e+02   1.199502e+01
  -1.285065e+02  -1.304599e+02
  -4.843256e+00  -1.628943e+02
   8.424612e+01  -8.033688e+01
   7.019317e+01   2.131249e+01
  -2.550622e+00   6.280604e+01
  -3.538836e+01   4.156791e+01
   2.040300e+01   1.106977e+01
   8.504978e+01   1.545014e+01
   5.442662e+01   4.281691e+01
  -7.398478e+01   4.965692e+01
  -1.830566e+02   4.649997e+00
  -1.525231e+02  -6.766051e+01
  -5.683615e-01  -1.094291e+02
   1.392624e+02  -8.049983e+01
   1.491159e+02  -2.484215e+00
   4.779000e+01   5.745771e+01
  -5.624019e+01   4.829134e+01
  -8.140352e+01  -1.538429e+01
  -3.193911e+01  -7.377668e+01
   3.520610e+01  -6.988405e+01
   7.041406e+01  -8.170114e+00
   6.621951e+01   4.578399e+01
   4.837561e+01   4.086385e+01
   4.971028e+01  -7.718535e-01
   6.681861e+01  -2.392968e+00
   5.687402e+01   7.258080e+01
  -1.522554e+01   1.603943e+02
  -1.269213e+02   1.555322e+02
  -1.904198e+02   4.132109e+01
  -1.467125e+02  -9.292459e+01
  -1.163636e+01  -1.398267e+02
   8.999630e+01  -8.270864e+01
   7.118090e+01   2.275469e+00
  -4.564952e+01   2.138975e+01
  -1.298328e+02  -3.551878e+01
  -7.417192e+01  -1.051947e+02
   8.173140e+01  -1.102256e+02
   1.951270e+02  -3.945072e+01
   1.598858e+02   4.614698e+01
   2.830057e+01   9.002220e+01
  -6.883405e+01   5.982411e+01
  -5.204186e+01  -5.310345e+00
   3.958626e+01  -3.676779e+01
   9.606431e+01   1.283033e+01
   4.610019e+01   1.145517e+02
  -7.036301e+01   1.616139e+02
  -1.504803e+02   8.106842e+01
  -1.292326e+02  -8.224872e+01
  -2.549434e+01  -1.894651e+02
   7.850222e+01  -1.433874e+02
   1.077109e+02   9.792036e+00
   6.008179e+01   1.210228e+02
  -1.579621e+01   1.028953e+02
  -5.571202e+01   1.455128e+01
  -4.194723e+01  -3.219894e+01
  -9.574090e+00  -6.143505e+00
  -5.322729e+00   1.815334e+01
  -3.819847e+01  -1.944999e+01
  -6.517190e+01  -8.658299e+01
  -3.348276e+01  -1.069599e+02
   5.872135e+01  -5.007391e+01
   1.368539e+02   3.124510e+01
   1.223557e+02   6.763733e+01
   2.046535e+01   5.789237e+01
  -7.546644e+01   3.039775e+01
  -8.493689e+01   7.241534e+00
  -2.326556e+01  -1.309869e+01
   3.202310e+01  -2.222663e+01
   2.273348e+01  -1.085351e+01
  -1.073501e+01   5.558349e+00
  -7.358166e-01   3.292341e+00
   5.998841e+01  -7.832224e+00
   9.338346e+01   1.583745e+01
   3.416822e+01   8.094785e+01
  -9.623953e+01   1.235465e+02
  -1.850290e+02   7.078995e+01
  -1.576726e+02  -5.107600e+01
  -4.172672e+01  -1.530077e+02
   7.474754e+01  -1.582481e+02
   1.147335e+02  -7.275252e+01
   8.404127e+01   1.429212e+01
   3.089660e+01   4.017566e+01
   5.852991e+00   1.600451e+01
   1.513064e+01   8.967577e+00
   3.057491e+01   4.879466e+01
   1.837725e+01   9.073254e+01
  -2.676193e+01   7.553717e+01
  -7.780133e+01  -7.855136e+00
  -8.552981e+01  -9.377171e+01
  -2.443229e+01  -1.094713e+02
   6.804584e+01  -4.211787e+01
   1.101787e+02   5.286270e+01
   5.329954e+01   1.002519e+02
  -5.517479e+01   7.407999e+01
  -1.069695e+02   2.308386e+00
  -5.358991e+01  -5.651087e+01
   2.929272e+01  -6.711775e+01
   4.394487e+01  -3.213162e+01
  -1.830308e+01   1.095387e+01
  -6.776813e+01   1.294479e+01
  -2.391624e+01  -2.658540e+01
   7.144601e+01  -6.673975e+01
   1.183227e+02  -5.451193e+01
   7.631041e+01   1.471417e+01
  -6.190805e+00   8.443185e+01
  -5.642779e+01   8.405111e+01
  -4.724241e+01   1.734266e+01
  -1.211477e+01  -5.017229e+01
   2.004610e+01  -5.180155e+01
   3.777660e+01   5.151859e+00
   3.362619e+01   5.297533e+01
   3.585279e+00   4.388090e+01
  -3.408259e+01  -8.424331e-01
  -4.588443e+01  -2.582256e+01
  -2.224593e+01  -7.683567e+00
   7.449904e+00   2.076389e+01
   7.434027e+00   1.518595e+01
  -1.013825e+01  -2.611217e+01
  -9.899931e+00  -5.310188e+01
   2.092987e+01  -3.140880e+01
   4.722235e+01   2.307187e+01
   2.611012e+01   5.491293e+01
  -3.370810e+01   3.149679e+01
  -6.778697e+01  -2.218647e+01
  -2.771126e+01  -5.688545e+01
   5.365048e+01  -4.373961e+01
   9.447834e+01   1.795080e+00
   5.541962e+01   4.033118e+01
  -2.321057e+01   5.030349e+01
  -6.360557e+01   3.537357e+01
  -3.227541e+01   1.039160e+01
   2.215969e+01  -7.154792e+00
   2.967787e+01  -5.074418e-02
  -1.905048e+01   2.285092e+01
  -6.930093e+01   2.499951e+01
