
 $NMID
 id='ANONYMOUS ', fmtdat='(2E16.6)'
 volume=1.0
 tramp=1.0
 $END
   4.169503e+03  -2.374165e+02
   2.459494e+03   2.543307e+03
  -4.338774e+02   2.649860e+03
  -1.881141e+03   9.864305e+02
  -9.501387e+02  -5.113459e+02
   5.167329e+02  -5.577634e+02
   8.347566e+02   3.684513e+02
   4.800756e+01   1.007466e+03
  -7.819674e+02   8.055724e+02
  -9.344900e+02  -4.713921e+01
  -5.150765e+02  -7.878150e+02
   1.468203e+02  -8.711029e+02
   5.863690e+02  -1.734861e+02
   4.034257e+02   6.404365e+02
  -2.127142e+02   7.350716e+02
  -5.890672e+02   3.744345e+01
  -3.344479e+02  -6.464230e+02
   2.419269e+02  -6.791188e+02
   5.853027e+02  -1.702885e+02
   4.375843e+02   3.035476e+02
   7.353200e+01   4.268445e+02
  -2.217675e+02   2.646014e+02
  -2.044110e+02   1.668798e+01
   1.139986e+02  -8.783741e+01
   4.217253e+02   1.373723e+02
   2.050360e+02   4.338570e+02
  -4.558330e+02   4.055698e+02
  -8.371593e+02  -6.587103e+01
  -4.320189e+02  -5.359074e+02
   3.619328e+02  -4.717289e+02
   7.092463e+02   1.672522e+01
   3.484805e+02   4.487387e+02
  -2.532060e+02   5.021289e+02
  -5.465020e+02   2.222999e+02
  -4.172097e+02  -2.072079e+02
  -8.207680e+01  -4.569083e+02
   1.926683e+02  -2.820939e+02
   1.689131e+02   2.038075e+02
  -1.681264e+02   4.169729e+02
  -4.219878e+02  -1.940362e+01
  -2.257575e+02  -6.489241e+02
   2.907346e+02  -6.825366e+02
   5.552539e+02  -2.406673e+01
   2.456412e+02   5.060407e+02
  -2.438705e+02   3.112784e+02
  -3.487312e+02  -2.749082e+02
   4.781561e+01  -5.254868e+02
   5.037671e+02  -1.436814e+02
   5.786209e+02   3.661930e+02
   2.017027e+02   5.626150e+02
  -3.403455e+02   3.553205e+02
  -6.150194e+02  -3.578532e+01
  -4.008814e+02  -3.421916e+02
   1.009064e+02  -3.489364e+02
   4.065469e+02  -9.743237e+01
   2.516432e+02   1.395158e+02
  -8.585315e+01   9.795700e+01
  -1.400729e+02  -1.130628e+02
   1.252496e+02  -1.624590e+02
   3.150485e+02   3.622888e+01
   1.666334e+02   2.552445e+02
  -1.639887e+02   2.708897e+02
  -3.393426e+02   1.164670e+02
  -2.418746e+02  -7.621441e+01
  -1.643326e-01  -2.462474e+02
   2.289718e+02  -3.476676e+02
   3.475689e+02  -2.052189e+02
   2.869604e+02   1.479459e+02
   8.680691e+01   4.229900e+02
  -9.639078e+01   3.514873e+02
  -9.946772e+01   1.029571e+02
  -1.705286e+01   1.354047e+01
  -4.581334e+01   1.015718e+02
  -1.959936e+02   1.389233e+02
  -2.808276e+02  -4.781068e+01
  -1.709935e+02  -2.610695e+02
   6.109745e+01  -2.583845e+02
   2.331890e+02  -2.148781e+01
   2.119138e+02   2.290032e+02
   1.935278e+00   2.970783e+02
  -2.612041e+02   1.233276e+02
  -3.633937e+02  -1.490526e+02
  -1.974532e+02  -3.316428e+02
   8.175259e+01  -2.962532e+02
   2.051250e+02  -1.296068e+02
   1.370950e+02  -2.423535e+01
   9.733298e+01  -5.398517e+01
   2.334189e+02  -8.430787e+01
   4.054083e+02   3.083990e+01
   3.501370e+02   2.628050e+02
   2.879181e+01   4.381748e+02
  -3.173492e+02   4.279156e+02
  -4.583424e+02   2.174714e+02
  -3.337765e+02  -8.068146e+01
  -6.437543e+01  -2.868698e+02
   1.154823e+02  -2.459919e+02
   7.991577e+01  -3.115510e+01
  -1.030411e+02   1.117322e+02
  -1.926579e+02   1.721223e+00
  -6.124592e+01  -1.848625e+02
   1.392807e+02  -1.753626e+02
   1.756885e+02   4.520614e+01
  -6.877843e+00   1.805196e+02
  -1.878761e+02   4.504098e+01
  -1.860185e+02  -2.313230e+02
   3.732332e+00  -3.556647e+02
   2.194462e+02  -2.220075e+02
   3.502173e+02   3.211625e+01
   3.021115e+02   2.367342e+02
   1.050346e+02   2.849169e+02
  -1.238655e+02   1.701742e+02
  -1.819406e+02   1.206650e+01
  -5.408181e+01  -4.888694e+01
   7.840757e+01   3.333863e+01
   3.323441e+01   1.305598e+02
  -1.244435e+02   1.075661e+02
  -1.796667e+02  -1.037488e+01
  -5.812886e+01  -7.441971e+01
   8.110086e+01  -2.297959e+01
   6.079623e+01   7.271526e+01
  -1.180669e+02   9.622429e+01
  -2.850023e+02   8.477214e+00
  -2.730875e+02  -1.360142e+02
  -7.191472e+01  -2.616601e+02
   1.780827e+02  -2.725249e+02
   2.834972e+02  -1.291758e+02
   1.801646e+02   5.705482e+01
  -1.691337e+01   1.170821e+02
  -8.856884e+01   1.221143e+01
   2.565253e+01  -1.015615e+02
   1.852432e+02  -6.469738e+01
   2.117035e+02   9.553665e+01
   7.539950e+01   2.070286e+02
  -8.801521e+01   1.618463e+02
  -1.441380e+02   2.881341e+01
  -6.940251e+01  -4.849571e+01
   3.580247e+01  -8.872445e+00
   5.044765e+01   8.753760e+01
  -6.814375e+01   1.328550e+02
  -2.039407e+02   5.255553e+01
  -2.108141e+02  -1.123417e+02
  -4.417813e+01  -2.254423e+02
   1.500918e+02  -1.828569e+02
   1.987802e+02  -2.192605e+01
   7.874409e+01   1.099264e+02
  -5.608530e+01   1.146139e+02
  -8.149657e+01   3.356471e+01
  -1.946198e+01  -2.783993e+01
   2.614779e+01  -1.987998e+01
  -3.477740e+00   1.506220e+01
  -7.130629e+01   2.120142e+00
  -1.009403e+02  -7.553336e+01
  -3.100919e+01  -1.592084e+02
   1.163628e+02  -1.625840e+02
   2.311054e+02  -4.114776e+01
   2.174461e+02   1.361056e+02
   6.220598e+01   2.407556e+02
  -1.001114e+02   1.857311e+02
  -1.426223e+02   4.121503e+01
  -8.143370e+01  -5.371550e+01
  -3.330477e+01  -3.798588e+01
  -5.089023e+01   1.458030e+01
  -8.130657e+01   1.169384e+01
  -5.218534e+01  -4.996669e+01
   3.368216e+01  -1.012602e+02
   1.020774e+02  -6.907706e+01
   9.805426e+01   3.010385e+01
  -1.074072e+00   1.169838e+02
  -1.395139e+02   9.849715e+01
  -2.058035e+02  -4.280009e+01
  -1.159799e+02  -2.012525e+02
   9.141804e+01  -2.388137e+02
   2.683762e+02  -1.112211e+02
   2.707257e+02   7.451333e+01
   1.259843e+02   1.740468e+02
  -3.139983e+01   1.502869e+02
  -8.990056e+01   8.809390e+01
  -7.197651e+01   7.411023e+01
  -5.916368e+01   9.612851e+01
  -8.899498e+01   8.171911e+01
  -1.345942e+02  -1.132298e+01
  -1.311866e+02  -1.439911e+02
  -4.764779e+01  -2.248431e+02
   9.052598e+01  -1.817329e+02
   1.780570e+02  -3.415652e+01
   1.467295e+02   1.143252e+02
   2.612847e+01   1.631368e+02
  -6.711830e+01   9.753879e+01
  -6.669608e+01   2.370019e+00
  -1.214802e+01  -4.584917e+01
   1.070459e+01  -3.880184e+01
  -3.092614e+01  -1.833020e+01
  -7.265603e+01  -2.038938e+01
  -4.415984e+01  -4.026465e+01
   6.024483e+01  -4.252005e+01
   1.558838e+02  -1.458444e+01
   1.488319e+02   4.462903e+01
   2.480840e+01   9.254410e+01
  -1.112050e+02   8.614367e+01
  -1.462100e+02   2.030866e+01
  -5.625911e+01  -4.354601e+01
   5.296971e+01  -4.368755e+01
   7.771501e+01   1.324369e+01
   1.667862e+01   6.910032e+01
  -4.832180e+01   6.322628e+01
  -6.506251e+01   2.809304e+00
  -4.914212e+01  -4.750706e+01
  -4.431080e+01  -3.973905e+01
  -5.568775e+01   2.995611e+00
  -6.701512e+01   4.470384e+00
  -4.558848e+01  -6.490252e+01
   2.029856e+01  -1.450516e+02
   1.069442e+02  -1.496867e+02
   1.650864e+02  -4.555311e+01
   1.297213e+02   8.394401e+01
   1.823968e+01   1.263645e+02
  -7.920586e+01   6.897456e+01
  -6.299680e+01  -9.654449e+00
   5.018202e+01  -2.336980e+01
   1.327903e+02   3.261016e+01
   8.128756e+01   1.005300e+02
  -7.079380e+01   1.148666e+02
  -1.822490e+02   6.191236e+01
  -1.578934e+02  -2.381343e+01
  -3.958547e+01  -8.239932e+01
   5.755340e+01  -7.024198e+01
   4.932660e+01  -6.755450e+00
  -3.801122e+01   3.300472e+01
  -9.466573e+01  -1.150948e+01
  -4.301909e+01  -1.141017e+02
   7.847035e+01  -1.574109e+02
   1.642544e+02  -7.204077e+01
   1.326574e+02   9.237202e+01
   2.017795e+01   1.949356e+02
  -7.941691e+01   1.497152e+02
  -1.097309e+02   9.140573e-01
  -7.219160e+01  -1.134249e+02
  -7.990380e+00  -1.084730e+02
   4.484629e+01  -2.780644e+01
   5.292775e+01   2.470208e+01
   2.538791e+01   5.248480e+00
   5.907804e+00  -1.984918e+01
   2.603633e+01   1.447843e+01
   6.170537e+01   8.317877e+01
   4.722512e+01   1.072408e+02
  -4.491518e+01   5.382722e+01
  -1.387722e+02  -2.504984e+01
  -1.349252e+02  -6.058816e+01
  -2.210874e+01  -5.249959e+01
   8.603526e+01  -3.216747e+01
   8.903474e+01  -1.438805e+01
   1.638074e+01   1.021319e+01
  -3.635225e+01   2.512666e+01
  -1.733550e+01   1.979959e+01
   1.687899e+01  -9.732473e-01
  -4.881966e+00  -6.655566e+00
  -7.050910e+01   2.832822e+00
  -9.112164e+01  -1.649511e+01
  -1.816449e+01  -7.883370e+01
   1.042294e+02  -1.216253e+02
   1.753605e+02  -7.144331e+01
   1.470848e+02   5.363992e+01
   3.878984e+01   1.590512e+02
  -6.921123e+01   1.576529e+02
  -1.102624e+02   6.763899e+01
  -8.239242e+01  -1.731883e+01
  -2.992142e+01  -3.701673e+01
  -8.443079e-01  -1.040151e+01
  -1.231161e+01  -2.032814e+00
  -3.371804e+01  -4.297019e+01
  -2.557979e+01  -8.872467e+01
   2.435567e+01  -7.459839e+01
   8.183276e+01   1.024035e+01
   8.580999e+01   9.924456e+01
   1.478572e+01   1.120652e+02
  -7.945213e+01   3.479901e+01
  -1.120702e+02  -6.428173e+01
  -4.365934e+01  -1.034195e+02
   6.082547e+01  -6.625007e+01
   1.020698e+02   1.965971e+00
   4.499302e+01   4.994342e+01
  -2.862459e+01   5.728248e+01
  -3.289195e+01   3.011188e+01
   3.091226e+01  -6.038385e+00
   6.965672e+01  -1.154246e+01
   2.121246e+01   2.728429e+01
  -6.931971e+01   7.287282e+01
  -1.132794e+02   6.638101e+01
  -7.054208e+01  -9.871035e+00
   5.946643e+00  -8.479258e+01
   4.949725e+01  -8.484246e+01
   3.989519e+01  -1.188689e+01
   8.406572e+00   5.516127e+01
  -2.149214e+01   4.720808e+01
  -3.655815e+01  -1.176847e+01
  -3.067295e+01  -5.273351e+01
  -5.017855e-01  -3.816735e+01
   3.299081e+01   3.620375e+00
   4.252053e+01   1.993214e+01
   2.164079e+01   3.947392e+00
  -2.294544e+00  -1.275222e+01
  -7.824358e+00  -1.160658e+00
  -1.306660e+00   3.196819e+01
  -7.834790e+00   4.368002e+01
  -2.732924e+01   1.338773e+01
  -3.428614e+01  -3.791858e+01
  -7.324856e+00  -5.857910e+01
   3.965492e+01  -2.374820e+01
   6.035745e+01   3.171303e+01
   2.240812e+01   5.913574e+01
  -4.987599e+01   4.043861e+01
  -9.248112e+01  -4.192178e+00
  -5.574383e+01  -3.957095e+01
   2.402682e+01  -4.647649e+01
   6.502101e+01  -3.004597e+01
   2.846886e+01  -6.859699e+00
  -3.322856e+01   3.660850e+00
  -3.803423e+01  -9.187130e+00
   2.418955e+01  -3.160463e+01
   8.486651e+01  -2.621311e+01
