
 $NMID
 id='ANONYMOUS ', fmtdat='(2E16.6)'
 volume=1.0
 tramp=1.0
 $END
   1.535437e+03  -4.183359e+02
   1.415660e+03   7.042116e+02
   4.973619e+02   1.004391e+03
  -4.331504e+02   1.095891e+03
  -7.909938e+02   4.314299e+02
  -3.658426e+02  -1.290236e+02
   1.078997e+02  -1.695750e+02
   1.409062e+02   1.339026e+02
  -1.113497e+02   3.026630e+02
  -3.234498e+02   1.614736e+02
  -2.974938e+02  -1.897263e+02
  -1.130590e+02  -3.377955e+02
   8.357871e+01  -1.712102e+02
   1.314847e+02   1.509346e+02
  -4.629099e+00   2.818174e+02
  -1.794391e+02   9.689182e+01
  -2.199403e+02  -2.411936e+02
  -1.868534e+00  -4.059911e+02
   2.646521e+02  -2.568034e+02
   3.305738e+02   3.603085e+01
   1.479891e+02   1.965345e+02
  -2.360060e+01   1.548535e+02
   1.653934e+00   7.081009e+01
   1.368210e+02   1.325385e+02
   1.164345e+02   2.382974e+02
  -9.704717e+01   2.022731e+02
  -3.159151e+02  -8.379252e-01
  -2.981166e+02  -1.708204e+02
  -6.134205e+01  -1.792371e+02
   1.718036e+02  -4.784202e+01
   2.252030e+02   8.996065e+01
   8.217927e+01   1.732142e+02
  -1.300942e+02   1.626376e+02
  -2.295881e+02   6.868060e+01
  -1.614539e+02  -6.069121e+01
  -5.633840e+01  -1.242336e+02
  -3.830534e+01  -6.842948e+01
  -8.536065e+01   1.137140e+01
  -1.017884e+02  -1.184572e+01
  -2.494065e+01  -1.129825e+02
   7.539774e+01  -2.090715e+02
   1.243418e+02  -1.611844e+02
   8.747558e+01  -1.652094e+01
   4.543488e+01   9.185491e+01
  -1.841262e+01   4.036639e+01
  -3.435938e+01  -1.142364e+02
   5.809769e+01  -1.789342e+02
   2.079875e+02  -2.423182e+01
   2.563358e+02   1.940714e+02
   1.087576e+02   2.812154e+02
  -1.474689e+02   1.632290e+02
  -2.915272e+02  -7.455797e+00
  -2.141026e+02  -1.065710e+02
  -1.983490e+01  -1.132940e+02
   1.212945e+02  -9.031551e+01
   1.334382e+02  -4.192247e+01
   4.143335e+01   8.739409e+00
  -2.569227e+01   1.586168e+01
   1.212376e+01  -9.059775e+00
   1.063813e+02   5.034447e-01
   1.018456e+02   7.490343e+01
  -6.184326e+01   1.667628e+02
  -2.267977e+02   1.236067e+02
  -2.078489e+02  -7.640095e+01
   1.333410e+00  -2.501830e+02
   2.119770e+02  -2.376191e+02
   2.408360e+02  -6.713846e+01
   1.269290e+02   1.088232e+02
   3.850714e+01   1.765728e+02
   2.119605e+01   1.597558e+02
   2.243009e+01   1.365477e+02
  -3.955258e+01   1.163669e+02
  -1.229338e+02   7.542626e+01
  -1.667866e+02   6.977917e+00
  -1.321375e+02  -9.207078e+01
  -3.891917e+01  -1.525908e+02
   6.031001e+01  -1.011923e+02
   1.142927e+02   3.321529e+01
   7.142440e+01   1.481541e+02
  -4.674079e+01   1.439227e+02
  -1.492289e+02   2.020272e+01
  -1.738069e+02  -1.108203e+02
  -9.432397e+01  -1.640765e+02
   1.319598e+01  -1.458045e+02
   7.746081e+01  -1.086120e+02
   9.135622e+01  -8.217390e+01
   1.129099e+02  -6.241605e+01
   1.810517e+02  -2.363193e+01
   2.546413e+02   6.402664e+01
   2.058874e+02   1.840100e+02
  -5.094963e+00   2.728872e+02
  -2.282413e+02   2.482652e+02
  -2.980899e+02   1.032106e+02
  -1.684186e+02  -6.856106e+01
  -6.577287e+00  -1.392122e+02
   4.627521e+01  -1.004465e+02
  -1.119325e+01  -2.663925e+01
  -7.315743e+01  -5.696361e+00
  -5.431931e+01  -3.726053e+01
   8.884426e+00  -6.474282e+01
   5.353795e+01  -3.939138e+01
   4.075545e+01   3.183306e+01
  -2.240938e+01   6.231447e+01
  -9.734361e+01  -9.225451e+00
  -9.794332e+01  -1.527937e+02
   7.269520e+00  -2.300878e+02
   1.653268e+02  -1.526333e+02
   2.529664e+02   4.718145e+01
   1.795266e+02   1.975669e+02
   1.690817e+01   1.994814e+02
  -1.008708e+02   7.967084e+01
  -9.385221e+01  -1.519067e+01
  -1.209724e+01  -1.517292e+01
   2.491610e+01   4.262193e+01
  -1.957622e+01   6.492122e+01
  -8.226157e+01   2.830604e+01
  -7.447931e+01  -2.519589e+01
  -2.935362e+00  -2.988728e+01
   5.739374e+01   1.632285e+01
   1.934437e+01   6.883255e+01
  -1.031861e+02   6.304141e+01
  -1.968239e+02  -1.149249e+01
  -1.584062e+02  -1.189347e+02
  -7.979102e+00  -1.756659e+02
   1.333559e+02  -1.351136e+02
   1.588023e+02  -4.252238e+01
   7.302099e+01   3.242324e+01
  -2.202854e+01   3.545772e+01
  -2.738133e+01  -1.436218e+01
   4.128923e+01  -4.527521e+01
   1.071432e+02  -8.096110e+00
   1.004792e+02   6.644611e+01
   2.469657e+01   1.060091e+02
  -5.257967e+01   7.336334e+01
  -6.851210e+01   1.507061e+00
  -1.368505e+01  -2.432852e+01
   3.955357e+01   2.286880e+01
   1.571669e+01   8.635653e+01
  -8.345793e+01   8.640024e+01
  -1.505978e+02  -1.497655e-01
  -1.166851e+02  -9.825330e+01
   1.163224e+00  -1.371044e+02
   1.027538e+02  -8.993851e+01
   1.069874e+02  -3.692024e+00
   3.346970e+01   5.392058e+01
  -3.292395e+01   5.216972e+01
  -3.505957e+01   1.057887e+01
   1.067952e+01  -1.479617e+01
   3.267416e+01   3.907662e+00
  -7.903549e+00   3.054214e+01
  -6.911239e+01   1.012550e+01
  -8.044848e+01  -6.708246e+01
  -6.385491e+00  -1.283034e+02
   1.048712e+02  -1.059146e+02
   1.622914e+02  -5.256328e+00
   1.245690e+02   1.121876e+02
   1.943360e+01   1.487382e+02
  -6.679605e+01   1.010122e+02
  -8.460355e+01   1.756987e+01
  -4.837870e+01  -2.668876e+01
  -2.111616e+01  -1.662495e+01
  -3.433918e+01   1.016792e+01
  -6.106356e+01   2.844466e+00
  -4.727312e+01  -4.351715e+01
   2.304398e+01  -7.979496e+01
   8.867489e+01  -5.273920e+01
   8.457757e+01   3.254198e+01
  -7.183776e+00   9.705149e+01
  -1.183789e+02   6.405745e+01
  -1.399497e+02  -4.947513e+01
  -4.672988e+01  -1.447589e+02
   9.579078e+01  -1.416587e+02
   1.746756e+02  -3.833845e+01
   1.484324e+02   6.830098e+01
   5.405496e+01   1.044411e+02
  -2.681507e+01   7.642008e+01
  -4.771032e+01   4.392049e+01
  -3.488678e+01   4.098632e+01
  -3.119753e+01   6.183502e+01
  -6.065546e+01   5.924527e+01
  -9.040958e+01  -5.724047e+00
  -8.293557e+01  -9.617928e+01
  -1.901786e+01  -1.457507e+02
   6.749624e+01  -1.048739e+02
   1.088504e+02  -1.322238e+00
   7.422901e+01   8.722058e+01
  -6.155066e+00   9.973439e+01
  -5.750530e+01   4.474103e+01
  -4.397592e+01  -2.009846e+01
   5.925223e+00  -4.158743e+01
   2.545112e+01  -2.304145e+01
  -9.660594e+00  -3.001479e+00
  -5.420049e+01  -1.006723e+01
  -3.171358e+01  -2.955068e+01
   5.007910e+01  -2.887496e+01
   1.150002e+02   2.082654e+00
   8.975398e+01   5.004647e+01
  -7.499308e+00   7.321850e+01
  -9.049914e+01   4.876271e+01
  -9.273749e+01  -1.903524e+00
  -2.880967e+01  -4.321140e+01
   3.718284e+01  -3.637396e+01
   5.263192e+01   1.041517e+01
   1.859590e+01   5.397470e+01
  -2.781003e+01   5.101634e+01
  -4.986129e+01   5.083071e+00
  -4.580794e+01  -3.747147e+01
  -3.270023e+01  -3.425284e+01
  -2.879144e+01  -1.075244e+00
  -4.474931e+01   8.794055e-01
  -3.867371e+01  -4.848634e+01
   8.187782e+00  -1.064496e+02
   8.590384e+01  -1.038515e+02
   1.274965e+02  -2.442484e+01
   9.547769e+01   6.781587e+01
   5.667352e+00   9.524686e+01
  -6.253719e+01   5.338459e+01
  -4.805784e+01  -9.231944e+00
   2.947153e+01  -2.340266e+01
   8.160338e+01   1.864209e+01
   4.715777e+01   6.669463e+01
  -4.860323e+01   7.265448e+01
  -1.154785e+02   2.849711e+01
  -9.691838e+01  -2.773236e+01
  -1.532542e+01  -5.407048e+01
   4.132361e+01  -3.487176e+01
   3.024403e+01   6.297858e+00
  -3.277867e+01   2.531310e+01
  -6.364173e+01  -8.947691e+00
  -3.139372e+01  -7.242171e+01
   4.196676e+01  -1.023655e+02
   9.517755e+01  -5.421342e+01
   8.404054e+01   4.861395e+01
   1.717096e+01   1.172396e+02
  -5.150054e+01   8.858351e+01
  -6.865049e+01  -1.283088e+01
  -3.199168e+01  -8.086089e+01
   1.691549e+01  -6.365347e+01
   3.910519e+01  -5.655915e+00
   2.583734e+01   2.264615e+01
   5.031879e+00   4.281865e+00
   4.768716e+00  -1.092613e+01
   2.478880e+01   1.469981e+01
   3.930987e+01   5.597930e+01
   1.632986e+01   6.814715e+01
  -4.113198e+01   3.151112e+01
  -8.497844e+01  -1.600011e+01
  -7.318896e+01  -4.349024e+01
  -7.936086e+00  -3.873062e+01
   4.715087e+01  -2.187638e+01
   5.078460e+01  -2.274586e+00
   1.216134e+01   1.289037e+01
  -2.113023e+01   1.389620e+01
  -1.657938e+01   4.824091e+00
   5.491286e+00  -4.848775e+00
   9.316530e-01   1.391363e-01
  -3.716205e+01   7.773073e+00
  -6.093992e+01  -8.912265e+00
  -2.470560e+01  -5.402582e+01
   5.702914e+01  -8.341044e+01
   1.188393e+02  -5.089378e+01
   1.058652e+02   3.218514e+01
   3.078092e+01   1.028983e+02
  -4.706318e+01   1.042147e+02
  -7.582289e+01   4.662767e+01
  -5.557021e+01  -1.333937e+01
  -1.863679e+01  -2.805102e+01
  -4.172005e+00  -1.203747e+01
  -1.031223e+01  -6.670976e+00
  -1.956100e+01  -3.034610e+01
  -1.207486e+01  -5.709847e+01
   1.765657e+01  -4.866836e+01
   5.230385e+01   3.385370e+00
   5.733080e+01   5.862291e+01
   1.446909e+01   7.080501e+01
  -4.808426e+01   2.972019e+01
  -7.561701e+01  -3.399962e+01
  -3.210609e+01  -6.782552e+01
   4.237648e+01  -5.059257e+01
   7.283550e+01  -6.829295e-01
   3.388404e+01   4.016182e+01
  -2.200945e+01   4.612605e+01
  -3.095335e+01   1.843030e+01
   1.160182e+01  -7.394810e+00
   4.086984e+01  -6.413209e+00
   1.473690e+01   2.111108e+01
  -4.656275e+01   4.536509e+01
  -8.094867e+01   3.235606e+01
  -5.236274e+01  -1.711732e+01
   4.074852e+00  -5.995227e+01
   3.939221e+01  -5.729643e+01
   3.627419e+01  -1.062746e+01
   1.053836e+01   3.330953e+01
  -1.488165e+01   3.440969e+01
  -2.683717e+01  -1.445830e+00
  -2.020806e+01  -3.538096e+01
   2.070355e+00  -3.032538e+01
   2.380365e+01   9.123922e-01
   2.665353e+01   1.999729e+01
   1.081639e+01   6.907322e+00
  -5.066776e+00  -1.634164e+01
  -3.368896e-01  -1.345699e+01
   1.300982e+01   1.735981e+01
   1.011301e+01   3.961228e+01
  -1.566215e+01   2.482283e+01
  -3.506193e+01  -1.437053e+01
  -1.936392e+01  -3.919796e+01
   2.174728e+01  -2.266941e+01
   4.446720e+01   1.541646e+01
   1.893518e+01   3.796421e+01
  -3.531379e+01   2.996857e+01
  -6.389816e+01   3.239584e-01
  -3.605676e+01  -2.768016e+01
   1.719216e+01  -3.660292e+01
   4.409937e+01  -2.319167e+01
   2.336631e+01  -1.174132e+00
  -1.408862e+01   1.086765e+01
  -2.239883e+01   2.236446e+00
   8.193985e+00  -1.762015e+01
   4.206881e+01  -1.954676e+01
