
 $NMID
 id='ANONYMOUS ', fmtdat='(2E16.6)'
 volume=1.0
 tramp=1.0
 $END
  -5.648443e+02   1.802487e+02
  -6.912821e+02  -4.641232e+02
  -3.466395e+02  -4.716001e+02
   1.386697e+02  -5.643644e+02
   3.268849e+02  -2.596651e+02
   1.720814e+02  -4.662937e+01
  -2.115419e+01   5.656061e+01
  -5.288241e+01  -3.098185e+01
   3.725306e+01  -1.109393e+02
   1.291973e+02  -9.447300e+01
   1.110207e+02   3.105590e+01
   8.251100e+01   1.098030e+02
   1.106207e+01   8.933262e+01
  -2.450687e+01  -3.092384e+01
  -2.354377e+01  -9.219752e+01
   3.913989e+01  -4.990999e+01
   8.510151e+01   7.495301e+01
   2.764953e+01   1.675084e+02
  -9.614280e+01   1.193673e+02
  -1.386507e+02  -2.337671e+00
  -6.108318e+01  -7.680555e+01
   2.054880e+01  -6.091728e+01
   1.170837e+00  -2.153428e+01
  -6.867642e+01  -5.460916e+01
  -5.260878e+01  -1.253116e+02
   5.212176e+01  -9.005874e+01
   1.503549e+02   2.384645e+01
   1.082263e+02   1.231825e+02
  -3.569749e+00   8.129334e+01
  -8.003681e+01  -8.267846e+00
  -8.538584e+01  -6.672953e+01
  -2.100873e+01  -7.073272e+01
   5.719163e+01  -5.417019e+01
   9.054723e+01  -2.687499e+01
   6.211793e+01   1.111656e+01
   1.860453e+01   3.991951e+01
   2.567366e+01   1.580274e+01
   5.937414e+01  -4.812825e+00
   6.998632e+01   1.475551e+01
   6.233672e+00   7.145473e+01
  -5.418544e+01   9.777280e+01
  -5.625048e+01   7.032524e+01
  -1.423862e+01   4.750940e+00
   9.242775e+00  -2.075579e+01
  -1.772333e+00   1.363980e+01
  -1.476806e+01   6.633733e+01
  -3.821349e+01   7.835696e+01
  -8.207782e+01  -7.526235e+00
  -1.056247e+02  -9.284997e+01
  -6.072265e+01  -1.088721e+02
   4.095751e+01  -5.137558e+01
   1.114514e+02   1.844759e+00
   8.818626e+01   2.664255e+01
   1.378196e+01   2.209615e+01
  -4.389409e+01   2.682020e+01
  -5.031692e+01   1.553627e+01
  -2.114990e+01  -5.199988e-01
   1.735401e+01  -1.767698e+01
   6.593165e+00  -1.247417e+01
  -3.195534e+01  -7.518127e+00
  -3.961862e+01  -1.356694e+01
   1.264927e+01  -5.394780e+01
   8.199203e+01  -6.702556e+01
   9.546675e+01   7.488659e+00
   7.903689e+00   9.048086e+01
  -9.033173e+01   1.045337e+02
  -1.050134e+02   3.244708e+01
  -4.815682e+01  -4.584626e+01
  -6.704910e+00  -7.237301e+01
  -1.263064e+01  -5.167505e+01
  -3.226457e+01  -4.803172e+01
   2.131733e+00  -6.069725e+01
   5.153116e+01  -4.410678e+01
   7.802236e+01  -1.342958e+01
   5.729835e+01   3.045436e+01
   1.994310e+01   5.844606e+01
  -1.522527e+01   3.907453e+01
  -3.791709e+01  -1.529752e+01
  -1.819988e+01  -5.986495e+01
   2.708962e+01  -5.615217e+01
   5.868874e+01   3.641377e+00
   6.565636e+01   5.651374e+01
   2.746334e+01   6.501022e+01
  -9.830961e+00   4.710741e+01
  -2.387655e+01   3.946969e+01
  -2.504073e+01   4.093091e+01
  -3.768298e+01   3.818213e+01
  -7.320051e+01   8.156067e+00
  -1.053292e+02  -3.265724e+01
  -8.977477e+01  -6.909678e+01
   1.629222e+00  -9.968271e+01
   9.016239e+01  -1.075712e+02
   1.268176e+02  -6.321148e+01
   6.864196e+01   1.807495e+01
   6.375166e-01   5.777482e+01
  -1.884181e+01   4.653484e+01
   1.083079e+01   1.353032e+01
   3.609894e+01   6.662763e+00
   2.123712e+01   2.278149e+01
  -6.739738e+00   2.869482e+01
  -2.381869e+01   1.706160e+01
  -1.720671e+01  -1.429757e+01
   6.192382e+00  -2.320430e+01
   3.594097e+01  -4.935311e-02
   4.343008e+01   5.606028e+01
   4.122058e+00   9.132815e+01
  -5.543324e+01   6.658804e+01
  -1.126356e+02  -9.347874e+00
  -9.023922e+01  -8.829442e+01
  -8.936311e+00  -9.903937e+01
   5.205317e+01  -3.962991e+01
   5.027276e+01   5.545358e+00
   9.263921e+00   1.435759e+01
  -1.342061e+01  -1.553659e+01
   8.851160e+00  -2.785233e+01
   3.603801e+01  -1.440676e+01
   3.405844e+01   9.809785e+00
   4.048124e+00   9.906733e+00
  -2.545377e+01  -5.997611e+00
  -1.379462e+01  -2.716298e+01
   3.890130e+01  -2.634183e+01
   8.539867e+01  -1.156267e-01
   7.482315e+01   4.631968e+01
   1.224447e+01   7.328376e+01
  -5.434802e+01   5.768214e+01
  -6.572285e+01   1.637893e+01
  -2.852495e+01  -1.048533e+01
   1.397447e+01  -8.122905e+00
   1.178254e+01   1.178757e+01
  -1.922286e+01   1.695436e+01
  -4.530721e+01   1.520582e+00
  -4.691499e+01  -2.492139e+01
  -1.475232e+01  -3.980015e+01
   1.971122e+01  -3.189941e+01
   3.288104e+01  -4.647922e+00
   1.166270e+01   9.426921e+00
  -1.795010e+01  -6.790839e+00
  -1.418971e+01  -3.302223e+01
   3.208583e+01  -3.760848e+01
   6.420250e+01  -3.856781e+00
   5.297693e+01   3.402943e+01
   2.646555e+00   5.348064e+01
  -4.341486e+01   3.520515e+01
  -4.402220e+01   3.236097e+00
  -1.232950e+01  -1.883894e+01
   1.401177e+01  -1.925871e+01
   1.379989e+01  -4.602307e+00
  -5.080389e+00   5.558778e+00
  -1.601637e+01  -1.022167e+00
   8.989420e-01  -1.294139e+01
   2.662749e+01  -7.951209e+00
   3.694593e+01   2.252908e+01
   8.965860e+00   5.221417e+01
  -3.783128e+01   4.495035e+01
  -5.937619e+01   4.215181e+00
  -5.223140e+01  -4.236621e+01
  -1.342417e+01  -5.776138e+01
   2.113897e+01  -4.168385e+01
   2.906692e+01  -1.229198e+01
   1.820834e+01   6.609092e+00
   1.020346e+01   4.829382e+00
   1.736740e+01  -6.004569e+00
   2.770308e+01  -4.310372e+00
   2.229165e+01   1.350716e+01
  -5.711666e+00   3.429492e+01
  -3.389359e+01   2.950263e+01
  -3.721600e+01  -3.892944e+00
  -5.263694e+00  -3.625877e+01
   4.269871e+01  -3.336351e+01
   5.936870e+01   1.213642e+01
   2.925178e+01   5.578500e+01
  -3.387374e+01   6.452228e+01
  -7.744216e+01   2.014706e+01
  -6.985542e+01  -2.631056e+01
  -2.876374e+01  -4.269348e+01
   1.094682e+01  -3.072777e+01
   2.332428e+01  -1.797082e+01
   1.820010e+01  -1.574438e+01
   1.110291e+01  -2.281165e+01
   1.968219e+01  -2.475642e+01
   3.502657e+01  -2.710860e+00
   4.067678e+01   3.352442e+01
   1.662465e+01   5.891940e+01
  -2.155549e+01   4.828514e+01
  -4.477486e+01   7.388267e+00
  -3.582054e+01  -3.569602e+01
  -9.799660e-01  -4.601627e+01
   2.382860e+01  -2.530713e+01
   2.197118e+01   5.337215e+00
   1.327218e+00   1.799575e+01
  -9.351174e+00   1.410684e+01
   2.517185e+00   5.477987e+00
   2.458233e+01   3.386131e+00
   1.821727e+01   6.919454e+00
  -1.761372e+01   8.520024e+00
  -5.250265e+01   6.535650e+00
  -4.599694e+01  -1.370267e+01
  -3.455619e+00  -2.847810e+01
   3.511873e+01  -2.603086e+01
   4.332035e+01  -5.980463e+00
   1.912187e+01   1.470261e+01
  -1.113060e+01   1.641008e+01
  -2.365154e+01  -4.377355e-01
  -1.368679e+01  -1.943239e+01
   7.067361e+00  -2.235172e+01
   2.038203e+01  -5.137257e+00
   2.418161e+01   1.324847e+01
   1.986097e+01   1.644468e+01
   1.363769e+01   2.519416e+00
   1.901596e+01   1.132152e+00
   1.734204e+01   1.902701e+01
  -5.775768e-01   4.184666e+01
  -3.344777e+01   4.687498e+01
  -5.513143e+01   1.616724e+01
  -4.618242e+01  -2.348430e+01
  -6.654219e+00  -3.834888e+01
   2.371150e+01  -2.519935e+01
   2.073535e+01  -2.565746e-01
  -1.244434e+01   6.773060e+00
  -3.499864e+01  -5.441328e+00
  -2.236896e+01  -2.431370e+01
   1.976433e+01  -3.025576e+01
   4.969492e+01  -1.709951e+01
   4.161293e+01   1.842360e+00
   9.427101e+00   1.955167e+01
  -1.575631e+01   1.762742e+01
  -1.225707e+01   3.037823e+00
   1.379128e+01  -9.862572e+00
   2.581263e+01  -1.354488e+00
   1.609612e+01   2.496225e+01
  -1.151976e+01   4.481300e+01
  -3.797426e+01   3.122704e+01
  -3.898739e+01  -1.382474e+01
  -1.295648e+01  -4.996673e+01
   2.094418e+01  -4.132584e+01
   3.052731e+01   2.669555e+00
   1.597656e+01   3.336581e+01
  -6.264034e+00   2.794316e+01
  -1.877624e+01   3.438470e+00
  -1.330600e+01  -1.030141e+01
  -3.655231e+00  -1.951586e+00
  -3.342417e+00   3.275112e+00
  -8.644329e+00  -6.935919e+00
  -1.648326e+01  -2.281395e+01
  -1.096423e+01  -2.764168e+01
   1.122485e+01  -1.428328e+01
   3.204221e+01   2.477266e+00
   3.182097e+01   1.212507e+01
   6.822129e+00   1.201703e+01
  -1.803394e+01   9.201353e+00
  -2.238754e+01   3.957695e+00
  -8.373846e+00  -3.303843e+00
   7.797916e+00  -6.489124e+00
   7.638638e+00  -2.253233e+00
  -2.752604e+00   2.027902e+00
  -3.268618e+00  -3.623991e-02
   1.281869e+01  -7.177250e+00
   2.494916e+01  -1.943726e+00
   1.384575e+01   2.017540e+01
  -1.869449e+01   3.631952e+01
  -4.501279e+01   2.257138e+01
  -4.380723e+01  -9.066934e+00
  -1.493881e+01  -3.792784e+01
   1.755697e+01  -4.053394e+01
   3.035283e+01  -1.982495e+01
   2.303139e+01   3.356582e+00
   7.438176e+00   8.472038e+00
   1.814334e+00   3.874277e+00
   4.873346e+00   2.926466e+00
   9.892483e+00   1.434320e+01
   6.954148e+00   2.268036e+01
  -3.421547e+00   1.956120e+01
  -1.789906e+01   9.609220e-01
  -2.428061e+01  -1.840559e+01
  -1.117760e+01  -2.493767e+01
   1.420335e+01  -1.376324e+01
   2.891754e+01   7.591044e+00
   1.534193e+01   2.343569e+01
  -1.368683e+01   2.064154e+01
  -2.877285e+01   3.138344e+00
  -1.456382e+01  -1.536988e+01
   8.351464e+00  -2.186284e+01
   1.451808e+01  -1.033812e+01
  -1.887544e+00   2.808101e+00
  -1.623354e+01   7.020570e+00
  -7.284366e+00  -4.617846e+00
   1.824646e+01  -1.859249e+01
   3.111443e+01  -1.713686e+01
   2.008057e+01   1.694738e+00
   9.273594e-01   2.437060e+01
  -1.340401e+01   2.779766e+01
  -1.237198e+01   9.538735e+00
  -7.452328e+00  -1.102202e+01
   2.098668e+00  -1.507239e+01
   9.639434e+00  -2.468541e+00
   1.069600e+01   1.169306e+01
   3.901191e+00   1.294466e+01
  -9.165759e+00   2.231077e+00
  -1.475378e+01  -6.160547e+00
  -7.745990e+00  -3.056518e+00
   4.007647e+00   4.910994e+00
   4.138451e+00   5.829866e+00
  -2.798468e+00  -4.331702e+00
  -7.085795e+00  -1.336401e+01
   2.503023e+00  -1.062945e+01
   1.343878e+01   3.805982e+00
   9.891376e+00   1.499044e+01
  -6.460655e+00   1.029695e+01
  -1.872878e+01  -3.041424e+00
  -1.002490e+01  -1.252274e+01
   1.125150e+01  -1.265427e+01
   2.440892e+01  -3.713662e+00
   1.595657e+01   7.811661e+00
  -5.487624e+00   1.376208e+01
  -1.773452e+01   1.207022e+01
  -1.025053e+01   3.395028e+00
   4.704576e+00  -3.600045e+00
   9.322185e+00  -3.452443e+00
  -1.200075e+00   3.931428e+00
  -1.467749e+01   8.303107e+00
