
 $NMID
 id='ANONYMOUS ', fmtdat='(2E16.6)'
 volume=1.0
 tramp=1.0
 $END
   3.327048e+03   1.253426e+02
   2.103985e+03   1.811110e+03
  -1.127187e+02   2.040794e+03
  -1.270493e+03   1.097920e+03
  -8.882528e+02   1.304058e+02
   9.347042e+00  -2.243589e+02
   3.620423e+02   8.909466e+01
   4.661718e+01   5.512257e+02
  -4.574010e+02   5.757219e+02
  -6.181864e+02   1.087464e+02
  -4.120598e+02  -5.119714e+02
   3.939959e-01  -6.491778e+02
   3.030831e+02  -1.919702e+02
   2.360443e+02   4.202673e+02
  -1.198717e+02   5.388820e+02
  -3.926042e+02   6.266723e+01
  -2.708487e+02  -4.819278e+02
   1.216863e+02  -5.967885e+02
   4.564230e+02  -2.573350e+02
   4.295556e+02   1.789130e+02
   1.316886e+02   3.588620e+02
  -1.161650e+02   2.429126e+02
  -7.241574e+01   6.013002e+01
   1.611515e+02   6.624516e+01
   2.925894e+02   2.621266e+02
   2.655112e+01   3.755862e+02
  -4.731405e+02   1.757709e+02
  -6.072120e+02  -1.912046e+02
  -2.254105e+02  -3.851495e+02
   3.459891e+02  -2.038563e+02
   5.103132e+02   1.591309e+02
   1.870601e+02   3.713518e+02
  -2.718839e+02   3.509132e+02
  -4.586876e+02   1.273108e+02
  -3.124654e+02  -1.591805e+02
  -6.516016e+01  -3.086386e+02
   5.589069e+01  -1.870797e+02
  -2.893370e+01   1.041355e+02
  -2.092978e+02   1.710233e+02
  -2.282551e+02  -1.558308e+02
   6.357364e+00  -5.223607e+02
   2.974137e+02  -4.455448e+02
   3.396626e+02   4.109188e+01
   1.048440e+02   3.467080e+02
  -1.633812e+02   1.356306e+02
  -1.860104e+02  -2.860336e+02
   1.190184e+02  -4.010673e+02
   4.331920e+02  -5.265189e+01
   4.763435e+02   3.640056e+02
   1.557110e+02   4.863015e+02
  -2.977400e+02   2.601397e+02
  -5.111685e+02  -6.474126e+01
  -3.232443e+02  -2.582704e+02
   6.685357e+01  -2.241652e+02
   2.821257e+02  -6.813916e+01
   1.940687e+02   3.334119e+01
  -6.744220e+00   1.414664e+01
  -4.594258e+01  -6.041326e+01
   1.058927e+02  -4.861089e+01
   2.204617e+02   6.076012e+01
   1.212966e+02   1.857591e+02
  -1.356354e+02   2.304791e+02
  -3.231355e+02   1.478362e+02
  -2.627149e+02  -7.343903e+01
  -2.879599e-01  -2.996687e+02
   2.779420e+02  -3.554517e+02
   3.603260e+02  -1.556128e+02
   2.385468e+02   1.710808e+02
   3.988832e+01   3.646296e+02
  -5.688919e+01   3.125454e+02
  -3.436777e+01   1.542337e+02
  -3.009778e+01   9.366372e+01
  -1.350129e+02   1.141066e+02
  -2.507751e+02   5.809559e+01
  -2.382018e+02  -1.258859e+02
  -7.967521e+01  -2.652385e+02
   1.030654e+02  -1.970969e+02
   1.961393e+02   4.359491e+01
   1.358357e+02   2.417575e+02
  -4.144416e+01   2.434823e+02
  -2.355472e+02   6.687418e+01
  -3.028305e+02  -1.608605e+02
  -1.679602e+02  -2.825258e+02
   5.231018e+01  -2.550991e+02
   1.619469e+02  -1.510964e+02
   1.398631e+02  -7.876754e+01
   1.510502e+02  -6.699915e+01
   2.848296e+02  -2.443570e+01
   4.094452e+02   1.171152e+02
   3.030436e+02   3.148633e+02
  -4.873732e+01   4.352502e+02
  -3.905909e+02   3.753381e+02
  -4.611107e+02   1.619031e+02
  -2.816380e+02  -1.108219e+02
  -1.385489e+01  -2.533367e+02
   9.798636e+01  -1.932068e+02
   2.067494e+01  -3.096622e+01
  -1.059554e+02   4.638607e+01
  -1.276302e+02  -3.328184e+01
  -3.513802e-01  -1.403546e+02
   1.208679e+02  -9.709275e+01
   1.034816e+02   5.898816e+01
  -4.222874e+01   1.297084e+02
  -1.620275e+02  -2.714098e+00
  -1.353584e+02  -2.287874e+02
   3.686593e+01  -3.253779e+02
   2.261076e+02  -1.943135e+02
   3.352926e+02   6.632180e+01
   2.602708e+02   2.710001e+02
   4.788965e+01   2.783003e+02
  -1.365125e+02   1.348643e+02
  -1.545181e+02  -1.077635e+01
  -3.364758e+01  -3.014950e+01
   5.472660e+01   5.634436e+01
  -1.089861e+00   1.104167e+02
  -1.201732e+02   6.491177e+01
  -1.432394e+02  -3.321666e+01
  -2.367930e+01  -5.924036e+01
   8.964441e+01   1.373665e+01
   4.296929e+01   1.005441e+02
  -1.462872e+02   9.588194e+01
  -2.991414e+02  -1.947270e+01
  -2.563840e+02  -1.678631e+02
  -2.713619e+01  -2.647620e+02
   2.056014e+02  -2.332857e+02
   2.648158e+02  -8.636617e+01
   1.396742e+02   5.358405e+01
  -2.935208e+01   7.887577e+01
  -6.362463e+01  -7.893939e+00
   5.439962e+01  -7.986955e+01
   1.834032e+02  -2.856209e+01
   1.835858e+02   1.082343e+02
   5.001827e+01   1.860279e+02
  -9.179247e+01   1.314738e+02
  -1.269356e+02   1.391789e+01
  -4.866655e+01  -4.138924e+01
   4.140984e+01   1.650404e+01
   2.925323e+01   1.046983e+02
  -9.740497e+01   1.179026e+02
  -2.058865e+02   1.551343e+01
  -1.800661e+02  -1.282219e+02
  -1.217374e+01  -2.043033e+02
   1.505102e+02  -1.492853e+02
   1.713473e+02  -1.401660e+01
   5.568238e+01   9.215827e+01
  -5.633122e+01   9.164629e+01
  -6.449897e+01   2.399610e+01
   4.609452e-01  -2.380847e+01
   3.717229e+01  -6.980246e+00
  -9.627386e+00   2.626320e+01
  -8.659077e+01   4.364608e+00
  -1.042862e+02  -8.796681e+01
  -1.402033e+01  -1.714169e+02
   1.364487e+02  -1.498612e+02
   2.268132e+02  -1.344305e+01
   1.874190e+02   1.593429e+02
   3.335184e+01   2.266278e+02
  -9.988857e+01   1.557733e+02
  -1.257186e+02   2.816686e+01
  -7.113460e+01  -4.478850e+01
  -3.324564e+01  -2.918224e+01
  -5.537188e+01   1.448704e+01
  -8.509594e+01   6.690985e+00
  -5.519719e+01  -5.484035e+01
   4.006428e+01  -1.031228e+02
   1.176842e+02  -6.472722e+01
   1.075566e+02   4.036906e+01
  -1.306435e+01   1.245893e+02
  -1.595822e+02   8.895911e+01
  -1.978555e+02  -6.305266e+01
  -8.282813e+01  -2.067233e+02
   1.241515e+02  -2.147288e+02
   2.620706e+02  -7.020420e+01
   2.378063e+02   9.323812e+01
   9.273853e+01   1.647233e+02
  -4.325344e+01   1.283819e+02
  -8.678120e+01   7.070771e+01
  -6.483128e+01   6.222253e+01
  -5.730576e+01   8.790881e+01
  -8.348097e+01   7.773540e+01
  -1.274216e+02  -1.659817e+01
  -1.144235e+02  -1.531774e+02
  -2.411311e+01  -2.233034e+02
   1.004929e+02  -1.632113e+02
   1.679300e+02  -7.745965e+00
   1.206857e+02   1.251403e+02
   7.857603e+00   1.522075e+02
  -7.600963e+01   8.016267e+01
  -6.181117e+01  -1.300941e+01
   2.447066e+00  -5.307047e+01
   2.781045e+01  -3.640955e+01
  -2.311855e+01  -1.230409e+01
  -7.929368e+01  -1.645623e+01
  -4.764803e+01  -3.869178e+01
   6.989434e+01  -3.761754e+01
   1.656432e+02   7.343361e+00
   1.345310e+02   6.715844e+01
   3.073719e-01   9.653226e+01
  -1.307572e+02   7.209589e+01
  -1.423909e+02   4.371829e+00
  -4.794696e+01  -4.751783e+01
   5.271556e+01  -4.311541e+01
   7.540562e+01   1.589459e+01
   2.200339e+01   6.867795e+01
  -4.284873e+01   6.219200e+01
  -6.585064e+01   2.825914e+00
  -5.483542e+01  -4.797882e+01
  -4.520601e+01  -3.881011e+01
  -5.302857e+01   2.364710e+00
  -6.628732e+01  -2.431812e+00
  -4.698756e+01  -7.173868e+01
   2.537174e+01  -1.485260e+02
   1.269063e+02  -1.448172e+02
   1.783279e+02  -3.390157e+01
   1.298925e+02   9.056302e+01
   5.435843e+00   1.309435e+02
  -8.499811e+01   6.926293e+01
  -6.125322e+01  -9.044065e+00
   5.497275e+01  -2.083419e+01
   1.281160e+02   4.036751e+01
   6.808291e+01   1.056511e+02
  -8.249417e+01   1.044868e+02
  -1.812829e+02   3.644647e+01
  -1.517484e+02  -4.339762e+01
  -2.947970e+01  -8.587186e+01
   6.494875e+01  -6.045584e+01
   5.145686e+01   1.522241e+00
  -3.677518e+01   3.171832e+01
  -8.675438e+01  -1.520295e+01
  -3.754825e+01  -1.072754e+02
   7.595265e+01  -1.461973e+02
   1.523528e+02  -6.702863e+01
   1.207685e+02   8.535529e+01
   1.019828e+01   1.845241e+02
  -8.463619e+01   1.347776e+02
  -1.023134e+02  -1.056958e+01
  -5.214485e+01  -1.165486e+02
   1.339913e+01  -9.871880e+01
   4.878209e+01  -1.546465e+01
   4.362033e+01   3.056858e+01
   1.828814e+01   6.810722e+00
   8.574106e+00  -1.747593e+01
   2.807055e+01   2.164086e+01
   5.205294e+01   8.931138e+01
   2.820697e+01   1.052107e+02
  -5.536676e+01   4.006622e+01
  -1.305055e+02  -3.711368e+01
  -1.193018e+02  -6.728814e+01
  -1.901338e+01  -5.085892e+01
   7.603560e+01  -2.564306e+01
   8.475437e+01  -8.767113e+00
   2.060252e+01   8.168293e+00
  -3.179537e+01   2.016343e+01
  -1.998573e+01   1.534661e+01
   1.352195e+01  -1.048792e+00
  -3.564077e+00  -4.861381e+00
  -6.731181e+01   5.694674e-01
  -9.196230e+01  -1.985672e+01
  -2.248999e+01  -7.863238e+01
   1.029238e+02  -1.154936e+02
   1.773400e+02  -6.322040e+01
   1.427904e+02   5.355359e+01
   3.043930e+01   1.518747e+02
  -7.630287e+01   1.498353e+02
  -1.123275e+02   6.373994e+01
  -7.934693e+01  -1.912500e+01
  -2.671837e+01  -3.803633e+01
  -1.849501e+00  -1.304653e+01
  -1.297564e+01  -6.804852e+00
  -3.071814e+01  -4.789190e+01
  -1.808674e+01  -9.010298e+01
   2.893396e+01  -7.051200e+01
   7.744737e+01   1.490789e+01
   7.707895e+01   9.863624e+01
   1.451575e+01   1.066179e+02
  -7.166767e+01   3.070025e+01
  -1.018199e+02  -6.316755e+01
  -3.887554e+01  -9.857410e+01
   5.954405e+01  -6.337697e+01
   1.012613e+02   4.487039e+00
   4.536560e+01   5.447430e+01
  -3.148782e+01   5.932217e+01
  -3.622815e+01   2.897172e+01
   2.531507e+01  -5.021750e+00
   6.654476e+01  -7.748109e+00
   1.800956e+01   2.667419e+01
  -7.629212e+01   6.398827e+01
  -1.155564e+02   5.646575e+01
  -6.919732e+01  -1.208583e+01
   1.126268e+01  -8.230505e+01
   5.317588e+01  -8.198307e+01
   3.887457e+01  -1.413865e+01
   4.522687e+00   4.983589e+01
  -2.245616e+01   4.440945e+01
  -3.433716e+01  -1.175840e+01
  -2.670338e+01  -5.283608e+01
  -4.590696e-02  -3.715811e+01
   3.223240e+01   4.725472e+00
   3.948148e+01   2.403127e+01
   1.958451e+01   5.481147e+00
  -5.294890e+00  -1.775370e+01
  -8.038876e+00  -7.114347e+00
   3.593362e+00   2.758233e+01
   4.716420e-01   4.754848e+01
  -2.422156e+01   1.960132e+01
  -3.723616e+01  -3.382483e+01
  -1.130063e+01  -5.762998e+01
   3.949213e+01  -2.511901e+01
   6.065904e+01   3.226390e+01
   1.999112e+01   5.914056e+01
  -5.208019e+01   3.698032e+01
  -8.741991e+01  -7.432252e+00
  -4.962536e+01  -4.083715e+01
   2.462899e+01  -4.508200e+01
   6.212499e+01  -2.821407e+01
   2.829499e+01  -6.889644e+00
  -2.588080e+01   2.043797e+00
  -3.061289e+01  -6.597955e+00
   2.381241e+01  -2.336689e+01
   7.551740e+01  -1.906057e+01
