
 $NMID
 id='ANONYMOUS ', fmtdat='(2E16.6)'
 volume=1.0
 tramp=1.0
 $END
  -4.200592e+03  -4.655760e+02
  -2.477091e+03  -2.816826e+03
   8.634560e+02  -2.608038e+03
   2.072983e+03  -6.962083e+02
   8.709449e+02   7.130573e+02
  -6.224863e+02   4.900690e+02
  -8.210081e+02  -5.042231e+02
   6.027820e+01  -1.023647e+03
   8.557641e+02  -6.827855e+02
   9.306540e+02   1.787533e+02
   3.963499e+02   8.613046e+02
  -2.912764e+02   8.498869e+02
  -6.257527e+02   7.369437e+01
  -3.185045e+02  -7.208115e+02
   3.040169e+02  -6.898152e+02
   5.734137e+02   5.385547e+01
   2.083617e+02   6.688805e+02
  -3.474060e+02   5.975614e+02
  -5.537369e+02   5.982381e+01
  -3.578289e+02  -3.498696e+02
  -2.068873e-01  -4.224920e+02
   2.496971e+02  -2.488631e+02
   2.037703e+02  -2.935705e+00
  -1.229339e+02   9.244320e+01
  -4.012398e+02  -1.262207e+02
  -1.854043e+02  -4.320156e+02
   4.486489e+02  -3.845464e+02
   8.006999e+02   1.004580e+02
   3.930754e+02   5.513470e+02
  -3.923068e+02   4.520323e+02
  -6.993873e+02  -7.434866e+01
  -3.121048e+02  -4.915333e+02
   2.893280e+02  -4.908283e+02
   5.496850e+02  -1.636871e+02
   3.943626e+02   2.438932e+02
   4.969221e+01   4.430361e+02
  -1.837337e+02   2.429495e+02
  -1.349806e+02  -2.263030e+02
   2.078199e+02  -3.902629e+02
   4.294817e+02   6.939199e+01
   1.844408e+02   6.660430e+02
  -3.551348e+02   6.483213e+02
  -5.712464e+02  -2.833676e+01
  -2.053648e+02  -5.299774e+02
   2.942102e+02  -2.934126e+02
   3.321689e+02   2.874722e+02
  -9.775594e+01   5.053537e+02
  -5.046999e+02   1.066350e+02
  -5.035793e+02  -4.012334e+02
  -1.187491e+02  -5.540728e+02
   3.758525e+02  -3.105803e+02
   5.890807e+02   1.045053e+02
   3.349432e+02   3.923222e+02
  -1.589940e+02   3.433125e+02
  -4.240988e+02   3.490623e+01
  -2.239966e+02  -1.949746e+02
   1.100980e+02  -1.001838e+02
   1.318216e+02   1.401637e+02
  -1.514530e+02   1.589634e+02
  -3.082881e+02  -8.914489e+01
  -1.167171e+02  -2.808360e+02
   1.950633e+02  -2.284358e+02
   3.080795e+02  -5.475589e+01
   1.928745e+02   8.152377e+01
  -1.854395e+01   2.091453e+02
  -2.151436e+02   2.959041e+02
  -3.314160e+02   1.820861e+02
  -2.684167e+02  -1.484735e+02
  -4.640190e+01  -4.179364e+02
   1.334925e+02  -3.399000e+02
   1.178114e+02  -8.543699e+01
   1.552108e+01   1.889108e+01
   3.071977e+01  -8.157509e+01
   1.856684e+02  -1.190851e+02
   2.680421e+02   5.747982e+01
   1.449194e+02   2.600084e+02
  -7.396353e+01   2.423936e+02
  -2.182444e+02   8.047073e+00
  -1.809233e+02  -2.273446e+02
   1.338143e+01  -2.787124e+02
   2.526293e+02  -1.044813e+02
   3.332545e+02   1.693932e+02
   1.615913e+02   3.370768e+02
  -1.116294e+02   2.845324e+02
  -2.245647e+02   9.650151e+01
  -1.371990e+02  -1.361266e+01
  -8.312257e+01   2.201024e+01
  -2.187562e+02   4.736398e+01
  -3.753379e+02  -7.646573e+01
  -3.056072e+02  -2.865600e+02
   2.739367e+01  -4.204450e+02
   3.752070e+02  -3.771814e+02
   4.949732e+02  -1.624690e+02
   3.179317e+02   1.057622e+02
   3.335486e+01   2.809603e+02
  -1.432513e+02   2.320119e+02
  -8.564517e+01   2.011377e+01
   1.098374e+02  -1.069633e+02
   1.940723e+02   1.047466e+01
   4.850105e+01   1.909475e+02
  -1.579349e+02   1.612698e+02
  -1.689426e+02  -6.671837e+01
   2.389486e+01  -1.894539e+02
   1.854951e+02  -2.646108e+01
   1.455754e+02   2.415512e+02
  -4.536256e+01   3.280662e+02
  -2.176691e+02   1.685901e+02
  -2.969572e+02  -6.647360e+01
  -2.386896e+02  -2.385558e+02
  -6.434892e+01  -2.549480e+02
   1.213669e+02  -1.428582e+02
   1.686113e+02   2.075714e+00
   4.561526e+01   4.999082e+01
  -7.278870e+01  -3.172702e+01
  -3.049447e+01  -1.177106e+02
   1.201008e+02  -9.807370e+01
   1.699752e+02   1.415755e+01
   5.953819e+01   7.218826e+01
  -7.410423e+01   1.947917e+01
  -5.472440e+01  -6.409927e+01
   1.037398e+02  -7.839495e+01
   2.491661e+02   8.657909e-01
   2.399278e+02   1.338270e+02
   5.256332e+01   2.422291e+02
  -1.785159e+02   2.397860e+02
  -2.677938e+02   1.055196e+02
  -1.597970e+02  -6.147893e+01
   2.203253e+01  -1.076723e+02
   8.321117e+01  -8.607277e+00
  -3.305431e+01   9.336206e+01
  -1.808850e+02   4.745491e+01
  -1.929402e+02  -1.025376e+02
  -5.483200e+01  -1.964856e+02
   9.804489e+01  -1.465912e+02
   1.425154e+02  -2.066197e+01
   6.771939e+01   5.085794e+01
  -2.974910e+01   1.339130e+01
  -4.217364e+01  -7.369853e+01
   5.828233e+01  -1.135929e+02
   1.806988e+02  -3.314266e+01
   1.778242e+02   1.094275e+02
   1.941087e+01   1.985737e+02
  -1.537336e+02   1.450539e+02
  -1.817040e+02  -9.307949e-01
  -5.810843e+01  -1.116595e+02
   6.805637e+01  -1.053563e+02
   8.547925e+01  -2.877286e+01
   2.171026e+01   2.699691e+01
  -2.019111e+01   2.109429e+01
   5.237539e+00  -4.671625e+00
   5.851267e+01   5.888987e+00
   7.844497e+01   7.238423e+01
   1.240489e+01   1.447565e+02
  -1.140535e+02   1.384265e+02
  -2.083817e+02   1.981835e+01
  -1.870622e+02  -1.421869e+02
  -3.698850e+01  -2.239593e+02
   1.062234e+02  -1.569850e+02
   1.307621e+02  -2.121418e+01
   6.543118e+01   5.737936e+01
   2.175399e+01   3.807517e+01
   4.340806e+01  -9.795860e+00
   6.976439e+01  -7.215129e+00
   3.764391e+01   4.241943e+01
  -4.012753e+01   7.810673e+01
  -9.130351e+01   4.585364e+01
  -7.874571e+01  -3.223125e+01
   1.102253e+01  -9.740352e+01
   1.257918e+02  -7.575474e+01
   1.782932e+02   4.728714e+01
   9.398970e+01   1.822891e+02
  -9.378901e+01   2.038872e+02
  -2.411965e+02   8.213684e+01
  -2.357834e+02  -8.475051e+01
  -1.007629e+02  -1.636213e+02
   3.889599e+01  -1.333700e+02
   9.107601e+01  -7.158214e+01
   7.299523e+01  -5.926355e+01
   6.252403e+01  -7.665452e+01
   8.553486e+01  -6.136450e+01
   1.160573e+02   2.242248e+01
   1.016789e+02   1.406478e+02
   2.428440e+01   2.039408e+02
  -9.138454e+01   1.604408e+02
  -1.607724e+02   2.006835e+01
  -1.255614e+02  -1.108742e+02
  -1.770572e+01  -1.482781e+02
   6.274273e+01  -8.579816e+01
   5.743105e+01  -3.766157e-01
   8.611784e+00   4.061893e+01
  -8.955738e+00   3.228445e+01
   2.929482e+01   1.714691e+01
   6.569044e+01   2.037525e+01
   4.046687e+01   3.506728e+01
  -5.504798e+01   3.284224e+01
  -1.398917e+02   3.139606e+00
  -1.283894e+02  -4.627236e+01
  -1.585268e+01  -8.286983e+01
   1.058370e+02  -6.746281e+01
   1.314308e+02  -7.438750e+00
   4.823439e+01   4.338380e+01
  -5.081447e+01   3.531161e+01
  -6.839826e+01  -2.004207e+01
  -7.597510e+00  -6.178351e+01
   4.979837e+01  -4.664244e+01
   5.512757e+01   4.937719e+00
   3.622299e+01   4.483344e+01
   3.735523e+01   3.375940e+01
   5.642662e+01   1.708720e+00
   6.203842e+01   3.890511e+00
   3.136683e+01   6.182085e+01
  -3.393949e+01   1.285603e+02
  -1.126081e+02   1.252931e+02
  -1.514774e+02   2.606316e+01
  -1.086184e+02  -8.998384e+01
  -2.652771e+00  -1.164228e+02
   7.642976e+01  -5.240237e+01
   5.382584e+01   1.480840e+01
  -5.087742e+01   1.755897e+01
  -1.220107e+02  -4.158121e+01
  -6.526996e+01  -1.013200e+02
   7.518032e+01  -1.004226e+02
   1.719636e+02  -4.147796e+01
   1.516801e+02   3.513575e+01
   3.505576e+01   8.109185e+01
  -5.860186e+01   6.455459e+01
  -4.924440e+01   6.521800e+00
   3.481269e+01  -2.531874e+01
   8.057944e+01   2.151478e+01
   2.538064e+01   1.045043e+02
  -8.803837e+01   1.292045e+02
  -1.511096e+02   4.131214e+01
  -1.066343e+02  -9.550075e+01
   2.644753e+00  -1.711933e+02
   8.345853e+01  -1.172096e+02
   9.210936e+01   1.224026e+01
   4.980500e+01   1.071105e+02
  -7.524347e+00   9.498055e+01
  -4.293056e+01   1.805242e+01
  -4.425912e+01  -3.001747e+01
  -2.076051e+01  -9.149186e+00
  -4.576043e+00   1.778600e+01
  -2.074101e+01  -1.255115e+01
  -4.975310e+01  -8.205533e+01
  -3.358973e+01  -1.035838e+02
   4.563357e+01  -4.328845e+01
   1.245442e+02   3.976317e+01
   1.161249e+02   6.958074e+01
   1.562639e+01   4.752361e+01
  -7.922735e+01   1.710397e+01
  -8.193509e+01   4.295978e+00
  -1.276065e+01  -6.379627e+00
   3.402204e+01  -1.805489e+01
   1.442213e+01  -1.587598e+01
  -1.589982e+01  -5.311275e-01
   6.127687e+00   8.673580e+00
   6.728392e+01   8.909060e+00
   8.021869e+01   2.555551e+01
   4.099122e+00   6.959413e+01
  -1.122543e+02   9.562288e+01
  -1.723813e+02   4.189592e+01
  -1.300320e+02  -6.826242e+01
  -1.763134e+01  -1.499146e+02
   8.255952e+01  -1.359795e+02
   1.108474e+02  -5.085913e+01
   7.328152e+01   2.232914e+01
   2.141760e+01   3.351781e+01
  -1.947098e+00   8.665483e+00
   8.042870e+00   3.316230e+00
   2.522483e+01   4.320472e+01
   1.546067e+01   8.152793e+01
  -2.797943e+01   6.275900e+01
  -7.076911e+01  -2.247635e+01
  -6.422179e+01  -1.021362e+02
   4.576197e-01  -9.945665e+01
   7.406553e+01  -1.628141e+01
   8.787602e+01   7.304678e+01
   2.368069e+01   9.317099e+01
  -6.205312e+01   4.617435e+01
  -8.735811e+01  -1.385845e+01
  -3.201814e+01  -4.726241e+01
   3.164507e+01  -4.311076e+01
   2.677833e+01  -2.188526e+01
  -3.318181e+01  -6.012764e-01
  -6.247148e+01   2.060733e+00
  -1.041908e+01  -2.296541e+01
   7.190064e+01  -5.196460e+01
   1.007160e+02  -4.675204e+01
   5.547177e+01   1.063865e+01
  -1.644389e+01   7.147051e+01
  -4.975530e+01   6.988852e+01
  -3.401410e+01   6.929469e+00
   1.115733e+00  -5.005950e+01
   2.717069e+01  -3.784573e+01
   3.283867e+01   1.745914e+01
   2.047367e+01   4.998074e+01
  -5.102725e+00   3.036240e+01
  -2.882246e+01  -8.570031e+00
  -3.487267e+01  -2.011064e+01
  -1.970970e+01  -2.665055e+00
  -2.898492e-01   1.037743e+01
   7.342431e+00  -3.088242e+00
   9.081077e+00  -3.244138e+01
   1.690709e+01  -3.969138e+01
   2.818972e+01  -5.301639e+00
   2.365575e+01   4.079804e+01
  -4.051817e+00   5.416906e+01
  -3.974580e+01   1.624845e+01
  -4.817390e+01  -3.824759e+01
  -9.893582e+00  -5.734364e+01
   5.193836e+01  -2.987716e+01
   8.131641e+01   1.681773e+01
   4.460893e+01   4.253354e+01
  -2.744596e+01   3.870497e+01
  -5.980050e+01   1.814040e+01
  -2.141065e+01   2.509617e+00
   3.274829e+01   3.944448e+00
   3.241362e+01   1.784766e+01
  -2.984321e+01   2.761455e+01
  -8.169318e+01   1.233559e+01
