
 $NMID
 id='ANONYMOUS ', fmtdat='(2E16.6)'
 volume=1.0
 tramp=1.0
 $END
  -4.528001e+03  -1.877055e+01
  -2.747010e+03  -2.716487e+03
   8.810462e+02  -2.922231e+03
   2.198500e+03  -8.754850e+02
   9.122612e+02   7.332289e+02
  -7.170660e+02   6.236449e+02
  -8.863550e+02  -5.064909e+02
   6.256248e+01  -1.124269e+03
   8.821737e+02  -7.368423e+02
   9.323007e+02   1.680055e+02
   4.450033e+02   9.219903e+02
  -2.749794e+02   9.125740e+02
  -6.908966e+02   1.038896e+02
  -3.945378e+02  -7.705124e+02
   2.920394e+02  -7.729639e+02
   6.310237e+02   2.762832e+01
   2.659969e+02   7.214979e+02
  -3.559948e+02   6.389020e+02
  -6.076894e+02   7.572739e+01
  -3.959917e+02  -3.705373e+02
  -1.085492e+01  -4.451764e+02
   2.476650e+02  -2.756609e+02
   2.181433e+02  -2.831071e+01
  -1.103161e+02   9.869991e+01
  -4.047664e+02  -1.074094e+02
  -1.971167e+02  -4.513788e+02
   4.780619e+02  -4.183942e+02
   8.596985e+02   1.068259e+02
   4.317585e+02   5.902043e+02
  -4.070884e+02   5.142371e+02
  -7.641648e+02  -3.302075e+01
  -3.697119e+02  -4.972209e+02
   2.786047e+02  -5.398594e+02
   5.828346e+02  -2.075174e+02
   4.440120e+02   2.318811e+02
   7.337717e+01   4.945549e+02
  -2.181899e+02   2.860073e+02
  -1.951346e+02  -2.298219e+02
   1.770931e+02  -4.556406e+02
   4.772573e+02   1.042811e+01
   2.651566e+02   7.018914e+02
  -3.443039e+02   7.335948e+02
  -6.483582e+02   2.352778e+00
  -2.762632e+02  -5.833305e+02
   3.170180e+02  -3.572404e+02
   4.218140e+02   3.103352e+02
  -5.875850e+01   5.824894e+02
  -5.614921e+02   1.676580e+02
  -6.045630e+02  -4.063767e+02
  -1.748345e+02  -6.093411e+02
   3.964483e+02  -3.674907e+02
   6.520225e+02   7.041789e+01
   3.788985e+02   4.019577e+02
  -1.694197e+02   3.806906e+02
  -4.499976e+02   5.647837e+01
  -2.249413e+02  -2.171233e+02
   1.430053e+02  -1.107166e+02
   1.580534e+02   1.746411e+02
  -1.685686e+02   2.111476e+02
  -3.578781e+02  -7.341501e+01
  -1.475527e+02  -3.118934e+02
   2.068430e+02  -2.676236e+02
   3.332193e+02  -5.816353e+01
   1.942760e+02   9.687826e+01
  -1.996749e+01   2.246038e+02
  -2.090900e+02   3.189469e+02
  -3.270315e+02   2.121463e+02
  -2.920698e+02  -1.322603e+02
  -8.845075e+01  -4.468320e+02
   1.103106e+02  -3.937077e+02
   1.344005e+02  -1.080213e+02
   3.292723e+01   2.855293e+01
   3.184559e+01  -7.291391e+01
   1.873809e+02  -1.310728e+02
   2.799198e+02   4.428152e+01
   1.651633e+02   2.620845e+02
  -6.786697e+01   2.578895e+02
  -2.259659e+02   1.199208e+01
  -1.953554e+02  -2.398232e+02
   1.120751e+01  -2.934477e+02
   2.738446e+02  -1.146791e+02
   3.802206e+02   1.735921e+02
   1.967263e+02   3.662316e+02
  -1.038391e+02   3.271456e+02
  -2.389592e+02   1.244244e+02
  -1.556360e+02  -2.245675e+00
  -9.659124e+01   3.940865e+01
  -2.372805e+02   7.613227e+01
  -4.126392e+02  -4.841752e+01
  -3.317174e+02  -2.880282e+02
   6.757160e+00  -4.544012e+02
   3.595469e+02  -4.233002e+02
   4.753804e+02  -1.978428e+02
   3.287094e+02   9.505048e+01
   6.132471e+01   2.951292e+02
  -1.227553e+02   2.581122e+02
  -8.671646e+01   2.472409e+01
   1.023038e+02  -1.151008e+02
   2.083301e+02  -1.753039e+00
   6.110987e+01   2.030704e+02
  -1.676697e+02   1.772632e+02
  -1.923750e+02  -6.408224e+01
   1.320812e+01  -2.045101e+02
   2.008618e+02  -4.031927e+01
   1.706614e+02   2.462352e+02
  -2.885111e+01   3.429052e+02
  -2.233519e+02   1.828361e+02
  -3.100787e+02  -6.446871e+01
  -2.603559e+02  -2.374422e+02
  -7.868006e+01  -2.631378e+02
   1.160092e+02  -1.544201e+02
   1.770678e+02  -9.665676e+00
   5.171328e+01   4.592678e+01
  -7.598655e+01  -3.589444e+01
  -3.291166e+01  -1.287778e+02
   1.245382e+02  -1.020889e+02
   1.762683e+02   1.521378e+01
   5.754229e+01   7.839926e+01
  -8.256179e+01   2.041603e+01
  -5.694042e+01  -7.152200e+01
   1.194971e+02  -8.767901e+01
   2.740170e+02  -5.685170e+00
   2.653988e+02   1.335645e+02
   5.999897e+01   2.575193e+02
  -1.854804e+02   2.648367e+02
  -2.852070e+02   1.207910e+02
  -1.686364e+02  -6.167588e+01
   3.031322e+01  -1.154609e+02
   9.917824e+01  -1.005194e+01
  -3.342316e+01   1.091588e+02
  -2.013210e+02   6.802409e+01
  -2.190266e+02  -9.882392e+01
  -6.948360e+01  -2.127560e+02
   9.771591e+01  -1.653200e+02
   1.485198e+02  -2.969717e+01
   7.161107e+01   4.782222e+01
  -2.780887e+01   8.736419e+00
  -3.961328e+01  -8.045161e+01
   6.885334e+01  -1.208820e+02
   1.959867e+02  -3.130940e+01
   1.920602e+02   1.193398e+02
   2.158872e+01   2.177787e+02
  -1.672994e+02   1.623338e+02
  -1.973310e+02   2.313778e+00
  -6.668639e+01  -1.201373e+02
   6.644081e+01  -1.165214e+02
   8.402472e+01  -3.359277e+01
   2.078162e+01   2.511527e+01
  -1.573595e+01   1.982575e+01
   1.280934e+01  -3.249574e+00
   6.448540e+01   1.283239e+01
   7.998956e+01   7.915065e+01
   1.068410e+01   1.496231e+02
  -1.192411e+02   1.440814e+02
  -2.234049e+02   2.852587e+01
  -2.024154e+02  -1.483832e+02
  -4.085978e+01  -2.392192e+02
   1.125634e+02  -1.728797e+02
   1.386390e+02  -2.611724e+01
   6.957356e+01   5.844966e+01
   2.785908e+01   3.515590e+01
   5.570363e+01  -1.131039e+01
   7.867442e+01  -1.552442e+00
   3.750979e+01   5.061940e+01
  -4.781700e+01   8.428248e+01
  -9.914828e+01   4.941381e+01
  -7.944166e+01  -3.243787e+01
   1.324272e+01  -1.048623e+02
   1.324437e+02  -8.534920e+01
   1.868843e+02   4.497471e+01
   1.016060e+02   1.920426e+02
  -9.649389e+01   2.233659e+02
  -2.553961e+02   8.948759e+01
  -2.501393e+02  -8.385203e+01
  -1.126159e+02  -1.727658e+02
   3.343588e+01  -1.418993e+02
   9.300839e+01  -8.756128e+01
   8.214275e+01  -7.013748e+01
   6.835516e+01  -8.813299e+01
   8.842199e+01  -6.723374e+01
   1.245558e+02   2.295244e+01
   1.158586e+02   1.506904e+02
   3.192837e+01   2.189630e+02
  -9.360342e+01   1.697877e+02
  -1.729336e+02   2.264303e+01
  -1.320301e+02  -1.183406e+02
  -1.824564e+01  -1.548957e+02
   6.716599e+01  -9.020628e+01
   5.681105e+01   2.246339e+00
   4.233755e+00   4.149915e+01
  -8.647070e+00   3.370093e+01
   3.367534e+01   1.934170e+01
   7.148169e+01   1.957053e+01
   3.846117e+01   3.205084e+01
  -6.108471e+01   3.136806e+01
  -1.491763e+02   3.808634e+00
  -1.326651e+02  -4.376243e+01
  -1.620967e+01  -8.427373e+01
   1.117048e+02  -7.618956e+01
   1.389338e+02  -1.795119e+01
   5.018672e+01   4.076345e+01
  -5.406213e+01   3.952985e+01
  -7.331203e+01  -1.774690e+01
  -8.182886e+00  -6.926295e+01
   5.477725e+01  -5.503944e+01
   6.201996e+01   5.948079e+00
   4.231924e+01   5.104651e+01
   3.990234e+01   3.936350e+01
   5.658185e+01  -6.105299e-01
   6.341778e+01   1.684397e+00
   3.352560e+01   6.783213e+01
  -3.391414e+01   1.417790e+02
  -1.137690e+02   1.371518e+02
  -1.589080e+02   3.522831e+01
  -1.171285e+02  -8.722231e+01
  -6.689468e+00  -1.264215e+02
   8.202262e+01  -6.019255e+01
   5.951967e+01   1.566418e+01
  -5.711447e+01   2.447413e+01
  -1.362726e+02  -3.933229e+01
  -7.587880e+01  -1.062020e+02
   7.820801e+01  -1.129945e+02
   1.834934e+02  -5.011089e+01
   1.644640e+02   3.311710e+01
   4.087706e+01   8.611171e+01
  -5.829767e+01   6.856808e+01
  -5.058274e+01   8.111380e+00
   3.633267e+01  -2.690895e+01
   8.779768e+01   2.330984e+01
   3.104301e+01   1.167690e+02
  -8.938608e+01   1.490193e+02
  -1.647395e+02   5.649332e+01
  -1.251404e+02  -1.003651e+02
  -9.619849e+00  -1.947737e+02
   8.462571e+01  -1.379096e+02
   1.021854e+02   1.049727e+01
   5.741829e+01   1.167348e+02
  -1.874089e+00   1.040240e+02
  -4.434302e+01   1.950626e+01
  -4.875700e+01  -3.203006e+01
  -2.579188e+01  -9.144958e+00
  -5.504839e+00   2.089463e+01
  -2.016073e+01  -1.244427e+01
  -5.302630e+01  -8.431650e+01
  -4.059657e+01  -1.072890e+02
   4.763177e+01  -4.504015e+01
   1.355283e+02   3.722825e+01
   1.274776e+02   6.720856e+01
   1.337443e+01   5.023700e+01
  -8.879504e+01   2.222709e+01
  -9.007081e+01   7.995505e+00
  -1.165548e+01  -9.289704e+00
   3.798720e+01  -2.098076e+01
   1.599082e+01  -1.792475e+01
  -1.916536e+01   9.986993e-01
   6.967552e+00   7.239812e+00
   7.431980e+01   3.223516e+00
   8.936071e+01   2.360012e+01
   6.898872e+00   7.880909e+01
  -1.148168e+02   1.131393e+02
  -1.828129e+02   5.997700e+01
  -1.396815e+02  -6.607278e+01
  -2.657203e+01  -1.620320e+02
   7.851828e+01  -1.494773e+02
   1.153770e+02  -5.520065e+01
   7.960482e+01   2.484784e+01
   2.314594e+01   3.699028e+01
  -5.742260e+00   9.318421e+00
   9.398817e+00   3.036155e+00
   3.429723e+01   4.447411e+01
   2.403353e+01   8.819063e+01
  -2.958988e+01   7.070013e+01
  -8.209596e+01  -1.910232e+01
  -7.589066e+01  -1.075852e+02
  -9.100929e-01  -1.110461e+02
   8.441969e+01  -2.070426e+01
   1.002525e+02   7.719322e+01
   2.748233e+01   1.026736e+02
  -6.778173e+01   5.270151e+01
  -9.427379e+01  -1.301531e+01
  -3.562152e+01  -5.061603e+01
   3.282973e+01  -5.005200e+01
   2.900608e+01  -2.624849e+01
  -3.463284e+01   8.063995e-01
  -6.604190e+01   5.684942e+00
  -1.178120e+01  -2.427719e+01
   7.955020e+01  -6.174791e+01
   1.139779e+02  -5.282307e+01
   5.858184e+01   1.429559e+01
  -2.056451e+01   7.987804e+01
  -5.436808e+01   7.353000e+01
  -3.408529e+01   2.851673e+00
   1.318635e+00  -5.502100e+01
   2.735689e+01  -3.870412e+01
   3.434105e+01   2.061915e+01
   2.016727e+01   5.290353e+01
  -6.881640e+00   2.812166e+01
  -3.248004e+01  -1.237532e+01
  -3.509895e+01  -2.157899e+01
  -1.760339e+01  -6.806662e-01
   1.387987e+00   1.337297e+01
   8.569961e+00  -5.952492e+00
   7.600774e+00  -3.662618e+01
   1.726604e+01  -4.142871e+01
   3.272379e+01  -3.620295e+00
   2.912746e+01   4.662535e+01
  -3.994946e+00   5.960259e+01
  -4.606564e+01   1.880173e+01
  -5.486322e+01  -4.013413e+01
  -1.229671e+01  -6.284593e+01
   5.649480e+01  -3.305687e+01
   8.713722e+01   1.586441e+01
   4.571046e+01   4.351232e+01
  -3.159183e+01   3.993094e+01
  -6.474426e+01   1.838998e+01
  -2.109408e+01   1.906080e+00
   3.892459e+01   1.932375e-01
   3.753478e+01   1.675889e+01
  -3.025818e+01   3.385133e+01
  -9.071917e+01   2.094026e+01
