
 $NMID
 id='ANONYMOUS ', fmtdat='(2E16.6)'
 volume=1.0
 tramp=1.0
 $END
  -3.799615e+03  -3.921993e+02
  -2.219053e+03  -2.141115e+03
   7.512312e+02  -2.333910e+03
   1.886040e+03  -6.957215e+02
   8.012676e+02   5.251773e+02
  -5.796125e+02   3.865372e+02
  -7.128045e+02  -4.205235e+02
   4.953021e+01  -9.264993e+02
   7.486772e+02  -6.479141e+02
   8.266950e+02   1.066558e+02
   3.592330e+02   7.869582e+02
  -2.628263e+02   7.924888e+02
  -5.623249e+02   7.212462e+01
  -2.662202e+02  -6.472138e+02
   3.040999e+02  -6.419824e+02
   5.497680e+02   4.815930e+01
   1.990993e+02   6.439110e+02
  -3.397324e+02   5.801093e+02
  -5.449805e+02   6.353610e+01
  -3.402343e+02  -3.437870e+02
   1.222222e+01  -4.035231e+02
   2.396548e+02  -2.255561e+02
   1.835794e+02  -1.460234e+00
  -1.152350e+02   5.627294e+01
  -3.489536e+02  -1.375177e+02
  -1.331336e+02  -3.999699e+02
   4.154118e+02  -3.255797e+02
   7.190593e+02   1.177823e+02
   3.227638e+02   5.034827e+02
  -3.792456e+02   3.838540e+02
  -6.426147e+02  -1.048123e+02
  -2.603178e+02  -4.772891e+02
   3.188608e+02  -4.485759e+02
   5.382364e+02  -1.179386e+02
   3.577482e+02   2.588271e+02
   2.199748e+01   4.295101e+02
  -1.867931e+02   2.213929e+02
  -1.038163e+02  -2.052075e+02
   1.965840e+02  -3.395547e+02
   3.842124e+02   7.623569e+01
   1.385685e+02   6.019296e+02
  -3.397281e+02   5.770302e+02
  -5.245184e+02  -3.820269e+01
  -1.731042e+02  -5.057418e+02
   2.817666e+02  -2.554195e+02
   3.037071e+02   3.156952e+02
  -1.246182e+02   4.797453e+02
  -5.019490e+02   6.828231e+01
  -4.856061e+02  -4.284315e+02
  -9.120959e+01  -5.426320e+02
   3.721978e+02  -2.671935e+02
   5.535551e+02   1.293456e+02
   3.002106e+02   3.695299e+02
  -1.650609e+02   3.012878e+02
  -3.977294e+02   2.068522e+01
  -2.120033e+02  -1.752462e+02
   9.340830e+01  -8.691444e+01
   1.159322e+02   1.245667e+02
  -1.334942e+02   1.430678e+02
  -2.765707e+02  -7.873823e+01
  -1.044894e+02  -2.669941e+02
   2.030349e+02  -2.188292e+02
   3.195781e+02  -5.242202e+01
   1.918909e+02   1.082500e+02
  -3.566789e+01   2.345127e+02
  -2.432860e+02   2.953187e+02
  -3.399127e+02   1.666548e+02
  -2.513653e+02  -1.607467e+02
  -2.506463e+01  -4.080732e+02
   1.314894e+02  -3.446301e+02
   1.104828e+02  -9.851447e+01
   2.517742e+01  -1.942364e-02
   5.795471e+01  -8.125145e+01
   1.942471e+02  -9.390433e+01
   2.511295e+02   8.099234e+01
   1.201365e+02   2.640724e+02
  -8.978775e+01   2.295200e+02
  -2.066743e+02  -9.640395e+00
  -1.577791e+02  -2.354339e+02
   3.248552e+01  -2.676698e+02
   2.469282e+02  -8.274405e+01
   3.112408e+02   1.858577e+02
   1.435436e+02   3.329115e+02
  -1.120521e+02   2.749148e+02
  -2.165460e+02   9.809444e+01
  -1.391733e+02  -1.170370e+00
  -9.643473e+01   1.931600e+01
  -2.167471e+02   3.597525e+01
  -3.603814e+02  -8.757010e+01
  -2.792244e+02  -2.822576e+02
   4.229406e+01  -4.051236e+02
   3.671718e+02  -3.455452e+02
   4.568819e+02  -1.455784e+02
   2.892825e+02   1.194744e+02
   1.784920e+01   2.705131e+02
  -1.299821e+02   2.137002e+02
  -6.562544e+01   1.534080e+01
   1.068057e+02  -8.709580e+01
   1.698717e+02   2.811126e+01
   2.432106e+01   1.798470e+02
  -1.483379e+02   1.397810e+02
  -1.466678e+02  -6.527156e+01
   3.377153e+01  -1.612094e+02
   1.747351e+02  -4.938954e+00
   1.223321e+02   2.341551e+02
  -6.165988e+01   3.089977e+02
  -2.286140e+02   1.624387e+02
  -2.918234e+02  -8.760762e+01
  -2.164983e+02  -2.449579e+02
  -4.637141e+01  -2.446728e+02
   1.193332e+02  -1.283517e+02
   1.540931e+02   8.120548e+00
   3.792088e+01   3.631420e+01
  -6.187662e+01  -4.288180e+01
  -1.408734e+01  -1.180428e+02
   1.194568e+02  -7.965975e+01
   1.567298e+02   2.780311e+01
   4.437309e+01   7.094128e+01
  -7.457131e+01   6.907352e+00
  -4.256413e+01  -7.395983e+01
   1.190361e+02  -6.829443e+01
   2.536789e+02   2.899735e+01
   2.193483e+02   1.526528e+02
   1.914846e+01   2.323545e+02
  -1.963357e+02   2.127174e+02
  -2.612519e+02   8.513379e+01
  -1.374859e+02  -6.375148e+01
   3.554774e+01  -9.493654e+01
   8.301654e+01   4.294680e-01
  -4.194497e+01   8.927093e+01
  -1.843076e+02   3.773386e+01
  -1.879408e+02  -1.101997e+02
  -4.409933e+01  -1.954672e+02
   1.037736e+02  -1.307169e+02
   1.306257e+02  -8.268491e+00
   5.187096e+01   4.478839e+01
  -2.975347e+01  -3.048773e+00
  -2.366312e+01  -8.510115e+01
   7.515423e+01  -1.026635e+02
   1.803512e+02  -5.839346e+00
   1.609181e+02   1.316042e+02
   1.733787e-01   2.012472e+02
  -1.614852e+02   1.359102e+02
  -1.728514e+02  -1.026858e+01
  -4.801900e+01  -1.083769e+02
   6.864015e+01  -9.599662e+01
   7.735449e+01  -1.987319e+01
   1.204447e+01   2.560847e+01
  -2.435458e+01   1.473073e+01
   8.214355e+00  -9.388139e+00
   6.725927e+01   1.066946e+01
   7.521889e+01   8.288130e+01
  -1.147728e-01   1.451472e+02
  -1.264368e+02   1.262790e+02
  -2.134754e+02   3.882022e+00
  -1.679302e+02  -1.557211e+02
  -1.995272e+01  -2.183410e+02
   1.126989e+02  -1.437491e+02
   1.265492e+02  -1.315831e+01
   6.149366e+01   5.518445e+01
   2.385893e+01   3.531029e+01
   4.714513e+01  -8.068847e+00
   7.031951e+01  -1.141494e+00
   3.411207e+01   4.685787e+01
  -4.383321e+01   7.666894e+01
  -9.898484e+01   4.694567e+01
  -7.625117e+01  -3.950793e+01
   2.294103e+01  -1.019675e+02
   1.333340e+02  -6.596849e+01
   1.686038e+02   6.159870e+01
   6.774413e+01   1.891434e+02
  -1.129150e+02   1.918054e+02
  -2.401974e+02   6.367762e+01
  -2.177597e+02  -1.033827e+02
  -8.084964e+01  -1.710794e+02
   4.611645e+01  -1.284231e+02
   9.248584e+01  -6.632513e+01
   7.688810e+01  -5.615165e+01
   6.607025e+01  -7.825001e+01
   8.790799e+01  -6.256105e+01
   1.175980e+02   3.206380e+01
   9.361385e+01   1.517681e+02
   6.397079e+00   2.105674e+02
  -1.060577e+02   1.484480e+02
  -1.612152e+02   2.377853e+00
  -1.138052e+02  -1.204732e+02
  -4.155364e+00  -1.440748e+02
   6.813187e+01  -7.229169e+01
   5.121487e+01   6.690490e+00
  -9.484720e-01   3.891043e+01
  -1.322621e+01   2.628483e+01
   3.176891e+01   1.643985e+01
   7.189889e+01   2.744311e+01
   4.102982e+01   4.008023e+01
  -6.030989e+01   3.170860e+01
  -1.453634e+02  -8.884920e+00
  -1.266784e+02  -5.725223e+01
  -3.588345e+00  -8.474569e+01
   1.191335e+02  -6.056736e+01
   1.339856e+02   7.078195e-01
   3.939038e+01   4.742651e+01
  -5.844197e+01   3.386819e+01
  -6.614661e+01  -2.419341e+01
  -9.987547e-01  -6.380011e+01
   5.392117e+01  -4.621255e+01
   5.531537e+01   9.184938e+00
   3.532627e+01   4.787479e+01
   3.818729e+01   3.854634e+01
   5.650659e+01   5.695577e+00
   5.533288e+01   9.682406e+00
   2.376781e+01   6.604626e+01
  -4.015879e+01   1.252634e+02
  -1.152195e+02   1.139544e+02
  -1.523569e+02   1.723287e+01
  -1.064747e+02  -9.026987e+01
   7.152373e+00  -1.161856e+02
   8.174033e+01  -5.261401e+01
   5.352695e+01   2.001212e+01
  -5.429936e+01   1.698776e+01
  -1.213001e+02  -5.013018e+01
  -5.697360e+01  -1.068107e+02
   8.527483e+01  -9.595929e+01
   1.796831e+02  -2.710383e+01
   1.419581e+02   5.227311e+01
   2.313608e+01   8.229666e+01
  -6.207597e+01   5.620304e+01
  -4.416787e+01   8.203632e-01
   3.574904e+01  -2.171430e+01
   7.816654e+01   3.035913e+01
   1.626174e+01   1.102387e+02
  -9.657656e+01   1.289411e+02
  -1.552239e+02   3.788431e+01
  -1.051671e+02  -1.040245e+02
   7.854194e+00  -1.812114e+02
   8.949118e+01  -1.240080e+02
   9.274755e+01   1.557661e+01
   4.638358e+01   1.104419e+02
  -7.690956e+00   9.319621e+01
  -4.236617e+01   1.347978e+01
  -4.304842e+01  -2.964111e+01
  -2.260914e+01  -7.947407e+00
  -6.772292e+00   1.541931e+01
  -2.160015e+01  -1.852259e+01
  -4.393737e+01  -8.586598e+01
  -2.217636e+01  -1.008578e+02
   5.258709e+01  -3.655071e+01
   1.281397e+02   4.938055e+01
   1.105577e+02   7.980673e+01
   9.717504e+00   4.874861e+01
  -8.173344e+01   1.261862e+01
  -8.153357e+01  -3.988623e+00
  -9.805428e+00  -1.045447e+01
   3.628526e+01  -1.630190e+01
   1.733361e+01  -1.227834e+01
  -1.682960e+01  -5.029882e-01
   4.139295e+00   7.675150e+00
   6.588728e+01   1.056190e+01
   7.926743e+01   3.033075e+01
  -1.822254e-01   7.191593e+01
  -1.184434e+02   8.865562e+01
  -1.718528e+02   3.243765e+01
  -1.167867e+02  -7.536363e+01
   3.031640e-01  -1.481380e+02
   8.924621e+01  -1.259214e+02
   1.068166e+02  -4.017654e+01
   6.753471e+01   2.917275e+01
   1.770691e+01   3.626046e+01
  -3.234748e+00   7.784691e+00
   9.746666e+00   3.743001e+00
   2.619301e+01   4.319712e+01
   1.190074e+01   8.399613e+01
  -3.292844e+01   6.134069e+01
  -7.141831e+01  -2.435114e+01
  -6.100789e+01  -1.031534e+02
   5.609229e+00  -9.928248e+01
   7.592595e+01  -1.262348e+01
   8.432120e+01   7.527749e+01
   1.858009e+01   9.457757e+01
  -6.593614e+01   4.396632e+01
  -8.752590e+01  -2.061676e+01
  -2.977232e+01  -5.012558e+01
   3.343091e+01  -4.605779e+01
   2.988157e+01  -2.296774e+01
  -3.086816e+01   4.042748e-01
  -6.251335e+01   2.385869e+00
  -1.142194e+01  -2.448444e+01
   7.519323e+01  -5.321202e+01
   1.082392e+02  -4.369062e+01
   5.650738e+01   1.593365e+01
  -2.254355e+01   7.224575e+01
  -5.685352e+01   6.571243e+01
  -3.521731e+01   1.223197e+00
   4.215897e+00  -5.025466e+01
   2.782676e+01  -3.552572e+01
   3.018513e+01   2.144379e+01
   1.576318e+01   5.171452e+01
  -7.370397e+00   2.919707e+01
  -2.886703e+01  -1.162258e+01
  -3.351641e+01  -2.420244e+01
  -1.851189e+01  -2.183583e+00
  -1.469726e-02   1.461380e+01
   6.552737e+00  -1.161134e+00
   7.370029e+00  -3.309907e+01
   1.723284e+01  -4.122109e+01
   2.967488e+01  -5.288723e+00
   2.523539e+01   4.338398e+01
  -6.773214e+00   5.499435e+01
  -4.293254e+01   1.364558e+01
  -5.015174e+01  -4.278765e+01
  -7.786553e+00  -5.859219e+01
   5.576918e+01  -2.400684e+01
   7.962074e+01   2.281001e+01
   3.844215e+01   4.349340e+01
  -3.113555e+01   3.197663e+01
  -5.883319e+01   1.109977e+01
  -2.028670e+01   1.087477e+00
   3.340476e+01   4.792124e+00
   3.141752e+01   1.796864e+01
  -3.221693e+01   2.578947e+01
  -8.367586e+01   9.711585e+00
