
 $NMID
 id='ANONYMOUS ', fmtdat='(2E16.6)'
 volume=1.0
 tramp=1.0
 $END
   4.071673e+03   4.604294e+02
   2.337629e+03   2.439082e+03
  -8.497242e+02   2.706091e+03
  -2.106050e+03   8.612273e+02
  -9.223025e+02  -5.612117e+02
   5.629213e+02  -4.787549e+02
   7.371155e+02   4.592588e+02
  -9.497399e+01   1.026036e+03
  -8.554048e+02   6.885682e+02
  -9.125761e+02  -1.674796e+02
  -3.656286e+02  -9.050832e+02
   3.361796e+02  -8.760021e+02
   6.395369e+02  -7.068771e+01
   2.804517e+02   7.372829e+02
  -3.641857e+02   7.119742e+02
  -6.215456e+02  -7.215740e+01
  -2.096832e+02  -7.227404e+02
   3.932189e+02  -6.439932e+02
   6.144397e+02  -6.617682e+01
   3.769521e+02   3.855174e+02
  -2.073393e+01   4.421074e+02
  -2.585000e+02   2.300131e+02
  -1.855848e+02   1.620808e+00
   1.550773e+02  -4.299203e+01
   3.911693e+02   1.919581e+02
   1.274239e+02   4.653956e+02
  -4.977819e+02   3.424757e+02
  -7.979130e+02  -1.734249e+02
  -3.313563e+02  -5.690878e+02
   4.405061e+02  -4.030270e+02
   7.045929e+02   1.389370e+02
   2.678688e+02   5.302880e+02
  -3.546410e+02   4.849195e+02
  -5.965174e+02   1.176159e+02
  -3.871330e+02  -2.948042e+02
  -8.520556e+00  -4.694064e+02
   2.184176e+02  -2.302691e+02
   1.119906e+02   2.347523e+02
  -2.304856e+02   3.609696e+02
  -4.113365e+02  -1.007099e+02
  -1.210121e+02  -6.658486e+02
   4.157972e+02  -6.072982e+02
   5.857381e+02   6.713207e+01
   1.794060e+02   5.534763e+02
  -3.225282e+02   2.797356e+02
  -3.429466e+02  -3.380406e+02
   1.373545e+02  -5.278707e+02
   5.614978e+02  -8.002697e+01
   5.490581e+02   4.745207e+02
   9.678289e+01   6.231757e+02
  -4.287899e+02   3.053161e+02
  -6.292762e+02  -1.572941e+02
  -3.347263e+02  -4.295797e+02
   1.872325e+02  -3.307060e+02
   4.383857e+02  -9.251051e+00
   2.206498e+02   1.985831e+02
  -1.117219e+02   8.008674e+01
  -1.185613e+02  -1.561629e+02
   1.639337e+02  -1.556102e+02
   3.194624e+02   9.156152e+01
   1.213314e+02   2.950158e+02
  -2.247343e+02   2.533970e+02
  -3.717633e+02   5.586470e+01
  -2.288591e+02  -1.266044e+02
   4.606285e+01  -2.761962e+02
   2.917685e+02  -3.252193e+02
   3.880988e+02  -1.698019e+02
   2.701797e+02   1.866019e+02
   1.794723e+01   4.474136e+02
  -1.478546e+02   3.778087e+02
  -1.170686e+02   1.168126e+02
  -3.409164e+01   9.691973e+00
  -7.454089e+01   8.476804e+01
  -2.225441e+02   9.588149e+01
  -2.674735e+02  -9.452042e+01
  -1.227099e+02  -2.897847e+02
   1.047130e+02  -2.488881e+02
   2.294118e+02   1.492656e+01
   1.688988e+02   2.621652e+02
  -4.456964e+01   2.974956e+02
  -2.843958e+02   8.724529e+01
  -3.483860e+02  -2.094348e+02
  -1.582934e+02  -3.749876e+02
   1.257684e+02  -3.075919e+02
   2.376472e+02  -1.117044e+02
   1.592682e+02  -2.944919e+00
   1.193933e+02  -2.367000e+01
   2.556299e+02  -3.142317e+01
   3.991526e+02   1.196342e+02
   2.909993e+02   3.376413e+02
  -6.339450e+01   4.503324e+02
  -4.200516e+02   3.725457e+02
  -5.111095e+02   1.440516e+02
  -3.165180e+02  -1.428418e+02
  -1.562379e+01  -2.974787e+02
   1.474746e+02  -2.304943e+02
   6.909530e+01  -1.622602e+01
  -1.216276e+02   9.384205e+01
  -1.830647e+02  -3.223047e+01
  -2.666978e+01  -1.922996e+02
   1.612488e+02  -1.464525e+02
   1.548415e+02   7.339958e+01
  -3.592451e+01   1.765232e+02
  -1.916181e+02   4.142576e+00
  -1.334428e+02  -2.682849e+02
   7.379269e+01  -3.471793e+02
   2.575677e+02  -1.769659e+02
   3.278598e+02   1.002225e+02
   2.408718e+02   2.807137e+02
   4.197301e+01   2.803040e+02
  -1.436067e+02   1.403242e+02
  -1.689177e+02  -1.414301e+01
  -3.446115e+01  -4.362923e+01
   7.146439e+01   5.001485e+01
   1.341512e+01   1.327644e+02
  -1.385128e+02   8.633420e+01
  -1.727057e+02  -3.406760e+01
  -4.776030e+01  -8.072870e+01
   8.420736e+01  -7.251474e+00
   4.783941e+01   8.526845e+01
  -1.347606e+02   7.781423e+01
  -2.861771e+02  -3.624117e+01
  -2.441437e+02  -1.815575e+02
  -1.822455e+01  -2.709479e+02
   2.235440e+02  -2.373459e+02
   2.957505e+02  -8.457360e+01
   1.564957e+02   7.706299e+01
  -3.814159e+01   1.044392e+02
  -8.601686e+01  -4.308519e+00
   5.156441e+01  -9.647857e+01
   2.032416e+02  -3.523968e+01
   1.997727e+02   1.262078e+02
   4.366757e+01   2.177153e+02
  -1.175496e+02   1.470104e+02
  -1.468933e+02   8.314876e+00
  -5.861831e+01  -5.327552e+01
   3.578822e+01   2.483729e+00
   2.855818e+01   9.788319e+01
  -8.775154e+01   1.173887e+02
  -2.112199e+02   7.737926e-01
  -1.814650e+02  -1.573758e+02
   7.831034e+00  -2.297395e+02
   1.910070e+02  -1.490315e+02
   1.992347e+02   1.716643e+01
   5.279040e+01   1.244209e+02
  -8.009884e+01   1.077370e+02
  -8.806575e+01   2.295152e+01
  -1.171662e+01  -2.817067e+01
   3.008572e+01  -1.439804e+01
  -8.601667e+00   1.208191e+01
  -7.776376e+01  -1.170563e+01
  -8.647943e+01  -9.609144e+01
   5.292150e+00  -1.695968e+02
   1.526521e+02  -1.436311e+02
   2.387398e+02   4.724526e+00
   1.833282e+02   1.849576e+02
   1.230461e+01   2.503758e+02
  -1.332959e+02   1.592271e+02
  -1.451113e+02   1.015886e+01
  -6.952649e+01  -6.596328e+01
  -2.546914e+01  -3.991236e+01
  -5.203599e+01   7.094456e+00
  -8.176704e+01  -1.865590e+00
  -4.157299e+01  -5.874274e+01
   5.383311e+01  -8.927663e+01
   1.191518e+02  -4.902457e+01
   9.112159e+01   5.064834e+01
  -2.639595e+01   1.178929e+02
  -1.576811e+02   7.397293e+01
  -1.981420e+02  -7.554573e+01
  -7.490562e+01  -2.185642e+02
   1.388419e+02  -2.168366e+02
   2.755340e+02  -6.636700e+01
   2.396409e+02   1.195500e+02
   8.430973e+01   1.903763e+02
  -5.630619e+01   1.407524e+02
  -1.070352e+02   7.060842e+01
  -8.860289e+01   6.276311e+01
  -7.669082e+01   8.280477e+01
  -9.906609e+01   6.542517e+01
  -1.296904e+02  -3.641098e+01
  -1.033151e+02  -1.697110e+02
  -3.511960e+00  -2.384283e+02
   1.242850e+02  -1.653317e+02
   1.820274e+02   1.857401e+00
   1.236203e+02   1.388298e+02
  -1.966251e+00   1.596598e+02
  -8.073789e+01   7.785520e+01
  -6.018725e+01  -1.099804e+01
   3.234227e+00  -4.806556e+01
   2.053078e+01  -3.275843e+01
  -3.026521e+01  -2.067437e+01
  -7.521569e+01  -2.912568e+01
  -4.224916e+01  -4.525808e+01
   7.086056e+01  -3.424763e+01
   1.629532e+02   1.622593e+01
   1.398987e+02   7.215514e+01
  -3.094687e-01   9.877378e+01
  -1.365617e+02   6.425757e+01
  -1.497530e+02  -5.123846e+00
  -4.284991e+01  -5.667249e+01
   6.672733e+01  -3.817929e+01
   7.604717e+01   2.906187e+01
   1.617332e+00   7.508675e+01
  -6.227446e+01   5.342449e+01
  -6.521912e+01  -1.226245e+01
  -3.857912e+01  -5.864924e+01
  -3.669254e+01  -4.605012e+01
  -5.999133e+01  -5.560769e+00
  -6.499058e+01  -1.204391e+01
  -3.044886e+01  -7.765805e+01
   4.788655e+01  -1.441575e+02
   1.389640e+02  -1.241433e+02
   1.766561e+02  -1.003485e+01
   1.166171e+02   1.090428e+02
  -1.238152e+01   1.342211e+02
  -9.630566e+01   5.475218e+01
  -6.120609e+01  -2.359140e+01
   5.987217e+01  -1.829002e+01
   1.345536e+02   5.616348e+01
   6.315895e+01   1.175842e+02
  -9.282977e+01   1.046749e+02
  -1.982832e+02   2.866708e+01
  -1.580656e+02  -5.880728e+01
  -2.617671e+01  -9.309671e+01
   6.851721e+01  -5.991022e+01
   4.936268e+01   3.455868e+00
  -4.117492e+01   2.642533e+01
  -9.111099e+01  -3.403835e+01
  -2.215533e+01  -1.266848e+02
   1.111097e+02  -1.503397e+02
   1.826987e+02  -4.268267e+01
   1.234786e+02   1.220446e+02
  -1.186851e+01   2.073526e+02
  -1.080072e+02   1.338448e+02
  -1.071271e+02  -2.370531e+01
  -4.754999e+01  -1.253896e+02
   1.564466e+01  -1.035360e+02
   4.989380e+01  -1.413990e+01
   4.549453e+01   3.454118e+01
   2.175295e+01   1.104079e+01
   7.039146e+00  -1.705555e+01
   2.497439e+01   1.891012e+01
   5.021630e+01   9.283506e+01
   2.165811e+01   1.132695e+02
  -6.265673e+01   4.216975e+01
  -1.387581e+02  -5.505266e+01
  -1.163823e+02  -9.228458e+01
  -5.249258e+00  -5.615708e+01
   9.271172e+01  -1.053674e+01
   9.090656e+01   7.681457e+00
   1.140825e+01   1.435491e+01
  -3.924326e+01   1.836113e+01
  -1.993239e+01   1.396727e+01
   1.682628e+01   9.224611e-01
  -5.681913e+00  -7.833781e+00
  -7.220943e+01  -1.252262e+01
  -8.810823e+01  -3.753274e+01
  -8.511766e-01  -8.393128e+01
   1.327150e+02  -1.031847e+02
   1.989610e+02  -3.860937e+01
   1.380068e+02   8.622197e+01
   4.290485e+00   1.696053e+02
  -1.031937e+02   1.451636e+02
  -1.251707e+02   4.691525e+01
  -7.947048e+01  -3.269566e+01
  -2.008937e+01  -4.202001e+01
   3.592699e+00  -1.076595e+01
  -1.101423e+01  -6.492796e+00
  -2.806111e+01  -4.909432e+01
  -1.128531e+01  -9.421809e+01
   3.849305e+01  -6.824128e+01
   7.989978e+01   2.795983e+01
   6.678292e+01   1.186623e+02
  -7.862082e+00   1.129062e+02
  -8.766351e+01   1.445592e+01
  -9.745900e+01  -8.794761e+01
  -2.154448e+01  -1.107439e+02
   7.582409e+01  -5.114230e+01
   9.932115e+01   2.356516e+01
   3.300303e+01   5.923732e+01
  -3.955138e+01   5.122418e+01
  -3.577544e+01   2.382507e+01
   3.365672e+01  -2.253397e+00
   7.031021e+01  -2.150280e+00
   1.300647e+01   2.956017e+01
  -8.526428e+01   5.988035e+01
  -1.228582e+02   4.550021e+01
  -6.368824e+01  -2.074543e+01
   2.518082e+01  -8.126230e+01
   6.418928e+01  -7.154408e+01
   3.965715e+01  -1.137578e+00
  -5.783630e+00   5.545463e+01
  -3.248121e+01   3.903606e+01
  -3.424352e+01  -2.353808e+01
  -1.673538e+01  -5.832800e+01
   9.513308e+00  -3.269438e+01
   3.165624e+01   1.370827e+01
   3.689453e+01   2.641208e+01
   1.977770e+01   3.449822e+00
   8.614182e-01  -1.689356e+01
  -5.760344e+00   4.286639e-01
  -6.849826e+00   3.759252e+01
  -1.841139e+01   4.767802e+01
  -3.403397e+01   7.206433e+00
  -2.971213e+01  -4.870568e+01
   6.394407e+00  -6.181033e+01
   4.917218e+01  -1.587239e+01
   5.698826e+01   4.783004e+01
   8.626867e+00   6.645402e+01
  -6.405215e+01   2.858475e+01
  -9.089143e+01  -2.433845e+01
  -4.348452e+01  -5.034966e+01
   3.529882e+01  -3.818052e+01
   6.730033e+01  -1.361092e+01
   2.334069e+01  -5.418234e-01
  -3.795997e+01  -4.351113e+00
  -3.556467e+01  -1.957455e+01
   3.482927e+01  -2.880520e+01
   9.252735e+01  -1.067598e+01
