
 $NMID
 id='ANONYMOUS ', fmtdat='(2E16.6)'
 volume=1.0
 tramp=1.0
 $END
  -2.838258e+03  -4.850299e+02
  -1.765495e+03  -1.369425e+03
   1.880622e+02  -1.734730e+03
   1.117324e+03  -1.008142e+03
   7.366553e+02  -2.422659e+02
   6.270773e+01   7.312600e+01
  -1.893997e+02  -1.216721e+02
   3.488779e+01  -4.495564e+02
   4.372455e+02  -4.313673e+02
   5.097237e+02  -3.072804e+01
   3.095008e+02   4.668476e+02
  -4.695937e+01   5.596265e+02
  -2.515559e+02   1.490450e+02
  -1.586782e+02  -3.762548e+02
   1.314292e+02  -4.600950e+02
   3.426120e+02  -4.109257e+01
   2.169158e+02   4.332279e+02
  -1.316137e+02   5.425465e+02
  -4.027381e+02   2.344596e+02
  -3.678546e+02  -1.467845e+02
  -1.054296e+02  -3.025770e+02
   1.053694e+02  -1.958862e+02
   4.044210e+01  -6.769893e+01
  -1.889657e+02  -1.120319e+02
  -2.366543e+02  -3.013475e+02
   6.625792e+01  -3.561886e+02
   4.582113e+02  -1.056483e+02
   5.161453e+02   2.357682e+02
   1.339056e+02   3.352331e+02
  -3.169863e+02   1.229681e+02
  -4.044434e+02  -1.853043e+02
  -1.031959e+02  -3.334267e+02
   2.664978e+02  -2.674161e+02
   4.009474e+02  -5.770527e+01
   2.542704e+02   1.718546e+02
   3.247958e+01   2.636429e+02
  -3.870030e+01   1.380361e+02
   7.093438e+01  -9.583055e+01
   2.060567e+02  -9.961782e+01
   1.522940e+02   1.845916e+02
  -7.192258e+01   4.349064e+02
  -2.916495e+02   3.278926e+02
  -2.737715e+02  -6.269460e+01
  -5.393935e+01  -2.730457e+02
   1.442306e+02  -9.709394e+01
   1.054835e+02   2.265914e+02
  -1.500489e+02   3.107099e+02
  -3.910446e+02   3.909337e+00
  -3.827635e+02  -3.694351e+02
  -8.316084e+01  -4.538752e+02
   2.948571e+02  -2.101800e+02
   4.577661e+02   1.109058e+02
   2.743629e+02   2.496505e+02
  -6.305362e+01   1.746300e+02
  -2.485661e+02   3.176887e+01
  -1.681511e+02  -2.944856e+01
  -5.854587e+00   1.869665e+00
   2.003793e+01   5.578211e+01
  -1.000673e+02   3.043040e+01
  -1.820758e+02  -6.761578e+01
  -8.845313e+01  -1.855579e+02
   1.541998e+02  -2.141235e+02
   3.243656e+02  -1.050179e+02
   2.503009e+02   1.132073e+02
  -3.542657e+01   3.229882e+02
  -3.043230e+02   3.265608e+02
  -3.532589e+02   1.195055e+02
  -1.915789e+02  -1.712190e+02
  -1.519091e+00  -3.297535e+02
   5.385500e+01  -2.826969e+02
   1.623451e+01  -1.583174e+02
   3.365375e+01  -1.044771e+02
   1.398182e+02  -9.808452e+01
   2.330935e+02  -1.503064e+01
   1.988461e+02   1.390287e+02
   5.264401e+01   2.346833e+02
  -1.029106e+02   1.576302e+02
  -1.656405e+02  -5.942174e+01
  -1.004014e+02  -2.305289e+02
   6.372069e+01  -2.233947e+02
   2.346646e+02  -3.702148e+01
   2.652711e+02   1.830397e+02
   1.256543e+02   2.842001e+02
  -6.557658e+01   2.312763e+02
  -1.464182e+02   1.201458e+02
  -1.269271e+02   7.010328e+01
  -1.493869e+02   6.452673e+01
  -2.738648e+02   1.462925e+01
  -3.689411e+02  -1.263755e+02
  -2.520439e+02  -2.961052e+02
   6.382326e+01  -3.852015e+02
   3.711779e+02  -3.148330e+02
   4.303608e+02  -1.182840e+02
   2.417071e+02   1.154151e+02
  -1.248547e+01   2.231395e+02
  -1.016420e+02   1.578116e+02
  -7.417224e+00   2.526284e+01
   1.174585e+02  -2.444913e+01
   1.097446e+02   5.411372e+01
  -8.320085e+00   1.230030e+02
  -1.065777e+02   7.540960e+01
  -8.000380e+01  -5.871064e+01
   3.948289e+01  -1.078663e+02
   1.383036e+02   1.670226e+01
   1.144218e+02   2.244236e+02
  -4.003721e+01   3.033970e+02
  -2.309598e+02   1.744644e+02
  -3.204876e+02  -7.832914e+01
  -2.266081e+02  -2.589010e+02
  -2.349528e+01  -2.578631e+02
   1.348112e+02  -1.084951e+02
   1.240449e+02   1.794924e+01
   1.106295e+01   1.659702e+01
  -4.546550e+01  -6.553844e+01
   1.658661e+01  -1.047573e+02
   1.208218e+02  -5.203987e+01
   1.263102e+02   3.496890e+01
   2.198876e+01   5.105109e+01
  -7.518969e+01  -1.573983e+01
  -2.928215e+01  -8.944158e+01
   1.403586e+02  -7.492037e+01
   2.759237e+02   3.991986e+01
   2.220546e+02   1.767261e+02
   3.982716e-01   2.458679e+02
  -2.125103e+02   1.900213e+02
  -2.492676e+02   5.371331e+01
  -1.149257e+02  -5.842676e+01
   3.630331e+01  -6.040564e+01
   5.364821e+01   1.521835e+01
  -5.862345e+01   6.396161e+01
  -1.646738e+02   1.108929e+01
  -1.581499e+02  -1.081312e+02
  -3.492550e+01  -1.704402e+02
   9.254645e+01  -1.099895e+02
   1.165761e+02   1.811647e+00
   3.476435e+01   4.510319e+01
  -4.546496e+01  -2.271615e+01
  -2.206136e+01  -1.109212e+02
   9.309769e+01  -1.126775e+02
   1.992511e+02   8.221916e+00
   1.568782e+02   1.435583e+02
  -1.019318e+01   1.914037e+02
  -1.536581e+02   1.196040e+02
  -1.548616e+02  -6.632816e+00
  -3.822263e+01  -8.845189e+01
   6.452194e+01  -7.955770e+01
   6.511099e+01  -1.660015e+01
  -4.539015e+00   2.541352e+01
  -3.977801e+01   5.898574e+00
   6.020275e+00  -2.804936e+01
   8.386055e+01  -2.260434e+00
   9.618469e+01   8.926201e+01
   1.490563e+00   1.664589e+02
  -1.412930e+02   1.368951e+02
  -2.145397e+02  -8.833452e+00
  -1.656168e+02  -1.623434e+02
  -1.783228e+01  -2.182653e+02
   1.059733e+02  -1.401596e+02
   1.233170e+02  -1.875031e+01
   6.533768e+01   4.876081e+01
   2.781132e+01   3.044721e+01
   5.063993e+01  -7.869971e+00
   8.387131e+01  -1.994324e-01
   5.181899e+01   5.743019e+01
  -4.324175e+01   9.795612e+01
  -1.228851e+02   5.706376e+01
  -1.021915e+02  -4.752686e+01
   2.120850e+01  -1.208596e+02
   1.547838e+02  -7.405632e+01
   1.860316e+02   7.402380e+01
   6.022586e+01   2.026862e+02
  -1.320210e+02   1.938814e+02
  -2.440170e+02   5.165534e+01
  -2.040599e+02  -1.044886e+02
  -7.509946e+01  -1.613823e+02
   4.412028e+01  -1.204635e+02
   8.715891e+01  -6.202838e+01
   7.156759e+01  -5.901308e+01
   6.234780e+01  -8.177226e+01
   8.500496e+01  -6.630349e+01
   1.173175e+02   2.578012e+01
   9.585749e+01   1.470481e+02
   8.742309e+00   2.097617e+02
  -1.053896e+02   1.443218e+02
  -1.557376e+02  -4.673850e+00
  -1.024450e+02  -1.259763e+02
   9.687463e+00  -1.398155e+02
   8.019096e+01  -6.207622e+01
   5.740132e+01   1.999085e+01
  -9.074858e+00   5.218416e+01
  -3.204155e+01   3.203525e+01
   2.073456e+01   1.389283e+01
   7.286667e+01   2.149681e+01
   4.249246e+01   4.052461e+01
  -7.099798e+01   3.273165e+01
  -1.591328e+02  -1.650492e+01
  -1.281774e+02  -6.987884e+01
   9.836015e+00  -9.343202e+01
   1.303057e+02  -5.947513e+01
   1.363685e+02   7.845057e+00
   3.755254e+01   5.515928e+01
  -5.681880e+01   4.059766e+01
  -7.125086e+01  -2.130065e+01
  -1.487181e+01  -6.902918e+01
   4.420948e+01  -5.633184e+01
   6.285969e+01   1.841944e+00
   4.894406e+01   5.089902e+01
   4.038430e+01   4.390166e+01
   4.966743e+01   8.850879e+00
   5.634010e+01   9.631110e+00
   3.397523e+01   7.053511e+01
  -3.492327e+01   1.328784e+02
  -1.274309e+02   1.215416e+02
  -1.722795e+02   1.519461e+01
  -1.148920e+02  -9.620787e+01
   8.480431e+00  -1.266393e+02
   9.147896e+01  -5.603291e+01
   5.810977e+01   1.158419e+01
  -4.993886e+01   1.181756e+01
  -1.149035e+02  -4.839862e+01
  -5.329938e+01  -1.002092e+02
   8.489206e+01  -9.243953e+01
   1.743253e+02  -2.532078e+01
   1.386438e+02   5.269623e+01
   2.013126e+01   8.250879e+01
  -6.372575e+01   4.944813e+01
  -4.529265e+01  -7.843102e+00
   3.584656e+01  -3.079792e+01
   8.470476e+01   2.151310e+01
   3.262408e+01   1.076363e+02
  -7.961431e+01   1.383741e+02
  -1.478910e+02   5.463482e+01
  -1.120680e+02  -9.223843e+01
  -3.678087e+00  -1.790166e+02
   8.675834e+01  -1.225361e+02
   9.690533e+01   1.835496e+01
   3.990132e+01   1.154667e+02
  -2.462878e+01   9.437767e+01
  -5.108385e+01   1.060708e+01
  -3.818642e+01  -3.329343e+01
  -1.220022e+01  -1.121982e+01
  -6.138673e+00   1.243703e+01
  -2.798672e+01  -2.116219e+01
  -4.773918e+01  -8.170733e+01
  -1.925973e+01  -9.776018e+01
   5.817909e+01  -3.812324e+01
   1.227272e+02   4.386357e+01
   1.065867e+02   7.289474e+01
   1.396396e+01   5.036648e+01
  -7.362368e+01   1.703125e+01
  -8.135590e+01  -1.962481e+00
  -1.863303e+01  -1.513190e+01
   3.171252e+01  -1.695933e+01
   2.003271e+01  -8.285558e+00
  -1.026296e+01   3.908513e+00
   2.536247e+00   5.582934e+00
   6.049152e+01   4.873460e+00
   8.238398e+01   2.746357e+01
   1.359571e+01   7.283736e+01
  -1.061907e+02   9.628585e+01
  -1.732830e+02   4.547930e+01
  -1.319563e+02  -6.130184e+01
  -1.754249e+01  -1.436578e+02
   8.483718e+01  -1.327065e+02
   1.099276e+02  -5.126641e+01
   7.293194e+01   2.125436e+01
   2.276269e+01   3.687380e+01
   2.115429e+00   1.449361e+01
   1.180792e+01   1.183047e+01
   2.136391e+01   4.734219e+01
   8.644126e+00   8.273014e+01
  -3.078118e+01   6.121090e+01
  -6.780429e+01  -1.917645e+01
  -6.435714e+01  -9.708352e+01
  -8.530303e+00  -9.978776e+01
   6.661862e+01  -2.533915e+01
   9.174770e+01   6.247991e+01
   3.423784e+01   9.576777e+01
  -5.956633e+01   5.742803e+01
  -9.419885e+01  -1.115257e+01
  -4.046581e+01  -5.589177e+01
   3.317578e+01  -5.424201e+01
   3.882539e+01  -2.516797e+01
  -2.341113e+01   4.364456e+00
  -6.272760e+01   2.735435e+00
  -1.703218e+01  -2.669688e+01
   7.338899e+01  -5.481066e+01
   1.163463e+02  -4.072369e+01
   6.638282e+01   1.824063e+01
  -1.497068e+01   7.580792e+01
  -5.727166e+01   7.321196e+01
  -4.188206e+01   1.166356e+01
  -4.522731e+00  -4.745681e+01
   2.345571e+01  -4.278442e+01
   3.165828e+01   1.136704e+01
   2.312477e+01   5.197998e+01
  -3.206553e+00   3.779017e+01
  -3.052770e+01  -6.453036e+00
  -3.838398e+01  -2.739765e+01
  -1.838040e+01  -9.257187e+00
   4.020936e+00   1.670959e+01
   7.502426e+00   9.781454e+00
  -2.723706e+00  -2.560040e+01
   1.494299e+00  -4.578222e+01
   2.313373e+01  -2.009422e+01
   3.524440e+01   3.067786e+01
   1.014065e+01   5.188055e+01
  -3.613683e+01   2.044862e+01
  -5.426336e+01  -3.349781e+01
  -1.441778e+01  -5.509871e+01
   5.617850e+01  -2.992950e+01
   8.668530e+01   1.444912e+01
   4.494445e+01   4.320907e+01
  -2.859576e+01   4.038187e+01
  -6.109395e+01   2.115406e+01
  -2.682903e+01   3.504582e+00
   2.417809e+01  -1.665044e+00
   2.827504e+01   7.631085e+00
  -2.306692e+01   1.936137e+01
  -7.086149e+01   1.076251e+01
