
 $NMID
 id='ANONYMOUS ', fmtdat='(2E16.6)'
 volume=1.0
 tramp=1.0
 $END
  -4.188818e+03  -1.025196e+02
  -2.451297e+03  -2.261424e+03
   5.092582e+02  -2.581886e+03
   1.879525e+03  -1.040249e+03
   9.728316e+02   3.830291e+02
  -4.500842e+02   3.974997e+02
  -6.789412e+02  -3.568427e+02
   6.213297e+01  -9.156503e+02
   7.303513e+02  -6.810765e+02
   8.323264e+02   3.840546e+01
   4.143398e+02   7.520759e+02
  -1.593405e+02   8.057040e+02
  -5.272770e+02   1.197840e+02
  -3.096906e+02  -6.528712e+02
   2.503687e+02  -7.182397e+02
   5.698483e+02  -2.135951e+01
   3.025493e+02   6.518098e+02
  -2.525812e+02   6.813989e+02
  -5.590541e+02   1.808644e+02
  -4.205971e+02  -2.906826e+02
  -5.137962e+01  -4.239402e+02
   2.204463e+02  -2.591592e+02
   1.739683e+02  -1.424319e+01
  -1.670229e+02   3.205827e+01
  -3.895040e+02  -2.004680e+02
  -1.035026e+02  -4.409378e+02
   5.196776e+02  -3.006812e+02
   7.823415e+02   1.798656e+02
   3.084083e+02   5.310630e+02
  -4.499765e+02   3.814290e+02
  -7.131532e+02  -1.223714e+02
  -2.801788e+02  -4.950909e+02
   3.222330e+02  -4.888867e+02
   5.734198e+02  -1.687399e+02
   3.943256e+02   2.370038e+02
   4.841354e+01   4.406146e+02
  -1.616616e+02   2.352781e+02
  -7.507907e+01  -2.083772e+02
   2.038803e+02  -3.355395e+02
   3.694825e+02   1.062107e+02
   1.343668e+02   6.693128e+02
  -3.399817e+02   6.138251e+02
  -5.247989e+02  -2.906409e+01
  -2.047333e+02  -5.098860e+02
   2.728173e+02  -2.606420e+02
   3.416133e+02   3.349046e+02
  -1.104990e+02   5.349934e+02
  -5.687933e+02   1.214178e+02
  -5.985176e+02  -4.244467e+02
  -1.664698e+02  -6.053765e+02
   3.809683e+02  -3.425540e+02
   6.293844e+02   7.996617e+01
   3.773571e+02   3.582928e+02
  -1.260635e+02   3.219422e+02
  -4.049017e+02   6.043753e+01
  -2.377742e+02  -1.449883e+02
   8.251701e+01  -7.534407e+01
   1.124407e+02   1.216849e+02
  -1.525221e+02   1.490445e+02
  -3.212038e+02  -6.878356e+01
  -1.332467e+02  -2.861485e+02
   2.044342e+02  -2.788772e+02
   3.671910e+02  -1.068212e+02
   2.374272e+02   1.072650e+02
  -3.426608e+01   2.996478e+02
  -2.669823e+02   3.676347e+02
  -3.734956e+02   2.150773e+02
  -3.005560e+02  -1.523895e+02
  -8.113512e+01  -4.432840e+02
   8.459209e+01  -4.004990e+02
   8.735367e+01  -1.534916e+02
   2.324970e+01  -3.901072e+01
   8.764016e+01  -1.134226e+02
   2.384307e+02  -1.140749e+02
   2.956812e+02   8.910338e+01
   1.448794e+02   2.982125e+02
  -9.564882e+01   2.552069e+02
  -2.394138e+02  -1.863642e+01
  -1.854778e+02  -2.703195e+02
   4.056934e+01  -2.998485e+02
   2.845655e+02  -9.161505e+01
   3.628395e+02   1.879955e+02
   1.816245e+02   3.519419e+02
  -8.762610e+01   2.977725e+02
  -2.155839e+02   1.363927e+02
  -1.577536e+02   3.538717e+01
  -1.204085e+02   5.362542e+01
  -2.626745e+02   5.908403e+01
  -4.214760e+02  -7.064757e+01
  -3.475990e+02  -2.980598e+02
   7.746802e+00  -4.637668e+02
   3.835835e+02  -4.304264e+02
   5.140445e+02  -2.118238e+02
   3.361415e+02   1.081384e+02
   4.118963e+01   3.007333e+02
  -1.314068e+02   2.483264e+02
  -5.441726e+01   2.512635e+01
   1.286647e+02  -8.903371e+01
   1.886894e+02   3.011135e+01
   2.623850e+01   1.982475e+02
  -1.712993e+02   1.572127e+02
  -1.616053e+02  -6.868588e+01
   3.548654e+01  -1.823943e+02
   2.000600e+02  -1.602413e+01
   1.616464e+02   2.624570e+02
  -3.478352e+01   3.673231e+02
  -2.457799e+02   2.068582e+02
  -3.497126e+02  -6.964480e+01
  -2.867294e+02  -2.569396e+02
  -7.718588e+01  -2.772738e+02
   1.277158e+02  -1.499511e+02
   1.671599e+02  -4.313804e+00
   4.015822e+01   2.821917e+01
  -7.379131e+01  -6.039434e+01
  -1.252920e+01  -1.357716e+02
   1.371852e+02  -8.957072e+01
   1.768061e+02   2.606546e+01
   4.276224e+01   7.466540e+01
  -9.446517e+01   3.726685e+00
  -5.304387e+01  -9.359395e+01
   1.469583e+02  -1.035493e+02
   3.124669e+02   3.852894e-01
   2.781871e+02   1.638890e+02
   4.802476e+01   2.794082e+02
  -2.069033e+02   2.665248e+02
  -2.885508e+02   1.180195e+02
  -1.607207e+02  -5.468083e+01
   3.163932e+01  -1.022104e+02
   8.573794e+01   2.532943e+00
  -4.601221e+01   1.038033e+02
  -2.079472e+02   5.152026e+01
  -2.209968e+02  -1.165918e+02
  -6.828527e+01  -2.159689e+02
   9.978439e+01  -1.547595e+02
   1.413998e+02  -1.987443e+01
   5.379427e+01   4.566724e+01
  -4.458182e+01  -9.127833e+00
  -3.640900e+01  -1.072081e+02
   8.797838e+01  -1.243963e+02
   2.188218e+02  -2.123851e+01
   1.955043e+02   1.421933e+02
   1.000436e+01   2.319601e+02
  -1.751807e+02   1.631455e+02
  -1.949783e+02  -2.919318e+00
  -5.885026e+01  -1.178868e+02
   7.672469e+01  -1.095994e+02
   8.538413e+01  -2.363571e+01
   1.107946e+01   3.079690e+01
  -3.351717e+01   1.735894e+01
   9.490636e+00  -1.719234e+01
   8.546351e+01   2.670094e+00
   1.025379e+02   9.104917e+01
   1.142739e+01   1.785470e+02
  -1.460998e+02   1.677427e+02
  -2.516017e+02   2.595733e+01
  -2.067365e+02  -1.692627e+02
  -3.554951e+01  -2.533118e+02
   1.173996e+02  -1.736690e+02
   1.399563e+02  -2.410127e+01
   7.190775e+01   5.595952e+01
   3.227286e+01   3.168820e+01
   5.980978e+01  -1.485403e+01
   8.758464e+01  -4.846770e+00
   5.104659e+01   5.871366e+01
  -4.331869e+01   1.006114e+02
  -1.162022e+02   6.528115e+01
  -1.008642e+02  -4.355426e+01
   1.328725e+01  -1.280132e+02
   1.605296e+02  -9.756209e+01
   2.199672e+02   6.086799e+01
   1.021120e+02   2.277979e+02
  -1.287075e+02   2.487121e+02
  -2.923425e+02   9.761159e+01
  -2.679598e+02  -9.843188e+01
  -1.086460e+02  -1.945179e+02
   4.111374e+01  -1.550320e+02
   9.575944e+01  -8.206162e+01
   7.689522e+01  -7.087394e+01
   6.751976e+01  -1.007151e+02
   1.033537e+02  -8.460446e+01
   1.417528e+02   2.319063e+01
   1.281650e+02   1.689951e+02
   2.445697e+01   2.452644e+02
  -1.119204e+02   1.771265e+02
  -1.843318e+02   1.160484e+01
  -1.366153e+02  -1.339857e+02
  -1.195985e+01  -1.649220e+02
   7.783015e+01  -8.920266e+01
   6.828566e+01   7.407609e+00
  -6.854329e-02   5.122248e+01
  -1.845441e+01   3.764420e+01
   3.488157e+01   1.434598e+01
   8.913226e+01   2.160142e+01
   4.909066e+01   4.367792e+01
  -7.501683e+01   4.294531e+01
  -1.768916e+02   4.137069e-01
  -1.523714e+02  -6.458755e+01
  -6.454774e+00  -1.037840e+02
   1.375243e+02  -8.113469e+01
   1.555892e+02  -1.080615e+01
   4.868694e+01   5.172227e+01
  -6.560084e+01   4.629674e+01
  -8.231863e+01  -2.049132e+01
  -1.388777e+01  -7.727910e+01
   5.429734e+01  -6.766557e+01
   7.132002e+01   8.525697e-01
   5.452822e+01   5.546835e+01
   5.218504e+01   4.803901e+01
   6.443007e+01   8.553903e-01
   6.847897e+01  -1.422011e+00
   4.242373e+01   7.401683e+01
  -2.662379e+01   1.620885e+02
  -1.236361e+02   1.595130e+02
  -1.845453e+02   3.990981e+01
  -1.403917e+02  -9.768714e+01
  -7.716232e+00  -1.393893e+02
   9.286060e+01  -7.086972e+01
   6.615408e+01   1.705378e+01
  -6.390861e+01   2.707740e+01
  -1.492222e+02  -4.418487e+01
  -8.043503e+01  -1.165157e+02
   8.809388e+01  -1.233516e+02
   2.061040e+02  -5.631425e+01
   1.715326e+02   4.078340e+01
   3.497781e+01   9.088516e+01
  -6.634377e+01   6.897081e+01
  -5.236452e+01   2.963638e+00
   3.989656e+01  -3.026923e+01
   9.792807e+01   2.328309e+01
   3.966608e+01   1.239727e+02
  -8.704873e+01   1.629934e+02
  -1.662461e+02   6.990312e+01
  -1.305556e+02  -1.027246e+02
  -1.387722e+01  -2.040876e+02
   8.618768e+01  -1.484939e+02
   1.096247e+02   1.257401e+01
   6.092838e+01   1.285856e+02
  -9.861844e+00   1.158080e+02
  -5.454304e+01   1.876142e+01
  -5.372616e+01  -3.676062e+01
  -2.287065e+01  -1.089503e+01
  -4.947427e+00   2.072137e+01
  -2.749319e+01  -1.596579e+01
  -6.275152e+01  -9.303215e+01
  -4.083462e+01  -1.148664e+02
   5.470109e+01  -4.878280e+01
   1.479331e+02   3.904927e+01
   1.354146e+02   7.908785e+01
   1.718520e+01   5.814118e+01
  -9.035728e+01   2.509582e+01
  -9.326835e+01   3.845672e+00
  -1.359192e+01  -1.224114e+01
   3.933506e+01  -2.273070e+01
   1.742731e+01  -1.574761e+01
  -1.885170e+01   2.124188e+00
   5.497260e+00   6.000444e+00
   7.546231e+01   2.341155e+00
   9.777709e+01   2.559532e+01
   1.629572e+01   8.401033e+01
  -1.168966e+02   1.226410e+02
  -1.919689e+02   6.695257e+01
  -1.509529e+02  -6.536372e+01
  -2.858120e+01  -1.692233e+02
   8.094432e+01  -1.601545e+02
   1.180638e+02  -6.537062e+01
   8.561258e+01   2.384242e+01
   2.747029e+01   3.912502e+01
   6.084611e-01   9.546959e+00
   1.358952e+01   3.871502e+00
   3.699171e+01   5.038515e+01
   2.453560e+01   9.795743e+01
  -2.984805e+01   7.702034e+01
  -8.548647e+01  -1.773310e+01
  -8.517690e+01  -1.107075e+02
  -9.921700e+00  -1.155712e+02
   8.462502e+01  -2.761455e+01
   1.109640e+02   7.434756e+01
   3.677131e+01   1.069102e+02
  -6.947649e+01   6.223626e+01
  -1.070386e+02  -1.044325e+01
  -4.506492e+01  -5.722022e+01
   3.345011e+01  -6.175357e+01
   3.808452e+01  -3.113734e+01
  -3.167515e+01   2.354782e+00
  -7.254694e+01   1.014103e+01
  -1.788979e+01  -2.880031e+01
   8.523076e+01  -7.423892e+01
   1.281819e+02  -6.031520e+01
   7.373167e+01   1.623601e+01
  -1.436370e+01   9.240804e+01
  -6.145406e+01   8.841964e+01
  -4.526027e+01   6.954318e+00
  -4.521578e+00  -5.983763e+01
   2.645327e+01  -4.913566e+01
   3.920161e+01   1.604739e+01
   2.710739e+01   5.679062e+01
  -4.754210e+00   3.649834e+01
  -3.546024e+01  -9.221902e+00
  -4.323674e+01  -2.590917e+01
  -1.957508e+01  -3.448957e+00
   4.442669e+00   1.806873e+01
   7.830568e+00   3.586341e+00
  -5.663517e-01  -3.416362e+01
   5.898474e+00  -5.015748e+01
   3.010555e+01  -1.548586e+01
   3.926718e+01   4.223748e+01
   5.647853e+00   6.471894e+01
  -4.540410e+01   2.421907e+01
  -6.360159e+01  -3.932694e+01
  -1.721522e+01  -6.530346e+01
   5.944555e+01  -3.587881e+01
   9.612930e+01   1.637187e+01
   5.106576e+01   4.770714e+01
  -3.267559e+01   4.530531e+01
  -6.753511e+01   2.357690e+01
  -2.508682e+01   4.564413e+00
   3.624032e+01  -9.774191e-01
   3.584636e+01   1.349945e+01
  -3.171532e+01   3.158020e+01
  -9.074561e+01   2.207196e+01
