
 $NMID
 id='ANONYMOUS ', fmtdat='(2E16.6)'
 volume=1.0
 tramp=1.0
 $END
   4.527774e+03   8.381101e+01
   2.680051e+03   2.731891e+03
  -8.115364e+02   2.998791e+03
  -2.373287e+03   9.460604e+02
  -1.082662e+03  -7.917294e+02
   7.726301e+02  -6.794558e+02
   1.068350e+03   4.586701e+02
   2.148282e+01   1.208692e+03
  -9.316912e+02   8.692550e+02
  -1.074721e+03  -1.201728e+02
  -4.793162e+02  -9.837236e+02
   3.219363e+02  -9.931470e+02
   7.303935e+02  -1.240041e+02
   4.353904e+02   7.839979e+02
  -2.904699e+02   8.224842e+02
  -6.531046e+02  -3.340790e+00
  -2.762141e+02  -7.311625e+02
   3.654764e+02  -6.620649e+02
   6.246877e+02  -6.630947e+01
   3.834825e+02   3.950308e+02
  -6.795456e+00   4.695181e+02
  -2.660775e+02   2.669727e+02
  -2.351317e+02  -7.212321e-01
   1.211446e+02  -1.234064e+02
   4.298650e+02   1.013429e+02
   2.099198e+02   4.482102e+02
  -4.744917e+02   4.553650e+02
  -9.043242e+02  -5.297711e+01
  -4.608653e+02  -5.762137e+02
   4.151746e+02  -5.424104e+02
   7.988431e+02   8.840530e+00
   3.762515e+02   5.029150e+02
  -2.896797e+02   5.486618e+02
  -5.932318e+02   2.082349e+02
  -4.375111e+02  -2.487745e+02
  -6.782469e+01  -5.169079e+02
   2.347903e+02  -3.136599e+02
   2.172623e+02   2.402566e+02
  -1.416183e+02   4.937630e+02
  -4.755529e+02   2.083443e+01
  -3.019328e+02  -7.039530e+02
   3.126987e+02  -7.531100e+02
   6.588850e+02  -1.449158e+01
   2.908220e+02   5.994867e+02
  -3.178434e+02   3.776447e+02
  -4.357850e+02  -3.101117e+02
   4.700686e+01  -5.867538e+02
   5.810772e+02  -1.845367e+02
   6.383581e+02   3.879366e+02
   1.778156e+02   6.238429e+02
  -4.008731e+02   3.759581e+02
  -6.616737e+02  -8.189631e+01
  -3.912562e+02  -4.210005e+02
   1.693239e+02  -4.026150e+02
   4.874988e+02  -5.882370e+01
   2.733874e+02   2.200770e+02
  -1.282757e+02   1.353643e+02
  -1.759933e+02  -1.576593e+02
   1.525880e+02  -2.177283e+02
   3.623743e+02   5.746892e+01
   1.561082e+02   3.160927e+02
  -2.071375e+02   2.801836e+02
  -3.378329e+02   7.642756e+01
  -1.953834e+02  -1.044973e+02
   2.819518e+01  -2.400401e+02
   2.293034e+02  -3.257795e+02
   3.485005e+02  -2.178197e+02
   2.972052e+02   1.386315e+02
   7.514224e+01   4.594372e+02
  -1.255331e+02   3.938047e+02
  -1.248300e+02   9.430596e+01
  -2.211383e+01  -2.968393e+01
  -2.775194e+01   7.995158e+01
  -1.808067e+02   1.420760e+02
  -2.812763e+02  -3.681232e+01
  -1.699405e+02  -2.648598e+02
   6.202745e+01  -2.649161e+02
   2.295349e+02  -2.017011e+01
   2.099735e+02   2.379899e+02
  -1.915730e+00   3.107290e+02
  -2.763084e+02   1.341843e+02
  -3.819634e+02  -1.714227e+02
  -2.008396e+02  -3.767514e+02
   1.047952e+02  -3.250147e+02
   2.463280e+02  -1.195985e+02
   1.582171e+02   5.190999e+00
   9.581703e+01  -3.232171e+01
   2.259338e+02  -6.881262e+01
   3.977072e+02   5.287210e+01
   3.426950e+02   2.932420e+02
   1.904639e+00   4.541237e+02
  -3.657739e+02   4.277582e+02
  -5.185981e+02   2.088405e+02
  -3.558713e+02  -1.003675e+02
  -5.616971e+01  -3.110248e+02
   1.482614e+02  -2.667999e+02
   1.026287e+02  -2.275537e+01
  -1.202576e+02   1.343421e+02
  -2.164264e+02  -2.798188e+00
  -6.317335e+01  -2.186267e+02
   1.740056e+02  -2.036666e+02
   2.002042e+02   5.964625e+01
  -1.409911e+01   2.091952e+02
  -2.055604e+02   4.278566e+01
  -1.741837e+02  -2.645782e+02
   3.508361e+01  -3.643673e+02
   2.432741e+02  -1.923035e+02
   3.380055e+02   7.237088e+01
   2.842250e+02   2.421786e+02
   9.391708e+01   2.694650e+02
  -1.233267e+02   1.626546e+02
  -1.848018e+02   2.232206e+01
  -5.672296e+01  -3.776650e+01
   8.246699e+01   3.706694e+01
   3.683425e+01   1.319018e+02
  -1.312032e+02   1.120268e+02
  -1.864206e+02  -8.345388e+00
  -6.318027e+01  -7.720965e+01
   8.119136e+01  -2.834408e+01
   5.862147e+01   6.646206e+01
  -1.196140e+02   8.846175e+01
  -2.795125e+02   4.118639e+00
  -2.642312e+02  -1.347030e+02
  -6.541376e+01  -2.590376e+02
   1.842096e+02  -2.682090e+02
   2.873947e+02  -1.340273e+02
   1.780559e+02   5.691981e+01
  -2.631695e+01   1.200077e+02
  -1.009169e+02   1.084848e+01
   2.608872e+01  -1.075165e+02
   2.009704e+02  -6.811048e+01
   2.210956e+02   1.046536e+02
   7.318885e+01   2.137145e+02
  -9.420988e+01   1.630331e+02
  -1.448519e+02   2.732172e+01
  -6.964604e+01  -4.463039e+01
   3.042328e+01  -4.536513e+00
   3.953426e+01   8.786755e+01
  -6.634902e+01   1.191129e+02
  -2.077634e+02   3.555079e+01
  -2.063070e+02  -1.299327e+02
  -2.668714e+01  -2.352649e+02
   1.716326e+02  -1.797165e+02
   2.079892e+02  -7.189612e+00
   7.272306e+01   1.250474e+02
  -6.840178e+01   1.200004e+02
  -8.942580e+01   3.249344e+01
  -2.153505e+01  -2.927990e+01
   2.332617e+01  -2.029057e+01
  -8.771892e+00   7.035622e+00
  -7.313551e+01  -8.304981e+00
  -9.230482e+01  -8.235142e+01
  -1.907015e+01  -1.618034e+02
   1.260326e+02  -1.601240e+02
   2.396568e+02  -2.617061e+01
   2.106076e+02   1.509127e+02
   4.517159e+01   2.494923e+02
  -1.171028e+02   1.801278e+02
  -1.450445e+02   2.611763e+01
  -7.287108e+01  -6.341379e+01
  -2.636980e+01  -3.987833e+01
  -5.333300e+01   1.421107e+01
  -8.048698e+01   7.720906e+00
  -4.098402e+01  -5.133288e+01
   4.210278e+01  -8.887109e+01
   9.922454e+01  -5.641936e+01
   8.524014e+01   3.385257e+01
  -8.000992e+00   1.086833e+02
  -1.368208e+02   9.129719e+01
  -2.008613e+02  -4.669807e+01
  -1.066816e+02  -2.054130e+02
   1.048329e+02  -2.474575e+02
   2.755967e+02  -1.095080e+02
   2.678520e+02   8.899347e+01
   1.172217e+02   1.890374e+02
  -3.752155e+01   1.565119e+02
  -9.532735e+01   8.961609e+01
  -8.540562e+01   7.518527e+01
  -7.197297e+01   9.382966e+01
  -9.962032e+01   7.570900e+01
  -1.322106e+02  -2.539021e+01
  -1.230006e+02  -1.532996e+02
  -3.376862e+01  -2.287102e+02
   1.002457e+02  -1.762362e+02
   1.806284e+02  -2.468519e+01
   1.433100e+02   1.207494e+02
   2.234193e+01   1.590590e+02
  -6.595679e+01   9.160636e+01
  -6.205609e+01   2.041617e+00
  -5.411998e+00  -4.157542e+01
   9.752986e+00  -3.244504e+01
  -3.801400e+01  -1.410321e+01
  -8.146995e+01  -2.052483e+01
  -4.515533e+01  -4.039912e+01
   6.237261e+01  -3.839535e+01
   1.554590e+02  -8.793521e+00
   1.481782e+02   4.935002e+01
   1.891432e+01   9.277591e+01
  -1.209554e+02   8.490463e+01
  -1.506822e+02   1.787395e+01
  -4.987350e+01  -4.603388e+01
   6.411331e+01  -4.373183e+01
   7.854419e+01   1.877203e+01
   6.526524e+00   7.428319e+01
  -5.846145e+01   6.250182e+01
  -6.486226e+01  -1.904034e+00
  -4.301177e+01  -5.255092e+01
  -4.653930e+01  -4.356380e+01
  -6.529389e+01  -1.131252e+00
  -6.689321e+01   2.169063e+00
  -3.443224e+01  -6.725189e+01
   2.905295e+01  -1.473308e+02
   1.147291e+02  -1.418403e+02
   1.631425e+02  -2.952018e+01
   1.219272e+02   9.624133e+01
   4.007506e+00   1.280475e+02
  -9.211321e+01   5.783378e+01
  -6.248650e+01  -2.062100e+01
   5.923390e+01  -2.541205e+01
   1.402604e+02   3.850765e+01
   7.925907e+01   1.052818e+02
  -7.807232e+01   1.133975e+02
  -1.903773e+02   5.713728e+01
  -1.626502e+02  -3.193127e+01
  -3.900283e+01  -8.695057e+01
   6.025534e+01  -7.130176e+01
   4.770567e+01  -8.590946e+00
  -3.996600e+01   2.693886e+01
  -9.334041e+01  -2.447813e+01
  -3.338499e+01  -1.241290e+02
   9.260045e+01  -1.582041e+02
   1.723508e+02  -6.045807e+01
   1.306060e+02   1.069216e+02
   1.314822e+01   2.010523e+02
  -8.591106e+01   1.455568e+02
  -1.080744e+02  -7.360649e+00
  -6.286801e+01  -1.205784e+02
   5.545216e-01  -1.098850e+02
   4.936879e+01  -2.138841e+01
   5.534784e+01   3.282985e+01
   2.585949e+01   1.140421e+01
   2.690721e+00  -1.948076e+01
   1.984497e+01   1.383125e+01
   5.955492e+01   8.647482e+01
   4.456038e+01   1.113107e+02
  -4.944456e+01   4.799532e+01
  -1.437867e+02  -3.841836e+01
  -1.350784e+02  -7.548351e+01
  -1.581801e+01  -5.480355e+01
   9.133387e+01  -2.257895e+01
   8.951491e+01  -7.099884e+00
   1.051621e+01   1.140195e+01
  -3.932892e+01   2.364116e+01
  -1.197115e+01   1.766371e+01
   2.241297e+01  -1.926223e+00
  -8.101958e+00  -8.962357e+00
  -7.886349e+01  -2.679633e+00
  -9.416842e+01  -2.402206e+01
  -8.662610e+00  -8.329915e+01
   1.212617e+02  -1.176593e+02
   1.875656e+02  -6.027948e+01
   1.435777e+02   6.898710e+01
   2.652169e+01   1.660868e+02
  -8.050143e+01   1.505227e+02
  -1.142274e+02   5.784325e+01
  -8.049179e+01  -2.390038e+01
  -2.307164e+01  -3.633951e+01
   3.983337e+00  -7.929666e+00
  -1.067657e+01  -4.335153e+00
  -3.247199e+01  -4.679553e+01
  -2.235537e+01  -9.080805e+01
   3.044079e+01  -7.187094e+01
   8.183304e+01   2.061689e+01
   7.751168e+01   1.094213e+02
   3.701601e+00   1.108582e+02
  -8.476456e+01   2.316595e+01
  -1.048445e+02  -7.734224e+01
  -3.102100e+01  -1.043663e+02
   6.982945e+01  -5.614514e+01
   9.930427e+01   1.397183e+01
   4.009530e+01   5.183308e+01
  -3.257176e+01   5.297186e+01
  -3.158503e+01   2.892939e+01
   3.539623e+01  -9.892455e-03
   6.918403e+01  -7.051015e+00
   1.503341e+01   2.583136e+01
  -7.949193e+01   6.823834e+01
  -1.163518e+02   6.101293e+01
  -6.340743e+01  -1.105480e+01
   1.534808e+01  -8.395367e+01
   5.237920e+01  -7.909567e+01
   3.822868e+01  -5.097691e+00
   2.002820e+00   5.809187e+01
  -2.617641e+01   4.375688e+01
  -3.750443e+01  -1.898085e+01
  -2.803133e+01  -5.440102e+01
   2.832138e+00  -3.345149e+01
   3.422503e+01   8.186548e+00
   4.219342e+01   2.036297e+01
   2.241978e+01   1.876120e+00
  -4.723044e-01  -1.340359e+01
  -6.951938e+00   4.147610e+00
  -8.044287e+00   3.831408e+01
  -1.965346e+01   4.474360e+01
  -3.399708e+01   6.146916e+00
  -2.974158e+01  -4.813321e+01
   5.833106e+00  -6.237095e+01
   4.655067e+01  -1.995856e+01
   5.654821e+01   3.984265e+01
   1.430873e+01   6.333572e+01
  -5.548486e+01   3.481940e+01
  -8.992476e+01  -1.554853e+01
  -5.061908e+01  -4.626647e+01
   2.822949e+01  -4.267278e+01
   6.475050e+01  -2.226874e+01
   2.568056e+01  -2.572119e+00
  -3.738522e+01  -1.578581e-01
  -3.982979e+01  -1.672536e+01
   3.082188e+01  -3.449309e+01
   9.472099e+01  -2.103219e+01
