
 $NMID
 id='ANONYMOUS ', fmtdat='(2E16.6)'
 volume=1.0
 tramp=1.0
 $END
  -2.881509e+03  -1.988546e+02
  -1.594732e+03  -1.403995e+03
   2.805954e+02  -1.880211e+03
   1.295522e+03  -9.334751e+02
   8.060730e+02   7.532158e+01
  -1.500616e+02   3.036200e+02
  -4.130241e+02  -1.185327e+02
  -2.033261e+01  -5.533976e+02
   4.401607e+02  -5.258059e+02
   5.542970e+02  -5.349372e+01
   3.368919e+02   4.908886e+02
  -4.756551e+01   5.895932e+02
  -3.259146e+02   1.407320e+02
  -2.460423e+02  -3.995555e+02
   1.134040e+02  -4.967511e+02
   3.770304e+02  -5.784563e+01
   2.475041e+02   4.579317e+02
  -1.491602e+02   5.254010e+02
  -4.349596e+02   1.784783e+02
  -3.560996e+02  -2.154976e+02
  -7.060269e+01  -3.372261e+02
   1.469800e+02  -2.081012e+02
   1.217748e+02  -4.750110e+01
  -1.089356e+02  -4.352437e+01
  -2.315398e+02  -1.758946e+02
  -3.462830e+01  -2.798046e+02
   3.489884e+02  -1.670383e+02
   5.155551e+02   1.145377e+02
   2.199125e+02   3.017127e+02
  -2.701218e+02   2.092240e+02
  -4.455799e+02  -8.699099e+01
  -1.608984e+02  -3.146218e+02
   2.414166e+02  -3.079150e+02
   3.973007e+02  -1.010324e+02
   2.621726e+02   1.560875e+02
   5.422491e+01   3.044836e+02
  -6.330864e+01   2.013536e+02
  -2.613729e+01  -7.515607e+01
   1.103381e+02  -1.856931e+02
   2.081809e+02   6.758324e+01
   6.576434e+01   4.246688e+02
  -2.131805e+02   4.188201e+02
  -3.441243e+02   1.173394e+01
  -1.466171e+02  -3.062197e+02
   1.396313e+02  -1.611856e+02
   1.768497e+02   2.241326e+02
  -1.007704e+02   3.279938e+02
  -3.698304e+02   4.879297e+01
  -3.746843e+02  -3.195509e+02
  -9.698714e+01  -4.225351e+02
   2.627113e+02  -2.263328e+02
   4.363884e+02   6.588162e+01
   2.831475e+02   2.510336e+02
  -6.248430e+01   2.267294e+02
  -2.851697e+02   5.681852e+01
  -2.048078e+02  -8.045645e+01
   2.274101e+01  -5.818514e+01
   7.990741e+01   4.889331e+01
  -7.596452e+01   8.056449e+01
  -1.937319e+02  -3.513015e+01
  -9.057296e+01  -1.767962e+02
   1.407335e+02  -1.901505e+02
   2.740108e+02  -7.067398e+01
   1.783480e+02   1.032728e+02
  -4.996182e+01   2.277049e+02
  -2.416593e+02   2.536675e+02
  -2.802624e+02   1.141004e+02
  -1.888992e+02  -1.356120e+02
  -2.355174e+01  -3.074433e+02
   6.367387e+01  -2.690491e+02
   5.347371e+01  -1.270444e+02
   3.519051e+01  -5.590992e+01
   1.026228e+02  -7.475399e+01
   1.910912e+02  -4.070357e+01
   1.892300e+02   1.026361e+02
   6.232397e+01   2.170779e+02
  -8.794888e+01   1.600666e+02
  -1.535975e+02  -3.680066e+01
  -1.023750e+02  -1.945000e+02
   3.865199e+01  -1.844272e+02
   1.844983e+02  -4.127582e+01
   2.337135e+02   1.381239e+02
   1.198513e+02   2.331907e+02
  -5.543874e+01   2.062462e+02
  -1.485205e+02   1.131882e+02
  -1.215504e+02   4.356012e+01
  -1.120695e+02   3.896077e+01
  -2.185831e+02   1.342436e+01
  -3.127170e+02  -8.910546e+01
  -2.285563e+02  -2.483601e+02
   4.559508e+01  -3.387980e+02
   3.085736e+02  -2.927314e+02
   3.629575e+02  -1.209675e+02
   2.196444e+02   8.561811e+01
   1.769948e+01   2.080489e+02
  -8.067448e+01   1.696094e+02
  -2.507526e+01   3.489660e+01
   7.360301e+01  -4.234882e+01
   1.086977e+02   1.970638e+01
   1.181239e+01   1.194466e+02
  -1.020758e+02   8.674013e+01
  -9.795843e+01  -4.657782e+01
   2.124344e+01  -1.121013e+02
   1.312101e+02   4.421871e+00
   1.082297e+02   1.936706e+02
  -4.035745e+01   2.615282e+02
  -1.978625e+02   1.415031e+02
  -2.617862e+02  -7.050478e+01
  -1.884491e+02  -2.074926e+02
  -3.017835e+01  -1.989360e+02
   9.733292e+01  -9.893466e+01
   1.093359e+02  -1.047922e+01
   2.622239e+01   4.197674e+00
  -3.672503e+01  -4.765456e+01
   5.014851e+00  -8.465789e+01
   8.993092e+01  -5.104662e+01
   1.134823e+02   2.270100e+01
   2.515736e+01   4.609296e+01
  -6.138256e+01  -1.132376e+01
  -2.321485e+01  -7.646333e+01
   1.245291e+02  -6.580377e+01
   2.392096e+02   2.950533e+01
   1.914409e+02   1.480018e+02
   9.052300e+00   2.041467e+02
  -1.722466e+02   1.757857e+02
  -2.124418e+02   7.058969e+01
  -1.099107e+02  -3.649991e+01
   2.516673e+01  -6.551118e+01
   5.268319e+01   1.820591e+00
  -4.131557e+01   6.359777e+01
  -1.487962e+02   2.388043e+01
  -1.498163e+02  -9.074366e+01
  -3.954924e+01  -1.526734e+02
   7.198806e+01  -1.026614e+02
   9.381874e+01  -8.998789e+00
   3.202327e+01   2.588861e+01
  -2.830143e+01  -2.086128e+01
  -1.068738e+01  -8.449275e+01
   7.517035e+01  -7.958705e+01
   1.581560e+02  -3.350557e+00
   1.327939e+02   1.066311e+02
   9.754883e-01   1.625862e+02
  -1.248249e+02   1.151493e+02
  -1.372104e+02   2.483938e+00
  -4.107787e+01  -8.039203e+01
   5.421257e+01  -7.466316e+01
   5.638558e+01  -1.894668e+01
   3.872110e+00   1.631631e+01
  -2.317330e+01   4.612598e+00
   1.318073e+01  -1.558567e+01
   6.646779e+01   8.850046e+00
   7.102874e+01   7.672797e+01
  -1.660525e+00   1.326874e+02
  -1.131003e+02   1.090689e+02
  -1.841427e+02   6.819442e-01
  -1.384159e+02  -1.283607e+02
  -1.838797e+01  -1.778510e+02
   8.794714e+01  -1.164761e+02
   1.026166e+02  -1.678945e+01
   5.712611e+01   3.934022e+01
   2.662467e+01   2.681982e+01
   4.474726e+01  -3.763798e+00
   6.340921e+01   1.980072e+00
   3.466662e+01   4.944578e+01
  -4.033176e+01   7.817299e+01
  -1.005079e+02   4.207537e+01
  -7.713191e+01  -4.221517e+01
   2.413549e+01  -9.969308e+01
   1.324768e+02  -6.100302e+01
   1.533074e+02   5.924959e+01
   5.603896e+01   1.691961e+02
  -1.011001e+02   1.656411e+02
  -2.037418e+02   5.252299e+01
  -1.821675e+02  -7.816357e+01
  -6.971847e+01  -1.373087e+02
   3.668410e+01  -1.070858e+02
   7.327082e+01  -5.784385e+01
   6.058858e+01  -5.284232e+01
   5.618461e+01  -7.158820e+01
   7.403276e+01  -5.359151e+01
   9.931490e+01   2.737898e+01
   8.181314e+01   1.317556e+02
   4.956208e+00   1.778305e+02
  -8.663480e+01   1.216630e+02
  -1.306492e+02  -1.340970e+00
  -8.952450e+01  -1.020583e+02
  -1.262680e+00  -1.168716e+02
   5.979443e+01  -5.847291e+01
   4.344008e+01   1.211516e+01
  -7.879168e+00   3.789152e+01
  -1.846395e+01   2.523033e+01
   2.676211e+01   1.118885e+01
   6.577592e+01   2.095674e+01
   3.351971e+01   3.355181e+01
  -6.002541e+01   2.647690e+01
  -1.292841e+02  -1.215451e+01
  -1.003452e+02  -5.265427e+01
   9.454928e+00  -7.139299e+01
   1.079531e+02  -4.828206e+01
   1.123777e+02   2.826888e+00
   2.876843e+01   4.103585e+01
  -5.162942e+01   3.082251e+01
  -5.979275e+01  -1.837489e+01
  -8.025863e+00  -5.754740e+01
   4.192209e+01  -4.614768e+01
   5.142759e+01   3.501569e+00
   3.903545e+01   4.153210e+01
   3.704904e+01   3.398501e+01
   4.836157e+01   2.406199e+00
   5.041661e+01   2.123352e+00
   2.905677e+01   6.087627e+01
  -2.881011e+01   1.194630e+02
  -1.030551e+02   1.083933e+02
  -1.383556e+02   1.606837e+01
  -9.309889e+01  -7.691051e+01
   5.234780e+00  -1.022523e+02
   7.370224e+01  -4.912871e+01
   4.388005e+01   1.357407e+01
  -4.953167e+01   1.321321e+01
  -1.014491e+02  -4.392687e+01
  -4.909809e+01  -8.976825e+01
   7.478351e+01  -8.159056e+01
   1.551669e+02  -2.107830e+01
   1.225226e+02   3.777078e+01
   2.268286e+01   6.618883e+01
  -5.176274e+01   4.616684e+01
  -3.563656e+01   1.143746e+00
   2.791257e+01  -1.862346e+01
   6.921170e+01   2.278434e+01
   2.570626e+01   9.303293e+01
  -6.767913e+01   1.178942e+02
  -1.252848e+02   4.812700e+01
  -9.506712e+01  -7.797913e+01
  -3.390028e+00  -1.486670e+02
   6.791696e+01  -1.018299e+02
   7.570454e+01   1.648481e+01
   3.403667e+01   9.689295e+01
  -1.687768e+01   7.978655e+01
  -3.997258e+01   6.951563e+00
  -3.545683e+01  -2.836737e+01
  -1.746000e+01  -6.523888e+00
  -6.349622e+00   1.323190e+01
  -1.697680e+01  -2.039366e+01
  -3.629644e+01  -7.280958e+01
  -2.106400e+01  -7.916726e+01
   4.238421e+01  -2.424866e+01
   1.044351e+02   3.806240e+01
   9.369409e+01   6.153924e+01
   1.089110e+01   4.105650e+01
  -6.698719e+01   1.477119e+01
  -6.739706e+01  -1.432027e+00
  -1.157954e+01  -1.163025e+01
   2.728631e+01  -1.550046e+01
   1.273438e+01  -6.915362e+00
  -1.237116e+01   2.287273e+00
   5.021028e+00   2.652158e+00
   5.748422e+01   1.123968e+00
   7.419403e+01   2.365395e+01
   8.835375e+00   6.709929e+01
  -9.495487e+01   8.637009e+01
  -1.488595e+02   3.874995e+01
  -1.085225e+02  -5.588561e+01
  -1.317863e+01  -1.240839e+02
   6.842882e+01  -1.155763e+02
   8.902764e+01  -4.338842e+01
   6.088977e+01   1.877308e+01
   1.981919e+01   3.142713e+01
   1.289334e+00   1.064868e+01
   1.029072e+01   6.017178e+00
   2.223670e+01   3.924768e+01
   9.082488e+00   7.385211e+01
  -2.727622e+01   5.511245e+01
  -6.076494e+01  -1.772336e+01
  -5.427583e+01  -8.779566e+01
  -2.936719e+00  -8.758099e+01
   6.199993e+01  -1.883440e+01
   7.899951e+01   5.808972e+01
   2.361650e+01   8.109197e+01
  -5.497150e+01   4.385064e+01
  -8.121234e+01  -1.393710e+01
  -3.027206e+01  -4.747563e+01
   3.385477e+01  -4.438400e+01
   3.223802e+01  -1.907892e+01
  -2.120687e+01   2.512466e+00
  -5.225892e+01   3.638219e+00
  -8.537062e+00  -2.022114e+01
   6.663315e+01  -4.132174e+01
   9.302875e+01  -3.062545e+01
   4.991171e+01   1.759716e+01
  -1.776172e+01   6.398085e+01
  -4.931036e+01   5.741695e+01
  -3.286175e+01   2.073817e+00
  -1.254846e+00  -4.323585e+01
   2.136799e+01  -3.602063e+01
   2.814545e+01   1.261262e+01
   1.860707e+01   4.261011e+01
  -2.766239e+00   2.753155e+01
  -2.562222e+01  -7.800122e+00
  -3.057021e+01  -2.201475e+01
  -1.473009e+01  -2.902975e+00
   1.509825e+00   1.660728e+01
   3.701500e+00   4.599371e+00
  -1.547065e-01  -2.750664e+01
   8.018047e+00  -4.142346e+01
   2.647634e+01  -1.264325e+01
   3.123716e+01   3.294100e+01
   2.926365e+00   4.995043e+01
  -3.641997e+01   1.827186e+01
  -4.957282e+01  -3.077266e+01
  -1.200708e+01  -4.975674e+01
   4.551161e+01  -2.639295e+01
   7.100716e+01   1.361322e+01
   3.737295e+01   3.548880e+01
  -2.479566e+01   3.237565e+01
  -5.144009e+01   1.691600e+01
  -2.019695e+01   3.170162e+00
   2.505451e+01  -5.076549e-01
   2.727120e+01   9.137298e+00
  -2.237390e+01   2.035120e+01
  -6.620671e+01   1.216297e+01
