
 $NMID
 id='ANONYMOUS ', fmtdat='(2E16.6)'
 volume=1.0
 tramp=1.0
 $END
  -3.074565e+03  -3.593633e+01
  -1.877910e+03  -1.408785e+03
   6.727620e+01  -2.047023e+03
   1.271215e+03  -1.304202e+03
   9.631288e+02  -2.993005e+02
   6.204242e+01   1.734662e+02
  -2.900292e+02  -2.748107e+01
  -3.574135e+00  -4.459310e+02
   4.269734e+02  -5.051180e+02
   5.854728e+02  -9.930564e+01
   3.823358e+02   4.843214e+02
   1.894170e+01   6.102885e+02
  -2.491034e+02   1.988379e+02
  -2.159919e+02  -3.855881e+02
   9.666397e+01  -5.142459e+02
   3.608900e+02  -7.032569e+01
   2.820320e+02   4.720685e+02
  -1.127712e+02   5.915902e+02
  -4.426311e+02   2.522496e+02
  -4.349628e+02  -1.764359e+02
  -1.358980e+02  -3.408311e+02
   1.117173e+02  -2.204863e+02
   5.317997e+01  -7.156625e+01
  -1.959859e+02  -1.239482e+02
  -2.496942e+02  -3.091802e+02
   5.967161e+01  -3.629005e+02
   4.978908e+02  -1.105162e+02
   5.666147e+02   2.300496e+02
   1.528665e+02   3.388295e+02
  -3.542124e+02   1.567276e+02
  -4.774439e+02  -1.606365e+02
  -1.404153e+02  -3.489372e+02
   2.862138e+02  -3.191942e+02
   4.506396e+02  -1.113510e+02
   2.921791e+02   1.638665e+02
   6.098728e+01   2.988884e+02
  -2.456267e+01   1.699678e+02
   7.173963e+01  -8.808978e+01
   1.927036e+02  -1.338564e+02
   1.733867e+02   1.712584e+02
  -3.247953e+01   4.901982e+02
  -2.631807e+02   4.001742e+02
  -3.056540e+02  -4.070882e+01
  -8.774930e+01  -3.176712e+02
   1.551971e+02  -1.123669e+02
   1.402919e+02   2.913925e+02
  -1.400706e+02   3.817075e+02
  -4.466192e+02   3.293451e+01
  -4.661321e+02  -3.837137e+02
  -1.319662e+02  -5.057994e+02
   3.073971e+02  -2.517048e+02
   5.068333e+02   8.747196e+01
   3.239971e+02   2.590549e+02
  -5.333015e+01   2.115611e+02
  -2.841706e+02   6.000595e+01
  -2.063508e+02  -4.183173e+01
  -4.559350e+00  -1.970378e+01
   4.348710e+01   5.815701e+01
  -1.037940e+02   6.129542e+01
  -2.165103e+02  -5.991770e+01
  -1.078507e+02  -2.034491e+02
   1.587440e+02  -2.373137e+02
   3.519549e+02  -1.258940e+02
   2.704815e+02   1.153064e+02
  -2.509280e+01   3.382088e+02
  -3.083056e+02   3.586804e+02
  -3.787117e+02   1.466380e+02
  -2.316726e+02  -1.732587e+02
  -3.284777e+01  -3.608008e+02
   4.697804e+01  -3.201817e+02
   2.140764e+01  -1.791074e+02
   4.030592e+01  -1.188927e+02
   1.565537e+02  -1.209508e+02
   2.650607e+02  -4.045865e+01
   2.362939e+02   1.457212e+02
   6.794341e+01   2.712198e+02
  -1.163036e+02   1.870277e+02
  -1.951053e+02  -6.327785e+01
  -1.198073e+02  -2.533218e+02
   6.546442e+01  -2.348936e+02
   2.510221e+02  -3.929710e+01
   2.859114e+02   1.900657e+02
   1.400177e+02   2.914114e+02
  -5.699126e+01   2.416469e+02
  -1.589875e+02   1.440892e+02
  -1.431765e+02   8.525706e+01
  -1.596250e+02   7.963846e+01
  -2.900780e+02   3.142624e+01
  -4.006406e+02  -1.109553e+02
  -2.983049e+02  -3.158437e+02
   4.233235e+01  -4.387453e+02
   3.893883e+02  -3.720860e+02
   4.787670e+02  -1.498238e+02
   2.775405e+02   1.176505e+02
   5.030447e+00   2.484346e+02
  -1.017510e+02   1.891324e+02
  -3.944831e+00   3.199198e+01
   1.243383e+02  -2.556553e+01
   1.239079e+02   5.863698e+01
  -1.369426e+01   1.481095e+02
  -1.306348e+02   9.061116e+01
  -9.676099e+01  -6.320060e+01
   4.499783e+01  -1.246049e+02
   1.647003e+02   9.054180e+00
   1.433909e+02   2.444963e+02
  -3.328096e+01   3.462192e+02
  -2.561408e+02   1.992427e+02
  -3.660297e+02  -7.979708e+01
  -2.669081e+02  -2.802257e+02
  -3.648271e+01  -2.716672e+02
   1.340446e+02  -1.204107e+02
   1.370448e+02   3.468878e+00
   1.921022e+01   7.878543e+00
  -4.719079e+01  -7.953779e+01
   2.155485e+01  -1.185691e+02
   1.316038e+02  -5.732646e+01
   1.380653e+02   4.080092e+01
   1.617716e+01   5.756839e+01
  -9.196287e+01  -2.056255e+01
  -3.702909e+01  -1.097501e+02
   1.654473e+02  -1.039160e+02
   3.185190e+02   2.375454e+01
   2.614655e+02   1.868665e+02
   1.753876e+01   2.746811e+02
  -2.240824e+02   2.275134e+02
  -2.718211e+02   8.464279e+01
  -1.290916e+02  -4.835852e+01
   3.659964e+01  -7.298252e+01
   5.910044e+01   8.654422e+00
  -6.247581e+01   7.180245e+01
  -1.864252e+02   2.246526e+01
  -1.805186e+02  -1.122561e+02
  -4.161057e+01  -1.882713e+02
   9.548680e+01  -1.261487e+02
   1.178590e+02  -1.789268e+00
   3.228530e+01   4.366729e+01
  -4.983571e+01  -2.948817e+01
  -2.291194e+01  -1.245345e+02
   1.040417e+02  -1.210956e+02
   2.181945e+02  -8.648952e-02
   1.757898e+02   1.495779e+02
  -2.851076e+00   2.091717e+02
  -1.582387e+02   1.368557e+02
  -1.651958e+02  -6.751468e-01
  -4.347624e+01  -9.429473e+01
   6.625557e+01  -8.274362e+01
   6.482645e+01  -1.322041e+01
  -5.995423e+00   2.704099e+01
  -4.049948e+01   1.448358e+00
   1.112647e+01  -3.177629e+01
   9.398240e+01  -1.951202e+00
   1.080440e+02   1.001810e+02
   4.577820e+00   1.856315e+02
  -1.546823e+02   1.539913e+02
  -2.474717e+02  -7.121731e+00
  -1.875364e+02  -1.754212e+02
  -2.122377e+01  -2.337585e+02
   1.135026e+02  -1.540511e+02
   1.296077e+02  -2.338150e+01
   6.883360e+01   4.787141e+01
   3.307093e+01   2.665632e+01
   6.348826e+01  -1.424853e+01
   9.537226e+01  -1.205968e+00
   5.760942e+01   6.591279e+01
  -4.868897e+01   1.135647e+02
  -1.342607e+02   6.808019e+01
  -1.126323e+02  -5.196723e+01
   2.292758e+01  -1.400227e+02
   1.804932e+02  -8.992652e+01
   2.114532e+02   7.826542e+01
   7.593467e+01   2.280216e+02
  -1.447950e+02   2.260918e+02
  -2.747786e+02   6.955359e+01
  -2.376247e+02  -1.033352e+02
  -8.947838e+01  -1.798457e+02
   4.453073e+01  -1.335481e+02
   8.711033e+01  -6.962773e+01
   6.816327e+01  -6.246784e+01
   5.783815e+01  -9.726185e+01
   9.130539e+01  -8.413453e+01
   1.338046e+02   2.035686e+01
   1.192520e+02   1.635728e+02
   1.906302e+01   2.377343e+02
  -1.127002e+02   1.663266e+02
  -1.761909e+02   5.691102e-01
  -1.179182e+02  -1.400283e+02
   4.583098e+00  -1.585126e+02
   8.666020e+01  -7.114474e+01
   6.232449e+01   2.548980e+01
  -1.125064e+01   6.014363e+01
  -3.335254e+01   3.801213e+01
   2.614361e+01   7.877738e+00
   8.802610e+01   1.802679e+01
   4.803729e+01   4.290599e+01
  -7.808066e+01   4.138500e+01
  -1.784610e+02  -9.709438e+00
  -1.426361e+02  -7.595618e+01
   6.560679e+00  -1.046357e+02
   1.444883e+02  -7.322162e+01
   1.530008e+02   3.661351e+00
   4.128818e+01   5.922663e+01
  -6.615634e+01   4.574162e+01
  -8.052837e+01  -2.202871e+01
  -1.901013e+01  -7.682338e+01
   4.856591e+01  -6.595151e+01
   7.283213e+01  -1.132567e+00
   5.999212e+01   5.456565e+01
   4.647997e+01   5.196309e+01
   4.898977e+01   7.404664e+00
   6.125386e+01   3.359017e+00
   4.413699e+01   7.435488e+01
  -2.526813e+01   1.548006e+02
  -1.323678e+02   1.467224e+02
  -1.894005e+02   2.783325e+01
  -1.343356e+02  -1.025459e+02
   3.775300e+00  -1.410739e+02
   1.025885e+02  -6.667211e+01
   6.525615e+01   1.549335e+01
  -6.193373e+01   2.148279e+01
  -1.352109e+02  -4.664291e+01
  -6.897806e+01  -1.109594e+02
   9.040836e+01  -1.110372e+02
   1.968161e+02  -4.063841e+01
   1.573427e+02   4.875101e+01
   2.430461e+01   8.999042e+01
  -7.182996e+01   5.862475e+01
  -4.938498e+01  -6.433801e+00
   4.278072e+01  -3.230409e+01
   9.616666e+01   2.128353e+01
   3.970286e+01   1.183445e+02
  -8.098519e+01   1.555483e+02
  -1.577594e+02   6.776906e+01
  -1.258861e+02  -9.588984e+01
  -1.221301e+01  -1.902442e+02
   8.622547e+01  -1.332290e+02
   1.042718e+02   1.875176e+01
   4.775438e+01   1.243101e+02
  -2.148621e+01   1.040973e+02
  -5.565692e+01   1.130443e+01
  -4.469232e+01  -3.696451e+01
  -1.671736e+01  -9.647202e+00
  -8.098986e+00   1.591489e+01
  -3.038078e+01  -2.210340e+01
  -5.219281e+01  -9.298342e+01
  -2.382543e+01  -1.069195e+02
   6.067091e+01  -4.051044e+01
   1.358925e+02   4.170978e+01
   1.226422e+02   7.284535e+01
   1.805227e+01   5.607971e+01
  -8.280714e+01   2.513566e+01
  -8.966120e+01   3.415290e+00
  -1.936180e+01  -1.382249e+01
   3.409252e+01  -2.118710e+01
   2.012559e+01  -1.261965e+01
  -1.568735e+01   3.346400e+00
   1.865453e+00   2.491372e+00
   6.893164e+01  -1.714108e+00
   9.528048e+01   2.357041e+01
   1.999704e+01   8.323523e+01
  -1.146241e+02   1.136172e+02
  -1.876706e+02   5.766355e+01
  -1.451320e+02  -6.513293e+01
  -2.368041e+01  -1.601887e+02
   8.705802e+01  -1.484153e+02
   1.193899e+02  -5.717836e+01
   7.968680e+01   2.444541e+01
   2.458101e+01   3.996186e+01
   3.693385e-01   1.387957e+01
   1.378559e+01   8.968820e+00
   2.963868e+01   5.076381e+01
   1.500741e+01   9.362291e+01
  -3.189328e+01   7.274787e+01
  -7.790913e+01  -1.779762e+01
  -7.679351e+01  -1.045353e+02
  -1.217586e+01  -1.103164e+02
   7.647395e+01  -3.136372e+01
   1.075997e+02   6.495351e+01
   4.092350e+01   1.028146e+02
  -6.514562e+01   6.443319e+01
  -1.064489e+02  -7.577390e+00
  -4.735259e+01  -5.865775e+01
   3.655471e+01  -6.127193e+01
   4.250057e+01  -3.019547e+01
  -2.473494e+01   3.827229e+00
  -6.799492e+01   8.178181e+00
  -1.801041e+01  -2.675806e+01
   8.103694e+01  -6.275702e+01
   1.250999e+02  -4.741838e+01
   7.072935e+01   2.141987e+01
  -1.715181e+01   8.741357e+01
  -6.240050e+01   8.210758e+01
  -4.717469e+01   1.210515e+01
  -7.851819e+00  -5.465651e+01
   2.434419e+01  -4.938714e+01
   3.782001e+01   1.241931e+01
   2.734389e+01   5.630591e+01
  -4.263630e+00   3.970180e+01
  -3.521409e+01  -7.946264e+00
  -4.226927e+01  -2.994802e+01
  -1.909951e+01  -6.345262e+00
   6.219343e+00   2.233634e+01
   6.657749e+00   1.006954e+01
  -5.616680e+00  -3.227947e+01
   3.321775e-01  -5.443236e+01
   2.737583e+01  -2.333320e+01
   4.313440e+01   3.587172e+01
   1.289726e+01   6.128228e+01
  -4.075040e+01   2.655935e+01
  -6.291587e+01  -3.281179e+01
  -1.964906e+01  -5.925767e+01
   5.597679e+01  -3.534205e+01
   9.276174e+01   1.247641e+01
   5.154537e+01   4.343580e+01
  -2.836918e+01   4.494722e+01
  -6.649143e+01   3.004367e+01
  -3.101737e+01   7.603878e+00
   2.540723e+01  -4.980708e+00
   3.342664e+01   2.789502e+00
  -2.159999e+01   2.257174e+01
  -7.782813e+01   1.990647e+01
