
 $NMID
 id='ANONYMOUS ', fmtdat='(2E16.6)'
 volume=1.0
 tramp=1.0
 $END
   4.824059e+03  -3.091955e+01
   2.648426e+03   2.790120e+03
  -9.563896e+02   3.137808e+03
  -2.594956e+03   9.196237e+02
  -1.120799e+03  -8.871471e+02
   8.049850e+02  -7.854501e+02
   1.114443e+03   4.815746e+02
   2.469865e+01   1.278589e+03
  -9.716963e+02   9.615066e+02
  -1.141567e+03  -1.335163e+02
  -5.673761e+02  -1.025049e+03
   2.838125e+02  -1.070587e+03
   7.794217e+02  -1.519740e+02
   4.906486e+02   8.110756e+02
  -3.091183e+02   8.736616e+02
  -7.330473e+02  -1.372557e+01
  -3.171893e+02  -8.052047e+02
   4.081763e+02  -7.394755e+02
   7.288540e+02  -6.834032e+01
   4.566863e+02   4.521425e+02
  -2.322900e+00   5.314683e+02
  -3.107800e+02   3.144525e+02
  -2.837460e+02   2.512457e+01
   7.353263e+01  -1.297070e+02
   4.399893e+02   6.819596e+01
   2.613063e+02   4.459410e+02
  -4.595146e+02   5.028586e+02
  -9.484921e+02  -6.117657e+00
  -5.271412e+02  -5.911712e+02
   3.857334e+02  -5.782916e+02
   8.124486e+02  -1.328651e+01
   3.947278e+02   5.170180e+02
  -3.052469e+02   5.787262e+02
  -6.355972e+02   2.301465e+02
  -4.817095e+02  -2.669642e+02
  -9.600135e+01  -5.561365e+02
   2.432818e+02  -3.709299e+02
   2.629863e+02   2.039573e+02
  -1.001738e+02   5.074434e+02
  -4.893106e+02   4.582075e+01
  -3.278852e+02  -7.083721e+02
   3.153702e+02  -7.945059e+02
   7.060196e+02  -3.185538e+01
   3.371472e+02   6.307077e+02
  -3.109998e+02   4.042523e+02
  -4.571641e+02  -3.405312e+02
   6.079990e+01  -6.053118e+02
   6.036106e+02  -1.791487e+02
   6.371773e+02   4.309042e+02
   1.712610e+02   6.480064e+02
  -4.167085e+02   3.897038e+02
  -6.881725e+02  -8.506542e+01
  -4.291598e+02  -4.361316e+02
   1.538947e+02  -4.403720e+02
   5.088408e+02  -9.120195e+01
   3.047143e+02   2.236410e+02
  -1.204176e+02   1.555106e+02
  -1.892092e+02  -1.496667e+02
   1.535998e+02  -2.176270e+02
   3.813197e+02   6.285722e+01
   1.595374e+02   3.326746e+02
  -2.361217e+02   2.854800e+02
  -3.757993e+02   6.184134e+01
  -2.011860e+02  -1.263560e+02
   5.136451e+01  -2.365672e+02
   2.575060e+02  -3.333520e+02
   3.734806e+02  -2.257008e+02
   3.281164e+02   1.460606e+02
   9.997283e+01   4.939995e+02
  -1.427129e+02   4.504146e+02
  -1.739184e+02   1.350466e+02
  -4.947570e+01  -3.253105e+01
  -4.022744e+01   6.490659e+01
  -1.926996e+02   1.334031e+02
  -2.954138e+02  -5.094484e+01
  -1.840165e+02  -2.858045e+02
   6.586050e+01  -2.865285e+02
   2.408725e+02  -2.840850e+01
   2.206705e+02   2.396023e+02
   3.443924e+00   3.118680e+02
  -2.785649e+02   1.350632e+02
  -3.911470e+02  -1.779946e+02
  -2.054178e+02  -3.941450e+02
   1.229292e+02  -3.505384e+02
   2.712044e+02  -1.329890e+02
   1.795926e+02   1.258400e+01
   1.128941e+02  -1.905707e+01
   2.443826e+02  -5.799452e+01
   4.196818e+02   6.831005e+01
   3.504226e+02   3.222772e+02
  -1.586450e+01   4.713689e+02
  -3.885454e+02   4.245147e+02
  -5.244894e+02   1.888196e+02
  -3.712630e+02  -1.077113e+02
  -6.363097e+01  -3.306117e+02
   1.482929e+02  -2.900582e+02
   1.189790e+02  -3.941891e+01
  -9.634612e+01   1.414077e+02
  -2.185188e+02   1.349723e+01
  -7.547413e+01  -2.119649e+02
   1.681211e+02  -2.035942e+02
   2.061544e+02   5.403483e+01
  -1.195246e+01   2.158319e+02
  -2.128746e+02   4.295485e+01
  -1.752633e+02  -2.746873e+02
   5.160125e+01  -3.865802e+02
   2.633005e+02  -2.053524e+02
   3.470208e+02   7.731292e+01
   2.829145e+02   2.533180e+02
   9.695442e+01   2.736556e+02
  -1.148771e+02   1.711795e+02
  -1.849324e+02   2.624998e+01
  -6.268614e+01  -3.179208e+01
   7.972776e+01   3.854531e+01
   3.927998e+01   1.339202e+02
  -1.304453e+02   1.137206e+02
  -1.991087e+02  -6.810730e+00
  -7.531754e+01  -7.606841e+01
   7.273160e+01  -1.939200e+01
   5.131584e+01   6.888673e+01
  -1.290550e+02   7.733986e+01
  -2.890600e+02  -1.752315e+01
  -2.662047e+02  -1.510007e+02
  -6.081772e+01  -2.650314e+02
   1.904417e+02  -2.838916e+02
   3.035751e+02  -1.448550e+02
   1.930781e+02   5.404219e+01
  -1.452727e+01   1.301318e+02
  -9.811404e+01   1.946228e+01
   2.962739e+01  -1.083306e+02
   2.077482e+02  -6.905684e+01
   2.305411e+02   1.126664e+02
   7.572722e+01   2.309244e+02
  -9.921067e+01   1.746703e+02
  -1.515612e+02   3.194185e+01
  -7.719321e+01  -4.262365e+01
   2.108538e+01  -3.416439e+00
   3.354635e+01   8.378806e+01
  -6.544997e+01   1.087164e+02
  -1.997698e+02   3.215690e+01
  -2.016632e+02  -1.267518e+02
  -2.657039e+01  -2.311487e+02
   1.719469e+02  -1.783800e+02
   2.127575e+02  -7.690053e+00
   7.749592e+01   1.253553e+02
  -7.139382e+01   1.224279e+02
  -9.335403e+01   3.614767e+01
  -2.531523e+01  -2.355521e+01
   2.065848e+01  -1.787157e+01
  -1.135769e+01   3.402253e+00
  -7.191059e+01  -1.741616e+01
  -8.643737e+01  -8.889533e+01
  -8.133442e+00  -1.589937e+02
   1.342669e+02  -1.523547e+02
   2.481306e+02  -2.495420e+01
   2.093589e+02   1.571508e+02
   4.376782e+01   2.579305e+02
  -1.211279e+02   1.888171e+02
  -1.532404e+02   3.189682e+01
  -8.362766e+01  -6.449194e+01
  -3.115130e+01  -4.636235e+01
  -5.590593e+01   6.056759e+00
  -8.053832e+01   3.357011e-02
  -3.784513e+01  -5.751844e+01
   4.915156e+01  -9.007997e+01
   1.085909e+02  -5.170952e+01
   8.569463e+01   4.093722e+01
  -1.809772e+01   1.111951e+02
  -1.439853e+02   8.445759e+01
  -1.985091e+02  -5.200500e+01
  -1.033108e+02  -2.052882e+02
   1.045036e+02  -2.388475e+02
   2.768321e+02  -1.091455e+02
   2.756206e+02   8.547973e+01
   1.220542e+02   1.903913e+02
  -3.784699e+01   1.630183e+02
  -1.034056e+02   9.580807e+01
  -9.178445e+01   7.919512e+01
  -7.816701e+01   9.633069e+01
  -1.031111e+02   7.186724e+01
  -1.368013e+02  -2.979900e+01
  -1.206582e+02  -1.646200e+02
  -2.727946e+01  -2.396409e+02
   1.069398e+02  -1.836572e+02
   1.846797e+02  -2.468207e+01
   1.464497e+02   1.241305e+02
   2.359490e+01   1.668496e+02
  -6.927428e+01   9.733670e+01
  -6.128529e+01   3.673119e+00
  -6.282720e+00  -3.819647e+01
   6.223197e+00  -3.091124e+01
  -4.388208e+01  -1.960447e+01
  -8.616896e+01  -3.288838e+01
  -4.402826e+01  -4.631156e+01
   6.918150e+01  -3.514013e+01
   1.603230e+02   6.915358e+00
   1.483885e+02   5.593188e+01
   1.438076e+01   8.974477e+01
  -1.265912e+02   7.286563e+01
  -1.542923e+02   1.131715e+01
  -5.123879e+01  -4.704763e+01
   6.750776e+01  -4.108491e+01
   8.023408e+01   2.305776e+01
   1.150153e+00   7.548866e+01
  -6.642052e+01   5.975959e+01
  -6.729888e+01  -9.324351e+00
  -4.043115e+01  -5.853296e+01
  -4.113385e+01  -4.599867e+01
  -6.324989e+01  -4.122692e+00
  -6.772670e+01  -3.363803e+00
  -3.161335e+01  -7.449241e+01
   4.413054e+01  -1.499622e+02
   1.262001e+02  -1.393970e+02
   1.698965e+02  -2.483650e+01
   1.202987e+02   1.014251e+02
   3.056547e+00   1.304295e+02
  -9.121924e+01   6.085177e+01
  -6.061915e+01  -2.095835e+01
   6.165640e+01  -1.963263e+01
   1.404857e+02   5.268312e+01
   7.568213e+01   1.151514e+02
  -8.722213e+01   1.133810e+02
  -2.029093e+02   4.651830e+01
  -1.695406e+02  -4.107794e+01
  -3.752203e+01  -9.198663e+01
   6.469831e+01  -7.383929e+01
   5.154551e+01  -7.211845e+00
  -3.810165e+01   2.770166e+01
  -9.600958e+01  -2.659824e+01
  -3.209088e+01  -1.295676e+02
   1.027272e+02  -1.635369e+02
   1.843416e+02  -6.252035e+01
   1.355920e+02   1.135088e+02
   5.095646e+00   2.119269e+02
  -9.428553e+01   1.515827e+02
  -1.096979e+02  -8.530412e+00
  -6.277656e+01  -1.233657e+02
   6.499654e-01  -1.114024e+02
   4.677969e+01  -2.201355e+01
   5.624054e+01   3.215377e+01
   2.957210e+01   9.733682e+00
   4.174804e+00  -1.950384e+01
   1.757419e+01   1.844218e+01
   5.449351e+01   9.557292e+01
   4.137570e+01   1.157016e+02
  -5.091715e+01   4.721804e+01
  -1.459613e+02  -4.522816e+01
  -1.368996e+02  -7.913274e+01
  -1.790394e+01  -5.500985e+01
   9.542179e+01  -2.222660e+01
   9.391340e+01  -3.890145e+00
   1.072390e+01   1.047624e+01
  -4.221668e+01   2.499300e+01
  -1.555715e+01   1.931788e+01
   2.122138e+01   3.336025e-01
  -8.674308e+00  -8.318422e+00
  -8.266536e+01  -8.727932e+00
  -9.703321e+01  -3.428626e+01
  -1.860140e+00  -8.866729e+01
   1.327173e+02  -1.164666e+02
   1.994809e+02  -5.159366e+01
   1.449167e+02   8.002265e+01
   1.999432e+01   1.714265e+02
  -8.573691e+01   1.557496e+02
  -1.179430e+02   5.964945e+01
  -8.466092e+01  -2.431105e+01
  -2.891938e+01  -3.969768e+01
   2.580416e+00  -1.108070e+01
  -8.754499e+00  -5.190935e+00
  -2.865911e+01  -4.940129e+01
  -1.946313e+01  -9.616315e+01
   3.354112e+01  -7.475782e+01
   8.452923e+01   2.389381e+01
   7.678400e+01   1.210356e+02
  -1.908013e+00   1.207478e+02
  -9.234356e+01   2.178987e+01
  -1.097137e+02  -8.549446e+01
  -2.872610e+01  -1.116254e+02
   7.554154e+01  -5.648721e+01
   1.041786e+02   1.616700e+01
   3.697581e+01   5.230619e+01
  -3.753063e+01   4.953228e+01
  -3.177660e+01   2.788376e+01
   3.948231e+01   8.651070e-01
   7.461729e+01  -3.497666e+00
   1.468563e+01   2.833075e+01
  -8.472756e+01   6.833963e+01
  -1.251292e+02   5.824302e+01
  -6.816558e+01  -1.669188e+01
   1.989124e+01  -8.720616e+01
   5.820785e+01  -7.921934e+01
   3.733186e+01  -1.654755e+00
  -1.601246e+00   6.030881e+01
  -3.061663e+01   4.442554e+01
  -3.821489e+01  -2.186321e+01
  -2.527182e+01  -5.916734e+01
   4.757689e+00  -3.599320e+01
   3.490697e+01   9.296440e+00
   4.175412e+01   2.305722e+01
   2.278491e+01   2.032890e+00
   1.677705e+00  -1.447794e+01
  -5.795416e+00   4.703033e+00
  -8.865108e+00   4.227405e+01
  -2.205676e+01   4.954884e+01
  -3.756597e+01   5.013751e+00
  -3.197848e+01  -5.223066e+01
   5.794232e+00  -6.624477e+01
   4.986420e+01  -1.855781e+01
   5.985810e+01   4.571860e+01
   1.410031e+01   6.906830e+01
  -5.937076e+01   3.537782e+01
  -9.617411e+01  -1.850824e+01
  -5.266537e+01  -4.802139e+01
   3.094215e+01  -4.279467e+01
   6.870171e+01  -2.145144e+01
   2.546104e+01  -3.133035e+00
  -4.154751e+01  -2.030612e+00
  -4.132860e+01  -1.893076e+01
   3.370803e+01  -3.361531e+01
   1.004253e+02  -1.766061e+01
