
 $NMID
 id='ANONYMOUS ', fmtdat='(2E16.6)'
 volume=1.0
 tramp=1.0
 $END
   4.736092e+03  -2.209933e+02
   2.682220e+03   2.586178e+03
  -7.639969e+02   2.936735e+03
  -2.320057e+03   9.704059e+02
  -1.046374e+03  -7.166889e+02
   7.287322e+02  -6.232347e+02
   9.836585e+02   5.048718e+02
  -1.038402e+01   1.176166e+03
  -9.032405e+02   8.454538e+02
  -1.031304e+03  -1.337045e+02
  -4.707971e+02  -9.390859e+02
   2.760657e+02  -9.530734e+02
   6.986762e+02  -1.175251e+02
   4.046306e+02   7.636779e+02
  -3.100197e+02   8.008829e+02
  -6.617249e+02  -2.613968e+01
  -3.098134e+02  -7.454208e+02
   3.440592e+02  -6.888524e+02
   6.421373e+02  -1.076997e+02
   4.272944e+02   3.824546e+02
   1.596934e+01   4.732384e+02
  -2.667299e+02   2.740912e+02
  -2.266328e+02  -3.556509e+00
   1.529622e+02  -1.046359e+02
   4.656954e+02   1.287182e+02
   2.102788e+02   4.856040e+02
  -4.901965e+02   4.693100e+02
  -9.063718e+02  -6.446167e+01
  -4.399935e+02  -5.972911e+02
   4.516621e+02  -5.242552e+02
   8.148510e+02   3.208003e+01
   3.721547e+02   5.286165e+02
  -3.097311e+02   5.631522e+02
  -6.030512e+02   2.095886e+02
  -4.385462e+02  -2.543950e+02
  -6.702658e+01  -5.046049e+02
   2.044490e+02  -2.915598e+02
   1.666115e+02   2.499053e+02
  -1.750937e+02   4.410772e+02
  -4.618333e+02  -3.360146e+01
  -2.569269e+02  -7.304230e+02
   3.431204e+02  -7.215613e+02
   6.447753e+02   3.519581e+00
   2.795847e+02   6.014466e+02
  -3.188709e+02   3.514120e+02
  -4.347042e+02  -3.328167e+02
   6.817003e+01  -5.981238e+02
   6.038784e+02  -1.646478e+02
   6.495368e+02   4.192385e+02
   1.890999e+02   6.268067e+02
  -4.101013e+02   3.798251e+02
  -6.850850e+02  -7.585952e+01
  -4.120188e+02  -4.106496e+02
   1.591005e+02  -3.884501e+02
   4.747474e+02  -7.178650e+01
   2.698329e+02   1.840678e+02
  -1.136910e+02   1.049333e+02
  -1.487129e+02  -1.544213e+02
   1.724934e+02  -1.902694e+02
   3.747588e+02   7.936418e+01
   1.566062e+02   3.242071e+02
  -2.231241e+02   2.990353e+02
  -3.790009e+02   9.369082e+01
  -2.227791e+02  -1.103772e+02
   4.845952e+01  -2.672001e+02
   2.444245e+02  -3.608819e+02
   3.644183e+02  -2.302699e+02
   3.173889e+02   1.452470e+02
   9.537761e+01   4.623699e+02
  -1.085471e+02   4.144130e+02
  -1.271896e+02   1.278071e+02
  -2.465295e+01  -3.245789e-03
  -4.229123e+01   9.792925e+01
  -2.002591e+02   1.441723e+02
  -3.055621e+02  -5.358746e+01
  -1.879427e+02  -2.907541e+02
   6.794129e+01  -2.857428e+02
   2.548020e+02  -2.237611e+01
   2.340236e+02   2.526418e+02
   5.834685e-01   3.267621e+02
  -2.896840e+02   1.313882e+02
  -3.928784e+02  -1.753601e+02
  -2.057916e+02  -3.796210e+02
   1.067032e+02  -3.293185e+02
   2.438906e+02  -1.291556e+02
   1.628655e+02  -7.602477e+00
   1.086877e+02  -3.561853e+01
   2.565751e+02  -6.863564e+01
   4.319469e+02   6.216145e+01
   3.575759e+02   3.079141e+02
   5.026236e-01   4.740920e+02
  -3.774805e+02   4.362677e+02
  -5.257094e+02   2.073604e+02
  -3.586712e+02  -9.915007e+01
  -5.704346e+01  -3.148059e+02
   1.383806e+02  -2.748986e+02
   8.753196e+01  -3.401681e+01
  -1.190448e+02   1.215069e+02
  -2.139673e+02  -8.640682e+00
  -5.449165e+01  -2.122240e+02
   1.730793e+02  -1.864371e+02
   1.921826e+02   6.583919e+01
  -1.909937e+01   2.131187e+02
  -2.167175e+02   3.429683e+01
  -1.852309e+02  -2.754246e+02
   2.437292e+01  -3.830721e+02
   2.435568e+02  -2.162401e+02
   3.604299e+02   5.847486e+01
   3.072945e+02   2.432408e+02
   1.098676e+02   2.722577e+02
  -1.173536e+02   1.710904e+02
  -1.835185e+02   2.956950e+01
  -5.079692e+01  -2.102928e+01
   8.099667e+01   4.722860e+01
   3.191158e+01   1.385202e+02
  -1.398596e+02   1.087543e+02
  -1.940122e+02  -1.033224e+01
  -6.574506e+01  -7.934608e+01
   8.567796e+01  -1.945061e+01
   6.059948e+01   8.027648e+01
  -1.304852e+02   1.020589e+02
  -2.990963e+02   8.206493e+00
  -2.815328e+02  -1.473925e+02
  -6.399285e+01  -2.765471e+02
   1.934273e+02  -2.814821e+02
   2.962380e+02  -1.357218e+02
   1.822799e+02   5.694229e+01
  -2.505625e+01   1.234333e+02
  -1.005359e+02   1.131086e+01
   2.669244e+01  -1.139996e+02
   2.085909e+02  -7.482971e+01
   2.335903e+02   1.051213e+02
   7.690557e+01   2.191352e+02
  -1.009661e+02   1.654264e+02
  -1.492767e+02   2.694731e+01
  -6.368446e+01  -4.727867e+01
   4.069783e+01  -2.934149e+00
   4.373471e+01   9.637626e+01
  -7.273050e+01   1.277960e+02
  -2.167687e+02   3.725323e+01
  -2.124123e+02  -1.329377e+02
  -2.948166e+01  -2.410787e+02
   1.741384e+02  -1.872566e+02
   2.096094e+02  -1.083156e+01
   7.455020e+01   1.254045e+02
  -6.949017e+01   1.243383e+02
  -9.101468e+01   3.358441e+01
  -2.010685e+01  -2.949772e+01
   2.506209e+01  -2.093532e+01
  -9.285691e+00   1.167516e+01
  -8.109670e+01  -4.527157e+00
  -1.021480e+02  -8.711603e+01
  -2.103517e+01  -1.758834e+02
   1.350518e+02  -1.773717e+02
   2.513821e+02  -4.221210e+01
   2.244115e+02   1.569430e+02
   5.323439e+01   2.561540e+02
  -1.139354e+02   1.866900e+02
  -1.458057e+02   3.133399e+01
  -7.558032e+01  -5.946595e+01
  -3.087489e+01  -3.610775e+01
  -5.696147e+01   1.705850e+01
  -8.702251e+01   1.102463e+01
  -4.709502e+01  -5.409482e+01
   4.432971e+01  -9.628644e+01
   1.081675e+02  -6.717433e+01
   9.487884e+01   3.676415e+01
  -9.025546e+00   1.215754e+02
  -1.483526e+02   9.830796e+01
  -2.133834e+02  -5.083438e+01
  -1.110585e+02  -2.181071e+02
   1.124650e+02  -2.499553e+02
   2.834484e+02  -1.116020e+02
   2.754013e+02   8.814448e+01
   1.185166e+02   1.891458e+02
  -3.470927e+01   1.603246e+02
  -9.401474e+01   9.119365e+01
  -8.144115e+01   7.899377e+01
  -7.085054e+01   1.003569e+02
  -1.002781e+02   8.165283e+01
  -1.416750e+02  -2.207956e+01
  -1.336663e+02  -1.629448e+02
  -3.548078e+01  -2.451879e+02
   1.080443e+02  -1.895574e+02
   1.926976e+02  -2.536488e+01
   1.515320e+02   1.289856e+02
   2.237534e+01   1.719508e+02
  -7.080191e+01   9.789415e+01
  -6.492379e+01   1.962084e+00
  -5.779042e+00  -4.471179e+01
   1.014581e+01  -3.511768e+01
  -4.066573e+01  -1.797024e+01
  -8.858665e+01  -2.380872e+01
  -5.074308e+01  -4.189326e+01
   6.804580e+01  -4.294207e+01
   1.673258e+02  -4.589769e+00
   1.548493e+02   5.327118e+01
   1.533537e+01   1.004388e+02
  -1.320841e+02   8.513493e+01
  -1.594398e+02   1.713469e+01
  -5.253807e+01  -4.864410e+01
   6.619240e+01  -4.598478e+01
   8.138963e+01   1.776578e+01
   8.116651e+00   7.401487e+01
  -5.902986e+01   6.196643e+01
  -6.688263e+01  -3.365945e+00
  -4.763911e+01  -5.390831e+01
  -4.828816e+01  -4.228084e+01
  -6.455623e+01   1.255647e+00
  -6.989463e+01   2.463627e+00
  -4.324864e+01  -7.167846e+01
   2.584402e+01  -1.602546e+02
   1.212949e+02  -1.570720e+02
   1.793069e+02  -4.077194e+01
   1.352884e+02   1.004790e+02
   8.146615e+00   1.409341e+02
  -9.084797e+01   6.976261e+01
  -6.588184e+01  -1.709560e+01
   5.982819e+01  -2.606815e+01
   1.467787e+02   4.129740e+01
   8.114221e+01   1.135447e+02
  -8.621640e+01   1.230491e+02
  -2.063148e+02   5.979942e+01
  -1.741572e+02  -3.708577e+01
  -3.824940e+01  -9.191392e+01
   6.595069e+01  -7.431631e+01
   5.149203e+01  -4.770763e+00
  -4.121170e+01   2.831150e+01
  -1.003096e+02  -2.352704e+01
  -4.017503e+01  -1.281602e+02
   9.033673e+01  -1.664913e+02
   1.729000e+02  -6.897217e+01
   1.359920e+02   1.032382e+02
   1.978581e+01   2.055340e+02
  -8.403294e+01   1.538841e+02
  -1.124058e+02  -4.478303e+00
  -7.025311e+01  -1.221911e+02
  -2.907241e+00  -1.159025e+02
   4.979061e+01  -2.509886e+01
   5.557999e+01   2.941692e+01
   2.689922e+01   8.096967e+00
   3.566582e+00  -2.140939e+01
   2.502364e+01   1.314880e+01
   6.296062e+01   9.014793e+01
   4.454652e+01   1.135295e+02
  -5.353718e+01   5.135439e+01
  -1.494786e+02  -3.726760e+01
  -1.372518e+02  -7.605951e+01
  -1.864489e+01  -5.422371e+01
   9.084791e+01  -2.537322e+01
   9.407960e+01  -8.818589e+00
   1.231146e+01   8.207052e+00
  -3.954882e+01   2.555280e+01
  -1.491025e+01   1.868453e+01
   2.086509e+01  -2.438087e+00
  -6.729516e+00  -9.555646e+00
  -7.540220e+01  -4.583514e+00
  -9.413621e+01  -2.329879e+01
  -9.843106e+00  -8.401984e+01
   1.234935e+02  -1.252429e+02
   1.947573e+02  -6.823627e+01
   1.503762e+02   6.552204e+01
   3.104403e+01   1.713913e+02
  -7.815592e+01   1.620788e+02
  -1.168029e+02   6.522786e+01
  -8.556276e+01  -2.269014e+01
  -2.812881e+01  -3.884371e+01
   2.463618e+00  -8.760729e+00
  -1.138744e+01  -1.914649e+00
  -3.667634e+01  -4.593164e+01
  -2.776972e+01  -9.587010e+01
   2.965618e+01  -7.830876e+01
   8.663930e+01   1.686859e+01
   8.497792e+01   1.123442e+02
   6.152495e+00   1.155259e+02
  -8.614988e+01   2.487682e+01
  -1.106068e+02  -7.699671e+01
  -3.637749e+01  -1.093612e+02
   7.034604e+01  -6.174563e+01
   1.046741e+02   1.107930e+01
   4.200992e+01   5.408607e+01
  -3.167498e+01   5.683112e+01
  -3.093960e+01   3.206325e+01
   3.705902e+01  -3.005064e+00
   7.331709e+01  -9.536846e+00
   1.660960e+01   2.774780e+01
  -8.319941e+01   7.663470e+01
  -1.269402e+02   6.532693e+01
  -7.096960e+01  -1.537724e+01
   1.416744e+01  -9.122356e+01
   5.495977e+01  -8.670715e+01
   4.047932e+01  -7.307044e+00
   2.689441e+00   5.779234e+01
  -2.571279e+01   4.600151e+01
  -3.817218e+01  -1.919863e+01
  -2.810722e+01  -5.714569e+01
   3.891350e+00  -3.598762e+01
   3.608756e+01   9.488775e+00
   4.235994e+01   2.264772e+01
   2.021013e+01   1.369255e+00
  -1.529268e+00  -1.681294e+01
  -7.439112e+00   1.374775e+00
  -5.120466e+00   3.867736e+01
  -1.513619e+01   4.836889e+01
  -3.246022e+01   9.163697e+00
  -3.252893e+01  -4.785897e+01
   1.225643e+00  -6.554374e+01
   4.680947e+01  -2.231836e+01
   6.247234e+01   4.021456e+01
   1.861827e+01   6.766458e+01
  -5.655063e+01   3.886950e+01
  -9.507880e+01  -1.417883e+01
  -5.388206e+01  -4.666153e+01
   2.891853e+01  -4.487988e+01
   6.822958e+01  -2.364402e+01
   2.423910e+01  -3.492417e+00
  -4.107861e+01   2.193052e-01
  -4.053884e+01  -1.564248e+01
   3.180863e+01  -3.475300e+01
   9.537586e+01  -2.408169e+01
