
 $NMID
 id='ANONYMOUS ', fmtdat='(2E16.6)'
 volume=1.0
 tramp=1.0
 $END
  -4.481143e+03   6.912264e+00
  -2.530692e+03  -2.625305e+03
   8.295791e+02  -2.887003e+03
   2.337434e+03  -9.254245e+02
   9.571513e+02   7.668623e+02
  -8.004406e+02   6.381515e+02
  -1.025316e+03  -4.835079e+02
   5.632341e+00  -1.179821e+03
   8.993559e+02  -8.273851e+02
   1.019247e+03   1.335932e+02
   4.466808e+02   9.256777e+02
  -3.190785e+02   9.067552e+02
  -7.045598e+02   8.091667e+01
  -4.009387e+02  -7.817685e+02
   3.203839e+02  -7.841619e+02
   6.561000e+02   3.904626e+01
   2.716845e+02   7.307988e+02
  -3.567586e+02   6.418111e+02
  -6.052194e+02   5.968175e+01
  -3.716397e+02  -3.843915e+02
   9.348905e+00  -4.492564e+02
   2.540912e+02  -2.594204e+02
   2.221524e+02   1.626509e+01
  -1.458444e+02   1.221630e+02
  -4.585919e+02  -9.928907e+01
  -2.172582e+02  -4.752296e+02
   4.886466e+02  -4.681436e+02
   9.016552e+02   5.855694e+01
   4.460712e+02   6.036589e+02
  -4.446983e+02   5.531767e+02
  -8.210898e+02  -3.780594e+00
  -3.779849e+02  -5.197456e+02
   2.977288e+02  -5.566093e+02
   5.998156e+02  -2.121575e+02
   4.340679e+02   2.492469e+02
   6.680066e+01   5.064939e+02
  -2.357735e+02   2.973064e+02
  -2.020762e+02  -2.603761e+02
   1.677331e+02  -4.747720e+02
   4.879577e+02   1.447136e+01
   2.956122e+02   7.290194e+02
  -3.293640e+02   7.352188e+02
  -6.577475e+02  -1.175729e+01
  -2.775248e+02  -6.076599e+02
   3.313927e+02  -3.552785e+02
   4.377678e+02   3.227863e+02
  -5.482800e+01   5.898717e+02
  -5.924923e+02   1.849171e+02
  -6.450720e+02  -3.792956e+02
  -1.853396e+02  -6.124089e+02
   3.993392e+02  -3.756416e+02
   6.566910e+02   6.742248e+01
   3.841200e+02   4.130687e+02
  -1.779393e+02   3.925616e+02
  -4.775180e+02   5.281182e+01
  -2.521891e+02  -2.121740e+02
   1.383032e+02  -1.158124e+02
   1.572771e+02   1.717540e+02
  -1.786026e+02   2.067210e+02
  -3.672553e+02  -7.060933e+01
  -1.482311e+02  -3.131951e+02
   2.096422e+02  -2.815090e+02
   3.437261e+02  -8.402209e+01
   2.009662e+02   9.517812e+01
  -3.153378e+01   2.526805e+02
  -2.267814e+02   3.406331e+02
  -3.536911e+02   2.253931e+02
  -3.111020e+02  -1.384071e+02
  -8.863385e+01  -4.500448e+02
   1.143146e+02  -3.900799e+02
   1.207990e+02  -9.725348e+01
   1.190452e+01   2.025260e+01
   2.042944e+01  -9.637481e+01
   1.861785e+02  -1.550172e+02
   2.971858e+02   3.244979e+01
   1.880000e+02   2.735540e+02
  -5.764000e+01   2.803476e+02
  -2.477065e+02   3.348138e+01
  -2.328910e+02  -2.397064e+02
  -4.862907e+00  -3.221547e+02
   2.853464e+02  -1.396176e+02
   3.915583e+02   1.616688e+02
   2.049691e+02   3.688495e+02
  -1.064049e+02   3.142623e+02
  -2.348793e+02   1.158667e+02
  -1.502859e+02  -2.730752e+00
  -9.119387e+01   3.712620e+01
  -2.207415e+02   7.852876e+01
  -3.981956e+02  -3.777139e+01
  -3.490995e+02  -2.834778e+02
  -2.428609e+01  -4.576204e+02
   3.443360e+02  -4.408572e+02
   5.135703e+02  -2.162317e+02
   3.621234e+02   1.015955e+02
   6.028239e+01   3.190024e+02
  -1.493408e+02   2.659025e+02
  -9.841618e+01   1.433548e+01
   1.214083e+02  -1.355900e+02
   2.208845e+02   3.382140e+00
   6.132952e+01   2.176293e+02
  -1.723886e+02   1.946957e+02
  -1.940256e+02  -6.281194e+01
   1.549553e+01  -2.112620e+02
   2.132352e+02  -4.227855e+01
   1.822665e+02   2.656650e+02
  -2.154655e+01   3.725445e+02
  -2.361686e+02   2.057422e+02
  -3.513472e+02  -5.125977e+01
  -3.059761e+02  -2.297530e+02
  -1.110161e+02  -2.699028e+02
   1.169322e+02  -1.708996e+02
   1.847120e+02  -3.010390e+01
   5.322906e+01   2.988704e+01
  -8.321036e+01  -4.086200e+01
  -3.877740e+01  -1.372936e+02
   1.331685e+02  -1.152077e+02
   1.926106e+02   4.903223e+00
   6.630368e+01   7.978310e+01
  -8.251861e+01   2.813000e+01
  -6.558144e+01  -7.227445e+01
   1.168440e+02  -1.059104e+02
   2.871677e+02  -2.330459e+01
   2.803311e+02   1.308244e+02
   7.380474e+01   2.685079e+02
  -1.816416e+02   2.821678e+02
  -2.852240e+02   1.413066e+02
  -1.761808e+02  -5.350517e+01
   2.724388e+01  -1.214311e+02
   1.011590e+02  -8.621528e+00
  -2.462623e+01   1.147235e+02
  -2.024219e+02   7.815779e+01
  -2.319411e+02  -9.773746e+01
  -8.069995e+01  -2.122747e+02
   9.354303e+01  -1.659268e+02
   1.463471e+02  -2.927207e+01
   6.635141e+01   4.699688e+01
  -3.913794e+01   7.244643e+00
  -4.836760e+01  -8.985794e+01
   6.291054e+01  -1.275290e+02
   2.103127e+02  -4.607016e+01
   2.114228e+02   1.205747e+02
   3.326949e+01   2.344937e+02
  -1.656991e+02   1.862263e+02
  -2.038926e+02   1.338800e+01
  -7.251724e+01  -1.234981e+02
   6.687511e+01  -1.219261e+02
   8.844582e+01  -3.217830e+01
   2.041090e+01   3.214528e+01
  -2.492114e+01   2.130563e+01
   6.587005e+00  -1.186294e+01
   7.534144e+01  -9.110506e-01
   9.857798e+01   7.817446e+01
   2.413735e+01   1.651373e+02
  -1.239480e+02   1.677411e+02
  -2.352915e+02   3.470315e+01
  -2.128625e+02  -1.475074e+02
  -4.722435e+01  -2.455053e+02
   1.130954e+02  -1.779895e+02
   1.428630e+02  -2.593891e+01
   7.268780e+01   6.142810e+01
   2.343578e+01   3.677808e+01
   4.712625e+01  -1.670186e+01
   7.900747e+01  -1.119076e+01
   4.419446e+01   4.878039e+01
  -3.832309e+01   8.947787e+01
  -9.687390e+01   6.246048e+01
  -8.834951e+01  -3.293560e+01
   4.865865e+00  -1.123078e+02
   1.384365e+02  -9.593035e+01
   2.053965e+02   4.074517e+01
   1.149653e+02   2.053085e+02
  -1.002683e+02   2.489970e+02
  -2.673612e+02   1.194923e+02
  -2.634874e+02  -7.447310e+01
  -1.188568e+02  -1.779793e+02
   2.897467e+01  -1.531560e+02
   8.699364e+01  -8.941609e+01
   7.738702e+01  -7.825672e+01
   6.623254e+01  -9.569310e+01
   9.554190e+01  -7.806381e+01
   1.320534e+02   1.934706e+01
   1.250641e+02   1.482123e+02
   3.781820e+01   2.262561e+02
  -9.877876e+01   1.779509e+02
  -1.831825e+02   2.759572e+01
  -1.485321e+02  -1.202930e+02
  -2.547525e+01  -1.630717e+02
   6.481403e+01  -9.629688e+01
   6.324329e+01  -5.451876e+00
   8.711606e+00   4.364812e+01
  -9.139043e+00   3.507384e+01
   3.668364e+01   1.692322e+01
   8.155840e+01   1.983025e+01
   4.678516e+01   4.064618e+01
  -6.204512e+01   4.347816e+01
  -1.589576e+02   1.234387e+01
  -1.516420e+02  -4.755873e+01
  -1.973928e+01  -9.576232e+01
   1.229068e+02  -8.702670e+01
   1.511969e+02  -2.332916e+01
   5.047459e+01   4.285568e+01
  -6.237812e+01   4.498806e+01
  -7.788120e+01  -1.420807e+01
  -8.549155e+00  -6.963592e+01
   5.456910e+01  -5.957684e+01
   6.215360e+01   1.336699e-01
   4.382975e+01   4.893989e+01
   4.672276e+01   3.828909e+01
   6.447634e+01  -3.431189e+00
   6.805112e+01  -3.784539e+00
   4.079370e+01   6.747276e+01
  -2.224990e+01   1.501278e+02
  -1.084691e+02   1.479715e+02
  -1.664948e+02   3.822437e+01
  -1.279689e+02  -9.296272e+01
  -9.619139e+00  -1.299079e+02
   8.768390e+01  -6.280351e+01
   6.311959e+01   1.786334e+01
  -5.953910e+01   2.484197e+01
  -1.427643e+02  -3.931071e+01
  -8.012065e+01  -1.091096e+02
   8.215976e+01  -1.189490e+02
   1.981265e+02  -5.872212e+01
   1.667112e+02   3.388042e+01
   3.751279e+01   8.869563e+01
  -6.192070e+01   7.391535e+01
  -4.842559e+01   7.751691e+00
   3.972402e+01  -2.808901e+01
   9.485081e+01   2.030666e+01
   3.746867e+01   1.211895e+02
  -8.689549e+01   1.589314e+02
  -1.670782e+02   6.658545e+01
  -1.309536e+02  -1.010502e+02
  -1.858700e+01  -1.996431e+02
   8.040180e+01  -1.515997e+02
   1.089942e+02   1.710059e+00
   7.055254e+01   1.189497e+02
   6.428491e+00   1.127715e+02
  -4.850877e+01   2.581746e+01
  -5.704244e+01  -2.821192e+01
  -2.640169e+01  -8.376306e+00
  -2.318189e+00   2.071227e+01
  -2.306268e+01  -1.236748e+01
  -6.384807e+01  -8.456587e+01
  -4.806719e+01  -1.111120e+02
   4.860006e+01  -5.100421e+01
   1.467750e+02   3.244987e+01
   1.374301e+02   6.880093e+01
   1.878560e+01   5.094551e+01
  -8.860085e+01   2.608921e+01
  -8.973573e+01   1.315079e+01
  -1.171976e+01  -6.028885e+00
   3.708208e+01  -2.362742e+01
   1.150989e+01  -1.840553e+01
  -2.203930e+01   2.094619e+00
   6.377617e+00   8.276979e+00
   7.511305e+01   2.928754e-01
   9.182047e+01   1.966461e+01
   1.085020e+01   8.068387e+01
  -1.162414e+02   1.213114e+02
  -1.832232e+02   6.392905e+01
  -1.420192e+02  -6.446394e+01
  -2.859681e+01  -1.642683e+02
   7.811542e+01  -1.538191e+02
   1.135518e+02  -6.176626e+01
   8.114712e+01   2.242650e+01
   2.444716e+01   3.709666e+01
  -3.655053e+00   7.567384e+00
   1.247685e+01   2.373271e+00
   3.678658e+01   4.411940e+01
   2.679616e+01   9.088598e+01
  -2.802700e+01   7.400726e+01
  -8.332615e+01  -1.642502e+01
  -8.114302e+01  -1.055390e+02
  -6.432502e+00  -1.092449e+02
   8.296215e+01  -2.410415e+01
   1.056518e+02   7.482883e+01
   3.466163e+01   1.026170e+02
  -6.676750e+01   5.845234e+01
  -9.927341e+01  -8.268517e+00
  -4.191785e+01  -4.869148e+01
   2.672934e+01  -5.254382e+01
   2.683532e+01  -3.130771e+01
  -3.593994e+01  -9.172485e-01
  -6.692525e+01   6.807158e+00
  -1.457081e+01  -2.628978e+01
   7.551250e+01  -7.398558e+01
   1.143826e+02  -6.575859e+01
   6.612420e+01   1.077187e+01
  -1.076801e+01   8.658682e+01
  -4.941644e+01   8.229108e+01
  -3.847279e+01   6.586907e+00
  -3.368666e+00  -5.613098e+01
   2.360805e+01  -4.278289e+01
   3.656229e+01   1.820891e+01
   2.746962e+01   5.242953e+01
  -3.640732e+00   3.221799e+01
  -3.378147e+01  -8.749796e+00
  -4.111888e+01  -1.908221e+01
  -2.036192e+01  -6.126791e-01
   7.485011e-01   1.371779e+01
   6.535693e+00  -3.673335e+00
   6.225467e+00  -3.681598e+01
   1.644475e+01  -4.409410e+01
   3.095280e+01  -6.773829e+00
   2.829295e+01   4.533225e+01
  -4.525241e+00   5.990173e+01
  -4.529379e+01   1.950940e+01
  -5.697284e+01  -3.976485e+01
  -1.540356e+01  -6.513214e+01
   5.618159e+01  -3.840904e+01
   9.323470e+01   1.214297e+01
   5.333924e+01   4.540315e+01
  -2.588046e+01   4.429183e+01
  -6.457126e+01   2.543108e+01
  -2.376932e+01   5.445332e+00
   3.813526e+01  -1.079080e-01
   3.857776e+01   1.503130e+01
  -3.114100e+01   3.406743e+01
  -9.274528e+01   2.339414e+01
