
 $NMID
 id='ANONYMOUS ', fmtdat='(2E16.6)'
 volume=1.0
 tramp=1.0
 $END
  -4.671872e+03   2.221546e+02
  -2.705049e+03  -2.885654e+03
   5.660912e+02  -3.024918e+03
   2.240215e+03  -1.079525e+03
   1.125284e+03   6.214038e+02
  -5.981182e+02   6.650148e+02
  -1.004896e+03  -3.536435e+02
  -9.778034e+01  -1.113050e+03
   8.069863e+02  -9.123035e+02
   1.039120e+03   4.437818e+01
   5.607575e+02   8.932569e+02
  -1.960045e+02   9.629179e+02
  -6.775007e+02   1.358970e+02
  -4.468814e+02  -7.454425e+02
   2.522199e+02  -8.012762e+02
   6.430313e+02  -2.052482e+01
   3.284867e+02   7.133090e+02
  -3.004883e+02   7.008848e+02
  -6.158996e+02   1.487267e+02
  -4.371530e+02  -3.476971e+02
  -4.051160e+01  -4.732890e+02
   2.528002e+02  -3.001645e+02
   2.276412e+02  -2.593814e+01
  -1.273872e+02   1.129421e+02
  -4.541388e+02  -9.324595e+01
  -2.395389e+02  -4.499814e+02
   4.554906e+02  -4.644530e+02
   8.960388e+02   1.383907e+01
   4.861430e+02   5.376339e+02
  -3.817867e+02   5.110588e+02
  -7.774780e+02  -3.290930e+00
  -3.787573e+02  -4.913732e+02
   2.799485e+02  -5.545621e+02
   5.974086e+02  -2.339169e+02
   4.595399e+02   2.317789e+02
   1.002932e+02   5.031814e+02
  -1.850623e+02   3.164127e+02
  -1.754621e+02  -2.049644e+02
   1.548529e+02  -4.673282e+02
   4.614215e+02   1.426671e+00
   2.806184e+02   6.971873e+02
  -2.900154e+02   7.465236e+02
  -6.283031e+02   3.063397e+01
  -2.832050e+02  -5.536323e+02
   2.945405e+02  -3.372214e+02
   4.236299e+02   3.329817e+02
  -6.211887e+01   5.628693e+02
  -5.876244e+02   1.632509e+02
  -6.492640e+02  -3.930068e+02
  -1.946167e+02  -6.129749e+02
   4.001523e+02  -3.888039e+02
   6.740322e+02   5.323359e+01
   4.162983e+02   3.948346e+02
  -1.365800e+02   3.997930e+02
  -4.680448e+02   9.265777e+01
  -2.764000e+02  -1.768613e+02
   9.748643e+01  -1.112766e+02
   1.409238e+02   1.424892e+02
  -1.692003e+02   1.950282e+02
  -3.598297e+02  -5.825124e+01
  -1.562379e+02  -3.022518e+02
   2.014013e+02  -2.978579e+02
   3.536233e+02  -1.021170e+02
   2.154809e+02   9.287301e+01
  -2.502516e+01   2.460573e+02
  -2.337048e+02   3.619844e+02
  -3.640436e+02   2.316677e+02
  -3.178701e+02  -1.468959e+02
  -9.361671e+01  -4.683510e+02
   1.240337e+02  -4.099946e+02
   1.265353e+02  -1.273249e+02
   1.989323e+01   2.680678e+00
   3.676928e+01  -9.869262e+01
   2.053714e+02  -1.479671e+02
   3.061673e+02   5.159355e+01
   1.812270e+02   2.880988e+02
  -6.898213e+01   2.845420e+02
  -2.454428e+02   2.429841e+01
  -2.215760e+02  -2.445236e+02
  -3.462281e+00  -3.046033e+02
   2.668612e+02  -1.287475e+02
   3.735789e+02   1.633207e+02
   2.019206e+02   3.531511e+02
  -9.502840e+01   3.168819e+02
  -2.389799e+02   1.263629e+02
  -1.577128e+02   2.062769e+00
  -9.608988e+01   3.777572e+01
  -2.412250e+02   7.249791e+01
  -4.215578e+02  -5.168557e+01
  -3.616953e+02  -2.954533e+02
  -7.196824e+00  -4.751010e+02
   3.761084e+02  -4.426591e+02
   5.237764e+02  -2.078857e+02
   3.588233e+02   9.813427e+01
   6.139948e+01   3.161294e+02
  -1.393787e+02   2.653608e+02
  -8.753302e+01   3.181111e+01
   1.059323e+02  -1.217330e+02
   2.055720e+02  -1.930575e+00
   6.066050e+01   2.043777e+02
  -1.587148e+02   1.889811e+02
  -1.885012e+02  -5.002620e+01
   1.132920e+01  -1.994079e+02
   1.995590e+02  -4.241952e+01
   1.764690e+02   2.552612e+02
  -2.339510e+01   3.740104e+02
  -2.370624e+02   2.217187e+02
  -3.507220e+02  -4.622380e+01
  -3.069111e+02  -2.363792e+02
  -1.101329e+02  -2.608194e+02
   1.039640e+02  -1.672547e+02
   1.774898e+02  -3.231917e+01
   5.761173e+01   2.450420e+01
  -7.370485e+01  -4.271992e+01
  -3.716206e+01  -1.279611e+02
   1.249293e+02  -1.126039e+02
   1.881829e+02   3.961044e+00
   6.548434e+01   7.540330e+01
  -8.199565e+01   2.445431e+01
  -6.249870e+01  -7.208133e+01
   1.233724e+02  -1.010505e+02
   2.969990e+02  -1.854440e+01
   2.876388e+02   1.347430e+02
   7.836913e+01   2.689813e+02
  -1.826966e+02   2.876863e+02
  -2.951868e+02   1.503046e+02
  -1.823197e+02  -4.611037e+01
   1.486375e+01  -1.188948e+02
   9.392506e+01  -1.376000e+01
  -3.275920e+01   1.069691e+02
  -2.057354e+02   6.776161e+01
  -2.274760e+02  -1.069994e+02
  -7.891329e+01  -2.244674e+02
   9.183048e+01  -1.768114e+02
   1.511080e+02  -3.795289e+01
   7.958467e+01   4.140649e+01
  -2.529950e+01   6.970376e+00
  -3.993065e+01  -8.250384e+01
   6.627602e+01  -1.108685e+02
   1.949824e+02  -4.515717e+01
   2.030393e+02   1.127943e+02
   3.713049e+01   2.209487e+02
  -1.521803e+02   1.782049e+02
  -1.978489e+02   1.883050e+01
  -7.467286e+01  -1.152677e+02
   6.437439e+01  -1.166968e+02
   8.496829e+01  -3.518782e+01
   2.316074e+01   2.658830e+01
  -2.217525e+01   2.187780e+01
   7.053493e+00  -6.096360e+00
   6.960780e+01   7.195808e+00
   9.378759e+01   7.669749e+01
   2.484569e+01   1.553317e+02
  -1.181874e+02   1.607456e+02
  -2.422406e+02   4.600381e+01
  -2.155787e+02  -1.382308e+02
  -5.420993e+01  -2.422771e+02
   1.043307e+02  -1.810456e+02
   1.397172e+02  -3.500080e+01
   7.831325e+01   5.456878e+01
   3.267360e+01   3.677396e+01
   5.502727e+01  -1.295582e+01
   7.769379e+01  -1.119625e+01
   4.446054e+01   4.815586e+01
  -3.815476e+01   9.293120e+01
  -1.014175e+02   6.096627e+01
  -9.223099e+01  -3.264984e+01
   9.730069e+00  -1.156372e+02
   1.433239e+02  -9.840740e+01
   2.066210e+02   4.159611e+01
   1.135086e+02   2.024277e+02
  -9.734157e+01   2.452815e+02
  -2.677673e+02   1.223774e+02
  -2.667179e+02  -6.682824e+01
  -1.232753e+02  -1.786440e+02
   2.985564e+01  -1.617074e+02
   9.472815e+01  -9.690908e+01
   8.056207e+01  -7.677421e+01
   7.221103e+01  -9.515364e+01
   9.596215e+01  -7.610432e+01
   1.306611e+02   2.029052e+01
   1.228000e+02   1.569215e+02
   3.883444e+01   2.331188e+02
  -9.357271e+01   1.832420e+02
  -1.788021e+02   2.999783e+01
  -1.480863e+02  -1.169692e+02
  -3.294164e+01  -1.632733e+02
   6.312995e+01  -9.855808e+01
   6.291256e+01  -3.810874e+00
   7.911627e+00   4.086363e+01
  -8.178233e+00   3.473974e+01
   4.090891e+01   1.816269e+01
   8.398963e+01   2.264502e+01
   4.833758e+01   3.917057e+01
  -6.313362e+01   3.847590e+01
  -1.579450e+02   6.263536e+00
  -1.448881e+02  -4.487818e+01
  -1.564321e+01  -8.897746e+01
   1.214414e+02  -7.806038e+01
   1.481727e+02  -1.627501e+01
   4.872393e+01   4.183894e+01
  -6.266068e+01   4.098579e+01
  -7.857710e+01  -1.745257e+01
  -1.024324e+01  -6.974631e+01
   5.286205e+01  -5.957411e+01
   6.202481e+01   1.652375e+00
   4.433962e+01   5.009377e+01
   4.456666e+01   4.059912e+01
   6.259137e+01  -1.732970e+00
   6.909906e+01  -7.182078e+00
   3.874849e+01   6.710477e+01
  -2.681417e+01   1.536432e+02
  -1.118792e+02   1.544051e+02
  -1.685737e+02   4.506528e+01
  -1.322874e+02  -9.071772e+01
  -1.505204e+01  -1.309272e+02
   8.163030e+01  -6.936769e+01
   5.828917e+01   1.386020e+01
  -6.288983e+01   2.414070e+01
  -1.425741e+02  -4.367228e+01
  -7.908316e+01  -1.089660e+02
   8.066468e+01  -1.170981e+02
   1.936599e+02  -5.890965e+01
   1.693628e+02   2.582265e+01
   4.544896e+01   8.723390e+01
  -5.638096e+01   7.583880e+01
  -4.811315e+01   1.098964e+01
   3.748139e+01  -2.706814e+01
   9.390152e+01   1.858052e+01
   3.786877e+01   1.222412e+02
  -8.818224e+01   1.655286e+02
  -1.686874e+02   7.197110e+01
  -1.333605e+02  -9.988326e+01
  -2.140779e+01  -2.030034e+02
   7.766866e+01  -1.508608e+02
   1.050468e+02  -1.288251e+00
   7.172940e+01   1.141735e+02
   5.095112e+00   1.098150e+02
  -4.507636e+01   2.530165e+01
  -5.730032e+01  -2.740211e+01
  -2.645187e+01  -7.097790e+00
  -1.213746e+00   2.155252e+01
  -2.093173e+01  -1.414393e+01
  -6.406655e+01  -8.756269e+01
  -5.062841e+01  -1.095989e+02
   4.602121e+01  -4.731131e+01
   1.448930e+02   3.721085e+01
   1.363097e+02   6.933422e+01
   1.894472e+01   5.320977e+01
  -9.131655e+01   2.714157e+01
  -9.015038e+01   1.035656e+01
  -1.120312e+01  -7.447609e+00
   3.902075e+01  -2.392922e+01
   1.441513e+01  -1.823333e+01
  -2.037341e+01   3.919981e+00
   6.935469e+00   1.106450e+01
   7.495053e+01   3.743859e+00
   9.457390e+01   2.230894e+01
   1.309750e+01   8.205531e+01
  -1.173340e+02   1.223983e+02
  -1.942994e+02   7.059127e+01
  -1.529357e+02  -6.270637e+01
  -3.310842e+01  -1.690323e+02
   8.066302e+01  -1.652024e+02
   1.183868e+02  -6.876873e+01
   8.363643e+01   1.968275e+01
   2.871529e+01   3.738062e+01
  -2.113287e+00   1.085114e+01
   1.103461e+01   3.772835e+00
   3.408475e+01   4.783788e+01
   2.425336e+01   9.341118e+01
  -2.845473e+01   7.554991e+01
  -8.486889e+01  -1.801478e+01
  -8.288074e+01  -1.102132e+02
  -9.413827e+00  -1.144335e+02
   8.327021e+01  -2.664093e+01
   1.086531e+02   7.261231e+01
   3.828366e+01   1.019474e+02
  -6.450306e+01   5.953944e+01
  -9.901810e+01  -6.787876e+00
  -4.198843e+01  -4.807395e+01
   2.982327e+01  -5.488018e+01
   3.018686e+01  -3.096176e+01
  -3.261212e+01   6.682053e-01
  -6.906306e+01   9.103770e+00
  -1.576337e+01  -2.507608e+01
   7.818079e+01  -6.836306e+01
   1.139946e+02  -6.154530e+01
   6.607133e+01   9.329344e+00
  -1.287839e+01   8.429672e+01
  -5.087109e+01   8.347540e+01
  -3.702168e+01   9.977651e+00
  -2.484989e+00  -5.665290e+01
   2.542211e+01  -4.495551e+01
   3.677102e+01   1.551530e+01
   2.797212e+01   5.272050e+01
  -9.612688e-01   3.395640e+01
  -3.241330e+01  -7.314679e+00
  -4.021672e+01  -1.973601e+01
  -2.124710e+01   1.897899e+00
   1.936052e-02   1.698514e+01
   6.136322e+00  -1.957250e+00
   5.217815e+00  -4.069000e+01
   1.469317e+01  -5.035937e+01
   3.186552e+01  -9.446858e+00
   3.159453e+01   4.582020e+01
   1.274101e+00   6.186874e+01
  -4.477400e+01   2.188558e+01
  -5.972403e+01  -3.816574e+01
  -1.815114e+01  -6.542411e+01
   5.361995e+01  -3.870097e+01
   9.221325e+01   1.095473e+01
   5.361294e+01   4.334389e+01
  -2.738423e+01   4.498663e+01
  -6.406272e+01   2.808719e+01
  -2.422415e+01   8.547197e+00
   3.703344e+01   1.562952e+00
   3.830517e+01   1.464264e+01
  -2.989037e+01   3.220447e+01
  -9.134287e+01   2.259499e+01
