
 $NMID
 id='ANONYMOUS ', fmtdat='(2E16.6)'
 volume=1.0
 tramp=1.0
 $END
   4.603556e+03  -4.486484e+01
   2.563455e+03   2.899810e+03
  -7.141530e+02   2.919222e+03
  -2.189301e+03   9.564772e+02
  -1.017829e+03  -6.029352e+02
   6.211023e+02  -5.480577e+02
   9.196664e+02   4.364741e+02
  -6.898578e-01   1.091043e+03
  -8.648857e+02   8.586409e+02
  -1.030656e+03  -8.135818e+01
  -5.178621e+02  -9.003765e+02
   2.070623e+02  -9.568702e+02
   6.661479e+02  -1.360985e+02
   4.090051e+02   7.376912e+02
  -2.571352e+02   7.915646e+02
  -6.224098e+02   1.711817e+01
  -3.129746e+02  -7.122851e+02
   3.073821e+02  -6.946270e+02
   6.115487e+02  -1.435635e+02
   4.289526e+02   3.491537e+02
   3.748657e+01   4.606570e+02
  -2.509867e+02   2.881872e+02
  -2.129140e+02   3.258290e+01
   1.374941e+02  -9.660125e+01
   4.571125e+02   1.122339e+02
   2.163480e+02   4.601471e+02
  -4.749821e+02   4.559808e+02
  -8.982162e+02  -2.327523e+01
  -4.661813e+02  -5.390654e+02
   4.008787e+02  -4.979308e+02
   7.807712e+02   2.142819e+01
   3.615998e+02   5.070592e+02
  -3.056902e+02   5.587341e+02
  -6.187610e+02   2.173004e+02
  -4.512619e+02  -2.438078e+02
  -9.079716e+01  -5.063237e+02
   1.947087e+02  -2.944284e+02
   1.581754e+02   2.317592e+02
  -1.757439e+02   4.659314e+02
  -4.649288e+02  -2.986060e+01
  -2.681164e+02  -7.257037e+02
   3.081527e+02  -7.359420e+02
   6.190311e+02   2.336324e+00
   2.561809e+02   5.680015e+02
  -3.174185e+02   3.098640e+02
  -4.149923e+02  -3.589619e+02
   9.008771e+01  -5.743611e+02
   6.163084e+02  -1.374268e+02
   6.469982e+02   4.307051e+02
   1.829277e+02   6.232305e+02
  -4.069233e+02   3.787813e+02
  -6.701950e+02  -6.378916e+01
  -4.069950e+02  -3.900864e+02
   1.438919e+02  -3.744897e+02
   4.651727e+02  -6.907694e+01
   2.623026e+02   1.807435e+02
  -1.065282e+02   9.675273e+01
  -1.337466e+02  -1.456226e+02
   1.773930e+02  -1.770419e+02
   3.525298e+02   8.013776e+01
   1.352284e+02   3.058808e+02
  -2.148535e+02   2.733654e+02
  -3.465201e+02   8.640617e+01
  -2.116825e+02  -8.634939e+01
   3.006610e+01  -2.447607e+02
   2.332111e+02  -3.739814e+02
   3.707989e+02  -2.477040e+02
   3.232553e+02   1.529713e+02
   9.462303e+01   4.770864e+02
  -1.182087e+02   4.095739e+02
  -1.092538e+02   1.256409e+02
  -1.492081e+01   3.343121e+00
  -4.707434e+01   1.092328e+02
  -2.213117e+02   1.449747e+02
  -3.126957e+02  -5.771481e+01
  -1.797156e+02  -2.951873e+02
   7.720530e+01  -2.803463e+02
   2.504876e+02  -1.523468e+01
   2.209513e+02   2.550648e+02
   9.584273e-01   3.143613e+02
  -2.755268e+02   1.264577e+02
  -3.839013e+02  -1.685558e+02
  -2.035234e+02  -3.619078e+02
   9.533601e+01  -3.183212e+02
   2.388336e+02  -1.303130e+02
   1.555095e+02  -9.133159e+00
   1.004279e+02  -4.349275e+01
   2.506678e+02  -7.929432e+01
   4.380329e+02   4.505333e+01
   3.721525e+02   3.006750e+02
   1.109536e+01   4.847892e+02
  -3.823059e+02   4.642187e+02
  -5.391353e+02   2.210029e+02
  -3.670486e+02  -1.005704e+02
  -5.539847e+01  -3.198287e+02
   1.498166e+02  -2.666120e+02
   8.647237e+01  -2.599317e+01
  -1.173756e+02   1.250319e+02
  -2.148049e+02  -6.689694e+00
  -5.495510e+01  -2.063501e+02
   1.658158e+02  -1.774776e+02
   1.813477e+02   6.332137e+01
  -2.710251e+01   1.980748e+02
  -2.092436e+02   3.170503e+01
  -1.783704e+02  -2.629465e+02
   2.324302e+01  -3.771808e+02
   2.274196e+02  -2.192380e+02
   3.483051e+02   4.242180e+01
   3.084887e+02   2.290298e+02
   1.167003e+02   2.533135e+02
  -1.022700e+02   1.643750e+02
  -1.768174e+02   3.289623e+01
  -5.537453e+01  -2.099730e+01
   7.811722e+01   4.767886e+01
   3.621752e+01   1.353323e+02
  -1.279305e+02   1.144300e+02
  -1.912176e+02  -4.611714e+00
  -6.523527e+01  -7.515494e+01
   8.368966e+01  -2.231121e+01
   6.378845e+01   7.453055e+01
  -1.258051e+02   1.034212e+02
  -3.019548e+02   2.037353e+01
  -2.933243e+02  -1.404084e+02
  -7.526262e+01  -2.741332e+02
   1.925606e+02  -2.900306e+02
   3.048413e+02  -1.464105e+02
   1.836847e+02   5.311707e+01
  -2.380413e+01   1.229678e+02
  -9.988684e+01   1.124292e+01
   3.703949e+01  -1.126112e+02
   2.183282e+02  -6.957712e+01
   2.403314e+02   1.109364e+02
   8.125998e+01   2.285355e+02
  -9.769669e+01   1.766675e+02
  -1.531240e+02   3.746191e+01
  -7.714456e+01  -4.153692e+01
   2.948685e+01  -4.837603e+00
   4.378989e+01   8.706482e+01
  -7.120651e+01   1.178659e+02
  -2.065745e+02   4.562788e+01
  -2.105128e+02  -1.200952e+02
  -3.495925e+01  -2.289773e+02
   1.592695e+02  -1.800302e+02
   2.009949e+02  -1.505970e+01
   7.105128e+01   1.182211e+02
  -6.913283e+01   1.171616e+02
  -8.787333e+01   2.995577e+01
  -2.299440e+01  -3.098381e+01
   2.367232e+01  -2.270044e+01
  -5.707646e+00   7.134281e+00
  -6.978487e+01  -7.534545e+00
  -9.561551e+01  -7.875370e+01
  -2.457448e+01  -1.581641e+02
   1.204879e+02  -1.611044e+02
   2.438874e+02  -4.486360e+01
   2.194990e+02   1.435237e+02
   5.656518e+01   2.443413e+02
  -1.082747e+02   1.825212e+02
  -1.405559e+02   3.515548e+01
  -7.771800e+01  -5.314816e+01
  -3.316778e+01  -3.643664e+01
  -5.518685e+01   1.402133e+01
  -7.935957e+01   1.276930e+01
  -4.713721e+01  -4.701563e+01
   3.887653e+01  -9.340614e+01
   1.038657e+02  -6.419221e+01
   9.161317e+01   3.251508e+01
  -1.106804e+01   1.197214e+02
  -1.461006e+02   1.002169e+02
  -2.128827e+02  -4.128733e+01
  -1.181622e+02  -2.096210e+02
   9.623986e+01  -2.518736e+02
   2.743296e+02  -1.286010e+02
   2.796267e+02   7.040064e+01
   1.289598e+02   1.826875e+02
  -3.199019e+01   1.622672e+02
  -9.440137e+01   9.418957e+01
  -7.714044e+01   7.751521e+01
  -6.548036e+01   1.005524e+02
  -9.786613e+01   8.380045e+01
  -1.370170e+02  -1.976217e+01
  -1.269557e+02  -1.606143e+02
  -3.637618e+01  -2.352960e+02
   9.674589e+01  -1.829874e+02
   1.802570e+02  -2.709214e+01
   1.475879e+02   1.183992e+02
   3.246401e+01   1.612351e+02
  -6.221951e+01   9.873095e+01
  -6.428829e+01   4.670365e+00
  -9.385223e+00  -4.275852e+01
   8.843371e+00  -3.947699e+01
  -3.919485e+01  -2.252538e+01
  -8.322208e+01  -2.550812e+01
  -5.187566e+01  -3.997195e+01
   6.589570e+01  -4.294557e+01
   1.708084e+02  -9.553867e+00
   1.591851e+02   4.562951e+01
   1.954442e+01   9.113211e+01
  -1.257063e+02   8.216948e+01
  -1.529087e+02   2.083457e+01
  -5.009050e+01  -4.027452e+01
   6.231707e+01  -4.078862e+01
   7.889784e+01   1.633775e+01
   1.150164e+01   6.977742e+01
  -5.196127e+01   6.128025e+01
  -6.322415e+01  -9.618784e-02
  -4.778949e+01  -5.064447e+01
  -4.564212e+01  -4.072942e+01
  -6.418337e+01   4.807235e+00
  -7.258735e+01   1.005885e+01
  -4.753029e+01  -6.836212e+01
   1.942469e+01  -1.606853e+02
   1.113525e+02  -1.617909e+02
   1.755854e+02  -4.794482e+01
   1.392135e+02   9.080073e+01
   1.574040e+01   1.323249e+02
  -8.176422e+01   7.045648e+01
  -5.878754e+01  -1.072810e+01
   6.370841e+01  -2.025404e+01
   1.438399e+02   4.781752e+01
   7.729379e+01   1.144293e+02
  -8.800907e+01   1.197261e+02
  -2.063430e+02   5.575452e+01
  -1.740528e+02  -3.216298e+01
  -4.407162e+01  -9.202977e+01
   6.273598e+01  -7.741043e+01
   5.173431e+01  -9.756302e+00
  -3.676785e+01   2.736616e+01
  -9.455713e+01  -1.903653e+01
  -3.847112e+01  -1.211926e+02
   8.872232e+01  -1.638994e+02
   1.673898e+02  -7.168628e+01
   1.316191e+02   1.013868e+02
   2.014052e+01   2.059684e+02
  -7.922998e+01   1.535288e+02
  -1.074082e+02  -1.829424e+00
  -7.009634e+01  -1.242988e+02
  -1.552294e+00  -1.144895e+02
   4.868224e+01  -2.376382e+01
   5.877838e+01   3.206859e+01
   2.668314e+01   1.001211e+01
   2.821745e-01  -2.069290e+01
   2.165689e+01   1.320084e+01
   6.311979e+01   8.845769e+01
   4.989977e+01   1.107567e+02
  -4.786035e+01   4.887416e+01
  -1.477901e+02  -3.774425e+01
  -1.405537e+02  -7.117326e+01
  -2.250561e+01  -5.275569e+01
   9.332832e+01  -2.765881e+01
   9.222735e+01  -1.012141e+01
   1.233974e+01   7.423245e+00
  -3.932149e+01   2.503933e+01
  -1.488367e+01   1.844679e+01
   2.102399e+01  -3.423041e+00
  -7.950974e+00  -1.029038e+01
  -7.621715e+01  -2.452199e+00
  -9.671644e+01  -2.309729e+01
  -1.241082e+01  -8.325007e+01
   1.219081e+02  -1.235595e+02
   1.987167e+02  -7.297915e+01
   1.580076e+02   6.378481e+01
   3.323009e+01   1.731939e+02
  -8.361213e+01   1.709698e+02
  -1.221571e+02   7.319763e+01
  -8.503980e+01  -1.759187e+01
  -2.845729e+01  -3.727706e+01
   1.537130e+00  -9.752815e+00
  -1.258491e+01  -2.031419e+00
  -3.783037e+01  -4.853327e+01
  -2.745258e+01  -9.569423e+01
   2.676548e+01  -7.642588e+01
   8.460498e+01   1.809131e+01
   8.385905e+01   1.104729e+02
   1.066829e+01   1.145795e+02
  -8.392891e+01   2.637753e+01
  -1.102952e+02  -7.303687e+01
  -3.846521e+01  -1.029778e+02
   6.569910e+01  -5.975591e+01
   1.022620e+02   7.078257e+00
   4.226526e+01   5.022354e+01
  -3.210394e+01   5.476426e+01
  -3.120943e+01   3.207048e+01
   3.583666e+01  -2.296440e+00
   7.513313e+01  -1.121250e+01
   1.858401e+01   2.491956e+01
  -7.856389e+01   7.173557e+01
  -1.153123e+02   6.899228e+01
  -6.843974e+01  -6.233220e+00
   1.213838e+01  -8.637378e+01
   5.197690e+01  -8.709204e+01
   4.023703e+01  -1.199903e+01
   5.464718e+00   5.696212e+01
  -2.498686e+01   4.791979e+01
  -3.880828e+01  -1.402175e+01
  -3.081472e+01  -5.363440e+01
  -5.582023e-01  -3.478707e+01
   3.414693e+01   5.465225e+00
   4.411056e+01   1.858653e+01
   2.411146e+01  -7.266929e-01
  -6.795164e-02  -1.425457e+01
  -8.565135e+00   3.113490e+00
  -5.821253e+00   3.869006e+01
  -1.174362e+01   4.822278e+01
  -2.959179e+01   9.520968e+00
  -3.259601e+01  -4.403255e+01
  -3.445064e+00  -6.067737e+01
   4.356227e+01  -2.138348e+01
   5.904569e+01   3.763289e+01
   1.812623e+01   6.294167e+01
  -5.485501e+01   3.695537e+01
  -9.458860e+01  -1.197010e+01
  -5.470431e+01  -4.272234e+01
   2.708441e+01  -4.531926e+01
   6.508330e+01  -2.904856e+01
   2.452880e+01  -9.770345e+00
  -3.852404e+01  -3.129539e+00
  -3.799873e+01  -1.647669e+01
   3.267598e+01  -3.257041e+01
   9.509564e+01  -2.098649e+01
