
 $NMID
 id='ANONYMOUS ', fmtdat='(2E16.6)'
 volume=1.0
 tramp=1.0
 $END
   4.430951e+03   1.491573e+02
   2.497687e+03   2.592260e+03
  -7.175826e+02   2.716825e+03
  -2.128395e+03   9.975125e+02
  -9.898108e+02  -5.597262e+02
   6.089420e+02  -4.700556e+02
   8.361806e+02   4.205175e+02
  -3.395832e+01   1.045354e+03
  -8.080995e+02   8.058144e+02
  -9.546975e+02  -5.356050e+01
  -4.613917e+02  -8.456065e+02
   2.115245e+02  -8.760586e+02
   6.056623e+02  -1.098069e+02
   3.714361e+02   7.293530e+02
  -2.825849e+02   7.520065e+02
  -6.054300e+02  -1.516862e+01
  -2.931484e+02  -7.013008e+02
   2.957675e+02  -6.653647e+02
   5.860548e+02  -1.355675e+02
   4.339355e+02   3.218535e+02
   4.978560e+01   4.465746e+02
  -2.423161e+02   2.852003e+02
  -2.024407e+02   8.322637e+00
   1.553861e+02  -9.780024e+01
   4.657468e+02   1.264341e+02
   2.053630e+02   4.758566e+02
  -5.110010e+02   4.347943e+02
  -8.885484e+02  -6.111946e+01
  -4.368598e+02  -5.586565e+02
   4.223148e+02  -4.739910e+02
   7.575487e+02   6.605228e+01
   3.468070e+02   5.019763e+02
  -2.942156e+02   5.348861e+02
  -5.847786e+02   2.035904e+02
  -4.380619e+02  -2.285285e+02
  -8.183619e+01  -4.666892e+02
   1.894921e+02  -2.758780e+02
   1.442399e+02   2.223410e+02
  -1.960551e+02   4.086163e+02
  -4.481912e+02  -6.074368e+01
  -2.178447e+02  -6.977555e+02
   3.429384e+02  -6.770640e+02
   5.910351e+02   2.573182e+01
   2.312674e+02   5.563233e+02
  -3.061941e+02   3.049915e+02
  -3.800946e+02  -3.328753e+02
   8.049011e+01  -5.570572e+02
   5.744324e+02  -1.533516e+02
   6.183441e+02   3.864434e+02
   1.794957e+02   5.957284e+02
  -3.912037e+02   3.612736e+02
  -6.424755e+02  -7.175119e+01
  -3.741391e+02  -3.843827e+02
   1.562785e+02  -3.552435e+02
   4.380052e+02  -4.743537e+01
   2.343096e+02   1.863289e+02
  -1.160334e+02   8.632843e+01
  -1.314365e+02  -1.539399e+02
   1.650986e+02  -1.764949e+02
   3.482594e+02   6.754780e+01
   1.485869e+02   2.846047e+02
  -1.945885e+02   2.752933e+02
  -3.356911e+02   1.085275e+02
  -2.265568e+02  -6.985460e+01
  -4.463298e+00  -2.563857e+02
   2.166581e+02  -3.587211e+02
   3.581515e+02  -2.374571e+02
   3.130497e+02   1.436509e+02
   8.273100e+01   4.494271e+02
  -1.153281e+02   3.929889e+02
  -1.109224e+02   1.246214e+02
  -2.235098e+01   6.472205e+00
  -4.659188e+01   1.114507e+02
  -2.092264e+02   1.438337e+02
  -2.976971e+02  -5.752554e+01
  -1.740580e+02  -2.856401e+02
   7.243080e+01  -2.739271e+02
   2.438898e+02  -1.880005e+01
   2.193306e+02   2.497539e+02
  -2.733128e-01   3.190240e+02
  -2.845894e+02   1.381013e+02
  -3.895417e+02  -1.606944e+02
  -2.167967e+02  -3.569055e+02
   8.384182e+01  -3.182113e+02
   2.204577e+02  -1.302784e+02
   1.460826e+02  -1.343271e+01
   9.547353e+01  -4.589693e+01
   2.309373e+02  -8.104497e+01
   4.105147e+02   3.769975e+01
   3.535023e+02   2.764823e+02
   2.260805e+01   4.610691e+02
  -3.542421e+02   4.430993e+02
  -5.114977e+02   2.253304e+02
  -3.571687e+02  -9.779505e+01
  -5.870198e+01  -3.123061e+02
   1.368552e+02  -2.622504e+02
   7.887144e+01  -2.513315e+01
  -1.210897e+02   1.175053e+02
  -2.012280e+02  -6.184369e+00
  -3.941336e+01  -1.995875e+02
   1.616906e+02  -1.722109e+02
   1.695455e+02   5.859327e+01
  -2.754362e+01   1.894463e+02
  -2.017969e+02   3.022887e+01
  -1.678534e+02  -2.534745e+02
   2.545984e+01  -3.625882e+02
   2.320206e+02  -2.128410e+02
   3.444730e+02   3.096445e+01
   3.063577e+02   2.223332e+02
   1.214204e+02   2.618219e+02
  -9.937049e+01   1.748515e+02
  -1.722532e+02   3.481202e+01
  -5.483044e+01  -1.907239e+01
   7.291506e+01   4.894471e+01
   3.352537e+01   1.366156e+02
  -1.292141e+02   1.112714e+02
  -1.884717e+02  -8.901464e+00
  -6.529423e+01  -7.982727e+01
   8.188799e+01  -2.452229e+01
   6.520576e+01   7.495056e+01
  -1.240871e+02   1.084585e+02
  -2.979036e+02   2.190464e+01
  -2.926645e+02  -1.404577e+02
  -7.184294e+01  -2.789713e+02
   1.941331e+02  -2.880865e+02
   2.999383e+02  -1.444001e+02
   1.754582e+02   5.179974e+01
  -2.640331e+01   1.176951e+02
  -9.557253e+01   7.491803e+00
   3.682018e+01  -1.111238e+02
   2.109408e+02  -6.768914e+01
   2.250386e+02   1.060755e+02
   7.492358e+01   2.178001e+02
  -9.432852e+01   1.703146e+02
  -1.461345e+02   3.537509e+01
  -6.700047e+01  -4.251178e+01
   3.847356e+01  -3.339943e+00
   4.413282e+01   9.388512e+01
  -7.764065e+01   1.265669e+02
  -2.144699e+02   4.904149e+01
  -2.128354e+02  -1.202419e+02
  -3.790516e+01  -2.338047e+02
   1.580573e+02  -1.902241e+02
   2.022097e+02  -2.162868e+01
   7.473375e+01   1.166408e+02
  -6.436226e+01   1.210868e+02
  -8.627873e+01   3.307214e+01
  -1.920225e+01  -3.071662e+01
   2.542996e+01  -2.220178e+01
  -5.705413e+00   1.376552e+01
  -7.508666e+01   3.768900e+00
  -1.015101e+02  -7.830282e+01
  -2.804301e+01  -1.670572e+02
   1.245396e+02  -1.722320e+02
   2.443892e+02  -3.667129e+01
   2.202623e+02   1.488090e+02
   5.258405e+01   2.469585e+02
  -1.089290e+02   1.827650e+02
  -1.436362e+02   3.396747e+01
  -7.588346e+01  -5.400252e+01
  -2.899901e+01  -3.633318e+01
  -5.262901e+01   1.503390e+01
  -8.239091e+01   1.395627e+01
  -5.124383e+01  -4.708953e+01
   3.715046e+01  -9.659362e+01
   1.028042e+02  -6.701091e+01
   9.645913e+01   3.320303e+01
  -4.810275e+00   1.213587e+02
  -1.435029e+02   1.025933e+02
  -2.108789e+02  -4.151317e+01
  -1.179829e+02  -2.112759e+02
   9.815373e+01  -2.501787e+02
   2.733963e+02  -1.231269e+02
   2.728265e+02   7.000821e+01
   1.212805e+02   1.782398e+02
  -3.326411e+01   1.566857e+02
  -9.188678e+01   9.043236e+01
  -7.468410e+01   7.388292e+01
  -6.394735e+01   9.453964e+01
  -9.113064e+01   8.682351e+01
  -1.369160e+02  -1.151333e+01
  -1.371234e+02  -1.532684e+02
  -4.566475e+01  -2.365595e+02
   9.637121e+01  -1.877750e+02
   1.857432e+02  -2.900594e+01
   1.531284e+02   1.194339e+02
   3.225783e+01   1.667242e+02
  -6.442462e+01   9.696333e+01
  -6.361253e+01   4.414215e+00
  -1.046540e+01  -4.355447e+01
   8.794048e+00  -3.647010e+01
  -3.610564e+01  -1.836097e+01
  -7.967958e+01  -2.131295e+01
  -5.114059e+01  -3.690073e+01
   6.139609e+01  -4.369950e+01
   1.596359e+02  -1.170027e+01
   1.525102e+02   4.471480e+01
   1.911230e+01   9.438765e+01
  -1.268566e+02   8.348122e+01
  -1.529678e+02   1.684849e+01
  -4.957385e+01  -4.447581e+01
   6.413805e+01  -4.620997e+01
   8.247398e+01   1.559412e+01
   1.322665e+01   7.267737e+01
  -5.265123e+01   6.390490e+01
  -6.671340e+01   2.391175e+00
  -5.059140e+01  -4.980643e+01
  -4.839749e+01  -4.212119e+01
  -6.460381e+01  -3.592043e+00
  -6.859686e+01   6.918334e-01
  -4.130668e+01  -6.969069e+01
   2.615610e+01  -1.567039e+02
   1.156449e+02  -1.540179e+02
   1.734282e+02  -4.082317e+01
   1.381883e+02   9.363786e+01
   1.150837e+01   1.344511e+02
  -8.755533e+01   6.732994e+01
  -6.371288e+01  -1.175962e+01
   5.760241e+01  -2.181160e+01
   1.416214e+02   4.173111e+01
   7.950407e+01   1.084026e+02
  -8.109401e+01   1.168366e+02
  -1.965162e+02   5.612392e+01
  -1.697490e+02  -3.359316e+01
  -3.959427e+01  -8.989450e+01
   6.260969e+01  -7.281415e+01
   5.115978e+01  -7.059764e+00
  -4.047129e+01   2.847034e+01
  -9.549043e+01  -1.758345e+01
  -4.191405e+01  -1.210661e+02
   8.164019e+01  -1.675706e+02
   1.625769e+02  -7.906830e+01
   1.354223e+02   9.313218e+01
   2.408662e+01   2.019547e+02
  -7.349303e+01   1.533828e+02
  -1.052622e+02  -3.348704e-01
  -6.782494e+01  -1.184184e+02
  -2.005785e+00  -1.115114e+02
   4.585220e+01  -2.549848e+01
   5.194583e+01   2.785661e+01
   2.505328e+01   7.386190e+00
   5.023451e+00  -2.119740e+01
   2.762590e+01   1.291229e+01
   6.587462e+01   8.801966e+01
   4.746656e+01   1.095380e+02
  -4.988211e+01   4.986205e+01
  -1.445736e+02  -3.065299e+01
  -1.370634e+02  -6.786977e+01
  -2.296956e+01  -5.341945e+01
   8.634911e+01  -2.801584e+01
   9.296488e+01  -1.044689e+01
   1.662578e+01   8.301750e+00
  -3.690380e+01   2.388213e+01
  -1.713672e+01   1.981478e+01
   1.842648e+01  -2.793115e+00
  -5.589928e+00  -1.014172e+01
  -7.126590e+01  -5.274871e+00
  -9.154364e+01  -2.158450e+01
  -1.350502e+01  -7.795056e+01
   1.145105e+02  -1.183981e+02
   1.888552e+02  -6.798579e+01
   1.507396e+02   6.104203e+01
   3.225663e+01   1.657839e+02
  -7.698258e+01   1.593569e+02
  -1.127400e+02   6.923697e+01
  -8.112643e+01  -1.530810e+01
  -2.687460e+01  -3.556196e+01
   1.752865e+00  -8.167410e+00
  -1.144870e+01  -1.680259e+00
  -3.689954e+01  -4.511923e+01
  -2.678176e+01  -9.189733e+01
   2.616147e+01  -7.514101e+01
   8.073474e+01   1.611341e+01
   7.989928e+01   1.074905e+02
   1.084434e+01   1.133109e+02
  -8.070057e+01   2.808603e+01
  -1.084345e+02  -6.987828e+01
  -3.966191e+01  -1.030587e+02
   6.193798e+01  -6.186903e+01
   9.955565e+01   3.971199e+00
   4.633349e+01   4.789710e+01
  -2.586660e+01   5.515039e+01
  -2.971450e+01   3.345831e+01
   3.345233e+01  -8.489213e-01
   7.035854e+01  -1.004771e+01
   1.864209e+01   2.370650e+01
  -7.466044e+01   6.957135e+01
  -1.145114e+02   6.657426e+01
  -7.001017e+01  -8.099834e+00
   9.761284e+00  -8.457986e+01
   4.957076e+01  -8.619502e+01
   4.061091e+01  -1.081543e+01
   5.216187e+00   5.687484e+01
  -2.411013e+01   4.648671e+01
  -3.772536e+01  -1.441541e+01
  -2.849005e+01  -5.352797e+01
   2.557749e+00  -3.416913e+01
   3.417771e+01   8.193001e+00
   3.960945e+01   2.154705e+01
   1.891634e+01   1.306940e+00
  -2.986739e+00  -1.567979e+01
  -7.486199e+00  -5.694272e-02
  -2.710674e+00   3.609675e+01
  -1.103111e+01   4.802826e+01
  -2.876943e+01   1.107940e+01
  -3.118775e+01  -4.104833e+01
  -2.424561e+00  -5.947147e+01
   4.256263e+01  -2.177764e+01
   5.834172e+01   3.688244e+01
   1.877078e+01   6.351068e+01
  -5.539004e+01   4.037009e+01
  -9.457897e+01  -1.055620e+01
  -5.339293e+01  -4.383283e+01
   2.767591e+01  -4.516425e+01
   6.583481e+01  -2.698006e+01
   2.409511e+01  -7.380790e+00
  -3.605536e+01   8.133382e-02
  -3.584244e+01  -1.208518e+01
   2.995042e+01  -3.098991e+01
   8.808002e+01  -2.242907e+01
