
 $NMID
 id='ANONYMOUS ', fmtdat='(2E16.6)'
 volume=1.0
 tramp=1.0
 $END
  -3.220884e+03   3.945389e+02
  -2.067375e+03  -1.788305e+03
  -1.316252e+02  -2.052931e+03
   1.121570e+03  -1.176655e+03
   8.526076e+02  -1.212471e+01
  -8.711098e+01   3.159167e+02
  -4.745213e+02  -1.465066e+02
  -1.232327e+02  -6.327348e+02
   4.359979e+02  -6.302328e+02
   6.415180e+02  -6.428257e+01
   4.533062e+02   5.155845e+02
   4.312412e+00   6.432457e+02
  -3.303155e+02   1.755018e+02
  -3.205814e+02  -4.045508e+02
   6.510843e+01  -5.417917e+02
   3.967021e+02  -1.102088e+02
   3.162388e+02   4.539680e+02
  -1.108576e+02   5.979632e+02
  -4.428832e+02   2.743755e+02
  -4.232623e+02  -1.550156e+02
  -1.250284e+02  -3.415128e+02
   1.088918e+02  -2.405778e+02
   7.210878e+01  -7.560951e+01
  -1.621089e+02  -5.739869e+01
  -2.812243e+02  -2.021749e+02
  -4.077578e+01  -3.423135e+02
   4.213180e+02  -2.401134e+02
   6.251761e+02   8.295604e+01
   3.058461e+02   3.331015e+02
  -2.511941e+02   2.744771e+02
  -5.013977e+02  -2.213491e+01
  -2.479976e+02  -3.163561e+02
   1.900249e+02  -3.672080e+02
   4.178546e+02  -1.624056e+02
   3.215013e+02   1.297126e+02
   1.038713e+02   3.038699e+02
  -5.583176e+01   1.939996e+02
  -3.211729e+01  -1.015618e+02
   1.353134e+02  -2.096320e+02
   2.370825e+02   6.537290e+01
   1.090768e+02   4.600298e+02
  -1.917266e+02   4.833237e+02
  -3.486411e+02   4.215595e+01
  -1.860033e+02  -3.189108e+02
   1.407658e+02  -1.943402e+02
   2.194263e+02   2.081795e+02
  -4.590327e+01   3.637356e+02
  -4.124654e+02   1.046157e+02
  -4.862566e+02  -2.962377e+02
  -1.821605e+02  -4.472531e+02
   2.714600e+02  -2.909816e+02
   4.936769e+02   6.718028e+00
   3.357257e+02   2.349740e+02
  -4.370860e+01   2.513398e+02
  -2.902587e+02   8.943309e+01
  -2.106095e+02  -5.648936e+01
   1.569621e+01  -5.309922e+01
   7.808748e+01   5.208681e+01
  -8.660038e+01   1.007372e+02
  -2.464777e+02  -4.692518e+00
  -1.408809e+02  -1.787353e+02
   1.356552e+02  -2.468770e+02
   3.133548e+02  -1.343447e+02
   2.214028e+02   7.526995e+01
  -1.407959e+01   2.740704e+02
  -2.353457e+02   3.223526e+02
  -2.985729e+02   1.656915e+02
  -2.266034e+02  -1.210866e+02
  -8.387899e+01  -3.244876e+02
   1.161317e+01  -2.951040e+02
   3.924770e+01  -1.542715e+02
   3.664895e+01  -7.198615e+01
   9.698907e+01  -9.598048e+01
   1.925368e+02  -7.763270e+01
   2.162934e+02   6.655485e+01
   1.207000e+02   2.086755e+02
  -5.280915e+01   1.879461e+02
  -1.701727e+02  -5.097353e+00
  -1.558777e+02  -2.017851e+02
   1.273944e+01  -2.443324e+02
   2.209502e+02  -9.291849e+01
   3.045323e+02   1.289884e+02
   1.826531e+02   2.714963e+02
  -3.504808e+01   2.604799e+02
  -1.486979e+02   1.514908e+02
  -1.343551e+02   6.999956e+01
  -1.285543e+02   6.094528e+01
  -2.354052e+02   5.046567e+01
  -3.675904e+02  -4.808289e+01
  -3.093061e+02  -2.287934e+02
  -2.211075e+01  -3.826171e+02
   3.028631e+02  -3.876847e+02
   4.112648e+02  -1.883908e+02
   2.728723e+02   6.091800e+01
   3.925686e+01   2.228697e+02
  -7.345036e+01   1.874628e+02
  -1.755602e+01   3.805300e+01
   1.094552e+02  -5.680381e+01
   1.311691e+02   1.515360e+01
   3.203848e+01   1.355950e+02
  -1.027550e+02   1.228482e+02
  -1.200132e+02  -3.120104e+01
   6.214714e+00  -1.350312e+02
   1.510212e+02  -2.454073e+01
   1.541269e+02   2.044563e+02
  -2.674473e+00   3.144150e+02
  -2.174469e+02   2.035448e+02
  -3.218867e+02  -3.888719e+01
  -2.644973e+02  -2.095372e+02
  -8.481040e+01  -2.333366e+02
   9.688723e+01  -1.359862e+02
   1.326248e+02  -2.602054e+01
   3.731240e+01   3.451952e+00
  -4.943742e+01  -4.618643e+01
  -1.176215e+01  -1.024632e+02
   1.119363e+02  -7.229460e+01
   1.415230e+02   7.407303e+00
   3.916428e+01   4.831850e+01
  -7.219930e+01  -5.591898e-01
  -4.173837e+01  -7.130448e+01
   1.231430e+02  -8.295591e+01
   2.642220e+02  -5.932730e+00
   2.370009e+02   1.270688e+02
   4.414489e+01   2.317473e+02
  -1.647070e+02   2.285669e+02
  -2.329129e+02   1.134463e+02
  -1.311824e+02  -3.364645e+01
   1.906604e+01  -7.953666e+01
   6.630418e+01  -2.576686e+00
  -3.408375e+01   8.328937e+01
  -1.654940e+02   5.331916e+01
  -1.828970e+02  -7.947859e+01
  -6.831718e+01  -1.752278e+02
   7.214778e+01  -1.395641e+02
   1.174835e+02  -2.899349e+01
   4.861849e+01   3.148410e+01
  -3.801964e+01  -1.132409e+01
  -3.068260e+01  -9.452779e+01
   8.722680e+01  -1.146272e+02
   1.912616e+02  -2.985308e+01
   1.756056e+02   1.078802e+02
   2.774314e+01   1.909266e+02
  -1.315035e+02   1.524326e+02
  -1.600353e+02   2.307860e+01
  -5.884751e+01  -8.478078e+01
   4.797810e+01  -9.353444e+01
   6.424794e+01  -2.716669e+01
   6.206765e+00   2.312199e+01
  -3.003764e+01   1.237359e+01
   5.825483e+00  -2.299591e+01
   7.937245e+01  -7.644387e+00
   9.954983e+01   7.593777e+01
   2.166334e+01   1.584287e+02
  -1.213135e+02   1.499338e+02
  -2.215689e+02   2.261140e+01
  -1.896814e+02  -1.316381e+02
  -4.704033e+01  -2.100488e+02
   8.589163e+01  -1.554496e+02
   1.213474e+02  -3.397868e+01
   6.963319e+01   4.096780e+01
   2.958717e+01   2.728104e+01
   4.599218e+01  -1.470788e+01
   7.676657e+01  -1.265410e+01
   5.288440e+01   4.685611e+01
  -2.864131e+01   9.676759e+01
  -1.019281e+02   6.543288e+01
  -9.843112e+01  -3.354144e+01
   6.647377e+00  -1.158874e+02
   1.404630e+02  -9.211565e+01
   1.916058e+02   4.220391e+01
   9.320312e+01   1.847060e+02
  -9.771585e+01   2.109651e+02
  -2.428798e+02   1.009726e+02
  -2.334575e+02  -5.767457e+01
  -1.034093e+02  -1.448201e+02
   2.614531e+01  -1.330198e+02
   7.357479e+01  -8.257332e+01
   6.137471e+01  -6.971490e+01
   5.030645e+01  -8.407941e+01
   7.760946e+01  -7.396703e+01
   1.203000e+02   7.190106e+00
   1.188652e+02   1.296719e+02
   3.779177e+01   2.039001e+02
  -8.237071e+01   1.602584e+02
  -1.555761e+02   2.516907e+01
  -1.265951e+02  -1.073480e+02
  -2.068458e+01  -1.415075e+02
   5.832609e+01  -7.769479e+01
   5.568459e+01   6.918176e+00
   1.697134e+00   4.494457e+01
  -1.962955e+01   3.093311e+01
   2.600801e+01   1.146474e+01
   7.442587e+01   1.423880e+01
   4.824551e+01   3.503235e+01
  -6.183215e+01   3.860976e+01
  -1.531766e+02   8.875712e+00
  -1.337242e+02  -4.663384e+01
  -6.499603e+00  -8.657194e+01
   1.123755e+02  -7.285614e+01
   1.248424e+02  -1.183700e+01
   3.803000e+01   4.166685e+01
  -5.161418e+01   4.176674e+01
  -6.909831e+01  -1.218830e+01
  -1.895960e+01  -6.869598e+01
   3.781193e+01  -6.553810e+01
   6.118741e+01  -5.524358e+00
   5.190919e+01   4.440202e+01
   4.300414e+01   3.611672e+01
   5.055215e+01  -3.671010e+00
   5.899768e+01  -3.441753e+00
   4.048003e+01   6.172688e+01
  -1.991735e+01   1.401664e+02
  -1.024492e+02   1.356368e+02
  -1.540650e+02   3.741817e+01
  -1.182936e+02  -7.740820e+01
  -1.091618e+01  -1.188490e+02
   8.147183e+01  -6.733655e+01
   5.693995e+01   5.658548e+00
  -4.786496e+01   2.227138e+01
  -1.184860e+02  -2.746692e+01
  -7.021176e+01  -8.885713e+01
   6.539843e+01  -1.011973e+02
   1.618345e+02  -4.911715e+01
   1.424818e+02   2.720769e+01
   3.345824e+01   7.364890e+01
  -5.243827e+01   5.951673e+01
  -4.271330e+01   2.512411e+00
   3.959944e+01  -2.990518e+01
   8.677287e+01   1.228368e+01
   4.445071e+01   1.042985e+02
  -6.004780e+01   1.511400e+02
  -1.385726e+02   7.934159e+01
  -1.218293e+02  -7.302559e+01
  -3.377997e+01  -1.751136e+02
   5.895127e+01  -1.355154e+02
   9.428564e+01   1.043240e+00
   6.102222e+01   1.046688e+02
  -4.879601e+00   9.215199e+01
  -4.623813e+01   1.689719e+01
  -4.175448e+01  -2.452539e+01
  -1.331481e+01  -3.696399e+00
  -1.813341e+00   1.767604e+01
  -3.015424e+01  -1.443945e+01
  -6.393278e+01  -7.393071e+01
  -3.942051e+01  -9.149640e+01
   4.773401e+01  -4.447792e+01
   1.253637e+02   2.223995e+01
   1.140059e+02   5.452815e+01
   1.621571e+01   4.721229e+01
  -7.290329e+01   2.719408e+01
  -7.552717e+01   8.894732e+00
  -1.238937e+01  -1.260311e+01
   3.131124e+01  -2.318406e+01
   1.460980e+01  -1.135502e+01
  -1.445021e+01   7.828121e+00
   4.197670e+00   5.266422e+00
   6.154120e+01  -5.084590e+00
   8.404424e+01   1.336427e+01
   2.219794e+01   7.184936e+01
  -8.680529e+01   1.143636e+02
  -1.584027e+02   7.147190e+01
  -1.378296e+02  -4.191097e+01
  -4.091691e+01  -1.383577e+02
   5.885684e+01  -1.419348e+02
   9.814461e+01  -6.796764e+01
   7.510794e+01   9.923469e+00
   2.707680e+01   3.242354e+01
   1.189965e+00   1.113897e+01
   1.053008e+01   5.682049e+00
   2.683930e+01   3.891942e+01
   2.171439e+01   7.821709e+01
  -2.025636e+01   6.620862e+01
  -6.906335e+01  -5.713701e+00
  -7.771432e+01  -8.485567e+01
  -2.114566e+01  -1.008376e+02
   6.479762e+01  -3.566029e+01
   1.005262e+02   5.260673e+01
   4.458036e+01   9.348697e+01
  -5.356853e+01   6.337285e+01
  -9.472456e+01  -7.520353e-01
  -4.546274e+01  -4.812666e+01
   2.610376e+01  -5.833382e+01
   3.314672e+01  -2.794129e+01
  -2.279491e+01   7.736224e+00
  -6.195354e+01   1.263773e+01
  -2.041088e+01  -2.417043e+01
   6.419862e+01  -6.631596e+01
   1.038689e+02  -5.933146e+01
   6.820881e+01   9.757601e+00
  -3.670751e+00   7.740009e+01
  -4.387064e+01   7.751841e+01
  -3.979536e+01   1.294483e+01
  -8.974601e+00  -4.594054e+01
   1.876613e+01  -4.139020e+01
   3.460900e+01   8.483053e+00
   2.983287e+01   4.608438e+01
   2.231475e+00   3.388629e+01
  -2.996620e+01  -2.796795e+00
  -3.934047e+01  -1.862135e+01
  -1.904499e+01  -7.182408e-01
   3.401994e+00   1.878562e+01
   4.903773e+00   7.010848e+00
  -3.770691e+00  -3.037348e+01
   1.920118e+00  -4.775002e+01
   2.520100e+01  -2.026031e+01
   3.719623e+01   3.227450e+01
   1.312971e+01   5.419445e+01
  -3.581085e+01   2.563744e+01
  -5.820565e+01  -2.694506e+01
  -2.124781e+01  -5.474381e+01
   5.153103e+01  -3.617560e+01
   8.741181e+01   5.861016e+00
   4.815187e+01   3.820046e+01
  -2.603337e+01   4.340574e+01
  -6.094429e+01   3.003693e+01
  -2.490829e+01   7.558455e+00
   2.769086e+01  -5.897512e+00
   3.224918e+01   5.140123e+00
  -1.779171e+01   2.641974e+01
  -6.831624e+01   2.494338e+01
