
 $NMID
 id='ANONYMOUS ', fmtdat='(2E16.6)'
 volume=1.0
 tramp=1.0
 $END
   4.194094e+03  -2.313700e+02
   2.541606e+03   2.701364e+03
  -5.925822e+02   2.619759e+03
  -1.901832e+03   8.411289e+02
  -8.286799e+02  -6.736071e+02
   7.297500e+02  -5.573396e+02
   9.625672e+02   4.399265e+02
   2.256654e+01   1.052251e+03
  -7.605690e+02   7.758669e+02
  -9.209657e+02  -5.488602e+01
  -4.611484e+02  -7.991303e+02
   1.896057e+02  -8.378832e+02
   6.218895e+02  -1.138311e+02
   4.161169e+02   6.850251e+02
  -2.343879e+02   7.185827e+02
  -5.811284e+02   1.402325e+01
  -2.947353e+02  -6.285728e+02
   2.737275e+02  -5.941986e+02
   5.280722e+02  -9.825627e+01
   3.717978e+02   3.000600e+02
   3.140133e+01   3.931921e+02
  -2.155737e+02   2.499471e+02
  -1.932922e+02   8.642401e+00
   1.137553e+02  -1.143353e+02
   4.171881e+02   5.906653e+01
   2.281665e+02   4.072113e+02
  -4.264165e+02   4.609771e+02
  -8.293369e+02   1.938812e+00
  -4.574133e+02  -5.097197e+02
   3.543064e+02  -5.181351e+02
   7.396934e+02  -2.830191e+01
   3.781319e+02   4.413797e+02
  -2.231295e+02   5.295972e+02
  -5.281461e+02   2.461002e+02
  -4.131030e+02  -1.895277e+02
  -9.491388e+01  -4.551286e+02
   1.943964e+02  -2.744131e+02
   1.937892e+02   2.230910e+02
  -1.410841e+02   4.614447e+02
  -4.693038e+02   1.599383e+01
  -3.141329e+02  -6.624274e+02
   2.590903e+02  -7.182279e+02
   5.959362e+02  -2.894954e+01
   2.735675e+02   5.410333e+02
  -2.948317e+02   3.348590e+02
  -4.097872e+02  -3.087423e+02
   1.642281e+01  -5.533073e+02
   5.477762e+02  -1.959814e+02
   6.271503e+02   3.390566e+02
   2.122990e+02   5.453529e+02
  -3.394819e+02   3.647050e+02
  -5.971910e+02  -1.506043e+01
  -3.674607e+02  -3.252665e+02
   1.345694e+02  -3.456264e+02
   4.077268e+02  -6.475726e+01
   2.144893e+02   1.753833e+02
  -1.308434e+02   1.008552e+02
  -1.436157e+02  -1.550862e+02
   1.683645e+02  -1.979578e+02
   3.545907e+02   4.355243e+01
   1.588517e+02   2.821468e+02
  -1.781130e+02   2.750490e+02
  -2.964338e+02   1.017244e+02
  -1.793231e+02  -4.504523e+01
  -2.391377e+01  -1.931540e+02
   1.402553e+02  -3.228928e+02
   2.856189e+02  -2.431549e+02
   2.977909e+02   1.006135e+02
   1.200033e+02   3.982080e+02
  -9.371326e+01   3.615194e+02
  -1.279860e+02   9.492918e+01
  -1.743651e+01  -3.095524e+01
  -5.581599e+00   9.209484e+01
  -1.568479e+02   1.616163e+02
  -2.787962e+02  -4.374574e+00
  -1.927756e+02  -2.412864e+02
   4.014765e+01  -2.598743e+02
   2.177999e+02  -4.505543e+01
   2.185381e+02   2.017028e+02
   2.326887e+01   2.794779e+02
  -2.365668e+02   1.462505e+02
  -3.564408e+02  -1.117694e+02
  -2.080440e+02  -3.096991e+02
   6.847625e+01  -2.990764e+02
   2.046406e+02  -1.385852e+02
   1.387810e+02  -1.614852e+01
   7.698004e+01  -3.557082e+01
   1.870876e+02  -9.204234e+01
   3.691997e+02  -2.772919e+00
   3.472103e+02   2.117971e+02
   5.891267e+01   4.081451e+02
  -2.772647e+02   4.300336e+02
  -4.323598e+02   2.433673e+02
  -3.225208e+02  -5.491627e+01
  -8.257215e+01  -2.749757e+02
   1.080666e+02  -2.437538e+02
   7.754746e+01  -1.325070e+01
  -1.000835e+02   1.174601e+02
  -1.926797e+02   1.419689e+01
  -6.427353e+01  -1.867219e+02
   1.486837e+02  -1.737198e+02
   1.806521e+02   5.102896e+01
  -2.734144e+00   1.922819e+02
  -1.872954e+02   5.418218e+01
  -1.784632e+02  -2.097067e+02
  -7.136549e+00  -3.216364e+02
   1.906329e+02  -1.938974e+02
   2.949861e+02   2.039866e+01
   2.836695e+02   1.776105e+02
   1.280541e+02   2.253156e+02
  -7.527822e+01   1.640507e+02
  -1.658166e+02   4.809736e+01
  -6.525014e+01  -1.824906e+01
   6.601027e+01   2.871998e+01
   4.061085e+01   1.153157e+02
  -1.111760e+02   1.054193e+02
  -1.706904e+02   3.655621e+00
  -6.021833e+01  -6.991827e+01
   8.248489e+01  -3.455633e+01
   6.805499e+01   5.663364e+01
  -9.739164e+01   9.531994e+01
  -2.514068e+02   3.846446e+01
  -2.529895e+02  -9.030787e+01
  -8.507051e+01  -2.274321e+02
   1.338110e+02  -2.642812e+02
   2.462446e+02  -1.493491e+02
   1.626777e+02   3.414176e+01
  -1.276227e+01   1.054203e+02
  -9.025860e+01   1.051124e+01
   1.617015e+01  -1.058597e+02
   1.769308e+02  -7.989643e+01
   2.111224e+02   7.072403e+01
   8.933528e+01   1.858042e+02
  -6.757791e+01   1.585835e+02
  -1.270351e+02   4.609679e+01
  -6.994620e+01  -2.877700e+01
   2.207486e+01  -7.272980e+00
   4.251260e+01   6.838298e+01
  -5.898083e+01   1.095031e+02
  -1.748145e+02   4.805575e+01
  -1.849513e+02  -9.361237e+01
  -4.006956e+01  -1.980468e+02
   1.366311e+02  -1.653856e+02
   1.787585e+02  -2.130112e+01
   7.104464e+01   1.008594e+02
  -4.987337e+01   1.094849e+02
  -7.590535e+01   3.665257e+01
  -2.392141e+01  -2.187699e+01
   1.436056e+01  -2.158985e+01
  -5.870101e+00   5.592519e+00
  -6.215802e+01   1.851565e-01
  -8.945848e+01  -6.160124e+01
  -3.328899e+01  -1.400211e+02
   9.806933e+01  -1.524732e+02
   2.123318e+02  -4.554299e+01
   2.010275e+02   1.182112e+02
   5.647503e+01   2.133477e+02
  -8.623491e+01   1.624117e+02
  -1.214313e+02   3.229017e+01
  -6.371598e+01  -4.544718e+01
  -2.657216e+01  -2.930103e+01
  -4.491777e+01   1.375656e+01
  -6.797754e+01   1.095819e+01
  -3.795332e+01  -3.718950e+01
   2.992599e+01  -7.659336e+01
   8.053962e+01  -5.547297e+01
   7.669402e+01   1.925115e+01
   1.449709e+00   9.652486e+01
  -1.144784e+02   9.435361e+01
  -1.816993e+02  -1.859520e+01
  -1.149952e+02  -1.678230e+02
   7.319413e+01  -2.201359e+02
   2.334202e+02  -1.166920e+02
   2.440586e+02   4.628292e+01
   1.158249e+02   1.488575e+02
  -1.976976e+01   1.412494e+02
  -7.813569e+01   8.687149e+01
  -6.740374e+01   6.503801e+01
  -5.081714e+01   8.385981e+01
  -7.778400e+01   7.310798e+01
  -1.157503e+02  -5.855910e+00
  -1.234387e+02  -1.272797e+02
  -4.841750e+01  -2.004721e+02
   7.114390e+01  -1.652739e+02
   1.589186e+02  -3.663524e+01
   1.382399e+02   9.598636e+01
   3.616569e+01   1.433406e+02
  -5.024233e+01   9.309021e+01
  -5.764970e+01   8.813993e+00
  -1.482705e+01  -3.866367e+01
   2.991831e+00  -3.678444e+01
  -3.128874e+01  -1.643466e+01
  -6.883956e+01  -1.139266e+01
  -4.198921e+01  -2.771798e+01
   5.083493e+01  -4.351696e+01
   1.422068e+02  -2.691571e+01
   1.389578e+02   3.044173e+01
   2.897265e+01   7.999042e+01
  -9.922122e+01   8.082477e+01
  -1.301272e+02   2.644742e+01
  -4.709778e+01  -3.065451e+01
   5.137291e+01  -3.651198e+01
   7.036078e+01   9.928608e+00
   1.329779e+01   5.800248e+01
  -4.233313e+01   5.537178e+01
  -5.567284e+01   5.285947e+00
  -4.559599e+01  -3.883421e+01
  -4.268430e+01  -3.487052e+01
  -5.060948e+01   1.351719e+00
  -5.531837e+01   7.373084e+00
  -3.702941e+01  -5.091140e+01
   1.042585e+01  -1.332714e+02
   8.549635e+01  -1.437565e+02
   1.432889e+02  -5.214147e+01
   1.217863e+02   7.015111e+01
   1.880804e+01   1.134269e+02
  -7.119367e+01   6.257950e+01
  -5.316428e+01  -1.019790e+01
   5.299205e+01  -2.506879e+01
   1.290163e+02   2.255914e+01
   8.522872e+01   8.841274e+01
  -5.417761e+01   1.117983e+02
  -1.638895e+02   7.207167e+01
  -1.543143e+02  -1.109829e+01
  -4.544838e+01  -7.553319e+01
   4.723605e+01  -7.321856e+01
   4.429046e+01  -1.387798e+01
  -3.687910e+01   2.532321e+01
  -8.151252e+01  -1.194003e+01
  -3.905224e+01  -1.037248e+02
   6.996195e+01  -1.520325e+02
   1.459496e+02  -7.455026e+01
   1.228559e+02   8.072815e+01
   3.019754e+01   1.820717e+02
  -6.145630e+01   1.422026e+02
  -9.539853e+01   3.406910e+00
  -6.722001e+01  -1.018337e+02
  -5.547336e+00  -9.735245e+01
   4.221745e+01  -2.132693e+01
   5.069114e+01   2.551284e+01
   2.333431e+01   6.893508e+00
  -2.412368e+00  -2.068677e+01
   1.755213e+01   5.297888e+00
   6.195554e+01   6.866899e+01
   5.420551e+01   9.324363e+01
  -3.580093e+01   4.783591e+01
  -1.285706e+02  -2.073592e+01
  -1.250198e+02  -5.361895e+01
  -2.052022e+01  -4.683046e+01
   7.800724e+01  -2.978444e+01
   8.027628e+01  -1.592743e+01
   9.231020e+00   4.162707e+00
  -3.411767e+01   2.350084e+01
  -1.046747e+01   1.984145e+01
   2.181386e+01  -3.051741e+00
  -4.321051e+00  -9.145117e+00
  -6.562105e+01   1.694937e+00
  -8.478035e+01  -1.086598e+01
  -1.717375e+01  -6.836555e+01
   9.188279e+01  -1.161423e+02
   1.612468e+02  -7.742090e+01
   1.354204e+02   4.325092e+01
   3.985959e+01   1.432816e+02
  -5.491185e+01   1.436642e+02
  -9.529197e+01   6.505661e+01
  -7.392327e+01  -1.244816e+01
  -2.397145e+01  -2.852973e+01
   3.119859e+00  -4.432508e+00
  -7.736940e+00  -1.042351e+00
  -3.434407e+01  -3.731005e+01
  -3.008778e+01  -7.816005e+01
   1.922437e+01  -6.737132e+01
   7.507249e+01   8.797139e+00
   7.817630e+01   9.094046e+01
   1.243452e+01   1.011058e+02
  -7.343250e+01   2.766397e+01
  -9.847726e+01  -5.927534e+01
  -3.685929e+01  -8.995622e+01
   5.373498e+01  -5.459833e+01
   8.590198e+01   6.078749e-01
   4.169505e+01   3.758677e+01
  -2.134282e+01   4.764075e+01
  -2.499468e+01   2.860162e+01
   2.818187e+01  -1.142059e+00
   5.997563e+01  -1.161636e+01
   1.721843e+01   2.022690e+01
  -6.354245e+01   6.786692e+01
  -9.722180e+01   6.292161e+01
  -5.754083e+01  -3.574530e+00
   5.876968e+00  -7.384469e+01
   3.827461e+01  -7.454733e+01
   2.926214e+01  -8.560432e+00
   4.496902e+00   4.807988e+01
  -1.847374e+01   3.988039e+01
  -3.358447e+01  -1.352340e+01
  -2.841957e+01  -4.668715e+01
  -8.234570e-02  -2.969111e+01
   3.166889e+01   5.451304e+00
   3.908374e+01   1.637525e+01
   1.916061e+01  -3.819031e-01
  -2.707280e+00  -9.913684e+00
  -8.863469e+00   5.808246e+00
  -6.176621e+00   3.403768e+01
  -1.079214e+01   3.819286e+01
  -2.612705e+01   6.815438e+00
  -2.933592e+01  -3.756324e+01
  -4.116633e+00  -5.251124e+01
   3.845562e+01  -2.314931e+01
   5.434089e+01   2.865606e+01
   1.821070e+01   5.580101e+01
  -4.601884e+01   3.695970e+01
  -8.082175e+01  -3.572846e+00
  -4.653433e+01  -3.530946e+01
   2.268033e+01  -3.959035e+01
   5.515460e+01  -2.433908e+01
   1.710802e+01  -6.843920e+00
  -3.716367e+01  -8.778693e-01
  -3.439182e+01  -1.427304e+01
   2.755385e+01  -3.234597e+01
   8.334117e+01  -2.439988e+01
