
 $NMID
 id='ANONYMOUS ', fmtdat='(2E16.6)'
 volume=1.0
 tramp=1.0
 $END
  -4.352576e+03   3.062901e+02
  -2.635928e+03  -2.741638e+03
   6.135121e+02  -2.752030e+03
   1.980526e+03  -9.300760e+02
   9.245137e+02   6.455944e+02
  -6.902275e+02   5.558499e+02
  -9.332426e+02  -4.367525e+02
  -2.388620e+01  -1.052785e+03
   7.714654e+02  -7.828763e+02
   9.312583e+02   4.503608e+01
   4.685573e+02   8.145228e+02
  -2.099613e+02   8.656226e+02
  -6.422288e+02   1.035912e+02
  -4.229593e+02  -7.036735e+02
   2.384199e+02  -7.403651e+02
   5.889064e+02  -4.979360e+00
   2.750059e+02   6.395546e+02
  -3.034232e+02   5.878703e+02
  -5.304299e+02   7.330911e+01
  -3.539385e+02  -3.201051e+02
  -1.441635e+01  -3.985978e+02
   2.236512e+02  -2.404460e+02
   1.969638e+02  -9.987642e+00
  -1.173465e+02   8.514399e+01
  -3.943137e+02  -8.041416e+01
  -2.187648e+02  -4.071917e+02
   4.317074e+02  -4.375756e+02
   8.176460e+02   1.203907e+01
   4.540564e+02   4.987368e+02
  -3.548354e+02   5.012480e+02
  -7.306002e+02   2.342835e+01
  -3.699705e+02  -4.410697e+02
   2.335468e+02  -5.199744e+02
   5.293808e+02  -2.360532e+02
   4.222112e+02   1.951774e+02
   9.655642e+01   4.539426e+02
  -1.826227e+02   2.794442e+02
  -1.861298e+02  -2.074975e+02
   1.457063e+02  -4.545706e+02
   4.522977e+02  -1.043728e+01
   2.947198e+02   6.546927e+02
  -2.689630e+02   7.117991e+02
  -5.980575e+02   2.785047e+01
  -2.873949e+02  -5.405706e+02
   2.841720e+02  -3.377572e+02
   4.119351e+02   2.975484e+02
  -1.557204e+01   5.373081e+02
  -5.401398e+02   1.794266e+02
  -6.055226e+02  -3.420788e+02
  -2.005068e+02  -5.440534e+02
   3.500438e+02  -3.609405e+02
   6.078739e+02   3.019367e+01
   3.780583e+02   3.459448e+02
  -1.356128e+02   3.646891e+02
  -4.238746e+02   7.421549e+01
  -2.407593e+02  -1.793839e+02
   1.146657e+02  -1.141087e+02
   1.479701e+02   1.487354e+02
  -1.590172e+02   1.964681e+02
  -3.535920e+02  -4.040378e+01
  -1.595280e+02  -2.778798e+02
   1.808179e+02  -2.665060e+02
   3.073787e+02  -9.158099e+01
   1.835995e+02   5.398936e+01
  -4.217533e+00   1.986374e+02
  -1.742842e+02   3.271916e+02
  -3.036624e+02   2.372771e+02
  -2.938902e+02  -1.160670e+02
  -1.112041e+02  -4.104601e+02
   9.355870e+01  -3.660915e+02
   1.220669e+02  -9.984892e+01
   2.746446e+01   2.249985e+01
   2.141748e+01  -9.106775e+01
   1.643014e+02  -1.522824e+02
   2.708938e+02   2.011653e+01
   1.793947e+02   2.493002e+02
  -4.846713e+01   2.566609e+02
  -2.218762e+02   3.226730e+01
  -2.099451e+02  -2.208638e+02
  -1.080489e+01  -2.824700e+02
   2.462530e+02  -1.306658e+02
   3.547094e+02   1.357830e+02
   1.937791e+02   3.187032e+02
  -7.757640e+01   2.982234e+02
  -2.087032e+02   1.322268e+02
  -1.416246e+02   1.276927e+01
  -9.277288e+01   3.477814e+01
  -2.156286e+02   7.582832e+01
  -3.843120e+02  -2.364667e+01
  -3.350762e+02  -2.401634e+02
  -2.451805e+01  -4.164964e+02
   3.158081e+02  -4.181769e+02
   4.533825e+02  -2.231240e+02
   3.211365e+02   7.265808e+01
   6.620401e+01   2.810184e+02
  -1.186228e+02   2.447099e+02
  -7.753092e+01   1.501978e+01
   1.006954e+02  -1.196784e+02
   1.907793e+02  -9.476953e+00
   6.060348e+01   1.931843e+02
  -1.560255e+02   1.798358e+02
  -1.839184e+02  -5.216807e+01
   7.321695e+00  -1.954767e+02
   1.908948e+02  -4.583728e+01
   1.724469e+02   2.299593e+02
  -1.421644e+01   3.316070e+02
  -2.133505e+02   1.916824e+02
  -3.094287e+02  -4.640390e+01
  -2.803380e+02  -2.100883e+02
  -1.133839e+02  -2.411919e+02
   8.999519e+01  -1.628095e+02
   1.749654e+02  -4.241200e+01
   6.771499e+01   2.521582e+01
  -6.305376e+01  -3.064480e+01
  -3.576003e+01  -1.140546e+02
   1.145987e+02  -1.027216e+02
   1.710212e+02   4.550695e+00
   5.539259e+01   7.241760e+01
  -8.385771e+01   2.690777e+01
  -6.489806e+01  -6.339965e+01
   1.032088e+02  -9.615521e+01
   2.619217e+02  -2.521522e+01
   2.603173e+02   1.100046e+02
   7.929234e+01   2.392945e+02
  -1.529979e+02   2.633767e+02
  -2.640791e+02   1.400177e+02
  -1.684349e+02  -4.043683e+01
   1.521885e+01  -1.077572e+02
   9.057071e+01  -1.242234e+01
  -2.255555e+01   1.030341e+02
  -1.834265e+02   7.224610e+01
  -2.112488e+02  -8.175091e+01
  -7.970721e+01  -1.955082e+02
   7.952615e+01  -1.620802e+02
   1.350514e+02  -4.109465e+01
   7.039550e+01   3.322461e+01
  -2.234740e+01   7.670789e+00
  -3.767775e+01  -6.971527e+01
   6.633195e+01  -1.060044e+02
   1.833460e+02  -3.863582e+01
   1.861151e+02   1.063686e+02
   2.858185e+01   2.063321e+02
  -1.509159e+02   1.635649e+02
  -1.864502e+02   1.344033e+01
  -6.848212e+01  -1.101375e+02
   5.768567e+01  -1.121203e+02
   8.025984e+01  -3.524433e+01
   2.193223e+01   2.292150e+01
  -1.480404e+01   1.777141e+01
   1.025042e+01  -6.127205e+00
   6.654883e+01   6.869648e+00
   8.838019e+01   7.383932e+01
   2.450637e+01   1.471418e+02
  -1.120273e+02   1.507045e+02
  -2.273642e+02   4.029602e+01
  -2.045131e+02  -1.279082e+02
  -5.120742e+01  -2.216665e+02
   9.409259e+01  -1.672597e+02
   1.281395e+02  -3.206618e+01
   6.746520e+01   5.009258e+01
   2.894747e+01   3.046036e+01
   5.054065e+01  -1.518847e+01
   7.343179e+01  -9.326825e+00
   3.958038e+01   4.423960e+01
  -3.447708e+01   8.342224e+01
  -9.251479e+01   5.189809e+01
  -8.143510e+01  -2.960414e+01
   4.560534e+00  -1.061085e+02
   1.271874e+02  -9.449692e+01
   1.880764e+02   2.965624e+01
   1.093133e+02   1.801886e+02
  -8.588175e+01   2.249695e+02
  -2.442913e+02   1.073887e+02
  -2.473156e+02  -5.939012e+01
  -1.112939e+02  -1.596801e+02
   2.861880e+01  -1.442434e+02
   8.250726e+01  -8.726164e+01
   7.277035e+01  -6.713558e+01
   5.791951e+01  -8.639779e+01
   8.553885e+01  -7.246456e+01
   1.214846e+02   1.510858e+01
   1.218061e+02   1.419198e+02
   3.826866e+01   2.093908e+02
  -8.225796e+01   1.654776e+02
  -1.648171e+02   3.037389e+01
  -1.349293e+02  -1.039619e+02
  -2.961456e+01  -1.475500e+02
   5.505734e+01  -9.177380e+01
   5.717317e+01  -4.912289e+00
   1.101139e+01   3.930619e+01
  -4.822598e+00   3.524317e+01
   3.349804e+01   1.749594e+01
   7.134796e+01   1.698360e+01
   3.968655e+01   3.262560e+01
  -5.648136e+01   3.979223e+01
  -1.426002e+02   1.621013e+01
  -1.343096e+02  -4.078601e+01
  -2.257642e+01  -8.156004e+01
   1.060057e+02  -7.597335e+01
   1.335981e+02  -1.786262e+01
   4.468357e+01   3.476534e+01
  -5.493971e+01   3.473643e+01
  -7.099886e+01  -1.631600e+01
  -9.354863e+00  -6.224785e+01
   4.808477e+01  -5.494407e+01
   5.845540e+01  -1.675500e+00
   4.262663e+01   4.424310e+01
   3.842909e+01   3.690930e+01
   5.067067e+01  -2.732922e+00
   6.000676e+01  -7.778215e+00
   3.842553e+01   5.715512e+01
  -1.505879e+01   1.409915e+02
  -9.649662e+01   1.445389e+02
  -1.503456e+02   4.100155e+01
  -1.235236e+02  -8.026944e+01
  -1.532686e+01  -1.181566e+02
   7.725050e+01  -6.373854e+01
   5.524672e+01   1.065791e+01
  -5.348204e+01   2.509208e+01
  -1.314726e+02  -2.885087e+01
  -8.187850e+01  -9.330603e+01
   6.255879e+01  -1.117705e+02
   1.715261e+02  -6.500311e+01
   1.571998e+02   1.828442e+01
   4.224557e+01   7.978181e+01
  -5.144336e+01   7.244892e+01
  -4.469063e+01   1.170877e+01
   4.069176e+01  -2.805228e+01
   8.580279e+01   1.569059e+01
   3.847261e+01   1.099442e+02
  -7.581786e+01   1.534193e+02
  -1.503722e+02   7.063329e+01
  -1.224556e+02  -8.594760e+01
  -2.522259e+01  -1.855692e+02
   6.722972e+01  -1.412145e+02
   9.825845e+01   5.734057e-01
   6.505393e+01   1.060150e+02
   3.237152e+00   9.854732e+01
  -4.283939e+01   2.045025e+01
  -5.154544e+01  -2.656051e+01
  -2.403035e+01  -5.729240e+00
   9.722151e-02   2.070761e+01
  -1.883946e+01  -1.077730e+01
  -5.909726e+01  -7.865162e+01
  -4.825777e+01  -1.003863e+02
   4.267580e+01  -4.476377e+01
   1.326295e+02   3.047173e+01
   1.272010e+02   6.064381e+01
   1.798975e+01   4.768081e+01
  -8.173211e+01   2.602856e+01
  -8.103553e+01   1.115616e+01
  -7.823517e+00  -5.710367e+00
   3.564879e+01  -2.252272e+01
   9.611199e+00  -1.908425e+01
  -2.125307e+01   3.267964e+00
   6.580492e+00   9.238254e+00
   7.049445e+01  -5.119320e-01
   8.768434e+01   1.593444e+01
   1.304415e+01   7.413433e+01
  -1.038482e+02   1.160984e+02
  -1.719477e+02   7.071997e+01
  -1.380614e+02  -5.348936e+01
  -3.484364e+01  -1.521129e+02
   6.499169e+01  -1.477635e+02
   1.036491e+02  -6.232477e+01
   7.671345e+01   1.648119e+01
   2.437183e+01   3.215713e+01
  -3.165012e+00   6.891656e+00
   8.308358e+00   3.628702e+00
   3.427251e+01   4.090013e+01
   2.736483e+01   8.177985e+01
  -2.287291e+01   6.867477e+01
  -7.775880e+01  -1.172186e+01
  -7.888201e+01  -9.534920e+01
  -1.104760e+01  -1.039599e+02
   7.659336e+01  -2.754535e+01
   1.010477e+02   6.416663e+01
   3.430288e+01   9.348386e+01
  -5.975857e+01   5.409192e+01
  -9.049351e+01  -6.033970e+00
  -3.770776e+01  -4.357601e+01
   2.760863e+01  -5.010153e+01
   2.793991e+01  -2.790429e+01
  -2.954477e+01   1.062725e+00
  -6.092889e+01   9.890486e+00
  -1.364037e+01  -2.203590e+01
   7.056462e+01  -6.601794e+01
   1.029240e+02  -5.779198e+01
   5.756219e+01   8.311249e+00
  -9.743763e+00   7.931735e+01
  -4.355727e+01   7.617813e+01
  -3.295661e+01   7.252336e+00
  -4.937693e+00  -5.153701e+01
   2.148520e+01  -4.060591e+01
   3.457239e+01   1.570596e+01
   2.673616e+01   4.803645e+01
  -2.836570e+00   2.857493e+01
  -3.140912e+01  -8.260968e+00
  -3.619757e+01  -1.853930e+01
  -1.765749e+01   1.531449e+00
   1.787830e+00   1.305090e+01
   6.902876e+00  -4.873059e+00
   5.714534e+00  -3.577119e+01
   1.372490e+01  -4.171644e+01
   2.989811e+01  -6.985228e+00
   3.088564e+01   4.095424e+01
   2.107648e+00   5.595534e+01
  -4.015297e+01   2.269902e+01
  -5.439484e+01  -3.191798e+01
  -1.648156e+01  -5.641509e+01
   4.967027e+01  -3.432320e+01
   8.305108e+01   8.380743e+00
   4.704435e+01   3.804390e+01
  -2.623259e+01   4.077473e+01
  -6.089431e+01   2.548925e+01
  -2.215130e+01   5.632344e+00
   3.638874e+01  -8.422319e-01
   3.654594e+01   1.308825e+01
  -2.717599e+01   3.211410e+01
  -8.337703e+01   2.275295e+01
