
 $NMID
 id='ANONYMOUS ', fmtdat='(2E16.6)'
 volume=1.0
 tramp=1.0
 $END
   4.390752e+03  -2.050356e+02
   2.711917e+03   2.852473e+03
  -6.444573e+02   2.824587e+03
  -2.053268e+03   8.439449e+02
  -9.127612e+02  -7.457298e+02
   7.306281e+02  -6.293700e+02
   9.766781e+02   4.232483e+02
   2.185882e+01   1.104190e+03
  -8.362918e+02   8.322785e+02
  -9.725831e+02  -4.909506e+01
  -4.660248e+02  -8.837732e+02
   2.562539e+02  -9.201278e+02
   6.909520e+02  -9.819062e+01
   4.233512e+02   7.604751e+02
  -2.644642e+02   7.759441e+02
  -6.152086e+02  -1.238514e+01
  -2.752836e+02  -6.873180e+02
   3.252848e+02  -6.224239e+02
   5.603574e+02  -7.301876e+01
   3.630764e+02   3.502385e+02
   8.841176e+00   4.110708e+02
  -2.330988e+02   2.481415e+02
  -2.127331e+02   9.462913e+00
   1.219849e+02  -8.562143e+01
   4.185315e+02   8.859561e+01
   2.366906e+02   4.247129e+02
  -4.500030e+02   4.558966e+02
  -8.632351e+02  -2.157877e+01
  -4.684742e+02  -5.291964e+02
   3.798952e+02  -5.136101e+02
   7.594861e+02  -3.573442e+00
   3.672636e+02   4.704784e+02
  -2.598402e+02   5.318574e+02
  -5.560565e+02   2.285988e+02
  -4.296979e+02  -2.107596e+02
  -8.768829e+01  -4.745835e+02
   1.963893e+02  -2.981603e+02
   1.820480e+02   2.265394e+02
  -1.663401e+02   4.771414e+02
  -4.770271e+02  -2.611842e-01
  -2.947895e+02  -6.875512e+02
   2.884059e+02  -7.359860e+02
   6.186134e+02  -2.386390e+01
   2.734562e+02   5.523673e+02
  -2.964695e+02   3.170755e+02
  -4.091339e+02  -3.326638e+02
   5.117634e+01  -5.483965e+02
   5.629592e+02  -1.424584e+02
   5.994364e+02   3.883274e+02
   1.813144e+02   5.710531e+02
  -3.741373e+02   3.649451e+02
  -6.359497e+02  -4.581264e+01
  -3.921024e+02  -3.865160e+02
   1.503158e+02  -3.903706e+02
   4.532513e+02  -7.861116e+01
   2.595483e+02   1.898132e+02
  -1.102013e+02   1.153403e+02
  -1.428788e+02  -1.561228e+02
   1.748554e+02  -1.963789e+02
   3.647085e+02   7.340938e+01
   1.471999e+02   3.042762e+02
  -2.044134e+02   2.617087e+02
  -3.214835e+02   7.596768e+01
  -1.784425e+02  -6.435185e+01
   2.028626e+01  -1.967281e+02
   1.895274e+02  -3.285583e+02
   3.177813e+02  -2.368663e+02
   3.014676e+02   1.252000e+02
   9.802932e+01   4.303946e+02
  -1.129028e+02   3.852628e+02
  -1.283757e+02   1.014712e+02
  -2.352357e+01  -2.415803e+01
  -2.685546e+01   8.584197e+01
  -1.799866e+02   1.473491e+02
  -2.784463e+02  -3.294075e+01
  -1.719550e+02  -2.606035e+02
   5.955274e+01  -2.611171e+02
   2.305953e+02  -2.706507e+01
   2.124531e+02   2.310807e+02
   6.968803e+00   2.935970e+02
  -2.528618e+02   1.299586e+02
  -3.655153e+02  -1.471439e+02
  -1.967382e+02  -3.348095e+02
   9.011693e+01  -3.029575e+02
   2.209523e+02  -1.218044e+02
   1.466421e+02  -2.103638e+00
   8.690283e+01  -3.404538e+01
   2.212237e+02  -7.472087e+01
   3.948874e+02   3.921018e+01
   3.342969e+02   2.635466e+02
   1.206986e+01   4.287328e+02
  -3.272589e+02   4.129472e+02
  -4.610507e+02   2.222377e+02
  -3.237401e+02  -7.486942e+01
  -6.305519e+01  -2.858707e+02
   1.194736e+02  -2.485293e+02
   7.687519e+01  -2.505250e+01
  -1.045585e+02   1.127444e+02
  -1.950799e+02   4.717101e+00
  -5.677869e+01  -1.980826e+02
   1.605685e+02  -1.821269e+02
   1.833217e+02   5.279740e+01
  -1.070559e+01   1.942648e+02
  -1.850795e+02   4.077599e+01
  -1.564156e+02  -2.332664e+02
   2.831574e+01  -3.325879e+02
   2.069611e+02  -1.861682e+02
   3.022005e+02   4.915198e+01
   2.775705e+02   2.139037e+02
   1.142010e+02   2.433916e+02
  -9.412790e+01   1.636555e+02
  -1.776780e+02   4.084551e+01
  -6.948848e+01  -2.625469e+01
   6.450474e+01   3.326699e+01
   3.708194e+01   1.168475e+02
  -1.141969e+02   1.050808e+02
  -1.771371e+02  -4.884934e+00
  -5.784471e+01  -7.150861e+01
   8.068234e+01  -2.357594e+01
   5.976588e+01   6.375987e+01
  -1.111557e+02   9.153413e+01
  -2.693324e+02   2.010969e+01
  -2.577205e+02  -1.169056e+02
  -7.267656e+01  -2.417548e+02
   1.628824e+02  -2.615797e+02
   2.685140e+02  -1.391943e+02
   1.704380e+02   4.066309e+01
  -1.784881e+01   1.093512e+02
  -9.094116e+01   9.913797e+00
   2.706588e+01  -1.054386e+02
   1.896238e+02  -7.024495e+01
   2.144617e+02   9.205402e+01
   7.730689e+01   2.041660e+02
  -8.165393e+01   1.655304e+02
  -1.410646e+02   4.478726e+01
  -7.892238e+01  -3.318890e+01
   1.751599e+01  -8.878883e+00
   3.477643e+01   6.681918e+01
  -6.613085e+01   1.006277e+02
  -1.799454e+02   3.623040e+01
  -1.819334e+02  -1.068690e+02
  -2.547438e+01  -2.071532e+02
   1.553040e+02  -1.629286e+02
   1.890825e+02  -1.035823e+01
   6.847879e+01   1.153637e+02
  -6.014293e+01   1.154058e+02
  -8.283620e+01   3.589049e+01
  -2.399971e+01  -2.370145e+01
   1.466492e+01  -1.949677e+01
  -1.129002e+01   3.669055e+00
  -6.484445e+01  -8.729047e+00
  -8.436123e+01  -7.320168e+01
  -2.189895e+01  -1.448006e+02
   1.114336e+02  -1.499236e+02
   2.233839e+02  -4.366058e+01
   2.018914e+02   1.308803e+02
   4.839829e+01   2.270048e+02
  -9.835570e+01   1.681793e+02
  -1.309135e+02   2.942886e+01
  -6.975051e+01  -5.309566e+01
  -2.897851e+01  -3.420965e+01
  -5.089928e+01   1.399972e+01
  -7.285651e+01   8.787607e+00
  -3.671848e+01  -4.276808e+01
   3.653610e+01  -7.914628e+01
   9.201633e+01  -4.818456e+01
   7.547078e+01   2.911065e+01
  -1.239216e+01   1.004202e+02
  -1.323746e+02   8.561287e+01
  -1.879629e+02  -3.730947e+01
  -1.014128e+02  -1.829760e+02
   9.635546e+01  -2.229815e+02
   2.560202e+02  -1.064182e+02
   2.543351e+02   6.884828e+01
   1.128300e+02   1.657885e+02
  -3.214592e+01   1.484950e+02
  -9.006309e+01   8.815468e+01
  -7.676127e+01   6.735484e+01
  -6.480281e+01   8.809453e+01
  -8.978583e+01   7.192428e+01
  -1.219338e+02  -2.048836e+01
  -1.159091e+02  -1.488292e+02
  -3.410414e+01  -2.152831e+02
   8.767207e+01  -1.674115e+02
   1.695477e+02  -2.635786e+01
   1.381167e+02   1.112658e+02
   3.102180e+01   1.528650e+02
  -5.576333e+01   9.340472e+01
  -5.674486e+01   5.207146e+00
  -9.217950e+00  -3.802975e+01
   5.571868e+00  -3.412744e+01
  -3.677224e+01  -1.942965e+01
  -7.607455e+01  -2.365242e+01
  -4.288530e+01  -3.388567e+01
   5.768163e+01  -3.545942e+01
   1.477243e+02  -1.102018e+01
   1.360719e+02   3.931506e+01
   2.021148e+01   7.787540e+01
  -1.092292e+02   7.237417e+01
  -1.354856e+02   1.490725e+01
  -4.409846e+01  -3.464369e+01
   5.646763e+01  -3.214076e+01
   7.013369e+01   1.885521e+01
   6.550186e+00   6.271463e+01
  -5.092381e+01   5.187943e+01
  -5.636308e+01  -1.660297e+00
  -3.830849e+01  -4.624779e+01
  -3.951242e+01  -3.691153e+01
  -5.615893e+01   1.747874e+00
  -6.374000e+01   6.988251e+00
  -3.556450e+01  -5.935958e+01
   2.257135e+01  -1.393441e+02
   1.034301e+02  -1.431521e+02
   1.500141e+02  -3.896825e+01
   1.218775e+02   8.182451e+01
   1.240421e+01   1.198824e+02
  -7.659718e+01   6.348546e+01
  -5.422059e+01  -1.281568e+01
   5.908476e+01  -2.070153e+01
   1.347905e+02   4.004813e+01
   7.985277e+01   1.008376e+02
  -7.171723e+01   1.096683e+02
  -1.830294e+02   5.816023e+01
  -1.621350e+02  -2.242956e+01
  -4.163473e+01  -8.307569e+01
   5.560929e+01  -7.527248e+01
   4.727596e+01  -1.336730e+01
  -3.868970e+01   2.702347e+01
  -8.482593e+01  -1.744576e+01
  -3.167872e+01  -1.136358e+02
   8.679919e+01  -1.539755e+02
   1.562819e+02  -6.420969e+01
   1.207756e+02   9.472943e+01
   1.859892e+01   1.926919e+02
  -7.240842e+01   1.433165e+02
  -9.679594e+01  -1.901678e+00
  -6.145359e+01  -1.083519e+02
  -1.697869e+00  -9.752291e+01
   3.971434e+01  -1.834757e+01
   5.176514e+01   2.830113e+01
   2.654963e+01   6.422358e+00
   1.853434e+00  -2.138266e+01
   1.782894e+01   1.336509e+01
   5.616904e+01   8.247271e+01
   4.871413e+01   1.020568e+02
  -3.933083e+01   4.291206e+01
  -1.320565e+02  -3.552589e+01
  -1.277799e+02  -6.491792e+01
  -1.865165e+01  -4.604479e+01
   8.349681e+01  -2.303309e+01
   8.235870e+01  -1.116680e+01
   8.148551e+00   4.443845e+00
  -3.573927e+01   2.038821e+01
  -7.868944e+00   1.886823e+01
   2.286180e+01  -1.669637e+00
  -6.845425e+00  -9.246772e+00
  -7.242898e+01  -2.117703e+00
  -8.719596e+01  -1.889293e+01
  -8.446599e+00  -7.558548e+01
   1.110965e+02  -1.120931e+02
   1.779714e+02  -6.322224e+01
   1.386788e+02   5.985455e+01
   3.030646e+01   1.536508e+02
  -7.052246e+01   1.446049e+02
  -1.069210e+02   5.747438e+01
  -7.532147e+01  -1.908149e+01
  -2.347926e+01  -3.311309e+01
   2.529347e+00  -6.183953e+00
  -8.650680e+00  -3.255718e+00
  -3.300722e+01  -4.347875e+01
  -2.408169e+01  -8.517844e+01
   2.573380e+01  -6.872311e+01
   7.871805e+01   1.661854e+01
   7.749070e+01   1.024018e+02
   7.295909e+00   1.067715e+02
  -7.858403e+01   2.346659e+01
  -1.010549e+02  -6.932346e+01
  -3.214935e+01  -9.485157e+01
   6.281368e+01  -5.152701e+01
   9.200247e+01   9.935674e+00
   3.454295e+01   4.632640e+01
  -3.161689e+01   4.872849e+01
  -2.844497e+01   2.489333e+01
   3.374764e+01  -6.471778e-01
   6.516101e+01  -9.159612e+00
   1.357784e+01   2.261781e+01
  -7.477451e+01   6.623684e+01
  -1.052756e+02   5.820814e+01
  -5.641586e+01  -9.601603e+00
   1.441019e+01  -7.964605e+01
   4.611894e+01  -7.616156e+01
   3.187548e+01  -4.785933e+00
   1.961256e+00   5.366383e+01
  -2.380078e+01   4.014931e+01
  -3.431961e+01  -1.737378e+01
  -2.548243e+01  -4.920557e+01
   2.150866e+00  -2.777034e+01
   3.100896e+01   9.796746e+00
   3.533222e+01   2.031904e+01
   1.772077e+01  -8.983111e-01
  -1.744739e+00  -1.386696e+01
  -7.373217e+00   3.807720e+00
  -7.293608e+00   3.681475e+01
  -1.658194e+01   4.304516e+01
  -3.123879e+01   5.901482e+00
  -2.828010e+01  -4.425286e+01
   1.627351e+00  -5.829893e+01
   4.196003e+01  -1.973671e+01
   5.386123e+01   3.668631e+01
   1.376451e+01   5.850208e+01
  -5.159602e+01   3.055768e+01
  -8.266043e+01  -1.390246e+01
  -4.581162e+01  -4.051988e+01
   2.874170e+01  -3.882883e+01
   6.249520e+01  -2.185969e+01
   2.285589e+01  -5.405151e+00
  -3.638025e+01  -2.102330e+00
  -3.570716e+01  -1.484482e+01
   2.957236e+01  -3.021506e+01
   8.549322e+01  -1.933705e+01
