
 $NMID
 id='ANONYMOUS ', fmtdat='(2E16.6)'
 volume=1.0
 tramp=1.0
 $END
  -4.392496e+03  -5.702977e+01
  -2.653276e+03  -2.792836e+03
   5.445180e+02  -2.757146e+03
   1.939304e+03  -9.005289e+02
   9.152233e+02   5.556176e+02
  -6.444312e+02   4.897917e+02
  -8.746604e+02  -4.167088e+02
  -1.513649e+00  -1.018675e+03
   7.881810e+02  -7.929158e+02
   9.234308e+02   3.428188e+01
   4.508175e+02   8.344465e+02
  -2.230098e+02   8.814796e+02
  -6.362040e+02   1.197937e+02
  -3.828399e+02  -7.263956e+02
   2.553602e+02  -7.521072e+02
   5.971284e+02  -3.897481e+00
   2.774409e+02   6.799892e+02
  -2.933736e+02   6.503529e+02
  -5.557789e+02   1.392634e+02
  -3.812937e+02  -3.151110e+02
  -3.043858e+01  -4.186126e+02
   2.167393e+02  -2.638869e+02
   1.880273e+02  -9.340001e+00
  -1.485199e+02   9.767322e+01
  -4.406184e+02  -1.094287e+02
  -2.089628e+02  -4.540385e+02
   4.920087e+02  -4.542618e+02
   8.831235e+02   3.797368e+01
   4.458336e+02   5.348808e+02
  -4.010596e+02   4.910024e+02
  -7.524562e+02  -2.762543e+01
  -3.380847e+02  -4.902847e+02
   2.996654e+02  -5.220651e+02
   5.746585e+02  -1.988561e+02
   4.191433e+02   2.321420e+02
   6.679043e+01   4.667184e+02
  -1.958851e+02   2.595023e+02
  -1.501291e+02  -2.522754e+02
   1.994267e+02  -4.545585e+02
   4.832979e+02   4.725560e+01
   2.592509e+02   7.213511e+02
  -3.155192e+02   7.227502e+02
  -6.013090e+02  -5.086469e+00
  -2.249841e+02  -5.571978e+02
   3.163187e+02  -2.909022e+02
   3.961939e+02   3.497894e+02
  -8.446685e+01   5.480141e+02
  -5.875671e+02   1.239236e+02
  -6.181957e+02  -4.108781e+02
  -1.653220e+02  -5.832822e+02
   4.009141e+02  -3.559777e+02
   6.477362e+02   5.996254e+01
   3.815638e+02   3.732451e+02
  -1.513262e+02   3.619632e+02
  -4.379540e+02   5.896532e+01
  -2.305797e+02  -1.766046e+02
   1.156214e+02  -8.543633e+01
   1.255103e+02   1.635132e+02
  -1.823248e+02   1.790532e+02
  -3.568623e+02  -8.733103e+01
  -1.348919e+02  -3.048479e+02
   2.134121e+02  -2.620831e+02
   3.286546e+02  -8.030346e+01
   1.906397e+02   6.994573e+01
  -2.224918e+01   2.353318e+02
  -2.163292e+02   3.601215e+02
  -3.483924e+02   2.509291e+02
  -3.099567e+02  -1.409624e+02
  -8.757466e+01  -4.398370e+02
   1.147160e+02  -3.803537e+02
   1.100856e+02  -1.060331e+02
   1.457685e+01   2.979213e+00
   4.661381e+01  -1.050847e+02
   2.132202e+02  -1.436918e+02
   2.983608e+02   6.018391e+01
   1.694438e+02   2.902862e+02
  -7.765330e+01   2.702667e+02
  -2.440948e+02   1.694901e+01
  -2.184164e+02  -2.465062e+02
   6.573652e-01  -3.018011e+02
   2.657657e+02  -1.286415e+02
   3.724274e+02   1.521610e+02
   2.059091e+02   3.427578e+02
  -8.586630e+01   3.108808e+02
  -2.213320e+02   1.304749e+02
  -1.489254e+02   1.486563e+01
  -9.786582e+01   4.592903e+01
  -2.421690e+02   8.066273e+01
  -4.198465e+02  -4.959763e+01
  -3.560011e+02  -2.874976e+02
  -1.496135e+01  -4.687946e+02
   3.491956e+02  -4.462049e+02
   4.896698e+02  -2.315663e+02
   3.436203e+02   8.429815e+01
   6.372462e+01   2.994359e+02
  -1.253019e+02   2.517349e+02
  -6.918006e+01   2.322163e+01
   1.118193e+02  -1.073585e+02
   1.998696e+02   4.477487e+00
   4.954214e+01   1.989365e+02
  -1.634620e+02   1.781944e+02
  -1.831718e+02  -5.501383e+01
   1.601318e+01  -1.906454e+02
   1.906862e+02  -3.619438e+01
   1.655236e+02   2.371398e+02
  -1.964151e+01   3.493584e+02
  -2.096069e+02   1.990875e+02
  -3.235723e+02  -4.576808e+01
  -2.969759e+02  -2.302070e+02
  -1.142576e+02  -2.634749e+02
   1.052209e+02  -1.718928e+02
   1.795087e+02  -3.450950e+01
   6.488617e+01   2.560352e+01
  -6.798867e+01  -4.094420e+01
  -3.412063e+01  -1.276507e+02
   1.199790e+02  -1.087762e+02
   1.842103e+02   4.522927e+00
   6.008613e+01   7.184651e+01
  -8.383587e+01   1.959301e+01
  -5.961781e+01  -7.439354e+01
   1.264123e+02  -9.900500e+01
   2.924364e+02  -1.538384e+01
   2.706312e+02   1.361794e+02
   6.730187e+01   2.584288e+02
  -1.819303e+02   2.702717e+02
  -2.836538e+02   1.385434e+02
  -1.696416e+02  -4.827433e+01
   2.201633e+01  -1.099377e+02
   9.003719e+01  -6.644271e+00
  -3.252119e+01   1.058117e+02
  -1.982393e+02   6.375255e+01
  -2.197591e+02  -9.935848e+01
  -7.406373e+01  -2.115575e+02
   9.150321e+01  -1.664665e+02
   1.443411e+02  -4.089613e+01
   7.323813e+01   3.397356e+01
  -2.587768e+01   3.546674e+00
  -3.685428e+01  -7.883237e+01
   7.632568e+01  -1.123327e+02
   1.946098e+02  -3.897460e+01
   1.932326e+02   1.131195e+02
   2.891630e+01   2.189203e+02
  -1.574610e+02   1.739411e+02
  -1.921609e+02   1.654872e+01
  -6.947548e+01  -1.129820e+02
   6.182510e+01  -1.146452e+02
   8.160396e+01  -3.377520e+01
   1.893661e+01   2.527715e+01
  -2.126977e+01   1.924904e+01
   8.862930e+00  -8.191999e+00
   7.142958e+01   5.046750e+00
   9.516444e+01   7.765078e+01
   2.487225e+01   1.553544e+02
  -1.192331e+02   1.554481e+02
  -2.306991e+02   3.928040e+01
  -2.082299e+02  -1.399751e+02
  -5.052234e+01  -2.336137e+02
   1.018932e+02  -1.713488e+02
   1.341028e+02  -3.030787e+01
   7.384490e+01   5.103586e+01
   3.233071e+01   3.383451e+01
   5.330483e+01  -1.452621e+01
   7.432946e+01  -1.069738e+01
   3.949644e+01   4.509813e+01
  -3.748450e+01   8.693926e+01
  -9.848888e+01   5.929481e+01
  -8.422000e+01  -2.884121e+01
   9.008855e+00  -1.101870e+02
   1.403929e+02  -9.277511e+01
   2.027671e+02   3.958579e+01
   1.088022e+02   1.984264e+02
  -1.025790e+02   2.355287e+02
  -2.713002e+02   1.148442e+02
  -2.695575e+02  -7.455268e+01
  -1.174913e+02  -1.744499e+02
   3.548077e+01  -1.545794e+02
   9.202078e+01  -8.876229e+01
   7.258205e+01  -6.628467e+01
   6.089939e+01  -9.279288e+01
   8.926149e+01  -8.099091e+01
   1.293449e+02   1.528525e+01
   1.247481e+02   1.537263e+02
   3.923079e+01   2.273351e+02
  -8.892258e+01   1.781195e+02
  -1.754009e+02   2.739987e+01
  -1.450613e+02  -1.156532e+02
  -3.157510e+01  -1.593911e+02
   6.163013e+01  -9.518282e+01
   6.253362e+01  -1.572067e+00
   9.935295e+00   4.414363e+01
  -9.334684e+00   3.979675e+01
   3.441837e+01   2.023964e+01
   7.758811e+01   2.358532e+01
   4.385606e+01   3.580096e+01
  -6.297522e+01   4.217409e+01
  -1.594151e+02   1.479868e+01
  -1.474536e+02  -4.365919e+01
  -1.951749e+01  -8.922437e+01
   1.192195e+02  -8.110337e+01
   1.439697e+02  -1.909357e+01
   4.814876e+01   3.657277e+01
  -5.858561e+01   3.722791e+01
  -7.434132e+01  -1.567798e+01
  -9.130711e+00  -6.370715e+01
   5.012575e+01  -5.526653e+01
   5.755185e+01  -1.241658e-01
   4.289678e+01   4.445892e+01
   4.455129e+01   3.592557e+01
   6.261099e+01  -2.640602e+00
   6.888762e+01  -5.355228e+00
   4.105029e+01   6.532320e+01
  -2.389518e+01   1.507914e+02
  -1.119313e+02   1.538363e+02
  -1.668987e+02   4.469853e+01
  -1.326598e+02  -8.524184e+01
  -1.119629e+01  -1.264483e+02
   8.026315e+01  -6.719186e+01
   5.771351e+01   1.221815e+01
  -6.165901e+01   2.434279e+01
  -1.426759e+02  -3.770673e+01
  -8.293583e+01  -1.058340e+02
   7.617928e+01  -1.166157e+02
   1.916795e+02  -5.824870e+01
   1.634186e+02   2.651999e+01
   3.996792e+01   8.602801e+01
  -5.857861e+01   7.532382e+01
  -4.785098e+01   1.193801e+01
   3.774213e+01  -2.647792e+01
   8.746039e+01   1.731226e+01
   3.442755e+01   1.161516e+02
  -8.529263e+01   1.600798e+02
  -1.613415e+02   7.026490e+01
  -1.261091e+02  -9.573221e+01
  -1.931025e+01  -1.989120e+02
   7.601688e+01  -1.490565e+02
   1.009735e+02   3.067419e+00
   6.458906e+01   1.139332e+02
  -8.850829e-01   1.003167e+02
  -4.383824e+01   1.814939e+01
  -5.293118e+01  -2.778968e+01
  -2.577162e+01  -5.023322e+00
  -3.829106e+00   2.159324e+01
  -2.397839e+01  -1.706068e+01
  -6.198494e+01  -9.001296e+01
  -4.773423e+01  -1.073268e+02
   4.512841e+01  -4.611680e+01
   1.404288e+02   3.579993e+01
   1.322442e+02   6.677937e+01
   1.810425e+01   4.892065e+01
  -8.586629e+01   2.595760e+01
  -8.536479e+01   1.236914e+01
  -1.070644e+01  -4.551651e+00
   3.647727e+01  -2.189012e+01
   1.182268e+01  -1.861013e+01
  -2.274472e+01   1.356126e+00
   5.327732e+00   7.517609e+00
   7.551755e+01  -4.130991e-01
   9.330048e+01   1.967679e+01
   1.325283e+01   7.973910e+01
  -1.132003e+02   1.191156e+02
  -1.863299e+02   6.628045e+01
  -1.459751e+02  -6.263956e+01
  -3.002794e+01  -1.605236e+02
   7.601391e+01  -1.523358e+02
   1.123439e+02  -6.244445e+01
   7.730633e+01   1.841441e+01
   2.417133e+01   3.362586e+01
  -6.827876e-01   6.673639e+00
   1.264347e+01   3.398192e+00
   3.691384e+01   4.649945e+01
   2.548621e+01   9.123850e+01
  -2.773639e+01   7.336468e+01
  -8.354943e+01  -1.609311e+01
  -8.156134e+01  -1.059818e+02
  -1.008966e+01  -1.110667e+02
   8.000746e+01  -2.541462e+01
   1.040209e+02   7.054687e+01
   3.472513e+01   9.726652e+01
  -6.229066e+01   5.513874e+01
  -9.489770e+01  -7.098726e+00
  -4.036473e+01  -4.850535e+01
   2.953938e+01  -5.205860e+01
   2.964434e+01  -2.695183e+01
  -3.334437e+01   9.673975e-01
  -6.852294e+01   1.013307e+01
  -1.526435e+01  -2.394427e+01
   7.677389e+01  -6.500987e+01
   1.075589e+02  -5.865932e+01
   5.944156e+01   8.945683e+00
  -1.459803e+01   8.184012e+01
  -4.870707e+01   8.030918e+01
  -3.538008e+01   8.055562e+00
  -4.725049e+00  -5.436539e+01
   2.292858e+01  -4.426804e+01
   3.616173e+01   1.450619e+01
   2.963720e+01   4.937156e+01
   1.137317e+00   3.057132e+01
  -3.171434e+01  -6.682637e+00
  -4.048454e+01  -1.791606e+01
  -2.216384e+01   2.030502e+00
   3.917603e-01   1.424020e+01
   7.457382e+00  -2.982064e+00
   6.644741e+00  -3.834439e+01
   1.386005e+01  -4.613514e+01
   2.916264e+01  -9.252395e+00
   3.050098e+01   4.185138e+01
   1.456189e+00   5.929909e+01
  -4.209541e+01   2.212639e+01
  -5.639663e+01  -3.503599e+01
  -1.611704e+01  -6.056777e+01
   5.259195e+01  -3.502639e+01
   8.646905e+01   1.078092e+01
   4.746885e+01   4.012197e+01
  -2.818896e+01   4.077980e+01
  -6.170656e+01   2.444218e+01
  -2.217962e+01   8.191619e+00
   3.694502e+01   3.223598e+00
   3.493849e+01   1.383550e+01
  -3.176205e+01   2.918073e+01
  -8.747299e+01   2.125312e+01
