
 $NMID
 id='ANONYMOUS ', fmtdat='(2E16.6)'
 volume=1.0
 tramp=1.0
 $END
   3.617310e+03  -9.615944e+00
   2.060122e+03   2.202292e+03
  -2.830990e+02   2.210441e+03
  -1.409739e+03   1.000547e+03
  -7.993175e+02  -9.577645e+01
   2.825847e+02  -2.280855e+02
   5.367099e+02   2.476637e+02
   1.812190e+01   6.955966e+02
  -5.321549e+02   6.183856e+02
  -6.810677e+02   5.914983e+01
  -4.051321e+02  -5.656155e+02
   6.950306e+01  -6.658952e+02
   3.996005e+02  -1.329016e+02
   2.751728e+02   5.219696e+02
  -1.567972e+02   5.833386e+02
  -4.511783e+02   4.622555e+01
  -2.679784e+02  -5.168338e+02
   1.559656e+02  -5.841217e+02
   4.317500e+02  -2.150652e+02
   3.775603e+02   1.919488e+02
   1.044985e+02   3.399383e+02
  -1.267824e+02   2.409491e+02
  -1.034565e+02   5.372974e+01
   1.637222e+02   1.311348e+01
   3.405342e+02   1.774986e+02
   7.690297e+01   3.825631e+02
  -4.689950e+02   2.850790e+02
  -7.151365e+02  -8.837860e+01
  -3.134590e+02  -3.986054e+02
   3.516778e+02  -3.276799e+02
   6.003514e+02   5.771322e+01
   2.494534e+02   3.889585e+02
  -2.639639e+02   4.185359e+02
  -4.786624e+02   1.690329e+02
  -3.434902e+02  -1.750231e+02
  -6.440300e+01  -3.545137e+02
   9.658912e+01  -1.813111e+02
   2.740685e+01   1.749574e+02
  -1.972733e+02   2.891848e+02
  -3.270636e+02  -1.081993e+02
  -1.244323e+02  -5.884141e+02
   2.514772e+02  -5.426635e+02
   4.084567e+02   1.090392e+01
   1.371273e+02   4.004961e+02
  -2.350360e+02   1.791271e+02
  -2.583473e+02  -3.031494e+02
   1.070770e+02  -4.478967e+02
   4.958482e+02  -9.343441e+01
   5.338733e+02   3.582904e+02
   1.554451e+02   4.966577e+02
  -3.217818e+02   2.816513e+02
  -5.299383e+02  -6.203766e+01
  -3.112567e+02  -2.714847e+02
   9.872957e+01  -2.475068e+02
   3.254604e+02  -5.708077e+01
   1.918920e+02   8.282258e+01
  -5.173851e+01   3.309788e+01
  -6.541913e+01  -9.807893e+01
   1.446295e+02  -1.005316e+02
   2.658668e+02   5.774495e+01
   1.103276e+02   2.164043e+02
  -1.698418e+02   2.318116e+02
  -3.007307e+02   1.169128e+02
  -2.142591e+02  -5.723313e+01
  -4.143337e+00  -2.665478e+02
   2.188832e+02  -3.619745e+02
   3.313725e+02  -2.218031e+02
   2.637102e+02   1.295380e+02
   7.532197e+01   3.758141e+02
  -5.389940e+01   3.266588e+02
  -5.012027e+01   1.277439e+02
  -9.395762e+00   5.566255e+01
  -8.474817e+01   1.286840e+02
  -2.270675e+02   1.132447e+02
  -2.671444e+02  -7.742187e+01
  -1.326529e+02  -2.662249e+02
   8.280807e+01  -2.230782e+02
   2.136139e+02   1.415415e+01
   1.750850e+02   2.328737e+02
  -1.756485e+01   2.615028e+02
  -2.457556e+02   9.900659e+01
  -3.232773e+02  -1.385661e+02
  -1.782494e+02  -2.886331e+02
   5.170532e+01  -2.651227e+02
   1.630424e+02  -1.375514e+02
   1.182064e+02  -5.851452e+01
   1.120946e+02  -7.415285e+01
   2.549039e+02  -8.378931e+01
   4.122249e+02   3.875174e+01
   3.406567e+02   2.593372e+02
   1.574470e+01   4.344591e+02
  -3.309250e+02   4.262091e+02
  -4.512932e+02   2.112417e+02
  -3.007437e+02  -8.531885e+01
  -4.304452e+01  -2.594626e+02
   1.019509e+02  -2.065096e+02
   3.460666e+01  -1.552589e+01
  -1.109067e+02   7.621117e+01
  -1.531855e+02  -2.070328e+01
  -2.128256e+01  -1.565161e+02
   1.322659e+02  -1.267598e+02
   1.329523e+02   5.210833e+01
  -2.473288e+01   1.497499e+02
  -1.670553e+02   2.189777e+01
  -1.567143e+02  -2.110816e+02
   1.718877e+00  -3.202875e+02
   1.978618e+02  -1.986090e+02
   3.208819e+02   2.728101e+01
   2.838798e+02   2.131073e+02
   9.551237e+01   2.438062e+02
  -9.903676e+01   1.516304e+02
  -1.517742e+02   2.240287e+01
  -4.448874e+01  -1.694927e+01
   6.044211e+01   4.858400e+01
   2.023215e+01   1.152338e+02
  -1.102939e+02   8.739697e+01
  -1.539684e+02  -6.768911e+00
  -4.047106e+01  -5.982320e+01
   8.441734e+01  -6.493063e+00
   5.181240e+01   8.454000e+01
  -1.318984e+02   1.085079e+02
  -2.912803e+02   1.942941e+01
  -2.632203e+02  -1.341441e+02
  -5.697195e+01  -2.503981e+02
   1.731309e+02  -2.514768e+02
   2.540196e+02  -1.280514e+02
   1.405816e+02   3.350285e+01
  -2.224794e+01   8.022993e+01
  -6.703611e+01  -4.665540e+00
   4.736707e+01  -8.909052e+01
   1.868425e+02  -4.271918e+01
   1.928494e+02   9.400957e+01
   6.458198e+01   1.857896e+02
  -8.093263e+01   1.435381e+02
  -1.238848e+02   3.012543e+01
  -5.126858e+01  -2.916493e+01
   3.766631e+01   1.258360e+01
   3.484117e+01   9.191932e+01
  -8.357435e+01   1.137750e+02
  -1.912955e+02   3.215544e+01
  -1.799096e+02  -1.076126e+02
  -2.512561e+01  -1.949300e+02
   1.374852e+02  -1.532489e+02
   1.650644e+02  -2.154945e+01
   5.700319e+01   9.162224e+01
  -5.659830e+01   9.805026e+01
  -6.961243e+01   2.835313e+01
  -7.148524e+00  -2.587453e+01
   3.105791e+01  -1.749624e+01
  -2.347326e+00   1.627025e+01
  -7.445927e+01   5.200517e+00
  -1.009400e+02  -7.421156e+01
  -2.586395e+01  -1.568306e+02
   1.182357e+02  -1.523044e+02
   2.206092e+02  -2.833094e+01
   1.945574e+02   1.343410e+02
   4.942890e+01   2.133850e+02
  -8.554910e+01   1.573455e+02
  -1.164760e+02   3.623841e+01
  -6.802513e+01  -3.704430e+01
  -3.234233e+01  -2.735659e+01
  -5.113987e+01   1.456903e+01
  -7.664909e+01   1.259694e+01
  -4.938543e+01  -4.160265e+01
   2.924973e+01  -9.023242e+01
   1.012730e+02  -6.819786e+01
   9.400869e+01   2.901824e+01
  -5.986977e+00   1.179408e+02
  -1.424299e+02   9.760266e+01
  -1.987601e+02  -3.819845e+01
  -1.010929e+02  -1.910265e+02
   9.707976e+01  -2.188459e+02
   2.485770e+02  -1.036878e+02
   2.441989e+02   6.504833e+01
   1.034072e+02   1.570658e+02
  -3.414439e+01   1.404711e+02
  -8.311782e+01   8.197017e+01
  -6.376427e+01   6.246718e+01
  -4.849238e+01   8.894803e+01
  -7.759585e+01   8.205377e+01
  -1.219196e+02  -6.803028e+00
  -1.208932e+02  -1.384377e+02
  -4.010665e+01  -2.107352e+02
   8.188560e+01  -1.639509e+02
   1.611842e+02  -2.284147e+01
   1.329524e+02   1.096771e+02
   2.332797e+01   1.497472e+02
  -6.398770e+01   8.639015e+01
  -6.212026e+01  -4.749917e+00
  -5.721409e+00  -4.857581e+01
   1.569838e+01  -3.798638e+01
  -3.038261e+01  -1.149672e+01
  -7.688090e+01  -1.201212e+01
  -4.636734e+01  -3.379558e+01
   6.221333e+01  -4.487932e+01
   1.546534e+02  -1.350341e+01
   1.383754e+02   4.711022e+01
   1.056294e+01   8.982911e+01
  -1.172717e+02   7.559897e+01
  -1.323809e+02   1.249703e+01
  -4.238421e+01  -3.955924e+01
   5.631159e+01  -3.937080e+01
   7.340270e+01   1.305845e+01
   1.659214e+01   6.224251e+01
  -4.090846e+01   6.020576e+01
  -5.835517e+01   7.915912e+00
  -5.092849e+01  -3.819592e+01
  -4.468430e+01  -3.158028e+01
  -5.740695e+01   4.328063e+00
  -6.737071e+01   3.673434e+00
  -4.663141e+01  -6.711925e+01
   1.855048e+01  -1.516103e+02
   1.097353e+02  -1.482164e+02
   1.660856e+02  -4.031980e+01
   1.298426e+02   8.153652e+01
   9.930654e+00   1.209937e+02
  -7.751365e+01   6.394323e+01
  -5.528743e+01  -6.957034e+00
   5.588149e+01  -2.253090e+01
   1.311449e+02   3.013164e+01
   7.558193e+01   9.704161e+01
  -7.135621e+01   1.093683e+02
  -1.779518e+02   5.565339e+01
  -1.514803e+02  -2.565137e+01
  -3.685392e+01  -7.835316e+01
   5.500357e+01  -6.448010e+01
   4.450756e+01  -5.404274e+00
  -3.741172e+01   2.596825e+01
  -8.614773e+01  -1.386320e+01
  -4.007374e+01  -1.063531e+02
   7.140356e+01  -1.503360e+02
   1.457125e+02  -7.383782e+01
   1.218575e+02   8.015190e+01
   2.667345e+01   1.819000e+02
  -6.831355e+01   1.389602e+02
  -9.645116e+01  -1.442292e+00
  -6.300565e+01  -1.063422e+02
  -1.448832e-01  -9.494531e+01
   4.398314e+01  -1.740247e+01
   4.715368e+01   2.425094e+01
   2.020894e+01   2.591620e+00
   4.607967e+00  -1.972981e+01
   2.954734e+01   1.745724e+01
   6.354520e+01   8.411989e+01
   4.201453e+01   9.890468e+01
  -4.700333e+01   4.130748e+01
  -1.290963e+02  -3.120215e+01
  -1.194336e+02  -6.103084e+01
  -1.809834e+01  -4.482751e+01
   7.564236e+01  -2.562879e+01
   8.008329e+01  -1.053330e+01
   1.273107e+01   5.843930e+00
  -3.220741e+01   2.163239e+01
  -1.565989e+01   1.655012e+01
   1.745875e+01  -2.593943e+00
  -2.628112e+00  -7.451742e+00
  -6.333669e+01   4.100608e+00
  -8.911169e+01  -1.318101e+01
  -2.193408e+01  -7.334951e+01
   9.744072e+01  -1.170187e+02
   1.751893e+02  -7.151001e+01
   1.461424e+02   5.063346e+01
   3.499615e+01   1.484135e+02
  -6.982035e+01   1.470361e+02
  -1.067081e+02   6.531110e+01
  -7.486762e+01  -1.278993e+01
  -2.477838e+01  -3.128084e+01
  -1.730093e+00  -8.249464e+00
  -1.336378e+01  -5.148697e+00
  -3.534470e+01  -4.297805e+01
  -2.578483e+01  -8.454261e+01
   2.292390e+01  -6.960320e+01
   7.652069e+01   1.014879e+01
   8.190958e+01   9.235671e+01
   2.038666e+01   1.023042e+02
  -6.809476e+01   3.078959e+01
  -1.020067e+02  -5.602434e+01
  -4.351385e+01  -9.031918e+01
   5.321664e+01  -6.003225e+01
   9.435988e+01  -1.797803e+00
   4.803234e+01   4.660856e+01
  -2.550184e+01   5.696044e+01
  -3.172237e+01   3.154270e+01
   2.633471e+01  -3.273895e+00
   6.449604e+01  -1.250081e+01
   1.735406e+01   2.219314e+01
  -7.028095e+01   6.314843e+01
  -1.048582e+02   5.893435e+01
  -6.048091e+01  -5.463145e+00
   8.252042e+00  -7.787523e+01
   4.563044e+01  -8.087396e+01
   3.871616e+01  -1.350236e+01
   9.452584e+00   4.967624e+01
  -1.968780e+01   4.656279e+01
  -3.633506e+01  -9.042706e+00
  -3.165359e+01  -4.623864e+01
  -3.171726e+00  -3.283190e+01
   3.045891e+01   3.254700e+00
   4.037638e+01   1.654032e+01
   2.099391e+01  -2.182742e+00
  -3.532156e+00  -1.627030e+01
  -8.533385e+00  -1.851348e+00
   5.742826e-02   3.106377e+01
  -1.898275e+00   4.501386e+01
  -2.246578e+01   1.730378e+01
  -3.549288e+01  -2.986889e+01
  -1.281445e+01  -5.295612e+01
   3.552888e+01  -2.497376e+01
   5.713364e+01   2.807818e+01
   2.070598e+01   5.543970e+01
  -4.784366e+01   3.567801e+01
  -8.424948e+01  -6.365780e+00
  -4.808250e+01  -3.558406e+01
   2.272824e+01  -4.025271e+01
   5.717048e+01  -2.828721e+01
   2.222722e+01  -1.142548e+01
  -3.093640e+01  -6.074757e-01
  -3.162212e+01  -7.823833e+00
   2.476016e+01  -2.655610e+01
   7.625941e+01  -2.401006e+01
