
 $NMID
 id='ANONYMOUS ', fmtdat='(2E16.6)'
 volume=1.0
 tramp=1.0
 $END
  -2.963129e+03   1.656194e+02
  -1.944814e+03  -1.664088e+03
   1.107694e+02  -1.805130e+03
   1.137549e+03  -8.766129e+02
   7.185216e+02  -1.785145e+01
  -1.589483e+02   1.732024e+02
  -4.207240e+02  -1.689111e+02
  -4.881101e+01  -5.809465e+02
   4.181681e+02  -5.709467e+02
   5.882158e+02  -1.091577e+02
   3.932837e+02   4.678012e+02
  -1.337048e+01   5.906428e+02
  -3.030045e+02   1.469735e+02
  -2.470318e+02  -4.200699e+02
   1.167912e+02  -4.931007e+02
   3.691784e+02  -5.315189e+01
   2.460238e+02   4.277667e+02
  -1.189433e+02   5.071194e+02
  -3.721457e+02   2.056447e+02
  -3.507145e+02  -1.507336e+02
  -1.102630e+02  -2.991835e+02
   1.090240e+02  -2.185252e+02
   8.550439e+01  -6.108233e+01
  -1.463747e+02  -3.233030e+01
  -2.948069e+02  -1.742569e+02
  -6.462442e+01  -3.309658e+02
   3.963690e+02  -2.493139e+02
   6.045899e+02   5.634377e+01
   2.778490e+02   3.239433e+02
  -2.748100e+02   2.589410e+02
  -4.880456e+02  -5.332646e+01
  -2.156615e+02  -3.201123e+02
   2.060280e+02  -3.563551e+02
   3.963332e+02  -1.517032e+02
   2.951265e+02   1.376281e+02
   7.394913e+01   2.881804e+02
  -5.074577e+01   1.604346e+02
   3.662407e+00  -1.253422e+02
   1.779412e+02  -2.084088e+02
   2.506240e+02   1.052928e+02
   8.170576e+01   4.874619e+02
  -2.203374e+02   4.406377e+02
  -3.341243e+02  -1.684800e+01
  -1.222330e+02  -3.174923e+02
   1.824919e+02  -1.473786e+02
   2.005259e+02   2.515168e+02
  -7.821430e+01   3.684264e+02
  -4.104173e+02   8.109104e+01
  -4.696546e+02  -2.954794e+02
  -1.529493e+02  -4.233530e+02
   2.612293e+02  -2.581409e+02
   4.566205e+02   2.457532e+01
   2.916231e+02   2.209131e+02
  -5.482912e+01   2.146250e+02
  -2.558116e+02   5.907664e+01
  -1.707860e+02  -5.378882e+01
   2.633331e+01  -2.143659e+01
   5.392031e+01   8.463752e+01
  -1.106497e+02   8.859071e+01
  -2.275485e+02  -3.448764e+01
  -1.145993e+02  -1.770252e+02
   1.262318e+02  -2.092269e+02
   2.593136e+02  -1.207743e+02
   1.953276e+02   4.805996e+01
   8.967394e+00   2.333299e+02
  -1.944541e+02   3.087582e+02
  -2.843616e+02   1.788180e+02
  -2.277040e+02  -1.166515e+02
  -6.921836e+01  -3.188060e+02
   4.006004e+01  -2.939126e+02
   4.437811e+01  -1.348891e+02
   2.217773e+01  -5.758649e+01
   8.225094e+01  -1.019504e+02
   1.891615e+02  -8.583819e+01
   2.169392e+02   6.194203e+01
   1.186938e+02   2.149103e+02
  -5.935182e+01   1.907963e+02
  -1.751769e+02  -4.671298e+00
  -1.533138e+02  -1.975926e+02
   4.606187e+00  -2.270720e+02
   2.024359e+02  -9.170601e+01
   2.739749e+02   1.173416e+02
   1.615007e+02   2.422244e+02
  -3.372271e+01   2.335593e+02
  -1.373710e+02   1.267640e+02
  -1.087525e+02   5.590500e+01
  -1.057119e+02   5.832199e+01
  -2.183901e+02   5.880297e+01
  -3.449837e+02  -3.293594e+01
  -2.794944e+02  -2.106868e+02
  -1.180580e+01  -3.596224e+02
   2.853253e+02  -3.605002e+02
   3.769027e+02  -1.917779e+02
   2.517132e+02   6.277258e+01
   3.571972e+01   2.164415e+02
  -7.815836e+01   1.761692e+02
  -1.948195e+01   1.719217e+01
   9.931345e+01  -5.755805e+01
   1.270614e+02   1.765924e+01
   1.915298e+01   1.251733e+02
  -1.047196e+02   9.678297e+01
  -1.062304e+02  -4.402248e+01
   1.957944e+01  -1.215757e+02
   1.379607e+02  -1.501218e+01
   1.308378e+02   1.806780e+02
   1.955538e+00   2.751522e+02
  -1.758720e+02   1.768285e+02
  -2.769506e+02  -2.443427e+01
  -2.448020e+02  -1.813372e+02
  -8.631332e+01  -2.037934e+02
   7.791671e+01  -1.255171e+02
   1.254110e+02  -1.809126e+01
   3.623963e+01   6.042169e+00
  -4.521277e+01  -4.347139e+01
  -1.492716e+01  -9.529077e+01
   9.360706e+01  -7.236263e+01
   1.288875e+02   2.363404e+00
   3.645570e+01   4.545812e+01
  -7.178444e+01   5.315147e+00
  -4.374380e+01  -6.878318e+01
   1.167901e+02  -8.501841e+01
   2.555365e+02  -1.385254e+01
   2.309507e+02   1.157750e+02
   4.489301e+01   2.167543e+02
  -1.532526e+02   2.159054e+02
  -2.194103e+02   1.073461e+02
  -1.213415e+02  -2.781947e+01
   2.067222e+01  -6.851904e+01
   6.065511e+01   3.658164e+00
  -4.010258e+01   7.770064e+01
  -1.624866e+02   4.599468e+01
  -1.699078e+02  -7.552307e+01
  -6.164220e+01  -1.584640e+02
   6.506391e+01  -1.236323e+02
   1.033408e+02  -2.817374e+01
   4.450827e+01   2.213735e+01
  -3.160148e+01  -1.370954e+01
  -2.934276e+01  -8.233912e+01
   7.543249e+01  -9.909424e+01
   1.664710e+02  -2.779069e+01
   1.589439e+02   9.315003e+01
   2.521885e+01   1.694111e+02
  -1.186173e+02   1.392663e+02
  -1.449511e+02   2.423065e+01
  -5.096756e+01  -7.698424e+01
   4.630879e+01  -8.523922e+01
   5.827014e+01  -2.544667e+01
   5.066860e+00   2.159679e+01
  -2.587341e+01   1.274933e+01
   3.598035e+00  -1.737942e+01
   6.727157e+01  -7.304171e+00
   8.807980e+01   6.401467e+01
   2.276798e+01   1.384207e+02
  -1.013817e+02   1.356985e+02
  -1.957491e+02   2.216836e+01
  -1.740680e+02  -1.191020e+02
  -4.562707e+01  -1.865104e+02
   7.384059e+01  -1.363867e+02
   1.020970e+02  -3.287650e+01
   5.965470e+01   2.956723e+01
   3.064820e+01   1.911898e+01
   4.586913e+01  -1.533720e+01
   7.078767e+01  -1.345556e+01
   4.788154e+01   3.705863e+01
  -2.508214e+01   8.292377e+01
  -8.980482e+01   6.239642e+01
  -8.634437e+01  -2.245332e+01
   4.215843e+00  -1.027220e+02
   1.256530e+02  -8.792197e+01
   1.735577e+02   3.059317e+01
   8.533735e+01   1.618787e+02
  -8.504184e+01   1.878221e+02
  -2.102277e+02   9.240904e+01
  -2.095204e+02  -5.120888e+01
  -9.127188e+01  -1.312743e+02
   2.388021e+01  -1.187471e+02
   7.288347e+01  -7.310662e+01
   5.706600e+01  -5.890337e+01
   4.221992e+01  -7.906571e+01
   6.231666e+01  -7.281542e+01
   1.030883e+02   3.984049e+00
   1.060202e+02   1.172134e+02
   4.197165e+01   1.811721e+02
  -6.496618e+01   1.438677e+02
  -1.376950e+02   2.344487e+01
  -1.165180e+02  -9.142757e+01
  -2.487450e+01  -1.283996e+02
   5.144075e+01  -7.511868e+01
   5.146548e+01   2.420078e+00
   3.829091e+00   4.241277e+01
  -1.695036e+01   3.293092e+01
   2.315477e+01   1.044573e+01
   6.694004e+01   1.124530e+01
   4.445147e+01   2.955471e+01
  -5.281862e+01   3.775469e+01
  -1.382477e+02   1.176675e+01
  -1.235394e+02  -3.883544e+01
  -1.133094e+01  -7.606104e+01
   1.031651e+02  -6.716182e+01
   1.179118e+02  -1.248216e+01
   3.706320e+01   3.428410e+01
  -4.973709e+01   3.552138e+01
  -6.503649e+01  -1.182248e+01
  -1.586568e+01  -5.653341e+01
   3.420232e+01  -5.411505e+01
   5.295247e+01  -6.451972e+00
   4.711278e+01   3.498887e+01
   4.046389e+01   2.916581e+01
   5.025321e+01  -3.028634e-01
   5.464066e+01   1.451083e+00
   3.527546e+01   5.925311e+01
  -1.905730e+01   1.266818e+02
  -9.405336e+01   1.231133e+02
  -1.383650e+02   3.467273e+01
  -1.099949e+02  -6.797728e+01
  -8.512141e+00  -1.049018e+02
   6.914826e+01  -5.700583e+01
   4.850130e+01   4.468463e+00
  -4.837110e+01   1.993107e+01
  -1.111299e+02  -2.393033e+01
  -6.539919e+01  -8.236475e+01
   5.977774e+01  -9.483352e+01
   1.528170e+02  -5.128845e+01
   1.342321e+02   2.389281e+01
   3.239619e+01   7.211324e+01
  -5.050449e+01   5.993611e+01
  -4.186282e+01   5.476748e+00
   3.304077e+01  -2.489037e+01
   7.548956e+01   1.014437e+01
   3.700431e+01   9.429958e+01
  -6.048563e+01   1.372320e+02
  -1.292891e+02   6.806992e+01
  -1.115910e+02  -6.934491e+01
  -3.071308e+01  -1.631734e+02
   5.218625e+01  -1.252058e+02
   8.484531e+01  -3.926784e+00
   5.981603e+01   9.083191e+01
   2.683332e+00   8.667374e+01
  -3.862191e+01   1.785272e+01
  -4.136691e+01  -2.225531e+01
  -1.620961e+01  -4.699862e+00
  -2.109227e+00   1.679233e+01
  -2.653021e+01  -1.250465e+01
  -5.854159e+01  -7.080220e+01
  -3.787613e+01  -8.408509e+01
   3.995472e+01  -3.594479e+01
   1.130080e+02   2.299295e+01
   1.052727e+02   4.808097e+01
   1.709963e+01   3.734624e+01
  -6.422415e+01   2.469334e+01
  -7.023109e+01   1.255967e+01
  -1.141461e+01  -6.436097e+00
   2.855033e+01  -2.114353e+01
   1.461084e+01  -1.357692e+01
  -1.411265e+01   5.004409e+00
   3.666264e+00   8.304012e+00
   5.577808e+01  -8.310481e-01
   7.623839e+01   1.234437e+01
   1.732136e+01   6.270504e+01
  -8.717861e+01   9.995226e+01
  -1.523690e+02   6.037823e+01
  -1.270037e+02  -4.263915e+01
  -3.280904e+01  -1.291691e+02
   5.737891e+01  -1.288802e+02
   9.172702e+01  -5.989512e+01
   6.822454e+01   8.903930e+00
   2.367967e+01   2.754309e+01
   1.394377e+00   8.705162e+00
   1.108325e+01   4.580628e+00
   3.091976e+01   3.739553e+01
   2.402470e+01   7.468208e+01
  -1.953598e+01   6.210539e+01
  -6.673784e+01  -8.301330e+00
  -7.113206e+01  -8.131725e+01
  -1.750970e+01  -8.955356e+01
   5.932621e+01  -2.750465e+01
   8.895643e+01   4.890472e+01
   3.953825e+01   7.954003e+01
  -4.583137e+01   5.332979e+01
  -8.247742e+01   9.900853e-01
  -4.214067e+01  -4.006753e+01
   2.110360e+01  -5.049695e+01
   2.701732e+01  -2.850546e+01
  -2.247330e+01   3.917119e+00
  -5.597829e+01   1.188076e+01
  -1.657619e+01  -1.919556e+01
   5.799632e+01  -5.872009e+01
   9.019513e+01  -5.564939e+01
   5.441065e+01   4.264297e+00
  -5.487848e+00   6.734477e+01
  -3.710895e+01   7.268646e+01
  -3.242097e+01   1.321992e+01
  -7.333075e+00  -4.377718e+01
   1.799481e+01  -4.056866e+01
   3.216980e+01   8.499269e+00
   2.752758e+01   4.140985e+01
   2.255607e+00   2.878552e+01
  -2.644227e+01  -3.641729e+00
  -3.389720e+01  -1.593645e+01
  -1.654413e+01   1.410376e+00
   4.418369e+00   1.509708e+01
   7.843934e+00   3.982437e+00
  -1.221288e+00  -2.554855e+01
   1.327767e-01  -3.989906e+01
   1.839858e+01  -1.514387e+01
   2.900360e+01   2.732786e+01
   1.145139e+01   4.587320e+01
  -3.007301e+01   2.185432e+01
  -4.981609e+01  -2.407141e+01
  -1.904650e+01  -4.809171e+01
   4.111137e+01  -3.080691e+01
   7.248800e+01   6.675088e+00
   4.197589e+01   3.157488e+01
  -2.015598e+01   3.537281e+01
  -5.224137e+01   2.457730e+01
  -2.028899e+01   9.440496e+00
   2.557855e+01  -1.053103e+00
   2.728097e+01   5.275012e+00
  -2.047356e+01   2.136526e+01
  -6.637932e+01   1.971951e+01
