
 $NMID
 id='ANONYMOUS ', fmtdat='(2E16.6)'
 volume=1.0
 tramp=1.0
 $END
   2.858600e+03   3.769852e+02
   1.897942e+03   1.690777e+03
   1.606537e+01   1.697770e+03
  -8.767012e+02   1.069092e+03
  -7.783894e+02   4.698331e+02
  -2.703017e+02   3.614288e+01
   1.020046e+02   6.416783e+01
  -5.234249e+00   3.077551e+02
  -3.442797e+02   4.385736e+02
  -5.143657e+02   8.955182e+01
  -3.801842e+02  -3.628501e+02
  -7.643501e+01  -5.269300e+02
   1.554095e+02  -1.867913e+02
   1.550950e+02   2.954595e+02
  -6.178111e+01   4.248692e+02
  -2.972072e+02   9.202299e+01
  -2.658249e+02  -3.884897e+02
   3.811684e+01  -5.823871e+02
   3.937660e+02  -3.314602e+02
   4.282535e+02   9.392138e+01
   1.630427e+02   3.025842e+02
  -7.549572e+01   2.156619e+02
  -1.148952e+01   9.734663e+01
   2.103831e+02   1.770806e+02
   2.277496e+02   3.561729e+02
  -1.100873e+02   3.431899e+02
  -4.940011e+02   6.330380e+01
  -5.266383e+02  -2.407552e+02
  -1.417343e+02  -3.026253e+02
   3.100503e+02  -8.062784e+01
   4.050914e+02   1.878603e+02
   1.043150e+02   3.275437e+02
  -2.760093e+02   2.732154e+02
  -4.155489e+02   8.401571e+01
  -2.835032e+02  -1.500846e+02
  -7.759202e+01  -2.513143e+02
  -3.070863e+01  -1.315899e+02
  -1.252541e+02   4.689881e+01
  -1.911212e+02   4.030583e+01
  -1.068757e+02  -2.174944e+02
   9.232599e+01  -4.351873e+02
   2.394896e+02  -3.295169e+02
   2.048093e+02   2.521391e+01
   3.254642e+01   2.159044e+02
  -1.021259e+02   3.617788e+01
  -5.973075e+01  -2.642263e+02
   1.604880e+02  -3.039678e+02
   4.095620e+02   1.553646e+01
   4.194038e+02   3.839039e+02
   1.231704e+02   4.441910e+02
  -2.674785e+02   2.107761e+02
  -4.478468e+02  -7.369196e+01
  -3.040342e+02  -1.952751e+02
   1.417695e+01  -1.412790e+02
   1.982059e+02  -6.397711e+01
   1.756155e+02  -4.120732e+01
   5.692037e+01  -3.806931e+01
   1.201084e+01  -2.099009e+01
   9.001680e+01   6.304771e+00
   1.722016e+02   7.055439e+01
   8.791857e+01   1.473058e+02
  -1.377503e+02   2.128204e+02
  -3.257776e+02   1.566829e+02
  -2.796642e+02  -7.951609e+01
   6.305549e+00  -3.495785e+02
   3.229909e+02  -3.748295e+02
   3.911686e+02  -1.229950e+02
   2.109134e+02   1.932297e+02
   2.427270e+01   3.309416e+02
  -2.092427e+01   2.678946e+02
   1.548400e+01   1.781591e+02
  -2.428533e+01   1.616244e+02
  -1.836751e+02   1.375763e+02
  -2.869944e+02   2.382815e+01
  -2.281685e+02  -1.644224e+02
  -4.935409e+01  -2.654491e+02
   1.161836e+02  -1.656932e+02
   1.744646e+02   7.095795e+01
   9.762026e+01   2.508339e+02
  -6.944754e+01   2.243992e+02
  -2.327535e+02   2.244177e+01
  -2.640186e+02  -1.928257e+02
  -1.373999e+02  -2.746007e+02
   5.110436e+01  -2.306403e+02
   1.470015e+02  -1.415080e+02
   1.416412e+02  -9.786840e+01
   1.656977e+02  -7.907020e+01
   2.920370e+02  -1.755917e+01
   4.017663e+02   1.349743e+02
   2.885424e+02   3.229987e+02
  -6.278302e+01   4.264447e+02
  -4.164514e+02   3.518275e+02
  -4.889101e+02   1.108676e+02
  -2.625017e+02  -1.322182e+02
   1.463227e+01  -2.372794e+02
   9.890670e+01  -1.580729e+02
  -1.451222e+01  -4.156485e+01
  -1.209401e+02   3.419590e+00
  -9.963523e+01  -6.125173e+01
   2.386396e+01  -1.123145e+02
   1.029220e+02  -5.814389e+01
   7.204123e+01   6.371390e+01
  -4.581323e+01   1.006044e+02
  -1.440766e+02  -2.638744e+01
  -1.267708e+02  -2.237580e+02
   3.291408e+01  -3.217432e+02
   2.388835e+02  -1.956667e+02
   3.598484e+02   5.777876e+01
   2.678233e+02   2.714158e+02
   5.271070e+01   2.849412e+02
  -1.295159e+02   1.400292e+02
  -1.425434e+02   3.509507e+00
  -3.576160e+01  -1.685896e+00
   3.397904e+01   7.542712e+01
  -2.614809e+01   1.079362e+02
  -1.260340e+02   4.481000e+01
  -1.342379e+02  -4.136349e+01
  -1.890292e+01  -4.814639e+01
   7.819440e+01   3.227193e+01
   2.431961e+01   1.029187e+02
  -1.628299e+02   7.711160e+01
  -3.060039e+02  -5.086524e+01
  -2.434865e+02  -1.959165e+02
  -3.855332e+00  -2.635345e+02
   2.227055e+02  -2.125767e+02
   2.632009e+02  -6.864397e+01
   1.171679e+02   5.201745e+01
  -3.700117e+01   5.865214e+01
  -4.552072e+01  -2.145037e+01
   7.012615e+01  -6.969356e+01
   1.759720e+02  -5.510579e+00
   1.553137e+02   1.169650e+02
   3.083821e+01   1.753135e+02
  -8.897271e+01   1.145810e+02
  -1.114062e+02   5.238041e+00
  -3.476430e+01  -3.413736e+01
   4.388058e+01   2.941896e+01
   1.964151e+01   1.155620e+02
  -1.105160e+02   1.187300e+02
  -2.091090e+02   4.523419e-01
  -1.676479e+02  -1.401543e+02
   1.376727e+00  -1.971689e+02
   1.553192e+02  -1.335148e+02
   1.585022e+02  -5.132363e+00
   4.564092e+01   8.301824e+01
  -5.949884e+01   7.916397e+01
  -6.216327e+01   1.859227e+01
   4.230534e+00  -2.210528e+01
   4.327065e+01  -4.299090e+00
  -6.257999e+00   3.083390e+01
  -9.300248e+01   2.493950e+00
  -1.111790e+02  -9.679140e+01
  -7.035441e+00  -1.828162e+02
   1.535678e+02  -1.490904e+02
   2.352955e+02   5.189520e+00
   1.797091e+02   1.638054e+02
   2.939294e+01   2.180427e+02
  -9.753881e+01   1.464020e+02
  -1.195522e+02   3.043125e+01
  -7.189730e+01  -3.571252e+01
  -3.711273e+01  -2.509145e+01
  -5.661795e+01   1.303325e+01
  -9.220822e+01   6.685541e+00
  -6.211095e+01  -5.790756e+01
   3.839818e+01  -1.097755e+02
   1.333274e+02  -7.231597e+01
   1.138406e+02   4.973143e+01
  -2.481868e+01   1.377875e+02
  -1.787106e+02   8.719108e+01
  -2.074552e+02  -7.781461e+01
  -6.667136e+01  -2.183159e+02
   1.391243e+02  -2.118224e+02
   2.646172e+02  -6.957599e+01
   2.319076e+02   9.558184e+01
   8.571626e+01   1.608961e+02
  -4.522203e+01   1.306996e+02
  -8.611148e+01   7.543120e+01
  -6.211598e+01   6.509893e+01
  -5.430407e+01   9.152491e+01
  -8.827833e+01   7.635715e+01
  -1.292196e+02  -1.930421e+01
  -1.111983e+02  -1.565007e+02
  -1.575270e+01  -2.207498e+02
   1.035472e+02  -1.547474e+02
   1.628405e+02   1.089263e+00
   1.160214e+02   1.320873e+02
   7.950832e-01   1.557517e+02
  -8.082448e+01   7.530048e+01
  -6.464903e+01  -2.372662e+01
   7.341466e+00  -6.210322e+01
   3.695637e+01  -3.994587e+01
  -1.947141e+01  -7.986069e+00
  -8.259503e+01  -1.530981e+01
  -4.852836e+01  -4.010707e+01
   7.943262e+01  -3.829349e+01
   1.772514e+02   1.661657e+01
   1.367016e+02   7.802230e+01
  -1.280098e+01   1.006530e+02
  -1.427054e+02   6.230847e+01
  -1.470898e+02  -3.781920e+00
  -4.675710e+01  -5.464699e+01
   5.511341e+01  -4.368208e+01
   7.594375e+01   1.831956e+01
   2.240862e+01   7.074800e+01
  -4.271496e+01   6.225836e+01
  -6.908765e+01  -8.753556e-01
  -5.600603e+01  -5.246149e+01
  -4.250485e+01  -4.438520e+01
  -5.157254e+01  -4.400882e+00
  -6.696835e+01  -5.121552e+00
  -4.745753e+01  -7.746963e+01
   3.519458e+01  -1.600273e+02
   1.410899e+02  -1.460853e+02
   1.905675e+02  -2.685912e+01
   1.280750e+02   1.034944e+02
  -5.323341e+00   1.369213e+02
  -9.543148e+01   6.968958e+01
  -5.941380e+01  -6.777339e+00
   5.789762e+01  -1.312406e+01
   1.263783e+02   4.779387e+01
   6.027800e+01   1.071290e+02
  -8.727094e+01   1.012069e+02
  -1.850635e+02   2.846766e+01
  -1.469920e+02  -5.075102e+01
  -2.315874e+01  -8.383559e+01
   6.648039e+01  -5.192928e+01
   5.006316e+01   7.677599e+00
  -3.880460e+01   3.178606e+01
  -8.922984e+01  -1.722317e+01
  -3.913826e+01  -1.100728e+02
   7.370257e+01  -1.489114e+02
   1.499095e+02  -6.912455e+01
   1.175397e+02   8.728080e+01
   9.859203e+00   1.884273e+02
  -8.686168e+01   1.385491e+02
  -1.027662e+02  -1.508710e+01
  -5.146758e+01  -1.218683e+02
   1.998745e+01  -1.006097e+02
   5.323610e+01  -1.321191e+01
   4.214661e+01   3.261968e+01
   1.324356e+01   8.854176e+00
   7.594361e+00  -1.599635e+01
   3.265534e+01   2.449609e+01
   5.591687e+01   9.068684e+01
   2.828606e+01   1.025983e+02
  -5.478872e+01   3.966870e+01
  -1.286694e+02  -3.749028e+01
  -1.145388e+02  -6.826586e+01
  -2.126377e+01  -5.234686e+01
   7.190859e+01  -2.436805e+01
   8.451887e+01  -3.413740e+00
   2.152137e+01   1.183534e+01
  -3.061895e+01   2.090402e+01
  -2.009700e+01   1.310740e+01
   1.102915e+01  -1.789631e+00
  -2.712154e+00  -4.108378e+00
  -6.288714e+01   1.829861e+00
  -9.137208e+01  -2.191147e+01
  -2.329049e+01  -7.791216e+01
   1.015482e+02  -1.096489e+02
   1.804711e+02  -6.323841e+01
   1.452103e+02   5.034721e+01
   3.026770e+01   1.444253e+02
  -7.725601e+01   1.463065e+02
  -1.126853e+02   6.803433e+01
  -7.831726e+01  -1.497315e+01
  -2.639312e+01  -3.804852e+01
  -4.829911e+00  -1.464294e+01
  -1.428839e+01  -8.979772e+00
  -2.732429e+01  -5.032632e+01
  -1.362370e+01  -9.340860e+01
   2.976729e+01  -7.136486e+01
   7.478526e+01   1.488025e+01
   7.689654e+01   9.782099e+01
   1.761785e+01   1.064911e+02
  -6.780837e+01   3.435255e+01
  -1.042576e+02  -5.943300e+01
  -4.396825e+01  -1.008089e+02
   5.958506e+01  -6.780961e+01
   1.046016e+02   3.087096e+00
   5.031578e+01   6.085479e+01
  -3.347257e+01   6.714034e+01
  -4.404678e+01   3.148032e+01
   2.099322e+01  -9.768714e+00
   6.991350e+01  -1.236863e+01
   2.215571e+01   2.726841e+01
  -7.831896e+01   6.403067e+01
  -1.256931e+02   5.108833e+01
  -7.725515e+01  -1.706333e+01
   1.154343e+01  -8.290842e+01
   5.735423e+01  -8.590633e+01
   4.453693e+01  -1.862407e+01
   8.915986e+00   4.652305e+01
  -2.176894e+01   4.987954e+01
  -3.546694e+01  -5.530349e+00
  -3.044588e+01  -5.268969e+01
  -4.218027e+00  -4.388720e+01
   3.099288e+01   8.546705e-01
   4.377043e+01   2.571076e+01
   2.349277e+01   6.275462e+00
  -4.100215e+00  -2.233266e+01
  -8.606184e+00  -1.462074e+01
   7.544458e+00   2.706419e+01
   7.992923e+00   5.247919e+01
  -1.979542e+01   2.804412e+01
  -4.233126e+01  -2.762085e+01
  -1.888782e+01  -5.507789e+01
   3.640260e+01  -2.600785e+01
   6.394632e+01   2.848016e+01
   2.186958e+01   5.770309e+01
  -5.677255e+01   3.689247e+01
  -9.194997e+01  -6.954574e+00
  -5.083567e+01  -3.979620e+01
   2.532963e+01  -4.582145e+01
   6.160892e+01  -3.040529e+01
   3.120449e+01  -1.105521e+01
  -2.198778e+01   2.061190e+00
  -2.858240e+01  -3.022427e+00
   1.990952e+01  -2.054433e+01
   6.990436e+01  -1.967661e+01
