
 $NMID
 id='ANONYMOUS ', fmtdat='(2E16.6)'
 volume=1.0
 tramp=1.0
 $END
  -1.697493e+03   1.322139e+02
  -1.612074e+03  -6.368455e+02
  -5.876590e+02  -1.077890e+03
   2.834983e+02  -1.187590e+03
   7.280224e+02  -6.514178e+02
   4.450044e+02  -4.735893e+01
  -3.303223e+01   1.685142e+02
  -1.324904e+02  -8.840535e+01
   9.732844e+01  -3.429450e+02
   3.184180e+02  -2.206140e+02
   3.328572e+02   1.102323e+02
   1.908617e+02   3.141421e+02
  -9.775906e+00   1.918129e+02
  -1.190195e+02  -8.470053e+01
  -5.761681e+01  -2.590122e+02
   1.420232e+02  -1.365334e+02
   2.283071e+02   1.921384e+02
   5.930212e+01   4.145582e+02
  -2.442094e+02   3.055590e+02
  -3.408183e+02  -8.715256e+00
  -1.747322e+02  -1.993272e+02
   1.372225e+00  -1.659469e+02
  -2.899977e+01  -1.116948e+02
  -1.365481e+02  -1.958451e+02
  -9.686750e+01  -2.712271e+02
   1.340551e+02  -1.814720e+02
   3.160099e+02   3.849262e+01
   3.009474e+02   1.577800e+02
   7.813070e+01   1.079258e+02
  -1.354435e+02  -2.602788e+01
  -1.896970e+02  -1.011322e+02
  -5.057863e+01  -1.266890e+02
   1.281166e+02  -1.158659e+02
   2.080062e+02  -6.112261e+01
   1.502261e+02   4.275216e+01
   8.787331e+01   1.007849e+02
   9.935610e+01   7.967783e+01
   1.322385e+02   3.949761e+01
   8.778759e+01   5.007447e+01
  -3.608273e+01   1.309501e+02
  -9.531088e+01   2.024521e+02
  -8.840733e+01   1.545046e+02
  -4.155330e+01   1.411412e+01
  -2.152147e+01  -4.548369e+01
  -1.453434e+01   1.290492e+01
  -6.702035e+00   1.386432e+02
  -7.518367e+01   1.475648e+02
  -2.127289e+02  -1.933549e+01
  -2.618590e+02  -2.204910e+02
  -1.050637e+02  -2.510432e+02
   1.452045e+02  -1.160988e+02
   2.758147e+02   1.816125e+01
   2.136422e+02   7.144715e+01
   4.655805e+01   7.288372e+01
  -8.611656e+01   1.000050e+02
  -1.449956e+02   1.176333e+02
  -1.099489e+02   3.846709e+01
  -4.282124e+01  -4.297787e+01
  -3.063199e+01  -5.220814e+01
  -8.347876e+01  -1.600844e+01
  -8.489137e+01  -6.020918e+01
   5.850952e+01  -1.557281e+02
   2.328856e+02  -1.369985e+02
   2.154517e+02   4.994733e+01
  -2.018781e+01   2.458164e+02
  -2.426066e+02   2.628098e+02
  -2.619785e+02   6.793784e+01
  -1.125337e+02  -1.324953e+02
  -1.220467e+01  -1.947907e+02
  -2.324209e+01  -1.653890e+02
  -3.319680e+01  -1.399815e+02
   3.520289e+01  -1.313472e+02
   1.489033e+02  -8.387152e+01
   1.895081e+02   1.018931e+01
   1.195482e+02   1.142575e+02
   1.555394e+01   1.483811e+02
  -6.164649e+01   7.869386e+01
  -8.586365e+01  -5.537417e+01
  -5.052081e+01  -1.499279e+02
   3.950109e+01  -1.278781e+02
   1.325257e+02  -8.946211e+00
   1.616980e+02   9.833606e+01
   1.061050e+02   1.574225e+02
   1.888700e+00   1.503652e+02
  -7.482104e+01   1.208336e+02
  -1.005339e+02   9.432207e+01
  -1.388273e+02   5.797023e+01
  -2.099867e+02  -3.217289e+00
  -2.642035e+02  -9.739200e+01
  -1.883867e+02  -2.119353e+02
   4.024232e+01  -2.725919e+02
   2.662281e+02  -2.296672e+02
   3.090850e+02  -8.148515e+01
   1.582380e+02   6.911717e+01
  -1.114990e+01   1.259869e+02
  -4.225968e+01   8.806819e+01
   3.029402e+01   3.975851e+01
   8.310664e+01   2.141183e+01
   3.959372e+01   4.219606e+01
  -1.971124e+01   4.640937e+01
  -4.346611e+01   2.082373e+01
  -2.399833e+01  -2.469343e+01
   2.179362e+01  -4.058490e+01
   7.628705e+01   1.715315e+01
   8.556989e+01   1.378580e+02
  -5.873122e+00   2.094174e+02
  -1.559861e+02   1.519843e+02
  -2.450119e+02  -3.428199e+01
  -1.856518e+02  -1.809961e+02
  -3.489383e+01  -1.887744e+02
   8.674165e+01  -8.852191e+01
   8.963060e+01  -5.758869e+00
   2.225467e+01  -8.268863e+00
  -1.348214e+01  -5.164460e+01
   2.212025e+01  -6.224124e+01
   8.298094e+01  -2.156314e+01
   7.507036e+01   2.505013e+01
   4.990777e+00   1.730343e+01
  -4.909461e+01  -3.144487e+01
  -8.597511e+00  -7.211374e+01
   1.233034e+02  -4.945140e+01
   2.142120e+02   4.612434e+01
   1.531216e+02   1.355387e+02
  -6.950861e+00   1.710695e+02
  -1.460193e+02   1.298470e+02
  -1.576377e+02   4.825229e+01
  -6.864276e+01  -1.666131e+01
   2.084942e+01  -2.874568e+01
   2.037105e+01   9.839196e+00
  -4.439027e+01   3.457588e+01
  -1.060088e+02   4.012936e+00
  -9.866697e+01  -6.467259e+01
  -2.743088e+01  -1.045645e+02
   5.046097e+01  -7.234196e+01
   6.387782e+01  -5.461109e+00
   1.173436e+01   1.536816e+01
  -3.456864e+01  -3.467678e+01
  -9.949618e+00  -8.904594e+01
   8.328282e+01  -8.576478e+01
   1.509242e+02  -1.067729e+00
   1.175480e+02   9.289382e+01
   3.584338e+00   1.299884e+02
  -9.678127e+01   9.546248e+01
  -1.040295e+02   1.857401e+01
  -3.232943e+01  -4.646842e+01
   3.454300e+01  -5.332256e+01
   3.677975e+01  -1.504496e+01
  -1.232779e+01   1.547508e+01
  -3.595106e+01  -2.586829e+00
   4.691195e+00  -3.062189e+01
   7.321230e+01  -7.728449e+00
   8.322038e+01   7.114401e+01
   6.326743e+00   1.304029e+02
  -1.060346e+02   1.052181e+02
  -1.668958e+02   1.950205e+00
  -1.257987e+02  -1.075821e+02
  -2.836987e+01  -1.450779e+02
   5.560486e+01  -1.025908e+02
   8.013687e+01  -2.826216e+01
   5.300584e+01   2.194634e+01
   2.823964e+01   1.599046e+01
   3.970797e+01  -1.081815e+01
   6.698190e+01  -8.669526e+00
   5.014056e+01   4.423438e+01
  -2.290092e+01   8.685361e+01
  -9.700738e+01   5.649543e+01
  -8.726102e+01  -3.601568e+01
   1.530077e+01  -1.003713e+02
   1.264243e+02  -6.070497e+01
   1.434642e+02   5.716405e+01
   4.396049e+01   1.479249e+02
  -9.980112e+01   1.402022e+02
  -1.803136e+02   4.260123e+01
  -1.568366e+02  -6.309328e+01
  -5.956618e+01  -1.028641e+02
   2.757771e+01  -8.641077e+01
   5.530290e+01  -5.428501e+01
   4.137609e+01  -5.062686e+01
   3.215140e+01  -6.702721e+01
   6.056690e+01  -5.878238e+01
   8.987556e+01   8.154487e+00
   8.150304e+01   1.025858e+02
   1.931247e+01   1.515351e+02
  -6.602853e+01   1.092109e+02
  -1.098122e+02   3.847623e+00
  -8.069314e+01  -8.676790e+01
  -1.552416e+00  -1.026406e+02
   5.421745e+01  -4.632639e+01
   4.183605e+01   2.094016e+01
  -9.272093e+00   4.481669e+01
  -3.091331e+01   2.354575e+01
   9.745341e+00   1.629456e+00
   5.718605e+01   7.543241e+00
   3.694327e+01   2.707679e+01
  -5.516015e+01   2.631667e+01
  -1.231950e+02  -7.400422e+00
  -9.465330e+01  -4.954240e+01
   1.139810e+01  -6.691037e+01
   9.851260e+01  -4.195452e+01
   9.745858e+01   4.323440e+00
   2.704312e+01   3.615770e+01
  -4.013453e+01   3.122161e+01
  -5.478094e+01  -1.020976e+01
  -2.075350e+01  -5.091936e+01
   2.364215e+01  -5.039795e+01
   4.884704e+01  -7.662813e+00
   4.818084e+01   3.358116e+01
   3.676393e+01   3.113447e+01
   3.372537e+01   2.247900e+00
   4.486594e+01   4.139597e-01
   3.615158e+01   4.944193e+01
  -1.790761e+01   1.067672e+02
  -9.486412e+01   1.012321e+02
  -1.322258e+02   2.038349e+01
  -9.040234e+01  -7.080765e+01
   2.209405e+00  -9.376029e+01
   6.806890e+01  -5.386742e+01
   4.378379e+01   1.597599e+00
  -3.845104e+01   1.117552e+01
  -8.470415e+01  -2.516042e+01
  -4.554175e+01  -6.626300e+01
   5.383091e+01  -6.830263e+01
   1.235467e+02  -2.635712e+01
   1.011333e+02   3.124619e+01
   1.309015e+01   5.558206e+01
  -4.860322e+01   3.557037e+01
  -3.358669e+01  -7.242901e+00
   3.213648e+01  -2.951881e+01
   6.720046e+01   7.027669e+00
   3.644388e+01   7.458747e+01
  -4.118592e+01   1.113608e+02
  -9.894689e+01   6.460613e+01
  -8.693002e+01  -4.907761e+01
  -2.385631e+01  -1.301062e+02
   4.759819e+01  -1.010691e+02
   7.210245e+01   5.385799e+00
   3.957443e+01   8.294599e+01
  -1.093190e+01   6.717829e+01
  -3.736959e+01   7.147453e+00
  -2.694095e+01  -2.173745e+01
  -6.221807e+00  -2.586035e+00
  -5.035263e+00   1.137737e+01
  -2.667675e+01  -1.920586e+01
  -4.180098e+01  -6.347153e+01
  -2.004134e+01  -6.816580e+01
   3.742601e+01  -2.606714e+01
   8.670863e+01   1.980442e+01
   8.112570e+01   3.809678e+01
   1.780742e+01   3.183980e+01
  -4.601644e+01   1.937401e+01
  -5.500896e+01   7.559486e+00
  -1.502789e+01  -6.195618e+00
   2.008345e+01  -1.462328e+01
   1.579007e+01  -8.894382e+00
  -5.390355e+00   4.044275e+00
   3.708466e+00   3.134508e+00
   4.407297e+01  -3.707904e+00
   6.196167e+01   1.348942e+01
   1.990258e+01   5.625759e+01
  -6.489263e+01   8.595036e+01
  -1.245054e+02   5.235295e+01
  -1.087934e+02  -3.011774e+01
  -3.435368e+01  -1.030765e+02
   4.638764e+01  -1.085608e+02
   7.675867e+01  -5.150587e+01
   5.876959e+01   6.305610e+00
   2.180069e+01   2.553135e+01
   4.997159e+00   1.196079e+01
   9.789362e+00   1.035197e+01
   1.824545e+01   3.425235e+01
   1.136327e+01   5.921519e+01
  -1.639756e+01   4.573185e+01
  -4.950886e+01  -6.449975e+00
  -5.735469e+01  -5.906959e+01
  -2.124825e+01  -7.204534e+01
   4.268307e+01  -3.092912e+01
   7.736117e+01   3.241524e+01
   4.019051e+01   6.916196e+01
  -3.914141e+01   5.378818e+01
  -7.639445e+01   1.367464e+00
  -3.702415e+01  -4.289685e+01
   2.221192e+01  -4.988897e+01
   3.214051e+01  -2.081557e+01
  -1.321356e+01   1.068446e+01
  -4.786096e+01   1.028095e+01
  -1.760267e+01  -1.999005e+01
   4.925705e+01  -4.905398e+01
   8.624100e+01  -3.772607e+01
   5.563936e+01   1.316028e+01
  -4.034500e+00   6.073017e+01
  -3.887085e+01   6.158315e+01
  -3.519876e+01   1.602316e+01
  -1.280551e+01  -3.231807e+01
   9.916456e+00  -3.618969e+01
   2.420802e+01  -6.871163e-01
   2.608255e+01   3.362800e+01
   5.780037e+00   3.114062e+01
  -2.348106e+01   1.943058e+00
  -3.345709e+01  -1.688708e+01
  -1.705285e+01  -7.047490e+00
   4.792049e+00   1.462827e+01
   6.265019e+00   1.336965e+01
  -8.582636e+00  -1.685660e+01
  -1.027599e+01  -4.073696e+01
   1.208748e+01  -2.553455e+01
   3.331883e+01   1.635418e+01
   2.004573e+01   3.851849e+01
  -2.144184e+01   2.318904e+01
  -4.777123e+01  -1.511068e+01
  -2.025227e+01  -3.822625e+01
   3.625885e+01  -2.869188e+01
   6.566753e+01  -2.073033e-01
   3.831626e+01   2.503264e+01
  -1.609413e+01   3.485564e+01
  -4.312896e+01   2.780469e+01
  -2.401178e+01   9.676407e+00
   1.174525e+01  -5.965964e+00
   2.007497e+01  -5.186070e+00
  -6.786577e+00   1.260619e+01
  -4.182400e+01   1.974531e+01
