
 $NMID
 id='ANONYMOUS ', fmtdat='(2E16.6)'
 volume=1.0
 tramp=1.0
 $END
  -4.534689e+03  -5.903362e+01
  -2.733536e+03  -2.960356e+03
   9.632971e+02  -2.848152e+03
   2.327862e+03  -6.904739e+02
   8.922794e+02   9.499206e+02
  -9.204609e+02   7.134446e+02
  -1.057394e+03  -5.214495e+02
   3.464629e+01  -1.199905e+03
   9.448748e+02  -8.087379e+02
   1.022720e+03   1.391254e+02
   4.249410e+02   9.551164e+02
  -3.321706e+02   9.263752e+02
  -7.152089e+02   5.953486e+01
  -3.894840e+02  -8.105717e+02
   3.290659e+02  -7.754396e+02
   6.582432e+02   5.554710e+01
   2.439002e+02   7.419298e+02
  -3.902662e+02   6.312341e+02
  -6.038231e+02   1.218235e+01
  -3.579332e+02  -4.143466e+02
   3.035397e+01  -4.466949e+02
   2.814728e+02  -2.423889e+02
   2.555258e+02   2.633895e+01
  -1.003700e+02   1.477857e+02
  -4.480152e+02  -8.324338e+01
  -2.371771e+02  -4.630774e+02
   4.842326e+02  -4.711494e+02
   9.288677e+02   8.463891e+01
   4.634319e+02   6.255470e+02
  -4.287375e+02   5.590328e+02
  -8.120648e+02  -8.668177e+00
  -3.875066e+02  -5.061162e+02
   2.740175e+02  -5.534607e+02
   5.837499e+02  -2.074774e+02
   4.189396e+02   2.492084e+02
   4.348819e+01   5.130381e+02
  -2.840098e+02   2.986290e+02
  -2.419898e+02  -2.671995e+02
   1.681226e+02  -5.140222e+02
   5.158608e+02  -3.580307e+01
   3.028512e+02   7.160997e+02
  -3.378990e+02   7.612961e+02
  -6.586343e+02   5.483722e+00
  -2.809591e+02  -6.085115e+02
   3.380831e+02  -3.616410e+02
   4.377446e+02   3.413302e+02
  -4.890951e+01   5.889555e+02
  -5.734093e+02   1.559498e+02
  -6.162695e+02  -4.118043e+02
  -1.563563e+02  -5.941810e+02
   3.990839e+02  -3.446692e+02
   6.330704e+02   9.123894e+01
   3.615573e+02   4.127544e+02
  -1.782473e+02   3.825383e+02
  -4.682383e+02   3.238307e+01
  -2.373975e+02  -2.520730e+02
   1.617172e+02  -1.315746e+02
   1.804870e+02   1.838398e+02
  -1.759533e+02   2.262269e+02
  -3.803403e+02  -8.003901e+01
  -1.407208e+02  -3.264089e+02
   2.252333e+02  -2.525339e+02
   3.140254e+02  -4.106308e+01
   1.549212e+02   7.418387e+01
  -3.303354e+01   1.657786e+02
  -1.775497e+02   2.798758e+02
  -2.831713e+02   2.262393e+02
  -2.818987e+02  -1.200496e+02
  -8.649540e+01  -4.298919e+02
   1.269978e+02  -3.695286e+02
   1.483719e+02  -7.020512e+01
   1.797707e+01   5.413123e+01
   1.935720e+00  -7.382796e+01
   1.614748e+02  -1.552406e+02
   2.747235e+02   2.071822e+01
   1.792825e+02   2.624566e+02
  -5.702758e+01   2.683859e+02
  -2.322679e+02   2.893218e+01
  -2.149349e+02  -2.301856e+02
  -3.621827e+00  -3.026254e+02
   2.618810e+02  -1.328447e+02
   3.652128e+02   1.535048e+02
   1.889905e+02   3.528176e+02
  -1.075187e+02   3.037698e+02
  -2.312987e+02   1.025959e+02
  -1.407624e+02  -1.618475e+01
  -7.120787e+01   2.582725e+01
  -1.925039e+02   7.952953e+01
  -3.660719e+02  -2.331309e+01
  -3.225699e+02  -2.413725e+02
  -2.689174e+01  -4.119752e+02
   3.123092e+02  -3.989070e+02
   4.520959e+02  -2.122379e+02
   3.322287e+02   7.574051e+01
   6.687616e+01   2.844333e+02
  -1.342749e+02   2.558510e+02
  -1.062529e+02   2.186105e+01
   1.021813e+02  -1.299698e+02
   2.110362e+02  -9.772685e+00
   6.962688e+01   2.060973e+02
  -1.654597e+02   1.931259e+02
  -1.992205e+02  -5.803113e+01
   6.601743e+00  -2.079671e+02
   1.990721e+02  -5.424746e+01
   1.643940e+02   2.293999e+02
  -2.722286e+01   3.276257e+02
  -2.196808e+02   1.777278e+02
  -2.880981e+02  -5.510236e+01
  -2.576688e+02  -2.083253e+02
  -1.087702e+02  -2.476640e+02
   9.419667e+01  -1.621530e+02
   1.760152e+02  -2.543661e+01
   6.794712e+01   3.964732e+01
  -7.135903e+01  -2.829391e+01
  -3.704916e+01  -1.258041e+02
   1.210127e+02  -1.052988e+02
   1.802085e+02   1.128938e+01
   5.813405e+01   7.709993e+01
  -8.176435e+01   2.431888e+01
  -5.904853e+01  -6.394729e+01
   1.110113e+02  -7.686027e+01
   2.564225e+02  -5.959811e+00
   2.373751e+02   1.119382e+02
   5.914303e+01   2.263868e+02
  -1.614579e+02   2.452418e+02
  -2.622499e+02   1.243088e+02
  -1.685655e+02  -5.280293e+01
   2.605121e+01  -1.174847e+02
   9.821691e+01  -1.070488e+01
  -1.787873e+01   1.064703e+02
  -1.818568e+02   6.764707e+01
  -2.029751e+02  -9.586689e+01
  -6.856385e+01  -2.011995e+02
   9.070305e+01  -1.538685e+02
   1.421887e+02  -2.880134e+01
   7.779141e+01   4.050652e+01
  -1.662570e+01   1.117645e+01
  -3.565257e+01  -6.591287e+01
   6.163327e+01  -1.084939e+02
   1.802860e+02  -2.982894e+01
   1.815886e+02   1.140121e+02
   2.103716e+01   2.111606e+02
  -1.651078e+02   1.590976e+02
  -1.932117e+02   1.196393e-01
  -6.323556e+01  -1.180230e+02
   6.748519e+01  -1.099935e+02
   8.408249e+01  -2.969363e+01
   2.269157e+01   2.464317e+01
  -1.337229e+01   2.022916e+01
   1.084429e+01  -1.062311e+00
   6.075705e+01   1.409040e+01
   7.571082e+01   7.257820e+01
   1.574345e+01   1.405347e+02
  -1.130276e+02   1.448181e+02
  -2.201943e+02   2.826702e+01
  -1.936522e+02  -1.377065e+02
  -3.747424e+01  -2.285101e+02
   1.072398e+02  -1.648616e+02
   1.309099e+02  -2.238626e+01
   6.209774e+01   5.880552e+01
   2.283034e+01   3.340613e+01
   4.861197e+01  -1.446847e+01
   7.356015e+01  -5.136440e+00
   3.366166e+01   4.695739e+01
  -3.959002e+01   7.651826e+01
  -8.636372e+01   4.708597e+01
  -7.181088e+01  -2.914886e+01
   8.921316e+00  -9.322426e+01
   1.241040e+02  -7.983707e+01
   1.824984e+02   4.030670e+01
   1.015808e+02   1.807251e+02
  -9.289306e+01   2.175377e+02
  -2.532479e+02   9.578035e+01
  -2.513354e+02  -7.865365e+01
  -1.062947e+02  -1.686788e+02
   4.052386e+01  -1.410436e+02
   9.476641e+01  -7.826439e+01
   7.908272e+01  -6.252239e+01
   6.409266e+01  -8.342049e+01
   8.972897e+01  -7.096260e+01
   1.216020e+02   2.200868e+01
   1.126298e+02   1.455380e+02
   3.046135e+01   2.167220e+02
  -9.481027e+01   1.640702e+02
  -1.694746e+02   2.291414e+01
  -1.325804e+02  -1.159874e+02
  -2.012527e+01  -1.549909e+02
   5.923662e+01  -9.124719e+01
   5.613438e+01  -3.182717e+00
   7.684278e+00   3.842876e+01
  -3.214737e+00   2.996676e+01
   3.632530e+01   1.696241e+01
   7.139196e+01   2.196358e+01
   3.723927e+01   3.712651e+01
  -5.618301e+01   3.379064e+01
  -1.398293e+02   5.663815e+00
  -1.303882e+02  -4.170199e+01
  -1.991523e+01  -7.760714e+01
   1.047523e+02  -6.957879e+01
   1.317304e+02  -1.704756e+01
   4.402486e+01   3.174069e+01
  -5.581420e+01   3.038058e+01
  -6.702241e+01  -1.899052e+01
  -1.261559e+00  -6.089130e+01
   5.560113e+01  -5.076548e+01
   5.823115e+01   5.448218e+00
   3.744135e+01   4.842942e+01
   3.718922e+01   3.978762e+01
   5.428367e+01   2.473622e+00
   6.073945e+01  -9.514389e-01
   2.895680e+01   5.804551e+01
  -3.211564e+01   1.322243e+02
  -1.040961e+02   1.310964e+02
  -1.424824e+02   3.158977e+01
  -1.107211e+02  -8.321201e+01
  -3.326242e+00  -1.135643e+02
   8.312645e+01  -5.142361e+01
   5.438536e+01   2.109947e+01
  -6.120646e+01   2.265052e+01
  -1.311721e+02  -3.820623e+01
  -7.524818e+01  -9.987576e+01
   6.677570e+01  -1.057540e+02
   1.730959e+02  -5.106561e+01
   1.494944e+02   2.913597e+01
   3.826033e+01   7.837696e+01
  -5.364926e+01   6.763269e+01
  -4.600990e+01   1.142756e+01
   3.925986e+01  -2.351033e+01
   8.345917e+01   2.273804e+01
   2.627582e+01   1.124106e+02
  -9.466131e+01   1.428943e+02
  -1.643249e+02   5.371185e+01
  -1.156731e+02  -1.003854e+02
  -3.203089e+00  -1.917625e+02
   8.272435e+01  -1.394811e+02
   9.918969e+01   6.327662e+00
   5.724010e+01   1.112154e+02
   7.672856e-01   1.014616e+02
  -4.179971e+01   2.041415e+01
  -5.204406e+01  -3.076423e+01
  -2.744562e+01  -1.069493e+01
  -3.682467e+00   1.996654e+01
  -1.646253e+01  -1.046920e+01
  -5.172832e+01  -8.249592e+01
  -4.294504e+01  -1.054373e+02
   4.041940e+01  -4.528177e+01
   1.299805e+02   3.587789e+01
   1.212816e+02   6.790660e+01
   1.405019e+01   4.552197e+01
  -8.510213e+01   1.856627e+01
  -8.165965e+01   6.247113e+00
  -6.092718e+00  -5.590748e+00
   3.784767e+01  -2.042187e+01
   1.034432e+01  -1.773474e+01
  -2.337740e+01   1.370097e+00
   5.222186e+00   1.159711e+01
   7.063548e+01   5.699698e+00
   8.285434e+01   2.168408e+01
   2.698105e+00   7.238949e+01
  -1.143625e+02   1.038400e+02
  -1.696268e+02   5.152520e+01
  -1.251723e+02  -6.530728e+01
  -1.793203e+01  -1.498550e+02
   7.304923e+01  -1.333946e+02
   1.032748e+02  -4.902513e+01
   7.377240e+01   2.203155e+01
   2.079037e+01   3.182099e+01
  -3.139671e+00   5.157755e+00
   9.462438e+00   1.591540e+00
   3.208012e+01   4.281385e+01
   2.309641e+01   8.475063e+01
  -2.734726e+01   6.718784e+01
  -7.790899e+01  -1.873750e+01
  -6.946263e+01  -1.029831e+02
   2.127243e+00  -1.043787e+02
   8.061359e+01  -1.642096e+01
   9.476301e+01   7.733896e+01
   2.504943e+01   9.805146e+01
  -6.550990e+01   4.671669e+01
  -8.945191e+01  -1.535206e+01
  -3.294642e+01  -4.322770e+01
   3.149553e+01  -4.316233e+01
   2.631603e+01  -2.342592e+01
  -3.415207e+01  -1.452177e+00
  -6.357394e+01   4.512731e+00
  -1.286849e+01  -2.381161e+01
   7.261796e+01  -6.235236e+01
   1.033348e+02  -5.599454e+01
   5.565693e+01   1.052065e+01
  -1.444807e+01   7.614992e+01
  -4.609091e+01   7.382996e+01
  -3.244383e+01   2.881314e+00
   1.507662e+00  -5.277047e+01
   2.541295e+01  -3.677020e+01
   3.309776e+01   2.016412e+01
   2.235475e+01   4.990740e+01
  -5.144101e+00   2.718821e+01
  -2.998335e+01  -1.037015e+01
  -3.554396e+01  -1.904999e+01
  -1.852776e+01  -1.810078e-01
  -6.722925e-01   9.521070e+00
   7.131191e+00  -7.093377e+00
   1.255271e+01  -3.447729e+01
   2.238748e+01  -3.658545e+01
   3.120909e+01  -1.228035e+00
   2.179939e+01   4.767917e+01
  -9.404062e+00   5.865817e+01
  -4.471273e+01   1.684359e+01
  -5.092319e+01  -4.113138e+01
  -9.438656e+00  -6.104234e+01
   5.008775e+01  -2.985330e+01
   7.896151e+01   1.690511e+01
   4.073620e+01   4.117575e+01
  -2.906663e+01   3.423617e+01
  -6.051418e+01   1.496043e+01
  -1.977606e+01   2.387200e+00
   3.786800e+01   2.689333e+00
   3.644863e+01   1.739936e+01
  -3.040121e+01   3.139573e+01
  -8.782930e+01   1.701355e+01
