
 $NMID
 id='ANONYMOUS ', fmtdat='(2E16.6)'
 volume=1.0
 tramp=1.0
 $END
   4.609111e+03   1.458365e+02
   2.601678e+03   2.937274e+03
  -1.060906e+03   2.775667e+03
  -2.185986e+03   7.057314e+02
  -8.421786e+02  -8.508964e+02
   8.566005e+02  -5.788089e+02
   9.314482e+02   5.586021e+02
  -1.090186e+02   1.139494e+03
  -9.402156e+02   7.466484e+02
  -9.421167e+02  -1.657905e+02
  -3.722963e+02  -9.376678e+02
   3.407820e+02  -8.971800e+02
   6.955483e+02  -6.055249e+01
   3.643213e+02   8.137785e+02
  -3.314535e+02   7.713451e+02
  -6.324172e+02  -5.054215e+01
  -2.297573e+02  -7.298053e+02
   3.728957e+02  -6.028434e+02
   5.817633e+02  -1.497169e+01
   3.412004e+02   4.028413e+02
  -2.896528e+01   4.389491e+02
  -2.757481e+02   2.315311e+02
  -2.459909e+02  -2.325277e+01
   1.216540e+02  -1.066394e+02
   4.426733e+02   1.242375e+02
   2.194143e+02   4.498873e+02
  -5.025408e+02   4.157640e+02
  -9.217130e+02  -1.477030e+02
  -4.458314e+02  -6.313023e+02
   4.614807e+02  -5.169173e+02
   8.350775e+02   6.713651e+01
   3.613709e+02   5.343979e+02
  -3.274921e+02   5.484916e+02
  -6.071514e+02   1.931040e+02
  -4.170910e+02  -2.596398e+02
  -3.060487e+01  -5.056708e+02
   2.500942e+02  -2.801790e+02
   1.855247e+02   2.534146e+02
  -2.014892e+02   4.901272e+02
  -5.125296e+02  -2.503608e+01
  -2.572527e+02  -7.571601e+02
   3.739920e+02  -7.600831e+02
   6.633484e+02   2.142017e+01
   2.649668e+02   6.123967e+02
  -3.344866e+02   3.342184e+02
  -4.255930e+02  -3.583989e+02
   8.534888e+01  -5.763115e+02
   6.002717e+02  -1.178774e+02
   6.141444e+02   4.551632e+02
   1.407911e+02   6.165018e+02
  -4.204612e+02   3.420221e+02
  -6.498917e+02  -1.033389e+02
  -3.684576e+02  -4.274700e+02
   1.925659e+02  -3.904443e+02
   4.733010e+02  -3.223672e+01
   2.379150e+02   2.507235e+02
  -1.606127e+02   1.296372e+02
  -1.691161e+02  -1.799897e+02
   1.830222e+02  -2.079526e+02
   3.740711e+02   9.528949e+01
   1.307412e+02   3.216685e+02
  -2.351458e+02   2.425944e+02
  -3.327953e+02   4.021757e+01
  -1.648189e+02  -8.400716e+01
   3.384371e+01  -1.901235e+02
   2.027187e+02  -3.099915e+02
   3.226118e+02  -2.232552e+02
   2.981469e+02   1.455987e+02
   6.578923e+01   4.539125e+02
  -1.358369e+02   3.779805e+02
  -1.396800e+02   8.018151e+01
  -1.747620e+01  -3.433855e+01
  -3.004101e+01   9.031427e+01
  -1.928061e+02   1.443579e+02
  -2.899950e+02  -5.541902e+01
  -1.597376e+02  -2.855851e+02
   8.288286e+01  -2.661410e+02
   2.387808e+02  -8.432556e+00
   2.018923e+02   2.503023e+02
  -1.593606e+01   2.949349e+02
  -2.734633e+02   1.149816e+02
  -3.618753e+02  -1.687775e+02
  -1.749345e+02  -3.563375e+02
   1.127346e+02  -3.036726e+02
   2.364078e+02  -1.072774e+02
   1.491471e+02   1.470368e+01
   7.960813e+01  -2.798226e+01
   2.090590e+02  -7.442078e+01
   3.790912e+02   3.817745e+01
   3.219640e+02   2.700330e+02
   3.051410e+00   4.339826e+02
  -3.498435e+02   4.130012e+02
  -4.844774e+02   2.080218e+02
  -3.459449e+02  -1.033528e+02
  -5.662285e+01  -3.094448e+02
   1.421248e+02  -2.619795e+02
   9.714022e+01  -2.056043e+01
  -1.142275e+02   1.186509e+02
  -2.136657e+02  -9.826649e+00
  -5.659501e+01  -2.177645e+02
   1.872169e+02  -1.841570e+02
   2.044909e+02   7.264203e+01
  -1.700858e+01   2.128002e+02
  -2.095707e+02   3.770043e+01
  -1.625854e+02  -2.508901e+02
   4.449848e+01  -3.468367e+02
   2.316109e+02  -1.827814e+02
   3.276920e+02   7.194874e+01
   2.795480e+02   2.475048e+02
   1.036245e+02   2.771434e+02
  -1.162753e+02   1.726602e+02
  -1.866331e+02   3.013642e+01
  -7.592715e+01  -3.604553e+01
   6.677175e+01   3.546701e+01
   2.731762e+01   1.274020e+02
  -1.232737e+02   1.003350e+02
  -1.827125e+02  -1.767348e+01
  -5.604428e+01  -7.903299e+01
   8.492652e+01  -1.994635e+01
   5.852599e+01   7.508586e+01
  -1.251408e+02   9.072905e+01
  -2.835081e+02   5.563020e+00
  -2.578326e+02  -1.365087e+02
  -6.271691e+01  -2.504160e+02
   1.779246e+02  -2.634989e+02
   2.814626e+02  -1.276187e+02
   1.705390e+02   5.464057e+01
  -2.814632e+01   1.172209e+02
  -9.525985e+01   5.570887e+00
   3.228772e+01  -1.089013e+02
   1.967750e+02  -6.117748e+01
   2.102724e+02   1.083149e+02
   6.276362e+01   2.120964e+02
  -9.854561e+01   1.583388e+02
  -1.463184e+02   2.607025e+01
  -7.487141e+01  -4.486058e+01
   2.305554e+01  -9.788067e+00
   3.726338e+01   7.421099e+01
  -6.928477e+01   1.153185e+02
  -1.900872e+02   3.085792e+01
  -1.861978e+02  -1.221762e+02
  -1.663245e+01  -2.183757e+02
   1.736756e+02  -1.596078e+02
   1.960989e+02   3.784890e+00
   6.126081e+01   1.228013e+02
  -7.211725e+01   1.112405e+02
  -8.621152e+01   2.772861e+01
  -2.382845e+01  -2.804857e+01
   1.691561e+01  -2.162038e+01
  -1.057293e+01   2.628134e+00
  -6.388208e+01  -1.523118e+01
  -7.892149e+01  -8.122194e+01
  -1.084672e+01  -1.534291e+02
   1.253179e+02  -1.448337e+02
   2.261346e+02  -2.360185e+01
   1.988483e+02   1.532283e+02
   3.444351e+01   2.387937e+02
  -1.148361e+02   1.640176e+02
  -1.361867e+02   1.930638e+01
  -6.778059e+01  -5.926221e+01
  -2.569117e+01  -3.526503e+01
  -5.249486e+01   9.557681e+00
  -7.801506e+01  -4.260982e-01
  -3.483103e+01  -4.872886e+01
   4.316365e+01  -7.836169e+01
   9.786532e+01  -4.931526e+01
   7.740234e+01   3.327947e+01
  -1.394644e+01   1.006343e+02
  -1.395578e+02   7.971280e+01
  -1.921416e+02  -5.048982e+01
  -9.699576e+01  -1.946252e+02
   1.129961e+02  -2.254925e+02
   2.744841e+02  -8.702603e+01
   2.569101e+02   9.076597e+01
   1.009846e+02   1.809583e+02
  -4.999092e+01   1.483822e+02
  -1.005389e+02   8.085214e+01
  -8.133524e+01   5.932499e+01
  -6.743006e+01   8.031464e+01
  -8.835339e+01   6.672240e+01
  -1.202550e+02  -2.515114e+01
  -1.084985e+02  -1.528854e+02
  -2.234857e+01  -2.228059e+02
   1.012546e+02  -1.660133e+02
   1.762808e+02  -1.577027e+01
   1.333891e+02   1.270765e+02
   1.786663e+01   1.614766e+02
  -6.940981e+01   9.353074e+01
  -6.230719e+01  -1.149278e+00
  -7.164008e+00  -4.217242e+01
   7.442246e+00  -3.407070e+01
  -3.512177e+01  -1.898780e+01
  -7.521390e+01  -2.534397e+01
  -3.845993e+01  -3.992597e+01
   6.309036e+01  -3.513990e+01
   1.520558e+02  -3.460607e+00
   1.358217e+02   5.372434e+01
   1.396587e+01   8.859653e+01
  -1.146630e+02   7.388182e+01
  -1.406577e+02   1.314440e+01
  -4.518635e+01  -3.802651e+01
   5.770023e+01  -3.415196e+01
   7.068708e+01   1.965013e+01
   2.072563e+00   6.354699e+01
  -5.785709e+01   5.348430e+01
  -5.832637e+01  -4.702421e+00
  -3.702621e+01  -4.704646e+01
  -4.015451e+01  -4.018540e+01
  -6.111879e+01  -4.145493e+00
  -6.880104e+01  -3.124383e+00
  -3.261283e+01  -6.787964e+01
   4.006668e+01  -1.411346e+02
   1.182594e+02  -1.382608e+02
   1.575060e+02  -3.121964e+01
   1.178700e+02   8.814171e+01
   4.720681e+00   1.233879e+02
  -8.258478e+01   6.106508e+01
  -5.952481e+01  -1.560971e+01
   5.680290e+01  -1.968260e+01
   1.312550e+02   4.203444e+01
   7.517378e+01   1.077112e+02
  -7.626699e+01   1.119483e+02
  -1.857067e+02   4.609648e+01
  -1.599533e+02  -3.772789e+01
  -3.638270e+01  -8.868298e+01
   6.182958e+01  -6.903106e+01
   5.091296e+01  -8.210992e+00
  -3.732368e+01   2.710032e+01
  -8.702978e+01  -2.498192e+01
  -2.794742e+01  -1.158068e+02
   9.281339e+01  -1.479171e+02
   1.631163e+02  -6.134817e+01
   1.203567e+02   9.468735e+01
   8.209595e+00   1.903706e+02
  -8.158096e+01   1.439192e+02
  -9.997219e+01  -4.681912e+00
  -5.613395e+01  -1.175250e+02
   3.406528e+00  -1.066897e+02
   4.550153e+01  -1.982561e+01
   5.307028e+01   3.582146e+01
   2.720575e+01   1.327827e+01
   5.190719e+00  -2.216495e+01
   1.685050e+01   1.212046e+01
   5.135205e+01   8.818845e+01
   4.103757e+01   1.097750e+02
  -4.322256e+01   4.173244e+01
  -1.320676e+02  -4.230214e+01
  -1.224646e+02  -7.247564e+01
  -1.395621e+01  -4.992113e+01
   8.780842e+01  -2.043384e+01
   8.660776e+01  -6.283681e+00
   9.922599e+00   7.539233e+00
  -3.829765e+01   2.082176e+01
  -1.126904e+01   1.956035e+01
   2.402840e+01   1.045788e+00
  -4.696024e+00  -8.445324e+00
  -7.562957e+01  -7.029815e+00
  -9.043090e+01  -2.930250e+01
  -2.491273e+00  -7.915382e+01
   1.206687e+02  -1.050896e+02
   1.785416e+02  -4.557542e+01
   1.280924e+02   7.152568e+01
   1.744215e+01   1.556468e+02
  -7.857722e+01   1.397485e+02
  -1.115451e+02   5.227228e+01
  -7.652159e+01  -2.418708e+01
  -2.224730e+01  -3.562115e+01
   1.630199e+00  -8.560695e+00
  -1.140910e+01  -3.344589e+00
  -3.245954e+01  -4.500029e+01
  -1.795795e+01  -9.040393e+01
   3.348870e+01  -7.071257e+01
   8.159471e+01   2.202506e+01
   7.062250e+01   1.125121e+02
  -4.292310e+00   1.109277e+02
  -8.469384e+01   1.748323e+01
  -9.873907e+01  -8.062734e+01
  -2.622855e+01  -1.014129e+02
   6.686955e+01  -4.820316e+01
   9.314365e+01   1.580252e+01
   3.578062e+01   4.942378e+01
  -3.292447e+01   4.683662e+01
  -3.004682e+01   2.443408e+01
   3.211312e+01   1.355737e+00
   6.578286e+01  -4.368154e+00
   1.274535e+01   2.588224e+01
  -8.157411e+01   6.176749e+01
  -1.159893e+02   5.090754e+01
  -5.984832e+01  -1.627260e+01
   2.081471e+01  -8.188978e+01
   5.609365e+01  -7.643418e+01
   3.623453e+01  -1.320795e+00
  -1.217265e+00   5.499057e+01
  -2.626798e+01   3.942529e+01
  -3.420491e+01  -2.107614e+01
  -2.361105e+01  -5.232591e+01
   4.718922e+00  -2.892017e+01
   3.137084e+01   1.236160e+01
   3.653533e+01   2.368602e+01
   1.872343e+01   1.056708e+00
   3.461328e-01  -1.444630e+01
  -6.591884e+00   2.852293e+00
  -1.165367e+01   3.706709e+01
  -2.341299e+01   4.280117e+01
  -3.342512e+01   4.082563e+00
  -2.556653e+01  -4.838143e+01
   8.569386e+00  -6.107263e+01
   4.678832e+01  -1.782529e+01
   5.438128e+01   4.211945e+01
   1.119121e+01   6.283932e+01
  -5.410285e+01   3.023503e+01
  -8.340602e+01  -1.863571e+01
  -4.337407e+01  -4.357219e+01
   3.135336e+01  -3.485662e+01
   6.330488e+01  -1.344586e+01
   2.191911e+01  -2.456886e+00
  -3.848537e+01  -5.906164e+00
  -3.643344e+01  -1.919128e+01
   3.322174e+01  -3.131212e+01
   9.124524e+01  -1.555730e+01
