
 $NMID
 id='ANONYMOUS ', fmtdat='(2E16.6)'
 volume=1.0
 tramp=1.0
 $END
  -2.727058e+03  -5.529022e+02
  -1.619929e+03  -1.516852e+03
   5.612600e+02  -1.669212e+03
   1.391642e+03  -5.967168e+02
   6.695108e+02   2.887854e+02
  -3.050006e+02   2.561259e+02
  -4.677213e+02  -2.617039e+02
   6.237512e+01  -6.093285e+02
   5.716890e+02  -4.345000e+02
   6.173712e+02   7.149195e+01
   2.502562e+02   5.573518e+02
  -1.900124e+02   5.624126e+02
  -3.907092e+02   7.234530e+01
  -1.749744e+02  -4.490172e+02
   1.976710e+02  -4.495105e+02
   3.589205e+02   3.469264e+01
   1.180244e+02   4.316867e+02
  -2.285788e+02   4.012438e+02
  -3.810479e+02   3.820569e+01
  -2.380926e+02  -2.430183e+02
   7.104850e+00  -2.832101e+02
   1.807400e+02  -1.533889e+02
   1.349287e+02  -1.096924e+01
  -8.435862e+01   6.360311e-02
  -2.413150e+02  -1.472916e+02
  -4.920134e+01  -2.828342e+02
   3.520234e+02  -1.747175e+02
   5.355164e+02   1.481588e+02
   2.146451e+02   3.738357e+02
  -2.782447e+02   2.327198e+02
  -4.363688e+02  -1.070957e+02
  -1.471533e+02  -3.172635e+02
   2.309439e+02  -2.727414e+02
   3.707592e+02  -5.485530e+01
   2.353400e+02   1.820395e+02
   1.369667e+01   2.889102e+02
  -1.124034e+02   1.563543e+02
  -5.435042e+01  -1.195025e+02
   1.535392e+02  -2.135585e+02
   2.443595e+02   9.004331e+01
   4.434273e+01   4.467997e+02
  -2.785479e+02   3.975849e+02
  -3.526650e+02  -5.609963e+01
  -9.174651e+01  -3.360115e+02
   1.813927e+02  -1.443894e+02
   1.770379e+02   2.328938e+02
  -1.099011e+02   3.069046e+02
  -3.376108e+02  -9.352039e+00
  -3.129931e+02  -3.339340e+02
  -3.996922e+01  -3.830640e+02
   2.658410e+02  -1.586099e+02
   3.827424e+02   1.275133e+02
   2.053141e+02   2.714535e+02
  -1.113218e+02   2.031591e+02
  -2.883946e+02   3.620882e+00
  -1.564459e+02  -1.198277e+02
   5.249870e+01  -5.244926e+01
   6.489793e+01   6.766186e+01
  -1.013683e+02   5.793599e+01
  -1.835147e+02  -8.517706e+01
  -5.390189e+01  -1.766763e+02
   1.560358e+02  -1.336049e+02
   2.344383e+02  -2.157623e+01
   1.404391e+02   7.380615e+01
  -4.356149e+01   1.656272e+02
  -2.085376e+02   2.055098e+02
  -2.565627e+02   1.021782e+02
  -1.516040e+02  -1.248278e+02
   7.083691e+00  -2.743160e+02
   9.682973e+01  -2.168811e+02
   6.294673e+01  -7.375450e+01
   2.389595e+01  -1.780683e+01
   6.561279e+01  -5.099933e+01
   1.524236e+02  -3.500243e+01
   1.544559e+02   8.504284e+01
   5.136836e+01   1.838561e+02
  -7.446514e+01   1.386403e+02
  -1.367781e+02  -2.647588e+01
  -8.789055e+01  -1.774854e+02
   3.652749e+01  -1.831732e+02
   1.771752e+02  -3.904730e+01
   2.098303e+02   1.502154e+02
   8.533432e+01   2.401751e+02
  -8.769484e+01   1.857979e+02
  -1.608770e+02   6.320025e+01
  -1.070844e+02  -3.056868e+00
  -8.098843e+01   6.288256e+00
  -1.592078e+02  -1.184471e+01
  -2.469241e+02  -1.039561e+02
  -1.721710e+02  -2.246381e+02
   6.457680e+01  -2.766183e+02
   3.013170e+02  -2.149622e+02
   3.539175e+02  -7.107254e+01
   2.022933e+02   1.039546e+02
  -7.135759e+00   1.998316e+02
  -1.088770e+02   1.468489e+02
  -5.047709e+01   2.017107e+01
   7.981793e+01  -5.455588e+01
   1.149571e+02   2.451126e+01
   1.113315e+01   1.192444e+02
  -1.047400e+02   8.595801e+01
  -9.646291e+01  -5.432053e+01
   2.782107e+01  -1.072147e+02
   1.200001e+02   5.866667e+00
   8.032666e+01   1.752236e+02
  -4.911570e+01   2.169864e+02
  -1.598543e+02   1.121977e+02
  -2.297949e+02  -6.788929e+01
  -1.757300e+02  -1.918598e+02
  -3.872488e+01  -1.938033e+02
   1.010402e+02  -1.036797e+02
   1.334919e+02  -2.054312e+00
   4.593397e+01   2.526166e+01
  -3.297453e+01  -3.213268e+01
  -1.990605e+00  -7.722440e+01
   8.586460e+01  -4.873396e+01
   1.082125e+02   2.709384e+01
   3.162502e+01   4.542330e+01
  -4.707240e+01   2.293324e+00
  -2.503105e+01  -4.920415e+01
   8.973019e+01  -3.262256e+01
   1.795380e+02   3.801267e+01
   1.517541e+02   1.172517e+02
   2.888497e+00   1.703732e+02
  -1.614122e+02   1.460383e+02
  -2.056384e+02   5.213177e+01
  -1.044646e+02  -5.052847e+01
   3.018620e+01  -6.659876e+01
   5.603537e+01   3.639686e+00
  -3.941552e+01   5.719982e+01
  -1.393460e+02   1.517920e+01
  -1.245117e+02  -9.034194e+01
  -1.782385e+01  -1.430688e+02
   8.369438e+01  -9.416622e+01
   1.016029e+02  -3.151148e+00
   4.506260e+01   3.815000e+01
  -1.824430e+01   2.837110e-01
  -1.513804e+01  -5.787564e+01
   5.471372e+01  -7.020967e+01
   1.341808e+02   3.515293e+00
   1.117680e+02   1.008620e+02
  -9.029575e+00   1.417936e+02
  -1.244168e+02   9.162230e+01
  -1.285143e+02  -1.009365e+01
  -3.034748e+01  -7.869654e+01
   5.520843e+01  -6.506206e+01
   5.699196e+01  -1.352135e+01
   7.583876e+00   1.841079e+01
  -1.923152e+01   9.205742e+00
   7.953691e+00  -5.670130e+00
   4.738991e+01   1.406045e+01
   5.169463e+01   6.599414e+01
  -7.511982e+00   1.076124e+02
  -9.961941e+01   8.467660e+01
  -1.523838e+02  -6.022427e+00
  -1.155075e+02  -1.179684e+02
  -6.309450e+00  -1.562027e+02
   8.545404e+01  -9.926788e+01
   9.295121e+01  -7.541348e+00
   4.459262e+01   4.275423e+01
   1.605943e+01   2.939791e+01
   3.454441e+01   1.727986e-01
   5.164346e+01   3.744517e+00
   2.522002e+01   3.714490e+01
  -3.505156e+01   5.482436e+01
  -7.574358e+01   2.796220e+01
  -5.594933e+01  -3.186122e+01
   2.377008e+01  -7.087948e+01
   1.048755e+02  -3.805677e+01
   1.228068e+02   5.589703e+01
   4.059946e+01   1.415985e+02
  -9.615239e+01   1.378913e+02
  -1.886329e+02   3.238951e+01
  -1.640942e+02  -8.823873e+01
  -5.324101e+01  -1.256730e+02
   4.682283e+01  -8.894414e+01
   7.476933e+01  -4.256957e+01
   5.614123e+01  -4.001349e+01
   5.281178e+01  -5.408189e+01
   6.792648e+01  -4.098086e+01
   8.116916e+01   2.843296e+01
   5.387905e+01   1.106978e+02
  -1.033308e+01   1.453200e+02
  -8.358702e+01   9.828448e+01
  -1.129486e+02  -1.088769e+01
  -7.104929e+01  -9.787569e+01
   7.611266e+00  -1.061474e+02
   5.538742e+01  -4.878573e+01
   3.671914e+01   1.156661e+01
  -5.723990e+00   3.077292e+01
  -1.661419e+01   1.984053e+01
   1.939679e+01   1.463440e+01
   4.797854e+01   2.306249e+01
   2.716939e+01   2.793815e+01
  -4.508993e+01   1.163331e+01
  -1.039199e+02  -1.944881e+01
  -8.453497e+01  -4.678565e+01
   3.894638e+00  -5.565955e+01
   8.839626e+01  -3.408661e+01
   9.335222e+01   6.514423e+00
   2.518917e+01   3.259866e+01
  -4.383622e+01   1.952040e+01
  -4.774994e+01  -2.048713e+01
  -1.196742e-02  -4.881028e+01
   4.122063e+01  -3.666309e+01
   4.354160e+01   6.172653e+00
   2.952301e+01   4.125708e+01
   2.634574e+01   3.605242e+01
   3.897859e+01   9.884793e+00
   4.323591e+01   8.283987e+00
   1.671221e+01   4.749446e+01
  -3.880880e+01   9.088077e+01
  -9.576436e+01   7.895367e+01
  -1.157317e+02   4.788037e+00
  -7.632682e+01  -7.378710e+01
   8.988443e+00  -8.609026e+01
   6.128482e+01  -3.612220e+01
   4.092898e+01   1.234079e+01
  -3.533922e+01   5.689998e+00
  -7.999178e+01  -4.368702e+01
  -3.479933e+01  -7.919707e+01
   6.653630e+01  -6.593963e+01
   1.302011e+02  -1.081388e+01
   1.022488e+02   4.331503e+01
   1.267589e+01   6.431568e+01
  -4.873377e+01   3.956959e+01
  -3.477299e+01  -1.273606e+00
   2.501107e+01  -1.811852e+01
   5.651387e+01   2.361646e+01
   7.658731e+00   8.090527e+01
  -8.162776e+01   9.257755e+01
  -1.241138e+02   2.363075e+01
  -7.607688e+01  -8.013933e+01
   1.599109e+01  -1.356821e+02
   7.607583e+01  -8.799114e+01
   7.029994e+01   1.522526e+01
   2.715528e+01   8.433175e+01
  -1.342495e+01   6.706542e+01
  -3.184121e+01   7.959957e+00
  -2.804183e+01  -2.496786e+01
  -1.312233e+01  -7.615222e+00
  -5.628911e+00   1.174474e+01
  -1.211537e+01  -1.487815e+01
  -2.557129e+01  -6.573355e+01
  -1.263299e+01  -7.505067e+01
   3.549079e+01  -2.369016e+01
   8.548573e+01   3.963388e+01
   7.489703e+01   5.968275e+01
   6.812689e+00   3.747456e+01
  -5.751786e+01   5.452965e+00
  -5.751624e+01  -6.039305e+00
  -1.166261e+01  -7.923085e+00
   2.524528e+01  -1.011152e+01
   1.275303e+01  -1.000517e+01
  -1.191183e+01  -2.347176e+00
   3.250586e+00   6.375280e+00
   4.739984e+01   1.304533e+01
   5.785568e+01   2.897379e+01
  -1.677488e+00   5.424304e+01
  -9.086923e+01   6.022650e+01
  -1.354804e+02   1.647315e+01
  -9.303981e+01  -5.870226e+01
  -8.134146e-01  -1.097876e+02
   7.391373e+01  -9.469921e+01
   8.774928e+01  -3.037647e+01
   5.167935e+01   2.070487e+01
   1.247766e+01   2.868118e+01
  -9.374544e-01   9.061730e+00
   8.378155e+00   5.994049e+00
   1.537947e+01   3.458959e+01
   1.132924e+00   5.884564e+01
  -2.791755e+01   4.237654e+01
  -4.850023e+01  -2.177909e+01
  -3.656055e+01  -7.822157e+01
   8.317594e+00  -7.388632e+01
   5.417554e+01  -7.718015e+00
   5.778946e+01   5.893254e+01
   1.159846e+01   7.043581e+01
  -4.818445e+01   2.987903e+01
  -6.164327e+01  -1.879864e+01
  -1.878201e+01  -4.035830e+01
   2.916195e+01  -3.093190e+01
   2.431504e+01  -1.421959e+01
  -2.041940e+01   1.693106e-01
  -4.603020e+01  -2.196403e+00
  -8.173709e+00  -1.709685e+01
   5.749062e+01  -3.176109e+01
   8.102795e+01  -2.447650e+01
   4.024302e+01   1.462536e+01
  -1.874467e+01   5.012172e+01
  -4.452883e+01   4.473213e+01
  -2.686053e+01   2.121508e+00
   3.541941e+00  -3.658361e+01
   2.077696e+01  -2.826341e+01
   2.134274e+01   1.247036e+01
   1.341213e+01   3.814971e+01
  -1.969063e+00   2.481011e+01
  -1.912918e+01  -8.057262e+00
  -2.440831e+01  -1.932100e+01
  -1.570142e+01  -4.621024e+00
  -1.782706e+00   1.019240e+01
   5.934697e+00   3.479060e+00
   8.439767e+00  -2.056677e+01
   1.431054e+01  -2.942380e+01
   2.049031e+01  -4.676327e+00
   1.550385e+01   3.124486e+01
  -4.384090e+00   3.969709e+01
  -3.027679e+01   7.384156e+00
  -3.379552e+01  -3.257402e+01
  -3.095428e+00  -4.146758e+01
   4.147299e+01  -1.675185e+01
   5.946183e+01   1.754063e+01
   2.993460e+01   3.334295e+01
  -2.299831e+01   2.609183e+01
  -4.613549e+01   1.093811e+01
  -2.047280e+01   2.743013e+00
   2.096746e+01   4.508703e+00
   2.242188e+01   1.140653e+01
  -2.113154e+01   1.500407e+01
  -5.771517e+01   2.614300e+00
