
 $NMID
 id='ANONYMOUS ', fmtdat='(2E16.6)'
 volume=1.0
 tramp=1.0
 $END
   3.898385e+03   4.362880e+02
   2.281354e+03   2.310738e+03
  -8.560571e+02   2.504679e+03
  -2.040920e+03   7.197931e+02
  -8.715561e+02  -7.137062e+02
   6.251785e+02  -5.952333e+02
   8.061834e+02   4.183425e+02
  -5.872477e+01   1.020969e+03
  -8.556628e+02   6.707669e+02
  -8.752593e+02  -1.670134e+02
  -3.496370e+02  -8.706601e+02
   3.054103e+02  -8.182390e+02
   6.032043e+02  -4.945718e+01
   3.178973e+02   7.066586e+02
  -3.024224e+02   6.793367e+02
  -5.801028e+02  -5.765081e+01
  -2.034975e+02  -6.764638e+02
   3.637044e+02  -5.704336e+02
   5.689359e+02  -3.071297e+01
   3.361653e+02   3.663876e+02
  -2.061326e+01   4.082772e+02
  -2.489567e+02   2.286763e+02
  -2.020754e+02  -3.966047e+00
   1.007455e+02  -8.312772e+01
   3.796616e+02   1.194876e+02
   1.621668e+02   4.162491e+02
  -4.449896e+02   3.694817e+02
  -8.129907e+02  -9.798945e+01
  -3.914858e+02  -5.574205e+02
   3.843694e+02  -4.478056e+02
   6.920478e+02   6.319693e+01
   3.037661e+02   4.775449e+02
  -2.868868e+02   4.753135e+02
  -5.342679e+02   1.465005e+02
  -3.777015e+02  -2.488907e+02
  -2.476091e+01  -4.499519e+02
   2.244457e+02  -2.454029e+02
   1.622429e+02   2.265887e+02
  -1.767053e+02   4.020437e+02
  -4.274104e+02  -3.083473e+01
  -2.034714e+02  -6.446810e+02
   3.428429e+02  -6.392969e+02
   5.650594e+02   2.494849e+01
   2.167374e+02   5.386030e+02
  -2.913950e+02   2.918198e+02
  -3.336073e+02  -3.200328e+02
   8.855519e+01  -5.053341e+02
   5.180011e+02  -8.531521e+01
   5.063147e+02   4.262157e+02
   9.339736e+01   5.539764e+02
  -3.845747e+02   2.927339e+02
  -5.739446e+02  -1.145412e+02
  -3.188110e+02  -3.871672e+02
   1.705928e+02  -3.358028e+02
   4.223903e+02  -3.170156e+01
   2.266010e+02   1.985934e+02
  -1.156447e+02   1.013412e+02
  -1.344611e+02  -1.425434e+02
   1.574146e+02  -1.583703e+02
   3.261818e+02   1.033041e+02
   1.126573e+02   2.993513e+02
  -2.149728e+02   2.216859e+02
  -3.133541e+02   2.931076e+01
  -1.678754e+02  -9.704421e+01
   4.983548e+01  -1.889188e+02
   2.197681e+02  -2.758812e+02
   3.062659e+02  -1.807001e+02
   2.532773e+02   1.393793e+02
   5.838654e+01   4.071288e+02
  -1.294150e+02   3.559737e+02
  -1.316110e+02   9.299712e+01
  -2.963035e+01  -3.579943e+01
  -3.296785e+01   5.764828e+01
  -1.654283e+02   1.059295e+02
  -2.402569e+02  -5.286355e+01
  -1.307789e+02  -2.500429e+02
   7.565952e+01  -2.322983e+02
   2.089523e+02  -1.951976e+00
   1.696261e+02   2.343391e+02
  -2.476731e+01   2.830988e+02
  -2.589662e+02   9.755405e+01
  -3.376059e+02  -1.822932e+02
  -1.601332e+02  -3.552944e+02
   1.209452e+02  -2.921611e+02
   2.398722e+02  -9.008419e+01
   1.513906e+02   2.274489e+01
   8.382136e+01  -1.326542e+01
   1.964536e+02  -4.714967e+01
   3.502149e+02   7.435428e+01
   2.748129e+02   2.727872e+02
  -2.727490e+01   3.954381e+02
  -3.423931e+02   3.389018e+02
  -4.343072e+02   1.553681e+02
  -3.042559e+02  -9.790404e+01
  -4.199399e+01  -2.660324e+02
   1.350595e+02  -2.326357e+02
   9.192339e+01  -3.499922e+01
  -9.872233e+01   9.612700e+01
  -1.918536e+02  -6.270833e+00
  -5.402977e+01  -1.808880e+02
   1.453693e+02  -1.622008e+02
   1.664374e+02   5.459166e+01
  -1.624971e+01   1.742071e+02
  -1.745434e+02   2.260071e+01
  -1.365249e+02  -2.346309e+02
   4.999333e+01  -3.158339e+02
   2.314186e+02  -1.640034e+02
   2.947516e+02   7.076386e+01
   2.406489e+02   2.320675e+02
   7.921918e+01   2.562052e+02
  -1.139511e+02   1.526729e+02
  -1.734655e+02   1.067628e+01
  -6.290591e+01  -4.143815e+01
   6.162060e+01   2.514634e+01
   2.797845e+01   1.161372e+02
  -1.108542e+02   8.993645e+01
  -1.623981e+02  -1.830907e+01
  -5.393199e+01  -6.995310e+01
   6.950322e+01  -1.526357e+01
   4.993583e+01   6.621530e+01
  -1.093957e+02   6.889633e+01
  -2.419931e+02  -1.708494e+01
  -2.257969e+02  -1.333277e+02
  -3.787642e+01  -2.233385e+02
   1.814342e+02  -2.138265e+02
   2.654307e+02  -9.201709e+01
   1.535197e+02   5.955909e+01
  -3.150526e+01   1.035715e+02
  -8.739577e+01   3.579920e+00
   3.146075e+01  -9.257754e+01
   1.795234e+02  -4.198039e+01
   1.852284e+02   1.073849e+02
   4.833385e+01   1.931669e+02
  -9.866639e+01   1.379095e+02
  -1.348810e+02   1.700635e+01
  -6.574008e+01  -4.564279e+01
   2.048207e+01  -8.158379e+00
   2.898952e+01   6.916136e+01
  -6.256742e+01   9.901356e+01
  -1.797938e+02   1.405674e+01
  -1.671208e+02  -1.248062e+02
  -6.839017e+00  -2.028115e+02
   1.672907e+02  -1.430220e+02
   1.880378e+02   1.045229e+01
   5.605981e+01   1.141962e+02
  -7.258985e+01   1.013502e+02
  -8.433745e+01   2.215042e+01
  -1.705630e+01  -2.637346e+01
   1.985855e+01  -1.752946e+01
  -1.023375e+01   5.206874e+00
  -6.363043e+01  -1.337607e+01
  -7.112704e+01  -7.762631e+01
  -3.546836e+00  -1.395664e+02
   1.213869e+02  -1.298939e+02
   2.160661e+02  -8.722792e+00
   1.702136e+02   1.477382e+02
   2.346738e+01   2.147149e+02
  -1.092946e+02   1.486532e+02
  -1.264955e+02   1.342863e+01
  -6.114912e+01  -5.763422e+01
  -2.170654e+01  -3.572747e+01
  -4.450322e+01   1.098679e+01
  -7.197789e+01   2.608601e+00
  -3.607072e+01  -4.891817e+01
   4.056834e+01  -7.675540e+01
   8.775689e+01  -4.279561e+01
   7.149917e+01   3.776324e+01
  -1.745401e+01   9.377366e+01
  -1.275233e+02   6.271577e+01
  -1.741410e+02  -5.550788e+01
  -8.167750e+01  -1.834737e+02
   1.067187e+02  -2.008692e+02
   2.473609e+02  -7.193016e+01
   2.296538e+02   9.911299e+01
   8.779877e+01   1.673387e+02
  -4.825988e+01   1.276834e+02
  -9.148239e+01   6.410649e+01
  -6.856027e+01   5.726098e+01
  -5.954477e+01   8.007297e+01
  -8.560372e+01   6.516210e+01
  -1.185733e+02  -2.678714e+01
  -9.970592e+01  -1.418180e+02
  -1.443355e+01  -2.035386e+02
   1.031094e+02  -1.478411e+02
   1.614433e+02  -5.716266e+00
   1.135491e+02   1.222623e+02
   2.469028e+00   1.490459e+02
  -6.914405e+01   7.940238e+01
  -5.439389e+01  -3.098886e+00
  -1.251872e+00  -3.924568e+01
   1.068143e+01  -2.758725e+01
  -3.062627e+01  -1.776278e+01
  -6.635356e+01  -2.471300e+01
  -3.654253e+01  -3.917998e+01
   5.925947e+01  -3.220130e+01
   1.380727e+02   8.458232e+00
   1.214642e+02   5.406019e+01
   9.723282e+00   7.624458e+01
  -1.073693e+02   5.215702e+01
  -1.257994e+02   3.353314e+00
  -4.153183e+01  -3.716887e+01
   5.363401e+01  -2.839305e+01
   6.453055e+01   2.270836e+01
   2.622324e+00   6.353902e+01
  -5.495850e+01   4.855263e+01
  -5.928904e+01  -8.947865e+00
  -3.780884e+01  -5.147825e+01
  -3.652129e+01  -3.959872e+01
  -5.232245e+01  -4.523855e+00
  -5.599083e+01  -6.138692e+00
  -2.287443e+01  -6.244588e+01
   4.529144e+01  -1.237455e+02
   1.145186e+02  -1.107919e+02
   1.434954e+02  -1.477645e+01
   1.002116e+02   8.640857e+01
  -3.869712e+00   1.102575e+02
  -8.394825e+01   4.608048e+01
  -5.655126e+01  -1.844763e+01
   5.217908e+01  -1.824285e+01
   1.214219e+02   4.061791e+01
   6.414612e+01   9.831941e+01
  -7.344911e+01   9.848609e+01
  -1.695437e+02   3.700499e+01
  -1.417263e+02  -4.529748e+01
  -2.683013e+01  -7.933783e+01
   6.042878e+01  -5.452986e+01
   4.457046e+01  -2.297049e-01
  -3.723541e+01   2.515311e+01
  -7.952951e+01  -2.803754e+01
  -1.927320e+01  -1.100818e+02
   9.669161e+01  -1.282241e+02
   1.555599e+02  -3.958827e+01
   1.047767e+02   1.007783e+02
  -9.792963e+00   1.784613e+02
  -9.107499e+01   1.248473e+02
  -9.811282e+01  -1.164050e+01
  -4.999498e+01  -1.109012e+02
   5.203086e+00  -9.692671e+01
   4.174706e+01  -1.793776e+01
   4.417471e+01   2.839943e+01
   2.234485e+01   7.669115e+00
   5.640635e+00  -1.900046e+01
   1.903290e+01   1.444297e+01
   4.328567e+01   8.318301e+01
   2.912112e+01   1.024351e+02
  -4.553900e+01   3.872475e+01
  -1.215942e+02  -4.218649e+01
  -1.081641e+02  -7.424109e+01
  -9.124062e+00  -4.932452e+01
   8.147511e+01  -1.573379e+01
   7.901105e+01   2.226664e+00
   7.755877e+00   9.291769e+00
  -3.636253e+01   1.631244e+01
  -1.384401e+01   1.423305e+01
   1.992043e+01  -3.616762e-01
  -2.265011e+00  -8.628981e+00
  -6.166100e+01  -7.275506e+00
  -7.684674e+01  -2.659899e+01
  -8.373626e-01  -7.072649e+01
   1.156401e+02  -8.702841e+01
   1.701819e+02  -3.095602e+01
   1.217764e+02   7.483146e+01
   9.818055e+00   1.473868e+02
  -8.552400e+01   1.274929e+02
  -1.100112e+02   4.122208e+01
  -7.102915e+01  -2.700854e+01
  -1.756961e+01  -3.456473e+01
   3.905398e+00  -6.857875e+00
  -8.781800e+00  -1.605617e+00
  -2.851742e+01  -3.838178e+01
  -1.566969e+01  -7.875974e+01
   3.021657e+01  -6.167846e+01
   7.124699e+01   2.109439e+01
   6.138136e+01   1.013265e+02
  -6.081087e+00   1.009801e+02
  -7.834096e+01   1.461515e+01
  -8.752089e+01  -7.652068e+01
  -1.992319e+01  -9.617885e+01
   6.446449e+01  -4.421640e+01
   8.562473e+01   1.862462e+01
   2.901046e+01   4.524132e+01
  -3.100720e+01   3.927149e+01
  -2.782871e+01   1.937779e+01
   3.161512e+01   1.441402e+00
   6.220987e+01   2.104264e+00
   1.260781e+01   2.508337e+01
  -7.095392e+01   5.293088e+01
  -1.029673e+02   4.394510e+01
  -5.646961e+01  -1.728509e+01
   1.951834e+01  -7.286324e+01
   5.331059e+01  -6.598098e+01
   3.619281e+01   1.394329e+00
  -3.498768e+00   5.143417e+01
  -2.921787e+01   3.454093e+01
  -3.205261e+01  -2.048544e+01
  -1.698862e+01  -5.058575e+01
   6.872749e+00  -2.777698e+01
   2.779436e+01   1.185843e+01
   3.032991e+01   2.295469e+01
   1.588703e+01   3.030590e+00
   5.091365e-01  -1.319315e+01
  -4.599629e+00   1.683582e+00
  -8.856302e+00   3.223947e+01
  -2.067267e+01   3.916993e+01
  -3.047178e+01   3.806844e+00
  -2.221010e+01  -4.263836e+01
   8.485097e+00  -5.456200e+01
   4.170963e+01  -1.244569e+01
   4.593798e+01   4.080538e+01
   5.550141e+00   5.753582e+01
  -5.471772e+01   2.651448e+01
  -8.013661e+01  -2.186713e+01
  -4.072161e+01  -4.429670e+01
   3.058579e+01  -3.621361e+01
   6.261658e+01  -1.433729e+01
   2.287915e+01  -1.110472e+00
  -3.301144e+01  -3.975896e+00
  -3.165967e+01  -1.713167e+01
   3.017566e+01  -2.592084e+01
   8.184989e+01  -9.341614e+00
