
 $NMID
 id='ANONYMOUS ', fmtdat='(2E16.6)'
 volume=1.0
 tramp=1.0
 $END
   4.328497e+03   1.662667e+02
   2.558712e+03   2.678769e+03
  -9.917232e+02   2.946269e+03
  -2.407336e+03   8.994519e+02
  -1.114092e+03  -8.365781e+02
   6.777564e+02  -7.514116e+02
   9.445130e+02   4.081509e+02
  -1.681373e+01   1.147269e+03
  -9.404026e+02   7.848297e+02
  -9.935826e+02  -1.771683e+02
  -4.394784e+02  -9.871118e+02
   3.307548e+02  -9.637107e+02
   7.222410e+02  -1.069446e+02
   3.955418e+02   7.936131e+02
  -3.355628e+02   7.800602e+02
  -6.580499e+02  -5.229822e+01
  -2.404306e+02  -7.406850e+02
   4.211236e+02  -6.307092e+02
   6.641574e+02  -1.070893e+01
   3.952762e+02   4.235601e+02
  -3.121303e+01   4.765352e+02
  -2.955301e+02   2.656131e+02
  -2.440584e+02   1.768842e+01
   8.178055e+01  -8.617213e+01
   3.772763e+02   1.127110e+02
   1.809392e+02   4.185594e+02
  -4.779372e+02   3.834761e+02
  -8.725988e+02  -1.215727e+02
  -4.325203e+02  -6.047829e+02
   3.928995e+02  -5.083799e+02
   7.562549e+02   3.889429e+01
   3.465220e+02   4.927695e+02
  -2.912903e+02   5.118785e+02
  -5.780030e+02   1.814082e+02
  -4.162843e+02  -2.694397e+02
  -5.932253e+01  -5.144478e+02
   2.346034e+02  -3.066639e+02
   2.261795e+02   2.001805e+02
  -1.361776e+02   4.577990e+02
  -4.527725e+02   9.985129e+00
  -2.612062e+02  -6.722444e+02
   3.471969e+02  -7.241494e+02
   6.448308e+02  -6.157910e+00
   2.884511e+02   5.666308e+02
  -2.906213e+02   3.506238e+02
  -4.094664e+02  -3.181800e+02
   6.388549e+01  -5.490388e+02
   5.507923e+02  -1.204628e+02
   5.746706e+02   4.249195e+02
   1.343237e+02   6.000924e+02
  -3.985334e+02   3.396867e+02
  -6.265589e+02  -1.016162e+02
  -3.702217e+02  -4.302360e+02
   1.752481e+02  -4.066914e+02
   4.833751e+02  -4.819603e+01
   2.669791e+02   2.557145e+02
  -1.401876e+02   1.578860e+02
  -1.895092e+02  -1.554233e+02
   1.465811e+02  -2.162257e+02
   3.628251e+02   7.455842e+01
   1.475389e+02   3.184954e+02
  -2.302006e+02   2.487477e+02
  -3.419910e+02   2.568091e+01
  -1.773885e+02  -1.259488e+02
   8.390364e+01  -2.075009e+02
   2.675688e+02  -2.529475e+02
   3.338496e+02  -1.593591e+02
   2.577842e+02   1.541985e+02
   4.803549e+01   4.484550e+02
  -1.498108e+02   3.903189e+02
  -1.483881e+02   1.079436e+02
  -4.858146e+01  -3.658275e+01
  -4.610981e+01   5.341995e+01
  -1.847383e+02   1.122963e+02
  -2.566897e+02  -5.524294e+01
  -1.386458e+02  -2.652353e+02
   7.549742e+01  -2.491311e+02
   2.178844e+02  -7.378459e+00
   1.791187e+02   2.407395e+02
  -2.537143e+01   2.923817e+02
  -2.698787e+02   9.809095e+01
  -3.481498e+02  -1.959865e+02
  -1.609546e+02  -3.805093e+02
   1.372457e+02  -3.102518e+02
   2.627990e+02  -1.013539e+02
   1.729280e+02   2.135185e+01
   1.028784e+02  -7.705329e+00
   2.206016e+02  -2.141456e+01
   3.694387e+02   1.208147e+02
   2.808750e+02   3.236144e+02
  -6.082882e+01   4.192024e+02
  -3.931994e+02   3.451514e+02
  -4.839470e+02   1.450720e+02
  -3.304246e+02  -1.115291e+02
  -4.843615e+01  -2.920997e+02
   1.356897e+02  -2.626144e+02
   9.770526e+01  -4.469584e+01
  -1.044703e+02   1.057835e+02
  -1.995387e+02  -7.937331e+00
  -5.446338e+01  -2.041834e+02
   1.694847e+02  -1.829192e+02
   1.915464e+02   6.520156e+01
  -1.253608e+01   1.992983e+02
  -1.965507e+02   3.394595e+01
  -1.506760e+02  -2.611455e+02
   6.815048e+01  -3.515618e+02
   2.535701e+02  -1.747015e+02
   3.232404e+02   1.056758e+02
   2.422336e+02   2.712002e+02
   6.001861e+01   2.785725e+02
  -1.321000e+02   1.580916e+02
  -1.853238e+02   7.533329e+00
  -6.936249e+01  -4.692527e+01
   6.343802e+01   3.213340e+01
   2.489220e+01   1.219866e+02
  -1.250130e+02   9.355350e+01
  -1.799596e+02  -2.179651e+01
  -6.063190e+01  -7.725383e+01
   7.271956e+01  -1.620791e+01
   4.820435e+01   7.018381e+01
  -1.243344e+02   6.662668e+01
  -2.664888e+02  -3.436620e+01
  -2.364992e+02  -1.576048e+02
  -3.863804e+01  -2.453137e+02
   1.985224e+02  -2.366630e+02
   2.903188e+02  -1.042553e+02
   1.721677e+02   6.254420e+01
  -2.367740e+01   1.137316e+02
  -8.853643e+01   1.296889e+01
   3.087183e+01  -8.927018e+01
   1.853060e+02  -4.413213e+01
   1.971028e+02   1.105884e+02
   5.455953e+01   2.082163e+02
  -1.046676e+02   1.528680e+02
  -1.483326e+02   2.112721e+01
  -7.794740e+01  -4.641396e+01
   1.797467e+01  -6.237604e+00
   2.896007e+01   7.366378e+01
  -6.755911e+01   1.027993e+02
  -1.911878e+02   1.281871e+01
  -1.764526e+02  -1.337751e+02
  -4.328474e+00  -2.133244e+02
   1.761965e+02  -1.465899e+02
   1.968405e+02   1.210946e+01
   5.834454e+01   1.215024e+02
  -7.591270e+01   1.081952e+02
  -9.002721e+01   2.483942e+01
  -2.229822e+01  -2.547635e+01
   1.827593e+01  -1.478090e+01
  -1.018790e+01   4.074187e+00
  -6.343951e+01  -2.030323e+01
  -7.150551e+01  -9.034145e+01
   2.607228e+00  -1.501683e+02
   1.352180e+02  -1.309574e+02
   2.264198e+02  -8.122117e+00
   1.824947e+02   1.645507e+02
   1.738224e+01   2.411732e+02
  -1.287098e+02   1.623537e+02
  -1.418761e+02   1.262937e+01
  -6.645602e+01  -7.069342e+01
  -2.295371e+01  -4.436899e+01
  -5.133860e+01   3.650359e+00
  -7.523403e+01  -5.111448e+00
  -3.046003e+01  -5.639302e+01
   5.332917e+01  -7.667447e+01
   1.013370e+02  -3.418641e+01
   7.170105e+01   4.577854e+01
  -2.653093e+01   9.963914e+01
  -1.375133e+02   6.351702e+01
  -1.788975e+02  -6.426585e+01
  -8.282251e+01  -1.945556e+02
   1.147758e+02  -2.101316e+02
   2.648190e+02  -7.016812e+01
   2.443796e+02   1.080165e+02
   9.498304e+01   1.861474e+02
  -5.698974e+01   1.405434e+02
  -1.080424e+02   7.191584e+01
  -8.971070e+01   5.943038e+01
  -7.651888e+01   8.008192e+01
  -9.522182e+01   6.019950e+01
  -1.211055e+02  -3.665175e+01
  -9.854015e+01  -1.573413e+02
  -1.017998e+01  -2.177004e+02
   1.119897e+02  -1.578200e+02
   1.748469e+02  -7.855580e+00
   1.239514e+02   1.311476e+02
   6.752990e-01   1.597184e+02
  -7.524747e+01   8.592203e+01
  -5.704751e+01  -5.066367e+00
   9.130504e-01  -4.127360e+01
   1.208477e+01  -2.820554e+01
  -3.414311e+01  -1.907690e+01
  -7.117205e+01  -3.044629e+01
  -3.665954e+01  -4.297062e+01
   6.528556e+01  -2.764729e+01
   1.504529e+02   1.410900e+01
   1.324031e+02   6.262068e+01
   8.781161e+00   8.302614e+01
  -1.200463e+02   5.709943e+01
  -1.391501e+02   1.824307e+00
  -4.404294e+01  -4.038648e+01
   6.273880e+01  -3.005206e+01
   7.170937e+01   2.461390e+01
  -1.102357e+00   6.812792e+01
  -6.326134e+01   5.220733e+01
  -6.340877e+01  -1.135279e+01
  -3.687624e+01  -5.870592e+01
  -3.443240e+01  -4.748135e+01
  -5.397430e+01  -4.488287e+00
  -6.220586e+01  -5.255642e+00
  -2.483704e+01  -6.835106e+01
   5.098513e+01  -1.374547e+02
   1.265970e+02  -1.222607e+02
   1.609224e+02  -1.052571e+01
   1.071933e+02   1.016300e+02
  -7.069639e+00   1.231910e+02
  -8.974767e+01   5.027922e+01
  -5.952837e+01  -2.021750e+01
   5.978729e+01  -1.584761e+01
   1.305865e+02   5.351307e+01
   6.584148e+01   1.109939e+02
  -8.643171e+01   1.054650e+02
  -1.867696e+02   4.019429e+01
  -1.544957e+02  -4.259131e+01
  -2.941667e+01  -8.681841e+01
   6.292509e+01  -6.375238e+01
   4.608164e+01  -3.853464e+00
  -3.919115e+01   2.611353e+01
  -8.830081e+01  -3.267210e+01
  -1.751814e+01  -1.219437e+02
   1.120817e+02  -1.435103e+02
   1.773268e+02  -4.291576e+01
   1.145875e+02   1.160689e+02
  -1.731322e+01   2.008947e+02
  -1.085272e+02   1.357144e+02
  -1.067523e+02  -1.979565e+01
  -5.186829e+01  -1.263556e+02
   8.126441e+00  -1.061971e+02
   4.787147e+01  -1.696220e+01
   5.064711e+01   3.563600e+01
   2.560545e+01   1.115667e+01
   3.358331e+00  -2.036848e+01
   1.357929e+01   1.401856e+01
   4.357565e+01   8.987676e+01
   3.434612e+01   1.110476e+02
  -4.620596e+01   4.118701e+01
  -1.303196e+02  -4.714892e+01
  -1.213000e+02  -7.681971e+01
  -9.725521e+00  -5.037547e+01
   9.152565e+01  -1.465950e+01
   8.800690e+01   2.047060e-01
   8.765107e+00   1.013189e+01
  -4.121080e+01   2.072398e+01
  -1.598286e+01   1.773100e+01
   2.229167e+01  -4.751220e-01
  -2.249132e+00  -1.002743e+01
  -7.149912e+01  -9.018726e+00
  -8.723703e+01  -3.171494e+01
   8.439971e-02  -8.171034e+01
   1.275003e+02  -1.009879e+02
   1.877121e+02  -3.256364e+01
   1.319377e+02   8.909150e+01
   7.782907e+00   1.661171e+02
  -9.643649e+01   1.363003e+02
  -1.225771e+02   4.098972e+01
  -8.038681e+01  -3.210474e+01
  -1.963659e+01  -3.972705e+01
   6.897417e+00  -1.102766e+01
  -6.183007e+00  -5.867018e+00
  -2.578815e+01  -4.407623e+01
  -1.370024e+01  -8.520822e+01
   3.604223e+01  -6.506941e+01
   7.949062e+01   2.635959e+01
   6.435500e+01   1.164801e+02
  -1.171914e+01   1.158484e+02
  -8.940730e+01   1.563368e+01
  -9.564490e+01  -8.875552e+01
  -1.956748e+01  -1.097750e+02
   7.417514e+01  -4.809147e+01
   9.447438e+01   2.352185e+01
   2.999414e+01   5.488426e+01
  -3.828927e+01   4.481484e+01
  -3.241641e+01   2.007491e+01
   3.632167e+01   3.155446e-01
   6.904295e+01   2.009764e+00
   1.092056e+01   2.926096e+01
  -8.497927e+01   5.869790e+01
  -1.194048e+02   4.133223e+01
  -5.916668e+01  -2.265894e+01
   2.411808e+01  -7.933890e+01
   6.138624e+01  -6.727538e+01
   3.788700e+01   3.959687e+00
  -4.973446e+00   5.781093e+01
  -3.285313e+01   3.751077e+01
  -3.720497e+01  -2.414799e+01
  -2.038868e+01  -5.679501e+01
   1.010434e+01  -3.213584e+01
   3.362369e+01   1.206757e+01
   3.554619e+01   2.539085e+01
   1.860924e+01   4.994547e+00
   1.946659e+00  -1.251837e+01
  -4.190273e+00   4.047812e+00
  -1.135539e+01   3.736207e+01
  -2.659847e+01   4.438092e+01
  -3.809632e+01   3.421262e+00
  -2.721826e+01  -5.162130e+01
   1.049258e+01  -6.371732e+01
   4.786965e+01  -1.604975e+01
   5.163474e+01   4.643972e+01
   7.207401e+00   6.470024e+01
  -5.834527e+01   2.685641e+01
  -8.763149e+01  -2.696389e+01
  -4.464405e+01  -4.931033e+01
   3.381138e+01  -3.609088e+01
   6.763455e+01  -1.207540e+01
   2.532746e+01   9.050083e-01
  -3.954743e+01  -5.009860e+00
  -3.993953e+01  -1.916382e+01
   3.185626e+01  -3.178065e+01
   9.321006e+01  -1.563517e+01
