
 $NMID
 id='ANONYMOUS ', fmtdat='(2E16.6)'
 volume=1.0
 tramp=1.0
 $END
  -4.087774e+03   1.127402e+02
  -2.590480e+03  -2.076511e+03
   3.697404e+02  -2.532645e+03
   1.772208e+03  -1.108565e+03
   9.209479e+02   2.512894e+02
  -3.076803e+02   3.692992e+02
  -6.440387e+02  -3.217950e+02
   1.447085e+01  -8.314250e+02
   6.947039e+02  -6.319786e+02
   8.324147e+02   5.154883e+01
   4.247572e+02   7.175025e+02
  -1.567346e+02   7.847269e+02
  -5.080357e+02   1.344139e+02
  -3.026835e+02  -6.084273e+02
   2.357662e+02  -6.724501e+02
   5.260936e+02  -1.302209e+01
   2.605330e+02   6.121842e+02
  -2.617435e+02   6.194945e+02
  -5.206582e+02   1.467946e+02
  -3.969236e+02  -2.812398e+02
  -6.615367e+01  -3.957065e+02
   1.748199e+02  -2.408560e+02
   1.257891e+02  -3.776135e+01
  -1.408081e+02  -1.221033e+01
  -3.223227e+02  -2.285433e+02
  -5.815864e+01  -4.204402e+02
   5.135784e+02  -2.536058e+02
   7.558347e+02   2.190177e+02
   2.940950e+02   5.252552e+02
  -3.985451e+02   3.443170e+02
  -6.433362e+02  -1.279620e+02
  -2.683562e+02  -4.507216e+02
   2.857421e+02  -4.362293e+02
   5.165598e+02  -1.509108e+02
   3.657002e+02   1.962498e+02
   7.094786e+01   3.881592e+02
  -1.175572e+02   2.128619e+02
  -5.888916e+01  -1.717552e+02
   1.865155e+02  -2.853781e+02
   3.302438e+02   1.040562e+02
   1.113835e+02   6.207175e+02
  -3.274054e+02   5.764747e+02
  -4.853424e+02  -1.317733e+01
  -1.898943e+02  -4.514294e+02
   2.342778e+02  -2.361321e+02
   2.871864e+02   3.247557e+02
  -9.801443e+01   4.778010e+02
  -5.089369e+02   9.277901e+01
  -5.375987e+02  -4.044536e+02
  -1.530216e+02  -5.497912e+02
   3.551877e+02  -3.131651e+02
   5.815031e+02   7.145505e+01
   3.533653e+02   3.250488e+02
  -1.163636e+02   2.969808e+02
  -3.625425e+02   5.655553e+01
  -2.086096e+02  -1.258132e+02
   7.810895e+01  -5.898767e+01
   9.341009e+01   1.284871e+02
  -1.509426e+02   1.321334e+02
  -2.950838e+02  -8.210677e+01
  -1.244837e+02  -2.684355e+02
   1.883847e+02  -2.588090e+02
   3.484994e+02  -9.106503e+01
   2.427009e+02   1.009994e+02
  -2.387697e+01   2.738240e+02
  -2.615429e+02   3.487591e+02
  -3.621168e+02   2.019635e+02
  -2.676325e+02  -1.419755e+02
  -7.409500e+01  -4.061360e+02
   7.414457e+01  -3.724858e+02
   8.485976e+01  -1.542368e+02
   3.616311e+01  -3.679558e+01
   9.237613e+01  -9.910775e+01
   2.226355e+02  -9.309046e+01
   2.634345e+02   8.701440e+01
   1.259530e+02   2.761207e+02
  -9.430999e+01   2.341489e+02
  -2.208971e+02  -2.290769e+01
  -1.709807e+02  -2.638537e+02
   4.156414e+01  -2.902422e+02
   2.757106e+02  -9.079256e+01
   3.483154e+02   1.778726e+02
   1.784988e+02   3.373214e+02
  -8.134043e+01   2.894132e+02
  -2.065197e+02   1.369952e+02
  -1.565334e+02   4.059509e+01
  -1.262990e+02   4.241966e+01
  -2.511633e+02   4.864325e+01
  -4.029561e+02  -8.030836e+01
  -3.204068e+02  -2.957697e+02
   2.016656e+01  -4.500172e+02
   3.817512e+02  -4.051483e+02
   4.872814e+02  -1.744547e+02
   3.055871e+02   1.068038e+02
   3.445214e+01   2.691494e+02
  -1.090015e+02   2.147488e+02
  -4.586503e+01   1.957092e+01
   1.221718e+02  -7.732188e+01
   1.707397e+02   2.903417e+01
   2.777808e+01   1.850557e+02
  -1.497501e+02   1.509511e+02
  -1.468501e+02  -5.801930e+01
   2.638653e+01  -1.697108e+02
   1.800405e+02  -1.526174e+01
   1.562819e+02   2.465230e+02
  -2.991591e+01   3.508707e+02
  -2.510105e+02   2.006513e+02
  -3.519866e+02  -8.028347e+01
  -2.866466e+02  -2.675399e+02
  -7.279285e+01  -2.870181e+02
   1.413243e+02  -1.525997e+02
   1.836716e+02  -2.325792e+00
   5.014150e+01   3.432407e+01
  -6.742367e+01  -4.873640e+01
  -1.197561e+01  -1.264367e+02
   1.386792e+02  -7.937974e+01
   1.689042e+02   3.083434e+01
   3.921260e+01   7.363095e+01
  -9.360621e+01   1.490102e+00
  -5.059048e+01  -8.903821e+01
   1.386636e+02  -8.701353e+01
   2.959758e+02   1.386990e+01
   2.659668e+02   1.565826e+02
   4.083951e+01   2.680210e+02
  -2.058388e+02   2.543157e+02
  -2.899271e+02   1.091623e+02
  -1.575749e+02  -5.979504e+01
   3.446819e+01  -9.829081e+01
   8.175096e+01   2.181803e+00
  -4.757529e+01   9.750692e+01
  -2.003697e+02   4.934508e+01
  -2.073445e+02  -1.073401e+02
  -6.041664e+01  -2.048267e+02
   9.960577e+01  -1.498204e+02
   1.399580e+02  -2.087540e+01
   5.904283e+01   4.406957e+01
  -3.889912e+01  -1.013084e+01
  -3.307957e+01  -1.026826e+02
   8.506494e+01  -1.180059e+02
   2.174488e+02  -1.137330e+01
   1.874805e+02   1.457843e+02
   5.834010e+00   2.221220e+02
  -1.720506e+02   1.509177e+02
  -1.884358e+02  -2.989276e+00
  -5.609416e+01  -1.108021e+02
   6.761939e+01  -1.033751e+02
   7.703662e+01  -2.286854e+01
   6.122818e+00   2.840408e+01
  -2.984226e+01   1.387974e+01
   1.168637e+01  -1.978133e+01
   8.269467e+01   3.320005e+00
   9.469671e+01   9.131623e+01
   8.388749e+00   1.742962e+02
  -1.439335e+02   1.550985e+02
  -2.507615e+02   1.256463e+01
  -1.971755e+02  -1.715914e+02
  -2.933331e+01  -2.431536e+02
   1.158589e+02  -1.626910e+02
   1.362148e+02  -1.997147e+01
   6.790346e+01   5.505678e+01
   2.749380e+01   3.037359e+01
   5.693750e+01  -1.764648e+01
   9.020347e+01  -6.674441e+00
   5.012804e+01   5.798223e+01
  -4.460857e+01   1.012374e+02
  -1.138834e+02   6.124846e+01
  -9.683412e+01  -4.266561e+01
   1.775692e+01  -1.230026e+02
   1.541896e+02  -8.634213e+01
   2.066323e+02   6.590730e+01
   9.068858e+01   2.188439e+02
  -1.308889e+02   2.305341e+02
  -2.841023e+02   8.103657e+01
  -2.544053e+02  -1.033352e+02
  -9.965482e+01  -1.803648e+02
   4.286704e+01  -1.392508e+02
   8.783675e+01  -7.681894e+01
   7.168757e+01  -7.048888e+01
   6.310557e+01  -9.620395e+01
   9.962251e+01  -7.830796e+01
   1.350804e+02   2.376748e+01
   1.193197e+02   1.591008e+02
   1.922781e+01   2.302049e+02
  -1.109348e+02   1.634490e+02
  -1.759755e+02   4.606156e+00
  -1.248760e+02  -1.329891e+02
  -3.386083e+00  -1.567985e+02
   7.696987e+01  -8.073140e+01
   5.991042e+01   9.633099e+00
  -4.604027e+00   4.963110e+01
  -1.959282e+01   3.240538e+01
   3.420706e+01   1.370788e+01
   8.510713e+01   1.800698e+01
   4.787094e+01   4.167832e+01
  -7.137740e+01   4.201743e+01
  -1.678439e+02   2.121727e-01
  -1.440417e+02  -6.296847e+01
  -6.723707e+00  -9.644146e+01
   1.299953e+02  -7.291002e+01
   1.478109e+02  -7.052377e+00
   4.687763e+01   4.747496e+01
  -6.189711e+01   3.965517e+01
  -7.941405e+01  -2.341992e+01
  -1.204008e+01  -7.508152e+01
   5.481078e+01  -6.269748e+01
   7.059371e+01  -2.137964e-01
   5.305205e+01   4.976494e+01
   4.754556e+01   4.151093e+01
   6.023530e+01   3.469656e+00
   6.794429e+01   5.549950e+00
   4.137831e+01   7.215063e+01
  -3.007605e+01   1.535160e+02
  -1.248108e+02   1.466037e+02
  -1.773771e+02   3.662555e+01
  -1.293985e+02  -9.937882e+01
  -3.985347e+00  -1.340406e+02
   9.211524e+01  -6.768972e+01
   6.373427e+01   1.887623e+01
  -5.715797e+01   3.014043e+01
  -1.389598e+02  -3.793648e+01
  -7.621915e+01  -1.095845e+02
   8.363386e+01  -1.154025e+02
   1.877747e+02  -5.179983e+01
   1.579162e+02   4.041969e+01
   3.015098e+01   8.521692e+01
  -6.369001e+01   6.271413e+01
  -4.592764e+01  -5.503333e-01
   4.360374e+01  -3.030214e+01
   9.518554e+01   2.742596e+01
   3.383053e+01   1.227835e+02
  -9.465481e+01   1.516035e+02
  -1.712056e+02   5.643447e+01
  -1.266164e+02  -1.039440e+02
  -5.217498e+00  -1.966679e+02
   9.401738e+01  -1.386506e+02
   1.097771e+02   1.330107e+01
   5.619986e+01   1.218759e+02
  -1.092147e+01   1.077602e+02
  -5.166106e+01   1.818155e+01
  -4.782924e+01  -3.309799e+01
  -2.135285e+01  -9.737092e+00
  -6.802250e+00   1.917998e+01
  -2.959773e+01  -1.612062e+01
  -5.875663e+01  -9.087019e+01
  -3.327945e+01  -1.125025e+02
   5.786618e+01  -5.068734e+01
   1.393325e+02   3.632886e+01
   1.256332e+02   7.168004e+01
   1.726500e+01   5.461353e+01
  -8.240704e+01   2.509943e+01
  -8.584869e+01   5.882742e+00
  -1.207943e+01  -8.581578e+00
   3.873965e+01  -2.160233e+01
   1.806844e+01  -1.651007e+01
  -1.832372e+01   1.793011e+00
   3.958181e+00   6.880360e+00
   7.233073e+01   3.262047e+00
   9.394935e+01   2.506973e+01
   1.721436e+01   8.296510e+01
  -1.102882e+02   1.183585e+02
  -1.830926e+02   6.413130e+01
  -1.476696e+02  -6.281417e+01
  -3.277824e+01  -1.631467e+02
   7.574107e+01  -1.517448e+02
   1.154908e+02  -6.045730e+01
   8.334615e+01   2.465786e+01
   2.656097e+01   3.786453e+01
  -2.007696e-01   1.123409e+01
   1.128114e+01   7.214803e+00
   3.071548e+01   4.820004e+01
   2.109002e+01   8.905662e+01
  -3.100224e+01   7.146727e+01
  -8.227127e+01  -1.552315e+01
  -8.059416e+01  -1.033565e+02
  -6.971897e+00  -1.131796e+02
   8.243058e+01  -2.774373e+01
   1.039887e+02   7.301798e+01
   3.218167e+01   1.061409e+02
  -6.820165e+01   6.123755e+01
  -1.018680e+02  -1.194365e+01
  -4.265929e+01  -5.622923e+01
   3.292861e+01  -5.708116e+01
   3.666268e+01  -2.973441e+01
  -3.018577e+01   1.680421e+00
  -6.801101e+01   5.499763e+00
  -1.564330e+01  -2.664648e+01
   7.957369e+01  -6.743994e+01
   1.210664e+02  -5.512959e+01
   6.963742e+01   1.681014e+01
  -1.319108e+01   8.733321e+01
  -5.524705e+01   8.347223e+01
  -4.142842e+01   8.203833e+00
  -4.215612e+00  -5.503454e+01
   2.434478e+01  -4.534430e+01
   3.635373e+01   1.636515e+01
   2.567271e+01   5.834700e+01
  -4.636909e+00   3.894772e+01
  -3.509878e+01  -7.341025e+00
  -3.962559e+01  -2.585524e+01
  -1.842587e+01  -5.610504e+00
   3.295494e+00   1.626388e+01
   5.828228e+00   3.065392e+00
   1.155388e+00  -3.267005e+01
   9.753079e+00  -4.665106e+01
   3.129535e+01  -1.543087e+01
   3.633945e+01   3.831158e+01
   5.891780e+00   6.039501e+01
  -4.182201e+01   2.409540e+01
  -5.657971e+01  -3.608180e+01
  -1.403410e+01  -6.331566e+01
   6.024218e+01  -3.266318e+01
   9.188019e+01   1.987515e+01
   4.738766e+01   4.815866e+01
  -3.127419e+01   4.354175e+01
  -6.644254e+01   2.172295e+01
  -2.598087e+01   2.486110e+00
   3.228102e+01  -1.926040e+00
   3.601420e+01   1.196158e+01
  -2.749483e+01   3.082678e+01
  -8.727471e+01   2.233386e+01
