
 $NMID
 id='ANONYMOUS ', fmtdat='(2E16.6)'
 volume=1.0
 tramp=1.0
 $END
   4.109574e+03   1.046301e+02
   2.517471e+03   2.201790e+03
  -4.217745e+02   2.583855e+03
  -1.765679e+03   1.122261e+03
  -9.535676e+02  -2.321072e+02
   4.250720e+02  -3.719346e+02
   6.943172e+02   3.369609e+02
  -2.363800e+01   8.701436e+02
  -7.210829e+02   6.656189e+02
  -8.425732e+02  -3.332850e+01
  -4.202068e+02  -7.369094e+02
   1.761546e+02  -8.056489e+02
   4.972102e+02  -1.286916e+02
   2.976921e+02   6.328669e+02
  -2.379368e+02   6.934795e+02
  -5.485487e+02   2.412048e+01
  -2.873247e+02  -6.328372e+02
   2.568569e+02  -6.601431e+02
   5.591524e+02  -1.845212e+02
   4.250164e+02   2.845254e+02
   6.353524e+01   4.207492e+02
  -1.953133e+02   2.619502e+02
  -1.581821e+02   4.149648e+01
   1.515948e+02   7.362265e+00
   3.658388e+02   2.345464e+02
   8.712180e+01   4.351910e+02
  -5.278183e+02   2.732633e+02
  -7.728683e+02  -2.333979e+02
  -2.965658e+02  -5.418017e+02
   4.280097e+02  -3.479695e+02
   6.939461e+02   1.497105e+02
   2.697179e+02   4.882775e+02
  -3.199136e+02   4.605198e+02
  -5.592000e+02   1.675896e+02
  -3.933157e+02  -2.166423e+02
  -6.240464e+01  -4.246920e+02
   1.370044e+02  -2.413445e+02
   5.720139e+01   1.836199e+02
  -2.253774e+02   3.323167e+02
  -3.779107e+02  -1.154790e+02
  -1.034004e+02  -6.654259e+02
   3.510041e+02  -6.209695e+02
   5.239633e+02   1.735788e+01
   1.797778e+02   4.894431e+02
  -2.520679e+02   2.285976e+02
  -2.699150e+02  -3.411835e+02
   1.309354e+02  -5.014680e+02
   5.418600e+02  -5.166161e+01
   5.426783e+02   4.623324e+02
   1.384092e+02   5.829479e+02
  -3.885114e+02   3.087911e+02
  -6.176118e+02  -1.088756e+02
  -3.634341e+02  -3.690811e+02
   1.269849e+02  -3.168030e+02
   3.992600e+02  -6.135800e+01
   2.329243e+02   1.298631e+02
  -7.188612e+01   5.630741e+01
  -8.762624e+01  -1.305608e+02
   1.711418e+02  -1.248268e+02
   3.039504e+02   9.651002e+01
   1.222411e+02   2.773134e+02
  -2.027098e+02   2.527033e+02
  -3.569069e+02   9.223278e+01
  -2.485888e+02  -8.909837e+01
   1.492165e+01  -2.713601e+02
   2.759015e+02  -3.753486e+02
   3.895416e+02  -2.041058e+02
   2.787909e+02   1.686232e+02
   5.322822e+01   4.361575e+02
  -1.020079e+02   3.744624e+02
  -8.352587e+01   1.505589e+02
  -2.944885e+01   5.099683e+01
  -9.672728e+01   1.152431e+02
  -2.460275e+02   9.864549e+01
  -2.869294e+02  -1.010738e+02
  -1.265497e+02  -2.954966e+02
   1.012282e+02  -2.416581e+02
   2.278506e+02   3.086704e+01
   1.653579e+02   2.769193e+02
  -5.638002e+01   2.952489e+02
  -2.896382e+02   8.726694e+01
  -3.594460e+02  -1.978249e+02
  -1.670196e+02  -3.597210e+02
   1.028678e+02  -2.999034e+02
   2.148936e+02  -1.352565e+02
   1.559225e+02  -3.383493e+01
   1.235119e+02  -4.782990e+01
   2.677086e+02  -5.252658e+01
   4.291077e+02   9.195402e+01
   3.431371e+02   3.115762e+02
  -2.920291e+01   4.719491e+02
  -4.029036e+02   4.310357e+02
  -5.197535e+02   1.984803e+02
  -3.330465e+02  -1.150044e+02
  -3.601176e+01  -3.015414e+02
   1.278062e+02  -2.363032e+02
   5.344914e+01  -1.997635e+01
  -1.312023e+02   8.148039e+01
  -1.787057e+02  -3.670625e+01
  -2.378403e+01  -2.025399e+02
   1.670728e+02  -1.560668e+02
   1.629283e+02   7.140278e+01
  -3.053469e+01   1.847847e+02
  -1.938263e+02   2.007640e+01
  -1.697937e+02  -2.594167e+02
   3.025576e+01  -3.707526e+02
   2.532722e+02  -2.008622e+02
   3.662051e+02   7.692761e+01
   3.032111e+02   2.898842e+02
   6.817352e+01   3.095660e+02
  -1.519441e+02   1.619600e+02
  -1.874136e+02  -5.003946e-01
  -5.476475e+01  -4.186771e+01
   6.507098e+01   5.246590e+01
   6.008229e+00   1.306299e+02
  -1.399127e+02   8.354488e+01
  -1.755609e+02  -3.641671e+01
  -3.931972e+01  -7.815148e+01
   9.489258e+01  -3.466595e+00
   5.537947e+01   9.239486e+01
  -1.397598e+02   9.457659e+01
  -3.081748e+02  -1.298034e+01
  -2.788275e+02  -1.662126e+02
  -4.709325e+01  -2.762400e+02
   2.152466e+02  -2.633783e+02
   3.004369e+02  -1.156187e+02
   1.621850e+02   5.587155e+01
  -3.323959e+01   9.547647e+01
  -7.998339e+01  -3.410125e+00
   5.979203e+01  -9.545218e+01
   2.145522e+02  -3.673096e+01
   2.141246e+02   1.179517e+02
   6.015758e+01   2.136716e+02
  -1.027561e+02   1.543801e+02
  -1.472802e+02   2.133804e+01
  -6.542515e+01  -4.241206e+01
   3.543590e+01   8.045999e+00
   3.470243e+01   1.015832e+02
  -8.380533e+01   1.171616e+02
  -2.163333e+02   1.190356e+01
  -1.906380e+02  -1.470526e+02
  -2.307629e+00  -2.276987e+02
   1.798838e+02  -1.514354e+02
   1.932136e+02   5.256935e+00
   5.584789e+01   1.147379e+02
  -7.242903e+01   1.056244e+02
  -7.943043e+01   2.295026e+01
  -6.982199e+00  -2.864288e+01
   3.398762e+01  -1.489100e+01
  -7.762209e+00   1.723642e+01
  -7.925634e+01  -5.583160e+00
  -9.674252e+01  -9.068644e+01
  -9.077598e+00  -1.717797e+02
   1.463163e+02  -1.488472e+02
   2.435014e+02   2.133553e+00
   1.970805e+02   1.759088e+02
   3.029973e+01   2.460681e+02
  -1.170755e+02   1.659195e+02
  -1.417758e+02   2.273833e+01
  -7.705119e+01  -5.517226e+01
  -3.489642e+01  -3.555680e+01
  -6.073556e+01   1.058927e+01
  -8.547613e+01  -1.058412e+00
  -4.796700e+01  -5.837338e+01
   4.789380e+01  -1.006054e+02
   1.205026e+02  -6.323171e+01
   1.017803e+02   3.985170e+01
  -1.898506e+01   1.249226e+02
  -1.642542e+02   8.760441e+01
  -2.115169e+02  -7.129489e+01
  -8.582667e+01  -2.254114e+02
   1.403401e+02  -2.307904e+02
   2.916608e+02  -7.430247e+01
   2.596466e+02   1.091942e+02
   1.053792e+02   1.903153e+02
  -5.111664e+01   1.503015e+02
  -1.046235e+02   8.103546e+01
  -8.260062e+01   6.964887e+01
  -6.773341e+01   9.706402e+01
  -1.006674e+02   7.976704e+01
  -1.370415e+02  -2.719095e+01
  -1.206271e+02  -1.684234e+02
  -1.946515e+01  -2.419636e+02
   1.116974e+02  -1.732635e+02
   1.823751e+02  -8.789247e+00
   1.291042e+02   1.396266e+02
   2.798048e+00   1.690142e+02
  -8.311250e+01   9.035244e+01
  -6.640343e+01  -1.136412e+01
   2.530482e+00  -5.324890e+01
   2.182851e+01  -3.628160e+01
  -3.559778e+01  -1.497996e+01
  -9.060990e+01  -2.212527e+01
  -5.152958e+01  -4.507051e+01
   7.624167e+01  -4.199047e+01
   1.831370e+02   1.831878e+00
   1.541074e+02   6.975468e+01
   5.696275e+00   1.008282e+02
  -1.374104e+02   7.349738e+01
  -1.575960e+02   1.074454e+00
  -5.191228e+01  -5.314615e+01
   6.217605e+01  -4.024256e+01
   7.952288e+01   2.317501e+01
   1.214598e+01   7.338062e+01
  -5.341070e+01   6.037407e+01
  -6.445498e+01  -3.598715e+00
  -4.980052e+01  -5.395539e+01
  -4.669559e+01  -4.171280e+01
  -6.324048e+01  -1.005934e+00
  -7.153938e+01  -3.420415e+00
  -4.107155e+01  -7.705383e+01
   3.918165e+01  -1.561321e+02
   1.371122e+02  -1.435462e+02
   1.864042e+02  -2.689705e+01
   1.332129e+02   1.051212e+02
  -4.517608e-01   1.366881e+02
  -9.841675e+01   6.412983e+01
  -6.747789e+01  -1.599377e+01
   5.971402e+01  -1.904238e+01
   1.457085e+02   4.546313e+01
   7.793821e+01   1.152059e+02
  -9.301366e+01   1.189629e+02
  -2.078584e+02   4.859298e+01
  -1.690247e+02  -4.429186e+01
  -3.405395e+01  -9.482162e+01
   6.799356e+01  -7.071697e+01
   5.022853e+01  -2.470814e+00
  -4.148537e+01   2.820113e+01
  -9.514863e+01  -2.692622e+01
  -3.110547e+01  -1.269186e+02
   9.841693e+01  -1.607805e+02
   1.750047e+02  -6.009112e+01
   1.272065e+02   1.073707e+02
   3.500216e+00   2.043056e+02
  -9.754032e+01   1.427398e+02
  -1.113398e+02  -1.739493e+01
  -5.587002e+01  -1.315018e+02
   1.295722e+01  -1.121267e+02
   5.240828e+01  -1.741645e+01
   4.955260e+01   3.616081e+01
   2.042707e+01   9.183664e+00
   8.932794e+00  -2.066881e+01
   2.943182e+01   2.055471e+01
   5.725861e+01   9.703927e+01
   3.118117e+01   1.178052e+02
  -5.922950e+01   4.672267e+01
  -1.446461e+02  -4.610619e+01
  -1.316822e+02  -8.177107e+01
  -1.558372e+01  -5.935597e+01
   9.121698e+01  -2.327136e+01
   9.272752e+01  -2.035176e+00
   1.418939e+01   1.003804e+01
  -4.033399e+01   1.905189e+01
  -1.809282e+01   1.394195e+01
   2.247496e+01  -8.257285e-01
  -2.524779e-01  -5.756030e+00
  -7.331475e+01  -8.648243e-01
  -9.760143e+01  -2.446060e+01
  -1.595882e+01  -8.328146e+01
   1.201515e+02  -1.188315e+02
   2.012779e+02  -6.180343e+01
   1.578741e+02   6.911465e+01
   2.866352e+01   1.745157e+02
  -9.134421e+01   1.674530e+02
  -1.274954e+02   6.307194e+01
  -8.591206e+01  -2.844261e+01
  -2.597089e+01  -4.117505e+01
  -1.052595e+00  -1.129739e+01
  -1.355305e+01  -8.155506e+00
  -3.274732e+01  -5.484252e+01
  -1.665874e+01  -9.875977e+01
   3.387825e+01  -7.567386e+01
   8.521594e+01   2.037115e+01
   8.129799e+01   1.137634e+02
   6.974129e+00   1.176762e+02
  -8.334268e+01   2.660735e+01
  -1.066977e+02  -7.821322e+01
  -3.235780e+01  -1.092493e+02
   7.028481e+01  -6.011905e+01
   1.048165e+02   1.432654e+01
   4.222707e+01   5.762679e+01
  -3.799997e+01   5.856782e+01
  -3.839265e+01   2.948968e+01
   3.236974e+01  -4.890048e-01
   7.259518e+01  -6.555541e+00
   1.536087e+01   2.897145e+01
  -8.996428e+01   6.842110e+01
  -1.294343e+02   5.519519e+01
  -7.129904e+01  -1.752839e+01
   1.805415e+01  -9.057033e+01
   6.265220e+01  -8.700176e+01
   4.251314e+01  -1.100484e+01
   4.638068e+00   5.418003e+01
  -2.359537e+01   4.639853e+01
  -3.573689e+01  -1.440608e+01
  -2.825723e+01  -5.638708e+01
   8.463600e-01  -3.770462e+01
   3.387819e+01   8.347594e+00
   4.246169e+01   2.434668e+01
   2.177953e+01   2.547824e+00
  -3.112438e+00  -1.846821e+01
  -8.447438e+00  -3.601342e+00
  -2.608870e+00   3.393322e+01
  -8.652404e+00   4.893222e+01
  -2.983303e+01   1.436270e+01
  -3.542767e+01  -4.104675e+01
  -5.487529e+00  -6.211347e+01
   4.506048e+01  -2.393000e+01
   6.312788e+01   3.751011e+01
   1.676248e+01   6.469982e+01
  -5.907371e+01   3.485667e+01
  -9.599360e+01  -1.654248e+01
  -5.065555e+01  -4.751346e+01
   3.359664e+01  -4.542983e+01
   7.030054e+01  -2.360363e+01
   2.892677e+01  -5.402830e+00
  -3.348035e+01   3.498173e-01
  -3.468324e+01  -1.119014e+01
   3.105913e+01  -2.743896e+01
   8.989628e+01  -1.760993e+01
