
 $NMID
 id='ANONYMOUS ', fmtdat='(2E16.6)'
 volume=1.0
 tramp=1.0
 $END
  -3.797575e+03   1.459010e+01
  -2.581870e+03  -1.812569e+03
   1.828481e+02  -2.513091e+03
   1.593069e+03  -1.322798e+03
   1.050302e+03   2.928649e+01
  -1.415122e+02   3.190300e+02
  -5.521778e+02  -1.960349e+02
  -2.480063e+01  -7.575443e+02
   5.925220e+02  -6.576227e+02
   7.853646e+02  -5.268831e+01
   4.614601e+02   6.553680e+02
  -6.229031e+01   7.699393e+02
  -4.075441e+02   1.788497e+02
  -2.779702e+02  -5.490232e+02
   1.844510e+02  -6.540467e+02
   5.151705e+02  -5.431542e+01
   3.144989e+02   5.995781e+02
  -1.992681e+02   6.922706e+02
  -5.435162e+02   2.537421e+02
  -4.584532e+02  -2.302556e+02
  -1.061797e+02  -3.860060e+02
   1.500022e+02  -2.467406e+02
   1.072844e+02  -7.977408e+01
  -1.602714e+02  -6.622213e+01
  -3.137970e+02  -2.626627e+02
  -3.357881e+01  -3.974949e+02
   5.138930e+02  -2.088830e+02
   6.989508e+02   2.215007e+02
   2.585614e+02   4.606868e+02
  -3.938805e+02   2.854379e+02
  -6.247008e+02  -1.521317e+02
  -2.327953e+02  -4.454617e+02
   3.101861e+02  -4.212568e+02
   5.323200e+02  -1.535077e+02
   3.682102e+02   2.008131e+02
   7.988860e+01   3.890031e+02
  -8.519863e+01   2.304479e+02
  -1.466031e+01  -1.358199e+02
   2.034161e+02  -2.574127e+02
   2.942772e+02   1.245916e+02
   6.487809e+01   6.055409e+02
  -3.079418e+02   5.528108e+02
  -4.444570e+02  -6.856310e+00
  -1.576453e+02  -4.161783e+02
   2.068781e+02  -1.904501e+02
   2.064567e+02   3.259638e+02
  -1.338928e+02   4.555617e+02
  -5.096107e+02   4.568245e+01
  -5.174533e+02  -4.401507e+02
  -1.467935e+02  -5.559808e+02
   3.515128e+02  -2.961306e+02
   5.786598e+02   8.648880e+01
   3.639360e+02   3.142317e+02
  -8.052840e+01   2.792921e+02
  -3.537552e+02   8.234889e+01
  -2.376584e+02  -7.194918e+01
   2.200459e+01  -3.908296e+01
   6.123239e+01   8.553834e+01
  -1.347072e+02   7.997575e+01
  -2.647287e+02  -8.142826e+01
  -1.174823e+02  -2.465956e+02
   1.912235e+02  -2.483884e+02
   3.662112e+02  -1.096005e+02
   2.670376e+02   9.661318e+01
  -2.115130e+01   3.022910e+02
  -2.947658e+02   3.898068e+02
  -3.958629e+02   2.076130e+02
  -2.750929e+02  -1.683919e+02
  -6.424606e+01  -4.164491e+02
   6.686903e+01  -3.740153e+02
   5.710583e+01  -1.684060e+02
   3.900656e+01  -7.679239e+01
   1.227555e+02  -1.142304e+02
   2.578835e+02  -7.460852e+01
   2.704630e+02   1.227928e+02
   1.088168e+02   2.904481e+02
  -1.058913e+02   2.253555e+02
  -2.166946e+02  -3.732442e+01
  -1.506431e+02  -2.723301e+02
   5.817695e+01  -2.737400e+02
   2.686028e+02  -6.638122e+01
   3.341866e+02   1.927220e+02
   1.702385e+02   3.342256e+02
  -7.905202e+01   2.890548e+02
  -1.995343e+02   1.487090e+02
  -1.586015e+02   5.717841e+01
  -1.411636e+02   5.892290e+01
  -2.862295e+02   4.607908e+01
  -4.403081e+02  -1.099618e+02
  -3.443645e+02  -3.233313e+02
   3.204364e+01  -4.777727e+02
   4.191989e+02  -4.227112e+02
   5.253303e+02  -1.869208e+02
   3.199972e+02   1.178886e+02
   2.404061e+01   2.888590e+02
  -1.179720e+02   2.288251e+02
  -3.176489e+01   4.086950e+01
   1.193262e+02  -4.859586e+01
   1.522492e+02   4.067716e+01
   8.010580e+00   1.716937e+02
  -1.480017e+02   1.219077e+02
  -1.368888e+02  -6.962406e+01
   3.569146e+01  -1.603529e+02
   1.818495e+02  -4.505138e+00
   1.635287e+02   2.583203e+02
  -2.876017e+01   3.701123e+02
  -2.684343e+02   2.040679e+02
  -3.749676e+02  -8.218912e+01
  -2.924295e+02  -2.997246e+02
  -4.811434e+01  -3.101925e+02
   1.566817e+02  -1.525783e+02
   1.758947e+02   9.149496e+00
   4.400749e+01   3.495651e+01
  -5.765658e+01  -5.817022e+01
   3.740773e+00  -1.250710e+02
   1.337865e+02  -7.329326e+01
   1.605865e+02   3.740119e+01
   3.161640e+01   6.773761e+01
  -9.199250e+01  -8.838424e+00
  -4.207791e+01  -9.900193e+01
   1.563900e+02  -9.120741e+01
   3.200805e+02   2.918572e+01
   2.758648e+02   1.842382e+02
   3.114758e+01   2.800763e+02
  -2.284179e+02   2.538403e+02
  -3.026326e+02   1.052260e+02
  -1.565375e+02  -5.651044e+01
   3.240802e+01  -8.927900e+01
   7.333206e+01   5.052635e+00
  -5.787975e+01   9.178758e+01
  -2.029228e+02   3.514698e+01
  -2.021717e+02  -1.159095e+02
  -5.779670e+01  -2.059498e+02
   9.987242e+01  -1.443598e+02
   1.375407e+02  -1.355404e+01
   5.625391e+01   4.501722e+01
  -3.928173e+01  -1.667645e+01
  -2.822482e+01  -1.138895e+02
   9.280295e+01  -1.206416e+02
   2.178232e+02  -7.081281e+00
   1.859533e+02   1.486957e+02
   2.165686e+00   2.222633e+02
  -1.712335e+02   1.497512e+02
  -1.861100e+02   2.524084e-02
  -5.438873e+01  -1.082771e+02
   7.363189e+01  -1.029790e+02
   7.919488e+01  -2.129200e+01
   2.919928e+00   2.974581e+01
  -3.907434e+01   1.224592e+01
   7.944683e+00  -2.455138e+01
   8.833038e+01   3.935516e+00
   1.043792e+02   9.738108e+01
   5.984706e+00   1.808930e+02
  -1.535432e+02   1.535229e+02
  -2.555135e+02  -4.838915e+00
  -1.965360e+02  -1.795600e+02
  -2.810180e+01  -2.457892e+02
   1.163461e+02  -1.640667e+02
   1.380417e+02  -2.336253e+01
   7.545689e+01   5.147195e+01
   3.425866e+01   2.972586e+01
   6.094852e+01  -1.734652e+01
   9.182351e+01  -1.590689e+00
   5.529019e+01   6.410779e+01
  -4.998683e+01   1.100468e+02
  -1.306253e+02   6.371472e+01
  -1.070761e+02  -5.155242e+01
   2.607488e+01  -1.336786e+02
   1.768899e+02  -8.392785e+01
   2.173995e+02   7.873331e+01
   8.313793e+01   2.289275e+02
  -1.425386e+02   2.299331e+02
  -2.860613e+02   7.379037e+01
  -2.534069e+02  -1.084005e+02
  -1.015048e+02  -1.865391e+02
   4.796276e+01  -1.481705e+02
   1.000085e+02  -8.495212e+01
   7.892442e+01  -7.322613e+01
   6.967799e+01  -9.991771e+01
   1.051895e+02  -8.208728e+01
   1.410153e+02   2.879652e+01
   1.210494e+02   1.718944e+02
   1.598429e+01   2.434383e+02
  -1.144849e+02   1.715553e+02
  -1.833138e+02   2.118113e+00
  -1.259815e+02  -1.429107e+02
   3.094183e-01  -1.655193e+02
   8.456322e+01  -8.227146e+01
   6.546108e+01   1.771598e+01
  -4.822784e+00   5.617555e+01
  -2.610225e+01   3.703411e+01
   3.083678e+01   1.428285e+01
   8.722328e+01   2.233066e+01
   4.927355e+01   4.408280e+01
  -7.853526e+01   4.284118e+01
  -1.830267e+02  -7.467950e+00
  -1.496861e+02  -7.550244e+01
   2.541374e+00  -1.039417e+02
   1.426164e+02  -7.121896e+01
   1.564388e+02   1.582886e+00
   4.876303e+01   5.620062e+01
  -6.341904e+01   4.395864e+01
  -8.315431e+01  -2.225450e+01
  -1.701460e+01  -7.536302e+01
   5.198691e+01  -6.341174e+01
   6.825796e+01   1.813759e+00
   5.217434e+01   5.282713e+01
   4.349676e+01   4.149393e+01
   6.079059e+01   8.276497e-01
   7.145130e+01   3.369462e+00
   4.593024e+01   7.867952e+01
  -3.519801e+01   1.595084e+02
  -1.386725e+02   1.481478e+02
  -1.929197e+02   2.942642e+01
  -1.386330e+02  -1.069981e+02
   1.269088e+00  -1.407115e+02
   1.019816e+02  -6.617562e+01
   6.600791e+01   1.628818e+01
  -6.366836e+01   1.884452e+01
  -1.451209e+02  -5.100631e+01
  -7.277105e+01  -1.178083e+02
   9.644999e+01  -1.181021e+02
   2.073695e+02  -4.580019e+01
   1.641795e+02   4.482770e+01
   3.148966e+01   9.179909e+01
  -6.786331e+01   6.461789e+01
  -4.748467e+01  -6.272867e-01
   4.471186e+01  -3.049730e+01
   9.753327e+01   2.562143e+01
   3.659043e+01   1.260534e+02
  -9.162897e+01   1.632936e+02
  -1.711215e+02   6.701932e+01
  -1.303618e+02  -1.006672e+02
  -9.897322e+00  -2.013198e+02
   9.079971e+01  -1.417276e+02
   1.085163e+02   1.709941e+01
   5.476340e+01   1.297586e+02
  -1.425109e+01   1.104862e+02
  -5.422516e+01   1.430036e+01
  -4.994380e+01  -3.750070e+01
  -2.000804e+01  -9.186769e+00
  -7.531737e+00   2.085931e+01
  -3.088706e+01  -2.000243e+01
  -5.777764e+01  -9.720342e+01
  -3.009276e+01  -1.174000e+02
   6.068218e+01  -4.643789e+01
   1.461452e+02   4.535855e+01
   1.306565e+02   8.168696e+01
   1.658370e+01   5.912045e+01
  -9.003592e+01   2.506125e+01
  -9.406164e+01   3.346279e+00
  -1.927098e+01  -9.399608e+00
   3.741830e+01  -1.926790e+01
   2.002373e+01  -1.428234e+01
  -1.826135e+01   2.207639e+00
   1.880005e+00   5.586926e+00
   7.105635e+01  -2.299266e-01
   9.982153e+01   2.275225e+01
   1.996354e+01   8.555477e+01
  -1.202831e+02   1.244753e+02
  -2.084953e+02   6.843735e+01
  -1.637772e+02  -6.681767e+01
  -3.058439e+01  -1.760206e+02
   9.132255e+01  -1.697207e+02
   1.282928e+02  -6.644368e+01
   8.590703e+01   2.621114e+01
   2.648506e+01   4.039985e+01
   2.910106e+00   1.201537e+01
   1.484596e+01   8.459327e+00
   3.421439e+01   5.512986e+01
   1.904870e+01   9.997303e+01
  -3.340799e+01   7.695855e+01
  -8.588838e+01  -1.999864e+01
  -8.397621e+01  -1.131464e+02
  -8.702680e+00  -1.189211e+02
   8.313425e+01  -2.927116e+01
   1.080236e+02   7.538123e+01
   3.607965e+01   1.119007e+02
  -7.140667e+01   6.486633e+01
  -1.091382e+02  -1.190271e+01
  -4.590096e+01  -6.126074e+01
   3.861759e+01  -6.480116e+01
   4.236084e+01  -3.114513e+01
  -3.023527e+01   2.678594e+00
  -7.342055e+01   7.561882e+00
  -1.744900e+01  -2.867913e+01
   8.903448e+01  -6.836672e+01
   1.289386e+02  -5.539496e+01
   7.354857e+01   1.849696e+01
  -1.701258e+01   9.130236e+01
  -6.196687e+01   8.864708e+01
  -4.534902e+01   1.196920e+01
  -6.617189e+00  -5.587612e+01
   2.539344e+01  -4.974872e+01
   3.906356e+01   1.360767e+01
   2.968668e+01   5.936183e+01
  -2.304830e+00   4.075701e+01
  -3.679980e+01  -7.965991e+00
  -4.405604e+01  -2.609815e+01
  -2.173977e+01  -4.337436e+00
   3.788776e+00   1.979509e+01
   7.257657e+00   6.561511e+00
  -3.654262e+00  -3.401133e+01
   2.146570e+00  -5.397082e+01
   2.952366e+01  -2.130494e+01
   4.093638e+01   3.647158e+01
   1.092728e+01   6.240635e+01
  -4.392000e+01   2.586181e+01
  -6.362362e+01  -3.576445e+01
  -1.676583e+01  -6.490548e+01
   6.329692e+01  -3.665436e+01
   1.000793e+02   1.564003e+01
   5.189977e+01   4.781165e+01
  -3.382389e+01   4.793706e+01
  -7.095534e+01   2.642000e+01
  -2.935767e+01   7.151961e+00
   3.308542e+01  -5.030308e-01
   3.471925e+01   9.460616e+00
  -2.887353e+01   2.704264e+01
  -8.719615e+01   1.939335e+01
