
 $NMID
 id='ANONYMOUS ', fmtdat='(2E16.6)'
 volume=1.0
 tramp=1.0
 $END
  -3.589307e+03  -1.886228e+02
  -2.264445e+03  -1.820463e+03
   3.643551e+02  -2.345758e+03
   1.625311e+03  -1.145417e+03
   9.970756e+02   1.298482e+02
  -1.632041e+02   3.482915e+02
  -4.999302e+02  -1.761979e+02
  -2.121041e+01  -7.168407e+02
   5.926384e+02  -6.404070e+02
   7.625425e+02  -4.310602e+01
   4.398064e+02   6.581632e+02
  -9.641464e+01   7.642081e+02
  -4.442512e+02   1.844359e+02
  -2.687854e+02  -5.438844e+02
   2.121920e+02  -6.258663e+02
   4.962822e+02  -3.343971e+01
   2.710766e+02   5.974060e+02
  -2.319820e+02   6.621618e+02
  -5.425145e+02   2.214489e+02
  -4.503859e+02  -2.583409e+02
  -9.993637e+01  -4.192875e+02
   1.626723e+02  -2.687159e+02
   1.283610e+02  -5.275723e+01
  -1.472135e+02  -5.002421e+01
  -3.054284e+02  -2.606556e+02
  -3.668318e+01  -4.102251e+02
   5.025017e+02  -2.040491e+02
   6.815560e+02   2.227462e+02
   2.770479e+02   4.734716e+02
  -3.729968e+02   2.886447e+02
  -5.897970e+02  -1.591615e+02
  -2.256850e+02  -4.482742e+02
   3.148087e+02  -4.162580e+02
   5.336869e+02  -1.218606e+02
   3.629512e+02   2.188702e+02
   6.214815e+01   3.757847e+02
  -8.559570e+01   2.127951e+02
  -5.591474e+00  -1.305963e+02
   2.246948e+02  -2.204832e+02
   2.827533e+02   1.552696e+02
   1.992845e+01   5.891801e+02
  -3.595754e+02   5.209078e+02
  -4.361043e+02  -3.635340e+01
  -1.400975e+02  -4.120038e+02
   2.194868e+02  -1.927400e+02
   2.310372e+02   3.216070e+02
  -1.439221e+02   4.525679e+02
  -5.000325e+02   4.592224e+01
  -5.022979e+02  -4.389924e+02
  -1.312017e+02  -5.651633e+02
   3.533836e+02  -2.895338e+02
   5.734954e+02   1.019687e+02
   3.585633e+02   3.310687e+02
  -9.218275e+01   2.760566e+02
  -3.524847e+02   5.486961e+01
  -2.339235e+02  -9.966549e+01
   3.333230e+01  -5.241442e+01
   8.339766e+01   8.769098e+01
  -1.175923e+02   8.730370e+01
  -2.660804e+02  -8.170830e+01
  -1.267020e+02  -2.413808e+02
   1.838430e+02  -2.466184e+02
   3.686850e+02  -9.358000e+01
   2.695355e+02   1.209132e+02
  -2.585683e+01   3.216994e+02
  -3.086795e+02   3.612465e+02
  -3.905670e+02   1.712184e+02
  -2.603330e+02  -1.765404e+02
  -4.225711e+01  -4.078857e+02
   7.795777e+01  -3.549901e+02
   6.170021e+01  -1.649858e+02
   4.392584e+01  -7.216074e+01
   1.225700e+02  -1.028156e+02
   2.498449e+02  -6.195482e+01
   2.583111e+02   1.212180e+02
   1.048610e+02   2.852637e+02
  -1.089367e+02   2.210655e+02
  -2.156676e+02  -3.171690e+01
  -1.470349e+02  -2.626085e+02
   5.657872e+01  -2.751582e+02
   2.723363e+02  -7.235986e+01
   3.275487e+02   1.968042e+02
   1.595292e+02   3.334459e+02
  -8.273308e+01   2.828086e+02
  -1.974963e+02   1.381409e+02
  -1.539765e+02   4.965445e+01
  -1.479020e+02   5.508593e+01
  -2.832361e+02   3.867695e+01
  -4.268573e+02  -1.091740e+02
  -3.262417e+02  -3.327336e+02
   4.027941e+01  -4.709390e+02
   4.183921e+02  -4.022848e+02
   5.206504e+02  -1.615174e+02
   3.198362e+02   1.331466e+02
   2.072667e+01   2.799860e+02
  -1.217588e+02   2.162848e+02
  -3.530656e+01   2.312730e+01
   1.185172e+02  -5.021040e+01
   1.492369e+02   4.323819e+01
   5.107506e+00   1.673199e+02
  -1.450713e+02   1.168273e+02
  -1.274249e+02  -7.230275e+01
   4.018425e+01  -1.569800e+02
   1.855020e+02   1.855908e-01
   1.534607e+02   2.656331e+02
  -4.440100e+01   3.677086e+02
  -2.731494e+02   2.074720e+02
  -3.748735e+02  -9.699491e+01
  -2.721318e+02  -3.034916e+02
  -3.562607e+01  -2.967154e+02
   1.500581e+02  -1.401222e+02
   1.697284e+02   1.134659e+01
   3.566022e+01   3.153466e+01
  -5.564209e+01  -6.114395e+01
   3.034133e+00  -1.215963e+02
   1.330429e+02  -6.987720e+01
   1.610638e+02   3.584725e+01
   3.629071e+01   6.509351e+01
  -8.669656e+01  -1.085721e+01
  -4.051049e+01  -9.776305e+01
   1.533706e+02  -8.460242e+01
   3.116919e+02   3.822124e+01
   2.697074e+02   1.961057e+02
   2.106871e+01   2.867765e+02
  -2.349415e+02   2.392037e+02
  -3.007127e+02   8.485176e+01
  -1.521966e+02  -6.883741e+01
   3.268310e+01  -9.169569e+01
   7.071066e+01   6.351586e+00
  -5.793506e+01   8.947495e+01
  -2.003838e+02   3.059869e+01
  -1.971176e+02  -1.203276e+02
  -4.738223e+01  -2.096929e+02
   1.070285e+02  -1.445430e+02
   1.371151e+02  -1.202865e+01
   5.235094e+01   4.808570e+01
  -4.069552e+01  -1.393421e+01
  -2.378802e+01  -1.120585e+02
   9.997614e+01  -1.164702e+02
   2.188396e+02  -1.179556e-01
   1.810510e+02   1.561971e+02
  -3.110255e+00   2.232007e+02
  -1.748968e+02   1.440239e+02
  -1.893429e+02  -5.963902e+00
  -5.293245e+01  -1.077655e+02
   7.177240e+01  -9.776303e+01
   7.758835e+01  -1.948421e+01
   4.022502e+00   2.750030e+01
  -3.540761e+01   8.128190e+00
   9.665681e+00  -2.283173e+01
   8.478724e+01   6.026934e+00
   9.751659e+01   1.028717e+02
  -2.624164e+00   1.805009e+02
  -1.589337e+02   1.426549e+02
  -2.506458e+02  -9.801914e+00
  -1.867442e+02  -1.870684e+02
  -1.457329e+01  -2.429549e+02
   1.257812e+02  -1.558997e+02
   1.428118e+02  -1.515050e+01
   7.162876e+01   5.824466e+01
   2.867211e+01   3.683538e+01
   5.476818e+01  -8.230693e+00
   8.727521e+01  -9.213671e-01
   5.292833e+01   6.221947e+01
  -4.899403e+01   1.066207e+02
  -1.302245e+02   5.885941e+01
  -1.085286e+02  -5.403168e+01
   2.685630e+01  -1.324737e+02
   1.787696e+02  -8.130502e+01
   2.129669e+02   8.405909e+01
   7.619014e+01   2.321977e+02
  -1.499682e+02   2.231798e+02
  -2.833051e+02   6.154198e+01
  -2.451971e+02  -1.180770e+02
  -8.627136e+01  -1.875614e+02
   5.574249e+01  -1.363652e+02
   1.022335e+02  -6.995132e+01
   7.508747e+01  -6.344821e+01
   6.614284e+01  -9.505063e+01
   9.865270e+01  -7.844288e+01
   1.381114e+02   2.945682e+01
   1.131597e+02   1.749944e+02
   6.015690e+00   2.412427e+02
  -1.234468e+02   1.668887e+02
  -1.831718e+02  -4.493449e+00
  -1.222469e+02  -1.451770e+02
   3.870769e+00  -1.678492e+02
   8.718359e+01  -8.043295e+01
   6.343689e+01   1.944660e+01
  -7.698728e+00   5.431287e+01
  -2.876616e+01   3.375928e+01
   2.912242e+01   1.453556e+01
   8.726529e+01   2.595208e+01
   4.915511e+01   4.547146e+01
  -7.608152e+01   3.578887e+01
  -1.777756e+02  -1.647791e+01
  -1.440103e+02  -7.742629e+01
   5.393373e+00  -1.045779e+02
   1.452895e+02  -6.958382e+01
   1.533079e+02   6.331532e+00
   4.521204e+01   5.807704e+01
  -6.514788e+01   4.304688e+01
  -8.147901e+01  -2.566628e+01
  -1.269681e+01  -8.176300e+01
   5.533388e+01  -6.713542e+01
   7.268798e+01   4.023434e+00
   5.496979e+01   5.877885e+01
   4.405305e+01   4.698816e+01
   5.920497e+01   1.338334e+00
   7.034208e+01   7.812453e+00
   4.293195e+01   8.264341e+01
  -3.872442e+01   1.581243e+02
  -1.408276e+02   1.390498e+02
  -1.893384e+02   1.846786e+01
  -1.318516e+02  -1.056599e+02
   3.250094e+00  -1.374274e+02
   9.922711e+01  -6.412013e+01
   6.780572e+01   1.812931e+01
  -5.940723e+01   2.123179e+01
  -1.408129e+02  -5.275282e+01
  -7.130709e+01  -1.236370e+02
   9.676442e+01  -1.171557e+02
   2.046225e+02  -3.613419e+01
   1.643367e+02   5.682097e+01
   2.665034e+01   9.475177e+01
  -7.099037e+01   6.067930e+01
  -5.032357e+01  -5.141304e+00
   4.148353e+01  -3.083498e+01
   9.537420e+01   2.875475e+01
   3.257059e+01   1.250900e+02
  -9.883414e+01   1.580312e+02
  -1.753242e+02   5.959625e+01
  -1.284550e+02  -1.095086e+02
   3.604529e+00  -2.088065e+02
   1.064130e+02  -1.406409e+02
   1.106108e+02   2.417834e+01
   4.458424e+01   1.318550e+02
  -2.521321e+01   1.055055e+02
  -5.468032e+01   8.201921e+00
  -4.267135e+01  -3.725977e+01
  -1.621652e+01  -5.939289e+00
  -8.984806e+00   2.064579e+01
  -3.037382e+01  -2.338261e+01
  -5.402685e+01  -1.015571e+02
  -2.482794e+01  -1.159251e+02
   6.228474e+01  -4.115790e+01
   1.414866e+02   5.063725e+01
   1.252511e+02   8.631959e+01
   1.205515e+01   6.195897e+01
  -8.913048e+01   2.375857e+01
  -9.211858e+01  -2.033772e+00
  -1.637600e+01  -1.526548e+01
   3.940871e+01  -1.894956e+01
   2.140605e+01  -1.171075e+01
  -1.709551e+01   3.067655e+00
   2.076073e+00   6.232132e+00
   7.043112e+01   4.265254e+00
   9.590624e+01   3.045983e+01
   1.434316e+01   8.859101e+01
  -1.236979e+02   1.181187e+02
  -2.041118e+02   5.670731e+01
  -1.581470e+02  -7.718232e+01
  -2.183086e+01  -1.757070e+02
   9.625297e+01  -1.595219e+02
   1.289114e+02  -5.784443e+01
   8.221724e+01   3.086757e+01
   2.273059e+01   4.487108e+01
  -1.323229e+00   1.373129e+01
   1.243212e+01   6.225047e+00
   2.977623e+01   5.074117e+01
   1.343257e+01   9.639480e+01
  -3.679331e+01   7.469173e+01
  -8.446232e+01  -2.075446e+01
  -7.867085e+01  -1.150963e+02
  -4.013148e+00  -1.197861e+02
   8.529598e+01  -2.876017e+01
   1.079802e+02   7.816604e+01
   3.282901e+01   1.109029e+02
  -7.313435e+01   6.008742e+01
  -1.069692e+02  -1.780963e+01
  -4.081703e+01  -6.446444e+01
   4.255451e+01  -5.917523e+01
   4.356709e+01  -2.416270e+01
  -2.859223e+01   6.996903e+00
  -7.268482e+01   5.101066e+00
  -1.672464e+01  -3.116049e+01
   8.569777e+01  -6.120251e+01
   1.242556e+02  -4.456474e+01
   7.064556e+01   2.383621e+01
  -2.040223e+01   8.875309e+01
  -6.642650e+01   8.217047e+01
  -4.916103e+01   8.524940e+00
  -4.108061e+00  -5.789274e+01
   2.891596e+01  -4.865096e+01
   3.836811e+01   1.491898e+01
   2.286766e+01   5.946868e+01
  -7.126817e+00   3.922451e+01
  -3.394339e+01  -1.086349e+01
  -3.743308e+01  -2.981115e+01
  -1.825749e+01  -5.061664e+00
   2.330741e+00   2.128476e+01
   4.637453e+00   7.734256e+00
  -9.698113e-01  -3.364110e+01
   6.647946e+00  -5.355044e+01
   3.071979e+01  -1.938440e+01
   3.905348e+01   4.036533e+01
   7.844528e+00   6.488795e+01
  -4.659199e+01   2.384361e+01
  -6.407687e+01  -4.079421e+01
  -1.718887e+01  -6.688628e+01
   6.244530e+01  -3.560285e+01
   1.005584e+02   1.829274e+01
   5.255015e+01   4.974289e+01
  -3.422524e+01   4.626224e+01
  -7.280014e+01   2.497378e+01
  -3.120085e+01   2.567645e+00
   3.111486e+01  -2.349079e+00
   3.496545e+01   1.057485e+01
  -2.804352e+01   2.828465e+01
  -8.422839e+01   1.705090e+01
