
 $NMID
 id='ANONYMOUS ', fmtdat='(2E16.6)'
 volume=1.0
 tramp=1.0
 $END
  -5.788690e+02  -4.645911e+02
  -1.135373e+02  -6.619133e+01
   1.533148e+02  -2.342947e+02
   2.203482e+02  -7.142434e+01
   5.034999e+01  -9.654020e+01
  -5.900791e+01  -1.101858e+02
   3.743586e+01  -7.220143e+01
   6.683210e+01  -3.744079e+01
   5.882369e+01  -3.820310e+00
   3.087926e+00   2.016023e+01
  -1.816914e+01   3.510954e+01
   2.088883e-01   2.737384e+01
   4.264344e+01  -3.515755e+00
   5.343471e+01  -4.047574e+01
   2.471882e+01  -2.438931e+01
  -7.021830e+00   1.811296e+01
  -4.741940e+01   2.393599e+01
  -4.783102e+01   1.371438e+01
  -1.802589e+01  -9.426800e+00
   1.061749e+00  -2.272700e+01
   9.206415e+00  -2.621262e+01
   9.409495e+00  -2.544917e+01
  -1.040186e+01  -2.724013e+01
  -3.290950e-01  -4.091710e+01
  -3.996181e+00  -7.100137e+01
   2.347696e+01  -3.888888e+01
   7.001874e+01   3.189665e+01
   4.839362e+01   9.230197e+01
  -1.347479e+01   4.399172e+01
  -3.946703e+01  -5.818500e+01
  -1.941431e+01  -1.011767e+02
   3.521838e+01  -3.771044e+01
   6.413354e+01   2.371553e+01
   4.646453e+01   2.950028e+01
   1.177534e+01   2.763653e+01
  -8.192012e+00   2.806848e+01
   6.244143e+00   2.207503e+01
   3.514932e+01   3.709937e+00
   5.551848e+01  -2.587985e+00
   3.990793e+00   5.273038e+01
  -8.189048e+01   7.736333e+01
  -8.930160e+01   2.522610e+01
  -2.482445e+01  -4.763405e+01
   3.291164e+01  -3.319969e+01
   1.162216e+01   3.727679e+01
  -5.124715e+01   5.534358e+01
  -6.768907e+01   7.315605e+00
  -2.598399e+01  -8.694108e+01
   1.535095e+01  -9.773899e+01
   3.140501e+01  -4.067310e+01
   3.550057e+01   3.629542e+01
   3.049967e+01   7.153778e+01
   4.291376e+00   4.448555e+01
  -2.297733e+01   3.551809e+00
  -4.374021e+01  -1.690260e+01
  -3.327087e+01  -1.635633e+01
  -1.420106e+01  -1.309292e+00
  -5.578930e+00  -4.054165e+00
  -7.269290e+00  -2.514920e+01
   4.593899e+00  -3.497006e+01
   1.196588e+01  -5.510049e+00
   2.717419e+01   2.436337e+01
   1.754117e+01   1.846973e+01
   1.172241e+01  -1.236009e+01
  -1.221657e+01  -1.857818e+01
  -5.467173e+01   1.053281e+00
  -4.495527e+01   1.226126e+01
   6.645224e+00  -1.448748e+01
   4.369730e+01  -3.820082e+01
   3.863478e+01  -4.297985e+01
   2.486339e+00  -2.607251e+01
   5.621209e+00  -1.585740e+01
   2.659593e+01   6.946705e+00
   2.917766e+01   3.241004e+01
  -4.457067e+00   3.502913e+01
  -2.800264e+01   1.553263e+01
  -1.798212e+01  -1.667571e+01
   1.514298e+01  -3.234544e+01
   3.664926e+01  -2.773056e+01
   3.004528e+01  -4.098350e+00
   1.524198e+01   2.081078e+01
   3.796630e+00   4.638104e+01
  -1.017816e+01   4.245640e+01
  -2.286608e+01   1.714420e+01
  -2.083272e+01  -3.586909e+00
  -1.026564e+01  -7.798641e+00
  -1.985900e+01  -1.624455e+00
  -4.393605e+01  -1.791557e+01
  -4.673651e+01  -5.202840e+01
  -8.506453e+00  -5.819062e+01
   5.271280e+01  -3.526945e+01
   8.499843e+01  -3.171269e+00
   5.364434e+01   1.255331e+01
   1.321294e+01   1.864868e+01
  -1.745142e+01   2.053972e+01
  -1.684157e+01   2.334251e+01
   2.400700e-01   2.035052e+01
   7.650865e+00   1.338351e+01
  -2.797487e+00   1.598907e+01
  -2.261856e+01   9.829135e+00
  -1.496940e+01  -8.039514e+00
   1.572895e+00  -1.609948e+01
   1.789709e+01  -6.448490e+00
   9.075083e+00   1.844769e+01
  -6.648123e+00   3.979438e+01
  -2.556285e+01   3.118812e+01
  -2.461554e+01  -1.262629e+01
  -2.672709e+01  -4.144842e+01
  -1.447330e+01  -5.633377e+01
   1.100728e+01  -3.171421e+01
   2.326466e+01  -3.183083e+00
   2.500019e+01   8.269615e+00
   1.089899e+01   5.962496e+00
   7.060845e+00  -9.252527e+00
   9.806542e+00  -4.031852e+00
   1.018421e+01   1.023831e+01
   7.972097e+00   1.527708e+01
   1.688994e+00  -1.023099e+00
   1.792697e+00  -1.532721e+01
   1.062229e+01  -6.810590e+00
   1.845590e+01   2.271242e+01
   1.807090e+01   4.069484e+01
   7.987192e+00   3.200666e+01
  -1.588105e+01   1.082367e+01
  -3.710952e+01  -5.479825e+00
  -3.643012e+01  -8.645882e+00
  -8.299693e+00  -3.155949e+00
   1.067097e+01   2.338536e+00
   6.557212e+00   2.052900e+00
  -1.848248e+01  -2.182553e+00
  -3.097177e+01  -1.551487e+01
  -1.769937e+01  -2.126028e+01
   1.037970e+01  -1.906437e+01
   2.317251e+01  -5.065866e+00
   2.076254e+01   4.999733e+00
   1.110962e+01   3.985617e+00
   5.180780e+00  -1.933912e+00
   5.108384e+00  -1.052661e-01
   2.231659e+00   1.229232e+01
   9.440932e+00   1.999271e+01
   2.035079e+00   2.036073e+01
  -1.598561e+01   9.483925e+00
  -2.297758e+01  -5.321701e+00
  -1.644603e+01  -9.198166e+00
   4.059458e+00  -5.011360e+00
   1.218426e+01  -1.265226e+00
   4.967937e+00  -3.132332e-01
  -1.643443e+00  -2.071641e+00
  -8.989514e-01   4.275153e-02
   4.267329e+00   5.745601e+00
   4.635268e-02   1.279418e+01
  -7.692765e+00   1.452192e+01
  -1.390221e+01   6.495990e+00
  -1.442614e+01  -7.320217e+00
  -5.072700e+00  -2.184083e+01
  -1.138504e+00  -2.291032e+01
   8.522562e+00  -1.509481e+01
   1.110436e+01  -3.483120e+00
   5.671658e+00   3.237532e+00
   1.168804e+00   4.872480e+00
   5.761778e+00   3.220490e+00
   1.521775e+01   4.365172e+00
   9.251050e+00   8.499501e+00
  -1.829556e+00   6.012940e+00
  -1.708709e+01   5.126759e-01
  -1.579220e+01  -6.376938e+00
  -1.873851e+00  -6.742645e+00
   1.214124e+01  -1.963165e+00
   1.450334e+01   1.295900e+01
   7.719743e+00   2.330223e+01
  -9.631860e+00   1.731245e+01
  -2.533644e+01  -1.515097e+00
  -2.877674e+01  -2.249717e+01
  -1.331415e+01  -2.852818e+01
   5.591048e+00  -1.754981e+01
   1.823188e+01  -1.162262e+00
   2.065038e+01   5.523416e+00
   1.514608e+01   2.980970e+00
   1.334626e+01  -4.025304e-01
   3.094001e+00   4.610903e+00
  -2.920063e+00   1.216712e+01
  -1.209682e+01   1.955418e+01
  -1.066816e+01   1.591504e+01
  -1.142394e+01   5.439384e+00
  -5.900004e+00  -9.581025e+00
   4.102270e+00  -1.532374e+01
   8.479344e+00  -1.223056e+01
   6.685964e+00  -4.761092e+00
  -3.128978e+00  -4.844329e-01
  -6.090388e+00  -1.907625e+00
  -2.560626e+00   9.976343e-01
   4.872621e+00   8.588191e+00
   6.499884e+00   1.022808e+01
   3.547538e+00  -1.149271e+00
  -3.215988e+00  -1.119788e+01
  -1.397179e+01  -1.426719e+01
  -1.206269e+01  -3.917603e+00
   6.579991e-01   4.133894e+00
   1.317713e+01   5.795424e+00
   1.498606e+01   3.516031e+00
   4.229143e+00  -4.318211e+00
  -4.305481e+00  -7.790391e+00
  -3.018859e+00  -5.545334e+00
   6.361261e+00  -1.436060e+00
   8.848065e+00   5.489416e-01
   3.580140e+00   3.563792e+00
   1.856720e+00   7.797596e+00
   5.079321e+00   1.100684e+01
   1.004422e+01   1.158355e+01
   4.929742e+00   1.095248e+01
  -1.033310e+01   9.050143e+00
  -2.634596e+01   3.044183e+00
  -2.811120e+01  -5.245778e+00
  -1.700295e+01  -1.240823e+01
  -1.504668e+00  -9.357760e+00
   9.778986e+00  -4.804258e+00
   9.094358e+00   5.289223e+00
  -7.007092e-01  -2.110941e+00
  -8.330400e+00  -1.584595e+01
  -7.201917e+00  -1.938134e+01
   6.630947e+00  -1.279978e+01
   2.199941e+01   2.621551e+00
   2.019879e+01   1.170203e+01
   9.004617e+00   1.029179e+01
  -1.225323e+00   7.881312e+00
  -8.579803e+00   4.265232e+00
  -5.562995e+00   2.378064e+00
  -3.939800e+00   4.370808e+00
   2.012273e+00   4.885084e+00
  -7.557754e+00   5.314731e+00
  -1.731761e+01   9.954566e-01
  -1.329386e+01  -7.876315e+00
   3.147206e+00  -1.236751e+01
   1.981693e+01  -1.340621e+01
   2.083821e+01  -4.990956e+00
   5.928820e+00   7.315823e+00
  -6.085374e+00   1.575383e+01
  -8.049162e+00   1.052153e+01
  -2.041309e+00  -1.201383e+00
  -2.418814e+00  -5.206972e+00
  -3.964841e+00  -1.207664e+00
  -2.132585e+00  -4.842838e-01
   3.777388e+00  -7.162766e+00
   8.579610e+00  -1.480235e+01
   5.198327e+00  -8.357395e+00
   5.364928e-01   8.068099e+00
   4.170600e+00   2.061255e+01
   5.278269e+00   1.005331e+01
   6.764925e-01  -6.065014e+00
  -7.158411e+00  -1.221034e+01
  -6.046610e+00  -4.229052e+00
  -7.830338e-01   4.330371e+00
   4.672688e+00   3.212381e+00
   4.118338e+00  -3.091901e+00
  -7.182428e-01  -2.884356e+00
  -7.686321e-01   5.460524e+00
   5.838861e+00   1.103876e+01
   3.979704e+00   1.045853e+01
  -7.586131e+00   1.710521e+00
  -2.233838e+01  -8.298875e+00
  -2.195811e+01  -1.398500e+01
  -7.050947e+00  -1.703103e+01
   1.478178e+01  -1.240675e+01
   2.552736e+01  -3.887663e+00
   1.820287e+01   6.023763e+00
   2.602941e+00   5.619406e+00
  -4.430451e+00   1.597510e+00
  -3.518583e+00   1.163513e+00
  -1.004472e+00   4.085165e+00
  -2.599674e+00   8.700010e+00
  -7.171463e+00   8.270436e+00
  -6.172559e+00  -9.627768e-01
   5.605216e-01  -1.240107e+01
   6.878784e+00  -1.636530e+01
   6.285839e+00  -7.614176e+00
   2.070875e+00   7.128360e+00
  -2.545360e+00   1.325219e+01
  -4.484374e+00   6.570484e+00
  -4.588914e+00  -4.138463e+00
  -2.514143e+00  -8.368449e+00
   2.695041e+00  -4.344353e+00
   9.383124e+00   1.288505e-01
   4.437050e+00  -4.916122e-01
  -5.470947e+00  -3.455245e+00
  -9.077982e+00  -1.959184e+00
   1.768395e+00   2.631040e+00
   1.430620e+01   8.070291e+00
   1.203113e+01   6.377981e+00
  -7.361525e-01  -1.027524e-01
  -1.018010e+01   2.826745e-02
  -9.929246e+00   1.034949e+00
  -1.478970e-01   2.445691e+00
   3.572698e+00  -3.360881e+00
   2.298870e+00  -2.495428e+00
  -7.744975e-01   1.900777e+00
   3.865077e-01   6.936523e+00
   1.309751e+00   4.951724e+00
   3.345706e-01  -1.508300e+00
  -2.859926e+00  -5.053863e+00
  -5.497493e+00  -2.357556e+00
  -2.403637e+00   4.454216e-01
   1.318778e+00  -5.645484e-01
   5.805448e+00  -2.229082e+00
   6.590249e+00  -1.233536e+00
   2.056815e+00   3.760564e+00
  -5.362999e+00   6.539407e+00
  -7.459557e+00   4.075975e+00
  -4.390456e+00  -5.122560e+00
   1.805461e+00  -8.786056e+00
   4.883299e+00  -3.741779e+00
   6.421239e+00   5.770489e+00
   5.975324e+00   1.205976e+01
  -9.459825e-02   6.427940e+00
  -7.357247e+00  -3.849304e+00
  -8.454261e+00  -7.524724e+00
  -4.816383e+00   1.014908e+00
   2.875831e+00   6.149981e+00
   2.679866e+00   2.386458e+00
  -5.672382e+00  -4.275364e+00
  -1.005202e+01  -7.660593e+00
