
 $NMID
 id='ANONYMOUS ', fmtdat='(2E16.6)'
 volume=1.0
 tramp=1.0
 $END
   3.684430e+03   9.959730e+01
   2.176362e+03   1.964053e+03
  -4.043418e+02   2.421344e+03
  -1.707364e+03   1.094691e+03
  -9.363169e+02  -2.783615e+02
   3.729906e+02  -4.077937e+02
   6.322743e+02   3.240890e+02
   7.045094e+00   8.686357e+02
  -6.998424e+02   6.825026e+02
  -8.114201e+02  -5.093012e+01
  -4.363519e+02  -7.346454e+02
   1.559511e+02  -8.097071e+02
   5.032071e+02  -1.563081e+02
   3.198438e+02   5.890789e+02
  -2.072369e+02   6.560164e+02
  -5.303068e+02   2.268300e+01
  -2.653318e+02  -6.181152e+02
   2.802975e+02  -6.281426e+02
   5.580780e+02  -1.559731e+02
   4.124187e+02   3.032244e+02
   5.762604e+01   4.251925e+02
  -2.038239e+02   2.606948e+02
  -1.667643e+02   4.268006e+01
   1.164985e+02   7.714434e+00
   3.264969e+02   1.955018e+02
   9.101144e+01   3.947111e+02
  -4.620822e+02   2.710390e+02
  -7.226440e+02  -1.507395e+02
  -3.504580e+02  -4.868723e+02
   3.327055e+02  -3.626180e+02
   6.208751e+02   8.436220e+01
   2.849706e+02   4.421654e+02
  -2.715714e+02   4.458471e+02
  -5.176871e+02   1.515912e+02
  -3.815230e+02  -2.138385e+02
  -7.764932e+01  -4.046951e+02
   1.164235e+02  -2.413246e+02
   7.595509e+01   1.541807e+02
  -1.810755e+02   2.886452e+02
  -3.265490e+02  -8.560903e+01
  -1.189052e+02  -6.014111e+02
   3.248759e+02  -5.806998e+02
   4.985411e+02  -5.577510e+00
   2.153494e+02   4.569819e+02
  -2.199640e+02   2.619182e+02
  -2.911695e+02  -2.919820e+02
   8.980574e+01  -4.695607e+02
   4.846226e+02  -8.685199e+01
   4.963284e+02   4.053521e+02
   1.372717e+02   5.489677e+02
  -3.418375e+02   3.029310e+02
  -5.633960e+02  -8.962171e+01
  -3.522204e+02  -3.500552e+02
   1.125486e+02  -3.197724e+02
   3.840530e+02  -6.163683e+01
   2.398799e+02   1.491628e+02
  -7.131437e+01   9.632847e+01
  -1.265993e+02  -1.065184e+02
   1.243843e+02  -1.442235e+02
   3.000028e+02   6.467078e+01
   1.429465e+02   2.602714e+02
  -1.852536e+02   2.483922e+02
  -3.455221e+02   8.808427e+01
  -2.330676e+02  -1.024371e+02
   3.345700e+01  -2.680019e+02
   2.677899e+02  -3.258453e+02
   3.550329e+02  -1.806707e+02
   2.546467e+02   1.487396e+02
   4.547912e+01   3.922485e+02
  -9.523203e+01   3.427140e+02
  -8.886845e+01   1.274299e+02
  -3.645912e+01   3.223873e+01
  -8.167832e+01   8.516730e+01
  -2.025085e+02   7.872753e+01
  -2.448697e+02  -8.901917e+01
  -1.151728e+02  -2.593981e+02
   8.059391e+01  -2.243997e+02
   1.986439e+02   9.778468e+00
   1.597300e+02   2.334900e+02
  -2.644515e+01   2.733217e+02
  -2.534015e+02   9.263001e+01
  -3.346804e+02  -1.708337e+02
  -1.826741e+02  -3.372298e+02
   8.080506e+01  -2.982221e+02
   2.066494e+02  -1.354978e+02
   1.578814e+02  -3.482822e+01
   1.304306e+02  -3.926994e+01
   2.505711e+02  -4.044912e+01
   3.971515e+02   8.884955e+01
   3.177225e+02   3.043097e+02
  -1.565737e+01   4.396365e+02
  -3.752292e+02   3.818542e+02
  -4.875537e+02   1.599251e+02
  -3.222416e+02  -1.123462e+02
  -3.513721e+01  -2.767791e+02
   1.218283e+02  -2.258612e+02
   6.386488e+01  -3.843317e+01
  -9.945951e+01   7.029514e+01
  -1.573606e+02  -2.031281e+01
  -2.561455e+01  -1.654839e+02
   1.374373e+02  -1.352561e+02
   1.409489e+02   5.841190e+01
  -2.613894e+01   1.702466e+02
  -1.772364e+02   1.522097e+01
  -1.472597e+02  -2.507685e+02
   3.886711e+01  -3.514207e+02
   2.446490e+02  -2.008706e+02
   3.423848e+02   8.478155e+01
   2.713174e+02   2.792492e+02
   6.600324e+01   2.858512e+02
  -1.357553e+02   1.579756e+02
  -1.789779e+02   5.729934e+00
  -5.405100e+01  -3.197929e+01
   5.628762e+01   4.021400e+01
   1.373073e+01   1.191344e+02
  -1.274687e+02   8.084444e+01
  -1.644220e+02  -2.280744e+01
  -4.675028e+01  -6.770831e+01
   7.785516e+01   1.683469e+00
   4.268286e+01   8.515154e+01
  -1.345805e+02   7.620292e+01
  -2.831347e+02  -2.927673e+01
  -2.514759e+02  -1.690234e+02
  -3.720518e+01  -2.566664e+02
   1.966435e+02  -2.310837e+02
   2.773515e+02  -9.696319e+01
   1.568346e+02   5.097031e+01
  -2.399238e+01   9.072530e+01
  -7.739990e+01   2.129158e+00
   4.048359e+01  -9.028069e+01
   1.893295e+02  -4.316470e+01
   2.001483e+02   1.062178e+02
   5.857426e+01   2.010711e+02
  -1.013202e+02   1.482084e+02
  -1.421246e+02   1.555443e+01
  -6.140013e+01  -5.023245e+01
   3.358684e+01   5.572714e-01
   3.233681e+01   9.305649e+01
  -7.449324e+01   1.113824e+02
  -1.998640e+02   1.551933e+01
  -1.831540e+02  -1.347595e+02
  -1.164498e+01  -2.150003e+02
   1.667821e+02  -1.514703e+02
   1.920399e+02   1.245051e+00
   6.213965e+01   1.094535e+02
  -6.694420e+01   1.038940e+02
  -8.197615e+01   2.640879e+01
  -1.245837e+01  -2.319357e+01
   2.543376e+01  -1.273204e+01
  -1.042888e+01   1.406715e+01
  -7.738554e+01  -1.006274e+01
  -8.910414e+01  -9.099461e+01
  -6.574325e+00  -1.647988e+02
   1.392842e+02  -1.484457e+02
   2.428438e+02  -1.437928e+01
   1.943331e+02   1.630261e+02
   3.023913e+01   2.365874e+02
  -1.124569e+02   1.665243e+02
  -1.382614e+02   2.344805e+01
  -7.020755e+01  -5.584864e+01
  -2.736675e+01  -3.619614e+01
  -5.245086e+01   8.391936e+00
  -8.159580e+01   3.007390e+00
  -4.509968e+01  -5.440399e+01
   4.382231e+01  -9.298249e+01
   1.104218e+02  -5.379625e+01
   9.500176e+01   4.536088e+01
  -1.896321e+01   1.167485e+02
  -1.519956e+02   7.708691e+01
  -1.996732e+02  -6.730340e+01
  -8.695540e+01  -2.143887e+02
   1.237275e+02  -2.202979e+02
   2.721612e+02  -7.362142e+01
   2.445721e+02   1.067831e+02
   9.357030e+01   1.787277e+02
  -4.367219e+01   1.368261e+02
  -9.201511e+01   7.154949e+01
  -7.290875e+01   6.410373e+01
  -6.823432e+01   8.709070e+01
  -9.331045e+01   7.106436e+01
  -1.292959e+02  -2.397971e+01
  -1.086706e+02  -1.546577e+02
  -1.875170e+01  -2.240222e+02
   1.065355e+02  -1.668771e+02
   1.740343e+02  -1.243149e+01
   1.266618e+02   1.258796e+02
   3.918368e+00   1.570610e+02
  -7.751072e+01   8.295048e+01
  -5.787585e+01  -8.133773e+00
   4.418132e+00  -4.605045e+01
   2.075528e+01  -2.993223e+01
  -3.296932e+01  -1.443120e+01
  -8.241531e+01  -2.342555e+01
  -4.853641e+01  -4.227406e+01
   6.455290e+01  -3.779774e+01
   1.601789e+02   5.323263e+00
   1.414796e+02   5.936516e+01
   8.870197e+00   9.303787e+01
  -1.279552e+02   6.880980e+01
  -1.457816e+02   6.090507e+00
  -4.835984e+01  -4.911931e+01
   5.972583e+01  -4.110221e+01
   7.802555e+01   1.943490e+01
   1.143255e+01   7.301039e+01
  -5.310722e+01   6.294101e+01
  -6.784550e+01  -1.841830e+00
  -4.898890e+01  -5.608545e+01
  -3.964723e+01  -4.802444e+01
  -5.442815e+01  -7.021610e+00
  -6.286098e+01  -5.691479e+00
  -3.491878e+01  -6.677572e+01
   3.870188e+01  -1.390557e+02
   1.269892e+02  -1.314017e+02
   1.717684e+02  -2.667133e+01
   1.209617e+02   9.342044e+01
   3.511828e+00   1.269921e+02
  -8.735326e+01   6.323270e+01
  -6.054957e+01  -1.493993e+01
   5.524040e+01  -1.702412e+01
   1.313654e+02   4.822325e+01
   6.922044e+01   1.101919e+02
  -8.439668e+01   1.058255e+02
  -1.822282e+02   3.742473e+01
  -1.517813e+02  -4.529732e+01
  -2.973806e+01  -8.413749e+01
   6.278885e+01  -5.969831e+01
   4.766948e+01   2.255753e+00
  -3.771492e+01   2.992580e+01
  -9.148470e+01  -2.510835e+01
  -3.210202e+01  -1.180788e+02
   9.019454e+01  -1.493392e+02
   1.652775e+02  -5.921843e+01
   1.226945e+02   9.812634e+01
   4.422003e+00   1.924417e+02
  -9.130853e+01   1.361374e+02
  -1.050549e+02  -1.272038e+01
  -5.503651e+01  -1.186727e+02
   1.007319e+01  -1.018858e+02
   4.898806e+01  -1.522348e+01
   4.561713e+01   3.245052e+01
   1.956662e+01   6.839424e+00
   5.110118e+00  -1.961846e+01
   2.611874e+01   1.812469e+01
   5.373666e+01   9.244763e+01
   3.004879e+01   1.142119e+02
  -5.324160e+01   4.667144e+01
  -1.365024e+02  -4.265215e+01
  -1.246618e+02  -7.775533e+01
  -1.693698e+01  -5.570749e+01
   8.364496e+01  -2.183328e+01
   8.998682e+01  -3.085341e+00
   1.736367e+01   1.145363e+01
  -3.592267e+01   2.129817e+01
  -1.885589e+01   1.617725e+01
   1.605442e+01  -9.173938e-01
  -3.278448e+00  -7.717656e+00
  -6.675881e+01  -5.783619e+00
  -8.908690e+01  -2.799143e+01
  -1.292774e+01  -8.106040e+01
   1.143395e+02  -1.092924e+02
   1.871455e+02  -5.025346e+01
   1.433860e+02   7.213012e+01
   2.206228e+01   1.632658e+02
  -8.546134e+01   1.467538e+02
  -1.176402e+02   5.397820e+01
  -8.137189e+01  -2.435091e+01
  -2.621294e+01  -3.854136e+01
   1.885708e+00  -1.202676e+01
  -9.244416e+00  -5.302798e+00
  -2.734967e+01  -4.538788e+01
  -1.742783e+01  -8.919596e+01
   3.274037e+01  -7.018359e+01
   7.736605e+01   1.935821e+01
   7.222071e+01   1.078056e+02
   1.795288e+00   1.117992e+02
  -8.045922e+01   2.495078e+01
  -9.942974e+01  -7.475024e+01
  -3.103978e+01  -1.046962e+02
   6.739413e+01  -5.812394e+01
   9.849473e+01   1.407521e+01
   3.919611e+01   5.596858e+01
  -3.491262e+01   5.304078e+01
  -3.468231e+01   2.660772e+01
   3.025675e+01  -2.576092e+00
   6.916356e+01  -2.903988e+00
   1.636584e+01   2.737955e+01
  -7.818610e+01   6.066021e+01
  -1.165040e+02   5.121676e+01
  -6.809957e+01  -1.624223e+01
   1.523470e+01  -8.047347e+01
   5.865656e+01  -7.402382e+01
   4.319273e+01  -5.070656e+00
   2.046839e+00   5.575357e+01
  -2.871997e+01   4.329963e+01
  -3.797307e+01  -1.685962e+01
  -2.570743e+01  -5.535593e+01
   4.035996e+00  -3.691420e+01
   3.102023e+01   7.102386e+00
   3.588085e+01   2.375493e+01
   1.979711e+01   4.479426e+00
  -4.837979e-01  -1.731751e+01
  -3.935039e+00  -3.252178e+00
  -1.836442e+00   3.325891e+01
  -1.257301e+01   4.719360e+01
  -3.110661e+01   1.323677e+01
  -3.236444e+01  -3.903941e+01
  -1.482836e+00  -5.943633e+01
   4.305667e+01  -2.130664e+01
   5.720922e+01   3.834875e+01
   1.529651e+01   6.313997e+01
  -5.732109e+01   3.436447e+01
  -9.135288e+01  -1.749390e+01
  -4.914411e+01  -4.714935e+01
   2.948959e+01  -4.152691e+01
   6.524984e+01  -2.056035e+01
   2.759235e+01  -2.199733e+00
  -3.109773e+01   3.338659e-01
  -3.658675e+01  -1.332548e+01
   2.540239e+01  -2.906225e+01
   8.314950e+01  -1.894802e+01
