
 $NMID
 id='ANONYMOUS ', fmtdat='(2E16.6)'
 volume=1.0
 tramp=1.0
 $END
   4.893119e+03   9.078597e+01
   2.695751e+03   2.749253e+03
  -8.122126e+02   2.991532e+03
  -2.357794e+03   9.388185e+02
  -1.056330e+03  -7.620077e+02
   7.057089e+02  -6.493268e+02
   9.950716e+02   5.091482e+02
   1.313681e+01   1.223038e+03
  -9.542646e+02   8.759820e+02
  -1.073715e+03  -1.724538e+02
  -5.088062e+02  -9.918302e+02
   3.115074e+02  -1.003112e+03
   7.075948e+02  -1.362753e+02
   4.085920e+02   7.702918e+02
  -3.001494e+02   8.103187e+02
  -6.661227e+02  -1.801330e+01
  -2.905899e+02  -7.596298e+02
   3.844954e+02  -7.170524e+02
   6.653544e+02  -1.112135e+02
   4.317717e+02   4.060056e+02
   1.032821e+01   5.055083e+02
  -2.738590e+02   2.917514e+02
  -2.317814e+02   1.994436e+01
   1.126276e+02  -8.380980e+01
   4.203156e+02   1.449943e+02
   2.090606e+02   4.807147e+02
  -4.933677e+02   4.552069e+02
  -9.152893e+02  -9.366912e+01
  -4.739809e+02  -6.097171e+02
   3.967281e+02  -5.320380e+02
   7.910130e+02   5.131426e+01
   3.699052e+02   5.375063e+02
  -3.168449e+02   5.553193e+02
  -6.327896e+02   1.971864e+02
  -4.568231e+02  -2.709182e+02
  -6.571195e+01  -5.269066e+02
   2.392735e+02  -3.175507e+02
   2.069883e+02   2.231888e+02
  -1.905366e+02   4.698192e+02
  -4.927200e+02  -1.651310e+01
  -2.552824e+02  -7.204247e+02
   3.763741e+02  -7.557061e+02
   6.844126e+02  -7.410564e+00
   2.900586e+02   6.107925e+02
  -3.181624e+02   3.643975e+02
  -4.182207e+02  -3.250425e+02
   7.247593e+01  -5.948645e+02
   5.950223e+02  -1.350499e+02
   6.231915e+02   4.566552e+02
   1.612698e+02   6.468213e+02
  -4.239200e+02   3.837447e+02
  -6.915565e+02  -9.134503e+01
  -4.122396e+02  -4.443782e+02
   1.732960e+02  -4.161665e+02
   4.934408e+02  -5.646154e+01
   2.680772e+02   2.352006e+02
  -1.336468e+02   1.309677e+02
  -1.740634e+02  -1.673335e+02
   1.668113e+02  -2.150862e+02
   3.725864e+02   6.863482e+01
   1.648669e+02   3.236617e+02
  -2.201452e+02   2.835506e+02
  -3.698164e+02   7.490258e+01
  -2.221118e+02  -1.073403e+02
   2.714001e+01  -2.567817e+02
   2.667229e+02  -3.551409e+02
   3.777933e+02  -2.224495e+02
   3.021146e+02   1.534434e+02
   6.498660e+01   4.661899e+02
  -1.337250e+02   4.091693e+02
  -1.273054e+02   1.259565e+02
  -3.467297e+01  -9.445761e+00
  -5.291497e+01   8.522619e+01
  -2.065053e+02   1.232178e+02
  -2.856189e+02  -7.044142e+01
  -1.581133e+02  -2.889699e+02
   8.059931e+01  -2.697192e+02
   2.422263e+02  -4.068859e+00
   2.066999e+02   2.672547e+02
  -1.489081e+01   3.278124e+02
  -2.919109e+02   1.291490e+02
  -3.935612e+02  -1.961878e+02
  -2.026162e+02  -4.009902e+02
   1.172312e+02  -3.453300e+02
   2.577654e+02  -1.327354e+02
   1.755071e+02  -5.698249e+00
   1.169049e+02  -3.436263e+01
   2.619508e+02  -6.748601e+01
   4.409414e+02   7.215828e+01
   3.621288e+02   3.219914e+02
  -1.050485e+01   4.833669e+02
  -4.033646e+02   4.373993e+02
  -5.353921e+02   1.971492e+02
  -3.614475e+02  -1.073376e+02
  -4.558218e+01  -3.162147e+02
   1.499277e+02  -2.631226e+02
   9.934463e+01  -2.590004e+01
  -1.169708e+02   1.251142e+02
  -2.134966e+02  -2.795832e+00
  -6.552805e+01  -2.148525e+02
   1.597224e+02  -1.938427e+02
   1.885510e+02   6.137549e+01
  -1.753518e+01   2.059981e+02
  -2.018459e+02   3.102095e+01
  -1.688368e+02  -2.747403e+02
   5.116076e+01  -3.794160e+02
   2.563277e+02  -1.918595e+02
   3.503253e+02   9.573383e+01
   2.825302e+02   2.793440e+02
   8.281236e+01   2.986043e+02
  -1.444550e+02   1.761627e+02
  -2.059448e+02   1.347861e+01
  -6.493139e+01  -5.013675e+01
   7.906726e+01   3.058232e+01
   3.440686e+01   1.342150e+02
  -1.400188e+02   1.102736e+02
  -1.975268e+02  -1.307015e+01
  -6.609718e+01  -7.771272e+01
   8.299351e+01  -1.802418e+01
   5.556567e+01   7.712429e+01
  -1.319523e+02   8.319988e+01
  -2.981050e+02  -1.455940e+01
  -2.788121e+02  -1.571463e+02
  -6.424992e+01  -2.787104e+02
   2.073333e+02  -2.820946e+02
   3.189487e+02  -1.280505e+02
   1.943836e+02   6.592636e+01
  -2.582587e+01   1.256063e+02
  -1.038682e+02   1.272740e+01
   2.994294e+01  -1.087292e+02
   2.101165e+02  -6.515657e+01
   2.363453e+02   1.113990e+02
   7.727986e+01   2.297028e+02
  -1.059712e+02   1.759008e+02
  -1.669364e+02   3.085392e+01
  -8.497552e+01  -5.300983e+01
   2.924384e+01  -1.031827e+01
   4.233349e+01   8.901087e+01
  -7.146387e+01   1.227725e+02
  -2.188453e+02   2.871519e+01
  -2.069878e+02  -1.407887e+02
  -2.072687e+01  -2.420580e+02
   1.824677e+02  -1.782477e+02
   2.147655e+02  -3.798960e+00
   7.336163e+01   1.269345e+02
  -7.044506e+01   1.212756e+02
  -9.057108e+01   3.210998e+01
  -1.943813e+01  -2.827096e+01
   2.442170e+01  -1.643702e+01
  -1.188473e+01   1.131112e+01
  -7.779652e+01  -1.052034e+01
  -9.416478e+01  -9.180330e+01
  -1.316226e+01  -1.702810e+02
   1.385761e+02  -1.593705e+02
   2.447251e+02  -1.978943e+01
   2.143131e+02   1.670467e+02
   4.260097e+01   2.588792e+02
  -1.212922e+02   1.843449e+02
  -1.527256e+02   2.583011e+01
  -7.976342e+01  -6.667222e+01
  -3.041356e+01  -4.275922e+01
  -5.314820e+01   1.284348e+01
  -8.178194e+01   4.863492e+00
  -4.588571e+01  -5.532732e+01
   4.404528e+01  -9.247971e+01
   1.083142e+02  -5.442019e+01
   8.915054e+01   3.944023e+01
  -1.664381e+01   1.121676e+02
  -1.518345e+02   8.263276e+01
  -2.118127e+02  -6.121436e+01
  -1.040701e+02  -2.185581e+02
   1.178937e+02  -2.465417e+02
   2.954656e+02  -1.021048e+02
   2.811313e+02   1.014197e+02
   1.164754e+02   1.962113e+02
  -4.830826e+01   1.594075e+02
  -1.061051e+02   8.816584e+01
  -8.943710e+01   7.354575e+01
  -7.459614e+01   9.715218e+01
  -1.033984e+02   7.468243e+01
  -1.393402e+02  -2.822249e+01
  -1.211660e+02  -1.664506e+02
  -2.496055e+01  -2.403889e+02
   1.115471e+02  -1.838917e+02
   1.895188e+02  -1.882733e+01
   1.430849e+02   1.352526e+02
   1.406362e+01   1.722955e+02
  -7.522778e+01   9.740435e+01
  -6.292575e+01   7.535600e-01
  -2.309247e+00  -4.463526e+01
   1.358944e+01  -3.506275e+01
  -4.040198e+01  -2.115083e+01
  -8.514270e+01  -2.820426e+01
  -4.860421e+01  -4.326599e+01
   7.012874e+01  -3.553964e+01
   1.714992e+02   9.792342e-01
   1.567840e+02   5.633779e+01
   1.877532e+01   9.208926e+01
  -1.285063e+02   7.794391e+01
  -1.565345e+02   1.319113e+01
  -5.419622e+01  -4.635651e+01
   6.592510e+01  -4.071936e+01
   8.386428e+01   2.263561e+01
   1.014279e+01   7.881244e+01
  -6.165519e+01   6.599309e+01
  -6.956295e+01  -3.391670e+00
  -4.527110e+01  -5.767051e+01
  -4.344940e+01  -4.629070e+01
  -6.619778e+01  -2.863298e-01
  -7.251097e+01  -2.652737e+00
  -3.541202e+01  -7.701923e+01
   4.279955e+01  -1.552969e+02
   1.348522e+02  -1.451884e+02
   1.827462e+02  -2.726359e+01
   1.292043e+02   1.038518e+02
   5.390774e+00   1.348741e+02
  -9.204539e+01   6.348304e+01
  -6.451540e+01  -1.442886e+01
   5.760145e+01  -1.445247e+01
   1.402134e+02   5.025064e+01
   7.672963e+01   1.134454e+02
  -8.696521e+01   1.163712e+02
  -2.028992e+02   5.256900e+01
  -1.748627e+02  -3.675997e+01
  -4.028800e+01  -9.454040e+01
   6.467954e+01  -7.485472e+01
   5.235533e+01  -6.452285e+00
  -3.888273e+01   2.700573e+01
  -9.733340e+01  -2.664227e+01
  -3.260122e+01  -1.290862e+02
   1.035291e+02  -1.639731e+02
   1.863785e+02  -6.144505e+01
   1.353518e+02   1.125071e+02
   1.887355e+00   2.151310e+02
  -1.038156e+02   1.547648e+02
  -1.167292e+02  -1.014722e+01
  -6.270941e+01  -1.316343e+02
   5.075316e+00  -1.166664e+02
   5.161254e+01  -2.194704e+01
   5.469389e+01   3.529567e+01
   2.598704e+01   1.043348e+01
   3.865457e+00  -2.170042e+01
   2.366372e+01   1.714718e+01
   5.883073e+01   9.592351e+01
   4.294016e+01   1.201745e+02
  -5.403302e+01   5.271958e+01
  -1.506773e+02  -4.298780e+01
  -1.391239e+02  -8.080118e+01
  -1.618457e+01  -5.780983e+01
   9.677467e+01  -2.226219e+01
   9.264937e+01  -3.916385e+00
   9.887393e+00   1.161380e+01
  -4.402754e+01   2.461846e+01
  -1.714379e+01   1.699820e+01
   2.267442e+01  -3.339416e+00
  -4.686368e+00  -1.034181e+01
  -7.807311e+01  -4.530029e+00
  -9.585612e+01  -2.809842e+01
  -7.533729e+00  -8.731289e+01
   1.297403e+02  -1.174321e+02
   2.025544e+02  -5.497768e+01
   1.516611e+02   7.847443e+01
   2.185405e+01   1.755436e+02
  -9.291336e+01   1.600770e+02
  -1.285543e+02   5.825036e+01
  -8.714683e+01  -2.797329e+01
  -2.596550e+01  -4.111841e+01
   4.782112e+00  -1.101905e+01
  -1.092653e+01  -3.876672e+00
  -3.132983e+01  -4.849822e+01
  -2.036683e+01  -9.480168e+01
   3.308251e+01  -7.557830e+01
   8.589839e+01   2.051012e+01
   8.001260e+01   1.155264e+02
   1.181567e-01   1.204074e+02
  -9.050535e+01   2.445554e+01
  -1.086467e+02  -8.486889e+01
  -2.950242e+01  -1.154094e+02
   7.429160e+01  -6.042148e+01
   1.057507e+02   1.640266e+01
   4.137502e+01   5.770635e+01
  -3.663881e+01   5.537487e+01
  -3.350506e+01   2.890560e+01
   3.699990e+01  -6.992860e-01
   7.380344e+01  -4.014098e+00
   1.349238e+01   2.983596e+01
  -8.660702e+01   6.984435e+01
  -1.237836e+02   6.006064e+01
  -6.821747e+01  -1.681018e+01
   1.865097e+01  -8.969272e+01
   6.193949e+01  -8.309696e+01
   4.198889e+01  -4.019270e+00
  -6.471316e-01   6.044210e+01
  -3.142268e+01   4.394069e+01
  -3.930533e+01  -2.158474e+01
  -2.511877e+01  -6.116422e+01
   6.735747e+00  -3.801688e+01
   3.582821e+01   8.979745e+00
   3.950881e+01   2.429522e+01
   2.264844e+01   3.203730e+00
   1.481264e+00  -1.462496e+01
  -4.421134e+00   3.791253e+00
  -8.149115e+00   3.914976e+01
  -2.213184e+01   4.821174e+01
  -3.760390e+01   7.455517e+00
  -3.131046e+01  -5.014993e+01
   4.378158e+00  -6.727707e+01
   4.880613e+01  -2.100288e+01
   5.901485e+01   4.452747e+01
   1.361800e+01   6.891501e+01
  -6.075947e+01   3.566529e+01
  -9.727772e+01  -2.003060e+01
  -5.271651e+01  -5.101315e+01
   3.141491e+01  -4.392606e+01
   6.963047e+01  -1.978085e+01
   2.847417e+01  -3.133305e+00
  -3.744752e+01  -3.392920e+00
  -4.001892e+01  -1.820678e+01
   3.305849e+01  -3.242933e+01
   9.841216e+01  -1.824377e+01
