
 $NMID
 id='ANONYMOUS ', fmtdat='(2E16.6)'
 volume=1.0
 tramp=1.0
 $END
  -4.731812e+03   1.726984e+00
  -2.677533e+03  -2.736506e+03
   8.251316e+02  -2.983724e+03
   2.355133e+03  -9.633616e+02
   1.049457e+03   7.903783e+02
  -7.560841e+02   6.623803e+02
  -1.054226e+03  -5.383924e+02
  -3.521225e+00  -1.261514e+03
   9.786000e+02  -8.786215e+02
   1.088045e+03   1.873960e+02
   4.848234e+02   1.002542e+03
  -3.287646e+02   1.003100e+03
  -7.142889e+02   1.022944e+02
  -4.033152e+02  -8.029875e+02
   3.315784e+02  -8.285287e+02
   6.926864e+02   2.582824e+01
   2.891840e+02   7.778188e+02
  -4.046420e+02   7.207212e+02
  -6.692905e+02   8.454849e+01
  -4.155673e+02  -4.177126e+02
   2.925927e-02  -5.019419e+02
   2.706352e+02  -2.798038e+02
   2.304176e+02  -2.324060e-01
  -1.280968e+02   9.782054e+01
  -4.459455e+02  -1.525418e+02
  -2.203129e+02  -4.910630e+02
   5.010514e+02  -4.586487e+02
   9.301167e+02   1.180059e+02
   4.671124e+02   6.411584e+02
  -4.318601e+02   5.409029e+02
  -8.308241e+02  -6.780212e+01
  -3.786759e+02  -5.612237e+02
   3.303718e+02  -5.704162e+02
   6.392872e+02  -2.027917e+02
   4.634161e+02   2.748831e+02
   7.059774e+01   5.441675e+02
  -2.379205e+02   3.238383e+02
  -2.047521e+02  -2.414089e+02
   1.898639e+02  -4.943017e+02
   5.009365e+02   1.836313e+01
   2.565286e+02   7.480741e+02
  -3.719954e+02   7.740511e+02
  -6.815074e+02   1.000646e+01
  -2.883741e+02  -6.179716e+02
   3.180125e+02  -3.638681e+02
   4.023509e+02   3.408883e+02
  -7.992333e+01   5.958146e+02
  -5.963773e+02   1.351304e+02
  -6.242746e+02  -4.567048e+02
  -1.644946e+02  -6.478757e+02
   4.329427e+02  -3.788743e+02
   6.908914e+02   1.046599e+02
   4.091762e+02   4.483697e+02
  -1.847686e+02   4.147886e+02
  -5.127496e+02   5.526174e+01
  -2.717938e+02  -2.325054e+02
   1.397893e+02  -1.213144e+02
   1.699013e+02   1.769047e+02
  -1.836342e+02   2.130536e+02
  -3.896538e+02  -9.178022e+01
  -1.573415e+02  -3.522393e+02
   2.356265e+02  -2.887797e+02
   3.823037e+02  -6.930855e+01
   2.268435e+02   1.044907e+02
  -2.784435e+01   2.370135e+02
  -2.526039e+02   3.526621e+02
  -3.749967e+02   2.335685e+02
  -3.037449e+02  -1.467987e+02
  -7.406524e+01  -4.731163e+02
   1.262233e+02  -4.207617e+02
   1.282613e+02  -1.256950e+02
   2.839689e+01   1.853491e+01
   4.950953e+01  -8.624343e+01
   2.104237e+02  -1.324088e+02
   2.961245e+02   6.452508e+01
   1.614512e+02   2.971984e+02
  -8.473948e+01   2.764254e+02
  -2.446539e+02   4.098713e+00
  -2.115466e+02  -2.694666e+02
   1.659196e+01  -3.350027e+02
   2.950180e+02  -1.333731e+02
   4.061020e+02   1.908137e+02
   2.147077e+02   4.011709e+02
  -1.109257e+02   3.532207e+02
  -2.574995e+02   1.396946e+02
  -1.766065e+02  -2.147046e+00
  -1.068249e+02   2.221408e+01
  -2.432008e+02   6.331908e+01
  -4.199487e+02  -6.235032e+01
  -3.591189e+02  -3.072879e+02
   3.999268e+00  -4.831258e+02
   3.980040e+02  -4.424161e+02
   5.457089e+02  -1.973480e+02
   3.693035e+02   1.166349e+02
   4.629680e+01   3.309221e+02
  -1.588353e+02   2.728108e+02
  -1.041483e+02   2.360656e+01
   1.226977e+02  -1.311218e+02
   2.227951e+02   3.273637e+00
   6.337234e+01   2.176542e+02
  -1.711560e+02   1.980177e+02
  -2.005908e+02  -6.326242e+01
   1.634269e+01  -2.125936e+02
   2.088815e+02  -3.208938e+01
   1.755860e+02   2.718357e+02
  -4.430019e+01   3.754933e+02
  -2.620109e+02   1.950475e+02
  -3.556227e+02  -8.255342e+01
  -2.897413e+02  -2.737002e+02
  -8.683221e+01  -3.025797e+02
   1.439432e+02  -1.828091e+02
   2.075369e+02  -1.703536e+01
   7.079729e+01   5.104107e+01
  -7.709008e+01  -3.072388e+01
  -3.012220e+01  -1.342729e+02
   1.405225e+02  -1.072533e+02
   1.973044e+02   1.665208e+01
   6.293641e+01   7.967241e+01
  -8.483476e+01   1.757330e+01
  -5.531921e+01  -7.755172e+01
   1.345578e+02  -8.198197e+01
   2.947641e+02   1.329024e+01
   2.732174e+02   1.478207e+02
   6.518928e+01   2.696764e+02
  -1.987496e+02   2.810189e+02
  -3.132738e+02   1.388716e+02
  -1.939940e+02  -5.883996e+01
   2.497634e+01  -1.256817e+02
   1.024000e+02  -1.277005e+01
  -3.166737e+01   1.112176e+02
  -2.113954e+02   6.278771e+01
  -2.320619e+02  -1.158177e+02
  -7.234441e+01  -2.293373e+02
   1.089064e+02  -1.700735e+02
   1.618716e+02  -2.682117e+01
   7.889555e+01   5.227098e+01
  -3.109624e+01   8.126690e+00
  -4.228807e+01  -8.868512e+01
   6.923964e+01  -1.211566e+02
   2.142198e+02  -3.191567e+01
   2.056938e+02   1.367621e+02
   2.106572e+01   2.411107e+02
  -1.823826e+02   1.781496e+02
  -2.147123e+02   1.658195e+00
  -7.131161e+01  -1.307329e+02
   7.538640e+01  -1.238924e+02
   9.180605e+01  -3.169243e+01
   2.058973e+01   3.021626e+01
  -2.399143e+01   2.100095e+01
   8.863634e+00  -9.452469e+00
   7.477899e+01   1.230456e+01
   9.117328e+01   9.060458e+01
   1.342555e+01   1.727771e+02
  -1.393733e+02   1.626845e+02
  -2.511373e+02   1.561224e+01
  -2.169617e+02  -1.683941e+02
  -4.326386e+01  -2.612526e+02
   1.220019e+02  -1.850863e+02
   1.517362e+02  -2.551095e+01
   7.930789e+01   6.613325e+01
   2.919449e+01   4.223202e+01
   5.260246e+01  -1.389526e+01
   8.249559e+01  -6.108634e+00
   4.528893e+01   5.289082e+01
  -4.638767e+01   9.109470e+01
  -1.091184e+02   5.338142e+01
  -8.678340e+01  -4.289974e+01
   1.943215e+01  -1.158965e+02
   1.513292e+02  -8.300655e+01
   2.091475e+02   6.366919e+01
   1.026945e+02   2.174696e+02
  -1.163894e+02   2.407853e+02
  -2.916330e+02   9.546759e+01
  -2.798844e+02  -1.011985e+02
  -1.191338e+02  -1.952738e+02
   4.622675e+01  -1.605539e+02
   1.066723e+02  -9.162733e+01
   9.025410e+01  -7.695410e+01
   7.774727e+01  -9.845224e+01
   1.068389e+02  -7.286371e+01
   1.402448e+02   3.224951e+01
   1.206163e+02   1.710276e+02
   2.168000e+01   2.417697e+02
  -1.138943e+02   1.833369e+02
  -1.916029e+02   2.017975e+01
  -1.466787e+02  -1.340784e+02
  -1.689875e+01  -1.742853e+02
   7.383021e+01  -1.014802e+02
   6.328149e+01  -3.322870e+00
   4.171530e+00   4.456057e+01
  -1.150369e+01   3.658192e+01
   4.047325e+01   2.186382e+01
   8.460369e+01   2.533420e+01
   4.750938e+01   4.354690e+01
  -7.187311e+01   3.834581e+01
  -1.731944e+02  -1.111276e+00
  -1.553489e+02  -5.899141e+01
  -1.524365e+01  -9.660119e+01
   1.291585e+02  -7.685469e+01
   1.552330e+02  -1.194747e+01
   5.225651e+01   4.572195e+01
  -6.503257e+01   3.868959e+01
  -8.132662e+01  -2.317459e+01
  -8.435072e+00  -7.532875e+01
   6.024865e+01  -6.283350e+01
   6.764807e+01   3.428899e+00
   4.693016e+01   5.396018e+01
   4.568407e+01   4.412978e+01
   6.438686e+01   2.592941e+00
   6.861696e+01   3.526946e+00
   3.414776e+01   7.549476e+01
  -4.192626e+01   1.506077e+02
  -1.308157e+02   1.410428e+02
  -1.791535e+02   2.409998e+01
  -1.265959e+02  -1.076241e+02
  -1.875671e+00  -1.347317e+02
   9.694009e+01  -6.000844e+01
   6.430051e+01   1.938777e+01
  -6.145233e+01   1.541090e+01
  -1.454819e+02  -5.208322e+01
  -7.826103e+01  -1.182172e+02
   8.821781e+01  -1.204564e+02
   2.040662e+02  -5.454312e+01
   1.716068e+02   3.881485e+01
   3.863836e+01   9.509521e+01
  -6.557248e+01   7.392362e+01
  -5.089194e+01   5.384775e+00
   4.208372e+01  -2.618149e+01
   9.700668e+01   2.807795e+01
   2.954744e+01   1.292808e+02
  -1.067428e+02   1.630221e+02
  -1.864501e+02   6.157393e+01
  -1.367151e+02  -1.110867e+02
  -4.903975e+00  -2.117925e+02
   9.699366e+01  -1.547201e+02
   1.140016e+02   5.676353e+00
   6.360695e+01   1.265784e+02
  -3.721025e-01   1.148174e+02
  -4.796252e+01   2.193991e+01
  -5.276759e+01  -3.346527e+01
  -2.521868e+01  -9.457515e+00
  -4.140493e+00   2.262807e+01
  -2.578787e+01  -1.621022e+01
  -5.955320e+01  -9.619611e+01
  -3.963429e+01  -1.221252e+02
   5.629868e+01  -5.205842e+01
   1.502196e+02   4.486002e+01
   1.375161e+02   8.197887e+01
   1.746451e+01   5.612579e+01
  -9.498121e+01   2.098031e+01
  -9.414573e+01   5.645057e+00
  -1.180237e+01  -8.652219e+00
   4.334941e+01  -2.310750e+01
   1.923996e+01  -1.838397e+01
  -2.161591e+01   2.442342e-01
   3.283221e+00   7.903084e+00
   7.884328e+01   3.067017e+00
   9.942686e+01   3.088845e+01
   8.733259e+00   9.162069e+01
  -1.299246e+02   1.231165e+02
  -2.051517e+02   5.923342e+01
  -1.530404e+02  -7.729283e+01
  -2.291197e+01  -1.742972e+02
   9.196764e+01  -1.589471e+02
   1.266052e+02  -5.834785e+01
   8.549827e+01   2.649322e+01
   2.609692e+01   3.866572e+01
  -2.987634e+00   1.004772e+01
   1.065244e+01   4.340827e+00
   3.149459e+01   4.997007e+01
   2.027543e+01   9.591433e+01
  -3.278645e+01   7.507845e+01
  -8.594039e+01  -2.169203e+01
  -7.977418e+01  -1.175157e+02
  -4.323094e-01  -1.202398e+02
   8.929963e+01  -2.277244e+01
   1.070880e+02   8.461747e+01
   2.936826e+01   1.143028e+02
  -7.336226e+01   5.859699e+01
  -1.036696e+02  -1.626328e+01
  -3.970200e+01  -5.512877e+01
   3.502527e+01  -5.550319e+01
   3.271928e+01  -3.003440e+01
  -3.708988e+01   1.201287e+00
  -7.494254e+01   6.126633e+00
  -1.475572e+01  -2.889429e+01
   8.676717e+01  -7.142179e+01
   1.251781e+02  -6.270482e+01
   6.821631e+01   1.470959e+01
  -1.778858e+01   8.821989e+01
  -5.877073e+01   8.348298e+01
  -3.990168e+01   4.250624e+00
   3.289163e-01  -5.950216e+01
   2.934315e+01  -4.369406e+01
   3.867179e+01   2.154994e+01
   2.703627e+01   6.092309e+01
  -4.941772e+00   3.730669e+01
  -3.621346e+01  -8.382310e+00
  -4.262404e+01  -2.206439e+01
  -2.457877e+01  -1.576497e+00
  -1.552247e+00   1.408315e+01
   5.626511e+00  -6.055122e+00
   9.377504e+00  -4.168556e+01
   2.284311e+01  -4.804516e+01
   3.749540e+01  -6.040403e+00
   3.132445e+01   4.924968e+01
  -4.184364e+00   6.591065e+01
  -4.867144e+01   2.144014e+01
  -6.015478e+01  -4.365522e+01
  -1.431428e+01  -6.829004e+01
   6.025062e+01  -3.509741e+01
   9.632692e+01   1.971208e+01
   5.074585e+01   5.000701e+01
  -3.259856e+01   4.162621e+01
  -6.997603e+01   1.669799e+01
  -2.627516e+01   2.551615e+00
   3.943499e+01   3.963620e+00
   4.034694e+01   1.902215e+01
  -3.385987e+01   3.341251e+01
  -9.831524e+01   1.885919e+01
