
 $NMID
 id='ANONYMOUS ', fmtdat='(2E16.6)'
 volume=1.0
 tramp=1.0
 $END
   4.829864e+03  -4.329105e+02
   2.805045e+03   2.833410e+03
  -7.816332e+02   2.996852e+03
  -2.374369e+03   8.506552e+02
  -1.028080e+03  -9.094110e+02
   8.875662e+02  -7.455053e+02
   1.128337e+03   5.018808e+02
   2.038907e+01   1.269928e+03
  -9.579751e+02   9.007074e+02
  -1.096194e+03  -1.193953e+02
  -4.959490e+02  -9.730119e+02
   3.081938e+02  -9.881370e+02
   7.717814e+02  -1.343241e+02
   4.359382e+02   7.987048e+02
  -3.044926e+02   8.320305e+02
  -6.774513e+02  -1.083631e+01
  -2.835124e+02  -7.440212e+02
   3.908003e+02  -6.615125e+02
   6.381938e+02  -4.434239e+01
   3.813108e+02   4.224609e+02
  -2.527551e+01   4.789629e+02
  -2.858731e+02   2.795450e+02
  -2.604309e+02  -3.428339e+00
   8.594878e+01  -1.480830e+02
   4.428265e+02   6.119627e+01
   2.589514e+02   4.468063e+02
  -4.453007e+02   4.805035e+02
  -9.096045e+02  -3.780195e+01
  -4.897478e+02  -6.111953e+02
   3.872675e+02  -5.882108e+02
   8.057650e+02  -2.512900e+01
   4.121916e+02   5.163870e+02
  -2.691662e+02   5.861486e+02
  -5.986754e+02   2.400327e+02
  -4.567311e+02  -2.520491e+02
  -7.235878e+01  -5.483937e+02
   2.710446e+02  -3.366968e+02
   2.591328e+02   2.485945e+02
  -1.368130e+02   5.150023e+02
  -5.018591e+02   4.634776e+01
  -3.057020e+02  -7.009223e+02
   3.317765e+02  -7.579422e+02
   6.775286e+02  -1.719313e+01
   3.137783e+02   6.215927e+02
  -3.205353e+02   3.928617e+02
  -4.563723e+02  -3.222566e+02
   2.627041e+01  -5.937927e+02
   5.652840e+02  -1.845200e+02
   6.260464e+02   4.018048e+02
   1.883835e+02   6.160016e+02
  -3.907082e+02   3.861075e+02
  -6.680366e+02  -5.205633e+01
  -4.067983e+02  -4.169413e+02
   1.611875e+02  -4.120623e+02
   4.847625e+02  -7.431502e+01
   2.605570e+02   2.237599e+02
  -1.470529e+02   1.332546e+02
  -1.785719e+02  -1.786879e+02
   1.754328e+02  -2.318595e+02
   3.818248e+02   6.173694e+01
   1.668347e+02   3.321907e+02
  -2.081205e+02   2.796477e+02
  -3.349401e+02   6.671346e+01
  -1.930585e+02  -8.606092e+01
   1.753293e+01  -2.161442e+02
   1.827831e+02  -3.258500e+02
   3.346822e+02  -2.497841e+02
   3.248762e+02   1.171584e+02
   1.051036e+02   4.531304e+02
  -1.388764e+02   3.979760e+02
  -1.610104e+02   8.583585e+01
  -2.388574e+01  -5.234818e+01
  -1.530223e+00   8.081662e+01
  -1.688533e+02   1.631958e+02
  -2.922049e+02  -1.797619e+01
  -1.903794e+02  -2.722308e+02
   5.861947e+01  -2.835918e+02
   2.444663e+02  -4.082124e+01
   2.349056e+02   2.294942e+02
   2.167122e+01   3.177848e+02
  -2.693775e+02   1.532432e+02
  -3.963338e+02  -1.352208e+02
  -2.297064e+02  -3.601544e+02
   9.731787e+01  -3.393411e+02
   2.509876e+02  -1.358694e+02
   1.626108e+02   6.226992e+00
   8.281136e+01  -1.859756e+01
   1.988206e+02  -7.875476e+01
   3.833195e+02   1.608694e+01
   3.565424e+02   2.441727e+02
   3.901242e+01   4.358849e+02
  -3.279143e+02   4.352480e+02
  -4.887896e+02   2.544816e+02
  -3.607412e+02  -7.239674e+01
  -7.820892e+01  -3.125857e+02
   1.302832e+02  -2.809107e+02
   1.025945e+02  -2.452491e+01
  -1.046698e+02   1.407803e+02
  -2.181224e+02   1.526843e+01
  -7.609279e+01  -2.114056e+02
   1.639628e+02  -2.059738e+02
   2.020943e+02   5.311379e+01
  -5.714353e+00   2.129717e+02
  -2.044325e+02   5.301242e+01
  -1.812613e+02  -2.475248e+02
   1.618589e+01  -3.568105e+02
   2.225509e+02  -2.093272e+02
   3.223307e+02   4.754861e+01
   2.865954e+02   2.210431e+02
   1.105659e+02   2.582362e+02
  -1.124115e+02   1.662789e+02
  -1.881733e+02   1.626763e+01
  -6.475143e+01  -4.838819e+01
   8.311986e+01   2.400629e+01
   5.069901e+01   1.335775e+02
  -1.217931e+02   1.210394e+02
  -1.888525e+02  -2.736945e+00
  -6.965075e+01  -7.812566e+01
   8.049145e+01  -3.090793e+01
   6.485838e+01   6.499882e+01
  -1.011408e+02   9.675230e+01
  -2.707577e+02   2.272455e+01
  -2.684603e+02  -1.196362e+02
  -8.515006e+01  -2.496763e+02
   1.627848e+02  -2.729483e+02
   2.918723e+02  -1.397108e+02
   1.893717e+02   5.950925e+01
  -2.130293e+01   1.251579e+02
  -1.076053e+02   1.400998e+01
   1.561248e+01  -1.137780e+02
   1.974246e+02  -7.773720e+01
   2.272797e+02   9.171510e+01
   8.019248e+01   2.133205e+02
  -9.287519e+01   1.669738e+02
  -1.477628e+02   3.489300e+01
  -7.529497e+01  -4.518442e+01
   2.656875e+01  -1.460974e+01
   4.575680e+01   7.495234e+01
  -5.922275e+01   1.139338e+02
  -1.954779e+02   4.365476e+01
  -2.049144e+02  -1.165481e+02
  -3.652581e+01  -2.287949e+02
   1.649074e+02  -1.769585e+02
   2.076485e+02  -9.139410e+00
   7.646757e+01   1.208690e+02
  -6.337705e+01   1.213326e+02
  -8.751134e+01   3.460008e+01
  -2.544522e+01  -2.459932e+01
   1.357016e+01  -2.013353e+01
  -1.310303e+01   6.346877e+00
  -6.858105e+01  -9.447717e+00
  -8.625579e+01  -7.654647e+01
  -2.324967e+01  -1.528792e+02
   1.125333e+02  -1.591873e+02
   2.289415e+02  -4.743889e+01
   2.077596e+02   1.345268e+02
   5.488261e+01   2.375048e+02
  -1.020591e+02   1.787931e+02
  -1.386219e+02   3.081005e+01
  -7.191922e+01  -5.765568e+01
  -2.506649e+01  -3.682896e+01
  -4.822834e+01   1.454562e+01
  -7.770795e+01   1.027137e+01
  -4.140174e+01  -4.524164e+01
   3.586520e+01  -8.495153e+01
   9.329866e+01  -5.671835e+01
   8.078892e+01   2.860522e+01
  -4.851001e+00   1.038937e+02
  -1.282873e+02   9.304354e+01
  -1.965318e+02  -3.948245e+01
  -1.151429e+02  -1.960340e+02
   9.050837e+01  -2.376618e+02
   2.618752e+02  -1.121686e+02
   2.656930e+02   8.050259e+01
   1.222770e+02   1.786680e+02
  -2.975173e+01   1.504258e+02
  -9.258379e+01   8.468316e+01
  -8.197836e+01   7.274706e+01
  -6.630062e+01   9.260057e+01
  -9.109045e+01   8.191991e+01
  -1.282391e+02  -1.730988e+01
  -1.231608e+02  -1.476100e+02
  -4.167579e+01  -2.256726e+02
   9.165131e+01  -1.754226e+02
   1.759093e+02  -2.935013e+01
   1.459413e+02   1.147583e+02
   2.496398e+01   1.582785e+02
  -6.517002e+01   9.533140e+01
  -6.204953e+01   9.945454e+00
  -9.783750e+00  -3.721502e+01
   3.005666e+00  -3.419183e+01
  -3.977307e+01  -2.289745e+01
  -7.911349e+01  -2.532610e+01
  -4.125649e+01  -3.780157e+01
   6.041771e+01  -3.983661e+01
   1.519119e+02  -1.306928e+01
   1.461319e+02   3.869973e+01
   2.672590e+01   8.698772e+01
  -1.106937e+02   8.018901e+01
  -1.455255e+02   2.214118e+01
  -5.314160e+01  -4.205429e+01
   5.922723e+01  -4.072868e+01
   7.649756e+01   1.849115e+01
   8.029541e+00   6.849408e+01
  -5.552989e+01   5.775897e+01
  -6.076788e+01  -2.430933e+00
  -4.229914e+01  -4.821037e+01
  -4.685061e+01  -4.032297e+01
  -6.336403e+01  -2.964558e+00
  -6.103305e+01   8.378035e-01
  -3.171357e+01  -6.219593e+01
   2.505037e+01  -1.376944e+02
   1.013520e+02  -1.399918e+02
   1.556754e+02  -4.293891e+01
   1.282356e+02   8.399258e+01
   1.513133e+01   1.246662e+02
  -8.107966e+01   6.874314e+01
  -6.284571e+01  -1.646426e+01
   5.676665e+01  -2.731289e+01
   1.382120e+02   3.728414e+01
   7.980777e+01   1.070924e+02
  -7.787054e+01   1.181773e+02
  -1.940350e+02   6.241493e+01
  -1.622080e+02  -2.730350e+01
  -3.978328e+01  -8.633517e+01
   5.936890e+01  -7.437599e+01
   5.001355e+01  -7.234752e+00
  -3.801532e+01   2.880487e+01
  -9.389563e+01  -1.875106e+01
  -3.778436e+01  -1.182367e+02
   8.729056e+01  -1.530124e+02
   1.668953e+02  -6.342427e+01
   1.297068e+02   1.007375e+02
   1.301150e+01   1.944722e+02
  -8.271080e+01   1.434407e+02
  -1.088672e+02  -5.357147e+00
  -6.831283e+01  -1.154927e+02
  -6.924106e+00  -1.061229e+02
   4.224820e+01  -2.410487e+01
   5.495275e+01   2.619340e+01
   2.772577e+01   5.245865e+00
   3.043261e+00  -2.198523e+01
   1.837357e+01   1.161028e+01
   5.688741e+01   8.340577e+01
   4.627886e+01   1.081339e+02
  -4.469773e+01   5.253491e+01
  -1.419292e+02  -3.560853e+01
  -1.317560e+02  -6.928005e+01
  -1.569160e+01  -4.996396e+01
   8.897035e+01  -2.499585e+01
   8.720144e+01  -8.337118e+00
   9.003411e+00   8.253631e+00
  -3.882629e+01   2.300580e+01
  -1.313759e+01   1.701036e+01
   2.162871e+01  -2.068534e+00
  -6.532859e+00  -8.539015e+00
  -7.494702e+01  -3.586710e+00
  -8.924788e+01  -2.350847e+01
  -6.946486e+00  -8.164699e+01
   1.170538e+02  -1.195066e+02
   1.791723e+02  -6.225618e+01
   1.381552e+02   6.596548e+01
   2.799316e+01   1.617850e+02
  -7.123754e+01   1.502435e+02
  -1.100993e+02   5.687352e+01
  -8.326621e+01  -2.525169e+01
  -2.559670e+01  -3.677096e+01
   5.660734e+00  -7.213753e+00
  -8.447514e+00  -3.733874e-01
  -3.633834e+01  -4.157702e+01
  -2.784712e+01  -8.828658e+01
   2.656947e+01  -7.212240e+01
   8.308163e+01   1.708460e+01
   7.939077e+01   1.059463e+02
   1.891949e+00   1.117940e+02
  -8.592928e+01   2.393689e+01
  -1.031830e+02  -7.437452e+01
  -3.108435e+01  -1.033118e+02
   6.574181e+01  -5.599986e+01
   9.527403e+01   9.372237e+00
   3.899224e+01   4.713511e+01
  -2.869383e+01   4.939824e+01
  -2.662158e+01   2.861960e+01
   3.683556e+01   2.730248e-01
   6.832565e+01  -5.977494e+00
   1.540323e+01   2.496097e+01
  -7.500008e+01   6.859647e+01
  -1.146921e+02   6.472415e+01
  -6.674308e+01  -8.532852e+00
   1.150219e+01  -8.300217e+01
   5.058767e+01  -7.971055e+01
   3.701044e+01  -5.888767e+00
   1.551085e+00   5.543660e+01
  -2.572236e+01   4.069824e+01
  -3.657516e+01  -1.972613e+01
  -2.531801e+01  -5.435266e+01
   4.611175e+00  -3.342688e+01
   3.445354e+01   7.226539e+00
   4.000392e+01   1.862468e+01
   1.990989e+01   1.740633e+00
   3.747088e-02  -1.098970e+01
  -6.318236e+00   6.834824e+00
  -6.858919e+00   3.624812e+01
  -1.863619e+01   4.023720e+01
  -3.297749e+01   4.457715e+00
  -2.812014e+01  -4.592558e+01
   3.011863e+00  -6.019798e+01
   4.408445e+01  -2.114593e+01
   5.518025e+01   3.852004e+01
   1.594149e+01   6.295071e+01
  -5.135128e+01   3.420210e+01
  -8.677803e+01  -1.242921e+01
  -4.929962e+01  -4.070187e+01
   2.636726e+01  -3.948783e+01
   6.051978e+01  -2.181898e+01
   2.050261e+01  -4.380036e+00
  -3.950727e+01   2.481863e-01
  -3.907692e+01  -1.758710e+01
   3.237613e+01  -3.614189e+01
   9.598994e+01  -2.351286e+01
