
 $NMID
 id='ANONYMOUS ', fmtdat='(2E16.6)'
 volume=1.0
 tramp=1.0
 $END
  -4.711828e+03   1.597070e+02
  -2.552512e+03  -2.862301e+03
   9.659626e+02  -2.929959e+03
   2.405174e+03  -8.260460e+02
   1.007109e+03   8.632579e+02
  -8.101490e+02   6.996945e+02
  -1.020205e+03  -4.623980e+02
   3.180979e+01  -1.198742e+03
   9.577739e+02  -8.263033e+02
   1.074922e+03   1.377781e+02
   4.813870e+02   9.993961e+02
  -3.227624e+02   1.000462e+03
  -7.593084e+02   1.410518e+02
  -4.098650e+02  -7.963822e+02
   3.251511e+02  -8.169619e+02
   6.760752e+02   2.287381e+01
   2.748140e+02   7.498322e+02
  -3.964401e+02   6.748620e+02
  -6.433445e+02   5.427995e+01
  -3.928024e+02  -4.222908e+02
   2.270448e+01  -4.945332e+02
   3.008125e+02  -2.792984e+02
   2.543199e+02   1.664578e+01
  -9.973677e+01   1.275439e+02
  -4.247345e+02  -1.143678e+02
  -2.209861e+02  -4.632338e+02
   4.751431e+02  -4.421846e+02
   8.919980e+02   1.242026e+02
   4.481915e+02   6.378836e+02
  -4.253269e+02   5.412864e+02
  -7.988154e+02  -5.137079e+01
  -3.817051e+02  -5.365547e+02
   2.989270e+02  -5.697333e+02
   6.127491e+02  -2.058669e+02
   4.449683e+02   2.677472e+02
   6.190163e+01   5.438127e+02
  -2.485145e+02   3.223176e+02
  -2.192861e+02  -2.493082e+02
   1.814595e+02  -4.882711e+02
   4.852513e+02   3.323419e-01
   2.456456e+02   7.271260e+02
  -3.768438e+02   7.474592e+02
  -6.651708e+02  -7.173914e+00
  -2.912198e+02  -6.150998e+02
   3.229356e+02  -3.689693e+02
   4.325496e+02   3.291086e+02
  -5.986936e+01   5.909722e+02
  -5.796486e+02   1.566646e+02
  -6.129545e+02  -4.437150e+02
  -1.718105e+02  -6.420525e+02
   4.124005e+02  -3.736069e+02
   6.701886e+02   9.790804e+01
   3.901476e+02   4.429937e+02
  -1.829384e+02   3.985395e+02
  -4.849984e+02   4.022684e+01
  -2.488606e+02  -2.355134e+02
   1.483600e+02  -1.227388e+02
   1.652749e+02   1.890111e+02
  -1.807279e+02   2.137226e+02
  -3.751625e+02  -7.933583e+01
  -1.578744e+02  -3.329156e+02
   2.138569e+02  -2.754261e+02
   3.494981e+02  -5.945595e+01
   2.132192e+02   1.016693e+02
  -1.507870e+01   2.342726e+02
  -2.252558e+02   3.192953e+02
  -3.603227e+02   2.176197e+02
  -3.087526e+02  -1.418643e+02
  -6.358293e+01  -4.505164e+02
   1.456547e+02  -3.921342e+02
   1.458637e+02  -9.338651e+01
   2.053370e+01   3.087702e+01
   2.636344e+01  -8.133311e+01
   1.831098e+02  -1.424398e+02
   2.883850e+02   4.112415e+01
   1.720666e+02   2.764492e+02
  -7.101974e+01   2.769220e+02
  -2.373149e+02   2.658640e+01
  -2.115330e+02  -2.394898e+02
   4.031981e+00  -3.147904e+02
   2.840459e+02  -1.295336e+02
   3.802961e+02   1.756878e+02
   1.938596e+02   3.751153e+02
  -1.168851e+02   3.265425e+02
  -2.481844e+02   1.210139e+02
  -1.557323e+02  -7.132722e+00
  -9.118693e+01   2.407293e+01
  -2.151691e+02   7.245232e+01
  -3.917732e+02  -4.382286e+01
  -3.443739e+02  -2.710370e+02
  -1.224578e+01  -4.390072e+02
   3.510576e+02  -4.133411e+02
   4.974388e+02  -2.132690e+02
   3.485173e+02   9.921751e+01
   5.078191e+01   3.088994e+02
  -1.484743e+02   2.726907e+02
  -1.034821e+02   2.342478e+01
   1.159259e+02  -1.260452e+02
   2.125309e+02   1.107703e-01
   6.126431e+01   2.091942e+02
  -1.748671e+02   1.885081e+02
  -1.976706e+02  -6.424336e+01
   1.476849e+01  -2.103475e+02
   2.073141e+02  -4.212120e+01
   1.733176e+02   2.589803e+02
  -3.284495e+01   3.647226e+02
  -2.348188e+02   2.027859e+02
  -3.345680e+02  -7.197577e+01
  -2.833153e+02  -2.577384e+02
  -8.858347e+01  -2.819380e+02
   1.300512e+02  -1.640454e+02
   1.948763e+02  -2.747841e+00
   5.997051e+01   5.710740e+01
  -8.053557e+01  -3.161519e+01
  -3.839324e+01  -1.348585e+02
   1.317561e+02  -1.106207e+02
   1.887074e+02   1.704434e+01
   6.420592e+01   8.366568e+01
  -8.644009e+01   2.683660e+01
  -6.369051e+01  -7.091490e+01
   1.091125e+02  -9.031542e+01
   2.742622e+02  -1.860916e+00
   2.689259e+02   1.384088e+02
   6.812255e+01   2.611845e+02
  -1.831895e+02   2.675591e+02
  -2.974747e+02   1.240661e+02
  -1.842239e+02  -6.573077e+01
   2.870097e+01  -1.208619e+02
   1.050093e+02  -6.448402e+00
  -2.614085e+01   1.123320e+02
  -2.070139e+02   6.537020e+01
  -2.290332e+02  -1.110119e+02
  -7.260454e+01  -2.225770e+02
   1.020950e+02  -1.657915e+02
   1.543116e+02  -2.581473e+01
   7.626987e+01   5.198318e+01
  -2.903844e+01   1.226076e+01
  -4.336969e+01  -8.372443e+01
   6.802939e+01  -1.148759e+02
   2.064571e+02  -3.103460e+01
   2.030962e+02   1.320942e+02
   2.195065e+01   2.312706e+02
  -1.775674e+02   1.663736e+02
  -2.099071e+02  -3.217985e+00
  -6.960143e+01  -1.251539e+02
   7.244042e+01  -1.182800e+02
   9.204921e+01  -3.002364e+01
   2.228806e+01   2.660494e+01
  -1.957342e+01   1.843980e+01
   1.098463e+01  -7.550737e+00
   7.093456e+01   1.074479e+01
   8.729298e+01   8.336191e+01
   1.290727e+01   1.596162e+02
  -1.305419e+02   1.570313e+02
  -2.344976e+02   3.057655e+01
  -2.024168e+02  -1.589291e+02
  -3.529776e+01  -2.510872e+02
   1.185299e+02  -1.761745e+02
   1.458050e+02  -2.169964e+01
   6.972988e+01   6.664086e+01
   2.361341e+01   4.135159e+01
   5.132692e+01  -1.025439e+01
   7.844247e+01  -4.558754e+00
   3.970482e+01   5.123270e+01
  -4.111085e+01   8.694599e+01
  -1.008530e+02   5.386745e+01
  -8.565975e+01  -3.280218e+01
   8.702730e+00  -1.073210e+02
   1.362093e+02  -8.774895e+01
   1.997878e+02   5.166918e+01
   1.054264e+02   2.050593e+02
  -1.082661e+02   2.337231e+02
  -2.746647e+02   9.235389e+01
  -2.636039e+02  -9.419125e+01
  -1.095477e+02  -1.832598e+02
   3.947120e+01  -1.472543e+02
   9.476078e+01  -8.332724e+01
   8.603311e+01  -7.209253e+01
   7.240464e+01  -9.167447e+01
   9.506266e+01  -7.695190e+01
   1.298378e+02   2.405337e+01
   1.196663e+02   1.517632e+02
   2.911790e+01   2.277805e+02
  -1.034490e+02   1.735126e+02
  -1.817361e+02   2.070257e+01
  -1.403985e+02  -1.264299e+02
  -1.458843e+01  -1.663220e+02
   7.315385e+01  -9.552471e+01
   6.270529e+01  -2.966827e+00
   7.596272e+00   4.088547e+01
  -4.832872e+00   3.317212e+01
   4.042045e+01   2.117115e+01
   8.163747e+01   2.560152e+01
   4.190294e+01   4.084496e+01
  -6.543227e+01   3.934670e+01
  -1.579177e+02   5.386450e+00
  -1.459452e+02  -4.985595e+01
  -1.938191e+01  -8.915118e+01
   1.179758e+02  -7.372280e+01
   1.484289e+02  -1.155602e+01
   5.162526e+01   4.542607e+01
  -5.979602e+01   3.804479e+01
  -7.683660e+01  -2.211857e+01
  -7.968797e+00  -6.931338e+01
   5.789169e+01  -5.706143e+01
   6.449349e+01   4.389046e+00
   4.466070e+01   5.290391e+01
   4.589584e+01   4.716370e+01
   5.899089e+01   8.431800e+00
   6.048268e+01   2.883760e+00
   2.996135e+01   6.472504e+01
  -3.358073e+01   1.389052e+02
  -1.166329e+02   1.364604e+02
  -1.626749e+02   3.256861e+01
  -1.240628e+02  -9.403533e+01
  -7.236585e+00  -1.292327e+02
   8.385565e+01  -6.398538e+01
   6.308294e+01   1.926581e+01
  -5.836753e+01   2.525621e+01
  -1.408235e+02  -4.600255e+01
  -7.886755e+01  -1.136716e+02
   8.277550e+01  -1.172490e+02
   2.000954e+02  -5.200210e+01
   1.683021e+02   3.878936e+01
   3.742277e+01   8.997934e+01
  -6.434740e+01   7.001603e+01
  -5.062363e+01   1.704678e+00
   4.040361e+01  -2.780197e+01
   9.408790e+01   2.572759e+01
   3.182587e+01   1.224487e+02
  -9.662966e+01   1.529443e+02
  -1.734056e+02   5.663366e+01
  -1.293588e+02  -1.066475e+02
  -3.347503e+00  -2.029408e+02
   9.430781e+01  -1.460169e+02
   1.115215e+02   9.135003e+00
   6.392639e+01   1.240698e+02
  -8.870570e-01   1.129821e+02
  -4.753494e+01   2.359834e+01
  -5.412997e+01  -3.266858e+01
  -2.730331e+01  -1.155490e+01
  -3.715078e+00   2.053149e+01
  -1.828284e+01  -1.176232e+01
  -5.483489e+01  -8.651894e+01
  -4.128694e+01  -1.138989e+02
   4.926853e+01  -5.071360e+01
   1.416760e+02   4.254726e+01
   1.366790e+02   7.700269e+01
   1.701556e+01   5.495671e+01
  -9.219118e+01   2.158574e+01
  -9.228311e+01   4.445065e+00
  -1.241655e+01  -8.703655e+00
   4.067323e+01  -2.217864e+01
   1.634890e+01  -1.837287e+01
  -1.980943e+01   1.269481e+00
   6.791361e+00   1.000363e+01
   7.491192e+01   7.840900e+00
   8.819559e+01   2.702148e+01
   3.899064e+00   7.958619e+01
  -1.220556e+02   1.129527e+02
  -1.848561e+02   5.701818e+01
  -1.399683e+02  -6.779465e+01
  -2.462095e+01  -1.619226e+02
   7.804819e+01  -1.483620e+02
   1.133708e+02  -5.659509e+01
   8.367003e+01   2.515732e+01
   2.470010e+01   3.889682e+01
  -5.012852e+00   8.648839e+00
   7.098632e+00   2.458395e+00
   3.176667e+01   4.387269e+01
   2.191985e+01   8.796050e+01
  -3.017073e+01   7.048422e+01
  -8.183909e+01  -2.208568e+01
  -7.383112e+01  -1.127563e+02
   2.649439e+00  -1.137470e+02
   8.783394e+01  -2.092857e+01
   1.036628e+02   8.037273e+01
   2.796184e+01   1.082895e+02
  -7.066057e+01   5.475028e+01
  -9.919229e+01  -1.475420e+01
  -3.956263e+01  -5.092204e+01
   3.358978e+01  -4.952599e+01
   3.142953e+01  -2.832251e+01
  -3.637737e+01  -2.314937e+00
  -7.151448e+01   3.071853e+00
  -1.493437e+01  -2.520058e+01
   8.114704e+01  -6.306002e+01
   1.190597e+02  -5.646144e+01
   6.503972e+01   1.458642e+01
  -1.741844e+01   8.184580e+01
  -5.627774e+01   7.419906e+01
  -3.797068e+01   1.773955e+00
   1.164972e+00  -5.658503e+01
   2.885959e+01  -4.038950e+01
   3.639931e+01   2.188613e+01
   2.204899e+01   5.693625e+01
  -8.235145e+00   3.294638e+01
  -3.575888e+01  -1.048357e+01
  -4.020849e+01  -2.322380e+01
  -2.005990e+01  -2.973976e+00
  -4.228833e-01   1.202663e+01
   6.088925e+00  -6.245792e+00
   8.307374e+00  -3.906746e+01
   2.072367e+01  -4.405539e+01
   3.571460e+01  -4.943017e+00
   2.945694e+01   4.820822e+01
  -4.425221e+00   6.265553e+01
  -4.741324e+01   2.011728e+01
  -5.747425e+01  -4.270867e+01
  -1.280065e+01  -6.584276e+01
   5.647260e+01  -3.297885e+01
   9.033214e+01   1.823318e+01
   4.908886e+01   4.633069e+01
  -2.936333e+01   4.065154e+01
  -6.500916e+01   1.938123e+01
  -2.385200e+01   1.818931e+00
   3.869739e+01   2.228770e+00
   3.903435e+01   1.863329e+01
  -3.326073e+01   3.353759e+01
  -9.715512e+01   1.845545e+01
