
 $NMID
 id='ANONYMOUS ', fmtdat='(2E16.6)'
 volume=1.0
 tramp=1.0
 $END
   4.639795e+03  -1.771991e+02
   2.642670e+03   2.536126e+03
  -7.445110e+02   2.978988e+03
  -2.280320e+03   1.065548e+03
  -1.103418e+03  -6.567644e+02
   6.667515e+02  -7.132776e+02
   9.742612e+02   3.528071e+02
   3.192776e+01   1.127446e+03
  -8.885857e+02   8.532126e+02
  -1.038957e+03  -6.648298e+01
  -5.264757e+02  -9.357937e+02
   2.496963e+02  -9.944866e+02
   7.082990e+02  -1.797998e+02
   4.399490e+02   7.490332e+02
  -2.682750e+02   8.199924e+02
  -6.585990e+02   4.054880e+00
  -3.178623e+02  -7.350342e+02
   3.443830e+02  -7.063665e+02
   6.432709e+02  -1.000574e+02
   4.343137e+02   3.981985e+02
   1.282118e+01   4.896433e+02
  -2.800988e+02   2.803507e+02
  -2.362634e+02  -1.611199e+00
   1.084158e+02  -1.133757e+02
   4.139020e+02   1.197425e+02
   2.150751e+02   4.521839e+02
  -4.668841e+02   4.299486e+02
  -8.728070e+02  -9.505602e+01
  -4.553071e+02  -5.943446e+02
   3.883721e+02  -5.356425e+02
   7.708343e+02   2.462335e+01
   3.836153e+02   5.075785e+02
  -2.713354e+02   5.676563e+02
  -5.907738e+02   2.273269e+02
  -4.480310e+02  -2.427685e+02
  -7.656070e+01  -5.196554e+02
   2.236917e+02  -3.188540e+02
   2.077904e+02   2.201529e+02
  -1.630618e+02   4.639981e+02
  -4.735939e+02   7.995382e+00
  -2.814787e+02  -6.923237e+02
   3.260143e+02  -7.480105e+02
   6.547714e+02  -3.188793e+01
   3.227615e+02   5.804950e+02
  -2.793392e+02   3.778755e+02
  -4.171993e+02  -2.806077e+02
   2.819480e+01  -5.822943e+02
   5.656602e+02  -1.852327e+02
   6.316292e+02   3.990250e+02
   1.999507e+02   6.242582e+02
  -3.972019e+02   3.869821e+02
  -6.810234e+02  -6.298333e+01
  -4.238025e+02  -4.131000e+02
   1.541335e+02  -4.123608e+02
   4.842683e+02  -8.762257e+01
   2.865387e+02   1.949465e+02
  -1.066123e+02   1.273159e+02
  -1.578338e+02  -1.486208e+02
   1.591990e+02  -2.004525e+02
   3.680060e+02   5.539570e+01
   1.720683e+02   3.105187e+02
  -2.022521e+02   2.936272e+02
  -3.584949e+02   8.620072e+01
  -2.210318e+02  -9.612930e+01
   1.114938e+01  -2.536953e+02
   2.360371e+02  -3.436996e+02
   3.583038e+02  -2.284992e+02
   3.157718e+02   1.421934e+02
   8.813790e+01   4.526328e+02
  -1.274022e+02   4.101625e+02
  -1.403469e+02   1.179860e+02
  -3.199010e+01  -1.613609e+01
  -3.657345e+01   8.140256e+01
  -1.886228e+02   1.357163e+02
  -2.884990e+02  -4.457523e+01
  -1.814331e+02  -2.756539e+02
   6.292135e+01  -2.772029e+02
   2.423374e+02  -2.695141e+01
   2.195595e+02   2.409048e+02
   1.396182e+00   3.101094e+02
  -2.779223e+02   1.340554e+02
  -3.876606e+02  -1.635075e+02
  -2.101764e+02  -3.651415e+02
   9.771488e+01  -3.294934e+02
   2.379638e+02  -1.401824e+02
   1.645214e+02  -1.133271e+01
   1.065656e+02  -3.727106e+01
   2.399036e+02  -7.708052e+01
   4.125841e+02   4.018458e+01
   3.564057e+02   2.722621e+02
   1.906931e+01   4.534906e+02
  -3.541978e+02   4.393939e+02
  -5.007507e+02   2.336128e+02
  -3.505935e+02  -8.779194e+01
  -6.127924e+01  -3.047562e+02
   1.309204e+02  -2.750467e+02
   9.078314e+01  -3.489407e+01
  -1.106113e+02   1.173833e+02
  -2.076708e+02   2.258352e+00
  -6.444043e+01  -2.080910e+02
   1.656645e+02  -1.940788e+02
   1.990421e+02   5.540471e+01
  -5.253571e+00   2.101627e+02
  -2.035158e+02   4.599782e+01
  -1.841538e+02  -2.649767e+02
   2.694723e+01  -3.793881e+02
   2.494500e+02  -2.079026e+02
   3.629870e+02   7.456048e+01
   2.987608e+02   2.678296e+02
   9.492541e+01   2.923159e+02
  -1.315860e+02   1.675062e+02
  -1.913667e+02   1.465997e+01
  -6.084744e+01  -4.537900e+01
   7.625827e+01   3.689305e+01
   3.324443e+01   1.348430e+02
  -1.286696e+02   1.135995e+02
  -1.861679e+02  -9.989704e+00
  -6.553014e+01  -7.902814e+01
   8.462769e+01  -2.784953e+01
   6.471200e+01   7.233586e+01
  -1.139250e+02   9.641058e+01
  -2.836741e+02   1.062486e+01
  -2.783137e+02  -1.400066e+02
  -7.337655e+01  -2.671903e+02
   1.826396e+02  -2.724794e+02
   2.920308e+02  -1.261705e+02
   1.842555e+02   5.628959e+01
  -2.168788e+01   1.174945e+02
  -9.913931e+01   1.280394e+01
   2.522024e+01  -1.034444e+02
   1.980498e+02  -6.512235e+01
   2.292653e+02   1.027428e+02
   8.194174e+01   2.193660e+02
  -9.349368e+01   1.716170e+02
  -1.533468e+02   3.319246e+01
  -7.791331e+01  -5.047920e+01
   2.793850e+01  -1.128592e+01
   4.342076e+01   8.586236e+01
  -6.689673e+01   1.168333e+02
  -2.067423e+02   3.482799e+01
  -2.048339e+02  -1.280310e+02
  -2.702905e+01  -2.322019e+02
   1.746963e+02  -1.748006e+02
   2.102197e+02  -6.643533e+00
   7.626741e+01   1.230570e+02
  -6.736014e+01   1.238978e+02
  -9.265707e+01   3.719672e+01
  -2.360195e+01  -2.772532e+01
   2.220310e+01  -1.951069e+01
  -9.450524e+00   9.810508e+00
  -7.462496e+01  -6.383207e+00
  -9.469816e+01  -8.597704e+01
  -1.536346e+01  -1.682276e+02
   1.352635e+02  -1.625091e+02
   2.412220e+02  -2.885791e+01
   2.158824e+02   1.595441e+02
   4.425851e+01   2.593567e+02
  -1.184215e+02   1.871728e+02
  -1.525986e+02   3.159638e+01
  -7.900584e+01  -6.426549e+01
  -2.792284e+01  -4.260411e+01
  -5.174247e+01   1.229898e+01
  -8.233249e+01   7.977947e+00
  -4.640171e+01  -5.341940e+01
   4.135748e+01  -9.233181e+01
   1.107600e+02  -5.740709e+01
   9.202400e+01   3.560790e+01
  -9.127743e+00   1.133571e+02
  -1.433484e+02   9.116033e+01
  -2.049846e+02  -5.062472e+01
  -1.112967e+02  -2.091894e+02
   1.064905e+02  -2.437272e+02
   2.820401e+02  -1.042793e+02
   2.732767e+02   8.397340e+01
   1.221084e+02   1.832141e+02
  -3.666448e+01   1.571149e+02
  -9.771312e+01   9.147390e+01
  -8.847068e+01   7.675151e+01
  -7.090371e+01   9.600662e+01
  -9.733418e+01   8.118040e+01
  -1.372113e+02  -2.073887e+01
  -1.288916e+02  -1.577692e+02
  -3.568566e+01  -2.394754e+02
   1.010081e+02  -1.866642e+02
   1.867711e+02  -2.695182e+01
   1.455266e+02   1.277072e+02
   2.022307e+01   1.681939e+02
  -7.219732e+01   9.653179e+01
  -6.376757e+01   1.639124e+00
  -7.131548e+00  -4.339105e+01
   8.084285e+00  -3.472238e+01
  -3.872678e+01  -1.919248e+01
  -8.434765e+01  -2.366323e+01
  -4.585193e+01  -4.154658e+01
   6.594524e+01  -4.118561e+01
   1.624792e+02  -7.490137e+00
   1.518071e+02   5.297704e+01
   2.040423e+01   9.292065e+01
  -1.238728e+02   8.087500e+01
  -1.555588e+02   1.425442e+01
  -5.473290e+01  -4.826806e+01
   5.986955e+01  -4.402352e+01
   8.016992e+01   1.767868e+01
   1.264049e+01   7.031766e+01
  -5.437568e+01   6.020886e+01
  -6.711697e+01  -2.236970e+00
  -5.006245e+01  -5.269584e+01
  -4.626235e+01  -4.633656e+01
  -5.631373e+01  -4.239839e+00
  -6.227926e+01   1.915968e+00
  -3.848274e+01  -6.580120e+01
   2.565533e+01  -1.469776e+02
   1.171817e+02  -1.470514e+02
   1.735092e+02  -3.771054e+01
   1.350433e+02   9.534475e+01
   8.146686e+00   1.349893e+02
  -9.244049e+01   6.666524e+01
  -6.911323e+01  -1.694517e+01
   5.702890e+01  -2.615785e+01
   1.470969e+02   3.880605e+01
   8.523679e+01   1.077313e+02
  -7.827440e+01   1.161026e+02
  -1.958565e+02   5.581177e+01
  -1.684692e+02  -3.077626e+01
  -4.056700e+01  -8.744792e+01
   6.049735e+01  -7.110189e+01
   5.073932e+01  -3.974168e+00
  -4.004068e+01   2.901677e+01
  -9.763983e+01  -2.360918e+01
  -3.735746e+01  -1.274106e+02
   9.433340e+01  -1.649432e+02
   1.783869e+02  -6.572598e+01
   1.367026e+02   1.052555e+02
   1.175740e+01   2.045645e+02
  -8.893414e+01   1.470378e+02
  -1.115169e+02  -9.922136e+00
  -6.389300e+01  -1.234238e+02
   1.947186e+00  -1.131133e+02
   4.976794e+01  -2.199385e+01
   5.375364e+01   3.373396e+01
   2.517194e+01   1.103823e+01
   2.690511e+00  -2.303565e+01
   2.234198e+01   1.016880e+01
   6.172830e+01   8.685103e+01
   4.724686e+01   1.161023e+02
  -5.180452e+01   5.442888e+01
  -1.462386e+02  -3.629317e+01
  -1.402956e+02  -7.230667e+01
  -1.835836e+01  -5.463029e+01
   9.310440e+01  -2.611261e+01
   9.310557e+01  -9.183031e+00
   1.381132e+01   1.003898e+01
  -3.973825e+01   2.480643e+01
  -1.559659e+01   1.891230e+01
   1.969943e+01  -2.603430e+00
  -6.754217e+00  -8.656114e+00
  -7.809734e+01  -2.874113e+00
  -9.370941e+01  -2.488628e+01
  -9.486952e+00  -8.511343e+01
   1.193968e+02  -1.221902e+02
   1.896530e+02  -6.239260e+01
   1.474204e+02   6.616150e+01
   2.979598e+01   1.679963e+02
  -7.991571e+01   1.552894e+02
  -1.164671e+02   5.933705e+01
  -8.352329e+01  -2.518771e+01
  -2.392556e+01  -4.009592e+01
   5.380052e+00  -8.828320e+00
  -8.370160e+00  -2.167734e+00
  -3.515904e+01  -4.598967e+01
  -2.563871e+01  -9.357310e+01
   2.880511e+01  -7.502400e+01
   8.566260e+01   1.884855e+01
   8.158326e+01   1.123685e+02
   2.768563e+00   1.159029e+02
  -8.835989e+01   2.508344e+01
  -1.102274e+02  -7.757962e+01
  -3.355403e+01  -1.093638e+02
   7.046841e+01  -6.055647e+01
   1.034139e+02   1.018071e+01
   4.137720e+01   5.187867e+01
  -3.486563e+01   5.302586e+01
  -3.317376e+01   2.769366e+01
   3.653604e+01  -2.383968e+00
   7.305626e+01  -6.070497e+00
   1.713015e+01   2.820381e+01
  -8.263464e+01   7.041158e+01
  -1.202196e+02   6.093431e+01
  -6.705921e+01  -1.427777e+01
   1.426746e+01  -8.702462e+01
   5.571880e+01  -8.218261e+01
   3.975160e+01  -6.454964e+00
   4.198853e+00   5.834722e+01
  -2.704351e+01   4.638196e+01
  -3.893443e+01  -1.741600e+01
  -2.709541e+01  -5.752734e+01
   6.707867e+00  -3.564759e+01
   3.805801e+01   8.887513e+00
   4.187427e+01   2.430925e+01
   1.892851e+01   4.418794e+00
  -3.120838e+00  -1.348229e+01
  -7.273997e+00   3.242349e+00
  -5.627242e+00   3.816926e+01
  -1.666304e+01   4.795338e+01
  -3.395658e+01   8.294540e+00
  -3.270053e+01  -4.671276e+01
  -5.887461e-01  -6.486083e+01
   4.634790e+01  -2.324607e+01
   6.013679e+01   4.073231e+01
   1.549110e+01   6.668981e+01
  -5.663549e+01   3.636027e+01
  -9.368769e+01  -1.507822e+01
  -5.181850e+01  -4.649168e+01
   2.927353e+01  -4.545831e+01
   6.572457e+01  -2.428041e+01
   2.532660e+01  -3.407219e+00
  -3.841442e+01  -1.118450e-01
  -3.867535e+01  -1.514238e+01
   3.206765e+01  -3.371638e+01
   9.531771e+01  -2.055077e+01
