
 $NMID
 id='ANONYMOUS ', fmtdat='(2E16.6)'
 volume=1.0
 tramp=1.0
 $END
  -3.467197e+03   2.280349e+02
  -2.182253e+03  -1.496772e+03
  -1.824755e+02  -2.149412e+03
   1.183597e+03  -1.471070e+03
   1.032026e+03  -3.919465e+02
   9.302064e+01   1.781684e+02
  -3.171742e+02  -5.948026e+01
  -5.503648e+01  -5.337206e+02
   4.063352e+02  -5.845860e+02
   6.139302e+02  -1.353502e+02
   4.612873e+02   4.829360e+02
   7.120316e+01   6.502443e+02
  -2.713246e+02   2.276833e+02
  -2.649663e+02  -3.819021e+02
   6.774588e+01  -5.453110e+02
   3.978503e+02  -1.026726e+02
   3.276779e+02   4.875007e+02
  -9.885465e+01   6.534831e+02
  -4.707658e+02   3.087173e+02
  -4.752849e+02  -1.691284e+02
  -1.675222e+02  -3.620577e+02
   8.629613e+01  -2.559720e+02
   3.996424e+01  -1.003470e+02
  -2.013941e+02  -1.307562e+02
  -2.649974e+02  -3.092626e+02
   4.566677e+01  -3.592190e+02
   4.950660e+02  -1.365365e+02
   5.975484e+02   2.182090e+02
   1.847087e+02   3.593780e+02
  -3.499870e+02   1.966186e+02
  -5.130290e+02  -1.389646e+02
  -1.846313e+02  -3.724720e+02
   2.761400e+02  -3.659164e+02
   4.628478e+02  -1.473392e+02
   3.271661e+02   1.493904e+02
   9.786201e+01   3.105627e+02
   1.123019e+00   1.762546e+02
   6.853219e+01  -9.229082e+01
   1.756488e+02  -1.373198e+02
   1.880140e+02   1.594574e+02
   1.058753e+01   4.987580e+02
  -2.333171e+02   4.402361e+02
  -3.215627e+02   6.436070e+00
  -1.355662e+02  -3.186009e+02
   1.405017e+02  -1.398587e+02
   1.796544e+02   2.929557e+02
  -9.990138e+01   4.089720e+02
  -4.436500e+02   7.643712e+01
  -5.108497e+02  -3.600168e+02
  -1.801150e+02  -4.997832e+02
   2.858417e+02  -2.859287e+02
   5.265769e+02   3.451260e+01
   3.577649e+02   2.350702e+02
  -2.264078e+01   2.313700e+02
  -2.824435e+02   1.115709e+02
  -2.383576e+02   3.310795e+00
  -3.247942e+01  -1.470522e+01
   4.854698e+01   3.630455e+01
  -8.282998e+01   5.687999e+01
  -2.206967e+02  -3.392146e+01
  -1.391680e+02  -1.942357e+02
   1.460329e+02  -2.675547e+02
   3.680007e+02  -1.474345e+02
   2.943575e+02   1.219843e+02
  -2.381728e+01   3.656044e+02
  -3.208485e+02   3.991707e+02
  -3.902588e+02   1.774474e+02
  -2.506459e+02  -1.672153e+02
  -6.782870e+01  -3.678686e+02
   9.039510e+00  -3.383573e+02
   1.935170e+01  -1.982952e+02
   4.926953e+01  -1.368647e+02
   1.643266e+02  -1.392674e+02
   2.768770e+02  -5.832036e+01
   2.601284e+02   1.344613e+02
   9.900285e+01   2.823776e+02
  -1.042650e+02   2.018908e+02
  -2.127417e+02  -5.201532e+01
  -1.464298e+02  -2.629464e+02
   6.026804e+01  -2.582265e+02
   2.662848e+02  -5.574465e+01
   3.234428e+02   1.768438e+02
   1.791706e+02   3.026648e+02
  -4.296473e+01   2.754303e+02
  -1.623637e+02   1.832863e+02
  -1.587212e+02   1.106435e+02
  -1.775978e+02   8.077612e+01
  -3.124030e+02   3.203711e+01
  -4.353746e+02  -1.112126e+02
  -3.350315e+02  -3.209299e+02
   2.454639e+01  -4.702096e+02
   4.021209e+02  -4.335936e+02
   4.975937e+02  -1.985705e+02
   3.017610e+02   1.053201e+02
   2.373133e+01   2.635589e+02
  -8.758070e+01   2.063764e+02
  -4.994350e+00   3.795336e+01
   1.203936e+02  -3.036103e+01
   1.221486e+02   4.383711e+01
   8.179375e-01   1.442644e+02
  -1.164065e+02   1.073181e+02
  -1.049695e+02  -5.391261e+01
   3.335960e+01  -1.400668e+02
   1.721843e+02   2.048280e+00
   1.623597e+02   2.591212e+02
  -2.320964e+01   3.775197e+02
  -2.787161e+02   2.318456e+02
  -4.002065e+02  -8.445353e+01
  -2.910576e+02  -3.106635e+02
  -3.686398e+01  -3.061523e+02
   1.595614e+02  -1.394256e+02
   1.619819e+02   9.412763e+00
   2.897510e+01   2.120267e+01
  -5.339291e+01  -6.534766e+01
   1.397689e+01  -1.173536e+02
   1.329158e+02  -6.207325e+01
   1.458618e+02   3.142176e+01
   2.138089e+01   5.535733e+01
  -9.651201e+01  -1.919900e+01
  -3.888949e+01  -1.105088e+02
   1.652345e+02  -1.028830e+02
   3.295593e+02   1.966248e+01
   2.772915e+02   1.873157e+02
   2.687455e+01   2.833663e+02
  -2.221085e+02   2.443276e+02
  -2.801401e+02   9.441542e+01
  -1.389767e+02  -4.875149e+01
   3.259849e+01  -7.461719e+01
   6.489488e+01   9.932688e+00
  -5.792394e+01   8.430969e+01
  -1.924305e+02   3.163689e+01
  -1.968711e+02  -1.085086e+02
  -5.813879e+01  -1.949180e+02
   9.359651e+01  -1.352851e+02
   1.235657e+02  -1.005241e+01
   3.394153e+01   4.313174e+01
  -5.569684e+01  -2.908433e+01
  -2.852884e+01  -1.294962e+02
   1.141761e+02  -1.276806e+02
   2.338049e+02  -8.867643e+00
   1.909753e+02   1.516958e+02
   5.551398e+00   2.247590e+02
  -1.687833e+02   1.552204e+02
  -1.830524e+02   8.503023e+00
  -5.757559e+01  -1.007430e+02
   6.333120e+01  -1.009815e+02
   7.135988e+01  -2.574712e+01
  -3.386432e+00   2.473563e+01
  -4.188082e+01   5.719877e+00
   1.270442e+01  -3.591279e+01
   1.037408e+02  -7.583593e+00
   1.180490e+02   1.035551e+02
   8.833153e+00   1.989016e+02
  -1.634183e+02   1.655727e+02
  -2.653918e+02   5.755855e+00
  -2.013438e+02  -1.799638e+02
  -3.184206e+01  -2.491844e+02
   1.115604e+02  -1.692449e+02
   1.371947e+02  -2.922803e+01
   7.727232e+01   4.733451e+01
   3.483859e+01   2.839355e+01
   5.947286e+01  -1.959590e+01
   9.707478e+01  -7.395808e+00
   6.401683e+01   6.579845e+01
  -4.373407e+01   1.215911e+02
  -1.401417e+02   7.515281e+01
  -1.221627e+02  -5.442305e+01
   1.900503e+01  -1.471107e+02
   1.831460e+02  -9.728262e+01
   2.266443e+02   7.792939e+01
   8.619995e+01   2.379963e+02
  -1.450413e+02   2.371676e+02
  -2.924861e+02   7.821498e+01
  -2.640357e+02  -1.047547e+02
  -1.056081e+02  -1.838259e+02
   4.281094e+01  -1.442543e+02
   9.425121e+01  -8.080836e+01
   7.500894e+01  -7.374394e+01
   5.989268e+01  -1.052118e+02
   9.707168e+01  -9.002925e+01
   1.464477e+02   2.053906e+01
   1.345159e+02   1.693031e+02
   2.762552e+01   2.476428e+02
  -1.116421e+02   1.779873e+02
  -1.854712e+02   7.801370e+00
  -1.320016e+02  -1.409724e+02
  -1.397817e+00  -1.665980e+02
   8.681558e+01  -8.232394e+01
   6.704327e+01   2.057366e+01
  -9.229537e+00   6.196537e+01
  -3.246271e+01   3.833067e+01
   2.957508e+01   7.932893e+00
   9.697075e+01   1.371953e+01
   5.417892e+01   4.521582e+01
  -8.160151e+01   4.891537e+01
  -1.893423e+02  -2.111630e+00
  -1.543605e+02  -7.707596e+01
   4.987058e+00  -1.121202e+02
   1.474102e+02  -7.733549e+01
   1.556695e+02   1.557233e+00
   4.460648e+01   6.036203e+01
  -6.482254e+01   4.843738e+01
  -8.467106e+01  -2.049451e+01
  -2.298679e+01  -8.159819e+01
   4.806699e+01  -7.461893e+01
   7.560654e+01  -4.067139e+00
   6.448269e+01   5.378770e+01
   5.192470e+01   4.584548e+01
   5.830719e+01  -5.233790e-01
   6.856284e+01   4.540163e-01
   5.385768e+01   7.791709e+01
  -2.086573e+01   1.651353e+02
  -1.325071e+02   1.595958e+02
  -1.966843e+02   3.985916e+01
  -1.440373e+02  -9.707390e+01
  -3.205593e+00  -1.435510e+02
   1.012897e+02  -8.147516e+01
   7.121990e+01   1.139060e+01
  -5.815161e+01   3.137413e+01
  -1.446832e+02  -3.504771e+01
  -8.203744e+01  -1.115049e+02
   8.431140e+01  -1.198015e+02
   2.034278e+02  -5.090406e+01
   1.670903e+02   4.454416e+01
   3.134976e+01   9.249047e+01
  -7.099441e+01   6.613418e+01
  -5.192193e+01  -4.309308e+00
   4.305860e+01  -3.488506e+01
   9.947251e+01   2.058493e+01
   4.469740e+01   1.252020e+02
  -8.185999e+01   1.699657e+02
  -1.707533e+02   7.635974e+01
  -1.416490e+02  -9.705920e+01
  -2.260018e+01  -2.032724e+02
   8.688818e+01  -1.493989e+02
   1.137310e+02   1.591153e+01
   5.778436e+01   1.302224e+02
  -1.916637e+01   1.088824e+02
  -6.051810e+01   1.062092e+01
  -4.875892e+01  -3.660956e+01
  -1.605233e+01  -7.689402e+00
  -7.024199e+00   1.820434e+01
  -3.650906e+01  -2.395289e+01
  -6.446494e+01  -9.734930e+01
  -2.959092e+01  -1.116846e+02
   6.602632e+01  -4.618706e+01
   1.469292e+02   3.902652e+01
   1.278520e+02   7.444374e+01
   1.395477e+01   5.719009e+01
  -8.844306e+01   2.818122e+01
  -9.048365e+01   4.073043e+00
  -1.722591e+01  -1.596311e+01
   3.553231e+01  -2.385413e+01
   1.998150e+01  -1.087197e+01
  -1.595718e+01   4.329048e+00
   2.642906e+00   1.997025e+00
   7.386307e+01  -8.040530e+00
   1.045321e+02   1.860845e+01
   2.904224e+01   9.012846e+01
  -1.120195e+02   1.368502e+02
  -2.053787e+02   7.949649e+01
  -1.717036e+02  -6.092787e+01
  -3.992300e+01  -1.740567e+02
   8.622599e+01  -1.696737e+02
   1.260232e+02  -7.096139e+01
   8.694359e+01   2.308497e+01
   2.690781e+01   4.243991e+01
   2.222731e+00   1.398121e+01
   1.404766e+01   8.643242e+00
   3.416105e+01   5.026304e+01
   2.244118e+01   9.877469e+01
  -3.014974e+01   8.040974e+01
  -8.692792e+01  -1.045769e+01
  -9.303206e+01  -1.047522e+02
  -2.088026e+01  -1.166921e+02
   7.840765e+01  -3.779329e+01
   1.134776e+02   6.449625e+01
   4.369112e+01   1.099686e+02
  -6.886473e+01   7.273578e+01
  -1.152704e+02  -5.057223e+00
  -5.328879e+01  -6.624556e+01
   3.613703e+01  -7.297089e+01
   4.679992e+01  -3.307488e+01
  -2.590446e+01   8.553012e+00
  -7.337503e+01   1.233768e+01
  -1.965697e+01  -3.103523e+01
   8.585085e+01  -7.518277e+01
   1.335158e+02  -6.027231e+01
   7.741208e+01   2.185217e+01
  -1.243783e+01   9.632765e+01
  -6.401340e+01   9.211287e+01
  -5.318605e+01   1.337694e+01
  -1.258258e+01  -5.732871e+01
   2.343800e+01  -5.571278e+01
   4.194870e+01   8.662541e+00
   3.339169e+01   5.783259e+01
  -2.109407e-01   4.420273e+01
  -3.776973e+01  -4.766684e+00
  -4.728933e+01  -2.857431e+01
  -2.184448e+01  -5.645129e+00
   6.040099e+00   2.329496e+01
   6.192477e+00   1.176972e+01
  -9.697368e+00  -3.395244e+01
  -4.718179e+00  -6.066681e+01
   2.827285e+01  -3.104133e+01
   4.772816e+01   3.162990e+01
   1.925187e+01   6.457011e+01
  -4.092194e+01   3.287865e+01
  -6.936512e+01  -3.163274e+01
  -2.401410e+01  -6.406806e+01
   6.108761e+01  -4.013936e+01
   1.024595e+02   1.086128e+01
   5.589952e+01   4.613201e+01
  -3.083365e+01   5.008583e+01
  -7.099131e+01   3.275480e+01
  -3.143544e+01   7.835510e+00
   2.899350e+01  -7.017818e+00
   3.642428e+01   1.996536e+00
  -2.176472e+01   2.723805e+01
  -7.887010e+01   2.770094e+01
