
 $NMID
 id='ANONYMOUS ', fmtdat='(2E16.6)'
 volume=1.0
 tramp=1.0
 $END
   2.924620e+03  -3.845367e+02
   2.050343e+03   1.098707e+03
   4.937067e+02   1.948333e+03
  -9.186398e+02   1.669039e+03
  -1.113255e+03   6.211005e+02
  -3.992179e+02  -1.504275e+02
   1.377476e+02  -1.330044e+02
   1.374047e+02   3.145538e+02
  -2.146009e+02   5.468431e+02
  -4.995029e+02   2.360109e+02
  -4.889837e+02  -3.335561e+02
  -1.899830e+02  -5.849124e+02
   1.485882e+02  -3.132276e+02
   2.472200e+02   2.481883e+02
   1.293993e+01   4.892428e+02
  -3.322839e+02   1.634741e+02
  -3.572004e+02  -4.036210e+02
   2.585568e+01  -6.645123e+02
   4.454207e+02  -3.941435e+02
   5.213949e+02   1.029573e+02
   2.240134e+02   3.447098e+02
  -3.536016e+01   2.707470e+02
   6.450846e+00   1.463285e+02
   1.926767e+02   2.155701e+02
   1.695471e+02   3.509509e+02
  -1.185929e+02   2.985009e+02
  -4.600754e+02   2.449169e+01
  -4.759705e+02  -2.280087e+02
  -1.474960e+02  -2.524629e+02
   2.679125e+02  -1.011475e+02
   3.988640e+02   1.309630e+02
   1.523762e+02   2.906304e+02
  -2.288273e+02   3.075525e+02
  -3.961007e+02   1.463315e+02
  -3.038635e+02  -1.011614e+02
  -1.334183e+02  -2.519775e+02
  -7.879523e+01  -1.756029e+02
  -1.235168e+02   5.602149e-01
  -1.495067e+02   2.946362e+01
  -7.091399e+01  -1.696777e+02
   6.763922e+01  -4.041338e+02
   1.950339e+02  -3.580244e+02
   2.277770e+02  -3.779014e+01
   1.229966e+02   2.119926e+02
  -6.310664e+01   1.068549e+02
  -1.187842e+02  -2.218835e+02
   9.652354e+01  -3.411364e+02
   3.905770e+02  -6.362944e+01
   4.689518e+02   3.288487e+02
   1.876342e+02   4.716081e+02
  -2.533033e+02   2.778876e+02
  -4.968556e+02  -1.739908e+01
  -3.722931e+02  -1.930764e+02
  -3.017509e+01  -2.082968e+02
   2.262256e+02  -1.467384e+02
   2.463181e+02  -6.507175e+01
   8.205942e+01   9.833126e+00
  -3.849625e+01  -3.269189e-01
   4.328805e+01  -3.461604e+01
   1.933756e+02   3.172922e-01
   1.626416e+02   1.548696e+02
  -1.172601e+02   2.811617e+02
  -3.766820e+02   1.886059e+02
  -3.261365e+02  -1.244479e+02
   1.990722e+01  -3.982940e+02
   3.448040e+02  -3.936716e+02
   3.936907e+02  -1.444432e+02
   2.243824e+02   1.667271e+02
   5.711941e+01   3.323581e+02
   2.611598e+01   3.233503e+02
   1.913520e+01   2.340176e+02
  -5.991183e+01   1.686039e+02
  -1.951161e+02   1.308621e+02
  -2.809934e+02   2.476337e+01
  -2.318655e+02  -1.479785e+02
  -7.673807e+01  -2.604155e+02
   9.666390e+01  -1.756533e+02
   1.825393e+02   6.132838e+01
   1.195707e+02   2.414069e+02
  -6.193341e+01   2.252848e+02
  -2.417185e+02   4.026541e+01
  -2.929928e+02  -1.685841e+02
  -1.744897e+02  -2.702070e+02
   1.271042e+01  -2.575306e+02
   1.385386e+02  -1.929743e+02
   1.649507e+02  -1.332943e+02
   1.966902e+02  -8.879757e+01
   3.141655e+02  -1.893023e+01
   4.176360e+02   1.183671e+02
   3.186243e+02   3.165847e+02
  -3.175380e+01   4.516732e+02
  -3.962383e+02   4.066013e+02
  -4.749628e+02   1.753855e+02
  -2.719149e+02  -1.032052e+02
  -1.264826e+01  -2.350217e+02
   6.105898e+01  -1.836087e+02
  -2.296909e+01  -4.802069e+01
  -1.160194e+02   5.133404e-01
  -9.075703e+01  -4.934679e+01
   1.039069e+01  -1.205010e+02
   9.502435e+01  -8.134237e+01
   7.672921e+01   4.291209e+01
  -2.860889e+01   1.083349e+02
  -1.471825e+02  -1.146682e+01
  -1.504436e+02  -2.467228e+02
   1.726708e+01  -3.696101e+02
   2.662264e+02  -2.288545e+02
   3.947185e+02   8.980793e+01
   2.847411e+02   3.132995e+02
   2.416259e+01   3.033843e+02
  -1.551301e+02   1.275013e+02
  -1.439262e+02  -1.082180e+01
  -1.984133e+01  -1.041706e+01
   4.456581e+01   7.273263e+01
  -2.384947e+01   1.091594e+02
  -1.304125e+02   5.087248e+01
  -1.340466e+02  -2.837901e+01
  -1.850319e+01  -4.340962e+01
   8.932500e+01   2.892810e+01
   3.097981e+01   1.119499e+02
  -1.718519e+02   9.664544e+01
  -3.329204e+02  -3.494413e+01
  -2.701684e+02  -2.036772e+02
  -1.332394e+01  -2.860143e+02
   2.208441e+02  -2.319820e+02
   2.683286e+02  -8.641437e+01
   1.300081e+02   4.413002e+01
  -2.731192e+01   6.185910e+01
  -5.046692e+01  -1.004438e+01
   6.125843e+01  -7.259489e+01
   1.791750e+02  -2.459169e+01
   1.789042e+02   1.040425e+02
   5.222811e+01   1.824749e+02
  -8.502967e+01   1.238368e+02
  -1.102736e+02   5.311994e+00
  -2.288906e+01  -3.775419e+01
   5.804669e+01   4.267341e+01
   1.958153e+01   1.385318e+02
  -1.223040e+02   1.254060e+02
  -2.332383e+02  -1.346627e+00
  -1.841244e+02  -1.518913e+02
  -2.815356e+00  -2.153851e+02
   1.612995e+02  -1.488285e+02
   1.753162e+02  -1.540324e+01
   5.684416e+01   8.802352e+01
  -5.857678e+01   9.219527e+01
  -6.400055e+01   2.374670e+01
   1.263866e+01  -2.224704e+01
   4.810976e+01   2.261659e+00
  -1.344678e+01   4.346268e+01
  -1.103930e+02   9.451962e+00
  -1.227671e+02  -1.092468e+02
  -4.090086e+00  -2.021489e+02
   1.657492e+02  -1.616556e+02
   2.523544e+02  -1.567805e+00
   1.902655e+02   1.782430e+02
   2.957615e+01   2.378157e+02
  -1.046242e+02   1.591300e+02
  -1.315930e+02   3.032784e+01
  -7.679577e+01  -4.303018e+01
  -3.653486e+01  -2.757763e+01
  -5.816123e+01   1.930314e+01
  -9.963356e+01   9.570743e+00
  -6.909193e+01  -7.033609e+01
   4.236761e+01  -1.281611e+02
   1.483272e+02  -7.589098e+01
   1.304936e+02   6.023600e+01
  -2.240709e+01   1.541622e+02
  -1.932653e+02   9.543862e+01
  -2.247701e+02  -8.884915e+01
  -7.566317e+01  -2.384550e+02
   1.540974e+02  -2.261981e+02
   2.817882e+02  -6.290135e+01
   2.438946e+02   1.047656e+02
   9.711888e+01   1.751687e+02
  -3.841583e+01   1.352345e+02
  -8.915532e+01   8.170299e+01
  -7.353391e+01   7.493800e+01
  -5.981693e+01   1.041686e+02
  -9.402698e+01   8.737662e+01
  -1.428623e+02  -1.688484e+01
  -1.315944e+02  -1.639687e+02
  -2.786251e+01  -2.419263e+02
   1.097171e+02  -1.734501e+02
   1.785535e+02  -4.666369e+00
   1.231016e+02   1.386406e+02
  -3.198446e+00   1.611262e+02
  -8.874377e+01   7.554044e+01
  -6.558550e+01  -2.640628e+01
   1.168496e+01  -6.456013e+01
   3.873965e+01  -3.751949e+01
  -2.323408e+01  -5.814079e+00
  -9.412036e+01  -1.477425e+01
  -5.309019e+01  -4.714063e+01
   8.338243e+01  -4.617689e+01
   1.920534e+02   8.900230e+00
   1.518899e+02   8.519243e+01
  -1.091119e+01   1.136083e+02
  -1.520891e+02   7.551769e+01
  -1.576694e+02  -4.909063e+00
  -4.416806e+01  -6.277492e+01
   6.524253e+01  -5.173289e+01
   8.738094e+01   1.952105e+01
   2.663088e+01   8.457630e+01
  -4.608547e+01   7.869134e+01
  -7.832328e+01   5.924206e+00
  -6.786839e+01  -5.661719e+01
  -5.170853e+01  -4.813580e+01
  -5.668518e+01   2.831379e+00
  -7.207771e+01   1.138864e-01
  -5.755901e+01  -8.369586e+01
   2.278201e+01  -1.703895e+02
   1.432596e+02  -1.603214e+02
   2.057654e+02  -3.429124e+01
   1.435382e+02   1.041808e+02
  -3.587810e+00   1.482978e+02
  -1.045565e+02   7.936713e+01
  -7.083857e+01  -1.118152e+01
   5.906140e+01  -3.154498e+01
   1.407524e+02   3.446013e+01
   7.658273e+01   1.092467e+02
  -8.608692e+01   1.141890e+02
  -1.944506e+02   4.658913e+01
  -1.604451e+02  -4.636956e+01
  -2.747047e+01  -8.776741e+01
   6.797320e+01  -5.772232e+01
   4.960303e+01   1.041380e+01
  -4.314066e+01   3.678728e+01
  -1.013941e+02  -1.975970e+01
  -5.010487e+01  -1.233011e+02
   7.507606e+01  -1.700854e+02
   1.659812e+02  -8.022336e+01
   1.417455e+02   9.095944e+01
   2.507613e+01   1.990022e+02
  -8.482705e+01   1.438614e+02
  -1.104694e+02  -1.790063e+01
  -5.218100e+01  -1.254680e+02
   2.305209e+01  -1.016313e+02
   6.003578e+01  -8.586979e+00
   4.499397e+01   3.533187e+01
   1.480409e+01   6.750068e+00
   7.716497e+00  -1.562005e+01
   3.644001e+01   2.754496e+01
   6.215578e+01   9.731230e+01
   2.727950e+01   1.094899e+02
  -6.522350e+01   4.449699e+01
  -1.433528e+02  -3.365549e+01
  -1.274696e+02  -6.963363e+01
  -1.878873e+01  -5.892029e+01
   8.186668e+01  -3.288614e+01
   8.976667e+01  -5.752387e+00
   1.945296e+01   1.678904e+01
  -3.463644e+01   2.334009e+01
  -2.219080e+01   1.025709e+01
   1.421940e+01  -5.703370e+00
  -6.464548e-01  -1.210976e+00
  -7.007181e+01   8.485168e+00
  -1.029707e+02  -1.931626e+01
  -3.324237e+01  -8.988492e+01
   1.075244e+02  -1.366374e+02
   2.041687e+02  -8.062108e+01
   1.742945e+02   5.986290e+01
   4.207244e+01   1.741214e+02
  -8.635771e+01   1.714256e+02
  -1.280978e+02   7.407729e+01
  -8.987399e+01  -2.104524e+01
  -2.921244e+01  -4.249184e+01
  -4.068598e+00  -1.774060e+01
  -1.512814e+01  -1.171634e+01
  -3.187022e+01  -5.012601e+01
  -2.030678e+01  -9.631581e+01
   2.947665e+01  -7.947192e+01
   8.486879e+01   8.912990e+00
   9.231393e+01   1.027306e+02
   2.285128e+01   1.185784e+02
  -7.852434e+01   4.334982e+01
  -1.183724e+02  -6.129085e+01
  -4.920705e+01  -1.129353e+02
   6.784950e+01  -7.811738e+01
   1.175216e+02   3.315574e+00
   5.671464e+01   6.821695e+01
  -3.585282e+01   7.343714e+01
  -4.696312e+01   3.211500e+01
   2.325124e+01  -1.078324e+01
   7.057816e+01  -1.129544e+01
   1.938600e+01   3.095163e+01
  -8.297962e+01   7.218764e+01
  -1.312286e+02   5.548119e+01
  -7.810776e+01  -2.313932e+01
   1.214482e+01  -9.676917e+01
   6.697747e+01  -9.463007e+01
   5.765951e+01  -1.572584e+01
   1.492314e+01   5.765623e+01
  -2.422393e+01   5.827130e+01
  -4.405459e+01  -5.852699e+00
  -3.344675e+01  -5.801634e+01
   2.663914e+00  -4.681570e+01
   3.848471e+01   4.471294e+00
   4.530189e+01   3.025117e+01
   1.850640e+01   6.445554e+00
  -7.873232e+00  -2.513964e+01
  -4.279147e+00  -1.637505e+01
   1.438843e+01   3.214228e+01
   1.043437e+01   6.458052e+01
  -2.828835e+01   3.732018e+01
  -5.405886e+01  -2.864723e+01
  -2.523006e+01  -6.514716e+01
   3.873147e+01  -3.456374e+01
   7.040403e+01   3.068627e+01
   2.483574e+01   6.371800e+01
  -6.043782e+01   3.967992e+01
  -1.022699e+02  -1.052299e+01
  -5.659358e+01  -4.587178e+01
   2.949888e+01  -5.257182e+01
   7.114483e+01  -3.547368e+01
   3.486255e+01  -6.207545e+00
  -2.464099e+01   1.044113e+01
  -3.624611e+01   1.664559e+00
   1.733307e+01  -2.618957e+01
   7.427467e+01  -3.053878e+01
