
 $NMID
 id='ANONYMOUS ', fmtdat='(2E16.6)'
 volume=1.0
 tramp=1.0
 $END
  -3.172850e+03   2.891782e+02
  -1.857705e+03  -1.741027e+03
   2.999879e+02  -2.054636e+03
   1.503035e+03  -7.535183e+02
   7.508183e+02   2.955598e+02
  -3.816254e+02   3.322602e+02
  -5.575624e+02  -3.160659e+02
  -2.990424e+01  -7.209685e+02
   5.073610e+02  -6.047385e+02
   6.536014e+02   2.942400e+00
   3.918571e+02   5.493107e+02
  -5.176475e+01   6.463259e+02
  -3.776124e+02   1.330826e+02
  -2.836256e+02  -4.708180e+02
   1.405570e+02  -5.613996e+02
   4.424695e+02  -5.212349e+01
   2.782686e+02   4.789372e+02
  -1.455531e+02   5.324284e+02
  -4.151518e+02   1.822337e+02
  -3.538318e+02  -1.939777e+02
  -8.720948e+01  -3.270373e+02
   1.425602e+02  -2.259501e+02
   1.291696e+02  -3.758632e+01
  -1.069290e+02   3.627497e+01
  -3.149408e+02  -1.273463e+02
  -1.316882e+02  -3.372420e+02
   3.800972e+02  -2.866262e+02
   6.310053e+02   8.915042e+01
   2.949104e+02   4.079048e+02
  -3.184122e+02   3.393826e+02
  -5.635833e+02  -5.403475e+01
  -2.593485e+02  -3.757318e+02
   2.248317e+02  -4.072034e+02
   4.487093e+02  -1.776717e+02
   3.361401e+02   1.630325e+02
   6.510806e+01   3.570201e+02
  -1.158603e+02   2.101864e+02
  -7.586653e+01  -1.655465e+02
   1.629209e+02  -3.081016e+02
   3.229351e+02   5.883593e+01
   1.464753e+02   5.359635e+02
  -2.289574e+02   5.321442e+02
  -4.190091e+02   1.746088e+01
  -1.744480e+02  -3.907338e+02
   1.969404e+02  -2.098969e+02
   2.456403e+02   2.645987e+02
  -5.674013e+01   4.295802e+02
  -4.221797e+02   1.214182e+02
  -4.975085e+02  -3.012712e+02
  -1.906034e+02  -4.609439e+02
   2.609171e+02  -3.031236e+02
   5.000424e+02   6.890853e+00
   3.323961e+02   2.461105e+02
  -8.072820e+01   2.587825e+02
  -3.264688e+02   7.030010e+01
  -1.949131e+02  -1.010592e+02
   6.450673e+01  -5.861520e+01
   9.509147e+01   9.843511e+01
  -1.184574e+02   1.241847e+02
  -2.520414e+02  -4.788441e+01
  -1.217821e+02  -2.150489e+02
   1.322664e+02  -2.282317e+02
   2.786730e+02  -1.248515e+02
   2.178778e+02   5.581028e+01
   3.353223e+01   2.290366e+02
  -1.699116e+02   3.298331e+02
  -3.037945e+02   1.970157e+02
  -2.640340e+02  -1.093808e+02
  -8.552204e+01  -3.417873e+02
   6.379406e+01  -2.966253e+02
   6.096094e+01  -1.152771e+02
   1.411133e+01  -4.622281e+01
   6.435352e+01  -1.060408e+02
   1.882036e+02  -1.088247e+02
   2.442636e+02   5.429993e+01
   1.353903e+02   2.247572e+02
  -4.871057e+01   2.074199e+02
  -1.825143e+02   9.479234e+00
  -1.646029e+02  -1.844898e+02
   3.511533e+00  -2.321785e+02
   2.117342e+02  -9.810892e+01
   2.939175e+02   1.229291e+02
   1.589000e+02   2.621115e+02
  -5.530379e+01   2.388298e+02
  -1.557934e+02   1.143419e+02
  -1.093274e+02   3.487166e+01
  -8.606065e+01   5.245619e+01
  -2.060532e+02   6.571467e+01
  -3.388905e+02  -3.491987e+01
  -2.898591e+02  -2.191361e+02
  -2.454585e+01  -3.626876e+02
   2.718195e+02  -3.565395e+02
   3.838187e+02  -1.827370e+02
   2.793203e+02   6.534472e+01
   5.504610e+01   2.417083e+02
  -8.710880e+01   1.988785e+02
  -4.614921e+01   2.070307e+01
   8.455646e+01  -7.709360e+01
   1.388318e+02   1.047724e+01
   2.679211e+01   1.519705e+02
  -1.228868e+02   1.277122e+02
  -1.311815e+02  -5.038543e+01
   1.709089e+01  -1.488176e+02
   1.536214e+02  -2.799138e+01
   1.475154e+02   1.896573e+02
   4.935006e+00   2.912491e+02
  -1.794123e+02   1.795912e+02
  -2.822153e+02  -2.983939e+01
  -2.477110e+02  -1.934178e+02
  -7.843141e+01  -2.241950e+02
   1.006294e+02  -1.315041e+02
   1.401236e+02  -6.407560e+00
   3.400190e+01   3.017710e+01
  -6.336707e+01  -3.844899e+01
  -2.044584e+01  -1.060890e+02
   9.928767e+01  -8.143614e+01
   1.432757e+02   9.062310e+00
   4.576747e+01   5.752797e+01
  -6.658654e+01   8.910591e+00
  -4.524054e+01  -6.720080e+01
   1.010504e+02  -8.488075e+01
   2.446887e+02  -1.374884e+01
   2.374602e+02   1.125078e+02
   6.840653e+01   2.227744e+02
  -1.428565e+02   2.335434e+02
  -2.342248e+02   1.157100e+02
  -1.440301e+02  -3.490203e+01
   1.577969e+01  -7.993523e+01
   7.103206e+01  -8.548426e-01
  -3.028947e+01   8.814868e+01
  -1.636737e+02   5.580124e+01
  -1.873302e+02  -7.442673e+01
  -7.190202e+01  -1.672345e+02
   6.626825e+01  -1.310199e+02
   1.152326e+02  -2.774746e+01
   5.682297e+01   3.497373e+01
  -3.083044e+01   4.142677e-01
  -4.341424e+01  -7.757223e+01
   5.056287e+01  -9.997673e+01
   1.641129e+02  -3.664977e+01
   1.653447e+02   9.024169e+01
   3.169762e+01   1.771107e+02
  -1.195537e+02   1.401453e+02
  -1.504956e+02   1.917328e+01
  -5.872734e+01  -8.344100e+01
   4.501560e+01  -9.033289e+01
   6.246282e+01  -2.899282e+01
   1.277012e+01   2.215511e+01
  -2.346120e+01   1.908962e+01
   2.363941e+00  -7.897106e+00
   5.911295e+01  -5.960591e+00
   8.549569e+01   5.452318e+01
   2.701910e+01   1.332969e+02
  -9.652103e+01   1.372928e+02
  -1.967745e+02   2.889152e+01
  -1.745173e+02  -1.119616e+02
  -5.381546e+01  -1.910888e+02
   7.156844e+01  -1.460837e+02
   1.061265e+02  -3.612130e+01
   6.444366e+01   3.362797e+01
   2.842143e+01   2.446804e+01
   4.221987e+01  -1.413189e+01
   6.563381e+01  -1.128991e+01
   4.487905e+01   3.574403e+01
  -2.443705e+01   8.028457e+01
  -8.684857e+01   6.119683e+01
  -8.141607e+01  -2.098940e+01
   1.170067e+00  -9.900295e+01
   1.160775e+02  -8.703591e+01
   1.723318e+02   3.240917e+01
   9.782346e+01   1.678991e+02
  -7.722004e+01   1.956118e+02
  -2.164276e+02   9.305634e+01
  -2.179337e+02  -5.728107e+01
  -1.019708e+02  -1.377707e+02
   2.042379e+01  -1.239192e+02
   7.114205e+01  -7.718567e+01
   5.783929e+01  -6.286065e+01
   4.863762e+01  -8.340682e+01
   7.084632e+01  -6.817291e+01
   1.104000e+02   6.285570e+00
   1.121005e+02   1.196853e+02
   4.390370e+01   1.877666e+02
  -6.846553e+01   1.507325e+02
  -1.418492e+02   2.767507e+01
  -1.178192e+02  -9.035480e+01
  -2.487778e+01  -1.281095e+02
   5.378973e+01  -7.891809e+01
   5.283149e+01  -2.007355e+00
   6.338489e+00   3.706277e+01
  -1.101334e+01   3.189033e+01
   2.879332e+01   1.199297e+01
   6.890851e+01   1.329060e+01
   4.325105e+01   2.747216e+01
  -5.009869e+01   3.637189e+01
  -1.356191e+02   1.243668e+01
  -1.243755e+02  -4.017752e+01
  -1.718491e+01  -8.115431e+01
   9.848393e+01  -7.310871e+01
   1.242087e+02  -1.807364e+01
   4.661938e+01   3.678557e+01
  -4.334081e+01   3.752541e+01
  -6.423745e+01  -9.547066e+00
  -1.506083e+01  -5.532862e+01
   4.021291e+01  -5.130306e+01
   5.512439e+01  -3.049029e+00
   4.481737e+01   3.970257e+01
   3.982796e+01   3.516594e+01
   4.833464e+01  -1.494502e+00
   5.389828e+01  -4.551405e+00
   3.963054e+01   5.392984e+01
  -1.510124e+01   1.244539e+02
  -9.050043e+01   1.263537e+02
  -1.397093e+02   3.953221e+01
  -1.096941e+02  -6.623021e+01
  -1.469442e+01  -1.052484e+02
   6.996606e+01  -6.107706e+01
   5.159047e+01   6.281554e+00
  -4.655251e+01   1.929172e+01
  -1.152817e+02  -2.811518e+01
  -6.918717e+01  -8.671948e+01
   6.318456e+01  -1.016210e+02
   1.600677e+02  -5.707762e+01
   1.402922e+02   1.944368e+01
   3.782248e+01   7.118679e+01
  -4.685075e+01   6.135766e+01
  -4.201534e+01   6.126944e+00
   2.790777e+01  -2.302636e+01
   7.474252e+01   9.604082e+00
   3.851384e+01   9.223488e+01
  -5.775860e+01   1.315612e+02
  -1.296699e+02   6.504651e+01
  -1.128375e+02  -7.053218e+01
  -2.591789e+01  -1.563137e+02
   6.013760e+01  -1.191311e+02
   8.627788e+01   1.289556e+00
   5.695751e+01   9.281069e+01
   3.053937e+00   8.624641e+01
  -3.795977e+01   1.875093e+01
  -4.412718e+01  -2.058148e+01
  -2.116181e+01  -5.497461e+00
  -3.833117e+00   1.617188e+01
  -2.272357e+01  -1.248002e+01
  -5.253873e+01  -6.813793e+01
  -3.937440e+01  -8.556763e+01
   3.839923e+01  -4.159116e+01
   1.158058e+02   2.067713e+01
   1.102262e+02   4.785986e+01
   2.018510e+01   4.219796e+01
  -6.579470e+01   2.753976e+01
  -7.209784e+01   1.293454e+01
  -1.484338e+01  -5.708787e+00
   2.753328e+01  -2.033005e+01
   1.434012e+01  -1.441505e+01
  -1.336366e+01   1.334207e+00
   5.187883e+00   3.875761e+00
   5.959828e+01  -4.680323e+00
   7.954022e+01   1.174175e+01
   1.946821e+01   6.761505e+01
  -8.339041e+01   1.086243e+02
  -1.459441e+02   6.689464e+01
  -1.225242e+02  -3.947305e+01
  -3.677267e+01  -1.280414e+02
   4.993670e+01  -1.302715e+02
   8.604450e+01  -5.937421e+01
   6.885576e+01   1.051514e+01
   2.642327e+01   2.701284e+01
   2.183027e+00   8.746975e+00
   9.996872e+00   3.858359e+00
   3.019360e+01   3.813324e+01
   2.554206e+01   7.648353e+01
  -1.771790e+01   6.377312e+01
  -6.690370e+01  -6.302954e+00
  -7.359079e+01  -7.923232e+01
  -1.569783e+01  -8.844374e+01
   6.185167e+01  -2.775601e+01
   9.144029e+01   4.982321e+01
   3.699421e+01   8.237525e+01
  -4.797464e+01   5.590634e+01
  -8.522069e+01   2.983719e+00
  -4.117437e+01  -3.844398e+01
   2.002845e+01  -4.905047e+01
   2.604890e+01  -2.758141e+01
  -2.368990e+01   1.307467e+00
  -5.596716e+01   1.074092e+01
  -1.702690e+01  -1.782135e+01
   5.856858e+01  -5.785385e+01
   9.064283e+01  -5.379031e+01
   5.634258e+01   4.829732e+00
  -6.141617e+00   6.965985e+01
  -4.166174e+01   7.056484e+01
  -3.372141e+01   8.313249e+00
  -6.927784e+00  -4.633665e+01
   1.845502e+01  -4.248374e+01
   3.272894e+01   8.891220e+00
   2.702597e+01   4.370692e+01
   2.662929e+00   3.185500e+01
  -2.659262e+01  -1.068174e+00
  -3.525788e+01  -1.399325e+01
  -1.786098e+01   4.922150e-01
   2.804857e+00   1.383243e+01
   5.099292e+00   7.561564e-01
  -3.243064e+00  -2.754407e+01
   1.793922e+00  -3.951806e+01
   2.250673e+01  -1.425132e+01
   3.286872e+01   2.830069e+01
   9.418162e+00   4.836217e+01
  -3.258639e+01   2.199389e+01
  -5.087156e+01  -2.580843e+01
  -1.946274e+01  -4.855894e+01
   3.998370e+01  -3.215668e+01
   7.192594e+01   4.057197e+00
   4.400503e+01   3.193009e+01
  -1.817093e+01   3.605379e+01
  -4.871575e+01   2.353926e+01
  -2.117175e+01   6.370310e+00
   2.523317e+01  -2.696646e+00
   2.890270e+01   7.173100e+00
  -2.127705e+01   2.435950e+01
  -6.928843e+01   2.105579e+01
