
 $NMID
 id='ANONYMOUS ', fmtdat='(2E16.6)'
 volume=1.0
 tramp=1.0
 $END
   3.265203e+03  -4.277587e+02
   2.206217e+03   1.383361e+03
   3.000156e+02   2.086038e+03
  -1.202252e+03   1.423244e+03
  -1.103977e+03   3.856552e+02
  -1.574688e+02  -1.733522e+02
   3.237676e+02   2.851591e+01
   1.469224e+02   4.521128e+02
  -2.968731e+02   6.221846e+02
  -5.941992e+02   1.847228e+02
  -5.140302e+02  -3.967208e+02
  -1.548555e+02  -6.537237e+02
   2.351668e+02  -2.692049e+02
   2.896703e+02   3.299532e+02
  -2.043360e+01   5.489173e+02
  -3.914428e+02   1.593576e+02
  -3.842504e+02  -4.433234e+02
   2.676276e+01  -6.707764e+02
   4.478523e+02  -3.748130e+02
   5.010467e+02   1.063561e+02
   2.177817e+02   3.547319e+02
  -5.791224e+01   2.893412e+02
  -5.086259e+01   1.370260e+02
   1.514497e+02   1.290858e+02
   2.572564e+02   2.607902e+02
   5.430821e+00   3.164132e+02
  -4.234650e+02   1.535296e+02
  -5.641546e+02  -1.378874e+02
  -2.308230e+02  -3.002101e+02
   2.822749e+02  -1.973856e+02
   4.885660e+02   1.015985e+02
   2.113986e+02   3.403854e+02
  -2.351323e+02   3.707789e+02
  -4.490668e+02   1.788175e+02
  -3.448189e+02  -1.240918e+02
  -1.393937e+02  -3.078433e+02
  -3.215235e+01  -2.167423e+02
  -5.593421e+01   4.048916e+01
  -1.398174e+02   1.307201e+02
  -1.543214e+02  -1.254967e+02
  -1.868812e+01  -4.588902e+02
   1.967205e+02  -4.407237e+02
   2.971930e+02  -4.964244e+01
   1.480302e+02   2.763808e+02
  -9.898069e+01   1.417729e+02
  -1.475381e+02  -2.518488e+02
   8.863923e+01  -3.785212e+02
   4.235526e+02  -8.961957e+01
   5.207129e+02   3.285637e+02
   2.256483e+02   4.907884e+02
  -2.508033e+02   3.157752e+02
  -5.290137e+02   1.184698e+01
  -3.975957e+02  -1.953148e+02
  -1.754729e+01  -2.212405e+02
   2.636181e+02  -1.244024e+02
   2.376502e+02  -1.440621e+01
   4.156385e+01   1.128515e+01
  -4.627025e+01  -3.264476e+01
   7.717161e+01  -5.962570e+01
   2.154717e+02   2.718103e+01
   1.438665e+02   1.861076e+02
  -1.307285e+02   2.682600e+02
  -3.608968e+02   1.793560e+02
  -3.119074e+02  -8.746314e+01
  -1.388700e+01  -3.532807e+02
   2.816497e+02  -4.098391e+02
   3.822025e+02  -1.966724e+02
   2.668325e+02   1.450836e+02
   9.142435e+01   3.626440e+02
  -8.577208e-02   3.355886e+02
  -3.545059e+00   2.036807e+02
  -3.889171e+01   1.416494e+02
  -1.593933e+02   1.410344e+02
  -2.687776e+02   6.759004e+01
  -2.614313e+02  -1.175386e+02
  -1.094483e+02  -2.656853e+02
   8.764915e+01  -2.056177e+02
   1.960746e+02   3.190082e+01
   1.455727e+02   2.392917e+02
  -3.605471e+01   2.468481e+02
  -2.383217e+02   6.868450e+01
  -3.089489e+02  -1.509025e+02
  -1.912020e+02  -2.765432e+02
   1.923094e+01  -2.696143e+02
   1.470330e+02  -1.860313e+02
   1.545083e+02  -1.210289e+02
   1.791485e+02  -8.971457e+01
   3.121121e+02  -4.106423e+01
   4.263704e+02   1.002654e+02
   3.370827e+02   3.053651e+02
  -4.501477e+00   4.519524e+02
  -3.657475e+02   4.260301e+02
  -4.775206e+02   2.017531e+02
  -3.096985e+02  -8.202567e+01
  -4.256883e+01  -2.596788e+02
   8.075085e+01  -2.107498e+02
   5.236465e+00  -4.732822e+01
  -1.065136e+02   4.167744e+01
  -1.209834e+02  -2.779473e+01
  -7.346433e+00  -1.336472e+02
   1.073825e+02  -1.056082e+02
   9.900005e+01   4.559137e+01
  -3.319181e+01   1.291058e+02
  -1.666436e+02   9.874707e-01
  -1.676786e+02  -2.389521e+02
   1.190635e+00  -3.624487e+02
   2.478532e+02  -2.413043e+02
   3.889070e+02   4.560624e+01
   3.088586e+02   2.670036e+02
   6.912609e+01   2.855625e+02
  -1.340007e+02   1.492037e+02
  -1.528030e+02   4.174450e+00
  -3.026815e+01  -1.284274e+01
   5.397450e+01   6.565457e+01
  -4.530195e+00   1.140779e+02
  -1.222516e+02   7.198986e+01
  -1.457640e+02  -1.674892e+01
  -3.258031e+01  -4.956564e+01
   8.231142e+01   1.639127e+01
   3.457842e+01   1.014750e+02
  -1.578261e+02   1.003051e+02
  -3.250171e+02  -1.525729e+01
  -2.806817e+02  -1.808370e+02
  -4.165191e+01  -2.854367e+02
   2.074026e+02  -2.604475e+02
   2.828507e+02  -1.137727e+02
   1.565706e+02   3.802286e+01
  -1.509022e+01   7.187846e+01
  -5.773481e+01  -6.770663e+00
   5.454931e+01  -8.169280e+01
   1.899851e+02  -3.583392e+01
   2.050947e+02   1.012633e+02
   7.484187e+01   1.911305e+02
  -7.986533e+01   1.430700e+02
  -1.269414e+02   2.393576e+01
  -4.595747e+01  -3.528461e+01
   4.902216e+01   2.588897e+01
   3.533099e+01   1.244599e+02
  -1.001653e+02   1.305509e+02
  -2.250820e+02   2.386689e+01
  -2.016612e+02  -1.336576e+02
  -2.859843e+01  -2.190767e+02
   1.462557e+02  -1.657363e+02
   1.761764e+02  -2.804715e+01
   6.698276e+01   8.650689e+01
  -5.006894e+01   9.607177e+01
  -6.480082e+01   2.813999e+01
   7.426751e-01  -2.382287e+01
   4.158938e+01  -8.020113e+00
  -6.131720e+00   3.176650e+01
  -9.631050e+01   1.033122e+01
  -1.206249e+02  -9.163461e+01
  -2.191698e+01  -1.892356e+02
   1.457380e+02  -1.702081e+02
   2.578522e+02  -1.952750e+01
   2.084353e+02   1.583929e+02
   5.494189e+01   2.364177e+02
  -9.136458e+01   1.734759e+02
  -1.305127e+02   4.572092e+01
  -8.454418e+01  -3.404012e+01
  -4.352652e+01  -2.521688e+01
  -6.098513e+01   1.991151e+01
  -9.610826e+01   1.004783e+01
  -6.810890e+01  -6.259796e+01
   3.670077e+01  -1.267608e+02
   1.366458e+02  -8.623059e+01
   1.255360e+02   4.477479e+01
  -9.992991e+00   1.494460e+02
  -1.756241e+02   1.088795e+02
  -2.278745e+02  -6.118599e+01
  -1.039064e+02  -2.267503e+02
   1.213453e+02  -2.395793e+02
   2.705121e+02  -1.015488e+02
   2.562965e+02   7.892355e+01
   1.128657e+02   1.698278e+02
  -2.918910e+01   1.462204e+02
  -8.198541e+01   8.721218e+01
  -6.335208e+01   7.584872e+01
  -5.347168e+01   1.073806e+02
  -9.180837e+01   9.336764e+01
  -1.443436e+02  -6.926644e+00
  -1.411087e+02  -1.572466e+02
  -4.436416e+01  -2.395337e+02
   9.381090e+01  -1.824155e+02
   1.770979e+02  -2.015017e+01
   1.375972e+02   1.242920e+02
   1.645515e+01   1.597392e+02
  -7.843899e+01   8.566759e+01
  -6.799071e+01  -1.426527e+01
   3.211977e+00  -6.032807e+01
   3.043322e+01  -4.214241e+01
  -2.889246e+01  -8.684519e+00
  -9.339132e+01  -1.193980e+01
  -5.779451e+01  -4.202797e+01
   7.862182e+01  -5.290114e+01
   1.886745e+02  -8.241312e+00
   1.570580e+02   6.641575e+01
   5.170282e+00   1.108465e+02
  -1.414431e+02   8.799394e+01
  -1.594197e+02   9.856609e+00
  -5.476488e+01  -5.603608e+01
   5.981588e+01  -5.426273e+01
   8.752767e+01   1.344822e+01
   2.973407e+01   7.923561e+01
  -4.498215e+01   7.553286e+01
  -7.633602e+01   6.927153e+00
  -6.509355e+01  -5.296883e+01
  -4.950773e+01  -4.357000e+01
  -5.699195e+01   5.121310e+00
  -6.989747e+01   4.173084e+00
  -5.755483e+01  -7.481629e+01
   1.681463e+01  -1.663206e+02
   1.247564e+02  -1.626871e+02
   1.924121e+02  -4.634232e+01
   1.442865e+02   9.501617e+01
   1.048194e+01   1.431067e+02
  -9.688278e+01   8.555351e+01
  -6.836432e+01  -6.548208e+00
   5.908686e+01  -2.826447e+01
   1.442257e+02   3.262060e+01
   8.137064e+01   1.092632e+02
  -8.300920e+01   1.233256e+02
  -1.994335e+02   6.494643e+01
  -1.672953e+02  -3.246109e+01
  -3.852433e+01  -8.859215e+01
   6.396007e+01  -6.752291e+01
   5.051652e+01   2.451873e+00
  -4.158467e+01   3.576921e+01
  -1.032612e+02  -1.233544e+01
  -5.738671e+01  -1.210565e+02
   6.517809e+01  -1.733604e+02
   1.600792e+02  -9.104909e+01
   1.458956e+02   8.134114e+01
   3.833221e+01   1.949460e+02
  -7.332033e+01   1.489605e+02
  -1.100238e+02  -7.433959e+00
  -6.562901e+01  -1.221668e+02
   1.096582e+01  -1.077902e+02
   5.710952e+01  -1.685551e+01
   5.045730e+01   3.221394e+01
   1.617464e+01   8.134727e+00
   5.927497e+00  -1.869301e+01
   3.740545e+01   1.940689e+01
   6.906468e+01   9.036529e+01
   3.930782e+01   1.103445e+02
  -5.901942e+01   5.221275e+01
  -1.482779e+02  -2.841728e+01
  -1.373061e+02  -6.657118e+01
  -2.699161e+01  -5.849107e+01
   8.014028e+01  -3.775418e+01
   9.177964e+01  -1.285822e+01
   2.386923e+01   1.115582e+01
  -3.246774e+01   2.625063e+01
  -2.364675e+01   1.409762e+01
   1.266999e+01  -5.217536e+00
  -1.671640e+00  -3.561327e+00
  -6.851506e+01   9.217253e+00
  -1.036048e+02  -1.370776e+01
  -3.702054e+01  -8.683273e+01
   9.869723e+01  -1.404888e+02
   1.930857e+02  -9.036045e+01
   1.682114e+02   4.620416e+01
   4.944828e+01   1.647379e+02
  -6.893804e+01   1.706861e+02
  -1.154886e+02   8.048651e+01
  -9.048336e+01  -1.323806e+01
  -3.490406e+01  -3.836078e+01
  -5.968420e+00  -1.517473e+01
  -1.463670e+01  -9.195450e+00
  -3.468275e+01  -5.082898e+01
  -2.724518e+01  -9.785965e+01
   2.459150e+01  -8.148899e+01
   8.574018e+01   5.317934e+00
   9.651788e+01   9.822708e+01
   2.723580e+01   1.161036e+02
  -7.472726e+01   4.504834e+01
  -1.187561e+02  -5.494475e+01
  -5.337493e+01  -1.069112e+02
   5.962184e+01  -7.860420e+01
   1.138452e+02  -5.093536e+00
   5.920757e+01   5.894087e+01
  -2.590456e+01   7.201011e+01
  -4.111642e+01   3.713255e+01
   2.171849e+01  -7.627621e+00
   6.963488e+01  -1.701593e+01
   2.568863e+01   2.702484e+01
  -7.405787e+01   7.697625e+01
  -1.243492e+02   6.746563e+01
  -8.105175e+01  -1.228103e+01
   5.047558e+00  -9.408689e+01
   5.729687e+01  -9.534613e+01
   5.186306e+01  -1.784964e+01
   1.517028e+01   5.634831e+01
  -2.202215e+01   5.798742e+01
  -4.288297e+01  -6.178667e+00
  -3.631137e+01  -5.709045e+01
  -2.389044e+00  -4.658447e+01
   3.750807e+01  -4.263271e-03
   4.749777e+01   2.498410e+01
   2.191594e+01   5.750522e+00
  -7.273474e+00  -2.173283e+01
  -6.753292e+00  -1.245155e+01
   1.282084e+01   3.048990e+01
   1.008565e+01   5.789027e+01
  -2.560376e+01   3.230520e+01
  -5.097279e+01  -2.868701e+01
  -2.370856e+01  -6.271514e+01
   3.980328e+01  -3.576012e+01
   7.110262e+01   2.642639e+01
   3.019480e+01   6.152823e+01
  -5.400910e+01   4.524061e+01
  -9.878375e+01  -4.968958e-01
  -5.985476e+01  -4.102819e+01
   2.362517e+01  -5.330366e+01
   6.796547e+01  -3.826883e+01
   3.452298e+01  -9.577887e+00
  -2.491983e+01   1.004114e+01
  -3.667817e+01   1.192695e-01
   1.971592e+01  -2.728827e+01
   7.968505e+01  -2.974447e+01
