
 $NMID
 id='ANONYMOUS ', fmtdat='(2E16.6)'
 volume=1.0
 tramp=1.0
 $END
   4.802367e+03  -7.563229e+01
   2.578308e+03   2.878580e+03
  -6.896154e+02   2.884812e+03
  -2.198632e+03   1.009061e+03
  -9.862974e+02  -6.462265e+02
   7.244654e+02  -5.883609e+02
   9.764457e+02   4.596513e+02
   2.421109e+01   1.149839e+03
  -8.428078e+02   8.782778e+02
  -1.027277e+03  -5.374268e+01
  -5.068942e+02  -8.882136e+02
   2.256885e+02  -9.708604e+02
   6.840571e+02  -1.580389e+02
   4.426892e+02   7.557981e+02
  -2.524274e+02   8.334772e+02
  -6.525067e+02   2.518772e+01
  -3.212704e+02  -7.065648e+02
   3.082583e+02  -7.054979e+02
   6.140521e+02  -1.384459e+02
   4.299587e+02   3.573448e+02
   5.255590e+01   4.769223e+02
  -2.557777e+02   3.007306e+02
  -2.417131e+02   3.620090e+00
   1.189674e+02  -1.371612e+02
   4.830900e+02   9.945334e+01
   2.571016e+02   4.935827e+02
  -4.877682e+02   5.066049e+02
  -9.443216e+02  -4.102390e+01
  -4.892323e+02  -5.958521e+02
   4.109634e+02  -5.437135e+02
   8.020366e+02   1.385054e+01
   3.789772e+02   5.103509e+02
  -2.919965e+02   5.595301e+02
  -5.893111e+02   2.335427e+02
  -4.404139e+02  -2.304340e+02
  -7.277524e+01  -5.079412e+02
   2.140316e+02  -3.029665e+02
   1.879210e+02   2.540356e+02
  -1.913714e+02   4.849105e+02
  -4.889327e+02  -2.662811e+01
  -2.709275e+02  -7.460892e+02
   3.181063e+02  -7.611718e+02
   6.431570e+02  -1.159610e+01
   2.819140e+02   5.908136e+02
  -2.933542e+02   3.423999e+02
  -3.946605e+02  -3.297100e+02
   4.914437e+01  -5.772272e+02
   5.537357e+02  -1.568651e+02
   6.268552e+02   4.098796e+02
   2.095041e+02   6.093402e+02
  -3.877986e+02   3.825036e+02
  -6.784180e+02  -5.431141e+01
  -4.144438e+02  -3.891910e+02
   1.561496e+02  -3.827498e+02
   4.645152e+02  -7.203172e+01
   2.514774e+02   1.837658e+02
  -1.167024e+02   1.003205e+02
  -1.399988e+02  -1.515763e+02
   1.706090e+02  -1.820946e+02
   3.457306e+02   7.823810e+01
   1.509168e+02   2.998364e+02
  -1.874375e+02   2.760817e+02
  -3.434012e+02   1.150075e+02
  -2.433300e+02  -5.760410e+01
  -2.858427e+01  -2.382357e+02
   1.998078e+02  -3.881580e+02
   3.777657e+02  -2.680286e+02
   3.347461e+02   1.281764e+02
   9.369046e+01   4.654482e+02
  -1.193449e+02   4.228024e+02
  -1.182523e+02   1.262826e+02
  -1.534592e+01  -4.571984e+00
  -4.624484e+01   1.033470e+02
  -2.093589e+02   1.520427e+02
  -3.067782e+02  -4.619649e+01
  -1.779214e+02  -2.822570e+02
   6.759398e+01  -2.812690e+02
   2.425561e+02  -2.250808e+01
   2.238388e+02   2.427113e+02
   1.295009e+01   3.203698e+02
  -2.741886e+02   1.555773e+02
  -4.015551e+02  -1.418567e+02
  -2.294192e+02  -3.596408e+02
   8.718430e+01  -3.348858e+02
   2.335424e+02  -1.427113e+02
   1.536515e+02  -1.407649e+01
   9.514145e+01  -4.559932e+01
   2.455131e+02  -8.592275e+01
   4.285296e+02   3.497185e+01
   3.736358e+02   2.767273e+02
   2.200367e+01   4.678762e+02
  -3.495787e+02   4.519853e+02
  -5.062606e+02   2.357242e+02
  -3.617216e+02  -8.681955e+01
  -7.139736e+01  -3.124192e+02
   1.309060e+02  -2.676189e+02
   8.865042e+01  -2.581514e+01
  -1.120382e+02   1.278705e+02
  -2.145540e+02  -2.113298e+00
  -6.259280e+01  -2.099502e+02
   1.659505e+02  -1.922221e+02
   1.925184e+02   5.241398e+01
  -1.140243e+01   2.041847e+02
  -2.045884e+02   4.962191e+01
  -1.921183e+02  -2.417077e+02
   4.936191e+00  -3.679338e+02
   2.264211e+02  -2.253339e+02
   3.456891e+02   3.049013e+01
   3.076817e+02   2.368352e+02
   1.124901e+02   2.841491e+02
  -1.278580e+02   1.767547e+02
  -1.949693e+02   1.213157e+01
  -5.706475e+01  -5.213958e+01
   8.937579e+01   3.222769e+01
   4.277240e+01   1.401508e+02
  -1.313955e+02   1.224537e+02
  -1.954730e+02  -4.947465e+00
  -6.568678e+01  -7.737017e+01
   8.562725e+01  -2.357562e+01
   6.193777e+01   7.232439e+01
  -1.201112e+02   9.960704e+01
  -2.948480e+02   1.964741e+01
  -2.887225e+02  -1.276828e+02
  -9.234662e+01  -2.712500e+02
   1.724805e+02  -2.966417e+02
   2.954948e+02  -1.521126e+02
   1.927028e+02   5.296754e+01
  -1.438141e+01   1.253085e+02
  -1.012538e+02   1.359572e+01
   2.423854e+01  -1.171078e+02
   2.022973e+02  -7.653345e+01
   2.357669e+02   9.808348e+01
   8.838321e+01   2.207204e+02
  -8.946565e+01   1.722272e+02
  -1.516239e+02   3.311934e+01
  -7.770314e+01  -5.021456e+01
   3.463571e+01  -1.313457e+01
   5.432575e+01   8.532160e+01
  -5.955569e+01   1.252473e+02
  -2.070786e+02   5.456983e+01
  -2.143160e+02  -1.116139e+02
  -4.242430e+01  -2.322670e+02
   1.631296e+02  -1.861823e+02
   2.070387e+02  -1.859913e+01
   7.788397e+01   1.207022e+02
  -6.695736e+01   1.269829e+02
  -9.233799e+01   3.889675e+01
  -2.735770e+01  -2.926863e+01
   2.223043e+01  -2.829693e+01
  -2.150081e+00   4.883656e+00
  -6.686471e+01  -2.647303e+00
  -9.859897e+01  -7.264196e+01
  -3.463433e+01  -1.636223e+02
   1.182722e+02  -1.739040e+02
   2.445591e+02  -4.326084e+01
   2.275134e+02   1.394742e+02
   6.714076e+01   2.507519e+02
  -1.015861e+02   1.931214e+02
  -1.432407e+02   4.367045e+01
  -8.293974e+01  -5.478248e+01
  -3.469366e+01  -3.965401e+01
  -5.476009e+01   1.242447e+01
  -8.018951e+01   1.045748e+01
  -4.624761e+01  -4.439589e+01
   3.739116e+01  -9.144197e+01
   1.014791e+02  -6.665794e+01
   9.290003e+01   2.651247e+01
  -1.572311e+00   1.153218e+02
  -1.371096e+02   1.036289e+02
  -2.115187e+02  -3.659408e+01
  -1.252623e+02  -2.055416e+02
   9.183590e+01  -2.523902e+02
   2.764559e+02  -1.252681e+02
   2.763642e+02   7.430124e+01
   1.268844e+02   1.794795e+02
  -2.758459e+01   1.575419e+02
  -8.664652e+01   9.537569e+01
  -7.652076e+01   8.179356e+01
  -6.781705e+01   1.013680e+02
  -9.500226e+01   8.534318e+01
  -1.345518e+02  -1.375978e+01
  -1.306456e+02  -1.513711e+02
  -4.962191e+01  -2.343917e+02
   8.912775e+01  -1.917087e+02
   1.833720e+02  -3.758764e+01
   1.561975e+02   1.172367e+02
   3.090073e+01   1.709002e+02
  -6.817999e+01   1.047550e+02
  -6.752020e+01   6.845956e+00
  -1.110138e+01  -4.414557e+01
   6.981489e+00  -3.740275e+01
  -4.196995e+01  -1.560591e+01
  -8.978415e+01  -1.794827e+01
  -5.410938e+01  -3.800527e+01
   6.188271e+01  -4.850214e+01
   1.655970e+02  -2.006197e+01
   1.596235e+02   4.136798e+01
   2.912388e+01   9.721988e+01
  -1.209533e+02   8.860506e+01
  -1.579125e+02   2.463063e+01
  -6.147587e+01  -4.439692e+01
   5.858337e+01  -4.768415e+01
   8.436463e+01   1.398199e+01
   1.610135e+01   7.153867e+01
  -5.452902e+01   6.532742e+01
  -6.729401e+01   3.138661e+00
  -5.138486e+01  -4.779575e+01
  -5.322934e+01  -4.072765e+01
  -6.724088e+01  -4.497650e-01
  -6.951255e+01   3.205378e-02
  -4.050211e+01  -7.066769e+01
   2.622714e+01  -1.548226e+02
   1.137768e+02  -1.544070e+02
   1.690465e+02  -4.769771e+01
   1.378160e+02   8.683415e+01
   2.192929e+01   1.310693e+02
  -8.442860e+01   7.235036e+01
  -6.546217e+01  -9.681056e+00
   5.579579e+01  -1.899841e+01
   1.442231e+02   4.120256e+01
   8.725029e+01   1.108061e+02
  -7.950720e+01   1.241100e+02
  -2.015884e+02   6.453887e+01
  -1.775854e+02  -2.584424e+01
  -4.752275e+01  -8.981245e+01
   5.945072e+01  -7.625006e+01
   5.408512e+01  -9.233760e+00
  -3.669730e+01   2.790416e+01
  -9.453516e+01  -1.668797e+01
  -3.991607e+01  -1.212473e+02
   8.374943e+01  -1.627793e+02
   1.679950e+02  -7.339779e+01
   1.398355e+02   9.516755e+01
   2.372607e+01   2.016944e+02
  -8.415740e+01   1.563761e+02
  -1.141823e+02   1.586096e+00
  -7.465743e+01  -1.207315e+02
  -6.191746e+00  -1.166208e+02
   4.891080e+01  -2.763919e+01
   5.730150e+01   3.082503e+01
   2.706339e+01   1.031218e+01
   3.538392e+00  -2.187629e+01
   2.380182e+01   1.107068e+01
   6.298732e+01   8.713806e+01
   4.798699e+01   1.142726e+02
  -4.589710e+01   5.460196e+01
  -1.454005e+02  -3.336728e+01
  -1.393559e+02  -7.034158e+01
  -2.460821e+01  -5.505179e+01
   9.093643e+01  -3.010499e+01
   9.460242e+01  -1.280094e+01
   1.741981e+01   7.222710e+00
  -3.882934e+01   2.520597e+01
  -1.516667e+01   1.998870e+01
   2.049863e+01  -1.706074e-01
  -5.802863e+00  -6.285058e+00
  -7.908332e+01   7.350045e-01
  -9.707751e+01  -1.891072e+01
  -1.250299e+01  -7.976715e+01
   1.147515e+02  -1.201655e+02
   1.830240e+02  -6.950035e+01
   1.453722e+02   5.786753e+01
   3.731302e+01   1.625676e+02
  -6.907836e+01   1.598641e+02
  -1.104806e+02   6.809836e+01
  -8.498759e+01  -1.623477e+01
  -3.106994e+01  -3.430685e+01
   8.131762e-01  -7.497189e+00
  -1.153117e+01  -6.604088e-01
  -3.798514e+01  -4.696077e+01
  -2.936557e+01  -9.580432e+01
   2.568116e+01  -7.836764e+01
   8.502246e+01   1.596872e+01
   8.624798e+01   1.102367e+02
   1.110924e+01   1.155826e+02
  -8.195998e+01   2.971825e+01
  -1.110865e+02  -6.979064e+01
  -4.069740e+01  -1.039111e+02
   6.379654e+01  -6.369397e+01
   1.036397e+02   2.687175e+00
   4.481090e+01   4.560397e+01
  -2.852755e+01   5.398982e+01
  -2.989458e+01   3.327832e+01
   3.828431e+01   1.275676e+00
   7.518960e+01  -7.546538e+00
   1.766279e+01   2.530142e+01
  -7.943155e+01   7.123183e+01
  -1.192004e+02   6.824722e+01
  -6.764895e+01  -6.974904e+00
   9.977869e+00  -8.570149e+01
   4.982487e+01  -8.686652e+01
   3.648425e+01  -9.043245e+00
   4.275529e+00   5.689340e+01
  -2.285410e+01   4.460058e+01
  -3.652540e+01  -1.866668e+01
  -2.944805e+01  -5.448203e+01
   5.164721e-01  -3.464426e+01
   3.518615e+01   5.898160e+00
   4.477322e+01   1.820092e+01
   2.388362e+01   9.002450e-01
  -2.121156e+00  -1.299701e+01
  -9.135781e+00   3.774148e+00
  -4.113762e+00   3.457108e+01
  -1.192207e+01   4.244767e+01
  -2.997706e+01   8.715067e+00
  -3.347367e+01  -4.351701e+01
  -1.081852e+00  -6.104469e+01
   4.624060e+01  -2.306059e+01
   6.408618e+01   3.784405e+01
   2.164603e+01   6.500166e+01
  -5.244483e+01   4.008101e+01
  -9.303700e+01  -7.407575e+00
  -5.580444e+01  -4.074674e+01
   2.438195e+01  -4.437576e+01
   6.391972e+01  -2.708432e+01
   2.582787e+01  -7.228028e+00
  -3.605495e+01  -8.701547e-01
  -3.837945e+01  -1.312495e+01
   3.000854e+01  -3.433379e+01
   9.361762e+01  -2.698809e+01
