
 $NMID
 id='ANONYMOUS ', fmtdat='(2E16.6)'
 volume=1.0
 tramp=1.0
 $END
   4.506204e+03   9.260118e+01
   2.435035e+03   2.887668e+03
  -7.768543e+02   2.994988e+03
  -2.329500e+03   9.754877e+02
  -1.063217e+03  -7.652577e+02
   7.633039e+02  -7.318334e+02
   1.005128e+03   4.089463e+02
  -3.582106e+00   1.189613e+03
  -8.989848e+02   8.833885e+02
  -1.010337e+03  -7.964320e+01
  -4.894690e+02  -9.625316e+02
   2.720196e+02  -9.920527e+02
   7.189395e+02  -1.439721e+02
   4.391233e+02   7.780812e+02
  -2.850860e+02   8.171266e+02
  -6.639510e+02  -8.280071e+00
  -3.056236e+02  -7.266100e+02
   3.350546e+02  -6.618279e+02
   6.204083e+02  -7.925868e+01
   4.120749e+02   3.850599e+02
   1.892702e+01   4.627732e+02
  -2.637178e+02   2.850146e+02
  -2.518720e+02   2.548784e+01
   9.040830e+01  -1.228144e+02
   4.396826e+02   6.298184e+01
   2.465695e+02   4.490508e+02
  -4.324370e+02   4.681558e+02
  -9.055912e+02  -1.108563e+01
  -4.913975e+02  -5.603607e+02
   3.862071e+02  -5.526692e+02
   7.841038e+02  -2.133956e+01
   3.939374e+02   4.953522e+02
  -2.779917e+02   5.695001e+02
  -6.075281e+02   2.445962e+02
  -4.569785e+02  -2.415078e+02
  -6.740791e+01  -5.268843e+02
   2.393805e+02  -3.342730e+02
   2.173570e+02   2.277395e+02
  -1.555057e+02   4.860010e+02
  -4.800230e+02   1.887990e+01
  -2.795713e+02  -7.005718e+02
   3.331069e+02  -7.450629e+02
   6.560874e+02  -1.016102e+01
   2.929204e+02   6.071968e+02
  -3.097575e+02   3.836786e+02
  -4.456392e+02  -3.058940e+02
   4.420584e+01  -5.909474e+02
   5.532812e+02  -1.761548e+02
   6.221096e+02   4.060308e+02
   1.830018e+02   6.198124e+02
  -3.972505e+02   3.744848e+02
  -6.726758e+02  -7.842127e+01
  -3.949933e+02  -4.164032e+02
   1.674311e+02  -3.952869e+02
   4.830951e+02  -6.365154e+01
   2.679291e+02   2.025737e+02
  -1.245650e+02   1.196094e+02
  -1.560967e+02  -1.556742e+02
   1.716059e+02  -1.944008e+02
   3.715727e+02   7.171417e+01
   1.535968e+02   3.195993e+02
  -2.135690e+02   2.779094e+02
  -3.434342e+02   7.447782e+01
  -2.065303e+02  -9.201258e+01
   1.966543e+01  -2.260734e+02
   2.165913e+02  -3.343667e+02
   3.442797e+02  -2.275779e+02
   3.185958e+02   1.361728e+02
   1.022306e+02   4.684437e+02
  -1.258692e+02   4.193514e+02
  -1.481594e+02   1.218311e+02
  -3.384303e+01  -2.881834e+01
  -2.729938e+01   7.958668e+01
  -1.864427e+02   1.430016e+02
  -2.864173e+02  -3.515411e+01
  -1.761768e+02  -2.718776e+02
   6.320169e+01  -2.763968e+02
   2.369587e+02  -2.650005e+01
   2.176424e+02   2.408377e+02
   5.071429e+00   3.123564e+02
  -2.764757e+02   1.411900e+02
  -3.922232e+02  -1.569610e+02
  -2.203252e+02  -3.661115e+02
   9.859946e+01  -3.364776e+02
   2.509088e+02  -1.312381e+02
   1.633927e+02   4.752665e+00
   9.504863e+01  -1.913525e+01
   2.191136e+02  -5.799687e+01
   3.990155e+02   5.686729e+01
   3.417754e+02   2.844711e+02
   1.011960e+01   4.448441e+02
  -3.610934e+02   4.257162e+02
  -4.935398e+02   2.254913e+02
  -3.586903e+02  -8.743849e+01
  -7.015237e+01  -3.125360e+02
   1.336447e+02  -2.855657e+02
   1.037726e+02  -4.265207e+01
  -9.686270e+01   1.286552e+02
  -2.060458e+02   1.242878e+01
  -6.275453e+01  -2.002841e+02
   1.607470e+02  -1.859899e+02
   1.880956e+02   5.757171e+01
  -1.498796e+01   2.045404e+02
  -2.061710e+02   4.413783e+01
  -1.687705e+02  -2.586660e+02
   3.589093e+01  -3.643104e+02
   2.321754e+02  -1.987930e+02
   3.177561e+02   6.288582e+01
   2.647903e+02   2.383940e+02
   9.017426e+01   2.561261e+02
  -1.098558e+02   1.519228e+02
  -1.752511e+02   6.899457e+00
  -5.081901e+01  -4.371909e+01
   8.337421e+01   3.037683e+01
   4.410923e+01   1.296489e+02
  -1.215169e+02   1.124495e+02
  -1.840435e+02  -3.655888e+00
  -6.705554e+01  -7.130678e+01
   7.827388e+01  -1.931590e+01
   5.841963e+01   7.352913e+01
  -1.243864e+02   8.980058e+01
  -2.897139e+02   4.442513e+00
  -2.728857e+02  -1.381550e+02
  -6.714869e+01  -2.657857e+02
   1.852755e+02  -2.756068e+02
   2.997028e+02  -1.327025e+02
   1.879266e+02   5.767214e+01
  -2.208927e+01   1.234520e+02
  -1.013783e+02   1.672838e+01
   2.325264e+01  -1.049616e+02
   1.999874e+02  -6.718784e+01
   2.249445e+02   1.035937e+02
   7.579744e+01   2.180477e+02
  -9.942437e+01   1.660803e+02
  -1.508485e+02   3.247687e+01
  -7.534200e+01  -4.373867e+01
   2.734634e+01  -8.600218e+00
   4.310787e+01   7.997983e+01
  -7.083534e+01   1.131617e+02
  -1.969517e+02   3.569057e+01
  -1.994787e+02  -1.199468e+02
  -3.149808e+01  -2.226658e+02
   1.592940e+02  -1.716992e+02
   2.005267e+02  -8.337612e+00
   7.242060e+01   1.184074e+02
  -6.560645e+01   1.179563e+02
  -8.870872e+01   3.681319e+01
  -2.417586e+01  -2.431425e+01
   1.777810e+01  -2.226947e+01
  -8.156094e+00   2.286758e+00
  -6.681908e+01  -7.663502e+00
  -8.727416e+01  -7.690698e+01
  -2.194530e+01  -1.561981e+02
   1.184091e+02  -1.600904e+02
   2.306856e+02  -4.381914e+01
   2.124056e+02   1.433743e+02
   5.314434e+01   2.441145e+02
  -1.077998e+02   1.808073e+02
  -1.419961e+02   3.165920e+01
  -7.434991e+01  -5.934775e+01
  -2.835180e+01  -4.101240e+01
  -5.000152e+01   1.073604e+01
  -7.642969e+01   9.874283e+00
  -4.042870e+01  -4.813905e+01
   3.922413e+01  -8.551514e+01
   9.955677e+01  -5.430981e+01
   8.787625e+01   3.231937e+01
  -8.678483e+00   1.098907e+02
  -1.359944e+02   9.095593e+01
  -1.938619e+02  -4.380176e+01
  -1.060733e+02  -1.980877e+02
   9.673166e+01  -2.272567e+02
   2.547406e+02  -1.027919e+02
   2.560877e+02   8.345954e+01
   1.163830e+02   1.800385e+02
  -3.268993e+01   1.534575e+02
  -9.548510e+01   8.636855e+01
  -8.546511e+01   6.967036e+01
  -7.281708e+01   8.947024e+01
  -8.954959e+01   7.829225e+01
  -1.275784e+02  -1.767041e+01
  -1.206544e+02  -1.499549e+02
  -3.905869e+01  -2.306098e+02
   9.611369e+01  -1.792614e+02
   1.801129e+02  -2.772517e+01
   1.452971e+02   1.150308e+02
   2.419711e+01   1.586913e+02
  -6.564705e+01   9.315195e+01
  -5.973470e+01   6.231615e+00
  -7.745323e+00  -3.835425e+01
   6.935255e+00  -3.309112e+01
  -3.727651e+01  -2.183669e+01
  -7.850055e+01  -2.664944e+01
  -4.694168e+01  -4.102791e+01
   5.864137e+01  -3.984388e+01
   1.535639e+02  -7.371936e+00
   1.455663e+02   4.518673e+01
   2.457565e+01   8.716620e+01
  -1.122371e+02   7.675934e+01
  -1.429578e+02   1.695594e+01
  -4.975290e+01  -4.029108e+01
   6.097868e+01  -3.916220e+01
   7.509277e+01   1.984426e+01
   7.251405e+00   7.080077e+01
  -5.543176e+01   5.946883e+01
  -6.349504e+01  -9.636841e-01
  -4.477097e+01  -4.962869e+01
  -4.491595e+01  -4.235786e+01
  -6.153266e+01  -2.080496e+00
  -6.489696e+01  -2.741798e-01
  -3.619395e+01  -6.609818e+01
   2.971519e+01  -1.442489e+02
   1.152118e+02  -1.426963e+02
   1.672050e+02  -3.455781e+01
   1.271114e+02   9.111252e+01
   6.918492e+00   1.305369e+02
  -8.410916e+01   6.516030e+01
  -6.367749e+01  -1.384046e+01
   5.544420e+01  -2.696408e+01
   1.375508e+02   3.630774e+01
   8.095463e+01   1.042816e+02
  -7.652984e+01   1.159391e+02
  -1.950817e+02   6.003155e+01
  -1.702839e+02  -3.364630e+01
  -3.936456e+01  -9.006869e+01
   6.345115e+01  -7.504475e+01
   5.241878e+01  -5.967675e+00
  -3.945649e+01   2.773097e+01
  -9.347454e+01  -2.205560e+01
  -3.160235e+01  -1.185017e+02
   9.453631e+01  -1.506631e+02
   1.671636e+02  -5.756986e+01
   1.258286e+02   1.040736e+02
   8.437665e+00   1.963838e+02
  -8.548606e+01   1.410902e+02
  -1.072427e+02  -6.545086e+00
  -6.596991e+01  -1.180973e+02
  -3.236877e+00  -1.098504e+02
   4.525164e+01  -2.524375e+01
   5.371106e+01   2.786900e+01
   2.783800e+01   5.822314e+00
   5.087822e+00  -2.104897e+01
   2.105972e+01   1.381541e+01
   5.694807e+01   8.694978e+01
   4.102968e+01   1.110767e+02
  -4.833411e+01   4.767261e+01
  -1.404738e+02  -4.021953e+01
  -1.333827e+02  -7.471136e+01
  -1.862161e+01  -5.061580e+01
   8.917428e+01  -2.243751e+01
   9.124331e+01  -7.612920e+00
   1.139442e+01   7.616687e+00
  -3.939809e+01   2.199581e+01
  -1.731299e+01   1.737050e+01
   2.044001e+01  -2.328538e+00
  -5.612333e+00  -9.346738e+00
  -7.441373e+01  -4.873763e+00
  -9.222878e+01  -2.386053e+01
  -8.535474e+00  -8.362405e+01
   1.227386e+02  -1.197898e+02
   1.928056e+02  -5.759137e+01
   1.445754e+02   7.157838e+01
   2.446611e+01   1.685102e+02
  -8.087010e+01   1.531839e+02
  -1.131445e+02   5.866678e+01
  -8.005054e+01  -2.126522e+01
  -2.527546e+01  -3.621724e+01
   4.538475e+00  -8.146290e+00
  -8.434923e+00  -2.506949e+00
  -3.425275e+01  -4.314977e+01
  -2.359925e+01  -9.049092e+01
   2.989070e+01  -7.190820e+01
   8.266572e+01   2.003858e+01
   7.707086e+01   1.115746e+02
   2.148139e+00   1.129782e+02
  -8.563356e+01   2.187569e+01
  -1.038633e+02  -7.684018e+01
  -3.244779e+01  -1.044624e+02
   6.666897e+01  -5.598596e+01
   9.685476e+01   1.200961e+01
   3.807150e+01   4.865818e+01
  -3.277075e+01   4.943181e+01
  -2.906905e+01   2.824178e+01
   3.588987e+01  -1.794383e+00
   6.934674e+01  -8.705215e+00
   1.743087e+01   2.313679e+01
  -7.346524e+01   6.579803e+01
  -1.103642e+02   6.263942e+01
  -6.386162e+01  -1.052904e+01
   1.317600e+01  -8.348770e+01
   5.028856e+01  -7.842999e+01
   3.780389e+01  -5.116724e+00
   8.571579e-01   5.818434e+01
  -2.668461e+01   4.373745e+01
  -3.642803e+01  -1.840886e+01
  -2.578117e+01  -5.349215e+01
   3.152703e+00  -3.161038e+01
   3.308056e+01   9.469317e+00
   3.986433e+01   2.019853e+01
   2.047283e+01  -9.431129e-02
  -6.374757e-01  -1.367506e+01
  -7.003661e+00   4.754065e+00
  -6.474170e+00   3.769596e+01
  -1.637994e+01   4.343677e+01
  -3.274563e+01   4.968334e+00
  -3.027828e+01  -4.664485e+01
   2.136906e+00  -6.072836e+01
   4.588486e+01  -2.016232e+01
   5.942108e+01   3.936566e+01
   1.602769e+01   6.385004e+01
  -5.428891e+01   3.557590e+01
  -9.099863e+01  -1.352944e+01
  -5.203417e+01  -4.450093e+01
   2.809937e+01  -4.281476e+01
   6.614161e+01  -2.307709e+01
   2.316241e+01  -3.494476e+00
  -4.026625e+01  -1.242140e+00
  -3.921243e+01  -1.727230e+01
   3.319075e+01  -3.314900e+01
   9.572207e+01  -2.132395e+01
