
 $NMID
 id='ANONYMOUS ', fmtdat='(2E16.6)'
 volume=1.0
 tramp=1.0
 $END
  -3.773239e+03   2.425489e+02
  -2.365491e+03  -2.323252e+03
   1.019056e+02  -2.440628e+03
   1.553726e+03  -1.130080e+03
   1.013217e+03   2.212433e+02
  -2.339851e+02   4.620826e+02
  -6.727709e+02  -1.805925e+02
  -1.409622e+02  -7.778483e+02
   5.142847e+02  -7.342718e+02
   7.865616e+02  -6.454436e+01
   4.830186e+02   6.292446e+02
  -4.706023e+01   7.399566e+02
  -4.475528e+02   1.738914e+02
  -3.547091e+02  -5.161928e+02
   1.288874e+02  -6.448701e+02
   4.830380e+02  -8.262911e+01
   3.399745e+02   5.414626e+02
  -1.528820e+02   6.465072e+02
  -5.112307e+02   2.410697e+02
  -4.426460e+02  -2.331730e+02
  -9.636804e+01  -3.949556e+02
   1.744363e+02  -2.657709e+02
   1.328992e+02  -5.375755e+01
  -1.588163e+02   7.405833e+00
  -3.401854e+02  -1.617216e+02
  -1.038920e+02  -3.692685e+02
   4.218734e+02  -2.981353e+02
   6.728493e+02   6.821942e+01
   3.281180e+02   3.951610e+02
  -3.303680e+02   3.498493e+02
  -5.999697e+02  -4.518008e+01
  -2.787154e+02  -3.946346e+02
   2.378299e+02  -4.492435e+02
   4.882971e+02  -2.072982e+02
   3.789646e+02   1.534556e+02
   1.029920e+02   3.726173e+02
  -8.997050e+01   2.348148e+02
  -5.958306e+01  -1.304542e+02
   1.438006e+02  -2.750597e+02
   3.128166e+02   6.041681e+01
   1.563249e+02   5.451390e+02
  -2.321677e+02   5.532193e+02
  -4.408488e+02   3.509093e+01
  -2.153295e+02  -4.136604e+02
   1.990058e+02  -2.508167e+02
   3.012183e+02   2.723676e+02
  -5.256766e+01   4.703470e+02
  -4.876540e+02   1.503640e+02
  -5.664179e+02  -3.237105e+02
  -1.996558e+02  -5.185742e+02
   3.086720e+02  -3.433268e+02
   5.708398e+02   5.176056e+00
   3.759626e+02   2.745335e+02
  -6.914911e+01   2.897480e+02
  -3.362326e+02   9.161756e+01
  -2.206442e+02  -9.474104e+01
   5.614865e+01  -5.933898e+01
   1.076722e+02   1.019457e+02
  -1.182254e+02   1.442347e+02
  -2.873994e+02  -2.997957e+01
  -1.500919e+02  -2.384057e+02
   1.493397e+02  -2.726279e+02
   3.147557e+02  -1.309330e+02
   2.414770e+02   8.642931e+01
  -1.430885e+00   2.935580e+02
  -2.255707e+02   3.671997e+02
  -3.450953e+02   2.067739e+02
  -2.803488e+02  -1.316667e+02
  -9.693395e+01  -3.863068e+02
   4.778109e+01  -3.547657e+02
   6.076325e+01  -1.497509e+02
   2.492624e+01  -4.950564e+01
   7.789318e+01  -1.119356e+02
   2.130010e+02  -1.175629e+02
   2.723204e+02   5.877964e+01
   1.500997e+02   2.493927e+02
  -6.341419e+01   2.320518e+02
  -2.111332e+02   8.963451e-01
  -1.823386e+02  -2.296690e+02
   1.900291e+01  -2.657953e+02
   2.486583e+02  -9.496395e+01
   3.381893e+02   1.531846e+02
   1.916491e+02   3.079944e+02
  -5.290287e+01   2.845164e+02
  -1.821780e+02   1.493078e+02
  -1.432390e+02   6.283185e+01
  -1.200357e+02   6.840013e+01
  -2.613685e+02   7.097441e+01
  -4.169125e+02  -4.934445e+01
  -3.532404e+02  -2.699012e+02
  -2.092896e+01  -4.459127e+02
   3.318042e+02  -4.379750e+02
   4.683761e+02  -2.227702e+02
   3.131407e+02   7.335332e+01
   5.997603e+01   2.623879e+02
  -9.610526e+01   2.243994e+02
  -4.237881e+01   3.212752e+01
   1.065971e+02  -8.105539e+01
   1.699642e+02   6.154906e+00
   4.515758e+01   1.602872e+02
  -1.245871e+02   1.437194e+02
  -1.438993e+02  -3.962818e+01
   9.615878e+00  -1.577249e+02
   1.729827e+02  -3.456948e+01
   1.759799e+02   2.116207e+02
   7.096879e+00   3.404449e+02
  -2.128828e+02   2.269443e+02
  -3.288245e+02  -2.412612e+01
  -2.818914e+02  -2.251862e+02
  -8.482009e+01  -2.572128e+02
   1.085656e+02  -1.422708e+02
   1.470415e+02  -9.885941e+00
   3.201099e+01   2.228673e+01
  -6.950207e+01  -5.161565e+01
  -1.778094e+01  -1.188000e+02
   1.145916e+02  -8.839442e+01
   1.560409e+02   8.217557e+00
   4.654530e+01   5.981618e+01
  -8.138958e+01   1.016374e+01
  -5.516964e+01  -7.596817e+01
   1.182240e+02  -1.004062e+02
   2.780030e+02  -2.102352e+01
   2.664712e+02   1.297573e+02
   6.202755e+01   2.503063e+02
  -1.724140e+02   2.581217e+02
  -2.605091e+02   1.242338e+02
  -1.509589e+02  -4.327821e+01
   2.077065e+01  -9.390979e+01
   7.548227e+01  -5.480773e+00
  -3.832857e+01   9.249147e+01
  -1.830516e+02   5.486843e+01
  -2.046233e+02  -9.168745e+01
  -7.587811e+01  -1.917817e+02
   7.706179e+01  -1.469441e+02
   1.285028e+02  -2.741811e+01
   5.600461e+01   3.604603e+01
  -3.687217e+01  -8.956094e+00
  -3.808448e+01  -9.561322e+01
   8.301219e+01  -1.162932e+02
   1.977356e+02  -3.461944e+01
   1.904428e+02   1.106396e+02
   3.170854e+01   2.044748e+02
  -1.405510e+02   1.634152e+02
  -1.729401e+02   2.279547e+01
  -6.733821e+01  -9.382114e+01
   5.138194e+01  -1.036333e+02
   6.714860e+01  -3.227981e+01
   9.261275e+00   2.244712e+01
  -2.740830e+01   1.446107e+01
   1.092901e+01  -1.875678e+01
   8.008342e+01  -4.216369e+00
   1.037264e+02   7.600882e+01
   2.544269e+01   1.615623e+02
  -1.192337e+02   1.587047e+02
  -2.309745e+02   3.981334e+01
  -2.015697e+02  -1.308799e+02
  -5.777366e+01  -2.202582e+02
   8.687101e+01  -1.688912e+02
   1.227518e+02  -4.301593e+01
   7.326446e+01   3.658806e+01
   3.425156e+01   2.649573e+01
   5.286242e+01  -1.878072e+01
   8.145093e+01  -1.416217e+01
   5.172524e+01   4.839838e+01
  -3.266762e+01   1.001166e+02
  -1.048229e+02   7.045418e+01
  -9.589618e+01  -3.112740e+01
   4.396837e+00  -1.183689e+02
   1.389745e+02  -9.799541e+01
   1.943073e+02   4.307780e+01
   1.019359e+02   1.939278e+02
  -9.108728e+01   2.214705e+02
  -2.434668e+02   1.017382e+02
  -2.438243e+02  -5.976113e+01
  -1.127091e+02  -1.522379e+02
   2.401437e+01  -1.389882e+02
   7.830307e+01  -8.688849e+01
   6.544899e+01  -7.167112e+01
   5.275059e+01  -9.330080e+01
   8.586087e+01  -7.932377e+01
   1.277582e+02   8.066311e+00
   1.293012e+02   1.386442e+02
   4.642983e+01   2.185663e+02
  -8.020452e+01   1.749093e+02
  -1.650010e+02   3.109605e+01
  -1.372764e+02  -1.080899e+02
  -2.960017e+01  -1.473505e+02
   6.123193e+01  -8.837880e+01
   6.209803e+01   1.419118e+00
   5.847556e+00   4.462261e+01
  -1.484310e+01   3.677713e+01
   3.066376e+01   1.296839e+01
   8.400689e+01   1.339384e+01
   5.142556e+01   3.342755e+01
  -6.195004e+01   4.437133e+01
  -1.628549e+02   1.404058e+01
  -1.447967e+02  -4.384340e+01
  -1.417101e+01  -8.986489e+01
   1.193842e+02  -8.067305e+01
   1.418188e+02  -2.046357e+01
   4.990345e+01   4.231632e+01
  -5.318987e+01   4.660014e+01
  -7.539212e+01  -1.226812e+01
  -1.934048e+01  -6.818661e+01
   4.639193e+01  -6.167738e+01
   6.460968e+01  -1.131557e+00
   4.998071e+01   4.651153e+01
   4.277119e+01   3.514991e+01
   5.383336e+01  -8.154506e+00
   6.471900e+01  -9.952942e+00
   4.991507e+01   6.324397e+01
  -1.112813e+01   1.502390e+02
  -1.025943e+02   1.550257e+02
  -1.659849e+02   5.173374e+01
  -1.319441e+02  -8.104958e+01
  -1.409802e+01  -1.269589e+02
   8.028325e+01  -7.232439e+01
   5.581950e+01   1.127605e+01
  -6.052665e+01   2.734729e+01
  -1.363553e+02  -3.295715e+01
  -7.847222e+01  -9.945989e+01
   7.193928e+01  -1.150027e+02
   1.845522e+02  -6.320430e+01
   1.593619e+02   1.839198e+01
   4.184794e+01   7.810220e+01
  -5.477693e+01   6.981394e+01
  -4.530553e+01   9.675408e+00
   3.952941e+01  -2.876669e+01
   8.905871e+01   1.186189e+01
   4.518712e+01   1.083868e+02
  -6.537498e+01   1.555920e+02
  -1.441211e+02   7.556969e+01
  -1.246171e+02  -8.161887e+01
  -2.609078e+01  -1.824623e+02
   6.617378e+01  -1.368736e+02
   9.738303e+01   5.424750e+00
   6.260575e+01   1.119224e+02
   1.042747e-01   1.004653e+02
  -4.586276e+01   1.962153e+01
  -5.112367e+01  -2.519406e+01
  -2.335736e+01  -5.407462e+00
  -4.826242e+00   1.666192e+01
  -2.707816e+01  -1.915315e+01
  -6.061031e+01  -8.267060e+01
  -4.145470e+01  -9.622592e+01
   4.795459e+01  -4.149807e+01
   1.343754e+02   2.750926e+01
   1.261581e+02   5.406264e+01
   2.191487e+01   4.644522e+01
  -7.736565e+01   3.134657e+01
  -8.393660e+01   1.386295e+01
  -1.554630e+01  -8.244224e+00
   3.338294e+01  -2.450130e+01
   1.618368e+01  -1.480712e+01
  -1.548839e+01   4.854917e+00
   4.689623e+00   6.057853e+00
   6.759706e+01  -6.551840e+00
   9.280730e+01   1.144811e+01
   2.497123e+01   7.631472e+01
  -9.688134e+01   1.239558e+02
  -1.736666e+02   8.237420e+01
  -1.454406e+02  -4.179020e+01
  -4.087176e+01  -1.487621e+02
   6.108863e+01  -1.544417e+02
   1.022803e+02  -7.025848e+01
   7.642424e+01   1.424902e+01
   2.778303e+01   3.308960e+01
   1.819960e+00   9.385653e+00
   1.403478e+01   4.273354e+00
   3.543784e+01   4.502921e+01
   2.671115e+01   8.787361e+01
  -2.183537e+01   7.212514e+01
  -7.842186e+01  -1.055410e+01
  -8.463613e+01  -9.457969e+01
  -1.904606e+01  -1.049554e+02
   7.320927e+01  -3.239978e+01
   1.055592e+02   5.725241e+01
   4.201688e+01   9.460833e+01
  -5.730589e+01   6.364391e+01
  -9.897277e+01   4.144124e-01
  -4.743835e+01  -5.094491e+01
   2.708940e+01  -5.891687e+01
   3.362478e+01  -3.082568e+01
  -2.682481e+01   7.077867e+00
  -6.467532e+01   1.501634e+01
  -1.943180e+01  -2.318605e+01
   7.121433e+01  -6.935736e+01
   1.108181e+02  -6.281707e+01
   6.548172e+01   1.000611e+01
  -8.987311e+00   8.405196e+01
  -4.686197e+01   8.256453e+01
  -3.631781e+01   1.104157e+01
  -7.080439e+00  -5.089506e+01
   2.017536e+01  -4.543903e+01
   3.581252e+01   1.150203e+01
   2.862981e+01   4.822591e+01
  -3.064050e-01   3.406492e+01
  -3.342630e+01  -3.534659e+00
  -4.123425e+01  -1.985571e+01
  -1.940622e+01  -7.339699e-01
   4.416513e+00   1.672259e+01
   7.152647e+00   8.084474e-01
  -3.201345e+00  -3.443955e+01
   2.963502e+00  -4.592559e+01
   2.694554e+01  -1.483988e+01
   3.809107e+01   3.623663e+01
   9.785655e+00   5.679977e+01
  -3.913094e+01   2.549965e+01
  -6.086143e+01  -2.908697e+01
  -2.148656e+01  -5.756813e+01
   5.193593e+01  -3.861550e+01
   8.731123e+01   4.433876e+00
   5.097530e+01   3.737998e+01
  -2.345287e+01   4.484952e+01
  -5.893658e+01   2.902186e+01
  -2.241788e+01   5.669453e+00
   3.186323e+01  -5.118912e+00
   3.452879e+01   9.149304e+00
  -2.373848e+01   3.107136e+01
  -8.118589e+01   2.578352e+01
