
 $NMID
 id='ANONYMOUS ', fmtdat='(2E16.6)'
 volume=1.0
 tramp=1.0
 $END
  -4.956770e+03   1.601116e+01
  -2.822287e+03  -3.172631e+03
   8.481159e+02  -3.046346e+03
   2.375824e+03  -9.101576e+02
   9.793016e+02   7.657206e+02
  -8.239600e+02   6.493499e+02
  -1.028017e+03  -4.727129e+02
  -8.232482e-01  -1.170063e+03
   9.069888e+02  -8.772275e+02
   1.037314e+03   8.678877e+01
   4.826821e+02   9.641205e+02
  -2.953949e+02   9.847653e+02
  -7.434719e+02   9.909957e+01
  -4.342777e+02  -8.339698e+02
   3.133079e+02  -8.348668e+02
   6.744503e+02   3.283034e+01
   2.800093e+02   7.454236e+02
  -3.549859e+02   6.534906e+02
  -6.319539e+02   5.955293e+01
  -4.028616e+02  -3.999924e+02
   1.104059e+00  -4.723364e+02
   2.963796e+02  -2.811420e+02
   2.614545e+02   1.361370e+01
  -1.322341e+02   1.685004e+02
  -5.006967e+02  -5.781393e+01
  -2.840634e+02  -4.805390e+02
   4.757756e+02  -5.151255e+02
   9.543247e+02   2.061970e+01
   4.982189e+02   6.111380e+02
  -4.506867e+02   5.809881e+02
  -8.353780e+02  -1.116495e+01
  -3.892821e+02  -5.332722e+02
   3.068326e+02  -5.950855e+02
   6.308394e+02  -2.432157e+02
   4.746153e+02   2.557016e+02
   7.495758e+01   5.395189e+02
  -2.372556e+02   3.101026e+02
  -2.190692e+02  -2.810890e+02
   1.890613e+02  -5.265888e+02
   5.345339e+02   2.559200e+01
   2.981700e+02   7.793942e+02
  -3.613058e+02   7.921563e+02
  -6.869520e+02  -1.766781e+01
  -2.644784e+02  -6.413594e+02
   3.500492e+02  -3.663040e+02
   4.323774e+02   3.634320e+02
  -6.834413e+01   6.214400e+02
  -5.954637e+02   1.796224e+02
  -6.400489e+02  -4.177434e+02
  -1.841332e+02  -6.247143e+02
   4.153350e+02  -3.817371e+02
   6.892423e+02   7.203161e+01
   3.921920e+02   4.162039e+02
  -1.841593e+02   3.966131e+02
  -4.847992e+02   4.630173e+01
  -2.317453e+02  -2.257970e+02
   1.533426e+02  -1.036922e+02
   1.590260e+02   1.852095e+02
  -1.918672e+02   2.102776e+02
  -3.770534e+02  -7.908349e+01
  -1.405313e+02  -3.199238e+02
   2.024718e+02  -2.626930e+02
   3.192779e+02  -7.414991e+01
   1.896573e+02   7.529277e+01
  -7.450771e+00   2.156347e+02
  -2.011782e+02   3.558240e+02
  -3.658425e+02   2.393122e+02
  -3.379837e+02  -1.524995e+02
  -9.208925e+01  -4.854376e+02
   1.539237e+02  -4.135352e+02
   1.640070e+02  -9.498024e+01
   1.336977e+01   4.415270e+01
   1.641574e+01  -8.807401e+01
   1.958771e+02  -1.586068e+02
   3.091716e+02   3.654524e+01
   1.902354e+02   2.799043e+02
  -6.564467e+01   2.821160e+02
  -2.479496e+02   2.836475e+01
  -2.294087e+02  -2.416956e+02
  -1.242516e+01  -3.174237e+02
   2.795883e+02  -1.502319e+02
   4.019264e+02   1.615319e+02
   2.135005e+02   3.748636e+02
  -1.126801e+02   3.351815e+02
  -2.591782e+02   1.186300e+02
  -1.560392e+02  -1.859197e+01
  -8.310250e+01   3.296443e+01
  -2.216447e+02   8.541942e+01
  -4.130555e+02  -3.698878e+01
  -3.568647e+02  -2.902124e+02
  -1.336299e+01  -4.641278e+02
   3.582611e+02  -4.399907e+02
   5.053507e+02  -2.296523e+02
   3.677563e+02   8.967057e+01
   7.803589e+01   3.190511e+02
  -1.418385e+02   2.842426e+02
  -1.121863e+02   3.107850e+01
   1.023616e+02  -1.355932e+02
   2.231242e+02  -5.406983e+00
   6.622119e+01   2.197704e+02
  -1.821745e+02   1.982201e+02
  -2.080550e+02  -6.404147e+01
   1.099343e+01  -2.184503e+02
   2.117295e+02  -5.258297e+01
   1.848762e+02   2.508062e+02
  -2.237843e+01   3.634934e+02
  -2.264525e+02   2.050648e+02
  -3.220262e+02  -4.248101e+01
  -2.814579e+02  -2.245333e+02
  -1.061177e+02  -2.543817e+02
   1.085164e+02  -1.616532e+02
   1.803339e+02  -1.956319e+01
   5.694396e+01   4.642036e+01
  -8.817945e+01  -3.094392e+01
  -4.687295e+01  -1.320566e+02
   1.225459e+02  -1.229911e+02
   1.955806e+02   2.457246e+00
   7.193866e+01   7.688428e+01
  -8.257831e+01   3.070801e+01
  -6.745709e+01  -6.523056e+01
   1.098152e+02  -9.673799e+01
   2.808904e+02  -2.252295e+01
   2.823985e+02   1.218294e+02
   8.761459e+01   2.665357e+02
  -1.757714e+02   2.967187e+02
  -2.987262e+02   1.502565e+02
  -1.924334e+02  -5.736272e+01
   1.832330e+01  -1.299604e+02
   1.038902e+02  -1.754778e+01
  -2.807766e+01   1.147724e+02
  -2.052548e+02   7.259275e+01
  -2.290383e+02  -1.061898e+02
  -7.773391e+01  -2.247628e+02
   9.636189e+01  -1.722572e+02
   1.558918e+02  -3.416838e+01
   8.109643e+01   4.926584e+01
  -2.733429e+01   1.870167e+01
  -5.137060e+01  -7.354159e+01
   5.914465e+01  -1.155407e+02
   1.928737e+02  -5.133154e+01
   2.075233e+02   1.056021e+02
   4.126726e+01   2.213465e+02
  -1.571074e+02   1.793113e+02
  -2.016084e+02   1.373687e+01
  -7.536662e+01  -1.214848e+02
   6.813017e+01  -1.226815e+02
   9.114511e+01  -3.712819e+01
   2.784082e+01   3.034565e+01
  -1.908178e+01   2.897455e+01
   5.313561e+00  -2.853525e-01
   6.048794e+01   4.213229e+00
   8.741725e+01   6.616347e+01
   2.877116e+01   1.489000e+02
  -1.074779e+02   1.615883e+02
  -2.330351e+02   4.359433e+01
  -2.173707e+02  -1.353888e+02
  -6.042539e+01  -2.446730e+02
   1.045905e+02  -1.841195e+02
   1.383196e+02  -3.673337e+01
   7.568845e+01   5.590641e+01
   3.273004e+01   3.992582e+01
   5.756222e+01  -9.444281e+00
   7.787093e+01  -8.560631e+00
   4.035790e+01   4.356603e+01
  -3.978165e+01   8.325936e+01
  -9.278355e+01   6.008442e+01
  -8.012291e+01  -2.383122e+01
   2.252774e+00  -1.045023e+02
   1.257145e+02  -9.749660e+01
   1.951840e+02   3.165919e+01
   1.156888e+02   1.947760e+02
  -8.452048e+01   2.379152e+02
  -2.597640e+02   1.131554e+02
  -2.685952e+02  -7.378853e+01
  -1.262033e+02  -1.791938e+02
   2.739998e+01  -1.561948e+02
   9.083959e+01  -9.301190e+01
   8.085542e+01  -7.460431e+01
   6.803184e+01  -9.412107e+01
   9.194193e+01  -8.020529e+01
   1.305595e+02   1.805640e+01
   1.243788e+02   1.522216e+02
   3.882583e+01   2.303769e+02
  -9.280670e+01   1.845904e+02
  -1.804639e+02   3.227285e+01
  -1.509792e+02  -1.160628e+02
  -3.455280e+01  -1.632024e+02
   6.352378e+01  -1.031584e+02
   6.642841e+01  -1.022275e+01
   1.577712e+01   3.961150e+01
  -2.223865e+00   3.894935e+01
   3.767998e+01   2.330321e+01
   7.691663e+01   2.504404e+01
   4.501386e+01   3.730850e+01
  -5.957445e+01   4.158228e+01
  -1.544892e+02   1.217729e+01
  -1.469972e+02  -4.108385e+01
  -2.928572e+01  -8.815809e+01
   1.094315e+02  -8.156651e+01
   1.454962e+02  -2.175628e+01
   5.633204e+01   3.940229e+01
  -5.607673e+01   4.100526e+01
  -7.720564e+01  -1.629638e+01
  -1.039577e+01  -6.840261e+01
   5.472985e+01  -5.857757e+01
   6.246140e+01  -5.720782e-01
   4.559359e+01   4.738857e+01
   4.591185e+01   4.089019e+01
   6.275548e+01   3.415348e+00
   6.322708e+01  -1.335919e+00
   3.525442e+01   6.197951e+01
  -2.547736e+01   1.423871e+02
  -1.065473e+02   1.450752e+02
  -1.585771e+02   4.026826e+01
  -1.299724e+02  -8.579074e+01
  -1.560117e+01  -1.260184e+02
   8.273025e+01  -6.411547e+01
   6.240008e+01   1.340621e+01
  -5.732856e+01   2.363140e+01
  -1.407175e+02  -3.797499e+01
  -8.430120e+01  -1.032687e+02
   7.539467e+01  -1.140784e+02
   1.933233e+02  -6.088088e+01
   1.718309e+02   2.313380e+01
   4.468595e+01   8.688748e+01
  -6.019646e+01   7.606017e+01
  -5.433710e+01   1.236655e+01
   3.787284e+01  -2.551129e+01
   9.047910e+01   1.839510e+01
   3.621259e+01   1.139603e+02
  -8.836520e+01   1.541489e+02
  -1.651812e+02   6.275507e+01
  -1.290865e+02  -9.929249e+01
  -1.739425e+01  -1.954327e+02
   7.996293e+01  -1.477266e+02
   1.052967e+02   2.866609e-01
   6.882613e+01   1.142954e+02
   7.414283e+00   1.115109e+02
  -4.310975e+01   2.691270e+01
  -5.724993e+01  -2.843284e+01
  -3.171224e+01  -8.600981e+00
  -5.196742e+00   2.144701e+01
  -1.741277e+01  -1.218153e+01
  -5.580592e+01  -8.715926e+01
  -4.769337e+01  -1.084216e+02
   4.387144e+01  -4.789697e+01
   1.415113e+02   3.535465e+01
   1.363398e+02   6.640019e+01
   1.985744e+01   4.920246e+01
  -9.020814e+01   2.479914e+01
  -8.889614e+01   1.122838e+01
  -9.961636e+00  -4.163926e+00
   3.808337e+01  -2.274148e+01
   1.289398e+01  -2.188795e+01
  -1.980698e+01  -2.018409e+00
   1.068753e+01   9.031409e+00
   7.844254e+01   7.578484e+00
   9.150081e+01   2.476303e+01
   7.641602e+00   7.728423e+01
  -1.143993e+02   1.152768e+02
  -1.773712e+02   6.686395e+01
  -1.420662e+02  -5.858917e+01
  -3.278444e+01  -1.599227e+02
   7.032792e+01  -1.533509e+02
   1.087625e+02  -6.153570e+01
   7.955027e+01   2.027011e+01
   2.659370e+01   3.514319e+01
  -3.600634e+00   4.961921e+00
   1.053772e+01  -1.561951e+00
   3.717742e+01   4.295848e+01
   2.707867e+01   8.976502e+01
  -2.780175e+01   7.378882e+01
  -8.287623e+01  -1.920369e+01
  -7.907028e+01  -1.089847e+02
  -3.612479e+00  -1.107357e+02
   8.356697e+01  -2.212490e+01
   1.038647e+02   7.250266e+01
   3.277418e+01   9.779047e+01
  -6.336358e+01   5.317861e+01
  -9.506385e+01  -7.134132e+00
  -3.846574e+01  -4.376183e+01
   2.887612e+01  -4.818265e+01
   2.616439e+01  -3.149674e+01
  -3.509134e+01  -2.005493e+00
  -6.784185e+01   7.266114e+00
  -1.483463e+01  -2.155931e+01
   7.433195e+01  -6.500971e+01
   1.111374e+02  -6.580901e+01
   6.202459e+01   6.969979e+00
  -1.399039e+01   8.264323e+01
  -4.800417e+01   7.977917e+01
  -3.039447e+01   5.749810e+00
  -6.106042e-01  -5.609169e+01
   2.341814e+01  -4.264876e+01
   3.333544e+01   1.901787e+01
   2.680120e+01   5.155296e+01
   2.255859e-01   2.929270e+01
  -3.252892e+01  -8.944478e+00
  -4.141938e+01  -1.769643e+01
  -2.172924e+01   9.946226e-01
   1.681667e+00   1.147084e+01
   1.095558e+01  -7.906352e+00
   9.297192e+00  -3.816893e+01
   1.580928e+01  -4.200147e+01
   3.025284e+01  -1.693343e+00
   2.853462e+01   4.825297e+01
  -3.191951e+00   5.947491e+01
  -4.526767e+01   1.911364e+01
  -5.823891e+01  -3.917689e+01
  -1.708200e+01  -6.296253e+01
   5.265422e+01  -3.733721e+01
   8.759447e+01   9.580349e+00
   5.200599e+01   4.063680e+01
  -2.481547e+01   4.168367e+01
  -6.135179e+01   2.293706e+01
  -2.141983e+01   6.930095e+00
   3.952132e+01   3.154549e+00
   3.768013e+01   1.785382e+01
  -3.456386e+01   3.260714e+01
  -9.583897e+01   1.905265e+01
