
 $NMID
 id='ANONYMOUS ', fmtdat='(2E16.6)'
 volume=1.0
 tramp=1.0
 $END
   4.642271e+03   1.423412e+02
   2.474238e+03   2.947139e+03
  -8.483490e+02   2.883235e+03
  -2.236877e+03   8.247553e+02
  -9.280102e+02  -7.422201e+02
   7.881464e+02  -5.734596e+02
   9.306796e+02   4.696985e+02
  -3.008677e+01   1.136416e+03
  -8.582102e+02   8.487921e+02
  -9.787394e+02  -6.132702e+01
  -4.727894e+02  -8.916429e+02
   2.364821e+02  -9.221970e+02
   6.897239e+02  -9.757434e+01
   4.121018e+02   7.619158e+02
  -2.953823e+02   7.801565e+02
  -6.472197e+02  -3.010708e+01
  -2.773476e+02  -7.093759e+02
   3.354423e+02  -6.389553e+02
   5.980415e+02  -6.572597e+01
   3.820461e+02   3.710495e+02
   7.211640e+00   4.505985e+02
  -2.716104e+02   2.667393e+02
  -2.401984e+02  -1.592011e+01
   1.161652e+02  -1.508387e+02
   4.794237e+02   6.831170e+01
   2.642715e+02   4.612642e+02
  -4.547955e+02   4.926593e+02
  -9.035261e+02  -1.539862e+01
  -4.720132e+02  -5.909762e+02
   4.301887e+02  -5.569047e+02
   8.063109e+02   8.625099e+00
   3.809924e+02   5.165270e+02
  -2.967581e+02   5.700536e+02
  -6.032330e+02   2.397245e+02
  -4.467991e+02  -2.417074e+02
  -6.566347e+01  -5.012931e+02
   2.196031e+02  -2.788383e+02
   1.919923e+02   2.742389e+02
  -1.803297e+02   4.854345e+02
  -5.075402e+02  -2.785071e+01
  -2.941013e+02  -7.347813e+02
   3.200980e+02  -7.384758e+02
   6.501736e+02   8.948304e+00
   2.704860e+02   6.121953e+02
  -3.178745e+02   3.444654e+02
  -4.169303e+02  -3.514285e+02
   5.836505e+01  -5.864079e+02
   5.628895e+02  -1.685547e+02
   6.164924e+02   3.917012e+02
   1.723357e+02   6.000837e+02
  -4.033277e+02   3.711639e+02
  -6.665258e+02  -6.954767e+01
  -3.838639e+02  -4.080018e+02
   1.745041e+02  -3.868063e+02
   4.643741e+02  -5.633126e+01
   2.203100e+02   2.059513e+02
  -1.415484e+02   9.035844e+01
  -1.445676e+02  -1.777158e+02
   1.869862e+02  -1.997692e+02
   3.626380e+02   8.161692e+01
   1.373600e+02   3.074844e+02
  -1.989846e+02   2.602085e+02
  -3.090099e+02   7.322408e+01
  -1.873912e+02  -7.386845e+01
   3.523738e+00  -2.188445e+02
   1.953992e+02  -3.456295e+02
   3.432586e+02  -2.440909e+02
   3.299703e+02   1.405740e+02
   1.002834e+02   4.614976e+02
  -1.339596e+02   3.970356e+02
  -1.454861e+02   9.245457e+01
  -9.352930e+00  -3.562412e+01
  -1.931754e+01   9.107089e+01
  -1.906491e+02   1.588981e+02
  -2.990258e+02  -4.076028e+01
  -1.762613e+02  -2.774240e+02
   7.030311e+01  -2.720158e+02
   2.439202e+02  -2.055425e+01
   2.236459e+02   2.419806e+02
   1.141097e+01   3.100567e+02
  -2.744126e+02   1.385716e+02
  -3.897589e+02  -1.590691e+02
  -2.130025e+02  -3.577783e+02
   1.021593e+02  -3.185497e+02
   2.399042e+02  -1.152213e+02
   1.397292e+02   4.263952e+00
   7.626409e+01  -4.477793e+01
   2.186509e+02  -9.634967e+01
   4.013953e+02   2.274749e+01
   3.479287e+02   2.675889e+02
   2.104428e+01   4.430622e+02
  -3.328828e+02   4.265740e+02
  -4.813009e+02   2.368165e+02
  -3.567786e+02  -8.063281e+01
  -7.566868e+01  -3.121758e+02
   1.340159e+02  -2.817627e+02
   1.026022e+02  -3.704589e+01
  -1.000189e+02   1.286140e+02
  -2.188440e+02   8.321874e+00
  -6.544964e+01  -2.053307e+02
   1.681387e+02  -1.890484e+02
   1.981364e+02   6.080973e+01
  -1.244970e+01   2.096946e+02
  -2.043727e+02   4.732928e+01
  -1.775375e+02  -2.418206e+02
   1.820681e+01  -3.553096e+02
   2.188424e+02  -2.096050e+02
   3.149677e+02   4.215263e+01
   2.796738e+02   2.210309e+02
   1.095388e+02   2.525091e+02
  -1.056746e+02   1.624638e+02
  -1.760069e+02   1.555325e+01
  -5.750558e+01  -4.371666e+01
   8.511810e+01   3.111713e+01
   4.596524e+01   1.287540e+02
  -1.160124e+02   1.159881e+02
  -1.867969e+02  -9.449064e-01
  -6.643220e+01  -7.185882e+01
   8.184225e+01  -2.437315e+01
   6.395201e+01   6.774085e+01
  -1.117565e+02   9.333227e+01
  -2.758906e+02   1.976435e+01
  -2.728123e+02  -1.206472e+02
  -7.905718e+01  -2.529854e+02
   1.695192e+02  -2.799531e+02
   2.856125e+02  -1.397541e+02
   1.816584e+02   5.558671e+01
  -2.066507e+01   1.228762e+02
  -1.000222e+02   1.344135e+01
   2.532333e+01  -1.120947e+02
   1.937605e+02  -7.476315e+01
   2.205346e+02   9.594992e+01
   7.660567e+01   2.122553e+02
  -9.070501e+01   1.645080e+02
  -1.453532e+02   3.283777e+01
  -7.249154e+01  -4.660789e+01
   2.931131e+01  -1.458591e+01
   4.800649e+01   7.583526e+01
  -6.115771e+01   1.175846e+02
  -1.908213e+02   5.441866e+01
  -2.040493e+02  -1.039646e+02
  -4.054985e+01  -2.208565e+02
   1.547687e+02  -1.798105e+02
   1.978782e+02  -1.410714e+01
   7.320374e+01   1.186541e+02
  -6.714587e+01   1.184041e+02
  -8.866363e+01   3.383348e+01
  -2.543865e+01  -2.849145e+01
   1.984565e+01  -2.752429e+01
  -4.848184e+00   2.534636e+00
  -6.165155e+01  -2.433522e+00
  -8.721764e+01  -6.555987e+01
  -2.715044e+01  -1.471977e+02
   1.088379e+02  -1.597781e+02
   2.322897e+02  -4.804465e+01
   2.096175e+02   1.310626e+02
   5.825407e+01   2.355814e+02
  -1.015432e+02   1.777245e+02
  -1.334165e+02   3.516066e+01
  -7.228740e+01  -5.257609e+01
  -2.975120e+01  -3.709268e+01
  -5.049095e+01   1.134985e+01
  -7.641368e+01   9.788511e+00
  -4.264114e+01  -4.326936e+01
   3.560341e+01  -8.631179e+01
   9.129216e+01  -5.949200e+01
   8.262701e+01   2.523675e+01
  -1.929219e+00   1.053724e+02
  -1.261835e+02   9.695126e+01
  -1.951488e+02  -3.225106e+01
  -1.173801e+02  -1.931250e+02
   8.057277e+01  -2.337021e+02
   2.509540e+02  -1.169772e+02
   2.629016e+02   6.843931e+01
   1.233345e+02   1.720214e+02
  -2.463671e+01   1.512052e+02
  -8.780684e+01   8.756110e+01
  -7.586096e+01   7.353222e+01
  -6.251585e+01   9.521057e+01
  -8.498238e+01   8.270040e+01
  -1.285096e+02  -1.419390e+01
  -1.267974e+02  -1.453398e+02
  -4.570076e+01  -2.221824e+02
   8.728660e+01  -1.792561e+02
   1.751495e+02  -3.354823e+01
   1.454573e+02   1.082532e+02
   3.256315e+01   1.554235e+02
  -6.060021e+01   9.836427e+01
  -6.099478e+01   9.766527e+00
  -1.324591e+01  -3.779471e+01
   4.314549e+00  -3.720559e+01
  -3.585402e+01  -1.983887e+01
  -7.775309e+01  -2.362861e+01
  -4.701780e+01  -3.773655e+01
   5.787897e+01  -4.231658e+01
   1.523602e+02  -1.481169e+01
   1.448024e+02   3.547164e+01
   2.630842e+01   8.635506e+01
  -1.071786e+02   8.161545e+01
  -1.401959e+02   2.360378e+01
  -5.184225e+01  -3.801114e+01
   5.576852e+01  -4.057661e+01
   7.494955e+01   1.586294e+01
   1.027872e+01   6.834561e+01
  -5.380140e+01   5.925510e+01
  -6.228892e+01  -6.658502e-01
  -4.577740e+01  -4.948508e+01
  -4.249121e+01  -4.193768e+01
  -5.650499e+01   3.100968e-01
  -5.729667e+01   6.159903e+00
  -3.473497e+01  -5.867347e+01
   2.051440e+01  -1.389169e+02
   9.775141e+01  -1.428709e+02
   1.542354e+02  -4.398824e+01
   1.284458e+02   7.990859e+01
   1.491482e+01   1.201266e+02
  -7.742606e+01   6.251397e+01
  -5.636462e+01  -1.580606e+01
   6.168883e+01  -2.368932e+01
   1.380672e+02   4.133590e+01
   7.760891e+01   1.057873e+02
  -7.539681e+01   1.131066e+02
  -1.856739e+02   6.138065e+01
  -1.609311e+02  -2.205575e+01
  -4.288701e+01  -8.347534e+01
   5.479307e+01  -7.628126e+01
   4.846319e+01  -1.381348e+01
  -3.771969e+01   2.586081e+01
  -8.673136e+01  -1.613126e+01
  -3.394811e+01  -1.120318e+02
   8.543153e+01  -1.498264e+02
   1.594445e+02  -5.957903e+01
   1.233253e+02   9.645517e+01
   1.655344e+01   1.877141e+02
  -7.400415e+01   1.415852e+02
  -1.006137e+02  -2.859352e-01
  -7.141311e+01  -1.095564e+02
  -1.177244e+01  -1.080146e+02
   4.063532e+01  -2.806557e+01
   5.670160e+01   2.436695e+01
   3.066474e+01   7.761781e+00
   4.017460e+00  -2.011768e+01
   1.983606e+01   1.434748e+01
   5.871962e+01   8.371162e+01
   4.883310e+01   1.050343e+02
  -4.362264e+01   4.875991e+01
  -1.409522e+02  -3.048698e+01
  -1.325022e+02  -6.236972e+01
  -1.838987e+01  -4.702215e+01
   8.705895e+01  -2.645657e+01
   8.580004e+01  -1.235461e+01
   9.477795e+00   5.916368e+00
  -3.707760e+01   2.405692e+01
  -1.239858e+01   1.977177e+01
   1.939364e+01  -6.965001e-01
  -1.054779e+01  -8.813311e+00
  -7.655368e+01  -2.445795e+00
  -9.035437e+01  -1.954079e+01
  -7.443706e+00  -7.491556e+01
   1.128297e+02  -1.147546e+02
   1.721279e+02  -6.547369e+01
   1.340303e+02   5.483050e+01
   3.000974e+01   1.538833e+02
  -6.582495e+01   1.510613e+02
  -1.024723e+02   6.475270e+01
  -7.673894e+01  -1.720723e+01
  -2.760789e+01  -3.389551e+01
   1.840073e+00  -6.044155e+00
  -1.160032e+01   6.267856e-01
  -3.845899e+01  -4.139520e+01
  -3.025939e+01  -8.812126e+01
   2.480414e+01  -7.266815e+01
   8.213878e+01   1.579162e+01
   8.024706e+01   1.033234e+02
   5.332563e+00   1.056870e+02
  -8.210248e+01   2.256136e+01
  -1.027034e+02  -7.161831e+01
  -3.302771e+01  -9.697717e+01
   6.160582e+01  -5.374171e+01
   9.409020e+01   7.763443e+00
   3.984525e+01   4.623879e+01
  -2.608769e+01   4.863536e+01
  -2.534687e+01   2.853180e+01
   3.414858e+01  -1.246837e+00
   6.548178e+01  -8.423650e+00
   1.629746e+01   2.220703e+01
  -6.845971e+01   6.893065e+01
  -1.042006e+02   6.922297e+01
  -6.158519e+01  -3.721909e+00
   9.643772e+00  -7.932013e+01
   4.365018e+01  -7.972046e+01
   2.838182e+01  -8.334282e+00
   1.044000e+00   5.261758e+01
  -2.205895e+01   4.191971e+01
  -3.333060e+01  -1.748523e+01
  -2.701539e+01  -4.966118e+01
   8.088761e-01  -2.966311e+01
   3.250463e+01   7.105077e+00
   4.012811e+01   1.674417e+01
   2.098857e+01  -7.235473e-01
  -2.462836e+00  -1.036093e+01
  -1.014187e+01   7.351656e+00
  -7.769971e+00   3.619899e+01
  -1.545597e+01   3.915331e+01
  -3.040581e+01   2.106125e+00
  -2.789695e+01  -4.578171e+01
   4.162726e+00  -5.887360e+01
   4.511677e+01  -2.056991e+01
   5.747295e+01   3.721742e+01
   1.657748e+01   6.111194e+01
  -5.053636e+01   3.681659e+01
  -8.427481e+01  -8.550258e+00
  -5.096097e+01  -3.871741e+01
   2.320153e+01  -4.043245e+01
   5.933781e+01  -2.367373e+01
   2.021631e+01  -7.202059e+00
  -3.828381e+01  -3.933904e+00
  -3.638912e+01  -1.816589e+01
   3.291738e+01  -3.146631e+01
   9.089287e+01  -1.839156e+01
