
 $NMID
 id='ANONYMOUS ', fmtdat='(2E16.6)'
 volume=1.0
 tramp=1.0
 $END
  -3.644969e+03   2.316727e+02
  -2.430939e+03  -2.208670e+03
   8.863750e+01  -2.259356e+03
   1.474715e+03  -1.135680e+03
   9.177859e+02   7.698351e+01
  -1.885543e+02   3.776311e+02
  -6.260924e+02  -1.721161e+02
  -1.163146e+02  -7.763819e+02
   5.516817e+02  -7.162207e+02
   8.131965e+02  -4.582064e+01
   4.957177e+02   6.468773e+02
  -7.238440e+01   7.664068e+02
  -4.510857e+02   1.750585e+02
  -3.398426e+02  -5.099468e+02
   1.539688e+02  -6.220265e+02
   4.967349e+02  -6.474976e+01
   3.303803e+02   5.411898e+02
  -1.678180e+02   6.221688e+02
  -4.945331e+02   2.171288e+02
  -4.390473e+02  -2.089344e+02
  -1.066904e+02  -3.688628e+02
   1.575078e+02  -2.315950e+02
   1.103086e+02  -4.411397e+01
  -1.676419e+02  -1.669318e+01
  -3.220711e+02  -1.924887e+02
  -7.414647e+01  -3.717979e+02
   4.322732e+02  -2.786405e+02
   6.692916e+02   9.355091e+01
   2.972577e+02   4.001244e+02
  -3.215695e+02   3.250734e+02
  -5.725738e+02  -4.279674e+01
  -2.663383e+02  -3.782304e+02
   2.330307e+02  -4.238163e+02
   4.772339e+02  -1.800065e+02
   3.566372e+02   1.669134e+02
   7.788528e+01   3.546365e+02
  -9.834247e+01   2.235215e+02
  -5.153648e+01  -1.287668e+02
   1.523636e+02  -2.608216e+02
   2.878118e+02   6.200879e+01
   1.437341e+02   5.055609e+02
  -2.248698e+02   5.212866e+02
  -4.107046e+02   4.026512e+01
  -1.880303e+02  -3.656616e+02
   1.873633e+02  -2.301049e+02
   2.673129e+02   2.181139e+02
  -5.401459e+01   4.335563e+02
  -4.488748e+02   1.415720e+02
  -5.243946e+02  -3.076369e+02
  -1.878913e+02  -5.045908e+02
   2.994317e+02  -3.246995e+02
   5.417618e+02   2.740423e+01
   3.585327e+02   2.719422e+02
  -7.144712e+01   2.785848e+02
  -3.326723e+02   8.481913e+01
  -2.159684e+02  -9.336806e+01
   5.109758e+01  -6.746538e+01
   1.010210e+02   8.536008e+01
  -1.062193e+02   1.294242e+02
  -2.736104e+02  -2.762614e+01
  -1.501413e+02  -2.252739e+02
   1.542704e+02  -2.710743e+02
   3.382849e+02  -1.302383e+02
   2.545236e+02   1.089297e+02
  -1.453602e+01   3.227324e+02
  -2.646282e+02   3.552936e+02
  -3.475383e+02   1.556066e+02
  -2.443384e+02  -1.605128e+02
  -5.839845e+01  -3.654975e+02
   5.858623e+01  -2.985720e+02
   3.882620e+01  -1.291907e+02
   1.762248e+01  -6.003132e+01
   9.001713e+01  -1.152520e+02
   2.156292e+02  -9.296209e+01
   2.505400e+02   7.956007e+01
   1.258595e+02   2.511083e+02
  -7.644458e+01   2.197243e+02
  -2.068560e+02  -8.802197e+00
  -1.780757e+02  -2.318820e+02
   1.593832e+01  -2.743183e+02
   2.473225e+02  -1.046791e+02
   3.347796e+02   1.455542e+02
   1.953704e+02   2.994362e+02
  -4.683617e+01   2.844812e+02
  -1.724708e+02   1.535931e+02
  -1.452556e+02   6.293909e+01
  -1.243044e+02   5.554758e+01
  -2.428835e+02   5.836074e+01
  -3.917884e+02  -5.343960e+01
  -3.259739e+02  -2.607927e+02
  -8.929004e+00  -4.302032e+02
   3.432196e+02  -4.165368e+02
   4.662838e+02  -1.931023e+02
   2.959640e+02   9.063120e+01
   4.151041e+01   2.541906e+02
  -9.350049e+01   2.033623e+02
  -3.126210e+01   2.205344e+01
   1.092669e+02  -7.053609e+01
   1.484935e+02   2.198851e+01
   3.229437e+01   1.498237e+02
  -1.156454e+02   1.277775e+02
  -1.281482e+02  -4.570135e+01
   1.087974e+01  -1.463536e+02
   1.677099e+02  -2.326734e+01
   1.655481e+02   2.200417e+02
  -5.845701e+00   3.363628e+02
  -2.235706e+02   2.125365e+02
  -3.371919e+02  -4.084611e+01
  -2.747825e+02  -2.239631e+02
  -7.920181e+01  -2.512708e+02
   1.095990e+02  -1.376528e+02
   1.408333e+02  -1.250011e+01
   2.837716e+01   1.266010e+01
  -6.048432e+01  -5.104711e+01
  -1.017153e+01  -1.145768e+02
   1.240766e+02  -8.515068e+01
   1.535152e+02   1.086769e+01
   4.068012e+01   6.252441e+01
  -8.370110e+01   9.373799e+00
  -5.188346e+01  -8.163205e+01
   1.287365e+02  -1.050517e+02
   2.828496e+02  -1.280632e+01
   2.560180e+02   1.462989e+02
   4.413968e+01   2.619370e+02
  -1.862759e+02   2.434661e+02
  -2.572298e+02   1.012159e+02
  -1.417878e+02  -5.265915e+01
   2.648421e+01  -9.233864e+01
   7.362304e+01  -8.184077e-01
  -3.779907e+01   8.885026e+01
  -1.767668e+02   5.174808e+01
  -1.917394e+02  -8.976414e+01
  -6.377711e+01  -1.846165e+02
   8.270220e+01  -1.428052e+02
   1.216549e+02  -2.343103e+01
   4.553723e+01   3.627081e+01
  -4.564178e+01  -1.358971e+01
  -3.407872e+01  -1.054522e+02
   9.376507e+01  -1.341705e+02
   2.083705e+02  -3.127072e+01
   1.917045e+02   1.262801e+02
   2.423677e+01   2.151184e+02
  -1.498360e+02   1.648039e+02
  -1.764683e+02   1.446514e+01
  -6.079477e+01  -1.004976e+02
   5.729325e+01  -1.026336e+02
   7.142755e+01  -2.801933e+01
   6.756564e+00   2.468558e+01
  -2.978688e+01   1.219756e+01
   9.392541e+00  -2.240417e+01
   8.330063e+01  -4.758368e+00
   1.022142e+02   8.184037e+01
   1.980146e+01   1.696159e+02
  -1.273306e+02   1.612132e+02
  -2.273816e+02   2.280322e+01
  -1.992648e+02  -1.496244e+02
  -4.629085e+01  -2.304356e+02
   1.005222e+02  -1.633052e+02
   1.327641e+02  -2.881092e+01
   7.422160e+01   4.877776e+01
   3.091267e+01   2.791551e+01
   5.142573e+01  -1.789529e+01
   8.176405e+01  -1.023601e+01
   5.368618e+01   5.578370e+01
  -3.421692e+01   1.009952e+02
  -1.114964e+02   6.671728e+01
  -1.012977e+02  -3.932170e+01
   9.643967e+00  -1.250160e+02
   1.508493e+02  -9.750343e+01
   2.049907e+02   4.950193e+01
   9.945659e+01   2.049176e+02
  -1.060287e+02   2.322770e+02
  -2.564351e+02   1.012584e+02
  -2.421672e+02  -7.582609e+01
  -1.026647e+02  -1.640143e+02
   3.071202e+01  -1.385456e+02
   7.874535e+01  -8.056977e+01
   6.405209e+01  -6.983116e+01
   5.411216e+01  -9.462772e+01
   9.121154e+01  -8.275167e+01
   1.337690e+02   1.447034e+01
   1.260930e+02   1.456317e+02
   3.405412e+01   2.204614e+02
  -9.650703e+01   1.672540e+02
  -1.702770e+02   1.884562e+01
  -1.315022e+02  -1.193153e+02
  -1.379003e+01  -1.512261e+02
   6.948814e+01  -7.895139e+01
   6.353575e+01   1.006805e+01
   2.980081e+00   5.323086e+01
  -2.152884e+01   3.541218e+01
   2.468983e+01   1.148936e+01
   7.460520e+01   1.431999e+01
   4.684994e+01   3.936858e+01
  -6.720642e+01   4.882167e+01
  -1.655734e+02   1.464538e+01
  -1.426280e+02  -5.272632e+01
  -7.164778e+00  -1.022201e+02
   1.216700e+02  -8.409174e+01
   1.371239e+02  -1.130391e+01
   4.153710e+01   5.259290e+01
  -5.926263e+01   4.783835e+01
  -7.707846e+01  -1.772323e+01
  -1.796578e+01  -7.547029e+01
   4.698256e+01  -6.546663e+01
   6.921916e+01  -2.832026e+00
   5.582541e+01   4.731792e+01
   4.344904e+01   3.820131e+01
   5.049204e+01  -1.843509e+00
   6.182082e+01  -1.875575e+00
   4.616261e+01   6.853317e+01
  -1.692547e+01   1.523267e+02
  -1.130100e+02   1.475583e+02
  -1.733743e+02   3.675869e+01
  -1.289766e+02  -9.539872e+01
  -6.053915e+00  -1.331976e+02
   8.855348e+01  -6.799002e+01
   6.249193e+01   1.443272e+01
  -5.327162e+01   2.777027e+01
  -1.302933e+02  -3.178259e+01
  -7.516252e+01  -1.005805e+02
   7.234983e+01  -1.112242e+02
   1.779372e+02  -5.209431e+01
   1.536683e+02   3.100816e+01
   3.312443e+01   8.100839e+01
  -5.776751e+01   6.401780e+01
  -4.562140e+01   1.413547e+00
   4.259365e+01  -3.317310e+01
   9.312991e+01   1.616831e+01
   4.402191e+01   1.125122e+02
  -7.139519e+01   1.527512e+02
  -1.491219e+02   6.896355e+01
  -1.239308e+02  -9.085893e+01
  -1.874970e+01  -1.827867e+02
   7.792747e+01  -1.300661e+02
   1.023717e+02   1.318627e+01
   6.052314e+01   1.163287e+02
  -6.610624e+00   1.030622e+02
  -5.102763e+01   1.836397e+01
  -4.712681e+01  -2.753105e+01
  -1.823538e+01  -6.140732e+00
  -3.639660e+00   1.691077e+01
  -2.931793e+01  -1.587051e+01
  -6.220099e+01  -8.064219e+01
  -3.802073e+01  -1.008924e+02
   5.441729e+01  -4.859112e+01
   1.382381e+02   2.732518e+01
   1.217035e+02   6.399433e+01
   1.508571e+01   5.498264e+01
  -8.128255e+01   2.812019e+01
  -8.417113e+01   5.301732e+00
  -1.325545e+01  -1.580099e+01
   3.422047e+01  -2.364054e+01
   1.869035e+01  -1.160998e+01
  -1.485244e+01   6.766028e+00
   4.131563e+00   5.499148e+00
   6.529721e+01  -3.101967e+00
   8.954854e+01   1.803461e+01
   2.243686e+01   8.017110e+01
  -1.013957e+02   1.183264e+02
  -1.777261e+02   6.860943e+01
  -1.460649e+02  -5.398831e+01
  -3.418252e+01  -1.548178e+02
   7.279023e+01  -1.504086e+02
   1.088327e+02  -6.331704e+01
   7.645737e+01   1.928087e+01
   2.569155e+01   3.745956e+01
   4.303141e-01   1.127303e+01
   1.437764e+01   4.508446e+00
   3.330626e+01   4.503921e+01
   2.220490e+01   8.704126e+01
  -2.708600e+01   7.033941e+01
  -7.743720e+01  -1.206015e+01
  -7.994171e+01  -9.520741e+01
  -1.479493e+01  -1.054230e+02
   7.506653e+01  -3.200105e+01
   1.065868e+02   6.118950e+01
   4.109327e+01   1.006734e+02
  -6.311829e+01   6.653541e+01
  -1.021531e+02  -3.954731e+00
  -4.586916e+01  -5.283369e+01
   2.969530e+01  -6.028810e+01
   3.541450e+01  -2.901925e+01
  -2.703647e+01   7.140800e+00
  -6.445616e+01   1.073323e+01
  -1.873527e+01  -2.686674e+01
   6.945282e+01  -6.933776e+01
   1.126588e+02  -5.691246e+01
   6.955514e+01   1.411362e+01
  -8.454262e+00   8.259562e+01
  -5.241981e+01   7.824658e+01
  -4.354816e+01   9.675679e+00
  -5.496087e+00  -5.257321e+01
   2.529981e+01  -4.454032e+01
   3.862196e+01   1.370686e+01
   2.697833e+01   5.327041e+01
  -5.165299e+00   3.647868e+01
  -3.458097e+01  -6.122744e+00
  -4.037462e+01  -2.290542e+01
  -1.894933e+01  -4.467605e+00
   4.048683e+00   1.855341e+01
   4.632870e+00   5.466899e+00
  -4.471640e+00  -3.373787e+01
   3.128074e+00  -5.125297e+01
   2.762796e+01  -2.071902e+01
   4.201739e+01   3.275934e+01
   1.308064e+01   5.770734e+01
  -3.889362e+01   2.638846e+01
  -6.093119e+01  -2.898830e+01
  -2.086876e+01  -5.805352e+01
   5.582850e+01  -3.952361e+01
   9.283540e+01   5.824949e+00
   5.056111e+01   4.101519e+01
  -2.683257e+01   4.728100e+01
  -6.158988e+01   3.038117e+01
  -2.600039e+01   5.589583e+00
   2.876214e+01  -6.426037e+00
   3.476389e+01   5.482061e+00
  -2.200143e+01   2.909774e+01
  -7.812595e+01   2.654163e+01
