
 $NMID
 id='ANONYMOUS ', fmtdat='(2E16.6)'
 volume=1.0
 tramp=1.0
 $END
   4.477464e+03   1.923214e+02
   2.554093e+03   2.946322e+03
  -8.039077e+02   2.918240e+03
  -2.088850e+03   8.706511e+02
  -9.371342e+02  -6.813547e+02
   6.775487e+02  -6.017599e+02
   8.571781e+02   4.882483e+02
  -3.524200e+01   1.093130e+03
  -8.597640e+02   7.803239e+02
  -9.378133e+02  -1.282230e+02
  -4.515977e+02  -8.903616e+02
   2.540474e+02  -9.109286e+02
   6.761948e+02  -1.198949e+02
   4.107989e+02   7.346762e+02
  -2.823797e+02   7.681147e+02
  -6.339733e+02  -1.575143e+01
  -2.744190e+02  -7.023742e+02
   3.463968e+02  -6.346634e+02
   6.100640e+02  -7.649883e+01
   3.917591e+02   3.640266e+02
   1.263369e+01   4.504409e+02
  -2.453532e+02   2.814510e+02
  -2.345401e+02   3.757233e+01
   8.431784e+01  -1.055598e+02
   4.016160e+02   6.968376e+01
   2.270594e+02   4.094888e+02
  -4.135560e+02   4.384944e+02
  -8.321999e+02  -2.090434e+01
  -4.636581e+02  -5.295181e+02
   3.810728e+02  -5.010805e+02
   7.592328e+02   2.103801e+01
   3.665846e+02   4.957186e+02
  -2.779220e+02   5.430256e+02
  -5.800985e+02   2.110358e+02
  -4.420698e+02  -2.315285e+02
  -8.955727e+01  -4.795818e+02
   1.910198e+02  -2.925668e+02
   1.754571e+02   2.089176e+02
  -1.579959e+02   4.394891e+02
  -4.623079e+02  -1.065369e+01
  -2.757373e+02  -6.815846e+02
   2.988470e+02  -7.307117e+02
   6.288228e+02  -4.651362e+01
   2.858964e+02   5.478858e+02
  -2.976606e+02   3.529898e+02
  -4.235227e+02  -2.972098e+02
   6.535528e+01  -5.563720e+02
   5.656769e+02  -1.591092e+02
   5.970499e+02   3.972931e+02
   1.514297e+02   5.970524e+02
  -3.933931e+02   3.435168e+02
  -6.300506e+02  -9.565624e+01
  -3.681361e+02  -4.101163e+02
   1.586717e+02  -3.799634e+02
   4.561933e+02  -5.388318e+01
   2.680257e+02   2.084285e+02
  -1.111002e+02   1.234777e+02
  -1.501863e+02  -1.513410e+02
   1.522814e+02  -1.937214e+02
   3.517909e+02   7.242978e+01
   1.435187e+02   3.103507e+02
  -2.092342e+02   2.632748e+02
  -3.244718e+02   5.876465e+01
  -1.779058e+02  -9.222210e+01
   3.430742e+01  -2.090470e+02
   2.111141e+02  -2.932804e+02
   3.124387e+02  -1.954975e+02
   2.819190e+02   1.372123e+02
   8.116255e+01   4.352528e+02
  -1.235270e+02   3.832845e+02
  -1.392749e+02   1.096840e+02
  -3.369285e+01  -2.170588e+01
  -3.793309e+01   7.425982e+01
  -1.784886e+02   1.208984e+02
  -2.709813e+02  -4.440139e+01
  -1.638355e+02  -2.556559e+02
   6.033819e+01  -2.532593e+02
   2.162386e+02  -2.042849e+01
   1.962824e+02   2.322674e+02
  -2.487991e+00   2.922348e+02
  -2.647333e+02   1.272377e+02
  -3.705086e+02  -1.622664e+02
  -1.987929e+02  -3.607816e+02
   9.708691e+01  -3.217884e+02
   2.439487e+02  -1.274876e+02
   1.698206e+02   3.731792e+00
   1.059974e+02  -2.084291e+01
   2.322640e+02  -5.242610e+01
   3.926620e+02   6.311345e+01
   3.190028e+02   2.899152e+02
  -1.112698e+01   4.396766e+02
  -3.618235e+02   4.037341e+02
  -4.841154e+02   1.915608e+02
  -3.386793e+02  -8.954010e+01
  -6.534101e+01  -2.880160e+02
   1.246249e+02  -2.612105e+02
   9.156575e+01  -4.278441e+01
  -8.954694e+01   1.068734e+02
  -1.968998e+02   2.230597e+00
  -5.545573e+01  -1.948931e+02
   1.591659e+02  -1.746871e+02
   1.828673e+02   5.474968e+01
  -1.615320e+01   1.931950e+02
  -1.923387e+02   3.189590e+01
  -1.499734e+02  -2.434887e+02
   4.370196e+01  -3.399253e+02
   2.202146e+02  -1.795440e+02
   3.049294e+02   6.704918e+01
   2.583253e+02   2.281652e+02
   9.034474e+01   2.393060e+02
  -9.973803e+01   1.439250e+02
  -1.668274e+02   1.647813e+01
  -5.568047e+01  -2.586358e+01
   6.714081e+01   3.649640e+01
   3.423862e+01   1.172954e+02
  -1.118599e+02   9.388750e+01
  -1.712788e+02  -5.375524e+00
  -6.363706e+01  -6.473055e+01
   6.886216e+01  -1.280532e+01
   4.982562e+01   6.589001e+01
  -1.177280e+02   7.450365e+01
  -2.629664e+02   4.006662e-01
  -2.519703e+02  -1.294344e+02
  -5.831943e+01  -2.454301e+02
   1.690833e+02  -2.603014e+02
   2.655361e+02  -1.245034e+02
   1.643691e+02   5.355840e+01
  -1.878277e+01   1.092440e+02
  -8.903097e+01   6.874050e+00
   3.209585e+01  -1.047737e+02
   1.928593e+02  -6.185911e+01
   2.134390e+02   1.025861e+02
   7.085014e+01   2.085428e+02
  -8.974875e+01   1.579943e+02
  -1.401688e+02   3.435642e+01
  -6.843065e+01  -3.321862e+01
   2.139160e+01  -3.984811e-01
   2.928262e+01   7.483940e+01
  -7.682956e+01   1.043268e+02
  -1.840339e+02   2.623420e+01
  -1.795492e+02  -1.162014e+02
  -2.051632e+01  -2.097294e+02
   1.561517e+02  -1.627443e+02
   1.889316e+02  -7.518253e+00
   6.627108e+01   1.128178e+02
  -6.668012e+01   1.111326e+02
  -8.285818e+01   3.226123e+01
  -2.188750e+01  -2.315524e+01
   1.729853e+01  -1.967259e+01
  -1.116830e+01   8.662772e-01
  -6.335504e+01  -1.588363e+01
  -7.661063e+01  -7.844081e+01
  -9.190246e+00  -1.436120e+02
   1.159000e+02  -1.367300e+02
   2.163050e+02  -2.743691e+01
   1.891621e+02   1.433076e+02
   3.943981e+01   2.242428e+02
  -1.042171e+02   1.616293e+02
  -1.299249e+02   2.536819e+01
  -6.925446e+01  -5.442353e+01
  -3.066976e+01  -3.685649e+01
  -5.310806e+01   6.885775e+00
  -7.038761e+01   3.806190e+00
  -3.086923e+01  -4.640390e+01
   4.754368e+01  -7.829460e+01
   9.576632e+01  -4.529773e+01
   7.659679e+01   3.687398e+01
  -1.708422e+01   1.013433e+02
  -1.310049e+02   7.690520e+01
  -1.818854e+02  -4.410654e+01
  -9.651568e+01  -1.861000e+02
   9.154530e+01  -2.135535e+02
   2.412002e+02  -1.010695e+02
   2.430765e+02   6.955959e+01
   1.075974e+02   1.680698e+02
  -3.282331e+01   1.484783e+02
  -9.267583e+01   8.590881e+01
  -7.953974e+01   6.427506e+01
  -6.858965e+01   8.409982e+01
  -8.939260e+01   6.785256e+01
  -1.227203e+02  -2.323092e+01
  -1.104914e+02  -1.534283e+02
  -2.549072e+01  -2.181909e+02
   9.486321e+01  -1.661391e+02
   1.657550e+02  -1.990452e+01
   1.276129e+02   1.117255e+02
   2.164062e+01   1.470798e+02
  -5.983957e+01   8.620334e+01
  -5.492763e+01   1.725920e+00
  -5.252141e+00  -3.861632e+01
   9.647298e+00  -3.172706e+01
  -3.369261e+01  -1.652493e+01
  -7.239917e+01  -2.521497e+01
  -4.145590e+01  -3.599858e+01
   5.896650e+01  -3.377965e+01
   1.502823e+02   3.349916e+00
   1.366402e+02   5.330463e+01
   1.478442e+01   8.508543e+01
  -1.144983e+02   6.847803e+01
  -1.377271e+02   1.141321e+01
  -4.385835e+01  -3.837973e+01
   5.803212e+01  -3.409227e+01
   7.044770e+01   2.174653e+01
   2.513840e+00   6.982117e+01
  -5.713116e+01   5.582993e+01
  -6.023596e+01  -5.538572e+00
  -4.030596e+01  -5.283912e+01
  -3.962851e+01  -4.159990e+01
  -6.408835e+01   6.303626e-03
  -6.532843e+01  -1.075525e+00
  -3.347634e+01  -6.749743e+01
   3.215828e+01  -1.413499e+02
   1.128279e+02  -1.317005e+02
   1.591272e+02  -2.648372e+01
   1.139905e+02   8.487555e+01
   4.611924e+00   1.163535e+02
  -7.733180e+01   5.405500e+01
  -5.017177e+01  -1.521940e+01
   6.093481e+01  -1.726913e+01
   1.329357e+02   4.763762e+01
   7.135618e+01   1.059005e+02
  -7.535802e+01   1.095701e+02
  -1.792711e+02   4.943277e+01
  -1.565430e+02  -3.190886e+01
  -3.950888e+01  -8.228293e+01
   5.654651e+01  -6.846858e+01
   4.602817e+01  -9.935857e+00
  -3.644334e+01   2.496995e+01
  -8.391867e+01  -2.416971e+01
  -2.840266e+01  -1.144819e+02
   9.026916e+01  -1.457211e+02
   1.601450e+02  -5.496491e+01
   1.194844e+02   9.907403e+01
   9.608610e+00   1.899059e+02
  -7.907666e+01   1.368902e+02
  -9.636606e+01  -5.296739e+00
  -5.869502e+01  -1.082916e+02
   8.297879e-02  -9.966488e+01
   4.184233e+01  -1.833082e+01
   4.805572e+01   2.881423e+01
   2.527679e+01   7.934866e+00
   2.989828e+00  -1.897765e+01
   1.898808e+01   1.508376e+01
   5.393899e+01   8.494144e+01
   4.037630e+01   1.025951e+02
  -4.665876e+01   3.655616e+01
  -1.334376e+02  -4.312412e+01
  -1.227553e+02  -7.096713e+01
  -1.477403e+01  -4.770530e+01
   8.680827e+01  -1.826912e+01
   8.553219e+01  -4.373233e+00
   9.032637e+00   7.402732e+00
  -3.609014e+01   2.026557e+01
  -1.175018e+01   1.736463e+01
   1.952890e+01  -4.246969e-01
  -1.083044e+01  -1.013500e+01
  -7.456612e+01  -9.482911e+00
  -8.783354e+01  -2.822831e+01
  -1.143736e+00  -7.938007e+01
   1.219107e+02  -1.037566e+02
   1.843319e+02  -4.962390e+01
   1.358559e+02   6.990887e+01
   2.164693e+01   1.565136e+02
  -7.839425e+01   1.442735e+02
  -1.091598e+02   5.717406e+01
  -7.370959e+01  -1.983367e+01
  -2.375198e+01  -3.307600e+01
   2.807856e+00  -8.063796e+00
  -9.138396e+00  -2.795791e+00
  -3.060842e+01  -4.410473e+01
  -2.006882e+01  -8.776478e+01
   2.904440e+01  -6.837654e+01
   7.668082e+01   2.079144e+01
   7.194674e+01   1.075186e+02
   1.926370e+00   1.070844e+02
  -8.062893e+01   1.884622e+01
  -9.744884e+01  -7.563051e+01
  -2.748415e+01  -9.728406e+01
   6.447397e+01  -4.856461e+01
   9.040336e+01   1.540025e+01
   3.395134e+01   4.825621e+01
  -3.284717e+01   4.479487e+01
  -2.856681e+01   2.306230e+01
   3.434238e+01  -7.892948e-01
   6.547392e+01  -4.787678e+00
   1.320926e+01   2.389560e+01
  -7.683547e+01   5.947917e+01
  -1.078560e+02   5.201626e+01
  -5.733076e+01  -9.896760e+00
   1.718268e+01  -7.741323e+01
   5.174475e+01  -7.520498e+01
   3.784321e+01  -6.002885e+00
   1.689885e+00   5.369091e+01
  -2.592865e+01   4.153911e+01
  -3.555178e+01  -1.841567e+01
  -2.237925e+01  -5.180750e+01
   4.779233e+00  -2.941852e+01
   2.996424e+01   1.109176e+01
   3.464875e+01   2.122779e+01
   1.772543e+01  -2.191077e-01
   6.196722e-01  -1.427346e+01
  -5.878845e+00   2.952751e+00
  -7.707472e+00   3.721811e+01
  -1.916848e+01   4.536452e+01
  -3.261727e+01   4.534052e+00
  -2.756368e+01  -4.804707e+01
   6.694753e+00  -6.206205e+01
   4.607243e+01  -1.770050e+01
   5.371602e+01   4.162227e+01
   1.137037e+01   6.267506e+01
  -5.270144e+01   3.160790e+01
  -8.405305e+01  -1.830527e+01
  -4.553451e+01  -4.348975e+01
   3.032106e+01  -3.826758e+01
   6.342843e+01  -1.877115e+01
   2.153335e+01  -3.469993e+00
  -3.792033e+01  -2.834243e+00
  -3.612557e+01  -1.736268e+01
   3.094866e+01  -3.174190e+01
   8.956070e+01  -1.798980e+01
