
 $NMID
 id='ANONYMOUS ', fmtdat='(2E16.6)'
 volume=1.0
 tramp=1.0
 $END
   2.855512e+03  -9.155576e+01
   1.986979e+03   1.527994e+03
  -2.291943e+01   1.735103e+03
  -1.004423e+03   9.342786e+02
  -6.634118e+02   1.552344e+01
   8.356884e+01  -1.646729e+02
   3.545140e+02   1.369491e+02
   1.917225e+01   5.396978e+02
  -4.212312e+02   4.987493e+02
  -5.744394e+02   7.362429e+01
  -3.695915e+02  -4.601593e+02
   1.562255e+01  -5.720186e+02
   3.081567e+02  -1.478446e+02
   2.396859e+02   3.665089e+02
  -9.757277e+01   4.783899e+02
  -3.516597e+02   7.408622e+01
  -2.665012e+02  -4.068317e+02
   9.758706e+01  -5.087848e+02
   3.823740e+02  -2.224697e+02
   3.594025e+02   1.385787e+02
   1.021647e+02   3.054611e+02
  -1.202300e+02   2.104474e+02
  -7.905054e+01   5.730100e+01
   1.598809e+02   2.976938e+01
   2.593336e+02   1.984994e+02
   4.860925e+00   3.274223e+02
  -4.075451e+02   1.884399e+02
  -5.350554e+02  -1.492777e+02
  -1.765050e+02  -3.312174e+02
   2.936240e+02  -2.143371e+02
   4.362637e+02   8.696771e+01
   1.713407e+02   3.095369e+02
  -2.083761e+02   3.106696e+02
  -3.764649e+02   1.203160e+02
  -2.662036e+02  -1.294387e+02
  -5.466228e+01  -2.580681e+02
   6.472173e+01  -1.448906e+02
   1.370070e-01   1.064481e+02
  -1.495646e+02   1.687525e+02
  -2.117290e+02  -9.108711e+01
  -5.089789e+01  -4.130666e+02
   2.041661e+02  -3.733634e+02
   3.005459e+02  -4.219856e+00
   1.123338e+02   2.812827e+02
  -1.520827e+02   1.401587e+02
  -1.931004e+02  -2.241725e+02
   8.955388e+01  -3.451662e+02
   3.816458e+02  -8.340894e+01
   4.232055e+02   2.931938e+02
   1.320873e+02   4.178602e+02
  -2.538473e+02   2.455324e+02
  -4.366700e+02  -3.938862e+01
  -2.754199e+02  -2.084925e+02
   4.739587e+01  -1.929041e+02
   2.413823e+02  -6.683395e+01
   1.589403e+02   3.624157e+01
  -2.003580e+01   2.486606e+01
  -5.140698e+01  -6.068888e+01
   9.373171e+01  -7.085630e+01
   2.058275e+02   2.813369e+01
   1.068848e+02   1.657607e+02
  -1.208513e+02   2.079059e+02
  -2.713961e+02   1.053991e+02
  -1.978137e+02  -8.638522e+01
   2.080664e+01  -2.610451e+02
   2.230181e+02  -2.958448e+02
   2.852883e+02  -1.318815e+02
   1.910924e+02   1.347236e+02
   4.603435e+01   2.991666e+02
  -3.357498e+01   2.525768e+02
  -2.509498e+01   1.204621e+02
  -1.763986e+01   6.150504e+01
  -9.236075e+01   9.530687e+01
  -1.957587e+02   7.003232e+01
  -2.124674e+02  -7.678636e+01
  -9.334020e+01  -2.090656e+02
   7.133839e+01  -1.715771e+02
   1.665753e+02   2.168665e+01
   1.262997e+02   1.967892e+02
  -3.750205e+01   2.100510e+02
  -2.129032e+02   5.763749e+01
  -2.632886e+02  -1.423790e+02
  -1.378382e+02  -2.517673e+02
   5.190883e+01  -2.161600e+02
   1.418876e+02  -1.162567e+02
   1.114610e+02  -5.296364e+01
   8.922361e+01  -5.659750e+01
   1.974564e+02  -6.129306e+01
   3.339186e+02   3.503769e+01
   2.888305e+02   2.119021e+02
   1.524495e+01   3.626510e+02
  -2.889747e+02   3.558732e+02
  -3.960365e+02   1.772643e+02
  -2.419689e+02  -7.556641e+01
  -2.482209e+01  -2.063768e+02
   7.619511e+01  -1.588600e+02
   1.391318e+01  -1.351417e+01
  -1.049008e+02   4.568710e+01
  -1.193688e+02  -2.656808e+01
  -2.105348e+01  -1.260205e+02
   9.553442e+01  -1.020839e+02
   1.008390e+02   3.434000e+01
  -1.279841e+01   1.098314e+02
  -1.274557e+02   1.219263e+01
  -1.268805e+02  -1.744626e+02
   3.274526e+00  -2.713412e+02
   1.850212e+02  -1.780101e+02
   2.778577e+02   3.563930e+01
   2.200380e+02   1.929662e+02
   4.956349e+01   2.091684e+02
  -9.603787e+01   1.056691e+02
  -1.103604e+02   4.809670e+00
  -1.681438e+01  -1.117700e+01
   5.470252e+01   4.825014e+01
   3.084152e+00   9.549563e+01
  -1.025327e+02   6.008113e+01
  -1.253547e+02  -1.803597e+01
  -2.808313e+01  -5.173713e+01
   7.360992e+01  -2.529110e+00
   4.631272e+01   6.994798e+01
  -1.050818e+02   8.446847e+01
  -2.388717e+02   1.025515e+01
  -2.147780e+02  -1.183665e+02
  -3.373745e+01  -2.130666e+02
   1.569897e+02  -1.962863e+02
   2.087761e+02  -7.385817e+01
   1.010142e+02   4.606288e+01
  -3.198365e+01   6.836141e+01
  -5.819605e+01  -8.872360e+00
   4.267258e+01  -7.707622e+01
   1.536646e+02  -3.726260e+01
   1.597339e+02   8.264465e+01
   5.177618e+01   1.562173e+02
  -6.747431e+01   1.155032e+02
  -1.019376e+02   1.752039e+01
  -3.712261e+01  -2.849331e+01
   3.614888e+01   1.682508e+01
   2.429532e+01   8.960846e+01
  -8.358886e+01   1.027917e+02
  -1.685761e+02   1.259861e+01
  -1.460651e+02  -1.083619e+02
  -6.897268e+00  -1.680272e+02
   1.255758e+02  -1.206006e+02
   1.394110e+02  -4.476984e+00
   4.415636e+01   7.973931e+01
  -5.166951e+01   7.892288e+01
  -5.967340e+01   2.077568e+01
  -5.049556e+00  -1.996917e+01
   2.919202e+01  -1.046240e+01
  -5.012260e+00   2.018561e+01
  -6.887921e+01   6.135376e+00
  -8.604275e+01  -6.555838e+01
  -1.606101e+01  -1.382590e+02
   1.074350e+02  -1.266816e+02
   1.922018e+02  -1.919572e+01
   1.561338e+02   1.243337e+02
   3.242287e+01   1.854021e+02
  -8.077427e+01   1.298987e+02
  -1.041536e+02   2.418027e+01
  -6.023195e+01  -3.374155e+01
  -2.529755e+01  -2.161608e+01
  -4.146661e+01   1.473633e+01
  -6.817263e+01   6.786265e+00
  -4.501592e+01  -4.516454e+01
   2.746547e+01  -8.704263e+01
   9.222658e+01  -5.856899e+01
   8.760203e+01   3.213428e+01
  -8.131649e+00   1.034228e+02
  -1.256343e+02   8.122689e+01
  -1.651227e+02  -4.258031e+01
  -7.244404e+01  -1.650999e+02
   8.908960e+01  -1.791310e+02
   2.116789e+02  -7.496070e+01
   1.969463e+02   6.405772e+01
   8.386622e+01   1.344555e+02
  -2.904220e+01   1.143271e+02
  -6.534891e+01   6.683566e+01
  -5.281383e+01   5.740254e+01
  -4.365266e+01   7.506006e+01
  -7.525857e+01   6.501566e+01
  -1.068238e+02  -1.411925e+01
  -9.998007e+01  -1.224105e+02
  -1.933104e+01  -1.797666e+02
   8.094422e+01  -1.297121e+02
   1.366396e+02  -8.978328e+00
   1.013935e+02   1.023860e+02
   8.368155e+00   1.233467e+02
  -6.011438e+01   6.628191e+01
  -5.641383e+01  -1.053956e+01
  -2.337914e+00  -4.415385e+01
   1.823154e+01  -3.139208e+01
  -1.883961e+01  -1.323283e+01
  -6.262795e+01  -1.444290e+01
  -3.988077e+01  -3.328445e+01
   5.971348e+01  -3.508835e+01
   1.430309e+02  -3.045626e+00
   1.210598e+02   5.023689e+01
   2.187950e+00   8.262210e+01
  -1.020969e+02   6.540344e+01
  -1.131376e+02   9.184079e+00
  -3.417779e+01  -3.972570e+01
   4.545394e+01  -3.623612e+01
   5.995991e+01   1.360803e+01
   1.411070e+01   5.894379e+01
  -3.609647e+01   5.062895e+01
  -5.134941e+01   2.430699e-01
  -4.488343e+01  -3.831928e+01
  -3.657446e+01  -2.907183e+01
  -4.374246e+01   2.831023e+00
  -5.171226e+01   4.028899e+00
  -4.078761e+01  -5.774601e+01
   1.120068e+01  -1.241662e+02
   8.908008e+01  -1.228529e+02
   1.406899e+02  -3.464631e+01
   1.113119e+02   7.241315e+01
   6.024719e+00   1.067885e+02
  -7.198159e+01   5.856947e+01
  -4.977997e+01  -1.208903e+01
   4.672356e+01  -2.448815e+01
   1.088104e+02   2.723041e+01
   6.124329e+01   8.293207e+01
  -5.843916e+01   9.034873e+01
  -1.459541e+02   3.738368e+01
  -1.228706e+02  -2.835000e+01
  -2.713955e+01  -6.519696e+01
   4.948562e+01  -4.874206e+01
   3.634484e+01  -5.084796e-01
  -3.674269e+01   2.740379e+01
  -7.550619e+01  -1.496016e+01
  -3.603276e+01  -9.204872e+01
   5.699793e+01  -1.257989e+02
   1.209139e+02  -6.068066e+01
   1.016777e+02   6.858427e+01
   1.903149e+01   1.494487e+02
  -5.886455e+01   1.082791e+02
  -7.993045e+01  -9.589238e+00
  -4.426848e+01  -9.522548e+01
   9.876574e+00  -8.058126e+01
   4.055256e+01  -1.138079e+01
   3.664690e+01   2.471697e+01
   1.308687e+01   5.306912e+00
   3.595329e+00  -1.478309e+01
   2.528542e+01   1.495045e+01
   4.918126e+01   6.766815e+01
   2.860348e+01   8.199150e+01
  -4.585588e+01   3.811154e+01
  -1.094254e+02  -2.394203e+01
  -9.729082e+01  -5.295499e+01
  -1.444223e+01  -4.299143e+01
   6.376478e+01  -2.398128e+01
   6.538029e+01  -6.170266e+00
   1.195618e+01   1.008708e+01
  -2.705116e+01   1.770741e+01
  -1.395172e+01   6.310941e+00
   1.236610e+01  -6.614094e+00
  -1.945152e+00  -4.134100e+00
  -5.115886e+01   4.921283e+00
  -7.513336e+01  -1.328346e+01
  -2.190771e+01  -6.344036e+01
   7.795451e+01  -9.746934e+01
   1.474828e+02  -6.154591e+01
   1.276870e+02   4.098684e+01
   3.463130e+01   1.241804e+02
  -5.693855e+01   1.267240e+02
  -8.915439e+01   5.764195e+01
  -6.167415e+01  -1.262498e+01
  -2.293048e+01  -2.798292e+01
  -5.114778e+00  -9.106967e+00
  -1.343229e+01  -5.198377e+00
  -2.737563e+01  -4.068144e+01
  -1.721708e+01  -7.373451e+01
   2.186815e+01  -5.872872e+01
   6.402232e+01   8.399324e+00
   6.738699e+01   7.744304e+01
   1.562922e+01   8.559466e+01
  -5.869618e+01   2.734327e+01
  -8.661183e+01  -4.593957e+01
  -3.422017e+01  -7.859052e+01
   5.050568e+01  -5.250015e+01
   8.360349e+01   3.618272e+00
   3.946204e+01   4.640574e+01
  -2.528542e+01   5.126657e+01
  -3.214454e+01   2.293395e+01
   1.817377e+01  -6.034907e+00
   5.180063e+01  -8.894543e+00
   1.551292e+01   2.238401e+01
  -5.953028e+01   5.514025e+01
  -9.251786e+01   4.277049e+01
  -5.631425e+01  -1.370341e+01
   9.279346e+00  -6.892014e+01
   4.293678e+01  -6.696547e+01
   3.369419e+01  -1.088644e+01
   6.512357e+00   4.023014e+01
  -1.651536e+01   3.785702e+01
  -2.884850e+01  -6.918978e+00
  -2.245535e+01  -4.162079e+01
   1.606282e+00  -3.142771e+01
   2.886190e+01   2.806370e+00
   3.524273e+01   1.918154e+01
   1.571046e+01   4.626905e+00
  -4.906095e+00  -1.470856e+01
  -5.752185e+00  -5.330075e+00
   5.103253e+00   2.654272e+01
   2.046729e+00   4.234290e+01
  -2.131346e+01   1.704630e+01
  -3.512414e+01  -2.604834e+01
  -1.252848e+01  -4.667317e+01
   3.135049e+01  -2.141480e+01
   5.103560e+01   2.226934e+01
   1.671532e+01   4.742943e+01
  -4.545074e+01   3.103398e+01
  -7.492728e+01  -5.735173e+00
  -3.966096e+01  -3.312307e+01
   2.297405e+01  -3.713204e+01
   4.975769e+01  -2.336091e+01
   1.912505e+01  -5.124578e+00
  -2.519805e+01   4.905462e+00
  -2.542090e+01  -6.114742e+00
   1.927600e+01  -2.174238e+01
   6.256038e+01  -1.686532e+01
