
 $NMID
 id='ANONYMOUS ', fmtdat='(2E16.6)'
 volume=1.0
 tramp=1.0
 $END
   3.888963e+03  -8.992893e+01
   2.537891e+03   2.316068e+03
  -4.424433e+02   2.428451e+03
  -1.730621e+03   9.023990e+02
  -8.484038e+02  -3.286605e+02
   4.511523e+02  -3.476753e+02
   6.619560e+02   3.772030e+02
   7.983519e-01   8.746763e+02
  -6.728586e+02   6.782464e+02
  -7.837793e+02  -1.954290e+01
  -4.394849e+02  -7.258347e+02
   1.409520e+02  -7.925138e+02
   5.169383e+02  -1.515092e+02
   3.505611e+02   6.022490e+02
  -1.882222e+02   6.755186e+02
  -5.177593e+02   3.507318e+01
  -2.814227e+02  -5.901993e+02
   2.308299e+02  -6.142456e+02
   5.044065e+02  -1.623212e+02
   3.850946e+02   2.595731e+02
   6.033377e+01   3.818596e+02
  -1.785934e+02   2.495414e+02
  -1.522954e+02   5.665232e+01
   1.344724e+02  -2.860925e+01
   3.447833e+02   1.458398e+02
   1.360575e+02   4.063188e+02
  -4.462880e+02   3.441678e+02
  -7.450347e+02  -9.900504e+01
  -3.567010e+02  -4.701290e+02
   3.737503e+02  -4.050114e+02
   6.673076e+02   5.367859e+01
   3.011219e+02   4.362828e+02
  -2.672974e+02   4.635953e+02
  -5.257367e+02   1.836451e+02
  -3.858188e+02  -1.968860e+02
  -8.332594e+01  -4.201017e+02
   1.410717e+02  -2.634036e+02
   1.127866e+02   1.661101e+02
  -1.647814e+02   3.577119e+02
  -3.836838e+02  -4.636618e+01
  -1.818034e+02  -6.008378e+02
   2.884225e+02  -6.252414e+02
   5.141763e+02  -1.187439e+01
   2.014077e+02   4.666098e+02
  -2.591658e+02   2.680843e+02
  -3.160322e+02  -3.036095e+02
   8.194033e+01  -4.951231e+02
   5.042314e+02  -1.375452e+02
   5.482942e+02   3.637008e+02
   1.685460e+02   5.413333e+02
  -3.356949e+02   3.228890e+02
  -5.770819e+02  -6.342377e+01
  -3.590985e+02  -3.298102e+02
   1.107657e+02  -3.174456e+02
   3.919416e+02  -5.638718e+01
   2.250426e+02   1.524629e+02
  -8.565961e+01   8.915051e+01
  -1.243442e+02  -1.223951e+02
   1.343887e+02  -1.564246e+02
   2.954448e+02   5.978222e+01
   1.252483e+02   2.569156e+02
  -1.786198e+02   2.434063e+02
  -3.029462e+02   8.572228e+01
  -1.960493e+02  -8.019311e+01
   1.838084e+01  -2.407517e+02
   2.138635e+02  -3.403854e+02
   3.226574e+02  -2.142163e+02
   2.781018e+02   1.306167e+02
   9.504638e+01   4.036036e+02
  -8.091012e+01   3.555648e+02
  -8.788489e+01   1.184506e+02
  -2.265841e+01   2.082177e+01
  -5.252567e+01   9.504517e+01
  -1.974638e+02   1.082472e+02
  -2.618863e+02  -6.342279e+01
  -1.498103e+02  -2.485854e+02
   5.883424e+01  -2.255660e+02
   1.972432e+02  -5.006503e+00
   1.774827e+02   2.158053e+02
  -8.952688e+00   2.593611e+02
  -2.430884e+02   9.781482e+01
  -3.367283e+02  -1.588896e+02
  -1.782426e+02  -3.224034e+02
   8.174256e+01  -2.815363e+02
   2.037400e+02  -1.236463e+02
   1.336238e+02  -2.264177e+01
   9.370841e+01  -5.460842e+01
   2.329468e+02  -7.148599e+01
   4.047418e+02   4.411592e+01
   3.465459e+02   2.727537e+02
   1.312134e+01   4.352528e+02
  -3.459771e+02   4.117235e+02
  -4.749543e+02   2.087256e+02
  -3.190746e+02  -7.800929e+01
  -5.508997e+01  -2.736095e+02
   1.126811e+02  -2.345061e+02
   5.956837e+01  -2.378259e+01
  -1.056247e+02   9.207522e+01
  -1.729379e+02  -9.876677e+00
  -3.936903e+01  -1.776259e+02
   1.480937e+02  -1.468399e+02
   1.602855e+02   6.492220e+01
  -1.899266e+01   1.752359e+02
  -1.856716e+02   2.809819e+01
  -1.685941e+02  -2.352317e+02
   1.255392e+01  -3.365240e+02
   2.187294e+02  -1.939886e+02
   3.158893e+02   4.644806e+01
   2.706760e+02   2.127559e+02
   8.943925e+01   2.351412e+02
  -9.326198e+01   1.446945e+02
  -1.448186e+02   2.538727e+01
  -3.835126e+01  -1.644363e+01
   6.476684e+01   4.791122e+01
   2.089829e+01   1.135796e+02
  -1.132660e+02   8.942325e+01
  -1.600217e+02  -1.017140e+01
  -5.406158e+01  -6.075988e+01
   7.353048e+01  -1.370078e+01
   5.367614e+01   6.803192e+01
  -1.155448e+02   8.976334e+01
  -2.690470e+02   1.125952e+01
  -2.574561e+02  -1.283397e+02
  -5.939889e+01  -2.470631e+02
   1.776069e+02  -2.494152e+02
   2.650069e+02  -1.211809e+02
   1.492363e+02   4.732874e+01
  -2.626839e+01   9.697660e+01
  -7.864154e+01   5.307168e+00
   3.849987e+01  -9.315953e+01
   1.846807e+02  -5.450422e+01
   1.990337e+02   9.253634e+01
   6.768888e+01   1.919070e+02
  -8.212901e+01   1.470142e+02
  -1.286447e+02   2.986343e+01
  -6.097594e+01  -3.580762e+01
   3.187877e+01   9.773332e-01
   3.860376e+01   8.502479e+01
  -7.130587e+01   1.162064e+02
  -1.856300e+02   3.344930e+01
  -1.863626e+02  -1.080805e+02
  -3.063130e+01  -1.996068e+02
   1.411871e+02  -1.560771e+02
   1.764424e+02  -1.444139e+01
   6.380356e+01   1.004782e+02
  -5.956427e+01   1.015254e+02
  -7.661299e+01   3.164361e+01
  -1.603938e+01  -2.252909e+01
   2.446811e+01  -1.432463e+01
  -8.338962e+00   1.187871e+01
  -6.949242e+01  -3.703876e+00
  -9.121607e+01  -7.538127e+01
  -2.167421e+01  -1.517232e+02
   1.124717e+02  -1.489508e+02
   2.213152e+02  -3.121549e+01
   1.950998e+02   1.314060e+02
   5.194684e+01   2.197701e+02
  -9.166935e+01   1.641050e+02
  -1.252539e+02   3.369560e+01
  -6.975123e+01  -4.814760e+01
  -2.848146e+01  -3.151466e+01
  -4.940817e+01   1.482976e+01
  -7.243511e+01   1.330240e+01
  -4.462257e+01  -4.232517e+01
   3.433012e+01  -8.553965e+01
   9.595436e+01  -6.250923e+01
   8.850597e+01   2.756420e+01
  -3.469383e+00   1.091189e+02
  -1.285621e+02   9.359398e+01
  -1.840797e+02  -3.746185e+01
  -9.620303e+01  -1.840892e+02
   8.912208e+01  -2.129257e+02
   2.393975e+02  -9.239609e+01
   2.358185e+02   6.906610e+01
   1.087573e+02   1.546208e+02
  -2.955631e+01   1.368256e+02
  -8.766745e+01   8.332921e+01
  -7.202052e+01   6.644586e+01
  -5.184072e+01   8.531288e+01
  -7.517691e+01   7.339318e+01
  -1.179955e+02  -1.173146e+01
  -1.167277e+02  -1.372666e+02
  -3.668084e+01  -2.107978e+02
   8.534789e+01  -1.668840e+02
   1.620039e+02  -2.647147e+01
   1.290046e+02   1.096810e+02
   2.372901e+01   1.455016e+02
  -6.028937e+01   8.683396e+01
  -5.836718e+01  -1.760278e+00
  -6.236259e+00  -4.232944e+01
   1.199696e+01  -3.586589e+01
  -2.928141e+01  -1.599515e+01
  -7.223099e+01  -1.765488e+01
  -4.246157e+01  -2.931311e+01
   5.829321e+01  -3.127697e+01
   1.502688e+02  -4.927217e+00
   1.364233e+02   4.306134e+01
   1.453862e+01   8.556081e+01
  -1.105857e+02   7.998681e+01
  -1.332539e+02   1.714954e+01
  -4.649167e+01  -4.004703e+01
   5.189485e+01  -3.988213e+01
   7.019079e+01   1.554955e+01
   1.180576e+01   6.611269e+01
  -4.618021e+01   5.828362e+01
  -5.950072e+01   3.678691e+00
  -4.945231e+01  -4.473388e+01
  -4.463261e+01  -4.031754e+01
  -5.509388e+01  -2.479824e+00
  -5.839271e+01   3.689712e+00
  -3.668992e+01  -6.030852e+01
   1.589568e+01  -1.359405e+02
   9.723462e+01  -1.383593e+02
   1.549307e+02  -4.209303e+01
   1.256280e+02   7.319618e+01
   1.575186e+01   1.191668e+02
  -8.026215e+01   6.385236e+01
  -5.858725e+01  -1.047313e+01
   5.510541e+01  -2.516539e+01
   1.327903e+02   3.329041e+01
   7.743702e+01   9.881145e+01
  -6.965357e+01   1.082125e+02
  -1.769863e+02   5.224753e+01
  -1.540031e+02  -2.936308e+01
  -3.797824e+01  -8.288105e+01
   5.676993e+01  -6.706472e+01
   4.738202e+01  -7.524219e+00
  -3.566224e+01   2.920318e+01
  -8.574688e+01  -1.464746e+01
  -3.946921e+01  -1.063852e+02
   7.297868e+01  -1.508632e+02
   1.507348e+02  -7.035227e+01
   1.257701e+02   8.454515e+01
   2.321191e+01   1.846081e+02
  -7.342715e+01   1.387839e+02
  -9.876305e+01  -5.054684e+00
  -5.594356e+01  -1.136532e+02
   6.254086e+00  -1.017723e+02
   4.586525e+01  -1.851518e+01
   4.994641e+01   2.927434e+01
   2.345993e+01   8.234163e+00
   3.010890e+00  -1.709417e+01
   1.857817e+01   1.601447e+01
   5.273498e+01   7.974707e+01
   4.053045e+01   9.697937e+01
  -4.429825e+01   3.993147e+01
  -1.298666e+02  -3.433675e+01
  -1.213316e+02  -6.128068e+01
  -1.925789e+01  -4.466520e+01
   7.895359e+01  -2.293917e+01
   8.176054e+01  -1.164311e+01
   1.227946e+01   6.171254e+00
  -3.383843e+01   2.096672e+01
  -1.399977e+01   1.568129e+01
   1.780102e+01  -3.724091e+00
  -3.958218e+00  -9.657605e+00
  -6.644724e+01  -2.570558e+00
  -8.872318e+01  -1.979920e+01
  -1.623031e+01  -7.495100e+01
   1.060374e+02  -1.140039e+02
   1.814035e+02  -6.628166e+01
   1.473926e+02   5.480758e+01
   3.441742e+01   1.523540e+02
  -7.276352e+01   1.504803e+02
  -1.102572e+02   6.341486e+01
  -7.431892e+01  -1.766901e+01
  -2.453364e+01  -3.387545e+01
   1.750312e-01  -9.859984e+00
  -1.196993e+01  -4.223469e+00
  -3.236099e+01  -4.175365e+01
  -2.213031e+01  -8.458434e+01
   2.519079e+01  -7.027140e+01
   7.561288e+01   1.398425e+01
   7.645148e+01   9.902828e+01
   1.201424e+01   1.050570e+02
  -7.221596e+01   2.644431e+01
  -9.698487e+01  -6.282013e+01
  -3.557935e+01  -9.138633e+01
   5.832598e+01  -5.339328e+01
   9.190583e+01   7.342954e+00
   3.952084e+01   4.760741e+01
  -2.926460e+01   5.251566e+01
  -3.077934e+01   3.004780e+01
   2.552713e+01  -1.805429e+00
   6.001356e+01  -1.015496e+01
   1.461868e+01   2.118104e+01
  -7.154301e+01   6.183120e+01
  -1.070103e+02   5.514988e+01
  -5.956919e+01  -9.760527e+00
   1.346737e+01  -7.790043e+01
   4.674440e+01  -7.600726e+01
   3.394033e+01  -1.064901e+01
   4.973592e+00   4.985945e+01
  -1.944529e+01   4.322955e+01
  -3.224732e+01  -1.259758e+01
  -2.806921e+01  -4.839570e+01
  -1.630450e+00  -3.157262e+01
   3.019946e+01   6.509694e+00
   3.998817e+01   1.889629e+01
   2.091005e+01   7.718478e-02
  -1.866287e+00  -1.573701e+01
  -8.203010e+00  -1.186608e-01
  -3.576674e+00   3.484190e+01
  -7.141605e+00   4.534557e+01
  -2.559193e+01   1.197566e+01
  -3.202152e+01  -3.853266e+01
  -5.312184e+00  -5.573947e+01
   3.887517e+01  -1.999184e+01
   5.437291e+01   3.376529e+01
   1.622585e+01   5.654172e+01
  -5.091235e+01   3.281621e+01
  -8.282109e+01  -1.109002e+01
  -4.700007e+01  -3.741130e+01
   2.456969e+01  -3.796568e+01
   5.813456e+01  -2.373691e+01
   2.242631e+01  -9.025916e+00
  -3.350696e+01  -1.423326e+00
  -3.422967e+01  -1.106494e+01
   2.584478e+01  -2.725091e+01
   8.118707e+01  -2.123211e+01
