
 $NMID
 id='ANONYMOUS ', fmtdat='(2E16.6)'
 volume=1.0
 tramp=1.0
 $END
  -4.438340e+03  -1.851666e+02
  -2.588310e+03  -2.811820e+03
   8.532621e+02  -2.827799e+03
   2.217744e+03  -8.460687e+02
   9.111696e+02   7.297220e+02
  -7.782016e+02   5.799609e+02
  -9.202044e+02  -5.116190e+02
   4.713197e+01  -1.123588e+03
   8.731953e+02  -7.885438e+02
   9.416791e+02   1.216619e+02
   4.460422e+02   9.065314e+02
  -2.559771e+02   9.158695e+02
  -6.750438e+02   1.157689e+02
  -4.075332e+02  -7.374738e+02
   2.706282e+02  -7.615709e+02
   6.238032e+02   1.354307e+01
   2.669977e+02   6.910464e+02
  -3.378113e+02   6.214357e+02
  -5.727594e+02   6.957601e+01
  -3.622993e+02  -3.544504e+02
  -6.014891e+00  -4.289968e+02
   2.401363e+02  -2.640895e+02
   2.204401e+02  -2.764807e+01
  -1.046440e+02   1.075830e+02
  -4.101279e+02  -7.754969e+01
  -2.410419e+02  -4.250171e+02
   4.156714e+02  -4.661083e+02
   8.521921e+02   2.244422e+01
   4.679415e+02   5.375648e+02
  -3.851762e+02   5.192161e+02
  -7.771395e+02  -2.124549e+01
  -3.720210e+02  -4.993987e+02
   2.907118e+02  -5.496307e+02
   6.004950e+02  -2.114468e+02
   4.378265e+02   2.398930e+02
   7.390421e+01   4.943439e+02
  -2.136481e+02   2.950236e+02
  -1.904555e+02  -2.262944e+02
   1.725451e+02  -4.712944e+02
   4.913190e+02  -2.514148e+00
   2.824391e+02   6.926307e+02
  -3.142750e+02   7.385915e+02
  -6.437112e+02   1.853073e+01
  -2.776694e+02  -5.812121e+02
   3.283321e+02  -3.543707e+02
   4.321158e+02   3.373567e+02
  -6.950109e+01   5.807077e+02
  -5.789019e+02   1.698441e+02
  -6.094331e+02  -4.049131e+02
  -1.658022e+02  -5.965590e+02
   3.872719e+02  -3.550917e+02
   6.305157e+02   8.020117e+01
   3.655879e+02   3.965439e+02
  -1.646992e+02   3.796982e+02
  -4.707063e+02   5.320176e+01
  -2.534255e+02  -2.107928e+02
   1.305045e+02  -1.237398e+02
   1.580881e+02   1.584169e+02
  -1.678518e+02   1.996626e+02
  -3.579154e+02  -7.234407e+01
  -1.371395e+02  -3.095934e+02
   2.099431e+02  -2.623460e+02
   3.087888e+02  -7.536865e+01
   1.751849e+02   7.001899e+01
  -1.845624e+01   1.967851e+02
  -1.820478e+02   3.039239e+02
  -3.013054e+02   2.203037e+02
  -2.920386e+02  -1.299555e+02
  -9.045043e+01  -4.414361e+02
   1.305829e+02  -3.753907e+02
   1.467309e+02  -8.462569e+01
   2.509414e+01   3.858067e+01
   1.326757e+01  -7.328951e+01
   1.634665e+02  -1.347908e+02
   2.765318e+02   3.261504e+01
   1.769289e+02   2.576293e+02
  -5.200462e+01   2.611947e+02
  -2.155796e+02   3.134431e+01
  -2.017300e+02  -2.179317e+02
  -5.265415e+00  -2.844596e+02
   2.561625e+02  -1.292098e+02
   3.650040e+02   1.554764e+02
   1.903299e+02   3.527578e+02
  -1.066413e+02   3.078634e+02
  -2.450937e+02   1.123396e+02
  -1.515285e+02  -1.760866e+01
  -7.436055e+01   2.237156e+01
  -2.035612e+02   6.899418e+01
  -3.838922e+02  -4.107185e+01
  -3.325751e+02  -2.685355e+02
  -1.248404e+01  -4.277595e+02
   3.426746e+02  -3.995839e+02
   4.772716e+02  -1.987486e+02
   3.385353e+02   8.495437e+01
   6.442826e+01   2.957867e+02
  -1.303137e+02   2.625120e+02
  -1.014753e+02   3.066725e+01
   8.340291e+01  -1.236076e+02
   1.983419e+02  -8.654956e+00
   6.380682e+01   2.004641e+02
  -1.610060e+02   1.818587e+02
  -1.923434e+02  -6.012812e+01
   1.033627e+01  -2.049548e+02
   1.943154e+02  -4.110016e+01
   1.621975e+02   2.384009e+02
  -2.999446e+01   3.351336e+02
  -2.104502e+02   1.828025e+02
  -2.921614e+02  -5.421279e+01
  -2.588843e+02  -2.080820e+02
  -1.026086e+02  -2.337148e+02
   8.917200e+01  -1.550284e+02
   1.639754e+02  -3.223825e+01
   5.883359e+01   2.772567e+01
  -7.147495e+01  -3.185508e+01
  -4.120097e+01  -1.129612e+02
   1.074971e+02  -9.719951e+01
   1.747194e+02   4.257697e+00
   6.609346e+01   6.785789e+01
  -7.213761e+01   1.934486e+01
  -5.949396e+01  -6.182844e+01
   1.017988e+02  -8.265894e+01
   2.523151e+02  -1.365685e+01
   2.520916e+02   1.099009e+02
   7.248309e+01   2.347023e+02
  -1.596046e+02   2.626897e+02
  -2.644205e+02   1.394189e+02
  -1.666985e+02  -4.803804e+01
   1.670838e+01  -1.131623e+02
   9.012530e+01  -1.006055e+01
  -2.814471e+01   1.082422e+02
  -1.900774e+02   6.925912e+01
  -2.130741e+02  -9.498905e+01
  -7.413147e+01  -2.069771e+02
   8.648724e+01  -1.607947e+02
   1.388794e+02  -3.581302e+01
   7.268100e+01   3.805682e+01
  -2.144134e+01   9.990107e+00
  -3.790992e+01  -6.802550e+01
   6.246709e+01  -1.072552e+02
   1.768527e+02  -3.975591e+01
   1.865327e+02   1.009158e+02
   3.242556e+01   2.035597e+02
  -1.463147e+02   1.644092e+02
  -1.854877e+02   1.276806e+01
  -6.815185e+01  -1.103446e+02
   6.238535e+01  -1.095546e+02
   8.206461e+01  -3.106373e+01
   2.526687e+01   2.466279e+01
  -1.599488e+01   2.270077e+01
   8.818158e+00   6.412358e-01
   5.690700e+01   1.144961e+01
   7.508201e+01   6.822685e+01
   1.693467e+01   1.376178e+02
  -1.060531e+02   1.398961e+02
  -2.148027e+02   3.660330e+01
  -1.889807e+02  -1.307282e+02
  -4.335651e+01  -2.194881e+02
   9.854284e+01  -1.617034e+02
   1.265345e+02  -2.860590e+01
   6.732001e+01   5.465292e+01
   2.556750e+01   3.815965e+01
   4.621412e+01  -8.166890e+00
   6.643460e+01  -7.506391e+00
   3.407526e+01   3.953276e+01
  -3.784324e+01   7.515982e+01
  -8.486437e+01   4.760605e+01
  -7.278677e+01  -2.943717e+01
   8.148877e+00  -9.615974e+01
   1.191245e+02  -7.933440e+01
   1.760012e+02   3.724180e+01
   9.978908e+01   1.754327e+02
  -7.729429e+01   2.109087e+02
  -2.347491e+02   1.017888e+02
  -2.429733e+02  -6.560098e+01
  -1.119547e+02  -1.614630e+02
   3.039097e+01  -1.440211e+02
   9.307299e+01  -8.368539e+01
   7.991147e+01  -5.958229e+01
   6.179095e+01  -7.674760e+01
   7.912068e+01  -6.465822e+01
   1.132208e+02   1.623296e+01
   1.078296e+02   1.360599e+02
   3.284952e+01   2.058463e+02
  -8.374114e+01   1.653919e+02
  -1.606558e+02   2.834882e+01
  -1.310308e+02  -1.061193e+02
  -3.022126e+01  -1.468729e+02
   5.521974e+01  -9.231758e+01
   5.677935e+01  -4.804056e+00
   8.902135e+00   3.597884e+01
  -4.797693e+00   3.216241e+01
   3.499290e+01   1.792484e+01
   7.137483e+01   2.233625e+01
   4.007045e+01   3.205804e+01
  -5.488635e+01   3.243338e+01
  -1.453000e+02   3.505722e+00
  -1.345462e+02  -4.082054e+01
  -1.972575e+01  -8.054390e+01
   1.054139e+02  -7.715552e+01
   1.299464e+02  -1.890601e+01
   4.426766e+01   3.397855e+01
  -5.269262e+01   3.467614e+01
  -6.673136e+01  -1.720354e+01
  -3.205103e+00  -6.527150e+01
   5.333412e+01  -5.452478e+01
   5.710656e+01   3.320083e+00
   4.080181e+01   4.929395e+01
   4.021851e+01   4.010275e+01
   5.990632e+01   1.929378e+00
   5.969270e+01  -1.556473e+00
   3.032264e+01   6.100237e+01
  -2.770691e+01   1.322874e+02
  -9.893994e+01   1.312295e+02
  -1.473227e+02   3.676983e+01
  -1.150281e+02  -7.348881e+01
  -1.289223e+01  -1.123343e+02
   7.278948e+01  -5.624452e+01
   5.169173e+01   1.434412e+01
  -5.701836e+01   1.876019e+01
  -1.292017e+02  -4.286526e+01
  -7.341906e+01  -1.032279e+02
   7.213670e+01  -1.073365e+02
   1.802907e+02  -4.703707e+01
   1.575111e+02   3.242070e+01
   4.108062e+01   8.431483e+01
  -5.538113e+01   7.122396e+01
  -4.614443e+01   1.297129e+01
   3.408514e+01  -2.440449e+01
   8.042428e+01   1.939591e+01
   2.848065e+01   1.087906e+02
  -8.532024e+01   1.451297e+02
  -1.557413e+02   5.919995e+01
  -1.200485e+02  -9.244597e+01
  -1.459378e+01  -1.846179e+02
   7.394895e+01  -1.378155e+02
   9.352222e+01   1.659463e+00
   5.934937e+01   1.076518e+02
   1.440305e+00   9.893020e+01
  -4.116761e+01   1.889509e+01
  -5.097192e+01  -2.931022e+01
  -2.622089e+01  -9.261157e+00
  -6.096945e-01   1.782966e+01
  -1.284483e+01  -1.374098e+01
  -5.013810e+01  -7.970422e+01
  -4.314829e+01  -9.844254e+01
   4.032042e+01  -3.748064e+01
   1.297413e+02   3.925719e+01
   1.209997e+02   6.437261e+01
   1.602770e+01   4.454641e+01
  -8.267488e+01   1.844179e+01
  -8.089472e+01   8.486702e+00
  -8.463649e+00  -4.544606e+00
   3.637886e+01  -1.980802e+01
   1.207275e+01  -1.617263e+01
  -1.992922e+01   1.274133e+00
   6.654313e+00   1.107906e+01
   6.904310e+01   7.449731e+00
   8.624511e+01   2.496143e+01
   6.523335e+00   7.447588e+01
  -1.120567e+02   1.052799e+02
  -1.771409e+02   5.532207e+01
  -1.383949e+02  -6.304807e+01
  -2.742421e+01  -1.515628e+02
   7.340879e+01  -1.438087e+02
   1.078306e+02  -5.975520e+01
   7.317824e+01   1.989276e+01
   2.310505e+01   3.404023e+01
  -2.133439e+00   8.186836e+00
   1.020393e+01   1.551183e+00
   3.119426e+01   4.102148e+01
   2.145367e+01   8.421800e+01
  -2.729022e+01   6.775864e+01
  -7.520006e+01  -1.902988e+01
  -7.053381e+01  -1.033924e+02
  -2.479400e+00  -1.032617e+02
   7.684884e+01  -1.852805e+01
   9.467008e+01   6.981545e+01
   2.956427e+01   9.205318e+01
  -6.072455e+01   4.835877e+01
  -8.898189e+01  -9.763668e+00
  -3.726680e+01  -4.409558e+01
   2.756620e+01  -4.529438e+01
   2.603517e+01  -2.710268e+01
  -3.001991e+01  -1.117888e+00
  -6.108657e+01   6.463704e+00
  -1.114598e+01  -2.121665e+01
   7.389259e+01  -5.759985e+01
   1.039316e+02  -5.182016e+01
   5.429926e+01   7.910634e+00
  -1.637616e+01   7.369978e+01
  -4.630535e+01   7.087235e+01
  -3.060871e+01   6.682521e+00
  -2.034634e-01  -5.071833e+01
   2.386170e+01  -3.933225e+01
   3.339622e+01   1.763770e+01
   2.406517e+01   5.008997e+01
  -2.253430e+00   2.875211e+01
  -2.928194e+01  -8.953446e+00
  -3.683713e+01  -1.852655e+01
  -1.970492e+01   1.163807e+00
  -4.686726e-01   1.357607e+01
   7.629094e+00  -3.370974e+00
   9.380818e+00  -3.562327e+01
   1.664847e+01  -4.185225e+01
   2.840500e+01  -3.544215e+00
   2.407679e+01   4.496674e+01
  -6.174742e+00   5.677885e+01
  -4.311881e+01   1.498241e+01
  -5.057450e+01  -3.954644e+01
  -1.069098e+01  -5.924312e+01
   5.023905e+01  -3.119952e+01
   7.897966e+01   1.458562e+01
   4.385868e+01   3.962311e+01
  -2.774289e+01   3.549165e+01
  -5.939449e+01   1.837540e+01
  -1.946918e+01   6.265859e+00
   3.818334e+01   5.362474e+00
   3.547689e+01   1.818209e+01
  -3.091089e+01   3.014663e+01
  -8.854826e+01   1.680648e+01
