
 $NMID
 id='ANONYMOUS ', fmtdat='(2E16.6)'
 volume=1.0
 tramp=1.0
 $END
   3.622175e+03  -3.512426e+01
   2.449087e+03   1.973726e+03
  -3.236845e+02   2.310607e+03
  -1.552713e+03   1.116575e+03
  -9.311506e+02  -1.180550e+02
   2.148299e+02  -2.649166e+02
   4.865748e+02   2.903027e+02
  -1.826726e+01   6.765081e+02
  -5.438187e+02   5.830668e+02
  -7.013299e+02  -2.214652e+01
  -4.084796e+02  -6.171027e+02
   5.690967e+01  -6.947306e+02
   3.970476e+02  -1.279737e+02
   2.802600e+02   5.288155e+02
  -1.881824e+02   5.888051e+02
  -4.763931e+02   2.838315e+01
  -2.900607e+02  -5.696407e+02
   1.910845e+02  -6.326878e+02
   5.007350e+02  -2.254998e+02
   4.339358e+02   2.354954e+02
   1.042353e+02   3.953637e+02
  -1.614762e+02   2.760325e+02
  -1.266762e+02   7.404765e+01
   1.589471e+02   4.262087e+01
   3.111752e+02   2.322916e+02
   3.153571e+01   3.823667e+02
  -4.842176e+02   2.210088e+02
  -6.605309e+02  -1.613996e+02
  -2.529221e+02  -4.179645e+02
   3.783598e+02  -2.703479e+02
   5.948309e+02   1.199235e+02
   2.233179e+02   4.152205e+02
  -2.896726e+02   4.055296e+02
  -4.987785e+02   1.356909e+02
  -3.462853e+02  -1.930329e+02
  -7.968874e+01  -3.602466e+02
   6.822400e+01  -2.075263e+02
   1.221268e+01   1.280458e+02
  -1.717358e+02   2.289564e+02
  -2.587560e+02  -1.173437e+02
  -7.489041e+01  -5.479721e+02
   2.780902e+02  -5.101287e+02
   4.098575e+02   1.181662e+01
   1.456983e+02   3.934874e+02
  -2.247878e+02   1.911750e+02
  -2.488188e+02  -2.953009e+02
   1.228253e+02  -4.472294e+02
   5.129107e+02  -8.998936e+01
   5.265613e+02   3.916869e+02
   1.429198e+02   5.321115e+02
  -3.381250e+02   2.933453e+02
  -5.503258e+02  -6.531275e+01
  -3.444478e+02  -2.837334e+02
   7.995493e+01  -2.672717e+02
   3.333151e+02  -7.134145e+01
   2.309337e+02   9.748960e+01
  -3.660725e+01   5.737866e+01
  -8.541601e+01  -8.795608e+01
   1.230058e+02  -1.135710e+02
   2.730841e+02   6.531289e+01
   1.229671e+02   2.480762e+02
  -1.964108e+02   2.605111e+02
  -3.643299e+02   1.028518e+02
  -2.431644e+02  -1.198471e+02
   2.895201e+01  -3.082703e+02
   2.621436e+02  -3.599398e+02
   3.450429e+02  -1.797310e+02
   2.514785e+02   1.530710e+02
   5.724403e+01   3.866899e+02
  -5.649554e+01   3.379503e+02
  -5.399001e+01   1.535060e+02
  -3.865868e+01   7.679476e+01
  -1.193409e+02   1.094619e+02
  -2.385857e+02   7.216333e+01
  -2.587146e+02  -1.145837e+02
  -1.107113e+02  -2.729987e+02
   9.482728e+01  -2.129671e+02
   2.074586e+02   3.149360e+01
   1.554999e+02   2.463051e+02
  -4.432077e+01   2.596554e+02
  -2.586642e+02   6.467124e+01
  -3.186856e+02  -1.906409e+02
  -1.586525e+02  -3.246986e+02
   7.056517e+01  -2.745496e+02
   1.806102e+02  -1.360058e+02
   1.419956e+02  -6.036807e+01
   1.395282e+02  -7.245701e+01
   2.826995e+02  -5.990185e+01
   4.243450e+02   8.489771e+01
   3.265014e+02   3.125279e+02
  -2.658518e+01   4.552496e+02
  -3.817666e+02   4.051126e+02
  -4.751007e+02   1.594205e+02
  -2.909451e+02  -1.062233e+02
  -2.529335e+01  -2.631676e+02
   1.021451e+02  -2.059643e+02
   2.342910e+01  -2.969095e+01
  -1.155958e+02   5.065717e+01
  -1.422299e+02  -3.915659e+01
  -9.808884e+00  -1.563018e+02
   1.424630e+02  -1.109673e+02
   1.249712e+02   6.689875e+01
  -3.920012e+01   1.469814e+02
  -1.802039e+02  -6.736220e+00
  -1.489870e+02  -2.516731e+02
   3.294049e+01  -3.426737e+02
   2.397092e+02  -1.872753e+02
   3.435444e+02   7.133641e+01
   2.719003e+02   2.476231e+02
   6.705403e+01   2.595948e+02
  -1.123178e+02   1.401220e+02
  -1.436406e+02   1.716640e+01
  -3.441792e+01  -3.193423e+00
   4.882350e+01   6.643303e+01
  -6.144546e+00   1.170512e+02
  -1.285440e+02   6.540521e+01
  -1.502082e+02  -2.776919e+01
  -3.289604e+01  -5.869385e+01
   7.984322e+01   1.286432e+01
   3.239754e+01   9.061595e+01
  -1.524246e+02   8.518330e+01
  -2.997698e+02  -2.125616e+01
  -2.549838e+02  -1.785217e+02
  -2.033856e+01  -2.697152e+02
   2.129485e+02  -2.393891e+02
   2.690638e+02  -9.776303e+01
   1.345559e+02   5.226322e+01
  -3.136751e+01   8.200999e+01
  -6.582350e+01  -8.911138e+00
   5.456786e+01  -8.830934e+01
   1.913260e+02  -3.699496e+01
   1.929619e+02   1.080269e+02
   5.214399e+01   1.908643e+02
  -9.035430e+01   1.357886e+02
  -1.229978e+02   1.863227e+01
  -4.333268e+01  -3.162433e+01
   3.968457e+01   2.707636e+01
   1.939867e+01   1.110857e+02
  -1.058380e+02   1.216589e+02
  -2.145617e+02   2.157413e+00
  -1.789467e+02  -1.459897e+02
   1.022104e+00  -2.174747e+02
   1.708460e+02  -1.496299e+02
   1.804208e+02  -1.097766e+00
   5.295168e+01   1.044069e+02
  -6.674747e+01   9.752869e+01
  -7.273468e+01   2.237424e+01
  -2.127637e+00  -2.449367e+01
   3.388164e+01  -7.562102e+00
  -1.302692e+01   2.284479e+01
  -8.985023e+01  -3.253214e+00
  -1.017397e+02  -9.542024e+01
  -2.992715e+00  -1.756268e+02
   1.491578e+02  -1.517750e+02
   2.382321e+02  -3.233189e+00
   1.888696e+02   1.655287e+02
   2.804002e+01   2.305901e+02
  -1.098352e+02   1.573053e+02
  -1.282469e+02   2.374550e+01
  -6.614400e+01  -4.693159e+01
  -3.078335e+01  -2.639905e+01
  -6.023674e+01   1.806294e+01
  -9.019444e+01   5.767841e+00
  -5.196096e+01  -6.243017e+01
   4.304387e+01  -1.074425e+02
   1.220844e+02  -6.344850e+01
   1.018538e+02   5.065941e+01
  -2.377544e+01   1.310830e+02
  -1.673186e+02   8.734306e+01
  -2.058723e+02  -6.676994e+01
  -8.427334e+01  -2.194007e+02
   1.291349e+02  -2.275592e+02
   2.712506e+02  -8.516323e+01
   2.445521e+02   9.414515e+01
   9.239244e+01   1.744159e+02
  -4.274057e+01   1.391460e+02
  -8.603193e+01   7.848778e+01
  -6.424398e+01   6.601028e+01
  -5.559272e+01   9.553412e+01
  -9.464083e+01   7.886363e+01
  -1.380812e+02  -2.019660e+01
  -1.236347e+02  -1.625523e+02
  -2.100550e+01  -2.324124e+02
   1.070818e+02  -1.669873e+02
   1.748970e+02  -5.346192e+00
   1.265110e+02   1.331743e+02
   7.434826e+00   1.586828e+02
  -7.475459e+01   7.987304e+01
  -6.079947e+01  -1.632224e+01
   4.663759e+00  -5.302433e+01
   2.366635e+01  -3.381327e+01
  -2.980401e+01  -1.051146e+01
  -8.174830e+01  -2.120258e+01
  -4.415430e+01  -3.881468e+01
   7.591656e+01  -3.646414e+01
   1.726468e+02   6.287036e+00
   1.378375e+02   6.695576e+01
  -8.193251e+00   9.912577e+01
  -1.417658e+02   7.259998e+01
  -1.482071e+02   4.497055e+00
  -4.029737e+01  -4.935963e+01
   6.474378e+01  -4.138927e+01
   7.560829e+01   2.002981e+01
   8.998915e+00   7.381066e+01
  -5.438744e+01   6.289002e+01
  -6.977412e+01  -3.252425e+00
  -5.355255e+01  -5.572875e+01
  -4.337062e+01  -4.739851e+01
  -5.858598e+01  -1.805239e+00
  -6.831784e+01  -1.622464e+00
  -4.193739e+01  -7.734677e+01
   3.470941e+01  -1.632946e+02
   1.332463e+02  -1.493466e+02
   1.817867e+02  -2.725094e+01
   1.240754e+02   1.029913e+02
  -2.433332e+00   1.353090e+02
  -9.379381e+01   6.128664e+01
  -5.615983e+01  -1.690457e+01
   6.538316e+01  -1.981150e+01
   1.382539e+02   4.940446e+01
   6.914757e+01   1.155601e+02
  -8.789744e+01   1.149784e+02
  -1.925265e+02   4.763160e+01
  -1.583100e+02  -4.181178e+01
  -3.063686e+01  -8.486788e+01
   6.425626e+01  -6.372861e+01
   4.545528e+01   8.047289e-02
  -4.408781e+01   2.931960e+01
  -9.316536e+01  -2.409914e+01
  -3.933143e+01  -1.197375e+02
   8.277159e+01  -1.580454e+02
   1.582581e+02  -6.891008e+01
   1.242231e+02   9.658252e+01
   1.702207e+01   1.942637e+02
  -7.846750e+01   1.382435e+02
  -9.875225e+01  -1.517665e+01
  -5.127138e+01  -1.221579e+02
   1.502913e+01  -1.016756e+02
   5.144396e+01  -1.043385e+01
   4.586170e+01   3.344581e+01
   2.010948e+01   6.786979e+00
   5.493583e+00  -1.888794e+01
   2.869600e+01   2.028365e+01
   5.768273e+01   9.229404e+01
   3.228636e+01   1.055701e+02
  -5.549784e+01   3.862401e+01
  -1.360119e+02  -4.058402e+01
  -1.216517e+02  -7.162108e+01
  -1.482748e+01  -5.200636e+01
   8.206137e+01  -2.434015e+01
   8.642509e+01  -3.614609e+00
   1.328145e+01   1.065415e+01
  -3.355916e+01   2.150798e+01
  -1.662547e+01   1.333958e+01
   1.574682e+01  -3.980334e+00
  -5.716397e+00  -6.507774e+00
  -6.921877e+01  -1.472133e+00
  -9.354514e+01  -2.482282e+01
  -1.628096e+01  -8.208113e+01
   1.127286e+02  -1.180678e+02
   1.874118e+02  -6.475824e+01
   1.511858e+02   6.442748e+01
   2.827708e+01   1.623804e+02
  -8.246221e+01   1.542265e+02
  -1.176543e+02   6.279449e+01
  -8.048032e+01  -2.221892e+01
  -2.446820e+01  -3.868220e+01
  -6.599881e-01  -1.165064e+01
  -1.336211e+01  -5.665144e+00
  -3.150502e+01  -4.930686e+01
  -1.828812e+01  -9.286522e+01
   3.224140e+01  -7.241623e+01
   8.201590e+01   1.823508e+01
   8.029829e+01   1.084045e+02
   8.944532e+00   1.124830e+02
  -8.032900e+01   2.862793e+01
  -1.072490e+02  -6.945753e+01
  -3.595422e+01  -1.034559e+02
   6.827679e+01  -6.017423e+01
   1.038287e+02   1.117199e+01
   4.269653e+01   5.688839e+01
  -3.661196e+01   5.883025e+01
  -3.965600e+01   2.548657e+01
   2.773909e+01  -7.136785e+00
   6.885257e+01  -8.997515e+00
   1.574566e+01   2.876520e+01
  -8.363869e+01   6.523590e+01
  -1.248097e+02   4.609604e+01
  -6.782247e+01  -2.311190e+01
   2.018063e+01  -8.791020e+01
   6.236694e+01  -8.136826e+01
   4.732392e+01  -7.656818e+00
   6.202292e+00   5.500493e+01
  -2.626347e+01   4.793274e+01
  -3.878785e+01  -1.229302e+01
  -2.776972e+01  -5.377966e+01
   3.052033e+00  -3.753115e+01
   3.401634e+01   8.600426e+00
   3.855904e+01   2.750830e+01
   1.669010e+01   3.117713e+00
  -4.624516e+00  -2.170677e+01
  -5.438553e+00  -8.551709e+00
   2.160859e+00   3.378455e+01
  -4.938586e+00   5.400968e+01
  -2.985691e+01   2.020971e+01
  -3.976646e+01  -3.812635e+01
  -7.870110e+00  -6.199889e+01
   4.272865e+01  -2.479861e+01
   6.050675e+01   3.549009e+01
   1.715098e+01   6.116396e+01
  -5.675979e+01   3.528020e+01
  -9.234431e+01  -1.360324e+01
  -5.047888e+01  -4.337533e+01
   3.033675e+01  -4.317335e+01
   6.670143e+01  -2.701395e+01
   2.759662e+01  -6.936714e+00
  -3.167360e+01   1.845957e+00
  -3.528301e+01  -1.012358e+01
   2.662716e+01  -2.833574e+01
   8.438288e+01  -2.160958e+01
