
 $NMID
 id='ANONYMOUS ', fmtdat='(2E16.6)'
 volume=1.0
 tramp=1.0
 $END
  -4.168912e+03  -2.305942e+02
  -2.610593e+03  -2.721525e+03
   8.696918e+02  -2.622172e+03
   2.174458e+03  -7.265819e+02
   8.841909e+02   7.267862e+02
  -7.036754e+02   5.472355e+02
  -8.996241e+02  -4.901261e+02
   4.443540e+01  -1.066171e+03
   8.672776e+02  -7.540838e+02
   9.658146e+02   1.500630e+02
   4.168374e+02   8.905372e+02
  -2.975415e+02   8.945104e+02
  -6.653393e+02   8.009063e+01
  -3.612536e+02  -7.235921e+02
   2.912398e+02  -7.357544e+02
   6.068585e+02   2.433649e+01
   2.468449e+02   6.857174e+02
  -3.369078e+02   6.297397e+02
  -5.781595e+02   7.854606e+01
  -3.684126e+02  -3.705957e+02
   1.910678e+00  -4.359925e+02
   2.568181e+02  -2.376936e+02
   2.228279e+02  -8.054017e-01
  -1.148657e+02   8.293112e+01
  -4.152006e+02  -1.324078e+02
  -1.923418e+02  -4.484821e+02
   4.754380e+02  -4.112050e+02
   8.473441e+02   8.443865e+01
   4.196071e+02   5.421858e+02
  -4.012791e+02   4.646245e+02
  -7.461310e+02  -5.127025e+01
  -3.218630e+02  -4.860715e+02
   3.038427e+02  -5.089035e+02
   5.809701e+02  -1.790028e+02
   4.024957e+02   2.517218e+02
   4.568746e+01   4.756158e+02
  -2.142180e+02   2.726531e+02
  -1.572193e+02  -2.284910e+02
   1.881411e+02  -4.317940e+02
   4.423191e+02   3.356520e+01
   2.160603e+02   6.775094e+02
  -3.359152e+02   6.784565e+02
  -5.962564e+02  -1.932292e+01
  -2.233719e+02  -5.614278e+02
   3.101614e+02  -3.069425e+02
   3.854404e+02   3.354423e+02
  -8.976168e+01   5.417202e+02
  -5.565963e+02   1.232094e+02
  -5.661025e+02  -4.273998e+02
  -1.258897e+02  -5.998654e+02
   4.032724e+02  -3.315215e+02
   6.173823e+02   1.166583e+02
   3.537731e+02   4.060616e+02
  -1.694006e+02   3.598544e+02
  -4.436360e+02   3.457593e+01
  -2.331096e+02  -2.044054e+02
   1.258487e+02  -1.078350e+02
   1.426785e+02   1.507544e+02
  -1.631379e+02   1.861258e+02
  -3.355563e+02  -7.163095e+01
  -1.260506e+02  -2.980083e+02
   2.177818e+02  -2.591739e+02
   3.403001e+02  -6.510387e+01
   1.940388e+02   9.906818e+01
  -3.898483e+01   2.458054e+02
  -2.398048e+02   3.258371e+02
  -3.559448e+02   1.960137e+02
  -2.809920e+02  -1.689682e+02
  -4.814638e+01  -4.466217e+02
   1.445657e+02  -3.705875e+02
   1.237094e+02  -1.026822e+02
   2.634629e+01   6.422440e+00
   5.312971e+01  -8.422874e+01
   1.986059e+02  -1.059207e+02
   2.609740e+02   7.734358e+01
   1.294864e+02   2.746710e+02
  -8.649565e+01   2.416612e+02
  -2.179477e+02  -6.585632e+00
  -1.764833e+02  -2.435300e+02
   1.545486e+01  -2.800538e+02
   2.598522e+02  -9.977891e+01
   3.452289e+02   1.766311e+02
   1.727439e+02   3.488625e+02
  -1.093980e+02   2.987658e+02
  -2.355533e+02   1.119032e+02
  -1.556604e+02   6.064488e-02
  -1.016279e+02   2.910607e+01
  -2.364489e+02   4.943715e+01
  -3.939692e+02  -7.306517e+01
  -3.278536e+02  -2.961035e+02
   1.979475e+01  -4.356785e+02
   3.732379e+02  -4.020977e+02
   5.044702e+02  -1.799802e+02
   3.297444e+02   1.051796e+02
   3.692448e+01   3.000549e+02
  -1.437007e+02   2.476278e+02
  -7.692693e+01   2.573224e+01
   1.086673e+02  -1.133060e+02
   1.922462e+02   1.181834e+01
   4.471922e+01   1.924907e+02
  -1.568380e+02   1.607015e+02
  -1.700230e+02  -6.576953e+01
   2.596073e+01  -1.850676e+02
   1.881432e+02  -2.414267e+01
   1.472936e+02   2.470854e+02
  -5.066725e+01   3.421212e+02
  -2.322950e+02   1.878500e+02
  -3.193858e+02  -6.653844e+01
  -2.599534e+02  -2.387794e+02
  -8.501700e+01  -2.575232e+02
   1.087810e+02  -1.553779e+02
   1.628878e+02  -1.865873e+01
   4.864484e+01   2.627284e+01
  -6.478172e+01  -4.514579e+01
  -2.015996e+01  -1.218311e+02
   1.264762e+02  -9.369614e+01
   1.742095e+02   1.774875e+01
   5.271715e+01   6.979659e+01
  -7.721492e+01   1.095849e+01
  -4.646460e+01  -7.170111e+01
   1.300140e+02  -7.787477e+01
   2.786180e+02   1.497645e+01
   2.428615e+02   1.490816e+02
   4.408111e+01   2.550117e+02
  -1.940558e+02   2.525241e+02
  -2.815771e+02   1.132696e+02
  -1.656930e+02  -5.862334e+01
   2.381095e+01  -1.093341e+02
   8.785528e+01  -3.784453e+00
  -3.500341e+01   1.024213e+02
  -1.938940e+02   5.633380e+01
  -2.061257e+02  -1.085821e+02
  -5.910862e+01  -2.097017e+02
   9.845080e+01  -1.541160e+02
   1.409995e+02  -2.040632e+01
   6.596596e+01   4.465136e+01
  -2.618605e+01   3.197480e+00
  -3.051942e+01  -8.247911e+01
   7.183309e+01  -1.137667e+02
   1.867836e+02  -2.042465e+01
   1.786006e+02   1.248184e+02
   1.267745e+01   2.107209e+02
  -1.622522e+02   1.531743e+02
  -1.865258e+02  -3.952878e-01
  -5.948175e+01  -1.152397e+02
   7.072524e+01  -1.052944e+02
   8.527108e+01  -2.676800e+01
   2.059664e+01   2.707966e+01
  -2.215191e+01   1.962793e+01
   6.970513e+00  -5.624868e+00
   6.841477e+01   1.137252e+01
   8.625630e+01   8.251689e+01
   9.760664e+00   1.558659e+02
  -1.315190e+02   1.475650e+02
  -2.361392e+02   2.180868e+01
  -1.930605e+02  -1.536729e+02
  -3.092339e+01  -2.348353e+02
   1.141976e+02  -1.616289e+02
   1.345787e+02  -2.106907e+01
   6.922455e+01   5.736607e+01
   2.866705e+01   3.647365e+01
   5.242754e+01  -8.434667e+00
   7.405743e+01  -3.335497e-01
   3.689475e+01   5.022850e+01
  -4.621071e+01   8.288802e+01
  -1.024929e+02   4.832875e+01
  -8.181812e+01  -4.030885e+01
   1.961169e+01  -1.094538e+02
   1.429105e+02  -8.186283e+01
   1.914900e+02   5.346209e+01
   9.000972e+01   2.006974e+02
  -1.070327e+02   2.239475e+02
  -2.602155e+02   9.266490e+01
  -2.490701e+02  -9.114573e+01
  -1.006910e+02  -1.766840e+02
   4.193823e+01  -1.469884e+02
   9.433969e+01  -8.344323e+01
   7.756655e+01  -6.583331e+01
   7.097586e+01  -8.656750e+01
   9.863646e+01  -6.623745e+01
   1.269724e+02   2.941689e+01
   1.053121e+02   1.593352e+02
   1.475189e+01   2.243595e+02
  -1.047446e+02   1.658149e+02
  -1.719243e+02   1.287365e+01
  -1.304100e+02  -1.227452e+02
  -1.676950e+01  -1.557730e+02
   6.801881e+01  -8.739278e+01
   6.033608e+01   4.184326e+00
   2.634589e+00   4.347880e+01
  -1.486586e+01   3.408713e+01
   3.370635e+01   1.807939e+01
   7.397828e+01   2.867627e+01
   3.811746e+01   4.087130e+01
  -6.897885e+01   3.119502e+01
  -1.547152e+02  -1.052633e+01
  -1.333171e+02  -5.918041e+01
  -7.521829e+00  -8.971914e+01
   1.196418e+02  -7.132083e+01
   1.381203e+02  -7.926139e+00
   4.346356e+01   4.489571e+01
  -5.982117e+01   3.664638e+01
  -7.224561e+01  -2.219061e+01
  -5.575963e+00  -6.996106e+01
   5.672754e+01  -5.519447e+01
   6.189535e+01   4.856811e+00
   4.060833e+01   5.246800e+01
   3.755473e+01   4.329068e+01
   5.666449e+01   2.393767e+00
   6.493961e+01  -1.330242e+00
   3.505607e+01   6.532077e+01
  -3.320522e+01   1.448849e+02
  -1.209798e+02   1.400627e+02
  -1.663545e+02   2.766027e+01
  -1.188745e+02  -9.987937e+01
  -3.002940e+00  -1.272192e+02
   8.676954e+01  -6.082943e+01
   5.668229e+01   1.934082e+01
  -5.883877e+01   1.863878e+01
  -1.304163e+02  -5.053795e+01
  -6.752915e+01  -1.103105e+02
   8.336388e+01  -1.039487e+02
   1.877418e+02  -3.613501e+01
   1.572196e+02   4.426768e+01
   3.291845e+01   8.734648e+01
  -6.335075e+01   6.408589e+01
  -4.780284e+01   4.628824e+00
   4.027812e+01  -2.678101e+01
   8.762071e+01   2.576420e+01
   2.877290e+01   1.207511e+02
  -9.632034e+01   1.536592e+02
  -1.710834e+02   6.072853e+01
  -1.249190e+02  -1.048830e+02
  -6.024706e+00  -1.966825e+02
   8.838537e+01  -1.388045e+02
   1.006514e+02   9.474604e+00
   5.367893e+01   1.158277e+02
  -6.356735e+00   1.034886e+02
  -4.552097e+01   1.711418e+01
  -5.030734e+01  -3.297602e+01
  -2.387909e+01  -1.011114e+01
  -2.570253e+00   2.029243e+01
  -1.707873e+01  -1.467835e+01
  -5.059065e+01  -8.596865e+01
  -3.951417e+01  -1.066081e+02
   4.818977e+01  -4.069061e+01
   1.330815e+02   4.630786e+01
   1.235350e+02   7.841164e+01
   1.516133e+01   5.174594e+01
  -8.714513e+01   1.824750e+01
  -8.741613e+01   3.909867e+00
  -1.196715e+01  -9.299390e+00
   3.656056e+01  -2.070558e+01
   1.278083e+01  -1.646106e+01
  -2.046814e+01   6.954173e-01
   6.334157e+00   8.520871e+00
   7.342957e+01   6.469538e+00
   9.103790e+01   2.875124e+01
   6.414022e+00   8.063875e+01
  -1.232481e+02   1.047923e+02
  -1.847359e+02   4.503069e+01
  -1.318500e+02  -7.447190e+01
  -1.298985e+01  -1.576079e+02
   8.584546e+01  -1.402756e+02
   1.123271e+02  -5.007605e+01
   7.519594e+01   2.472364e+01
   2.316175e+01   3.524854e+01
  -4.064282e-01   8.241529e+00
   1.205325e+01   4.064532e+00
   2.914964e+01   4.851401e+01
   1.597663e+01   9.254147e+01
  -3.296358e+01   7.008408e+01
  -7.798324e+01  -2.348175e+01
  -6.859303e+01  -1.115579e+02
   1.198467e+00  -1.083499e+02
   8.169546e+01  -1.698624e+01
   9.747982e+01   7.861778e+01
   2.597765e+01   9.956597e+01
  -6.786476e+01   5.004359e+01
  -9.451696e+01  -1.655778e+01
  -3.620832e+01  -5.207467e+01
   3.447954e+01  -4.918794e+01
   3.084747e+01  -2.568221e+01
  -3.119426e+01  -5.091717e-01
  -6.625373e+01   5.269341e+00
  -1.245440e+01  -2.492170e+01
   8.136126e+01  -5.947788e+01
   1.164276e+02  -4.965373e+01
   6.047546e+01   1.618358e+01
  -2.236192e+01   7.912219e+01
  -5.787941e+01   7.256028e+01
  -3.577016e+01   3.224807e+00
   3.153324e+00  -5.458765e+01
   2.999613e+01  -3.968059e+01
   3.464805e+01   2.025533e+01
   2.299547e+01   5.390384e+01
  -4.465293e+00   3.199393e+01
  -3.077179e+01  -1.004717e+01
  -3.661366e+01  -2.237250e+01
  -1.982833e+01  -6.494062e-01
  -6.557376e-01   1.635524e+01
   6.751768e+00  -1.962882e+00
   7.754853e+00  -3.699986e+01
   1.837816e+01  -4.534646e+01
   3.185748e+01  -5.638483e+00
   2.805589e+01   4.602458e+01
  -4.663952e+00   5.970544e+01
  -4.509096e+01   1.787234e+01
  -5.380659e+01  -4.007717e+01
  -1.155354e+01  -6.178517e+01
   5.382015e+01  -3.185334e+01
   8.473266e+01   1.681667e+01
   4.484909e+01   4.414849e+01
  -2.880308e+01   3.779803e+01
  -6.261026e+01   1.886066e+01
  -2.316479e+01   3.948467e+00
   3.626585e+01   3.392503e+00
   3.597376e+01   1.789761e+01
  -3.114159e+01   2.984852e+01
  -9.007569e+01   1.403687e+01
