
 $NMID
 id='ANONYMOUS ', fmtdat='(2E16.6)'
 volume=1.0
 tramp=1.0
 $END
   1.276222e+03   3.112140e+02
   8.516151e+02   5.400059e+02
  -1.022889e+02   7.520636e+02
  -4.300067e+02   4.766791e+02
  -2.886862e+02   1.816385e+02
  -4.083615e+01   5.544929e+01
   3.196574e+01   6.271282e+01
  -5.726332e+01   1.461949e+02
  -2.056684e+02   1.340128e+02
  -2.027785e+02  -3.488324e+00
  -1.037464e+02  -1.835945e+02
   2.471146e+01  -2.058165e+02
   8.342879e+01  -4.396161e+01
   2.259280e+01   1.546152e+02
  -8.170256e+01   1.697595e+02
  -1.379801e+02   2.710055e+00
  -6.398660e+01  -1.922687e+02
   8.199940e+01  -2.314524e+02
   1.857668e+02  -8.365238e+01
   1.501920e+02   9.166229e+01
   2.199110e+01   1.404309e+02
  -5.687439e+01   6.484022e+01
  -9.899106e+00   1.410549e+01
   1.030717e+02   6.136471e+01
   9.445934e+01   1.748207e+02
  -8.194199e+01   1.474721e+02
  -2.246918e+02  -1.137105e+01
  -2.103816e+02  -1.577434e+02
  -1.231105e+01  -1.430813e+02
   1.570032e+02  -1.355095e+00
   1.743916e+02   1.165408e+02
   2.922666e+01   1.489269e+02
  -1.381398e+02   9.784150e+01
  -1.883478e+02  -5.273031e+00
  -1.001671e+02  -8.840397e+01
  -3.932983e+00  -1.038017e+02
   1.264753e+01  -3.950049e+01
  -5.592840e+01   3.219991e+01
  -8.324190e+01   1.450698e+01
  -3.504378e+01  -9.200418e+01
   6.741270e+01  -1.797059e+02
   1.138824e+02  -1.180233e+02
   8.412737e+01   2.571392e+01
  -1.723412e+00   1.032614e+02
  -7.386245e+01   1.854385e+01
  -4.583879e+01  -1.138289e+02
   8.715352e+01  -1.321380e+02
   1.878311e+02   1.518842e+01
   1.568752e+02   1.813920e+02
   1.761406e+01   1.844185e+02
  -1.376294e+02   5.770954e+01
  -1.826420e+02  -7.421232e+01
  -9.902106e+01  -1.002444e+02
   3.060494e+01  -5.462395e+01
   1.028629e+02  -1.746420e+01
   8.398515e+01  -6.761977e+00
   1.657147e+01  -7.040308e+00
   1.142761e+01  -9.465404e+00
   4.942379e+01   7.777340e+00
   7.444036e+01   4.491107e+01
   2.108560e+01   8.539375e+01
  -8.074081e+01   9.205884e+01
  -1.489166e+02   3.914530e+01
  -9.906904e+01  -5.540260e+01
   2.893201e+01  -1.289565e+02
   1.433418e+02  -1.278195e+02
   1.441379e+02  -4.681099e+01
   6.541231e+01   8.207298e+01
  -2.098850e+01   1.372295e+02
  -2.923903e+01   1.031183e+02
   2.620983e+00   4.804302e+01
   5.373723e+00   4.478680e+01
  -6.120709e+01   4.730790e+01
  -1.130996e+02   9.843237e+00
  -9.186332e+01  -7.332426e+01
  -9.824359e+00  -1.205596e+02
   6.667112e+01  -6.474516e+01
   7.546213e+01   5.217854e+01
   3.007138e+01   1.248787e+02
  -5.058820e+01   9.610857e+01
  -1.102633e+02  -6.887810e+00
  -1.046813e+02  -1.016332e+02
  -2.971827e+01  -1.287818e+02
   4.699895e+01  -8.736108e+01
   6.702223e+01  -4.385610e+01
   5.631892e+01  -2.907983e+01
   6.815937e+01  -1.969748e+01
   1.249708e+02   1.037544e+01
   1.628764e+02   7.773936e+01
   9.028783e+01   1.430491e+02
  -5.918384e+01   1.647867e+02
  -1.849342e+02   1.174786e+02
  -1.918432e+02   2.511504e+01
  -9.187979e+01  -6.702802e+01
   2.233421e+01  -9.638394e+01
   4.578013e+01  -6.611582e+01
  -3.176176e+00  -8.243616e+00
  -5.301857e+01   4.351857e-01
  -4.073985e+01  -3.676222e+01
   1.581324e+01  -5.305410e+01
   5.464315e+01  -2.570704e+01
   3.335245e+01   3.090212e+01
  -2.878252e+01   4.286760e+01
  -6.427682e+01  -1.857057e+01
  -3.887524e+01  -1.021612e+02
   3.422328e+01  -1.318934e+02
   1.106149e+02  -6.298352e+01
   1.392279e+02   5.107061e+01
   9.085270e+01   1.221528e+02
   5.728213e+00   1.140191e+02
  -5.538379e+01   4.520408e+01
  -4.520642e+01  -5.692221e+00
  -8.972903e+00   3.387589e+00
   1.642571e+01   3.698621e+01
  -1.472412e+01   5.064187e+01
  -5.904433e+01   1.191679e+01
  -5.814821e+01  -2.409555e+01
  -5.494129e+00  -2.474275e+01
   3.431964e+01   1.689710e+01
   6.703949e+00   4.460052e+01
  -7.717874e+01   2.310872e+01
  -1.333738e+02  -3.798308e+01
  -8.696636e+01  -9.761249e+01
   2.420529e+01  -1.069716e+02
   1.094020e+02  -7.333919e+01
   1.030912e+02  -1.122396e+01
   3.144553e+01   2.775536e+01
  -2.372632e+01   2.329115e+01
  -1.915564e+01  -1.180279e+01
   3.129125e+01  -2.603604e+01
   7.279383e+01   3.030524e+00
   5.783016e+01   5.218242e+01
   1.280575e+00   7.093114e+01
  -4.593357e+01   3.963448e+01
  -4.336549e+01  -5.783743e+00
  -5.723974e+00  -1.419758e+01
   1.902488e+01   2.073301e+01
  -1.358245e+00   5.343470e+01
  -5.536069e+01   4.621190e+01
  -9.164260e+01  -1.890682e+01
  -6.042288e+01  -7.713255e+01
   2.137250e+01  -8.579151e+01
   8.317643e+01  -4.264438e+01
   7.120693e+01   1.524028e+01
   1.070606e+01   4.385159e+01
  -3.713151e+01   3.263028e+01
  -3.102873e+01   1.569936e+00
   3.984176e+00  -9.495144e+00
   1.834216e+01  -9.351419e-01
  -4.712119e+00   1.015808e+01
  -4.016569e+01  -7.679705e+00
  -4.008243e+01  -4.801991e+01
   9.721506e+00  -7.419775e+01
   7.338933e+01  -5.246367e+01
   9.605961e+01   1.388022e+01
   6.161704e+01   8.243407e+01
  -6.136830e+00   9.554441e+01
  -5.430456e+01   5.491076e+01
  -5.266050e+01   3.922789e-01
  -2.446957e+01  -2.315747e+01
  -1.327253e+01  -1.124153e+01
  -2.830425e+01   3.245092e+00
  -3.983387e+01  -4.453810e+00
  -1.824905e+01  -3.110301e+01
   2.627269e+01  -4.465055e+01
   5.964716e+01  -2.096142e+01
   4.315116e+01   2.883090e+01
  -1.951252e+01   5.513742e+01
  -7.847675e+01   2.659100e+01
  -8.138964e+01  -4.354684e+01
  -1.234457e+01  -9.569179e+01
   7.516947e+01  -7.959881e+01
   1.199173e+02  -9.645489e+00
   9.015271e+01   5.881484e+01
   2.509354e+01   7.634620e+01
  -2.819939e+01   5.493338e+01
  -4.292019e+01   2.709353e+01
  -3.438836e+01   2.583502e+01
  -3.044220e+01   3.546584e+01
  -4.384708e+01   2.856677e+01
  -5.449395e+01  -1.979287e+01
  -3.764659e+01  -7.539003e+01
   8.955368e+00  -9.804992e+01
   5.529629e+01  -5.816313e+01
   7.010976e+01   1.056332e+01
   4.241426e+01   6.433778e+01
  -1.014717e+01   6.451967e+01
  -3.911173e+01   2.402478e+01
  -2.580802e+01  -1.470023e+01
   8.763358e+00  -2.671193e+01
   1.691228e+01  -1.308999e+01
  -9.019582e+00  -3.959452e+00
  -3.466469e+01  -8.822350e+00
  -1.731013e+01  -1.929932e+01
   3.685819e+01  -1.142767e+01
   7.429018e+01   1.582235e+01
   5.686646e+01   4.101440e+01
  -1.460706e+01   4.325994e+01
  -6.708205e+01   2.012732e+01
  -6.273427e+01  -1.055243e+01
  -8.708127e+00  -2.572098e+01
   3.091010e+01  -1.264926e+01
   2.982043e+01   1.221699e+01
   2.151151e+00   2.742564e+01
  -1.946403e+01   2.124317e+01
  -2.513744e+01  -2.180762e+00
  -2.211304e+01  -1.875127e+01
  -2.049360e+01  -1.794950e+01
  -2.182659e+01  -6.434043e+00
  -2.480070e+01  -6.260839e+00
  -1.414350e+01  -3.248507e+01
   2.070317e+01  -5.969218e+01
   6.389347e+01  -4.898249e+01
   7.671021e+01   5.516111e-01
   4.405566e+01   4.568091e+01
  -1.321297e+01   5.378341e+01
  -4.357282e+01   2.227971e+01
  -2.382889e+01  -7.721026e+00
   2.769374e+01  -6.422989e+00
   5.150715e+01   2.274855e+01
   1.973879e+01   4.800293e+01
  -4.611947e+01   3.702969e+01
  -8.190032e+01  -3.028685e+00
  -5.420347e+01  -3.387768e+01
  -3.743033e-01  -3.347069e+01
   3.525054e+01  -1.360550e+01
   1.829142e+01   8.522198e+00
  -1.859961e+01   1.337598e+01
  -3.739076e+01  -1.647822e+01
  -1.114105e+01  -4.932530e+01
   3.567327e+01  -5.817918e+01
   6.239218e+01  -2.135629e+01
   4.391998e+01   4.340592e+01
  -1.751937e+00   7.967762e+01
  -3.832271e+01   5.374863e+01
  -4.200720e+01  -1.325511e+01
  -1.538360e+01  -5.723503e+01
   1.255262e+01  -4.700784e+01
   2.357811e+01  -4.515607e+00
   1.629417e+01   1.676640e+01
   4.689887e+00   7.195460e+00
   3.608837e+00  -3.635450e+00
   1.345154e+01   1.181457e+01
   1.915195e+01   3.917323e+01
   3.074090e+00   3.971558e+01
  -2.898945e+01   9.196674e+00
  -5.069566e+01  -2.529028e+01
  -4.114191e+01  -3.508177e+01
  -4.230977e+00  -1.889014e+01
   3.256506e+01  -2.779981e+00
   3.531952e+01   3.677003e+00
   6.719374e+00   4.714889e+00
  -1.376701e+01   4.615154e+00
  -7.193819e+00   1.520400e+00
   6.440956e+00  -1.014018e+00
  -5.107351e-01  -1.923288e+00
  -2.511641e+01  -3.314480e+00
  -3.397980e+01  -1.599739e+01
   9.764458e-01  -3.300500e+01
   5.358278e+01  -3.823507e+01
   7.444252e+01  -1.353905e+01
   5.126024e+01   2.910782e+01
   1.965382e+00   6.114855e+01
  -4.083310e+01   5.643289e+01
  -4.850876e+01   2.098289e+01
  -2.994188e+01  -1.288880e+01
  -7.042652e+00  -1.864787e+01
  -3.313760e-01  -5.982629e+00
  -5.028074e+00  -5.595980e+00
  -8.840809e+00  -2.233948e+01
  -3.907186e-01  -3.866999e+01
   1.643111e+01  -2.547053e+01
   2.884559e+01   1.210730e+01
   2.420571e+01   4.536696e+01
   1.364632e+00   4.286382e+01
  -2.900648e+01   6.466487e+00
  -3.719336e+01  -3.195516e+01
  -1.117059e+01  -4.345978e+01
   2.924547e+01  -2.280315e+01
   4.243715e+01   1.015074e+01
   1.670689e+01   2.708490e+01
  -1.918094e+01   2.663563e+01
  -2.129210e+01   1.126179e+01
   8.998333e+00  -1.427557e+00
   2.995775e+01  -1.175183e+00
   7.419909e+00   1.252614e+01
  -3.742318e+01   2.262099e+01
  -5.778047e+01   1.376326e+01
  -2.977954e+01  -1.400641e+01
   1.231755e+01  -3.446927e+01
   3.054989e+01  -3.163876e+01
   2.109675e+01  -5.094969e+00
   1.641079e+00   1.897600e+01
  -8.956930e+00   1.837047e+01
  -1.221623e+01  -3.265549e+00
  -1.073852e+01  -2.057441e+01
  -1.856212e+00  -1.570596e+01
   1.216729e+01   3.174307e+00
   1.829285e+01   1.138278e+01
   9.305606e+00   2.039068e+00
  -1.190605e+00  -9.881354e+00
  -4.415770e+00  -5.792310e+00
   7.115713e-01   1.331322e+01
  -4.432313e-01   2.272377e+01
  -9.418618e+00   1.030642e+01
  -1.489500e+01  -1.359750e+01
  -4.735831e+00  -2.149604e+01
   1.500227e+01  -7.509076e+00
   2.238378e+01   1.472039e+01
   2.974288e+00   2.370610e+01
  -2.713790e+01   8.371625e+00
  -3.770928e+01  -1.419696e+01
  -1.550941e+01  -2.177481e+01
   1.740907e+01  -1.641233e+01
   2.981116e+01  -8.623372e+00
   1.204361e+01  -2.581235e+00
  -1.094673e+01  -4.127755e-01
  -1.121605e+01  -3.072427e+00
   9.816823e+00  -6.262501e+00
   2.907176e+01  -2.044563e+00
