
 $NMID
 id='ANONYMOUS ', fmtdat='(2E16.6)'
 volume=1.0
 tramp=1.0
 $END
  -2.514819e+03  -1.456457e+02
  -1.822338e+03  -1.008156e+03
  -6.996742e+01  -1.583731e+03
   8.352444e+02  -1.170252e+03
   7.802763e+02  -3.830767e+02
   2.229699e+02   9.854727e+01
  -1.591013e+02   3.686864e+01
  -5.400217e+01  -3.292131e+02
   2.970635e+02  -4.282540e+02
   4.569035e+02  -1.021328e+02
   3.447469e+02   3.790252e+02
   2.452171e+01   5.096403e+02
  -2.153345e+02   1.630510e+02
  -1.714873e+02  -3.192588e+02
   1.046068e+02  -4.113253e+02
   3.334486e+02  -6.724211e+01
   2.619940e+02   4.081919e+02
  -8.612469e+01   5.439727e+02
  -3.977172e+02   2.643249e+02
  -3.942656e+02  -1.304037e+02
  -1.256944e+02  -2.962063e+02
   8.439827e+01  -1.824186e+02
   1.693169e+01  -5.660826e+01
  -1.955413e+02  -1.274948e+02
  -2.055996e+02  -2.962516e+02
   8.966558e+01  -3.052929e+02
   4.330335e+02  -6.632748e+01
   4.641735e+02   2.150053e+02
   1.180558e+02   2.845659e+02
  -2.906927e+02   1.151494e+02
  -3.976104e+02  -1.365443e+02
  -1.317775e+02  -3.014705e+02
   2.298734e+02  -2.807953e+02
   3.816177e+02  -8.289614e+01
   2.557105e+02   1.488870e+02
   4.870853e+01   2.376814e+02
  -2.188700e+01   1.147662e+02
   7.503376e+01  -6.797374e+01
   1.654544e+02  -6.968277e+01
   1.250526e+02   1.511971e+02
  -4.995086e+01   3.664219e+02
  -2.137619e+02   2.890948e+02
  -2.284554e+02  -1.668897e+01
  -6.691325e+01  -2.230853e+02
   1.303726e+02  -8.853971e+01
   1.214084e+02   2.111390e+02
  -1.154613e+02   3.178818e+02
  -3.961868e+02   5.330756e+01
  -4.123628e+02  -3.202954e+02
  -1.241599e+02  -4.322104e+02
   2.602432e+02  -2.314115e+02
   4.288622e+02   5.474314e+01
   2.825318e+02   1.971888e+02
  -1.404895e+01   1.713696e+02
  -2.045913e+02   8.521209e+01
  -1.787626e+02   1.515275e+01
  -2.828298e+01  -4.612302e+00
   1.924343e+01   2.374530e+01
  -7.579012e+01   3.037586e+01
  -1.824231e+02  -3.348350e+01
  -1.101460e+02  -1.564661e+02
   1.364792e+02  -2.245382e+02
   3.254726e+02  -1.207912e+02
   2.428152e+02   1.177315e+02
  -4.407542e+01   3.160487e+02
  -2.897072e+02   3.114022e+02
  -3.171951e+02   9.880452e+01
  -1.756904e+02  -1.664539e+02
  -2.486990e+01  -2.918229e+02
   2.910819e+00  -2.538075e+02
   2.359278e+00  -1.586223e+02
   3.763007e+01  -1.208717e+02
   1.400994e+02  -1.132998e+02
   2.273190e+02  -3.223947e+01
   1.994363e+02   1.276109e+02
   6.178443e+01   2.326936e+02
  -9.799591e+01   1.582402e+02
  -1.660071e+02  -5.424887e+01
  -1.005638e+02  -2.265079e+02
   6.657600e+01  -2.115818e+02
   2.188105e+02  -3.022795e+01
   2.441766e+02   1.661319e+02
   1.219806e+02   2.582448e+02
  -5.215016e+01   2.129664e+02
  -1.308890e+02   1.329427e+02
  -1.286032e+02   8.948399e+01
  -1.515960e+02   6.989986e+01
  -2.622218e+02   1.977358e+01
  -3.566664e+02  -1.216232e+02
  -2.540780e+02  -2.876767e+02
   4.119286e+01  -3.837238e+02
   3.443561e+02  -3.107618e+02
   4.063490e+02  -1.029562e+02
   2.308174e+02   1.146151e+02
   5.097110e-01   2.067910e+02
  -8.094728e+01   1.489834e+02
  -4.547911e+00   2.314152e+01
   9.705506e+01  -1.417845e+01
   9.536816e+01   4.842505e+01
  -2.868448e+00   1.114347e+02
  -8.973052e+01   7.101392e+01
  -7.484285e+01  -4.767503e+01
   3.004258e+01  -1.000457e+02
   1.318569e+02   1.223258e+01
   1.169359e+02   2.082510e+02
  -3.840290e+01   2.980843e+02
  -2.366502e+02   1.682192e+02
  -3.195554e+02  -7.768084e+01
  -2.215781e+02  -2.533902e+02
  -2.472926e+01  -2.489000e+02
   1.209138e+02  -1.091684e+02
   1.082101e+02   6.732084e+00
   1.433764e+01   2.685049e+00
  -3.930862e+01  -6.747643e+01
   1.749432e+01  -1.047786e+02
   1.151409e+02  -4.324655e+01
   1.205540e+02   3.600652e+01
   1.456129e+01   5.392038e+01
  -7.867904e+01  -1.877119e+01
  -2.941474e+01  -9.480226e+01
   1.447278e+02  -8.401642e+01
   2.769598e+02   3.270192e+01
   2.181617e+02   1.718909e+02
  -3.214881e+00   2.385573e+02
  -2.013979e+02   1.873814e+02
  -2.233334e+02   5.541756e+01
  -9.622725e+01  -4.861136e+01
   3.402455e+01  -5.892311e+01
   4.903981e+01   1.519652e+01
  -5.154576e+01   6.873973e+01
  -1.554580e+02   2.194091e+01
  -1.481256e+02  -9.297976e+01
  -3.554591e+01  -1.586061e+02
   7.941927e+01  -1.053192e+02
   9.527421e+01  -1.133206e+00
   2.126314e+01   3.410753e+01
  -4.646947e+01  -3.357009e+01
  -1.225359e+01  -1.168875e+02
   1.072921e+02  -1.163747e+02
   1.959312e+02   8.348775e+00
   1.490979e+02   1.427666e+02
  -8.416831e+00   1.878878e+02
  -1.454467e+02   1.190593e+02
  -1.486089e+02  -2.178251e+00
  -4.140701e+01  -8.368033e+01
   5.847359e+01  -7.563466e+01
   6.199931e+01  -1.117324e+01
  -5.846453e+00   2.366459e+01
  -4.080131e+01   3.928027e-01
   8.019832e+00  -3.301586e+01
   9.078879e+01  -2.281008e+00
   1.005968e+02   9.415060e+01
  -1.845486e+00   1.664026e+02
  -1.468041e+02   1.329982e+02
  -2.165408e+02  -1.177145e+01
  -1.603098e+02  -1.587252e+02
  -1.447112e+01  -2.074219e+02
   1.011999e+02  -1.342951e+02
   1.170876e+02  -1.774580e+01
   6.325962e+01   4.234950e+01
   2.889701e+01   2.360933e+01
   5.084987e+01  -1.458232e+01
   8.346771e+01  -3.190607e+00
   5.496485e+01   6.063187e+01
  -3.789129e+01   1.019477e+02
  -1.203443e+02   5.805542e+01
  -1.025485e+02  -5.228303e+01
   2.281481e+01  -1.264695e+02
   1.639456e+02  -7.718972e+01
   1.906196e+02   7.516192e+01
   6.216432e+01   2.051342e+02
  -1.308369e+02   1.981396e+02
  -2.456491e+02   5.851855e+01
  -2.115782e+02  -9.514793e+01
  -7.612599e+01  -1.566978e+02
   4.244228e+01  -1.194105e+02
   7.942011e+01  -6.483093e+01
   6.027524e+01  -5.593630e+01
   5.025528e+01  -8.430278e+01
   8.422154e+01  -7.379660e+01
   1.234646e+02   1.897641e+01
   1.071658e+02   1.419486e+02
   1.321995e+01   2.040407e+02
  -1.020169e+02   1.411822e+02
  -1.559064e+02  -2.620226e+00
  -1.043554e+02  -1.264559e+02
   7.436966e+00  -1.419715e+02
   7.957644e+01  -6.212139e+01
   5.860309e+01   2.559979e+01
  -1.016414e+01   5.601151e+01
  -3.295025e+01   2.845364e+01
   1.994899e+01   3.225359e+00
   7.480132e+01   1.490847e+01
   4.108234e+01   4.225744e+01
  -6.997033e+01   3.857500e+01
  -1.545528e+02  -1.080887e+01
  -1.207062e+02  -7.302901e+01
   1.609030e+01  -9.504344e+01
   1.291509e+02  -6.130703e+01
   1.282305e+02   1.010908e+01
   2.868746e+01   5.909250e+01
  -6.162416e+01   4.272633e+01
  -7.266230e+01  -2.145437e+01
  -1.640950e+01  -7.297124e+01
   4.339651e+01  -6.140374e+01
   6.536900e+01  -2.097598e-01
   5.364620e+01   4.607747e+01
   3.952904e+01   3.827141e+01
   4.191259e+01   3.591973e+00
   5.460696e+01   5.485056e+00
   3.991073e+01   7.036664e+01
  -2.613159e+01   1.392050e+02
  -1.209630e+02   1.271603e+02
  -1.681511e+02   1.970748e+01
  -1.133138e+02  -9.291298e+01
   7.644045e+00  -1.247772e+02
   9.287537e+01  -5.927087e+01
   5.990355e+01   1.436111e+01
  -5.129720e+01   2.752633e+01
  -1.188049e+02  -2.950546e+01
  -6.162302e+01  -9.536949e+01
   7.583510e+01  -9.959967e+01
   1.667135e+02  -3.366349e+01
   1.316654e+02   4.636936e+01
   1.730112e+01   7.370508e+01
  -5.943195e+01   4.409813e+01
  -3.800609e+01  -1.093512e+01
   4.127253e+01  -3.042077e+01
   8.554358e+01   2.461649e+01
   3.660454e+01   1.081534e+02
  -7.174817e+01   1.409981e+02
  -1.422509e+02   6.181924e+01
  -1.124073e+02  -8.503139e+01
  -1.278764e+01  -1.730475e+02
   7.520810e+01  -1.201053e+02
   9.159628e+01   1.835280e+01
   4.144905e+01   1.104144e+02
  -1.977646e+01   9.181419e+01
  -5.022683e+01   8.978550e+00
  -3.616866e+01  -3.179073e+01
  -1.043057e+01  -8.292795e+00
  -6.607114e+00   1.527146e+01
  -3.201166e+01  -1.875448e+01
  -5.151758e+01  -8.004551e+01
  -1.955812e+01  -9.310379e+01
   6.047885e+01  -3.796934e+01
   1.210330e+02   3.234989e+01
   1.039507e+02   6.781015e+01
   1.211231e+01   5.735575e+01
  -7.270820e+01   2.441055e+01
  -7.957951e+01  -1.915740e+00
  -1.684053e+01  -1.701365e+01
   3.091102e+01  -1.755999e+01
   1.839000e+01  -5.658923e+00
  -1.281799e+01   5.930353e+00
   5.942196e-01   1.929440e+00
   5.461086e+01  -2.801933e+00
   8.164577e+01   2.110833e+01
   2.069718e+01   7.474222e+01
  -9.386304e+01   1.058187e+02
  -1.673415e+02   5.638809e+01
  -1.370379e+02  -5.308799e+01
  -2.822483e+01  -1.434450e+02
   7.484428e+01  -1.377207e+02
   1.047969e+02  -5.740254e+01
   7.281906e+01   2.161524e+01
   2.302309e+01   3.974851e+01
   3.187594e+00   1.330790e+01
   1.276333e+01   8.834155e+00
   2.496451e+01   4.366721e+01
   1.072559e+01   8.214751e+01
  -3.049903e+01   6.428707e+01
  -7.116497e+01  -1.276651e+01
  -7.091132e+01  -8.989456e+01
  -1.258892e+01  -9.919059e+01
   6.789929e+01  -3.037238e+01
   9.684974e+01   5.894916e+01
   3.648100e+01   9.621367e+01
  -5.961818e+01   6.149285e+01
  -9.625280e+01  -8.842189e+00
  -4.190106e+01  -5.586999e+01
   3.194207e+01  -5.786509e+01
   3.846885e+01  -2.348959e+01
  -2.224842e+01   7.484184e+00
  -6.112840e+01   5.244239e+00
  -1.694507e+01  -3.019556e+01
   7.123386e+01  -6.004144e+01
   1.137269e+02  -4.115441e+01
   6.619907e+01   2.427685e+01
  -1.339244e+01   7.794911e+01
  -5.751789e+01   7.346637e+01
  -4.634105e+01   1.202332e+01
  -8.130253e+00  -4.623172e+01
   2.278692e+01  -4.396085e+01
   3.364205e+01   8.706678e+00
   2.218574e+01   5.048437e+01
  -6.069025e+00   3.804554e+01
  -3.153429e+01  -7.284788e+00
  -3.446398e+01  -2.835527e+01
  -1.387109e+01  -5.936986e+00
   4.142099e+00   2.286225e+01
   3.911705e+00   1.300634e+01
  -8.011759e+00  -2.882650e+01
  -3.369000e+00  -5.332215e+01
   2.282402e+01  -2.589843e+01
   4.015522e+01   2.828966e+01
   1.680989e+01   5.276523e+01
  -3.319268e+01   2.496579e+01
  -5.656649e+01  -2.675187e+01
  -1.859979e+01  -5.322464e+01
   5.176425e+01  -3.166718e+01
   8.472322e+01   1.247408e+01
   4.320199e+01   4.031028e+01
  -2.839628e+01   4.223045e+01
  -5.869450e+01   2.623871e+01
  -2.630780e+01   5.192060e+00
   2.198957e+01  -5.448901e+00
   2.720674e+01   1.631246e+00
  -1.719398e+01   2.069218e+01
  -6.348660e+01   1.798240e+01
