
 $NMID
 id='ANONYMOUS ', fmtdat='(2E16.6)'
 volume=1.0
 tramp=1.0
 $END
  -1.051978e+03  -3.072001e+02
  -6.453387e+02  -3.517872e+02
   1.161155e+02  -6.214170e+02
   3.997683e+02  -3.284601e+02
   2.855793e+02  -5.208575e+01
  -3.390677e+01   5.860941e+01
  -1.140955e+02  -2.817694e+01
   2.939627e+01  -1.625413e+02
   1.654391e+02  -1.620281e+02
   2.019425e+02  -3.458736e+01
   8.383742e+01   1.761605e+02
  -3.926725e+01   1.763596e+02
  -9.738011e+01   2.219714e+01
  -3.016783e+01  -1.658357e+02
   8.618439e+01  -1.563231e+02
   1.352607e+02   2.563641e+01
   5.591256e+01   1.839694e+02
  -6.839908e+01   1.985008e+02
  -1.791805e+02   6.562156e+01
  -1.452965e+02  -9.139502e+01
  -2.919988e+01  -1.388088e+02
   6.172949e+01  -8.787374e+01
   4.805704e+01  -2.666725e+01
  -5.015264e+01  -4.359550e+01
  -9.926705e+01  -1.037811e+02
   2.992687e+01  -1.281019e+02
   1.917629e+02  -2.675078e+01
   2.058252e+02   8.134683e+01
   5.736974e+01   1.267691e+02
  -1.455217e+02   4.280673e+01
  -1.803636e+02  -8.445272e+01
  -2.859557e+01  -1.418102e+02
   1.348207e+02  -1.062329e+02
   1.782977e+02  -6.862153e+00
   9.232237e+01   8.501557e+01
   3.481723e+00   1.108973e+02
  -2.221562e+01   4.787044e+01
   3.042855e+01  -4.262100e+01
   7.996569e+01  -3.352879e+01
   6.561373e+01   8.278537e+01
  -3.136356e+01   1.867826e+02
  -1.262129e+02   1.238253e+02
  -1.115668e+02  -5.872957e+01
   3.177722e+00  -1.311389e+02
   8.503784e+01  -1.519515e+01
   3.924602e+01   1.451137e+02
  -8.483333e+01   1.270076e+02
  -1.766845e+02  -3.061149e+01
  -1.541115e+02  -1.882120e+02
  -4.917239e+00  -1.866186e+02
   1.378784e+02  -5.335254e+01
   1.694934e+02   7.304032e+01
   8.478100e+01   1.073279e+02
  -4.164081e+01   5.979181e+01
  -9.809174e+01   1.078414e-01
  -5.322487e+01  -1.000627e+01
   4.991253e+00   1.752344e+01
  -1.157844e+01   2.869423e+01
  -6.499427e+01  -5.662988e+00
  -7.392052e+01  -5.548849e+01
  -3.476852e+00  -8.157860e+01
   8.688275e+01  -6.656396e+01
   1.241444e+02  -1.725982e+01
   7.039527e+01   4.262327e+01
  -3.807575e+01   1.001115e+02
  -1.151090e+02   1.204852e+02
  -1.314067e+02   5.303649e+01
  -7.298611e+01  -7.131098e+01
   9.923774e+00  -1.338837e+02
   3.531073e+01  -1.216196e+02
   2.100977e+01  -5.863723e+01
   1.051853e+01  -3.038398e+01
   6.051665e+01  -3.641672e+01
   1.058900e+02  -2.165063e+00
   8.236253e+01   6.838215e+01
   5.736879e+00   1.046387e+02
  -5.993137e+01   5.923609e+01
  -6.773527e+01  -3.465604e+01
  -2.359337e+01  -9.579159e+01
   3.552355e+01  -7.575009e+01
   8.537267e+01  -3.443758e-01
   8.836832e+01   7.173251e+01
   4.442847e+01   1.036170e+02
  -2.906459e+01   8.530734e+01
  -6.483890e+01   4.924449e+01
  -5.031728e+01   1.952567e+01
  -5.509522e+01   2.005397e+01
  -1.020201e+02  -8.377056e-01
  -1.432170e+02  -5.925399e+01
  -9.170529e+01  -1.345754e+02
   4.995673e+01  -1.588001e+02
   1.756092e+02  -1.121350e+02
   1.768549e+02  -2.363587e+01
   8.473332e+01   6.496670e+01
  -2.289405e+01   9.614579e+01
  -5.410020e+01   5.986497e+01
  -5.386504e+00   7.194809e+00
   4.688519e+01  -9.565907e+00
   4.589939e+01   2.361835e+01
  -1.035224e+01   4.851199e+01
  -4.613122e+01   2.154942e+01
  -2.680019e+01  -2.640973e+01
   2.695665e+01  -3.616994e+01
   5.623634e+01   2.384146e+01
   2.747104e+01   9.736129e+01
  -3.807210e+01   1.097447e+02
  -1.048341e+02   4.305386e+01
  -1.200575e+02  -4.101976e+01
  -8.243399e+01  -9.955872e+01
  -1.190884e+01  -8.766358e+01
   4.246177e+01  -4.345201e+01
   5.140260e+01  -3.701281e+00
   1.690983e+01  -7.330671e+00
  -8.337146e+00  -3.004151e+01
   9.770953e+00  -3.861100e+01
   4.592008e+01  -9.005645e+00
   4.724172e+01   2.502047e+01
   1.168059e+00   2.256465e+01
  -3.412832e+01  -1.423877e+01
  -6.671351e+00  -4.241770e+01
   6.671939e+01  -2.405772e+01
   1.152019e+02   3.121539e+01
   8.019398e+01   8.391426e+01
  -1.973524e+01   9.482635e+01
  -9.719464e+01   6.417067e+01
  -9.714658e+01   1.590569e+01
  -3.643839e+01  -2.172007e+01
   1.900708e+01  -2.206635e+01
   2.115485e+01   7.442560e+00
  -3.059619e+01   2.292093e+01
  -7.358232e+01  -2.756607e+00
  -5.594702e+01  -5.155486e+01
  -2.272033e+00  -6.909407e+01
   4.329157e+01  -3.762845e+01
   4.300384e+01   5.718918e+00
   8.700773e+00   1.252057e+01
  -1.474600e+01  -1.606949e+01
   1.891171e+00  -4.388428e+01
   4.088233e+01  -3.584709e+01
   7.445595e+01   1.171942e+01
   5.158275e+01   5.965547e+01
  -1.166869e+01   7.115664e+01
  -6.055689e+01   3.877413e+01
  -5.603165e+01  -7.913402e+00
  -8.970245e+00  -3.581628e+01
   2.693823e+01  -2.538264e+01
   2.409126e+01   8.926694e-01
  -3.762193e+00   9.919657e+00
  -1.504078e+01  -8.124861e-01
   3.716072e+00  -1.119959e+01
   3.402077e+01   3.823343e+00
   3.357132e+01   4.052536e+01
  -7.917763e+00   6.270475e+01
  -6.178110e+01   4.170202e+01
  -8.491210e+01  -2.032291e+01
  -5.444343e+01  -6.678262e+01
   5.283037e+00  -7.206072e+01
   4.496556e+01  -4.016890e+01
   4.232535e+01  -1.040084e+00
   1.874439e+01   1.593019e+01
   8.901060e+00   1.257102e+01
   1.859158e+01   2.581013e+00
   2.803778e+01   4.679449e+00
   1.448386e+01   2.235287e+01
  -1.898240e+01   3.419458e+01
  -4.818559e+01   1.667015e+01
  -3.666856e+01  -2.125127e+01
   1.555791e+01  -4.776519e+01
   6.501124e+01  -2.273366e+01
   6.464160e+01   3.214002e+01
   1.150029e+01   7.490838e+01
  -5.959913e+01   6.611029e+01
  -9.238911e+01   1.276222e+01
  -7.405910e+01  -4.435016e+01
  -1.936254e+01  -6.413130e+01
   2.217631e+01  -4.518461e+01
   3.322520e+01  -2.069924e+01
   2.488202e+01  -1.954251e+01
   2.468224e+01  -2.939462e+01
   3.220672e+01  -2.504029e+01
   4.384225e+01   1.403879e+01
   2.948359e+01   6.163436e+01
  -7.202854e+00   7.844704e+01
  -4.645600e+01   4.749227e+01
  -5.854811e+01  -1.212378e+01
  -3.196712e+01  -5.170876e+01
   8.902608e+00  -5.239805e+01
   3.244861e+01  -1.943496e+01
   1.817936e+01   1.315513e+01
  -1.006318e+01   1.979620e+01
  -1.516476e+01   9.416199e+00
   9.080130e+00   2.443354e+00
   3.296126e+01   9.735067e+00
   1.695694e+01   1.547169e+01
  -2.864060e+01   9.384914e+00
  -6.085565e+01  -1.277018e+01
  -4.048247e+01  -2.858134e+01
   1.351341e+01  -3.053752e+01
   5.762053e+01  -1.262531e+01
   4.794055e+01   7.077841e+00
   6.962438e+00   1.697214e+01
  -2.693487e+01   9.840578e+00
  -2.559804e+01  -1.126067e+01
  -8.434131e-01  -2.606311e+01
   2.061544e+01  -1.853617e+01
   2.466288e+01   6.705431e+00
   1.735209e+01   2.349957e+01
   1.216541e+01   1.565494e+01
   1.816669e+01   3.469293e+00
   1.989798e+01   8.097728e+00
   7.592916e+00   3.077020e+01
  -2.361549e+01   5.379133e+01
  -5.732179e+01   4.108596e+01
  -6.458735e+01  -2.282637e+00
  -3.847624e+01  -4.044530e+01
   1.209787e+01  -4.641583e+01
   3.904812e+01  -1.519527e+01
   1.924559e+01   8.496123e+00
  -2.680643e+01   4.946885e+00
  -4.791876e+01  -2.218649e+01
  -1.593051e+01  -4.326078e+01
   3.799983e+01  -3.354776e+01
   7.099729e+01  -1.420800e+00
   5.101694e+01   2.866020e+01
   2.805752e+00   3.375272e+01
  -2.932947e+01   1.675334e+01
  -1.879513e+01  -7.313770e+00
   1.376497e+01  -9.584499e+00
   3.011064e+01   1.246566e+01
   6.425001e+00   4.362598e+01
  -3.797305e+01   5.215486e+01
  -5.824159e+01   1.707359e+01
  -3.555381e+01  -4.095174e+01
   5.740398e+00  -7.146614e+01
   3.288307e+01  -4.575752e+01
   3.449193e+01   1.017625e+01
   1.217002e+01   4.685225e+01
  -1.173435e+01   3.326725e+01
  -1.872956e+01   2.120366e-02
  -1.259298e+01  -1.449757e+01
  -3.623586e+00  -5.387633e-01
  -3.439197e+00   8.363994e+00
  -1.107477e+01  -9.398683e+00
  -1.692312e+01  -3.628843e+01
  -1.816790e+00  -3.809321e+01
   2.419916e+01  -5.510278e+00
   4.291959e+01   2.643982e+01
   3.115028e+01   3.444529e+01
  -2.629020e+00   1.867506e+01
  -2.974311e+01   7.925663e-01
  -3.050880e+01  -5.307768e+00
  -4.691389e+00  -5.379114e+00
   1.281128e+01  -5.832665e+00
   7.944053e+00  -5.377926e+00
  -4.152261e+00  -9.598463e-01
   2.096854e+00   2.257445e+00
   2.291678e+01   4.894812e+00
   3.075695e+01   1.395169e+01
   2.054282e+00   2.779837e+01
  -4.381767e+01   3.280659e+01
  -6.845710e+01   1.334517e+01
  -4.593381e+01  -2.858848e+01
   1.555579e+00  -5.606741e+01
   3.712994e+01  -4.817889e+01
   4.241416e+01  -1.551803e+01
   2.655850e+01   1.063163e+01
   6.408478e+00   1.531502e+01
  -1.292041e+00   4.892659e+00
   3.878650e+00   4.092680e+00
   9.454075e+00   1.912274e+01
   1.394428e+00   3.277642e+01
  -1.560947e+01   2.187301e+01
  -2.819746e+01  -1.223421e+01
  -2.052474e+01  -4.094547e+01
   2.765257e+00  -3.875194e+01
   2.868439e+01  -4.607757e+00
   3.292360e+01   2.951459e+01
   6.815380e+00   3.795267e+01
  -2.626918e+01   1.660296e+01
  -3.485770e+01  -9.609562e+00
  -1.030980e+01  -2.393081e+01
   1.815902e+01  -1.815747e+01
   1.551257e+01  -6.993673e+00
  -1.044483e+01   1.742727e+00
  -2.699139e+01   5.764575e-01
  -5.571263e+00  -1.093031e+01
   3.193135e+01  -1.877737e+01
   4.666588e+01  -1.231238e+01
   2.372896e+01   8.306609e+00
  -9.590038e+00   2.496303e+01
  -2.293455e+01   2.253370e+01
  -1.322438e+01   2.321864e+00
   1.958312e+00  -1.590256e+01
   1.059095e+01  -1.187703e+01
   8.900939e+00   6.949654e+00
   4.700879e+00   1.768014e+01
  -2.264022e+00   1.006029e+01
  -1.020546e+01  -6.026451e+00
  -1.197591e+01  -1.246920e+01
  -6.145436e+00  -1.349262e+00
   1.727093e-01   7.883889e+00
   3.030469e+00   2.838866e+00
   1.284015e+00  -1.024034e+01
   2.614817e+00  -1.696205e+01
   1.047487e+01  -4.447261e+00
   1.170882e+01   1.532996e+01
   1.601305e+00   2.020967e+01
  -1.637584e+01   6.992801e+00
  -2.123189e+01  -1.422585e+01
  -5.002205e+00  -2.141237e+01
   2.107222e+01  -9.841187e+00
   3.142430e+01   5.825576e+00
   1.503434e+01   1.514756e+01
  -1.210903e+01   1.441855e+01
  -2.162462e+01   7.794120e+00
  -7.884208e+00   2.668743e+00
   1.042759e+01   2.170016e+00
   8.640866e+00   5.164113e+00
  -1.141220e+01   6.548385e+00
  -2.838014e+01   1.957463e+00
