
 $NMID
 id='ANONYMOUS ', fmtdat='(2E16.6)'
 volume=1.0
 tramp=1.0
 $END
   9.369444e+02   2.964348e+02
   5.283202e+02   1.968090e+02
  -3.309429e+01   6.085969e+02
  -4.646465e+02   4.746322e+02
  -4.206243e+02   1.100983e+02
  -1.174212e+02  -9.417505e+01
   9.207867e+01   1.593039e+01
   3.615187e+01   1.975965e+02
  -1.466705e+02   2.280341e+02
  -2.297362e+02   2.319170e+01
  -1.786166e+02  -1.833930e+02
  -2.539766e+01  -2.298801e+02
   8.905024e+01  -7.633784e+01
   9.983984e+01   1.237604e+02
  -1.905592e+01   1.702958e+02
  -1.286575e+02   3.369397e+01
  -1.124287e+02  -1.600657e+02
   4.242475e+01  -2.354298e+02
   1.860687e+02  -1.135096e+02
   1.784259e+02   6.527982e+01
   5.927124e+01   1.393255e+02
  -4.153292e+01   1.011293e+02
  -2.036902e+01   4.786887e+01
   5.690432e+01   6.123939e+01
   7.730253e+01   1.107863e+02
  -3.476042e+01   1.011331e+02
  -1.589657e+02   3.292099e+01
  -2.064197e+02  -3.070721e+01
  -8.480631e+01  -8.391210e+01
   7.477808e+01  -5.392500e+01
   1.380128e+02   2.979073e+01
   5.614859e+01   1.040588e+02
  -7.499851e+01   1.107174e+02
  -1.499518e+02   4.148108e+01
  -1.065515e+02  -5.814516e+01
  -5.140059e+01  -1.076766e+02
  -6.899025e+00  -8.216547e+01
  -5.001482e+00   4.392487e-01
  -1.114084e+01   3.253758e+01
  -3.539179e+01  -1.910146e+01
  -2.838737e+01  -1.329157e+02
   4.219758e+01  -1.335266e+02
   9.135606e+01  -1.752304e+01
   5.793951e+01   8.468699e+01
  -3.777552e+01   4.389203e+01
  -6.072409e+01  -7.121693e+01
   2.987506e+01  -1.219907e+02
   1.514576e+02  -1.693130e+01
   1.651540e+02   1.354565e+02
   4.557093e+01   1.657911e+02
  -1.031503e+02   8.117945e+01
  -1.713785e+02  -2.938161e+01
  -1.161521e+02  -8.164764e+01
   4.910287e+00  -7.628101e+01
   9.922741e+01  -4.469170e+01
   8.884582e+01  -1.080056e+01
   1.662169e+01   7.992575e+00
  -1.582037e+01   7.805562e+00
   2.272103e+01  -1.260811e+01
   7.650552e+01   3.191607e-01
   4.589177e+01   5.375569e+01
  -6.134308e+01   8.557977e+01
  -1.190997e+02   4.223316e+01
  -7.505174e+01  -5.137049e+01
   4.459909e+01  -1.048817e+02
   1.142881e+02  -1.033811e+02
   1.097881e+02  -3.753481e+01
   5.616875e+01   5.602788e+01
   1.116214e+01   1.085952e+02
   8.687388e+00   1.015987e+02
   9.085618e+00   6.658129e+01
  -1.446445e+01   4.336559e+01
  -5.302072e+01   3.944196e+01
  -9.130756e+01   1.628407e+01
  -7.477378e+01  -4.389063e+01
  -1.774233e+01  -8.568839e+01
   4.235377e+01  -5.622044e+01
   5.843003e+01   1.950637e+01
   3.518051e+01   7.725054e+01
  -1.740394e+01   7.563288e+01
  -6.812386e+01   9.011917e+00
  -8.326225e+01  -5.846828e+01
  -4.921655e+01  -8.859377e+01
   2.028901e+01  -7.929634e+01
   5.619883e+01  -4.636696e+01
   4.979048e+01  -2.513292e+01
   5.221600e+01  -1.604453e+01
   9.202077e+01  -4.621027e+00
   1.225588e+02   4.269858e+01
   8.770319e+01   1.100133e+02
  -2.193631e+01   1.395185e+02
  -1.360541e+02   1.111747e+02
  -1.426623e+02   3.336044e+01
  -7.495203e+01  -3.571570e+01
   3.408925e+00  -7.072175e+01
   2.489165e+01  -5.399510e+01
   7.380571e-01  -1.968250e+01
  -4.008383e+01   8.055133e+00
  -3.070959e+01  -5.511432e+00
  -1.176106e+00  -3.310165e+01
   2.638610e+01  -2.673377e+01
   2.458171e+01   1.193481e+01
  -1.151154e+01   3.056777e+01
  -4.540951e+01  -1.370804e+01
  -3.659382e+01  -8.347267e+01
   2.004415e+01  -1.033131e+02
   8.907864e+01  -4.902916e+01
   1.204319e+02   2.557910e+01
   9.178627e+01   8.087948e+01
   2.206205e+01   8.578968e+01
  -4.000440e+01   5.436715e+01
  -5.374839e+01   1.480307e+01
  -2.133743e+01   8.494815e+00
   8.028023e+00   2.148003e+01
  -3.139301e+00   3.388958e+01
  -4.082205e+01   1.119162e+01
  -4.295840e+01  -1.220098e+01
  -6.744372e+00  -1.568756e+01
   2.573010e+01   1.049310e+01
   4.407479e+00   3.340489e+01
  -5.907311e+01   2.303664e+01
  -1.006700e+02  -1.980821e+01
  -7.170290e+01  -6.482797e+01
   8.884952e+00  -7.987638e+01
   7.588673e+01  -6.686105e+01
   8.115635e+01  -3.323086e+01
   3.873272e+01   4.597736e+00
  -9.890017e+00   2.158862e+01
  -1.790822e+01   7.710305e-01
   1.774837e+01  -2.044922e+01
   5.709086e+01  -5.865934e+00
   5.183710e+01   3.355974e+01
   1.229811e+01   5.691645e+01
  -3.034058e+01   3.514961e+01
  -3.707948e+01  -4.728580e-01
  -9.671296e+00  -9.158703e+00
   1.238734e+01   1.422489e+01
   1.299469e+00   4.065888e+01
  -3.025292e+01   3.741488e+01
  -6.884094e+01  -1.261194e+00
  -5.486524e+01  -4.830234e+01
  -7.461893e-01  -6.537816e+01
   5.024895e+01  -4.781904e+01
   5.541218e+01  -4.761613e+00
   1.794361e+01   2.874684e+01
  -1.932165e+01   3.194295e+01
  -2.255803e+01   8.449685e+00
   7.042799e-01  -6.676182e+00
   1.289453e+01  -1.409918e+00
  -5.596025e+00   1.022897e+01
  -3.384324e+01  -4.364616e-01
  -3.413683e+01  -3.623519e+01
   4.091095e+00  -6.303869e+01
   5.463078e+01  -5.040222e+01
   7.695063e+01   4.123595e+00
   5.930345e+01   5.471560e+01
   9.957782e+00   7.574936e+01
  -3.448703e+01   5.072661e+01
  -4.142051e+01   8.156140e+00
  -2.115188e+01  -1.305646e+01
  -9.505627e+00  -9.644197e+00
  -1.745830e+01   4.833916e+00
  -3.237151e+01   3.203926e+00
  -1.974412e+01  -2.141618e+01
   1.255379e+01  -3.694247e+01
   4.483179e+01  -1.949334e+01
   3.617962e+01   2.015594e+01
  -1.109053e+01   4.438728e+01
  -5.900449e+01   2.491981e+01
  -6.695802e+01  -3.032586e+01
  -1.901101e+01  -7.439312e+01
   4.785272e+01  -6.913458e+01
   9.429727e+01  -2.379618e+01
   8.373793e+01   3.232477e+01
   3.312488e+01   5.598433e+01
  -1.746706e+01   4.618036e+01
  -3.431194e+01   2.581471e+01
  -2.705305e+01   2.361646e+01
  -1.780191e+01   2.883761e+01
  -2.726786e+01   2.300487e+01
  -4.244508e+01  -8.915046e+00
  -3.736299e+01  -4.906008e+01
  -5.797800e+00  -7.002150e+01
   3.617590e+01  -5.101593e+01
   5.380715e+01  -1.775423e+00
   4.196199e+01   4.040310e+01
   2.967564e+00   4.833761e+01
  -2.270140e+01   2.435063e+01
  -1.841701e+01  -4.164773e+00
   4.844748e+00  -1.741149e+01
   8.632340e+00  -1.077369e+01
  -1.009242e+01  -3.226636e+00
  -2.901214e+01  -6.114880e+00
  -1.651944e+01  -1.514656e+01
   2.636005e+01  -1.142476e+01
   5.334380e+01   3.792708e+00
   4.254416e+01   1.912634e+01
  -5.390206e+00   2.501933e+01
  -4.621569e+01   1.542771e+01
  -4.141056e+01  -1.294450e+00
  -6.808569e+00  -1.578933e+01
   2.471249e+01  -1.248447e+01
   2.645852e+01   7.149134e+00
   5.593766e+00   2.429436e+01
  -1.340327e+01   2.313287e+01
  -2.205375e+01   2.464866e+00
  -2.000034e+01  -1.449237e+01
  -1.944690e+01  -1.242960e+01
  -2.178470e+01  -3.668479e+00
  -2.187795e+01  -4.049572e+00
  -1.048840e+01  -2.626730e+01
   1.910010e+01  -5.087535e+01
   4.657124e+01  -4.152069e+01
   5.814591e+01  -4.442613e+00
   3.484116e+01   3.397081e+01
  -8.845218e+00   4.231467e+01
  -3.400479e+01   1.802758e+01
  -1.871174e+01  -4.735275e+00
   2.256053e+01  -6.420470e+00
   4.259603e+01   1.436466e+01
   1.943318e+01   3.287121e+01
  -2.927107e+01   2.780717e+01
  -6.053937e+01   7.923745e+00
  -4.567028e+01  -1.411094e+01
  -6.605446e+00  -2.392951e+01
   2.229019e+01  -1.725438e+01
   1.412138e+01   2.304688e+00
  -1.302434e+01   8.006328e+00
  -3.233429e+01  -8.643416e+00
  -1.163275e+01  -4.051488e+01
   3.112831e+01  -5.530673e+01
   5.678629e+01  -2.457821e+01
   4.145288e+01   3.556973e+01
   1.991142e+00   7.056449e+01
  -2.753756e+01   4.921061e+01
  -3.560243e+01  -4.748087e+00
  -1.961436e+01  -4.248548e+01
   3.738381e+00  -3.511729e+01
   1.641721e+01  -5.415317e+00
   1.496691e+01   8.886261e+00
   5.759760e+00   6.096956e-01
   1.354237e+00  -4.921079e+00
   1.109852e+01   1.040769e+01
   1.853728e+01   3.227366e+01
   7.612390e+00   3.247505e+01
  -1.863039e+01   1.043438e+01
  -4.209952e+01  -1.706104e+01
  -3.663502e+01  -2.497099e+01
  -3.432679e+00  -1.575983e+01
   2.569054e+01  -3.781409e+00
   2.519031e+01   3.363315e+00
   2.344992e+00   5.212754e+00
  -1.238000e+01   7.179068e+00
  -7.484816e+00   2.117635e+00
   4.915651e+00  -3.730372e+00
  -6.370153e-01  -5.605738e+00
  -1.917751e+01  -2.373393e+00
  -3.074140e+01  -7.764100e+00
  -7.182322e+00  -2.550530e+01
   4.080013e+01  -3.639836e+01
   6.908369e+01  -2.118637e+01
   5.659041e+01   2.293807e+01
   8.049467e+00   5.659638e+01
  -3.283843e+01   5.311656e+01
  -4.310176e+01   2.290408e+01
  -2.816701e+01  -7.482321e+00
  -7.998846e+00  -1.371716e+01
  -6.249829e-01  -4.267744e+00
  -3.853079e+00  -2.876092e+00
  -7.593183e+00  -1.607157e+01
  -4.446884e+00  -2.947311e+01
   9.454510e+00  -2.129301e+01
   2.377299e+01   7.014265e+00
   2.370544e+01   3.453164e+01
   4.116572e+00   3.674488e+01
  -2.552308e+01   1.007330e+01
  -3.505995e+01  -2.241851e+01
  -1.216103e+01  -3.742001e+01
   2.438293e+01  -2.184569e+01
   3.581672e+01   4.991164e+00
   1.361322e+01   2.241734e+01
  -1.416730e+01   2.209618e+01
  -1.620229e+01   9.884629e+00
   9.036760e+00  -3.367333e+00
   2.376072e+01  -3.508075e+00
   6.086228e+00   1.046002e+01
  -2.695703e+01   2.376700e+01
  -4.065979e+01   1.954483e+01
  -2.524638e+01  -7.477834e+00
   4.866136e+00  -2.759180e+01
   1.987154e+01  -2.650606e+01
   1.717753e+01  -3.818504e+00
   1.468905e+00   1.786330e+01
  -1.023596e+01   1.709759e+01
  -1.432756e+01  -3.134503e+00
  -1.110510e+01  -2.025486e+01
  -4.404186e-01  -1.607871e+01
   1.095202e+01  -4.052420e-01
   1.533627e+01   7.971560e+00
   8.689592e+00   1.296973e+00
   5.881223e-01  -7.442738e+00
  -5.690290e-01  -3.955762e+00
   2.234325e+00   1.234643e+01
   4.034791e-01   2.120902e+01
  -9.589141e+00   9.769627e+00
  -1.436645e+01  -1.216744e+01
  -6.040248e+00  -2.156272e+01
   1.377530e+01  -9.091710e+00
   2.211023e+01   1.309525e+01
   5.086280e+00   2.133244e+01
  -2.175770e+01   1.020123e+01
  -3.396701e+01  -5.324585e+00
  -1.736348e+01  -1.495761e+01
   1.068774e+01  -1.517715e+01
   2.239908e+01  -1.046221e+01
   9.864076e+00  -2.900909e+00
  -9.776954e+00   2.477661e-01
  -1.099047e+01  -2.202760e+00
   6.614501e+00  -7.743654e+00
   2.600265e+01  -5.387348e+00
