
 $NMID
 id='ANONYMOUS ', fmtdat='(2E16.6)'
 volume=1.0
 tramp=1.0
 $END
   2.102816e+03  -1.422473e+02
   1.384159e+03   7.997772e+02
   2.472560e+02   1.332998e+03
  -6.999123e+02   1.016323e+03
  -6.766058e+02   3.664759e+02
  -2.034445e+02  -3.539908e+01
   1.781198e+02  -3.233659e+01
   7.072701e+01   3.155697e+02
  -2.413868e+02   3.942513e+02
  -4.179595e+02   1.314294e+02
  -3.090589e+02  -2.821443e+02
  -6.305718e+01  -4.239296e+02
   1.335986e+02  -1.667582e+02
   1.489952e+02   2.178574e+02
  -2.410052e+01   3.421387e+02
  -2.296972e+02   9.729647e+01
  -2.274518e+02  -2.801531e+02
   1.953988e+01  -4.475232e+02
   2.899439e+02  -2.522544e+02
   3.208748e+02   6.971745e+01
   1.213702e+02   2.414845e+02
  -5.485339e+01   1.681645e+02
  -1.505979e+01   5.914770e+01
   1.594776e+02   9.996198e+01
   1.913449e+02   2.280703e+02
  -5.768550e+01   2.474642e+02
  -3.506281e+02   7.884071e+01
  -4.096839e+02  -1.440364e+02
  -1.151113e+02  -2.186303e+02
   2.172610e+02  -9.346367e+01
   3.264164e+02   1.113051e+02
   1.174068e+02   2.369388e+02
  -1.692759e+02   2.235508e+02
  -2.897155e+02   9.057812e+01
  -2.103416e+02  -7.998810e+01
  -6.942146e+01  -1.708840e+02
  -1.557389e+01  -9.513730e+01
  -7.550184e+01   4.010565e+01
  -1.209515e+02   6.086220e+01
  -1.004430e+02  -1.065818e+02
   1.172358e+01  -2.976632e+02
   1.398589e+02  -2.497669e+02
   1.729500e+02  -9.121535e+00
   7.725398e+01   1.662675e+02
  -8.049301e+01   5.318177e+01
  -9.911400e+01  -1.907093e+02
   6.954261e+01  -2.489784e+02
   3.047921e+02  -1.690196e+01
   3.407241e+02   2.634234e+02
   1.143319e+02   3.241299e+02
  -1.886096e+02   1.691845e+02
  -3.306537e+02  -3.818161e+01
  -2.286733e+02  -1.338099e+02
   7.642633e+00  -1.268369e+02
   1.644208e+02  -6.904468e+01
   1.398272e+02  -1.762580e+01
   2.867072e+01   6.215122e-02
  -1.961558e+01  -9.093149e+00
   5.605077e+01  -1.877034e+01
   1.427098e+02   2.338646e+01
   8.776333e+01   1.036581e+02
  -8.560373e+01   1.612937e+02
  -2.279663e+02   1.124267e+02
  -1.991428e+02  -5.573732e+01
   6.321708e+00  -2.289271e+02
   2.189194e+02  -2.649165e+02
   2.714874e+02  -1.228108e+02
   1.524519e+02   1.067549e+02
   2.410587e+01   2.269318e+02
  -1.302760e+01   2.145943e+02
   1.039844e+01   1.323973e+02
  -1.455240e+01   8.442206e+01
  -1.001227e+02   8.874176e+01
  -1.765370e+02   3.811248e+01
  -1.645948e+02  -8.360036e+01
  -5.881661e+01  -1.727744e+02
   6.605005e+01  -1.268375e+02
   1.285003e+02   3.340462e+01
   8.580029e+01   1.702857e+02
  -4.189617e+01   1.713920e+02
  -1.696748e+02   3.715647e+01
  -2.082867e+02  -1.191578e+02
  -1.151407e+02  -2.027556e+02
   3.163494e+01  -1.822856e+02
   1.045069e+02  -1.162019e+02
   9.957434e+01  -7.403125e+01
   1.090494e+02  -4.717721e+01
   2.033052e+02  -1.952924e+01
   3.046937e+02   7.294013e+01
   2.341218e+02   2.006487e+02
  -1.407365e+01   3.057762e+02
  -2.748955e+02   2.891763e+02
  -3.480554e+02   1.387131e+02
  -1.977260e+02  -6.662136e+01
  -9.545646e+00  -1.657185e+02
   5.553819e+01  -1.393580e+02
  -1.118460e+01  -4.001101e+01
  -9.350189e+01   9.891185e+00
  -7.818250e+01  -3.095565e+01
   7.586547e-01  -8.633169e+01
   6.440220e+01  -6.022294e+01
   5.835635e+01   3.304736e+01
  -1.967760e+01   7.713732e+01
  -9.961462e+01  -6.384368e+00
  -1.008538e+02  -1.557810e+02
   5.446944e+00  -2.386953e+02
   1.670084e+02  -1.482819e+02
   2.617962e+02   3.156781e+01
   2.145577e+02   1.856955e+02
   4.955394e+01   2.052864e+02
  -9.817306e+01   1.094143e+02
  -1.084525e+02   5.875312e+00
  -2.903315e+01  -7.213907e+00
   3.358305e+01   4.342542e+01
  -1.077113e+01   8.048249e+01
  -9.126893e+01   4.420703e+01
  -1.032289e+02  -1.758029e+01
  -1.742910e+01  -3.572832e+01
   5.963786e+01   8.920643e+00
   2.727092e+01   6.573636e+01
  -1.074289e+02   5.875727e+01
  -2.126205e+02  -1.877348e+01
  -1.804937e+02  -1.176134e+02
  -1.781445e+01  -1.750597e+02
   1.428097e+02  -1.553609e+02
   1.853993e+02  -7.068673e+01
   9.373492e+01   2.302922e+01
  -2.262094e+01   4.734107e+01
  -4.275538e+01  -3.781227e+00
   4.073776e+01  -4.943521e+01
   1.303480e+02  -1.723972e+01
   1.271878e+02   6.811132e+01
   4.007076e+01   1.220333e+02
  -5.765718e+01   8.959275e+01
  -8.256963e+01   1.614575e+01
  -2.972099e+01  -1.534961e+01
   2.937080e+01   2.142706e+01
   1.477616e+01   7.869431e+01
  -7.017136e+01   7.441400e+01
  -1.486685e+02   4.318573e+00
  -1.220402e+02  -9.607843e+01
  -4.119777e+00  -1.392667e+02
   1.060437e+02  -9.972235e+01
   1.127367e+02  -9.459213e+00
   3.313820e+01   5.811715e+01
  -3.929170e+01   6.011512e+01
  -4.104944e+01   1.644742e+01
   3.640080e+00  -1.415748e+01
   2.749580e+01  -3.871322e+00
  -7.613435e+00   2.227672e+01
  -6.854989e+01   1.988201e+00
  -7.956931e+01  -6.836931e+01
  -1.069957e+01  -1.303515e+02
   1.043536e+02  -1.104735e+02
   1.683131e+02  -1.367619e+00
   1.354137e+02   1.120899e+02
   2.891190e+01   1.558802e+02
  -6.595497e+01   1.094267e+02
  -8.701823e+01   2.683814e+01
  -5.352966e+01  -2.272735e+01
  -2.646148e+01  -1.706488e+01
  -3.911475e+01   1.085554e+01
  -6.391641e+01   8.384818e+00
  -4.339237e+01  -3.980448e+01
   2.294259e+01  -8.007796e+01
   8.754813e+01  -5.675356e+01
   8.194350e+01   2.904065e+01
  -9.076910e+00   9.452156e+01
  -1.184300e+02   6.809469e+01
  -1.521395e+02  -4.736246e+01
  -5.604873e+01  -1.536002e+02
   9.886239e+01  -1.534976e+02
   1.976104e+02  -5.444113e+01
   1.676821e+02   6.525749e+01
   6.234694e+01   1.150989e+02
  -3.295472e+01   9.511479e+01
  -6.144546e+01   5.412414e+01
  -4.797210e+01   5.026020e+01
  -4.111819e+01   6.724371e+01
  -6.492239e+01   5.955789e+01
  -9.048088e+01  -1.010387e+01
  -8.229885e+01  -1.034717e+02
  -1.580519e+01  -1.523737e+02
   6.947490e+01  -1.109846e+02
   1.149900e+02  -6.042944e+00
   8.402922e+01   8.782154e+01
   3.179276e+00   1.060949e+02
  -5.104802e+01   5.394030e+01
  -4.388587e+01  -1.144820e+01
   4.954941e+00  -4.024072e+01
   2.090767e+01  -2.764994e+01
  -1.771561e+01  -8.541985e+00
  -5.960500e+01  -7.819815e+00
  -3.732549e+01  -2.626930e+01
   5.256877e+01  -3.001724e+01
   1.263475e+02   2.947202e+00
   1.069779e+02   4.846973e+01
  -2.280579e+00   7.031652e+01
  -9.960769e+01   5.035885e+01
  -1.041179e+02   4.042453e+00
  -3.101788e+01  -3.472089e+01
   4.274428e+01  -3.098360e+01
   5.750659e+01   1.184913e+01
   1.637098e+01   5.184914e+01
  -2.966927e+01   4.799451e+01
  -4.679989e+01   1.469653e+00
  -4.130458e+01  -3.488053e+01
  -3.274189e+01  -2.707495e+01
  -3.546862e+01   1.691462e+00
  -4.464989e+01   1.767067e+00
  -3.439901e+01  -5.134923e+01
   1.727652e+01  -1.079071e+02
   8.874266e+01  -1.014521e+02
   1.312666e+02  -2.563171e+01
   9.803481e+01   6.820069e+01
  -1.206079e+00   9.547020e+01
  -6.951738e+01   5.057646e+01
  -4.633251e+01  -5.865069e+00
   4.053775e+01  -1.562531e+01
   9.482282e+01   2.432684e+01
   4.818740e+01   6.921854e+01
  -5.933568e+01   7.445639e+01
  -1.293202e+02   2.911570e+01
  -1.019678e+02  -2.875190e+01
  -1.820760e+01  -5.619264e+01
   4.333426e+01  -3.728935e+01
   3.118227e+01   3.830359e+00
  -2.699442e+01   2.108851e+01
  -6.394104e+01  -1.005071e+01
  -3.007510e+01  -7.765511e+01
   4.752321e+01  -1.095047e+02
   1.008802e+02  -5.569950e+01
   8.421522e+01   5.498918e+01
   1.621780e+01   1.322807e+02
  -5.129810e+01   9.920807e+01
  -7.039885e+01  -7.731879e+00
  -3.800302e+01  -8.495785e+01
   1.043326e+01  -7.078925e+01
   3.807905e+01  -9.000414e+00
   3.161865e+01   2.171852e+01
   8.605067e+00   4.843971e+00
   3.692007e+00  -1.120709e+01
   2.618914e+01   1.770248e+01
   4.299669e+01   6.426653e+01
   1.946159e+01   7.287021e+01
  -4.211091e+01   2.925824e+01
  -9.411291e+01  -2.609229e+01
  -8.070691e+01  -4.804709e+01
  -1.139221e+01  -3.743846e+01
   5.205399e+01  -1.875931e+01
   5.697473e+01  -4.038382e+00
   1.364088e+01   6.841883e+00
  -2.112947e+01   1.538509e+01
  -1.301687e+01   8.215334e+00
   1.110780e+01  -3.464647e+00
   6.797652e-01  -3.857103e+00
  -4.076895e+01   3.759991e+00
  -6.338460e+01  -7.728669e+00
  -2.203949e+01  -5.073730e+01
   6.492084e+01  -8.058244e+01
   1.280499e+02  -5.202549e+01
   1.087058e+02   3.368250e+01
   2.422128e+01   1.075524e+02
  -5.581952e+01   1.084565e+02
  -8.309508e+01   4.964613e+01
  -5.757542e+01  -9.956515e+00
  -1.919986e+01  -2.497897e+01
  -3.007880e+00  -9.862147e+00
  -1.073543e+01  -9.582956e+00
  -2.151091e+01  -3.751496e+01
  -1.365029e+01  -6.349343e+01
   1.745657e+01  -4.924563e+01
   5.300091e+01   6.870468e+00
   6.000957e+01   6.501765e+01
   1.877928e+01   7.474655e+01
  -4.670620e+01   2.657970e+01
  -7.433025e+01  -3.878423e+01
  -3.227280e+01  -7.142777e+01
   4.172355e+01  -4.890640e+01
   7.291279e+01   8.244827e-01
   3.449860e+01   4.114637e+01
  -2.113974e+01   4.862783e+01
  -2.886634e+01   2.564297e+01
   1.734793e+01  -3.815810e+00
   4.688403e+01  -9.159409e+00
   1.279386e+01   1.806292e+01
  -5.639790e+01   4.762621e+01
  -8.475149e+01   3.979692e+01
  -5.200538e+01  -1.202248e+01
   5.585046e+00  -5.991433e+01
   3.847835e+01  -6.118791e+01
   3.281415e+01  -1.213581e+01
   7.082128e+00   3.333361e+01
  -1.510486e+01   3.396462e+01
  -2.694625e+01  -4.730291e+00
  -2.138806e+01  -3.660989e+01
   5.770826e-01  -2.861933e+01
   2.354248e+01   9.690291e-01
   3.096571e+01   1.646118e+01
   1.559868e+01   3.349306e+00
  -3.628320e+00  -1.434807e+01
  -4.487275e+00  -7.180495e+00
   5.291710e+00   1.904174e+01
   3.813110e+00   3.571941e+01
  -1.641373e+01   1.989042e+01
  -3.176170e+01  -1.823074e+01
  -1.495258e+01  -3.944933e+01
   2.630226e+01  -2.140845e+01
   4.684381e+01   1.783910e+01
   1.611925e+01   4.109737e+01
  -4.156896e+01   2.747149e+01
  -6.721495e+01  -3.932351e+00
  -3.610834e+01  -2.870430e+01
   1.886286e+01  -3.295105e+01
   4.338362e+01  -2.373732e+01
   2.031849e+01  -5.767510e+00
  -1.812029e+01   4.449336e+00
  -2.263472e+01  -1.313043e+00
   1.146847e+01  -1.691085e+01
   4.821157e+01  -1.830711e+01
