
 $NMID
 id='ANONYMOUS ', fmtdat='(2E16.6)'
 volume=1.0
 tramp=1.0
 $END
  -2.064205e+03   1.639388e+02
  -1.273141e+03  -7.302141e+02
  -1.236069e+02  -1.179725e+03
   6.583250e+02  -8.088285e+02
   5.789114e+02  -2.205721e+02
   6.444389e+01   7.478067e+01
  -1.968216e+02  -9.291842e+00
  -4.839513e+01  -3.104971e+02
   2.456201e+02  -3.371782e+02
   3.685559e+02  -9.150182e+01
   2.460470e+02   2.762090e+02
   7.985640e+00   3.546239e+02
  -1.400175e+02   9.933761e+01
  -1.303305e+02  -2.483159e+02
   5.431820e+01  -3.178724e+02
   2.278973e+02  -6.435803e+01
   1.962637e+02   2.725965e+02
  -4.502478e+01   3.895638e+02
  -2.661157e+02   2.096341e+02
  -2.802514e+02  -7.341696e+01
  -9.353776e+01  -2.250728e+02
   5.401986e+01  -1.656934e+02
   1.866250e+01  -4.933092e+01
  -1.382414e+02  -8.848552e+01
  -1.694805e+02  -1.914352e+02
   4.367246e+01  -2.295835e+02
   3.227300e+02  -8.250996e+01
   3.883637e+02   1.309174e+02
   1.257366e+02   2.226445e+02
  -2.047024e+02   1.110386e+02
  -3.123599e+02  -8.942368e+01
  -1.179877e+02  -2.178280e+02
   1.402471e+02  -2.049540e+02
   2.577067e+02  -8.227155e+01
   1.846059e+02   8.018226e+01
   5.574226e+01   1.680483e+02
  -1.139748e+01   9.707959e+01
   3.674250e+01  -5.784164e+01
   1.135594e+02  -9.442406e+01
   1.224906e+02   7.332607e+01
   3.450135e+01   2.876973e+02
  -1.233648e+02   2.646186e+02
  -1.801878e+02   8.071992e+00
  -8.537744e+01  -1.723964e+02
   8.095034e+01  -7.598252e+01
   1.143202e+02   1.681887e+02
  -3.137378e+01   2.334481e+02
  -2.612423e+02   4.253711e+01
  -3.100304e+02  -2.057040e+02
  -9.814943e+01  -2.798156e+02
   1.780503e+02  -1.456809e+02
   2.958927e+02   3.283383e+01
   1.913035e+02   1.304623e+02
  -3.010692e+01   1.226068e+02
  -1.551963e+02   5.008431e+01
  -1.112548e+02   3.034193e+00
  -5.602207e+00   2.404471e+00
   1.865570e+01   2.366195e+01
  -6.570603e+01   3.159440e+01
  -1.326522e+02  -1.714828e+01
  -7.169550e+01  -1.034250e+02
   8.230506e+01  -1.471192e+02
   1.990169e+02  -9.592390e+01
   1.620479e+02   4.407974e+01
  -8.511179e+00   1.996870e+02
  -1.774771e+02   2.285619e+02
  -2.253850e+02   1.231846e+02
  -1.366632e+02  -8.247669e+01
  -3.765950e+01  -1.973067e+02
   7.396574e+00  -1.850734e+02
  -8.250532e+00  -1.128064e+02
   1.137282e+01  -6.256141e+01
   7.779481e+01  -7.858824e+01
   1.508260e+02  -4.598563e+01
   1.470269e+02   5.937925e+01
   6.671124e+01   1.487323e+02
  -4.925703e+01   1.185927e+02
  -1.211035e+02  -1.931540e+01
  -8.796374e+01  -1.530860e+02
   3.279809e+01  -1.610941e+02
   1.576001e+02  -3.605754e+01
   1.894579e+02   1.060820e+02
   1.013199e+02   1.834286e+02
  -3.232994e+01   1.609127e+02
  -9.431265e+01   9.366498e+01
  -8.084936e+01   5.585073e+01
  -8.628718e+01   4.631141e+01
  -1.688553e+02   3.427321e+01
  -2.616833e+02  -3.876011e+01
  -2.057293e+02  -1.661183e+02
   3.260201e+00  -2.643481e+02
   2.264737e+02  -2.537272e+02
   2.881474e+02  -1.289766e+02
   1.734528e+02   5.507194e+01
   9.032209e+00   1.444022e+02
  -5.849053e+01   1.192220e+02
   4.664719e-01   2.514121e+01
   8.413450e+01  -1.702611e+01
   7.645973e+01   2.579815e+01
   2.937566e+00   8.409953e+01
  -6.341407e+01   6.315198e+01
  -6.001693e+01  -2.859737e+01
   1.402924e+01  -7.291349e+01
   9.176680e+01   3.285106e+00
   8.798939e+01   1.423747e+02
  -9.003060e+00   2.079113e+02
  -1.534950e+02   1.287531e+02
  -2.273302e+02  -3.470478e+01
  -1.878155e+02  -1.572929e+02
  -5.110563e+01  -1.719134e+02
   7.527305e+01  -9.490846e+01
   9.343071e+01  -1.198578e+01
   2.803632e+01   1.421605e+00
  -3.144473e+01  -3.787659e+01
   3.500633e+00  -7.026440e+01
   7.943913e+01  -4.425811e+01
   9.492623e+01   9.075460e+00
   2.028865e+01   3.205802e+01
  -5.267184e+01   2.418489e-01
  -2.950532e+01  -5.270658e+01
   9.089458e+01  -5.602298e+01
   1.877244e+02   3.073792e+00
   1.664194e+02   9.622972e+01
   2.030211e+01   1.588851e+02
  -1.261860e+02   1.436172e+02
  -1.677846e+02   6.181438e+01
  -8.069081e+01  -2.534487e+01
   2.254111e+01  -4.464064e+01
   4.081710e+01   4.850223e+00
  -3.196332e+01   4.817447e+01
  -1.150137e+02   2.188412e+01
  -1.158064e+02  -5.649062e+01
  -3.866468e+01  -1.053279e+02
   4.917557e+01  -8.184674e+01
   7.696612e+01  -1.698624e+01
   3.028422e+01   1.586915e+01
  -2.419250e+01  -1.607870e+01
  -1.535556e+01  -6.643245e+01
   5.790297e+01  -6.532129e+01
   1.324382e+02  -5.879718e+00
   1.118513e+02   8.415946e+01
   3.867836e+00   1.278260e+02
  -9.986662e+01   9.410389e+01
  -1.059112e+02   9.382824e+00
  -3.204575e+01  -5.563652e+01
   3.489635e+01  -5.896500e+01
   3.736485e+01  -1.712023e+01
  -2.881856e+00   1.283982e+01
  -2.200051e+01   2.979267e+00
   6.907082e+00  -1.873145e+01
   5.907724e+01  -7.470330e-01
   6.637929e+01   5.809936e+01
   7.546871e+00   1.111545e+02
  -9.118813e+01   9.744310e+01
  -1.504287e+02   2.069588e+00
  -1.177116e+02  -9.802113e+01
  -2.169848e+01  -1.366969e+02
   5.986027e+01  -9.406150e+01
   7.580831e+01  -1.860915e+01
   4.355842e+01   2.226984e+01
   2.238685e+01   1.081714e+01
   3.722028e+01  -1.369972e+01
   5.599950e+01  -6.720675e+00
   3.641587e+01   3.783020e+01
  -2.095562e+01   6.714133e+01
  -7.605533e+01   4.670292e+01
  -6.842292e+01  -2.659101e+01
   7.704978e+00  -8.275244e+01
   1.019712e+02  -6.126554e+01
   1.352727e+02   3.820076e+01
   5.750915e+01   1.348480e+02
  -8.269740e+01   1.422637e+02
  -1.730747e+02   5.595444e+01
  -1.454377e+02  -4.738089e+01
  -5.596766e+01  -9.732358e+01
   2.529282e+01  -8.235944e+01
   5.039778e+01  -4.903313e+01
   3.997055e+01  -4.586811e+01
   3.203910e+01  -5.854522e+01
   5.568952e+01  -5.296758e+01
   8.118410e+01   8.094849e+00
   7.902652e+01   9.124493e+01
   2.177209e+01   1.388001e+02
  -5.883730e+01   1.036095e+02
  -1.051733e+02   9.374110e+00
  -7.991948e+01  -7.922891e+01
  -7.414205e+00  -9.439055e+01
   4.165058e+01  -4.785939e+01
   3.678687e+01   6.956005e+00
  -3.692598e+00   3.172838e+01
  -1.700023e+01   2.123612e+01
   1.613916e+01   7.576087e+00
   4.844119e+01   4.697444e+00
   3.158489e+01   1.937010e+01
  -4.236044e+01   2.434019e+01
  -1.064945e+02   1.929160e-01
  -9.373990e+01  -3.756828e+01
  -2.689815e-01  -5.978440e+01
   8.570956e+01  -4.593755e+01
   9.092593e+01  -5.928732e+00
   2.637983e+01   2.752654e+01
  -3.839743e+01   2.577030e+01
  -4.947738e+01  -9.158509e+00
  -1.359639e+01  -4.343001e+01
   2.549074e+01  -4.026027e+01
   4.088703e+01  -2.267334e+00
   3.583553e+01   2.883880e+01
   2.928659e+01   2.275310e+01
   3.436709e+01  -1.835444e+00
   4.114181e+01   3.597255e-01
   3.035170e+01   4.285713e+01
  -1.167375e+01   9.256738e+01
  -7.223305e+01   9.320413e+01
  -1.110717e+02   3.030759e+01
  -8.766433e+01  -5.100027e+01
  -3.890979e+00  -8.270991e+01
   5.785159e+01  -4.534670e+01
   3.870507e+01   3.935736e+00
  -3.635098e+01   1.349842e+01
  -8.265170e+01  -2.292112e+01
  -4.309484e+01  -6.056684e+01
   5.127415e+01  -6.260064e+01
   1.145590e+02  -2.580166e+01
   9.031521e+01   2.219920e+01
   1.471035e+01   4.796058e+01
  -3.817438e+01   3.535245e+01
  -2.737095e+01  -8.829188e-01
   2.536022e+01  -1.801169e+01
   5.804553e+01   8.291090e+00
   2.846082e+01   7.055944e+01
  -4.381077e+01   1.035913e+02
  -9.431321e+01   5.357219e+01
  -7.990831e+01  -5.083627e+01
  -1.788045e+01  -1.205556e+02
   4.363363e+01  -9.253696e+01
   6.470389e+01   2.900396e+00
   3.706925e+01   7.326220e+01
  -4.918669e+00   6.411376e+01
  -3.185249e+01   1.026149e+01
  -2.895398e+01  -1.821114e+01
  -8.581220e+00  -4.290966e+00
  -2.311873e+00   1.139387e+01
  -2.140863e+01  -1.195741e+01
  -3.953543e+01  -5.373687e+01
  -1.868552e+01  -6.337304e+01
   3.538818e+01  -2.457070e+01
   8.209502e+01   2.214111e+01
   7.161730e+01   3.874304e+01
   8.664555e+00   3.002566e+01
  -4.593152e+01   1.671643e+01
  -4.799763e+01   6.008166e+00
  -8.372045e+00  -5.027707e+00
   1.927974e+01  -1.477146e+01
   9.564597e+00  -8.338973e+00
  -1.117149e+01   4.588458e+00
   2.724983e-01   3.488942e+00
   3.924610e+01  -6.347642e+00
   5.571343e+01   4.601387e+00
   1.931646e+01   4.514479e+01
  -5.527053e+01   7.397222e+01
  -1.077994e+02   4.951107e+01
  -9.394814e+01  -2.704798e+01
  -2.260657e+01  -9.492832e+01
   4.618705e+01  -9.540622e+01
   6.913074e+01  -4.092358e+01
   4.995911e+01   1.213450e+01
   1.425908e+01   2.279121e+01
  -8.423442e-01   6.041091e+00
   8.666144e+00   4.694545e+00
   2.169344e+01   2.845404e+01
   1.588369e+01   5.414223e+01
  -1.337103e+01   4.448221e+01
  -4.752147e+01  -3.948430e+00
  -5.264446e+01  -5.493557e+01
  -1.574772e+01  -6.376300e+01
   4.144716e+01  -2.224851e+01
   6.403162e+01   3.580831e+01
   2.724518e+01   6.171342e+01
  -3.747964e+01   4.224690e+01
  -6.289434e+01  -3.957286e-01
  -2.990742e+01  -3.566883e+01
   1.891373e+01  -4.207831e+01
   2.419242e+01  -2.079029e+01
  -1.652965e+01   4.341143e+00
  -4.170677e+01   7.874453e+00
  -1.214535e+01  -1.738723e+01
   4.803931e+01  -4.597335e+01
   7.204183e+01  -3.691648e+01
   4.394374e+01   1.053812e+01
  -4.460057e+00   5.363895e+01
  -3.161090e+01   5.281189e+01
  -2.703551e+01   8.566991e+00
  -5.542816e+00  -2.986597e+01
   1.171977e+01  -2.713006e+01
   2.143147e+01   7.352764e+00
   1.767696e+01   3.190434e+01
  -1.186295e+00   2.169118e+01
  -2.060767e+01  -4.032538e+00
  -2.505122e+01  -1.427941e+01
  -1.157390e+01  -1.328822e+00
   2.377696e+00   1.324159e+01
   1.930430e+00   2.842659e+00
  -4.682083e+00  -1.980870e+01
  -1.433586e+00  -3.196694e+01
   1.575907e+01  -1.549808e+01
   2.765088e+01   1.809934e+01
   1.180744e+01   3.499003e+01
  -2.277229e+01   1.816150e+01
  -3.895706e+01  -1.669301e+01
  -1.207919e+01  -3.655634e+01
   3.777366e+01  -2.343715e+01
   5.987829e+01   6.120272e+00
   3.067989e+01   2.758491e+01
  -1.745669e+01   3.022054e+01
  -3.934489e+01   1.989664e+01
  -1.675913e+01   4.971708e+00
   1.714874e+01  -3.285596e+00
   2.015242e+01   1.851121e+00
  -1.218407e+01   1.446257e+01
  -4.555034e+01   1.276196e+01
