
 $NMID
 id='ANONYMOUS ', fmtdat='(2E16.6)'
 volume=1.0
 tramp=1.0
 $END
   9.938893e+02  -1.946985e+02
   6.981176e+02   1.100116e+02
   2.056488e+02   6.820303e+02
  -3.451034e+02   6.494760e+02
  -4.595806e+02   2.172234e+02
  -1.499133e+02  -6.158603e+01
   9.775220e+01  -9.547476e+01
   7.583081e+01   1.253950e+02
  -8.051626e+01   1.991690e+02
  -1.690174e+02   1.348756e+02
  -1.716448e+02  -9.323526e+01
  -7.673077e+01  -1.836382e+02
   1.872846e+01  -1.007034e+02
   8.533423e+01   7.543440e+01
   3.772688e+01   1.637908e+02
  -6.968572e+01   7.761505e+01
  -1.127299e+02  -1.105494e+02
   4.972903e+00  -2.116911e+02
   1.397328e+02  -1.402289e+02
   1.685339e+02   2.242776e+01
   6.411004e+01   1.280452e+02
  -1.450205e+01   1.161986e+02
   9.301516e+00   7.052233e+01
   6.958263e+01   1.016730e+02
   4.320681e+01   1.250006e+02
  -6.779502e+01   8.373512e+01
  -1.619124e+02  -1.164124e+01
  -1.637590e+02  -7.766860e+01
  -5.717995e+01  -6.744145e+01
   6.422902e+01  -1.320233e+01
   1.075093e+02   4.005078e+01
   4.304872e+01   6.462606e+01
  -4.254879e+01   6.309533e+01
  -9.209960e+01   4.502181e+01
  -8.664598e+01  -7.808761e+00
  -6.376687e+01  -5.576677e+01
  -4.710270e+01  -6.517138e+01
  -4.233293e+01  -1.920730e+01
  -3.599325e+01   8.163363e+00
  -1.252156e+01  -3.212742e+01
   4.977883e+00  -1.192138e+02
   4.614173e+01  -1.197079e+02
   5.171386e+01  -2.219920e+01
   3.523374e+01   4.901656e+01
  -2.551907e+00   1.400940e+01
  -2.182254e+01  -8.753310e+01
   2.325984e+01  -8.755730e+01
   1.198436e+02   7.200128e+00
   1.512084e+02   1.003862e+02
   6.277860e+01   1.161726e+02
  -7.018343e+01   5.698846e+01
  -1.377859e+02  -7.904639e+00
  -1.075691e+02  -4.836391e+01
   2.025724e+00  -5.076108e+01
   7.512729e+01  -3.263196e+01
   7.260818e+01  -1.197558e+01
   2.214293e+01  -4.601677e+00
  -4.304201e+00  -6.320843e+00
   3.143764e+01  -4.820839e+00
   6.371066e+01   1.290594e+01
   3.984346e+01   5.742971e+01
  -4.681646e+01   7.623792e+01
  -1.116498e+02   3.961637e+01
  -7.505224e+01  -2.028825e+01
   2.754279e+01  -9.250723e+01
   9.817249e+01  -9.735946e+01
   9.318919e+01  -5.711933e+01
   4.325043e+01   2.384102e+01
   1.150759e+01   8.220812e+01
   1.618227e+01   9.824853e+01
   1.622224e+01   8.655550e+01
  -2.086952e+01   4.654395e+01
  -6.026084e+01   2.322937e+01
  -7.824532e+01  -1.833834e+00
  -5.237551e+01  -3.851548e+01
  -1.523411e+01  -6.082043e+01
   1.903185e+01  -3.664555e+01
   3.796392e+01   2.255777e+01
   2.232428e+01   7.474786e+01
  -2.622174e+01   6.352456e+01
  -6.943821e+01  -2.618451e+00
  -7.795079e+01  -6.615569e+01
  -4.056889e+01  -8.560894e+01
   1.000380e+01  -7.187784e+01
   4.500939e+01  -4.808688e+01
   5.189376e+01  -3.123164e+01
   5.544003e+01  -1.718277e+01
   8.668513e+01  -1.007674e+00
   1.197776e+02   3.660149e+01
   8.750404e+01   8.435932e+01
  -1.309916e+01   1.233336e+02
  -1.260231e+02   1.161960e+02
  -1.472108e+02   6.203347e+01
  -7.599115e+01  -2.201998e+01
   2.179100e+00  -6.058718e+01
   2.526608e+01  -5.568247e+01
  -8.421675e+00  -2.262792e+01
  -4.888040e+01  -1.177825e+01
  -2.247299e+01  -1.580326e+01
   1.028799e+01  -3.417492e+01
   3.473501e+01  -2.443210e+01
   2.569797e+01   1.605479e+01
  -3.408067e+00   3.012392e+01
  -3.716598e+01  -6.085745e+00
  -3.814097e+01  -7.745665e+01
   1.140995e+01  -1.007912e+02
   8.718886e+01  -5.305431e+01
   1.129832e+02   4.681621e+01
   8.613844e+01   9.761316e+01
   1.528627e+01   8.964343e+01
  -4.281120e+01   4.216273e+01
  -5.580059e+01   1.174107e+01
  -2.653586e+01   6.150280e+00
   1.966356e+00   2.285158e+01
  -1.044552e+01   2.722600e+01
  -3.990032e+01   1.064030e+01
  -4.378077e+01  -1.034856e+01
  -9.891483e+00  -9.264009e+00
   1.999584e+01   7.146607e+00
   4.748968e+00   2.642054e+01
  -5.371867e+01   1.348796e+01
  -9.012306e+01  -2.589332e+01
  -7.136830e+01  -5.552095e+01
   1.744899e+00  -7.022967e+01
   7.080660e+01  -5.429108e+01
   8.375343e+01  -3.042858e+01
   3.300795e+01   5.383856e-01
  -1.492473e+01   1.280466e+01
  -1.628244e+01  -7.560506e-01
   1.879919e+01  -1.173287e+01
   5.663714e+01   2.130522e+00
   5.027787e+01   3.387586e+01
   1.529083e+01   5.099738e+01
  -2.617521e+01   3.734204e+01
  -3.786579e+01   6.757786e+00
  -1.619265e+01  -4.035444e+00
   6.981822e+00   1.523880e+01
  -1.652970e+00   3.213157e+01
  -3.536091e+01   1.614795e+01
  -6.696393e+01  -1.313729e+01
  -4.634054e+01  -4.940623e+01
   9.795694e+00  -5.870847e+01
   5.704789e+01  -3.997315e+01
   5.379017e+01  -4.768385e+00
   1.287644e+01   2.571310e+01
  -1.924714e+01   2.930385e+01
  -1.632327e+01   1.018337e+01
   5.919028e+00  -2.945427e+00
   1.172463e+01   4.802690e+00
  -1.002008e+01   1.171052e+01
  -3.607035e+01  -4.502152e+00
  -3.024338e+01  -3.632173e+01
   6.708776e+00  -5.490943e+01
   5.172153e+01  -3.756565e+01
   7.287518e+01   7.528113e+00
   4.757645e+01   5.252050e+01
   2.535277e+00   6.433140e+01
  -2.933688e+01   4.038029e+01
  -3.518975e+01   5.896570e+00
  -1.897821e+01  -1.346160e+01
  -1.225437e+01  -6.169664e+00
  -2.268736e+01   4.489859e+00
  -3.120928e+01  -9.642457e-01
  -1.771118e+01  -2.113612e+01
   1.774614e+01  -2.974756e+01
   4.348594e+01  -1.616292e+01
   3.068491e+01   1.728068e+01
  -1.264548e+01   3.839484e+01
  -5.822612e+01   2.104431e+01
  -6.837061e+01  -2.939558e+01
  -1.938313e+01  -6.880384e+01
   5.366412e+01  -6.545956e+01
   9.338321e+01  -1.264340e+01
   7.059973e+01   3.192424e+01
   2.041983e+01   4.696704e+01
  -1.733285e+01   3.303055e+01
  -2.672633e+01   2.212463e+01
  -2.223815e+01   2.445246e+01
  -1.627317e+01   3.204781e+01
  -2.743570e+01   2.646635e+01
  -3.722168e+01  -8.534594e+00
  -3.216638e+01  -4.903566e+01
  -5.595097e+00  -6.694879e+01
   3.136623e+01  -4.423610e+01
   4.829905e+01   3.015575e+00
   3.041488e+01   4.515127e+01
  -3.227017e+00   4.569136e+01
  -2.093157e+01   1.888644e+01
  -1.246960e+01  -7.965834e+00
   8.196084e+00  -1.434248e+01
   1.048891e+01  -7.323767e+00
  -1.079260e+01  -5.282792e+00
  -2.806542e+01  -5.592754e+00
  -1.937041e+01  -1.133654e+01
   2.413633e+01  -5.880290e+00
   6.132978e+01   8.973185e+00
   4.745386e+01   2.409325e+01
  -7.247694e+00   2.444342e+01
  -5.426975e+01   1.325914e+01
  -5.102600e+01  -5.290073e+00
  -7.956638e+00  -1.330889e+01
   2.576840e+01  -8.797565e+00
   2.563616e+01   6.384523e+00
   4.577120e+00   2.179314e+01
  -1.404975e+01   1.920005e+01
  -2.128199e+01   2.482699e-01
  -1.795027e+01  -1.791161e+01
  -1.664461e+01  -1.569527e+01
  -1.807008e+01  -3.089046e+00
  -2.050475e+01   9.370709e-02
  -1.163433e+01  -2.011329e+01
   8.195949e+00  -4.527622e+01
   3.806514e+01  -4.488018e+01
   5.495165e+01  -9.224013e+00
   4.124029e+01   2.707739e+01
  -4.923515e+00   4.087892e+01
  -3.499830e+01   2.082028e+01
  -1.984034e+01  -3.727013e+00
   2.365889e+01  -7.098291e+00
   4.567831e+01   1.156295e+01
   2.331494e+01   3.137730e+01
  -2.983737e+01   3.168552e+01
  -6.279637e+01   1.457508e+01
  -4.737406e+01  -1.408536e+01
  -3.687963e+00  -2.500408e+01
   2.130849e+01  -1.572036e+01
   1.293091e+01   9.859924e-01
  -1.501927e+01   7.517588e+00
  -2.992173e+01  -7.278354e+00
  -1.075995e+01  -3.784608e+01
   2.764360e+01  -5.517601e+01
   5.277126e+01  -2.723115e+01
   4.185738e+01   2.873213e+01
   7.772358e+00   6.799040e+01
  -2.658391e+01   4.927472e+01
  -3.273599e+01  -4.311592e+00
  -1.227103e+01  -4.194701e+01
   9.807022e+00  -3.169953e+01
   1.826782e+01  -5.742671e-02
   1.274344e+01   1.322171e+01
   2.907630e+00   2.145981e+00
   1.279851e+00  -4.892051e+00
   8.309022e+00   9.678414e+00
   1.597757e+01   3.312395e+01
   8.119559e+00   3.213150e+01
  -1.587797e+01   7.683670e+00
  -4.085769e+01  -1.439767e+01
  -3.776259e+01  -1.807629e+01
  -7.013103e+00  -1.253811e+01
   2.334994e+01  -6.496178e+00
   2.469357e+01  -3.948822e+00
   3.216742e+00   2.048060e+00
  -1.184184e+01   6.043129e+00
  -4.293656e+00   4.073402e+00
   7.262711e+00  -1.891001e+00
   5.416197e-01  -2.282993e+00
  -2.072788e+01  -5.049990e-01
  -2.786652e+01  -6.882845e+00
  -6.815236e+00  -2.356899e+01
   3.325261e+01  -3.469092e+01
   6.125849e+01  -2.080633e+01
   5.051563e+01   1.763360e+01
   9.831722e+00   4.915569e+01
  -2.845600e+01   4.591539e+01
  -3.995106e+01   1.949440e+01
  -2.674089e+01  -4.776339e+00
  -5.641614e+00  -1.061186e+01
   1.940696e+00  -4.517924e+00
  -2.064657e+00  -6.222657e+00
  -8.740438e+00  -1.475460e+01
  -5.473492e+00  -2.380526e+01
   7.251047e+00  -1.963997e+01
   2.288138e+01   4.071781e+00
   2.492882e+01   2.963727e+01
   6.837312e+00   3.563238e+01
  -2.118779e+01   1.195159e+01
  -3.206288e+01  -2.033939e+01
  -1.354438e+01  -3.317103e+01
   1.989820e+01  -2.028393e+01
   3.151211e+01   4.402075e+00
   1.347210e+01   2.130789e+01
  -1.364897e+01   2.194408e+01
  -1.429949e+01   8.951949e+00
   9.599296e+00  -3.539181e+00
   2.442291e+01  -3.995428e+00
   5.060355e+00   7.903264e+00
  -2.837718e+01   2.068272e+01
  -3.889724e+01   1.498808e+01
  -1.964656e+01  -6.021039e+00
   6.820297e+00  -2.665035e+01
   1.808560e+01  -2.665145e+01
   1.423564e+01  -4.531928e+00
   3.537166e+00   1.589408e+01
  -4.250451e+00   1.463176e+01
  -1.037877e+01  -2.101820e+00
  -1.089520e+01  -1.595503e+01
  -2.073393e+00  -1.135032e+01
   9.692041e+00   2.720203e+00
   1.354010e+01   9.184410e+00
   6.299135e+00   1.694324e+00
  -1.351536e+00  -8.461170e+00
  -1.357945e+00  -3.555039e+00
   1.838025e+00   1.033387e+01
  -8.735390e-01   1.750309e+01
  -9.168694e+00   7.651280e+00
  -1.364579e+01  -1.182266e+01
  -4.322915e+00  -1.958756e+01
   1.285817e+01  -7.998083e+00
   1.994642e+01   1.158992e+01
   3.805736e+00   1.945081e+01
  -2.261015e+01   9.153619e+00
  -3.306284e+01  -8.472700e+00
  -1.446436e+01  -1.654486e+01
   1.242807e+01  -1.421931e+01
   2.368335e+01  -6.401772e+00
   9.137636e+00  -2.069733e+00
  -1.040049e+01   7.985111e-01
  -1.154962e+01  -8.269452e-01
   4.302674e+00  -6.293404e+00
   2.140214e+01  -7.654186e+00
