
 $NMID
 id='ANONYMOUS ', fmtdat='(2E16.6)'
 volume=1.0
 tramp=1.0
 $END
   4.799795e+07   1.545615e+06
   2.829870e+07   2.968812e+07
  -6.564056e+06   3.197111e+07
  -2.350088e+07   1.273944e+07
  -1.426189e+07  -5.337901e+06
   2.545513e+06  -7.931586e+06
   8.495720e+06   5.777134e+05
   2.770264e+06   8.288919e+06
  -5.098500e+06   8.485846e+06
  -8.360373e+06   2.015248e+06
  -6.050317e+06  -5.590908e+06
  -5.224517e+05  -7.727195e+06
   3.648479e+06  -2.209411e+06
   2.322453e+06   5.203987e+06
  -3.307077e+06   6.056651e+06
  -6.848713e+06  -1.064782e+06
  -3.818499e+06  -8.911221e+06
   3.387445e+06  -1.021466e+07
   8.850235e+06  -4.861460e+06
   9.189782e+06   2.178329e+06
   5.224084e+06   6.623593e+06
   1.716022e+05   7.124055e+06
  -2.356498e+06   4.760614e+06
  -9.581545e+05   2.393201e+06
   1.382776e+06   2.529008e+06
  -6.417031e+04   4.207662e+06
  -5.417493e+06   3.758054e+06
  -8.918551e+06  -1.083829e+05
  -6.070002e+06  -4.058473e+06
   3.077143e+05  -4.476187e+06
   3.787851e+06  -1.915513e+06
   2.216645e+06   5.328618e+05
  -1.103720e+06   1.227257e+06
  -2.706126e+06   3.016488e+05
  -2.088468e+06  -1.855386e+06
  -1.936823e+05  -3.896830e+06
   1.887005e+06  -3.224934e+06
   2.562606e+06   5.132719e+05
   1.018678e+06   3.212410e+06
  -7.695831e+05   1.219274e+06
  -2.076720e+04  -2.622954e+06
   2.355466e+06  -2.182645e+06
   2.178875e+06   2.746151e+06
  -1.921935e+06   5.228744e+06
  -5.630736e+06   8.046349e+05
  -4.138509e+06  -5.905369e+06
   1.692564e+06  -7.179675e+06
   6.446897e+06  -1.908776e+06
   6.213504e+06   4.042205e+06
   1.771881e+06   5.477242e+06
  -3.136536e+06   2.567082e+06
  -4.906574e+06  -1.275457e+06
  -2.378111e+06  -3.104826e+06
   2.022472e+06  -1.974807e+06
   3.973047e+06   7.797452e+05
   1.752804e+06   2.344963e+06
  -1.495493e+06   1.177337e+06
  -1.650239e+06  -9.190462e+05
   9.546333e+05  -9.531590e+05
   2.156573e+06   1.200573e+06
  -2.316658e+05   2.699757e+06
  -3.686750e+06   1.626646e+06
  -4.526894e+06  -1.013920e+06
  -2.040110e+06  -3.377899e+06
   1.804518e+06  -4.651869e+06
   4.847570e+06  -4.210782e+06
   5.711722e+06  -1.279936e+06
   3.907112e+06   3.097485e+06
   6.013016e+05   5.645820e+06
  -1.657165e+06   4.372153e+06
  -1.473528e+06   1.351383e+06
  -3.025635e+05   1.061726e+05
  -4.343597e+05   1.029882e+06
  -1.916550e+06   1.439599e+06
  -2.764923e+06  -1.931987e+05
  -1.768152e+06  -2.191964e+06
   2.507510e+05  -2.200809e+06
   1.722395e+06  -1.097577e+05
   1.647800e+06   2.192930e+06
  -1.441078e+05   2.866952e+06
  -2.715864e+06   1.370516e+06
  -4.038225e+06  -1.382389e+06
  -2.688199e+06  -3.536310e+06
   2.165194e+05  -3.687373e+06
   2.039266e+06  -2.264602e+06
   1.906628e+06  -9.865095e+05
   1.636512e+06  -7.015241e+05
   2.785736e+06  -4.940115e+05
   4.134916e+06   7.491900e+05
   3.300027e+06   2.693824e+06
   5.355114e+04   3.988873e+06
  -3.224311e+06   3.698314e+06
  -4.158375e+06   1.870780e+06
  -2.537819e+06  -6.041651e+05
  -7.068383e+04  -2.221162e+06
   1.224849e+06  -1.788054e+06
   5.321888e+05   9.740210e+04
  -1.128870e+06   1.222014e+06
  -1.824840e+06   3.230105e+05
  -7.979222e+05  -1.169051e+06
   5.738581e+05  -1.075325e+06
   4.904729e+05   3.700475e+05
  -9.137676e+05   7.802652e+05
  -1.758070e+06  -9.861756e+05
  -8.049663e+05  -3.176261e+06
   1.256940e+06  -3.390605e+06
   2.928941e+06  -1.346079e+06
   3.333620e+06   1.262650e+06
   2.361844e+06   2.766870e+06
   4.492463e+05   2.652069e+06
  -1.282041e+06   1.412621e+06
  -1.572018e+06   1.562800e+05
  -4.800798e+05  -5.665556e+04
   3.350460e+05   7.385356e+05
  -4.038409e+05   1.262758e+06
  -1.809630e+06   5.133824e+05
  -1.929939e+06  -8.556969e+05
  -3.712175e+05  -1.343901e+06
   1.139684e+06  -5.477370e+05
   9.042901e+05   4.566960e+05
  -8.032536e+05   5.661259e+05
  -2.184760e+06  -2.623037e+05
  -1.793411e+06  -1.357742e+06
   2.230715e+05  -1.998219e+06
   2.302646e+06  -1.627736e+06
   2.728253e+06  -2.237967e+05
   1.152048e+06   1.235407e+06
  -9.123304e+05   1.398044e+06
  -1.473375e+06   1.355343e+05
  -1.408677e+05  -1.031273e+06
   1.487363e+06  -6.731035e+05
   1.664109e+06   7.772276e+05
   3.394977e+05   1.614215e+06
  -1.047102e+06   9.765101e+05
  -1.233468e+06  -2.737282e+05
  -2.651731e+05  -7.477715e+05
   7.505447e+05  -4.306519e+04
   6.823169e+05   1.039184e+06
  -6.095298e+05   1.370187e+06
  -1.980695e+06   4.660272e+05
  -1.956292e+06  -1.083461e+06
  -3.256966e+05  -2.028968e+06
   1.427550e+06  -1.570790e+06
   1.683847e+06  -1.839633e+05
   4.900309e+05   8.495839e+05
  -6.513671e+05   7.824970e+05
  -6.487727e+05   5.851184e+04
   9.924134e+04  -3.981763e+05
   5.231989e+05  -2.453158e+05
   1.992324e+05   7.718595e+04
  -3.924713e+05  -1.766050e+04
  -5.128233e+05  -6.118592e+05
   1.895916e+05  -1.144845e+06
   1.357325e+06  -8.546054e+05
   2.026194e+06   4.452392e+05
   1.385637e+06   1.932252e+06
  -2.683867e+05   2.375732e+06
  -1.618781e+06   1.382647e+06
  -1.687377e+06  -1.322435e+05
  -8.766472e+05  -9.292306e+05
  -3.172688e+05  -7.291842e+05
  -4.205414e+05  -2.800062e+05
  -5.529296e+05  -3.039607e+05
  -6.244369e+04  -7.160219e+05
   8.609746e+05  -8.711103e+05
   1.434934e+06  -3.140759e+05
   1.051228e+06   7.392958e+05
  -2.507166e+05   1.467180e+06
  -1.714762e+06   1.043508e+06
  -2.208877e+06  -5.152060e+05
  -1.087975e+06  -2.073352e+06
   1.003266e+06  -2.289202e+06
   2.482300e+06  -9.795153e+05
   2.306073e+06   6.550437e+05
   9.666872e+05   1.328478e+06
  -1.880253e+05   9.723029e+05
  -4.276628e+05   5.408547e+05
  -1.616124e+05   7.332807e+05
  -1.664800e+05   1.237907e+06
  -6.764144e+05   1.214920e+06
  -1.253900e+06   2.710699e+05
  -1.275923e+06  -1.094201e+06
  -4.964251e+05  -1.872371e+06
   6.487612e+05  -1.394407e+06
   1.263744e+06   2.324004e+04
   7.770248e+05   1.256185e+06
  -3.830946e+05   1.354034e+06
  -1.109602e+06   4.066594e+05
  -7.712215e+05  -6.437737e+05
   1.067427e+05  -1.016328e+06
   4.924782e+05  -7.584644e+05
   7.126921e+04  -4.252082e+05
  -4.081722e+05  -3.505771e+05
  -4.409290e+04  -3.820027e+05
   1.112511e+06  -1.852458e+05
   1.988977e+06   3.636978e+05
   1.559683e+06   1.035747e+06
  -4.055996e+04   1.380269e+06
  -1.547812e+06   1.068988e+06
  -1.786995e+06   2.518121e+05
  -8.149148e+05  -4.618919e+05
   2.535177e+05  -5.317015e+05
   4.904116e+05  -3.749237e+04
   6.950100e+03   3.898115e+05
  -4.532702e+05   2.368631e+05
  -4.596883e+05  -3.471645e+05
  -2.035095e+05  -7.244624e+05
  -5.620351e+04  -4.754051e+05
  -1.390680e+05   1.099856e+05
  -3.015572e+05   3.062642e+05
  -2.702558e+05  -2.306562e+05
   1.744930e+05  -9.748059e+05
   9.048631e+05  -1.019749e+06
   1.307619e+06  -1.207054e+05
   7.824346e+05   9.189203e+05
  -4.341877e+05   1.082146e+06
  -1.224024e+06   2.752443e+05
  -7.032937e+05  -5.875603e+05
   6.961645e+05  -6.253645e+05
   1.567469e+06   1.144454e+05
   1.002746e+06   8.609706e+05
  -4.702397e+05   9.803899e+05
  -1.487142e+06   4.734143e+05
  -1.228914e+06  -1.948273e+05
  -1.338942e+05  -5.133437e+05
   6.402336e+05  -2.616883e+05
   3.621958e+05   2.901475e+05
  -5.986073e+05   4.892832e+05
  -1.159911e+06  -1.231893e+05
  -6.137592e+05  -1.186076e+06
   6.416233e+05  -1.654654e+06
   1.491262e+06  -8.249783e+05
   1.219227e+06   7.809737e+05
   1.579968e+05   1.773674e+06
  -7.569728e+05   1.270060e+06
  -9.104008e+05  -1.805696e+05
  -4.121591e+05  -1.180620e+06
   2.198508e+05  -9.580733e+05
   5.499237e+05  -7.719367e+04
   4.633002e+05   3.839789e+05
   1.717115e+05   1.421088e+05
   4.455255e+04  -9.647796e+04
   2.496834e+05   2.897995e+05
   4.738555e+05   9.599061e+05
   1.803348e+05   1.068151e+06
  -6.948591e+05   3.746985e+05
  -1.445963e+06  -4.901480e+05
  -1.257434e+06  -8.506502e+05
  -1.687082e+05  -6.892722e+05
   8.614547e+05  -3.952108e+05
   9.775780e+05  -1.635418e+05
   3.442521e+05   5.442607e+04
  -1.525512e+05   2.187124e+05
  -2.612993e+04   2.060406e+05
   2.730681e+05   1.038703e+05
   4.233731e+04   1.338381e+05
  -6.710927e+05   2.163516e+05
  -1.030621e+06  -3.654011e+04
  -3.948809e+05  -6.919619e+05
   8.655899e+05  -1.138848e+06
   1.684576e+06  -7.018234e+05
   1.370057e+06   4.620346e+05
   2.392966e+05   1.394401e+06
  -7.815638e+05   1.336882e+06
  -1.046622e+06   5.028869e+05
  -6.442038e+05  -2.472698e+05
  -1.205915e+05  -3.567226e+05
   8.024055e+04  -6.015014e+04
  -7.596480e+04   2.073808e+04
  -2.927119e+05  -3.648544e+05
  -2.313431e+05  -8.010200e+05
   1.921374e+05  -6.647917e+05
   6.723919e+05   1.372856e+05
   7.075412e+05   9.583490e+05
   8.664664e+04   1.020584e+06
  -7.531702e+05   2.251544e+05
  -1.006992e+06  -7.359407e+05
  -3.194534e+05  -1.081595e+06
   7.179265e+05  -6.507991e+05
   1.099051e+06   9.666492e+04
   5.080524e+05   6.103556e+05
  -2.966954e+05   6.576732e+05
  -3.761254e+05   3.528877e+05
   2.498686e+05   1.372433e+04
   6.429290e+05  -2.666082e+04
   1.368659e+05   3.059978e+05
  -8.261747e+05   6.550286e+05
  -1.245930e+06   5.118994e+05
  -7.419815e+05  -1.866513e+05
   1.118433e+05  -8.536815e+05
   5.564301e+05  -8.307234e+05
   4.192414e+05  -1.468631e+05
   4.290496e+04   4.762957e+05
  -2.453347e+05   4.231460e+05
  -3.465490e+05  -1.549134e+05
  -2.400673e+05  -5.741755e+05
   6.183480e+04  -4.175421e+05
   3.853937e+05   5.237640e+04
   4.617935e+05   2.830475e+05
   2.364150e+05   9.708368e+04
  -2.821888e+04  -1.467028e+05
  -7.814946e+04  -3.850149e+04
   2.112327e+03   3.532648e+05
  -6.683255e+04   5.412921e+05
  -3.232595e+05   2.053200e+05
  -4.433977e+05  -3.875862e+05
  -1.387220e+05  -6.448526e+05
   4.101671e+05  -3.029468e+05
   6.499875e+05   2.895029e+05
   2.402974e+05   5.718093e+05
  -5.060251e+05   3.513493e+05
  -8.686111e+05  -9.103008e+04
  -4.657024e+05  -3.808975e+05
   2.975280e+05  -3.882075e+05
   6.349710e+05  -2.119685e+05
   2.457996e+05  -1.238865e+04
  -3.463975e+05   6.191986e+04
  -4.038649e+05  -7.103722e+04
   1.712498e+05  -2.875122e+05
   7.406551e+05  -2.584112e+05
