
 $NMID
 id='ANONYMOUS ', fmtdat='(2E16.6)'
 volume=1.0
 tramp=1.0
 $END
  -5.334929e+07  -1.567389e+05
  -3.224366e+07  -3.283253e+07
   6.823535e+06  -3.607158e+07
   2.614401e+07  -1.421132e+07
   1.586635e+07   6.341462e+06
  -2.976525e+06   8.915902e+06
  -9.448088e+06  -9.380417e+05
  -2.860133e+06  -9.299143e+06
   5.820753e+06  -9.131757e+06
   9.242842e+06  -2.064190e+06
   6.687447e+06   5.963230e+06
   7.293112e+05   8.290534e+06
  -3.846202e+06   2.561566e+06
  -2.501635e+06  -5.364591e+06
   3.623650e+06  -6.409643e+06
   7.551005e+06   1.203788e+06
   4.282492e+06   9.747891e+06
  -3.586469e+06   1.127789e+07
  -9.625088e+06   5.597849e+06
  -1.022918e+07  -2.020577e+06
  -6.171494e+06  -7.103045e+06
  -6.039157e+05  -8.077123e+06
   2.629627e+06  -5.649186e+06
   1.531290e+06  -2.685262e+06
  -1.143360e+06  -2.342214e+06
  -9.605385e+04  -4.165990e+06
   5.394477e+06  -4.126993e+06
   9.361745e+06  -2.742111e+05
   6.687410e+06   4.071471e+06
   7.186142e+04   4.805643e+06
  -3.704385e+06   2.300953e+06
  -2.326538e+06  -1.759864e+05
   8.313356e+05  -9.829072e+05
   2.425950e+06  -3.530444e+05
   2.103127e+06   1.599016e+06
   4.831839e+05   3.882234e+06
  -1.802080e+06   3.614569e+06
  -2.953160e+06  -2.039448e+05
  -1.482017e+06  -3.431036e+06
   7.118410e+05  -1.669442e+06
   1.844698e+05   2.493752e+06
  -2.440547e+06   2.259047e+06
  -2.382224e+06  -3.036642e+06
   2.206479e+06  -5.865843e+06
   6.482223e+06  -1.030303e+06
   4.835138e+06   6.517795e+06
  -1.764762e+06   8.079214e+06
  -7.065014e+06   2.284797e+06
  -6.717753e+06  -4.303350e+06
  -1.833603e+06  -5.868281e+06
   3.379386e+06  -2.678298e+06
   5.172311e+06   1.453231e+06
   2.431628e+06   3.384400e+06
  -2.279186e+06   2.149397e+06
  -4.354189e+06  -8.545014e+05
  -1.905046e+06  -2.592080e+06
   1.635300e+06  -1.315389e+06
   1.719246e+06   9.997173e+05
  -1.206132e+06   9.681599e+05
  -2.421293e+06  -1.542925e+06
   4.200266e+05  -3.223537e+06
   4.287205e+06  -1.877933e+06
   5.069885e+06   1.194427e+06
   2.259879e+06   3.764874e+06
  -1.792254e+06   5.048546e+06
  -4.949187e+06   4.605825e+06
  -6.011401e+06   1.580302e+06
  -4.333900e+06  -3.117424e+06
  -8.250809e+05  -5.980948e+06
   1.795662e+06  -4.657688e+06
   1.694144e+06  -1.296022e+06
   2.584007e+05   1.374227e+05
   1.602205e+05  -9.500485e+05
   1.707222e+06  -1.618958e+06
   2.766893e+06  -5.955653e+04
   1.898165e+06   2.031187e+06
  -1.033947e+05   2.151292e+06
  -1.620540e+06   1.375491e+05
  -1.648550e+06  -2.149202e+06
   7.040741e+04  -2.916465e+06
   2.750632e+06  -1.542310e+06
   4.309530e+06   1.260560e+06
   3.038269e+06   3.669661e+06
  -7.832801e+04   4.035306e+06
  -2.175496e+06   2.576544e+06
  -2.120858e+06   1.108839e+06
  -1.784406e+06   7.021138e+05
  -2.917232e+06   4.795049e+05
  -4.303739e+06  -7.806555e+05
  -3.431529e+06  -2.777771e+06
  -7.875710e+04  -4.108738e+06
   3.259074e+06  -3.830745e+06
   4.199922e+06  -2.011192e+06
   2.613214e+06   5.032606e+05
   1.839702e+05   2.230052e+06
  -1.157574e+06   1.874911e+06
  -5.501121e+05  -6.005854e+04
   1.116711e+06  -1.276070e+06
   1.892759e+06  -3.667451e+05
   8.797573e+05   1.199110e+06
  -5.498052e+05   1.099992e+06
  -4.533084e+05  -3.996912e+05
   1.042382e+06  -7.421448e+05
   1.866441e+06   1.202559e+06
   7.100373e+05   3.441052e+06
  -1.525812e+06   3.464223e+06
  -3.141208e+06   1.197558e+06
  -3.358252e+06  -1.436679e+06
  -2.296148e+06  -2.828151e+06
  -4.217210e+05  -2.656625e+06
   1.277942e+06  -1.443400e+06
   1.586590e+06  -1.896113e+05
   4.923062e+05   5.389585e+04
  -3.478465e+05  -7.577832e+05
   4.208969e+05  -1.328181e+06
   1.897013e+06  -5.549035e+05
   2.018470e+06   8.989050e+05
   3.775932e+05   1.413718e+06
  -1.180246e+06   5.604171e+05
  -8.983567e+05  -4.750285e+05
   8.585637e+05  -5.358083e+05
   2.211469e+06   3.352767e+05
   1.761561e+06   1.402264e+06
  -2.734018e+05   2.002258e+06
  -2.351305e+06   1.636456e+06
  -2.789361e+06   2.325399e+05
  -1.200263e+06  -1.278234e+06
   9.328719e+05  -1.478564e+06
   1.548181e+06  -1.682003e+05
   1.789783e+05   1.073501e+06
  -1.527356e+06   7.119144e+05
  -1.714060e+06  -8.053262e+05
  -3.247996e+05  -1.666657e+06
   1.106383e+06  -9.795311e+05
   1.267016e+06   3.198338e+05
   2.474307e+05   7.883529e+05
  -7.934389e+05   4.783437e+04
  -7.192532e+05  -1.064961e+06
   6.030969e+05  -1.415127e+06
   2.021455e+06  -5.064784e+05
   2.020922e+06   1.087414e+06
   3.518271e+05   2.084978e+06
  -1.466598e+06   1.626141e+06
  -1.735437e+06   1.878638e+05
  -4.954001e+05  -8.798026e+05
   6.733634e+05  -7.993732e+05
   6.433494e+05  -6.161892e+04
  -1.258582e+05   3.755397e+05
  -5.136328e+05   2.087564e+05
  -1.407270e+05  -8.200642e+04
   4.468775e+05   6.120206e+04
   5.216437e+05   6.715286e+05
  -2.157047e+05   1.190027e+06
  -1.399307e+06   8.798389e+05
  -2.082300e+06  -4.479297e+05
  -1.437373e+06  -1.972649e+06
   2.589813e+05  -2.427611e+06
   1.650124e+06  -1.398137e+06
   1.705622e+06   1.526879e+05
   8.544991e+05   9.293423e+05
   3.007007e+05   6.824525e+05
   4.571511e+05   2.352010e+05
   6.131507e+05   3.128401e+05
   8.127824e+04   7.585592e+05
  -8.911399e+05   8.937417e+05
  -1.464622e+06   3.069850e+05
  -1.048979e+06  -7.497268e+05
   2.752054e+05  -1.474135e+06
   1.750920e+06  -1.054038e+06
   2.252691e+06   5.229661e+05
   1.109396e+06   2.127398e+06
  -1.042882e+06   2.361142e+06
  -2.564782e+06   1.002866e+06
  -2.357966e+06  -6.934967e+05
  -9.509596e+05  -1.366787e+06
   2.218536e+05  -9.618467e+05
   4.140394e+05  -5.117522e+05
   1.059240e+05  -7.440349e+05
   1.274240e+05  -1.295284e+06
   6.868963e+05  -1.275811e+06
   1.296740e+06  -2.989632e+05
   1.321561e+06   1.105221e+06
   5.261537e+05   1.909653e+06
  -6.486806e+05   1.430964e+06
  -1.291877e+06  -2.216910e+04
  -7.988805e+05  -1.298291e+06
   4.074081e+05  -1.397647e+06
   1.170007e+06  -4.008392e+05
   8.089374e+05   6.995695e+05
  -1.281702e+05   1.075205e+06
  -5.410689e+05   7.840699e+05
  -9.053784e+04   4.230847e+05
   4.259968e+05   3.447926e+05
   5.218465e+04   3.856678e+05
  -1.153099e+06   1.958561e+05
  -2.060909e+06  -3.613085e+05
  -1.608000e+06  -1.062801e+06
   5.199628e+04  -1.438543e+06
   1.604355e+06  -1.121579e+06
   1.842628e+06  -2.549831e+05
   8.361835e+05   5.030230e+05
  -2.653103e+05   5.652887e+05
  -5.141417e+05   3.025232e+04
  -2.539352e+04  -4.168836e+05
   4.495012e+05  -2.495723e+05
   4.771762e+05   3.498517e+05
   2.378080e+05   7.264075e+05
   8.480109e+04   4.786751e+05
   1.426490e+05  -9.543745e+04
   2.916767e+05  -2.894205e+05
   2.740811e+05   2.378924e+05
  -1.602419e+05   9.870997e+05
  -9.177219e+05   1.055772e+06
  -1.362746e+06   1.580731e+05
  -8.377049e+05  -9.257136e+05
   4.296099e+05  -1.134554e+06
   1.261403e+06  -3.204479e+05
   7.264214e+05   5.859612e+05
  -7.149828e+05   6.415653e+05
  -1.596015e+06  -1.219473e+05
  -9.994754e+05  -8.875684e+05
   5.035627e+05  -9.906077e+05
   1.518444e+06  -4.574126e+05
   1.238941e+06   2.143780e+05
   1.259742e+05   5.207343e+05
  -6.584656e+05   2.607442e+05
  -3.827974e+05  -2.999360e+05
   5.927880e+05  -5.149532e+05
   1.184683e+06   9.597105e+04
   6.589484e+05   1.191321e+06
  -6.106956e+05   1.700106e+06
  -1.498549e+06   8.709835e+05
  -1.251262e+06  -7.761702e+05
  -1.794744e+05  -1.802250e+06
   7.640951e+05  -1.288838e+06
   9.293593e+05   1.938525e+05
   4.138843e+05   1.207286e+06
  -2.408346e+05   9.718178e+05
  -5.690464e+05   7.550170e+04
  -4.590900e+05  -3.876778e+05
  -1.574248e+05  -1.417782e+05
  -5.267173e+04   9.480657e+04
  -2.853425e+05  -3.000313e+05
  -5.023880e+05  -9.783174e+05
  -1.707092e+05  -1.088860e+06
   7.311011e+05  -3.896770e+05
   1.475384e+06   4.876028e+05
   1.269610e+06   8.613682e+05
   1.765323e+05   7.065072e+05
  -8.569612e+05   4.089397e+05
  -9.905184e+05   1.672040e+05
  -3.690176e+05  -5.975118e+04
   1.461920e+05  -2.248731e+05
   4.808365e+04  -2.045662e+05
  -2.544748e+05  -9.614931e+04
  -5.299969e+04  -1.327576e+05
   6.564065e+05  -2.309789e+05
   1.053213e+06   1.860353e+04
   4.442696e+05   6.980454e+05
  -8.460884e+05   1.180421e+06
  -1.722335e+06   7.550490e+05
  -1.428060e+06  -4.368100e+05
  -2.682123e+05  -1.414072e+06
   7.863161e+05  -1.381881e+06
   1.059109e+06  -5.406071e+05
   6.541710e+05   2.330104e+05
   1.369430e+05   3.607795e+05
  -5.899412e+04   7.114463e+04
   8.781294e+04  -8.598212e+03
   2.940729e+05   3.779096e+05
   2.365438e+05   8.167462e+05
  -1.825127e+05   6.843623e+05
  -6.800552e+05  -1.179823e+05
  -7.434876e+05  -9.515937e+05
  -1.256560e+05  -1.037217e+06
   7.479246e+05  -2.569962e+05
   1.039321e+06   7.172295e+05
   3.539150e+05   1.097480e+06
  -7.172053e+05   6.881031e+05
  -1.131709e+06  -7.612318e+04
  -5.414899e+05  -6.280416e+05
   2.914750e+05  -6.944085e+05
   3.956305e+05  -3.733116e+05
  -2.343551e+05  -7.714964e+03
  -6.498735e+05   3.737523e+04
  -1.510222e+05  -3.126867e+05
   8.352671e+05  -6.761158e+05
   1.284439e+06  -5.272869e+05
   7.819636e+05   1.918148e+05
  -9.975308e+04   8.797147e+05
  -5.721172e+05   8.663698e+05
  -4.418622e+05   1.734571e+05
  -5.835734e+04  -4.751694e+05
   2.387857e+05  -4.445277e+05
   3.506415e+05   1.366381e+05
   2.550716e+05   5.813515e+05
  -4.935156e+04   4.415013e+05
  -3.929264e+05  -4.056991e+04
  -4.836639e+05  -2.933380e+05
  -2.451105e+05  -1.066780e+05
   4.252646e+04   1.608622e+05
   8.687588e+04   6.621858e+04
  -2.838046e+04  -3.438053e+05
   2.248748e+04  -5.644217e+05
   3.089116e+05  -2.429757e+05
   4.759700e+05   3.635174e+05
   1.804879e+05   6.462452e+05
  -4.034880e+05   3.212922e+05
  -6.760821e+05  -2.721700e+05
  -2.603819e+05  -5.709605e+05
   5.160358e+05  -3.691826e+05
   8.959618e+05   7.063563e+04
   4.854790e+05   3.805039e+05
  -2.951519e+05   4.132714e+05
  -6.458854e+05   2.422336e+05
  -2.636547e+05   2.197863e+04
   3.301104e+05  -7.775421e+04
   4.010040e+05   4.895573e+04
  -1.575943e+05   2.804403e+05
  -7.259374e+05   2.688687e+05
