
 $NMID
 id='ANONYMOUS ', fmtdat='(2E16.6)'
 volume=1.0
 tramp=1.0
 $END
   2.440675e+07   7.320407e+05
   1.600912e+07   1.197387e+07
  -4.689533e+05   1.549731e+07
  -1.088945e+07   9.992644e+06
  -8.957208e+06   7.742019e+05
  -4.417590e+05  -4.444590e+06
   5.062058e+06  -2.098185e+06
   3.675048e+06   4.052453e+06
  -1.343881e+06   6.774236e+06
  -4.706789e+06   2.921245e+06
  -3.909365e+06  -3.309157e+06
  -3.539710e+05  -5.198464e+06
   2.426722e+06  -1.003368e+06
   1.792672e+06   4.367201e+06
  -1.587181e+06   5.035786e+06
  -4.158658e+06   3.718080e+05
  -2.951292e+06  -4.933783e+06
   1.278389e+06  -6.120047e+06
   4.790711e+06  -2.788385e+06
   4.740774e+06   1.574288e+06
   1.910524e+06   3.511766e+06
  -4.501479e+05   2.677686e+06
  -1.381674e+05   1.438647e+06
   1.781724e+06   1.912268e+06
   2.155690e+06   3.631757e+06
  -7.908117e+05   4.220594e+06
  -5.109464e+06   2.219479e+06
  -6.679179e+06  -1.164079e+06
  -3.565846e+06  -3.283052e+06
   1.488870e+06  -2.674244e+06
   3.696063e+06  -2.188640e+05
   1.334679e+06   1.892132e+06
  -2.557459e+06   1.916088e+06
  -3.836173e+06  -2.650528e+05
  -1.721231e+06  -2.928230e+06
   1.039527e+06  -3.633060e+06
   1.778957e+06  -1.520045e+06
   5.710645e+05   1.325962e+06
  -6.354795e+05   1.755183e+06
  -4.565275e+05  -7.191084e+05
   8.273588e+05  -2.981885e+06
   1.930937e+06  -1.986828e+06
   1.710974e+06   1.311848e+06
   3.507897e+04   2.976800e+06
  -1.853776e+06   9.285648e+05
  -2.031948e+06  -2.543193e+06
   2.920199e+05  -3.585706e+06
   3.463407e+06  -1.123141e+06
   4.491205e+06   2.370200e+06
   2.011952e+06   3.824791e+06
  -2.020090e+06   2.427293e+06
  -4.066921e+06  -2.224048e+05
  -2.521693e+06  -1.908179e+06
   7.588437e+05  -1.585978e+06
   2.516570e+06   5.623617e+03
   1.440492e+06   1.152322e+06
  -7.574114e+05   7.872780e+05
  -1.478603e+06  -5.089974e+05
  -1.011689e+05  -1.214721e+06
   1.501581e+06  -5.426805e+05
   1.203384e+06   7.791330e+05
  -9.067363e+05   1.340866e+06
  -2.530448e+06   4.004197e+05
  -1.621526e+06  -1.525211e+06
   1.384431e+06  -3.022422e+06
   3.982291e+06  -2.720934e+06
   4.142130e+06  -4.044177e+05
   2.183927e+06   2.516436e+06
   8.288556e+04   4.023621e+06
  -7.471908e+05   3.393748e+06
  -6.406810e+05   1.867070e+06
  -7.943887e+05   1.064711e+06
  -1.681447e+06   1.027835e+06
  -2.584159e+06   4.414173e+05
  -2.466601e+06  -1.249740e+06
  -1.039017e+06  -2.723676e+06
   9.330968e+05  -2.244698e+06
   2.130029e+06   1.347483e+05
   1.603068e+06   2.398576e+06
  -3.956464e+05   2.596372e+06
  -2.384786e+06   7.066205e+05
  -2.790913e+06  -1.571131e+06
  -1.414501e+06  -2.580807e+06
   3.662782e+05  -2.098243e+06
   1.104251e+06  -1.151668e+06
   8.797659e+05  -7.497555e+05
   1.035385e+06  -8.876690e+05
   2.282302e+06  -7.193514e+05
   3.507666e+06   4.202732e+05
   2.883213e+06   2.210025e+06
   9.265776e+04   3.495404e+06
  -2.949774e+06   3.219364e+06
  -3.852063e+06   1.348143e+06
  -2.121032e+06  -9.407220e+05
   3.932724e+05  -2.064104e+06
   1.412201e+06  -1.357145e+06
   4.168114e+05   2.327844e+05
  -1.124750e+06   9.921340e+05
  -1.506024e+06   2.262047e+05
  -5.006595e+05  -9.545529e+05
   6.513543e+05  -9.529898e+05
   6.879906e+05   2.969925e+05
  -4.346296e+05   1.107194e+06
  -1.592443e+06   4.067304e+04
  -1.534887e+06  -2.222213e+06
   6.132744e+04  -3.450663e+06
   2.259744e+06  -2.239025e+06
   3.477857e+06   5.241668e+05
   2.729921e+06   2.624184e+06
   5.695073e+05   2.693415e+06
  -1.275206e+06   1.290064e+06
  -1.484987e+06   3.397034e+04
  -4.301380e+05  -5.452178e+04
   3.082165e+05   6.498819e+05
  -2.563069e+05   1.023243e+06
  -1.411740e+06   4.522512e+05
  -1.632972e+06  -5.760116e+05
  -4.342514e+05  -1.059243e+06
   9.666264e+05  -5.504262e+05
   9.610196e+05   3.927484e+05
  -6.178630e+05   7.662177e+05
  -2.184501e+06   7.029009e+04
  -1.997002e+06  -1.227159e+06
   1.306513e+04  -2.063007e+06
   2.113283e+06  -1.664237e+06
   2.489142e+06  -2.613857e+05
   1.013790e+06   1.010690e+06
  -7.371663e+05   1.100386e+06
  -1.135505e+06   9.184845e+04
  -3.491634e+04  -8.181166e+05
   1.287476e+06  -5.659217e+05
   1.506150e+06   6.076142e+05
   4.673534e+05   1.430493e+06
  -8.080526e+05   1.046506e+06
  -1.163535e+06  -4.383589e+04
  -3.922202e+05  -6.089479e+05
   5.726221e+05  -7.728751e+04
   5.659561e+05   8.954251e+05
  -5.871031e+05   1.186541e+06
  -1.778992e+06   3.499929e+05
  -1.708505e+06  -9.991671e+05
  -2.867750e+05  -1.782567e+06
   1.211792e+06  -1.401660e+06
   1.480766e+06  -2.310331e+05
   5.092335e+05   7.265401e+05
  -5.461454e+05   7.469251e+05
  -6.746060e+05   3.864101e+04
   1.714933e+04  -5.298479e+05
   6.137101e+05  -3.880463e+05
   4.513515e+05   1.306989e+05
  -2.229291e+05   2.311014e+05
  -5.539957e+05  -3.580961e+05
   2.769568e+04  -9.989503e+05
   1.164380e+06  -8.075170e+05
   1.813633e+06   3.710825e+05
   1.230258e+06   1.719277e+06
  -2.492919e+05   2.169649e+06
  -1.486623e+06   1.367807e+06
  -1.652870e+06  -2.843098e+04
  -9.757687e+05  -9.674066e+05
  -3.291734e+05  -9.528921e+05
  -2.146575e+05  -4.245445e+05
  -3.170009e+05  -1.949192e+05
  -3.618688e+04  -5.211613e+05
   7.161864e+05  -8.205716e+05
   1.333276e+06  -3.810845e+05
   1.081640e+06   7.070910e+05
  -1.446850e+05   1.481749e+06
  -1.568131e+06   1.051601e+06
  -2.055511e+06  -4.363254e+05
  -1.073437e+06  -1.842229e+06
   7.606778e+05  -2.058806e+06
   2.133963e+06  -9.909167e+05
   2.158863e+06   4.395142e+05
   1.087654e+06   1.202809e+06
  -6.329889e+04   1.067571e+06
  -5.261540e+05   6.497397e+05
  -3.835761e+05   6.251799e+05
  -2.614031e+05   9.608604e+05
  -5.648505e+05   9.843135e+05
  -1.052482e+06   2.088420e+05
  -1.109581e+06  -1.003558e+06
  -4.207393e+05  -1.698221e+06
   6.117914e+05  -1.254066e+06
   1.157131e+06  -5.431727e+03
   7.441089e+05   1.066155e+06
  -2.326477e+05   1.214817e+06
  -8.758803e+05   5.090471e+05
  -6.900549e+05  -3.706068e+05
  -5.411808e+04  -8.067706e+05
   2.631144e+05  -7.190873e+05
  -5.151795e+03  -4.624500e+05
  -3.294433e+05  -3.564686e+05
  -1.443693e+04  -3.600952e+05
   9.403767e+05  -1.915995e+05
   1.703511e+06   2.901818e+05
   1.404975e+06   8.744687e+05
   7.804517e+04   1.164284e+06
  -1.261963e+06   9.280050e+05
  -1.568327e+06   3.079554e+05
  -7.850070e+05  -2.690185e+05
   1.653309e+05  -4.107355e+05
   4.050436e+05  -9.707810e+04
  -3.701297e+04   2.570367e+05
  -4.580601e+05   1.801548e+05
  -3.936354e+05  -3.183091e+05
  -6.291437e+04  -6.805669e+05
   5.969858e+04  -4.304878e+05
  -1.439061e+05   1.760004e+05
  -3.673054e+05   3.666994e+05
  -2.652356e+05  -1.979472e+05
   2.220702e+05  -9.141319e+05
   8.159400e+05  -8.933672e+05
   1.042488e+06  -3.277835e+04
   5.656316e+05   8.310459e+05
  -3.934145e+05   8.667668e+05
  -1.023024e+06   1.335742e+05
  -6.102090e+05  -5.721856e+05
   6.050349e+05  -5.860341e+05
   1.472537e+06   5.123911e+04
   1.058004e+06   7.640675e+05
  -3.244218e+05   9.881895e+05
  -1.391674e+06   5.816078e+05
  -1.223171e+06  -1.045046e+05
  -1.767314e+05  -4.976538e+05
   5.718765e+05  -2.901264e+05
   2.914666e+05   2.266244e+05
  -5.972167e+05   3.782952e+05
  -1.033059e+06  -2.090577e+05
  -4.351487e+05  -1.119867e+06
   7.231184e+05  -1.440493e+06
   1.418975e+06  -6.468968e+05
   1.089577e+06   7.707045e+05
   1.023002e+05   1.644693e+06
  -7.132799e+05   1.211446e+06
  -8.563364e+05  -1.045027e+05
  -4.404569e+05  -1.079080e+06
   1.184497e+05  -9.359743e+05
   4.774275e+05  -1.082346e+05
   4.894557e+05   3.783116e+05
   2.326145e+05   1.631628e+05
   1.333509e+04  -1.146223e+05
   1.152633e+05   2.052602e+05
   3.805872e+05   8.571743e+05
   2.466046e+05   1.004515e+06
  -5.317817e+05   3.601506e+05
  -1.332926e+06  -4.712140e+05
  -1.230746e+06  -8.011214e+05
  -1.580267e+05  -6.142743e+05
   8.721578e+05  -3.342919e+05
   9.286647e+05  -1.643200e+05
   2.505282e+05   2.076737e+03
  -1.733752e+05   1.868133e+05
   6.319448e+04   2.418782e+05
   3.436298e+05   1.610589e+05
  -3.430242e+03   1.261885e+05
  -7.210349e+05   1.374827e+05
  -9.234538e+05  -8.531495e+04
  -1.984065e+05  -6.116997e+05
   9.054145e+05  -9.498283e+05
   1.477215e+06  -5.304056e+05
   1.107973e+06   5.015765e+05
   1.427903e+05   1.289685e+06
  -7.149902e+05   1.166101e+06
  -9.578535e+05   3.637338e+05
  -5.903233e+05  -2.979032e+05
  -5.784602e+04  -3.227542e+05
   1.561739e+05   1.222893e+04
  -4.243624e+04   8.656475e+04
  -3.056966e+05  -3.125455e+05
  -2.303092e+05  -7.368844e+05
   2.107720e+05  -5.769745e+05
   6.223557e+05   2.109187e+05
   5.538099e+05   9.520083e+05
  -5.670389e+04   9.119949e+05
  -7.428366e+05   8.606279e+04
  -8.565932e+05  -7.826316e+05
  -1.963241e+05  -9.828388e+05
   6.821400e+05  -4.987401e+05
   9.469789e+05   1.444320e+05
   3.942355e+05   5.009775e+05
  -2.762509e+05   5.031586e+05
  -2.729563e+05   2.948218e+05
   3.096753e+05   5.914111e+04
   6.066553e+05   1.038648e+04
   8.677745e+04   2.633782e+05
  -7.708488e+05   5.831317e+05
  -1.078491e+06   4.988044e+05
  -5.880456e+05  -1.178141e+05
   1.323167e+05  -7.376445e+05
   4.527931e+05  -7.083936e+05
   2.953455e+05  -6.468802e+04
  -2.370712e+04   4.662791e+05
  -2.489767e+05   3.290274e+05
  -3.094576e+05  -2.284606e+05
  -1.875831e+05  -5.312843e+05
   8.526207e+04  -3.054541e+05
   3.426697e+05   9.353821e+04
   3.872383e+05   2.160123e+05
   2.142506e+05   4.734847e+04
   1.380241e+04  -7.084755e+04
  -7.728030e+04   8.804947e+04
  -1.204464e+05   3.632269e+05
  -2.250153e+05   3.937059e+05
  -3.394155e+05   3.094872e+04
  -2.802826e+05  -4.519344e+05
   3.425713e+04  -5.929298e+05
   4.195819e+05  -2.199058e+05
   5.246854e+05   3.332072e+05
   1.564261e+05   5.560671e+05
  -4.472138e+05   2.918136e+05
  -7.367205e+05  -1.444105e+05
  -3.862839e+05  -3.622019e+05
   2.795088e+05  -2.835515e+05
   5.577651e+05  -9.992414e+04
   1.613957e+05   5.615504e+03
  -3.981830e+05  -2.492178e+04
  -3.918806e+05  -1.685664e+05
   2.395674e+05  -3.024537e+05
   7.968912e+05  -1.972493e+05
