
 $NMID
 id='ANONYMOUS ', fmtdat='(2E16.6)'
 volume=1.0
 tramp=1.0
 $END
  -3.532811e+07   1.273381e+06
  -2.285556e+07  -1.962038e+07
   2.408987e+06  -2.373971e+07
   1.650731e+07  -1.153558e+07
   1.137454e+07   2.344073e+06
  -1.022550e+06   6.150366e+06
  -6.588430e+06   6.148961e+05
  -3.073516e+06  -6.016656e+06
   3.101754e+06  -7.218019e+06
   6.256870e+06  -2.391011e+06
   4.926238e+06   3.973124e+06
   7.300315e+05   5.999803e+06
  -2.720481e+06   1.743798e+06
  -2.048512e+06  -4.205324e+06
   2.196339e+06  -5.150555e+06
   5.311276e+06   2.249253e+05
   3.503192e+06   6.512536e+06
  -1.903306e+06   7.942985e+06
  -6.351430e+06   4.081819e+06
  -6.852197e+06  -1.272858e+06
  -3.955694e+06  -4.606666e+06
  -3.803960e+05  -4.939591e+06
   1.157301e+06  -3.397670e+06
   1.248591e+03  -2.104716e+06
  -1.422308e+06  -2.497073e+06
   1.449369e+05  -3.622535e+06
   4.447013e+06  -2.999460e+06
   7.085170e+06   4.122298e+04
   4.731763e+06   3.033914e+06
  -3.850724e+05   3.347334e+06
  -3.132189e+06   1.304557e+06
  -1.632616e+06  -7.322792e+05
   1.355751e+06  -1.210960e+06
   2.621535e+06  -1.223950e+05
   1.708099e+06   1.831332e+06
  -5.501853e+04   3.246203e+06
  -1.442927e+06   2.389162e+06
  -1.656333e+06  -5.042487e+05
  -5.881771e+05  -2.285705e+06
   4.568112e+05  -5.661357e+05
  -1.624480e+05   2.332965e+06
  -1.863249e+06   1.923016e+06
  -1.905364e+06  -1.914926e+06
   8.904273e+05  -4.072067e+06
   3.845519e+06  -1.062610e+06
   3.336869e+06   4.001511e+06
  -7.263422e+05   5.366946e+06
  -4.696815e+06   1.755991e+06
  -5.111849e+06  -2.808928e+06
  -1.826072e+06  -4.271131e+06
   2.346192e+06  -2.326485e+06
   4.115900e+06   6.528068e+05
   2.242217e+06   2.316016e+06
  -1.342592e+06   1.723431e+06
  -3.111528e+06  -2.924525e+05
  -1.555737e+06  -1.651506e+06
   1.048326e+06  -9.912768e+05
   1.430067e+06   6.355498e+05
  -5.296995e+05   9.755782e+05
  -1.810657e+06  -4.800290e+05
  -3.534966e+05  -1.897662e+06
   2.387822e+06  -1.565814e+06
   3.481844e+06   2.808414e+05
   1.834859e+06   2.355029e+06
  -1.252496e+06   3.661621e+06
  -3.791152e+06   3.416973e+06
  -4.455282e+06   1.096868e+06
  -3.031087e+06  -2.345825e+06
  -6.057319e+05  -4.419108e+06
   1.030675e+06  -3.616625e+06
   1.043225e+06  -1.391851e+06
   4.405763e+05  -3.361735e+05
   6.893337e+05  -8.435853e+05
   1.759205e+06  -9.953823e+05
   2.272658e+06   3.688611e+05
   1.367610e+06   1.966485e+06
  -3.486322e+05   1.896231e+06
  -1.591904e+06   5.362408e+04
  -1.465445e+06  -1.915191e+06
   1.062276e+05  -2.407108e+06
   2.200056e+06  -1.095618e+06
   3.192853e+06   1.086327e+06
   2.124892e+06   2.678399e+06
  -5.608123e+04   2.766790e+06
  -1.403022e+06   1.761088e+06
  -1.338509e+06   8.910711e+05
  -1.247862e+06   7.312311e+05
  -2.279385e+06   5.869311e+05
  -3.454128e+06  -4.231445e+05
  -2.844584e+06  -2.101127e+06
  -1.845158e+05  -3.329069e+06
   2.605184e+06  -3.177078e+06
   3.452812e+06  -1.604336e+06
   2.089199e+06   5.302141e+05
   2.766004e+02   1.861262e+06
  -1.047391e+06   1.457705e+06
  -4.269294e+05  -1.021026e+05
   9.360871e+05  -1.028047e+06
   1.484764e+06  -3.170256e+05
   6.527420e+05   9.216301e+05
  -4.857682e+05   9.117743e+05
  -4.931949e+05  -2.981935e+05
   6.583956e+05  -8.137957e+05
   1.556903e+06   5.225629e+05
   1.026413e+06   2.512407e+06
  -6.809020e+05   3.050912e+06
  -2.369289e+06   1.520190e+06
  -3.001928e+06  -8.160557e+05
  -2.229079e+06  -2.320220e+06
  -4.893251e+05  -2.307889e+06
   1.068650e+06  -1.226374e+06
   1.331135e+06  -1.471435e+05
   4.047681e+05   3.385716e+04
  -3.071679e+05  -6.070542e+05
   2.658991e+05  -1.048895e+06
   1.446551e+06  -4.955466e+05
   1.630810e+06   6.022631e+05
   3.884322e+05   1.083016e+06
  -9.283048e+05   5.146862e+05
  -8.158403e+05  -3.581623e+05
   6.415471e+05  -5.759094e+05
   1.919452e+06   8.029441e+04
   1.653970e+06   1.106476e+06
  -8.776719e+04   1.768418e+06
  -1.907106e+06   1.491979e+06
  -2.299593e+06   2.867704e+05
  -1.005542e+06  -9.749661e+05
   6.937357e+05  -1.165030e+06
   1.181718e+06  -1.604059e+05
   1.307005e+05   8.286383e+05
  -1.214244e+06   6.036355e+05
  -1.430289e+06  -5.777711e+05
  -3.804179e+05  -1.349030e+06
   8.222108e+05  -9.058696e+05
   1.070425e+06   1.395982e+05
   2.912719e+05   6.109191e+05
  -6.035752e+05   7.522618e+04
  -5.947685e+05  -8.393289e+05
   4.782902e+05  -1.156299e+06
   1.646658e+06  -4.342247e+05
   1.663016e+06   8.547985e+05
   3.367431e+05   1.684044e+06
  -1.131744e+06   1.365178e+06
  -1.404288e+06   2.259447e+05
  -4.588248e+05  -6.925846e+05
   5.148849e+05  -6.919385e+05
   5.680640e+05  -6.105743e+04
  -5.957068e+04   3.882050e+05
  -4.792939e+05   2.612146e+05
  -2.411114e+05  -8.849528e+04
   3.068623e+05  -7.079177e+04
   4.844249e+05   4.506460e+05
  -8.373148e+04   9.667266e+05
  -1.101216e+06   7.735315e+05
  -1.716135e+06  -3.034550e+05
  -1.220953e+06  -1.575924e+06
   1.563261e+05  -2.014222e+06
   1.332952e+06  -1.244665e+06
   1.464054e+06   4.127235e+04
   8.101876e+05   7.994847e+05
   2.864700e+05   6.865595e+05
   3.089964e+05   2.615870e+05
   4.287332e+05   2.082345e+05
   7.495749e+04   5.653889e+05
  -6.829398e+05   7.715692e+05
  -1.212908e+06   3.328729e+05
  -9.413361e+05  -6.072548e+05
   1.515427e+05  -1.289160e+06
   1.421915e+06  -9.595254e+05
   1.892881e+06   3.610941e+05
   1.005563e+06   1.708039e+06
  -7.342343e+05   1.962394e+06
  -2.035245e+06   9.348031e+05
  -1.989474e+06  -4.430450e+05
  -9.128294e+05  -1.100044e+06
   1.087081e+05  -8.811327e+05
   3.895147e+05  -5.055078e+05
   1.766573e+05  -6.004342e+05
   1.249198e+05  -9.987978e+05
   5.141419e+05  -1.014803e+06
   1.023604e+06  -2.606400e+05
   1.095085e+06   8.840986e+05
   4.673030e+05   1.561514e+06
  -5.102233e+05   1.190940e+06
  -1.070112e+06   2.561201e+04
  -7.074545e+05  -1.016994e+06
   2.496717e+05  -1.154840e+06
   8.940136e+05  -4.211950e+05
   6.774138e+05   4.603626e+05
  -1.217731e+04   8.357523e+05
  -3.433290e+05   6.717275e+05
  -3.183585e+04   3.849754e+05
   3.415464e+05   2.915889e+05
   4.105572e+04   3.230208e+05
  -9.143131e+05   1.996859e+05
  -1.661720e+06  -2.302843e+05
  -1.346510e+06  -8.072318e+05
  -4.354835e+04  -1.146181e+06
   1.231120e+06  -9.436206e+05
   1.488023e+06  -2.909034e+05
   7.207896e+05   3.257630e+05
  -1.763353e+05   4.394148e+05
  -4.043743e+05   6.567565e+04
  -1.049681e+04  -2.997672e+05
   3.860199e+05  -2.015224e+05
   3.913897e+05   2.784830e+05
   1.590267e+05   6.048515e+05
   3.155672e+04   3.933580e+05
   1.224445e+05  -1.168410e+05
   2.747552e+05  -2.869878e+05
   2.407081e+05   1.839758e+05
  -1.363598e+05   8.317713e+05
  -7.286326e+05   8.784716e+05
  -1.055229e+06   1.275696e+05
  -6.480410e+05  -7.428901e+05
   3.272795e+05  -8.938111e+05
   9.936645e+05  -2.416585e+05
   6.010545e+05   4.832261e+05
  -5.614548e+05   5.546204e+05
  -1.341003e+06  -3.699956e+04
  -9.126647e+05  -6.978411e+05
   3.434902e+05  -8.725860e+05
   1.258136e+06  -4.836794e+05
   1.074850e+06   1.124207e+05
   1.420012e+05   4.400514e+05
  -5.318098e+05   2.549149e+05
  -3.057719e+05  -2.216794e+05
   5.012256e+05  -4.099966e+05
   9.713369e+05   9.423090e+04
   5.179118e+05   9.870592e+05
  -5.261639e+05   1.390614e+06
  -1.244986e+06   7.095797e+05
  -1.043766e+06  -6.374634e+05
  -1.740233e+05  -1.497881e+06
   6.096237e+05  -1.108352e+06
   7.840307e+05   1.097979e+05
   4.010738e+05   9.879938e+05
  -1.372569e+05   8.364377e+05
  -4.571140e+05   9.330719e+04
  -4.196183e+05  -3.211197e+05
  -1.684246e+05  -1.276827e+05
  -2.855214e+04   9.143112e+04
  -1.916338e+05  -2.154195e+05
  -4.157439e+05  -7.885127e+05
  -2.054386e+05  -9.086286e+05
   5.482870e+05  -3.473100e+05
   1.238113e+06   3.775187e+05
   1.108850e+06   6.912511e+05
   1.650159e+05   5.730311e+05
  -7.377015e+05   3.481588e+05
  -8.312000e+05   1.698436e+05
  -2.771997e+05  -1.944099e+04
   1.309638e+05  -1.840981e+05
  -5.297546e+03  -1.937652e+05
  -2.562714e+05  -1.022170e+05
  -2.808064e+04  -1.107311e+05
   5.868642e+05  -1.811324e+05
   8.640413e+05   1.318262e+04
   3.108780e+05   5.589774e+05
  -7.237753e+05   9.574650e+05
  -1.379338e+06   6.161009e+05
  -1.127779e+06  -3.637631e+05
  -2.224768e+05  -1.171098e+06
   6.174494e+05  -1.137414e+06
   8.645739e+05  -4.299153e+05
   5.484642e+05   2.092405e+05
   9.842450e+04   2.942023e+05
  -8.533574e+04   3.075693e+04
   5.946505e+04  -3.963146e+04
   2.696928e+05   2.955239e+05
   2.244458e+05   6.718912e+05
  -1.504198e+05   5.572361e+05
  -5.700499e+05  -1.195045e+05
  -5.973246e+05  -8.045366e+05
  -6.767264e+04  -8.471443e+05
   6.384904e+05  -1.773695e+05
   8.498632e+05   6.183981e+05
   2.764180e+05   8.977702e+05
  -5.892761e+05   5.437062e+05
  -9.127524e+05  -6.116229e+04
  -4.310821e+05  -4.812636e+05
   2.274153e+05  -5.373700e+05
   2.863331e+05  -3.052930e+05
  -2.314517e+05  -2.086509e+04
  -5.457700e+05   3.137636e+04
  -1.151001e+05  -2.480175e+05
   6.817441e+05  -5.730948e+05
   1.022083e+06  -4.812658e+05
   6.102790e+05   1.165059e+05
  -7.498340e+04   7.113333e+05
  -4.272972e+05   7.072339e+05
  -3.222513e+05   1.219082e+05
  -3.179113e+04  -4.064260e+05
   1.984666e+05  -3.477702e+05
   2.911195e+05   1.438835e+05
   2.109937e+05   4.780103e+05
  -4.382355e+04   3.322843e+05
  -3.222593e+05  -4.470008e+04
  -3.911438e+05  -2.118221e+05
  -2.041454e+05  -6.348882e+04
   2.051105e+04   1.038096e+05
   7.482201e+04  -3.286119e+03
   2.309376e+04  -3.033869e+05
   8.013047e+04  -4.235322e+05
   2.712455e+05  -1.380706e+05
   3.471644e+05   3.346998e+05
   9.226924e+04   5.336083e+05
  -3.468100e+05   2.504174e+05
  -5.353639e+05  -2.403987e+05
  -2.012058e+05  -4.818365e+05
   4.112543e+05  -3.047044e+05
   7.177869e+05   6.475162e+04
   3.933567e+05   3.096749e+05
  -2.382392e+05   3.169791e+05
  -5.192176e+05   1.735465e+05
  -1.891082e+05   1.630112e+04
   3.090941e+05  -3.639897e+04
   3.444417e+05   7.737266e+04
  -1.607050e+05   2.548091e+05
  -6.488155e+05   2.239894e+05
