
 $NMID
 id='ANONYMOUS ', fmtdat='(2E16.6)'
 volume=1.0
 tramp=1.0
 $END
   1.211079e+03   1.786404e+02
   8.806844e+02   8.524850e+02
  -3.033512e+02   9.584427e+02
  -7.613511e+02   2.872745e+02
  -3.013586e+02  -1.336162e+02
   6.966425e+01  -9.237130e+01
   2.401681e+02   1.347027e+02
   1.845475e+01   2.419511e+02
  -2.457943e+02   1.572805e+02
  -2.719065e+02   3.463841e+01
  -1.910018e+02  -1.843641e+02
  -3.140447e+01  -2.656895e+02
   6.861750e+01  -1.050516e+02
   1.145125e+02   1.454668e+02
   3.234062e+00   1.647608e+02
  -1.334398e+02   2.046600e+01
   2.068010e-01  -1.582229e+02
   7.006799e+01  -2.065097e+02
   1.361904e+02  -7.626936e+01
   1.628350e+02   5.677417e+01
   5.688966e+01   8.669954e+01
  -4.412682e+01   1.101421e+02
  -7.624851e+01   3.955872e+01
   7.727890e+00   2.637567e+01
   8.216072e+01   8.077688e+01
   1.535508e+01   1.227539e+02
  -1.904260e+02   9.389254e+01
  -2.680806e+02  -9.671596e+00
  -1.509210e+02  -1.109365e+02
   7.581142e+01  -8.887986e+01
   2.223159e+02   1.170430e+01
   8.733381e+01   1.372073e+02
  -4.372263e+01   1.245402e+02
  -1.724556e+02   5.499036e+01
  -1.098270e+02  -2.963558e+01
  -4.170608e+01  -1.173544e+02
  -1.093645e+01  -7.957512e+01
  -1.675770e+00   3.008315e+01
  -2.251542e+01   1.001897e+02
  -6.827462e+01   1.666088e+01
  -1.874983e+01  -1.401574e+02
   5.339389e+01  -1.649110e+02
   7.836316e+01  -2.715250e+01
   8.436996e+01   9.151582e+01
  -3.736032e+00   3.242424e+01
  -2.827469e+01  -1.332505e+02
   5.521454e+01  -1.330653e+02
   1.131006e+02   3.603761e+01
   1.408643e+02   1.459706e+02
   5.549951e+01   1.275494e+02
  -1.014865e+02   2.762196e+01
  -1.699521e+02  -3.358928e+01
  -1.257575e+02  -5.594215e+01
  -2.400527e+00  -7.804969e+01
   1.182422e+02  -5.309181e+01
   1.203122e+02   3.659722e+01
   7.234629e+00  -1.545517e+01
   1.633064e+01  -5.726777e+00
   4.419617e+01   1.086672e+01
   3.655912e+01   7.737130e+01
  -2.032926e+01   9.494549e+01
  -4.329153e+01   1.343564e+01
  -1.058411e+02  -4.704781e+00
  -6.032263e+01  -2.619252e+01
   8.599536e+00  -5.507448e+01
   7.841403e+01  -1.130561e+02
   1.119292e+02  -1.145848e+02
   1.106498e+02   2.223230e+01
   5.148811e+01   1.208307e+02
  -5.776442e+01   1.612664e+02
  -3.063985e+01   8.309545e+01
  -2.657363e+01   2.672102e+01
  -3.880518e+01   9.130683e+00
  -7.811271e+01  -3.417054e+01
  -5.690236e+01  -3.360855e+01
   1.249642e+01  -3.874665e+01
   3.761707e+01  -4.319240e+01
   2.371980e+01   1.370544e+01
   1.852554e+01   4.341776e+01
  -1.886488e+01   7.460188e+01
  -7.596519e+01   1.082162e+01
  -1.002991e+02  -5.447369e+01
  -6.115864e+01  -9.345036e+01
   1.785493e+01  -1.064235e+02
   8.209287e+01  -6.082750e+01
   6.823028e+01  -3.916144e+01
   7.379287e+01   1.503348e+00
   9.150239e+01   2.532472e+01
   1.131967e+02   2.412200e+01
   1.254537e+02   6.741689e+01
  -1.183234e+01   1.281747e+02
  -1.236249e+02   1.170966e+02
  -1.683494e+02   3.382145e+01
  -1.257355e+02  -2.974664e+00
  -1.353278e+01  -8.291986e+01
   4.034440e+01  -7.208697e+01
  -2.163169e+00  -4.481509e+01
  -3.429395e+01   5.454847e+00
  -7.129659e+01  -3.671916e+01
  -1.093850e+01  -3.268523e+01
   1.934681e+01  -1.054859e+01
   5.536488e+01   9.812351e+00
  -8.029541e-01   5.949363e+01
  -2.740671e+01  -1.191457e+01
  -5.047109e+01  -7.501318e+01
  -1.477693e+01  -1.012785e+02
   8.751273e+01  -7.337083e+01
   7.436491e+01   4.422462e+01
   1.097564e+02   1.193257e+02
   3.914783e+01   9.461553e+01
  -5.242991e+01   7.321882e+01
  -7.289788e+01   2.587296e+01
  -4.593094e+01  -3.033496e+00
   3.457905e+01   1.370189e+01
   1.055143e+01   6.700316e+00
  -5.554818e+01   3.981006e+01
  -6.701368e+01  -6.835007e+00
  -1.123363e+01   2.185591e+00
   3.455038e+01  -9.120168e+00
  -1.908748e+01   2.181287e+01
  -3.869755e+01   1.740206e+01
  -9.593070e+01  -4.158671e+01
  -9.596345e+01  -7.334654e+01
  -4.523502e+01  -7.631584e+01
   9.577046e+01  -7.232287e+01
   8.761696e+01  -2.478567e+01
   2.640157e+01  -8.441353e+00
   6.844157e+00   5.570428e+01
  -8.336702e-01  -8.594874e+00
   1.076127e+01  -2.450951e+01
   4.898324e+01  -1.132959e+01
   8.038805e+01   2.060325e+01
   5.191474e+00   5.960695e+01
  -1.455597e+01   7.574730e+01
  -4.717004e+01   1.009418e+00
  -2.116764e+01  -2.950470e+00
   1.837816e-01   2.224445e+01
  -1.439815e+01   3.027812e+01
  -1.562959e+01   3.882891e+01
  -5.551124e+01   1.175158e+01
  -7.914443e+01   1.214014e+00
   1.366161e+01  -5.617616e+01
   3.828440e+01  -1.608816e+01
   2.117087e+01  -2.622886e+01
   2.139490e+01   6.070925e+01
  -1.582738e+01   1.964525e+01
  -2.605611e+01   9.137013e-01
   4.210197e+00   2.412301e+01
   1.506039e+01  -2.539591e+01
   1.014485e+01  -4.388590e+01
  -6.633750e+00  -1.693694e+01
  -5.069225e+01  -2.284506e+01
  -6.695163e+00  -3.344049e+01
   5.035323e+01  -4.211554e+01
   9.169989e+01   1.836246e+01
   3.802227e+01   7.719440e+01
  -1.810112e+01   4.979670e+01
  -1.775018e+01   3.271681e+01
  -6.125191e+01   2.400521e+01
   4.977695e+00  -2.808482e+00
  -1.672657e+01  -6.344504e-01
  -2.360488e+00   2.431566e+01
  -3.360441e+01  -2.421541e+00
  -3.260789e+01  -1.707320e+01
   3.930890e+00  -2.666602e+01
   1.977477e+01  -3.552678e+00
   3.028338e+01   5.004212e+00
   6.813136e+00   2.883644e+01
  -3.619649e+01   2.085123e+01
  -3.787070e+01   2.677243e+01
  -4.430978e+01  -7.596565e+01
   6.190423e+01  -9.128296e+01
   6.777902e+01  -1.571149e+01
   6.172664e+01   6.893254e+01
   1.434427e+01   4.060131e+01
  -2.493148e+01   4.691522e+01
  -1.503378e+01   4.684494e+01
  -2.609473e+01   4.649109e+00
  -1.172960e+00   2.378361e+01
  -2.463457e+01   2.914999e+01
  -3.004291e+01   2.916838e+01
   3.293132e-01  -4.700010e+01
  -1.274131e+01  -1.101055e+02
  -1.168191e+01  -6.613422e+01
   4.611076e+01  -4.703749e+00
   5.207859e+01   5.593687e+01
   6.525740e+00   3.949694e+01
  -1.306761e+00   3.678230e+01
   2.018082e+01  -3.173949e+01
  -2.855184e+00  -2.815761e+01
  -2.164424e+01  -1.409666e+01
  -7.438144e+00  -3.287994e+01
  -4.050037e+00  -1.868067e+01
  -2.909452e+01  -1.577096e+01
   1.134217e+01   5.948590e+00
   5.611514e+01  -9.508679e+00
   4.884231e+01   2.567143e+01
  -4.320521e+00   4.576010e+01
  -4.814480e+01   1.031953e+01
  -3.792747e+01   1.307349e+01
  -4.708596e+01  -1.203205e+01
   2.911038e-01  -5.057650e+00
   3.535932e+01   5.765630e+00
   7.776591e+00   1.637528e+01
  -3.134437e+01   1.938892e+01
  -1.044073e+01  -5.802252e+00
  -2.528292e+00  -4.074802e+01
  -2.913550e+01  -3.857430e+01
  -3.757135e+01   4.119655e+00
  -2.378405e+01  -9.064552e+00
  -3.208720e+01  -2.414060e+01
  -2.461681e+01  -8.541352e+01
   3.873551e+01  -5.725106e+01
   3.964755e+01   1.844142e+01
   3.174968e+01  -4.600429e+00
  -1.556384e+00   3.370354e+01
  -3.570348e+01   4.437975e+01
  -7.495159e+00  -7.530769e+00
  -1.553249e+01  -9.755007e+00
   5.101482e+01  -3.116876e+01
   4.615502e+01   2.962385e+01
  -2.719535e+01   4.813220e+01
  -4.175635e+01   1.900040e+01
  -6.670633e+01  -1.617090e+01
  -2.200167e+01  -3.353590e+01
   7.262559e+00  -9.381299e+00
  -1.717889e+01  -1.022778e+01
  -1.690778e+01  -8.494549e+00
  -2.523998e+01   1.072042e+00
  -1.637818e+01  -3.344227e+01
   3.815810e+01  -5.128883e+01
   8.655196e+01  -6.346631e+01
   4.781872e+01   5.342464e+01
   3.842041e+01   6.245527e+01
  -1.410123e+01   2.146290e+01
  -1.235004e+01   1.756604e+01
  -5.387778e+00  -1.254343e+01
  -2.208572e+01  -3.732424e+01
   1.624306e+01  -1.644611e+01
   3.457542e+01  -2.470205e+01
   1.226062e+01   3.736923e+00
  -2.920129e+00  -2.334074e+01
  -4.689852e+00   3.232953e+00
   6.465910e+00   6.159427e+01
   3.510877e+01   3.059585e+01
  -9.358928e+00   2.590787e+01
  -5.539337e+01   2.260135e+01
  -6.088461e+01  -2.211094e+01
  -2.525488e+01  -5.928455e+00
   3.460210e+01   1.894595e+01
   3.579738e+01  -3.943446e-01
   1.217281e+01   2.332139e+01
  -1.231059e+01   2.934455e+01
  -1.838097e+01   6.860026e+00
  -1.231476e+01  -1.122838e+01
   1.381039e+00   4.934438e+00
  -1.087412e+01  -4.374706e+00
  -3.991017e+01  -2.511299e+01
  -5.559155e+00  -3.357420e+01
   1.744232e+01  -3.231397e+01
   5.662853e+01  -3.634246e+01
   5.179955e+01  -8.623381e+00
   2.290309e+01   4.905066e+01
   4.062796e+00   2.857129e+01
  -1.445122e+01   5.834986e+01
  -5.176211e+01  -1.278702e+00
  -1.380949e+00  -4.028517e+01
  -1.025649e+01  -9.099649e+00
   7.167446e-01  -9.377194e+00
  -1.002193e+01  -6.009078e+00
   1.351564e+01  -4.440405e+01
   5.583028e+00  -2.060541e+01
   3.229520e+01   2.950066e-01
   2.205934e+01   7.015105e+01
  -2.900535e+00   4.431224e+01
  -3.043961e+01   1.724729e+01
  -3.318603e+01  -2.023082e+01
  -1.906933e+01  -3.566499e+01
   3.936971e+01   3.604919e+00
   3.412915e+01  -1.778752e+01
   5.150065e+01   9.352539e+00
   9.498988e+00   1.219995e+01
  -2.270285e+01   1.357060e+01
   1.921055e+01   2.452019e+01
   2.835839e+01  -2.203008e+01
   2.129317e+01  -1.639824e+00
  -2.682579e+01   2.696664e+01
  -4.163432e+01   3.868019e+01
  -4.455384e+01   9.788488e-01
   3.239492e-01  -3.015194e+01
   2.038843e+01  -1.808605e+01
   3.184656e+01  -2.735067e-01
  -1.257222e+01   1.146479e+01
  -1.166015e+01   4.143969e+01
  -3.356758e+01  -6.204836e-01
  -3.231822e+01  -2.424961e+01
   1.274825e+01   7.482712e+00
   3.428072e+01  -2.280995e+01
   3.525407e+01  -6.988590e-01
  -2.121047e+00  -1.996344e+01
  -1.247873e+01  -5.136540e+00
  -2.355689e+01  -2.261873e+01
   8.047131e+00   7.238387e+00
  -3.801948e+01   3.300698e+01
  -2.193746e+01  -6.887444e+00
   2.639820e-01  -7.082635e+00
  -8.534670e+00  -1.798982e+01
   1.282584e+01  -1.135183e+01
   1.753216e+01  -4.267528e+00
   3.345266e+01   4.444985e+01
  -3.160060e+01   6.407667e+00
  -4.650316e+01   4.506679e+01
  -2.228752e+01  -1.224821e+01
   6.268254e+00  -2.757378e+01
   8.089140e+00   1.991977e+00
   2.181464e+01   5.895920e+00
  -6.945872e+00  -1.090248e+01
   2.823882e+01  -4.530871e+00
  -8.127967e+00  -5.556063e+00
   8.316310e+00  -1.086506e+01
