
 $NMID
 id='ANONYMOUS ', fmtdat='(2E16.6)'
 volume=1.0
 tramp=1.0
 $END
   2.836825e+03   3.412995e+02
   1.996824e+03   1.726106e+03
  -3.804996e+02   1.883362e+03
  -1.363573e+03   8.365102e+02
  -7.984154e+02  -6.366423e+01
   7.748273e+01  -2.938674e+02
   4.360653e+02   1.731056e+02
   4.769059e+01   5.454767e+02
  -4.151605e+02   5.351831e+02
  -5.782604e+02   3.914538e+01
  -3.929562e+02  -4.870793e+02
   1.224211e+01  -6.151657e+02
   3.456835e+02  -1.761556e+02
   2.576326e+02   3.657438e+02
  -1.091417e+02   4.482237e+02
  -3.690248e+02   5.299947e+01
  -2.575708e+02  -3.929791e+02
   1.736981e+02  -4.918887e+02
   3.476756e+02  -1.703338e+02
   3.168759e+02   1.725840e+02
   6.579384e+01   2.787622e+02
  -1.219300e+02   1.752394e+02
  -6.896032e+01   7.736720e+01
   6.454299e+01   4.926686e+01
   2.678827e+02   1.989246e+02
   5.033891e+00   3.095108e+02
  -4.096021e+02   1.642437e+02
  -5.514088e+02  -2.024215e+02
  -1.981496e+02  -3.659064e+02
   3.162132e+02  -2.162698e+02
   5.170858e+02   1.328100e+02
   2.086166e+02   3.463838e+02
  -2.049113e+02   3.242961e+02
  -3.705448e+02   1.264049e+02
  -3.018319e+02  -1.606946e+02
  -5.294785e+01  -3.224644e+02
   3.004583e+01  -1.740840e+02
   2.017793e+01   6.546727e+01
  -1.503287e+02   2.243219e+02
  -2.130581e+02  -4.994163e+01
  -7.825794e+01  -4.058121e+02
   2.499097e+02  -4.291291e+02
   3.902370e+02  -1.970567e+01
   1.396966e+02   2.791886e+02
  -1.620530e+02   1.814380e+02
  -1.870324e+02  -2.435949e+02
   1.069841e+02  -3.984761e+02
   3.970365e+02  -4.961123e+01
   4.645425e+02   3.636260e+02
   1.132091e+02   4.431132e+02
  -2.641221e+02   2.417108e+02
  -4.360668e+02  -7.342179e+01
  -3.158453e+02  -2.531377e+02
   2.393019e+01  -1.977542e+02
   2.556848e+02  -3.213828e+01
   1.716230e+02   9.439647e+01
  -3.235815e+01   6.355711e+01
  -8.414640e+01  -6.896575e+01
   9.521507e+01  -9.452408e+01
   2.209933e+02   3.100951e+01
   1.194441e+02   1.900065e+02
  -2.091516e+02   1.913288e+02
  -2.692460e+02   9.616959e+01
  -1.874317e+02  -1.010085e+02
  -1.578996e+01  -2.410351e+02
   2.433990e+02  -2.512267e+02
   3.191953e+02  -1.442553e+02
   2.373486e+02   1.249044e+02
   6.031408e+01   3.183230e+02
  -2.807509e+01   2.728578e+02
  -6.791651e+01   1.328113e+02
  -2.198015e+01   1.048406e+02
  -1.432814e+02   1.089931e+02
  -1.732242e+02   4.861495e+01
  -2.105948e+02  -1.047877e+02
  -7.914982e+01  -2.129632e+02
   8.966398e+01  -1.565447e+02
   1.848764e+02   1.707447e+01
   9.805530e+01   1.865517e+02
  -4.380002e+01   2.096554e+02
  -2.067399e+02   7.331463e+01
  -2.374737e+02  -1.149518e+02
  -1.722007e+02  -2.175524e+02
   6.959689e+01  -2.391575e+02
   1.323876e+02  -1.415886e+02
   1.267943e+02  -6.608818e+01
   1.102949e+02  -5.466866e+01
   2.439883e+02  -3.345543e+01
   3.413704e+02   1.024431e+02
   2.581402e+02   2.568890e+02
  -1.998945e+01   3.670966e+02
  -2.721522e+02   2.738954e+02
  -3.728246e+02   1.135463e+02
  -2.529621e+02  -5.106499e+01
  -2.747770e+01  -2.146415e+02
   6.247820e+01  -1.469018e+02
   4.220552e+01  -1.282599e+01
  -3.617051e+01   5.713048e+01
  -1.173996e+02  -1.019726e+00
  -1.043621e+01  -1.482160e+02
   1.256269e+02  -1.103906e+02
   9.480948e+01   4.402001e+01
  -1.513259e+01   1.306585e+02
  -1.374168e+02  -4.716468e+00
  -1.236014e+02  -2.112357e+02
   5.335464e+01  -2.550152e+02
   2.046527e+02  -1.185286e+02
   2.820755e+02   2.732949e+01
   2.266602e+02   2.468995e+02
   6.880282e+01   1.650715e+02
  -9.284033e+01   1.325832e+02
  -1.239491e+02   1.789270e+01
  -5.306557e+01  -8.399792e+00
   5.651615e+01   6.537308e+01
  -9.050794e+00   6.809382e+01
  -1.013403e+02   6.982313e+01
  -1.653945e+02  -1.451615e+01
  -4.334801e+01  -7.106770e+01
   6.892833e+01  -3.125438e+01
   6.010895e+01   7.327151e+01
  -8.860035e+01   8.320775e+01
  -2.036606e+02  -8.408237e+00
  -1.601167e+02  -1.329124e+02
  -2.564550e+01  -2.393536e+02
   1.658460e+02  -2.115974e+02
   2.338007e+02  -6.599028e+01
   1.217696e+02   7.787158e+01
  -2.760430e+01   8.348703e+01
  -7.681168e+01  -4.797130e+00
   3.682374e+01  -7.292899e+01
   1.376602e+02  -3.161608e+01
   1.782729e+02   9.886471e+01
   4.805831e+01   1.612797e+02
  -4.998215e+01   1.103566e+02
  -9.535075e+01   1.513199e+01
  -3.133765e+01  -1.784295e+01
   3.996415e+01   8.594511e+00
   3.246204e+01   1.133294e+02
  -6.187148e+01   1.414671e+02
  -1.660628e+02  -1.336201e+01
  -1.651700e+02  -1.082755e+02
  -8.646083e+00  -1.607450e+02
   1.205364e+02  -1.049257e+02
   1.647823e+02  -1.240349e+01
   3.743863e+01   9.009568e+01
  -4.347420e+01   8.184351e+01
  -4.897091e+01   1.843512e+01
   4.113102e+01  -1.118536e+01
   2.104760e+01  -1.242179e+01
   1.606968e+01   3.373019e+01
  -5.352036e+01   2.675272e+01
  -8.980976e+01  -6.407465e+01
   8.070567e+00  -1.318955e+02
   9.353047e+01  -1.200897e+02
   2.150615e+02  -1.367189e+01
   1.657865e+02   1.377228e+02
   2.288223e+01   2.023217e+02
  -7.282171e+01   1.575113e+02
  -9.288499e+01   4.479663e+01
  -6.884004e+01  -4.159678e+01
  -3.902177e+01  -3.512099e+01
  -5.197022e+00   4.891279e+00
  -5.373239e+01  -6.615341e-01
  -6.173030e+01  -6.106630e+01
   4.026212e+01  -1.014915e+02
   6.906868e+01  -1.721623e+01
   6.812384e+01   6.317553e+01
  -1.789753e+01   9.176208e+01
  -1.521224e+02   8.122418e+01
  -1.557846e+02  -4.421000e+01
  -7.905880e+01  -1.991097e+02
   1.015598e+02  -2.262468e+02
   2.089215e+02  -1.039146e+02
   1.854908e+02   9.399090e+01
   5.772547e+01   1.765954e+02
  -1.539228e+01   1.148461e+02
  -6.149801e+01   6.380720e+01
  -9.800122e+00   4.061045e+01
  -4.215448e+01   9.472959e+01
  -7.570712e+01   6.566910e+01
  -1.002044e+02  -2.709074e+01
  -1.098644e+02  -1.192681e+02
  -1.675547e+00  -2.088075e+02
   9.597543e+01  -1.379574e+02
   1.217621e+02  -1.225855e+01
   1.094963e+02   1.092559e+02
   6.767451e+00   1.407265e+02
  -7.575893e+01   9.942055e+01
  -4.948188e+01  -2.495882e+01
   9.014323e+00  -3.822122e+01
  -7.375826e+00  -5.475478e+01
  -3.544133e+01  -5.857135e+00
  -7.691916e+01  -3.972593e+01
  -3.727309e+01  -3.300031e+01
   4.859270e+01  -3.339231e+01
   1.205809e+02   2.172701e+01
   1.081685e+02   5.381038e+01
   1.861520e+01   5.451687e+01
  -1.001966e+02   3.514775e+01
  -1.295557e+02  -1.178956e+01
  -4.681632e+01  -2.726624e+01
   1.611936e+01  -1.584370e+01
   5.810347e+01  -9.768022e+00
   1.404746e+01   7.605928e+01
  -6.146461e+01   3.735707e+01
  -3.870317e+01  -3.105351e+01
  -3.528126e+01  -5.034165e+01
  -3.976247e+01  -2.703334e+01
  -6.794292e+01  -1.610548e+01
  -5.080059e+01   4.743669e+00
  -1.201939e+01  -7.910155e+01
   4.043670e+01  -1.247420e+02
   1.380750e+02  -1.106653e+02
   1.217464e+02  -2.259904e+01
   8.948426e+01   9.664039e+01
   6.593023e+00   1.196849e+02
  -5.595297e+01   3.291166e+01
  -3.751773e+01  -1.784783e+01
   5.557933e+01  -1.696667e+01
   1.529596e+02  -3.850855e+00
   3.270357e+01   1.328716e+02
  -5.832818e+01   6.957229e+01
  -1.508043e+02   4.852596e+01
  -1.328303e+02  -4.988045e+01
  -4.565954e+01  -1.051232e+02
   4.657795e+01  -2.754360e+01
   3.314236e+01  -1.810515e+01
  -2.702901e+01   1.127261e+01
  -3.676077e+01  -5.742833e+00
  -2.962580e+01  -1.101621e+02
   7.290566e+01  -1.019421e+02
   1.228332e+02  -4.852331e+01
   9.750217e+01   7.724705e+01
   5.793216e+00   1.427607e+02
  -6.219444e+01   1.171663e+02
  -9.395798e+01  -3.381195e+01
  -3.033526e+01  -8.564495e+01
   2.650008e+01  -6.825367e+01
   3.773942e+01  -2.147115e+01
   4.480129e+01   1.035148e+01
   3.883363e+01  -3.699272e+00
  -2.726193e+01  -2.350255e+01
   9.829695e+00   2.514273e+01
   1.555983e+01   8.589485e+01
   5.489007e+01   9.512770e+01
  -5.322498e+01   3.409884e+01
  -1.568227e+02  -1.625659e+01
  -1.167802e+02  -5.034756e+01
  -3.914084e+01  -3.800040e+01
   6.777502e+01  -2.876621e+00
   7.177959e+01   7.303966e+00
  -3.032574e+01   2.817930e+01
  -1.271748e+01   2.602876e+00
  -3.191813e+00   1.472952e+01
  -6.193276e+00   1.527185e+00
   2.373848e+01  -8.143313e+00
  -3.357507e+01  -1.837843e+01
  -8.838317e+01  -7.879479e+00
  -1.833929e+01  -4.968258e+01
   9.952412e+01  -1.053452e+02
   1.673640e+02  -5.539475e+01
   1.273252e+02   7.998229e+01
   1.225707e+01   1.475753e+02
  -6.896293e+01   1.116375e+02
  -1.091984e+02   7.296910e+01
  -8.778935e+01  -1.103251e+01
  -2.666392e+01  -4.397138e+01
   1.199664e+01  -2.616976e+00
  -2.718862e+01  -4.179975e+01
  -2.824898e+01  -3.110653e+01
  -3.638446e+01  -6.744772e+01
   2.169124e+01  -7.374755e+01
   6.533988e+01   1.296473e+01
   6.231566e+01   8.071635e+01
   3.929987e+01   9.470104e+01
  -5.875817e+01   5.061282e+01
  -7.876817e+01  -6.393657e+01
  -4.372770e+01  -5.809157e+01
   5.840268e+01  -6.731247e+01
   8.589021e+01   5.706896e+00
   2.697312e+01   2.837900e+01
  -3.750360e+01   4.012208e+01
  -2.733678e+01  -8.490034e+00
   1.732613e+01  -1.048500e+01
   8.496600e+01   1.696931e+01
   1.850621e+00   3.339849e+01
  -5.330927e+01   5.614207e+01
  -8.583984e+01   6.674909e+01
  -7.959141e+01  -1.856747e+00
   1.190415e+01  -7.243207e+01
   7.173215e+01  -7.223522e+01
   3.695361e+01  -2.004670e+01
  -6.898241e+00   2.177238e+01
  -1.253564e+01   1.908337e+01
  -3.464031e+01  -1.501361e+00
  -4.030850e+01  -3.253258e+01
   2.456028e+01  -2.330377e+01
   4.799022e+01   7.339043e+00
   2.261079e+01  -2.929132e+00
   3.828113e+01  -2.846305e+00
  -2.270776e+01   7.571677e+00
  -2.811066e+01  -1.557896e+01
  -2.903730e+01   1.668794e+01
  -1.654499e+01   3.980229e+01
  -2.515127e+01   1.929979e+01
  -1.964961e+01  -3.143009e+01
  -3.221586e+01  -5.274143e+01
   4.691975e+01  -4.268225e+01
   6.074140e+01   8.177965e+00
   2.766016e+01   6.148260e+01
  -4.302680e+01   3.602360e+01
  -9.384922e+01  -8.522319e+00
  -5.852693e+01  -3.124594e+01
  -1.456668e+01  -2.310727e+01
   3.458873e+01  -1.656647e+01
   4.466280e+01  -3.538873e+01
  -1.572340e+01  -6.031769e+00
  -5.758369e+01  -1.939450e+01
   1.462686e+01  -2.649091e+01
   6.466894e+01   1.740419e+01
