
 $NMID
 id='ANONYMOUS ', fmtdat='(2E16.6)'
 volume=1.0
 tramp=1.0
 $END
   2.799707e+03   3.598386e+02
   2.079128e+03   1.171244e+03
   1.892031e+02   1.960955e+03
  -1.179762e+03   1.161050e+03
  -8.797767e+02   1.379349e+02
   9.558690e+00  -2.703710e+02
   3.767490e+02   1.592595e+01
   6.575194e+01   4.580083e+02
  -3.623380e+02   5.071434e+02
  -5.703593e+02   6.863280e+01
  -3.667870e+02  -4.347952e+02
   8.150606e+00  -5.654095e+02
   2.667272e+02  -1.384866e+02
   2.519904e+02   3.723177e+02
  -1.150812e+02   4.708304e+02
  -3.374447e+02   8.618643e+01
  -2.723920e+02  -4.117681e+02
   1.536249e+02  -5.041451e+02
   4.219074e+02  -2.169184e+02
   3.665199e+02   1.356254e+02
   4.831783e+01   2.981510e+02
  -6.464197e+01   2.049645e+02
  -6.748448e+01   7.722518e+01
   1.439108e+02   9.151075e+01
   2.293749e+02   2.754757e+02
  -9.352439e+01   2.210374e+02
  -4.054397e+02   1.003436e+02
  -4.648620e+02  -6.185065e+01
  -1.783917e+02  -2.237785e+02
   2.889204e+02  -1.047209e+02
   3.625933e+02   1.290598e+02
   1.182869e+02   2.889670e+02
  -2.452163e+02   3.016340e+02
  -3.764260e+02   9.823348e+01
  -2.713068e+02  -1.456140e+02
  -6.728381e+01  -2.326989e+02
  -7.025868e+00  -1.787675e+02
  -2.161235e+01   7.971292e+01
  -1.339578e+02   1.038250e+02
  -1.196685e+02  -8.373958e+01
   1.236130e+01  -3.488142e+02
   1.501224e+02  -3.236123e+02
   2.460139e+02  -2.371648e+00
   2.748714e+01   2.809865e+02
  -1.599339e+02   9.181349e+01
  -7.133356e+01  -2.073299e+02
   1.127295e+02  -3.427945e+02
   3.833513e+02  -1.046848e+01
   4.002654e+02   3.356787e+02
   9.837090e+01   3.680185e+02
  -2.407603e+02   2.091340e+02
  -4.753593e+02  -6.684817e+01
  -2.883828e+02  -2.135218e+02
   3.271106e+01  -1.885373e+02
   2.707742e+02  -1.015910e+02
   1.950493e+02   8.843285e+00
   2.541433e+01   2.832230e+01
  -2.089710e+01  -6.692878e+01
   6.563791e+01  -5.514115e+01
   2.509809e+02  -1.558502e+01
   1.000934e+02   1.456516e+02
  -1.440105e+02   2.102889e+02
  -3.007540e+02   7.593085e+01
  -2.023191e+02  -9.919062e+01
   4.123382e+01  -2.893791e+02
   2.739848e+02  -2.806647e+02
   2.892352e+02  -1.216699e+02
   2.154348e+02   1.414954e+02
   4.575876e+01   2.873241e+02
  -1.976841e+01   2.737428e+02
  -2.538168e+01   1.422708e+02
  -4.046413e+01   1.148045e+02
  -1.555697e+02   1.211670e+02
  -2.338773e+02   3.825928e+00
  -2.230445e+02  -1.131283e+02
  -6.583877e+01  -2.539021e+02
   1.197969e+02  -1.338544e+02
   1.589899e+02   3.253696e+01
   1.028249e+02   2.401149e+02
  -6.411012e+01   2.069650e+02
  -2.475994e+02   4.384409e+01
  -2.636118e+02  -1.621300e+02
  -9.012544e+01  -2.867146e+02
   3.066729e+01  -2.209184e+02
   1.655255e+02  -1.190656e+02
   1.366047e+02  -5.588416e+01
   1.115263e+02  -4.406444e+01
   2.295778e+02  -2.714764e+01
   3.841657e+02   7.550011e+01
   2.505176e+02   2.494125e+02
  -3.714354e+01   4.009829e+02
  -3.040889e+02   3.518383e+02
  -4.501669e+02   1.029048e+02
  -2.906608e+02  -8.806998e+01
   4.782202e+00  -2.112960e+02
   8.122471e+01  -1.422481e+02
  -4.547507e+00   1.438178e+01
  -1.012626e+02   4.444261e+01
  -1.117214e+02  -2.276029e+01
   9.361892e+00  -1.232738e+02
   1.231988e+02  -5.767195e+01
   8.588348e+01   4.914363e+01
  -4.218937e+01   1.361911e+02
  -1.490307e+02   9.926150e+00
  -1.290442e+02  -1.844666e+02
   2.497528e+01  -2.972281e+02
   2.086240e+02  -2.074484e+02
   3.040591e+02   9.248672e+01
   2.024130e+02   2.312142e+02
   9.818814e+00   2.028495e+02
  -1.283978e+02   1.234807e+02
  -1.442544e+02  -1.914187e+01
  -7.103530e+00  -6.878790e+00
   3.704331e+01   6.839890e+01
  -7.450154e+00   1.150768e+02
  -1.194731e+02   5.172040e+01
  -1.396938e+02  -5.176986e+01
  -2.103868e+01  -1.933772e+01
   5.646524e+01  -6.855797e+00
   9.390307e+00   6.693476e+01
  -1.407174e+02   7.164317e+01
  -2.489601e+02  -5.896979e+01
  -1.994022e+02  -1.951392e+02
   2.357199e+01  -2.311926e+02
   1.827762e+02  -2.003425e+02
   2.407847e+02  -7.742240e+01
   9.103109e+01   6.504803e+01
  -5.096659e+01   8.071643e+01
  -5.317034e+01  -3.721807e+01
   6.101664e+01  -7.874008e+01
   1.418856e+02  -1.475038e+01
   1.651964e+02   6.774047e+01
   4.909527e+01   1.509996e+02
  -5.925772e+01   1.182379e+02
  -1.278402e+02   1.548680e+00
  -2.752813e+01  -2.129612e+01
   6.332860e+01  -2.988673e-01
   3.124732e+01   8.305274e+01
  -6.962543e+01   1.294326e+02
  -2.155288e+02   2.555909e+01
  -1.357941e+02  -1.499421e+02
  -4.647228e+01  -1.939336e+02
   1.518952e+02  -1.363562e+02
   1.440196e+02  -8.329718e+00
   7.244916e+01   8.298154e+01
  -6.587472e+01   8.305588e+01
  -6.130086e+01   4.756909e+01
  -1.028876e+01  -2.136235e+01
   4.508367e+01  -9.305993e+00
   9.434382e+00   9.459403e+00
  -1.146436e+02  -2.776050e+01
  -9.470292e+01  -9.889395e+01
  -3.765996e+00  -1.454939e+02
   1.335122e+02  -1.231791e+02
   1.958636e+02  -1.727536e+00
   1.489149e+02   1.611395e+02
   4.429910e+01   1.842606e+02
  -1.128708e+02   1.533546e+02
  -1.177561e+02   3.189128e+01
  -5.366881e+01  -4.988647e+01
  -3.572662e+01  -1.457438e+01
  -6.450374e+01   2.787381e+01
  -8.992692e+01   2.176421e+01
  -4.562527e+01  -5.134280e+01
   3.725897e+01  -7.190063e+01
   1.032981e+02  -5.924593e+01
   8.781612e+01   6.860515e+01
  -3.324990e+01   1.317281e+02
  -1.676511e+02   5.114828e+01
  -2.045801e+02  -6.640448e+01
  -9.503818e+01  -1.776451e+02
   1.285613e+02  -1.853989e+02
   2.101310e+02  -6.782070e+01
   2.141858e+02   1.208982e+02
   4.597317e+01   1.591384e+02
  -2.699030e+01   1.065490e+02
  -7.816942e+01   5.076179e+01
  -5.086788e+01   5.457137e+01
  -4.320721e+01   9.070344e+01
  -8.432826e+01   7.614314e+01
  -1.307081e+02  -3.094924e+01
  -7.357876e+01  -1.788581e+02
   2.635551e+01  -2.146522e+02
   1.427328e+02  -1.329617e+02
   1.666375e+02  -1.171371e+01
   1.065599e+02   1.404859e+02
  -1.486957e+01   1.275829e+02
  -5.333081e+01   5.554257e+01
  -6.320785e+01  -3.583646e+01
  -7.212885e+00  -4.558952e+01
   6.376893e+00  -4.970205e+01
  -4.269833e+01  -3.994428e+01
  -8.518041e+01   5.354158e+00
  -5.783150e+01  -1.968619e+01
   9.068039e+01  -2.676738e+01
   1.352493e+02   3.469394e+01
   1.250135e+02   8.432790e+01
  -9.695221e-01   8.488264e+01
  -1.139371e+02   4.326738e+01
  -9.808828e+01   3.765442e+01
  -5.905204e+01  -5.802512e+01
   6.184120e+01  -3.308653e+01
   4.750083e+01   2.462408e+01
   2.123292e+01   4.493348e+01
  -3.138259e+01   5.004508e+01
  -6.197503e+01   2.238867e+01
  -7.715662e+01  -4.748840e+01
  -1.996669e+01  -3.422803e+01
  -1.301496e+01   5.657839e+01
  -3.981359e+01  -1.532133e+00
  -2.344064e+01  -2.514939e+01
   3.883460e+01  -1.568048e+02
   1.002264e+02  -1.017543e+02
   1.756479e+02  -1.889421e+01
   9.092149e+01   3.876755e+01
  -1.225183e+01   9.836193e+01
  -7.335200e+01   4.482179e+01
  -2.444720e+01  -8.023036e+00
   5.299138e+01  -1.907503e+01
   7.035587e+01   3.928251e+01
   5.416040e+01   1.035937e+02
  -8.634877e+01   4.987524e+01
  -1.876240e+02   2.310497e+01
  -1.220630e+02  -7.978871e+01
  -3.666102e+01  -6.548455e+01
   5.982525e+01  -3.960772e+01
   7.730612e+00   7.082903e+00
  -3.059664e+01   4.253573e+01
  -1.033559e+02  -4.144881e+01
  -6.718937e+00  -1.404703e+02
   6.115155e+01  -9.589404e+01
   1.156183e+02  -4.926082e+01
   9.658058e+01   8.751760e+01
   3.377080e+01   1.504641e+02
  -2.466723e+01   1.179213e+02
  -5.435935e+01  -3.426944e+01
  -2.480933e+01  -1.189922e+02
   1.925398e+01  -6.324747e+01
   2.862922e+01   1.075716e+01
   3.420729e+01   3.179110e+01
   1.627770e+01   1.077094e+01
   2.099064e+01  -2.628937e+01
   2.672036e+01   5.177527e+01
   4.805699e+01   9.012101e+01
   2.519709e+01   6.759423e+01
  -7.138220e+01   4.834927e+01
  -1.278600e+02  -3.909923e+01
  -1.137833e+02  -5.664507e+01
  -1.361104e+01  -5.120486e+01
   7.260298e+01  -4.183575e+01
   3.840655e+01  -5.749699e+00
   1.732083e+01  -1.577606e+01
  -2.305165e+01  -3.978268e+00
  -6.692220e+00  -8.631546e+00
   4.286293e+01   8.516487e+00
  -1.460824e+01  -3.306400e+00
  -7.005232e+01  -6.261375e+00
  -6.826519e+01  -2.742172e+01
  -9.892569e+00  -9.621748e+01
   1.104674e+02  -1.202339e+02
   1.510398e+02  -6.106382e+01
   1.348658e+02   6.303476e+01
   3.461609e+00   1.700941e+02
  -6.474854e+01   1.398181e+02
  -9.743331e+01   5.818887e+01
  -9.397594e+01  -2.620896e+01
  -2.312732e+01  -1.657223e+01
   9.573068e+00  -2.373353e+00
  -2.587913e+01  -1.903424e+00
  -3.231175e+01  -3.453502e+01
  -1.582061e+01  -8.486102e+01
   5.039160e+01  -9.138057e+01
   6.775029e+01   2.570331e+01
   5.480446e+01   7.404469e+01
   1.371242e+01   1.114334e+02
  -4.112101e+01   5.051163e+01
  -8.467244e+01  -5.010261e+01
  -4.290894e+01  -6.347371e+01
   4.280708e+01  -6.114096e+01
   6.891494e+01  -1.705652e+01
  -2.624855e+00   4.851029e+01
  -4.512928e+01   6.975556e+01
  -3.943193e+01   2.204296e+01
   2.783655e+01  -4.435370e+01
   6.150758e+01  -9.027827e+00
   1.646217e+01   4.350264e+01
  -8.226772e+01   6.207680e+01
  -1.093008e+02   3.975536e+01
  -6.134162e+01   1.096608e+01
   1.416283e+01  -5.717807e+01
   4.985408e+01  -8.386471e+01
   4.370605e+01  -1.625369e+01
   3.399142e+01   2.638122e+01
   5.670493e+00   4.180194e+01
  -3.292790e+01  -1.930705e+01
  -4.419227e+01  -5.879134e+01
   4.070564e+01  -2.909663e+01
   4.490527e+01   1.342072e+01
   2.747604e+01   2.596050e+01
  -5.691551e+00   5.887850e+00
  -2.262063e+01  -2.364002e+01
   1.086515e+01   8.581440e+00
   1.857024e+01   5.191286e+01
  -1.692603e+01   3.484916e+01
  -3.337389e+01   3.314749e+01
  -2.923027e+01  -1.212979e+01
  -2.705521e+01  -5.995019e+01
   3.658072e+01   2.004112e+00
   5.604386e+01   4.295630e+01
   1.292495e+01   4.588104e+01
  -8.381238e+01   2.028288e+01
  -5.956366e+01  -2.700493e+01
  -3.433923e+01  -4.523526e+01
   1.393360e+01  -3.254854e+01
   4.436204e+01   5.277660e+00
   9.531673e+00  -1.184548e+01
  -2.224428e+01  -1.799867e+01
  -5.120494e+01  -1.507778e+01
   2.334994e+01  -8.588697e-01
   5.221020e+01   1.809293e+01
