
 $NMID
 id='ANONYMOUS ', fmtdat='(2E16.6)'
 volume=1.0
 tramp=1.0
 $END
  -3.967093e+03  -4.249422e+02
  -2.100562e+03  -2.163491e+03
   3.233000e+02  -2.328093e+03
   1.447238e+03  -1.122472e+03
   1.044437e+03   4.044656e+01
  -1.319551e+02   3.992193e+02
  -5.363069e+02  -2.582678e+02
   9.694035e+01  -7.356402e+02
   5.806864e+02  -6.541820e+02
   7.241289e+02   2.577499e+01
   3.416121e+02   6.811273e+02
  -9.606145e+01   7.178762e+02
  -4.877483e+02   9.742350e+01
  -2.748282e+02  -5.230924e+02
   2.422876e+02  -5.900068e+02
   5.083103e+02   3.313846e+00
   2.963706e+02   5.416681e+02
  -2.404289e+02   6.216682e+02
  -5.471782e+02   1.922468e+02
  -4.139726e+02  -2.448693e+02
  -4.457790e+01  -4.122458e+02
   1.871530e+02  -2.549468e+02
   1.428082e+02  -2.330082e+01
  -1.681641e+02  -5.255457e+00
  -3.018719e+02  -2.341456e+02
  -8.158939e+01  -4.365763e+02
   4.337027e+02  -2.214043e+02
   6.255880e+02   1.578585e+02
   2.134159e+02   4.617758e+02
  -3.871090e+02   2.788104e+02
  -5.589483e+02  -1.193548e+02
  -2.474031e+02  -4.786414e+02
   2.819511e+02  -4.299939e+02
   5.184582e+02  -1.487559e+02
   3.634031e+02   2.114846e+02
   5.645662e+01   4.173340e+02
  -9.883036e+01   1.974550e+02
  -3.349729e+01  -1.453916e+02
   1.653697e+02  -2.447178e+02
   3.105498e+02   1.069912e+02
   1.241779e+02   5.962579e+02
  -2.901231e+02   5.091632e+02
  -4.229478e+02  -4.464530e+01
  -1.507626e+02  -3.665673e+02
   2.266653e+02  -1.758198e+02
   2.779938e+02   2.897490e+02
  -9.370533e+01   3.954047e+02
  -4.128377e+02   1.105430e+02
  -5.515058e+02  -3.519269e+02
  -1.310431e+02  -5.159813e+02
   3.490629e+02  -2.977180e+02
   5.254735e+02   1.438400e+02
   3.427744e+02   2.979341e+02
  -8.324244e+01   2.577142e+02
  -3.358355e+02   2.544670e+01
  -2.216581e+02  -1.071519e+02
   6.144310e+01  -4.339862e+01
   1.079330e+02   8.380284e+01
  -9.503254e+01   9.726515e+01
  -2.569215e+02  -7.442727e+01
  -1.300835e+02  -2.551577e+02
   1.696400e+02  -2.359444e+02
   3.383648e+02  -1.185103e+02
   2.594419e+02   1.236596e+02
   3.829122e+00   3.023532e+02
  -2.574272e+02   2.978557e+02
  -3.296337e+02   1.340019e+02
  -2.609863e+02  -1.237776e+02
  -7.353470e+01  -3.820509e+02
   7.406744e+01  -3.022482e+02
   6.778224e+01  -1.264034e+02
   8.528033e+00  -3.186729e+01
   1.020282e+02  -1.313146e+02
   2.176143e+02  -8.292749e+01
   2.858753e+02   8.050747e+01
   1.187043e+02   2.630648e+02
  -9.139851e+01   1.994746e+02
  -2.068297e+02   8.710672e+00
  -1.405339e+02  -2.168485e+02
   2.350455e+01  -2.562187e+02
   2.793198e+02  -3.679344e+01
   2.950124e+02   1.402389e+02
   1.433218e+02   2.875316e+02
  -5.061103e+01   2.847948e+02
  -1.976906e+02   1.317051e+02
  -1.461566e+02   6.635298e+01
  -1.544122e+02   4.794614e+01
  -2.217841e+02   1.393177e+01
  -3.910577e+02  -1.106570e+02
  -2.480676e+02  -3.433275e+02
  -1.142136e+01  -4.373527e+02
   3.604723e+02  -3.532831e+02
   4.469467e+02  -1.376535e+02
   2.332825e+02   1.016886e+02
   4.702712e+01   2.259655e+02
  -9.721351e+01   2.280084e+02
  -7.507317e+00   3.712887e+01
   1.043864e+02  -2.594412e+01
   1.103486e+02   7.185197e+01
  -1.638794e+01   2.017625e+02
  -1.267447e+02   1.431301e+02
  -9.171932e+01  -9.965124e+01
   4.598685e+01  -1.385822e+02
   1.859202e+02  -7.830791e+00
   1.010867e+02   2.374112e+02
  -4.188273e+01   3.497296e+02
  -2.392485e+02   1.690172e+02
  -3.108212e+02  -2.047888e+01
  -2.977053e+02  -2.541134e+02
  -5.541236e+01  -2.590389e+02
   1.346928e+02  -1.635927e+02
   1.491779e+02   4.439171e+01
  -2.024838e-01   4.748607e+01
  -5.326677e+01  -3.748463e+01
   6.932876e-01  -1.419971e+02
   1.403361e+02  -5.374744e+01
   1.394129e+02   3.768059e+01
   3.542137e+01   9.473802e+01
  -7.103500e+01   1.755042e+01
  -4.466046e+01  -4.206668e+01
   1.265761e+02  -8.380487e+01
   2.666304e+02   5.566432e+01
   2.530558e+02   2.068376e+02
   4.344257e+01   2.729094e+02
  -1.907553e+02   2.233108e+02
  -2.678389e+02   1.046935e+02
  -1.469855e+02  -4.183457e+01
   1.220496e+01  -7.940618e+01
   9.208597e+01  -2.016364e+01
  -7.000799e+01   1.013371e+02
  -1.703781e+02   3.167708e+01
  -1.839118e+02  -8.442541e+01
  -5.942357e+01  -1.567158e+02
   5.938036e+01  -1.570750e+02
   1.085522e+02   3.650770e+00
   7.805155e+01   7.071561e+01
  -3.237843e+01  -1.333115e+01
  -2.686325e+01  -1.391478e+02
   6.604019e+01  -1.341386e+02
   1.798294e+02  -2.523979e+01
   1.683253e+02   1.384033e+02
   2.388218e+01   2.065465e+02
  -1.542602e+02   1.385465e+02
  -1.764841e+02  -2.684894e+01
  -9.312942e+01  -8.700492e+01
   4.558688e+01  -8.031728e+01
   8.812365e+01  -2.483245e+01
   2.268960e+01   5.092618e+01
  -5.701704e+01   8.507555e+00
   1.040762e+01  -5.307285e+01
   8.654747e+01  -2.938043e+01
   8.203189e+01   8.828295e+01
   1.757789e+01   1.645522e+02
  -1.164180e+02   1.484651e+02
  -2.176120e+02   3.639296e+01
  -1.823419e+02  -1.477208e+02
  -1.667915e+01  -2.312652e+02
   9.864769e+01  -1.757321e+02
   1.566800e+02  -1.632257e+01
   5.333704e+01   5.057252e+01
   4.808633e+00  -1.363219e+01
   5.008913e+01  -2.352451e+01
   9.263182e+01  -1.963402e+01
   6.644764e+01   8.806581e+01
  -3.306222e+01   1.032553e+02
  -1.030316e+02   8.647904e+01
  -1.235527e+02  -6.087148e+01
   1.507592e+01  -1.322850e+02
   1.393741e+02  -9.993009e+01
   1.950781e+02   3.646422e+01
   1.110743e+02   2.069159e+02
  -1.238725e+02   2.326849e+02
  -2.407149e+02   1.006190e+02
  -1.985162e+02  -1.301918e+02
  -8.400878e+01  -1.706914e+02
   4.158159e+01  -1.186162e+02
   1.069965e+02  -8.076543e+01
   7.949802e+01  -4.351111e+01
   4.155086e+01  -5.700710e+01
   7.150734e+01  -8.110909e+01
   1.247438e+02   2.889198e+01
   1.130195e+02   1.017879e+02
   3.869306e+01   1.704573e+02
  -9.917705e+01   1.554383e+02
  -1.478867e+02   4.837530e+01
  -1.333708e+02  -1.354727e+02
  -7.714949e+00  -1.424176e+02
   1.080364e+02  -9.217983e+01
   5.015605e+01   3.025073e+01
  -2.748820e+01   1.510564e+01
  -8.767522e+00   2.781518e+01
   1.009883e+01  -1.223266e+00
   7.609506e+01   2.712060e+01
   6.799263e+01   3.562763e+01
  -7.168675e+01   4.265869e+01
  -1.568151e+02   3.721595e+01
  -1.260292e+02  -4.806145e+01
   1.143061e+01  -1.164422e+02
   1.163208e+02  -4.824183e+01
   1.377892e+02  -2.484543e+01
   1.922576e+01   4.521879e+01
  -5.257173e+01   4.517435e+01
  -5.123438e+01  -3.175158e+01
  -1.661667e+01  -7.567351e+01
   5.960133e+01  -6.766603e+01
   5.600107e+01   2.146495e+01
   2.976955e+01   5.745080e+01
   3.964686e+01   4.992397e+01
   5.258049e+01  -3.509748e+01
   8.259256e+01   6.036905e+00
   3.214527e+01   7.272149e+01
  -5.162733e+01   1.183456e+02
  -1.353945e+02   1.337144e+02
  -1.567871e+02   2.837814e+01
  -1.197720e+02  -1.049637e+02
   2.004184e+01  -1.375488e+02
   9.252895e+01  -7.835314e+01
   6.288528e+01   2.797660e+01
  -5.387842e+01   2.007936e+01
  -1.070082e+02  -2.868175e+01
  -6.386565e+01  -8.347278e+01
   1.113836e+02  -1.146238e+02
   1.804651e+02  -3.502194e+01
   1.889119e+02   7.123266e+01
  -7.685061e-02   9.117191e+01
  -5.461668e+01   4.249983e+01
  -5.694323e+01  -1.542528e+01
   2.765128e+01  -2.675387e+01
   7.379710e+01   4.388744e+01
   1.722263e+01   1.142262e+02
  -8.721638e+01   1.643475e+02
  -1.522101e+02   8.632590e+01
  -1.367591e+02  -8.124150e+01
  -2.006099e+01  -1.840422e+02
   6.912118e+01  -1.469888e+02
   1.178239e+02   2.525974e+01
   5.387194e+01   1.131393e+02
  -3.371081e+01   8.776515e+01
  -6.078195e+01   9.101900e+00
  -3.622074e+01  -2.370647e+01
  -2.916142e+01  -1.862636e+01
  -1.917811e+01   5.850459e+00
  -1.269183e+01  -2.099831e+01
  -6.662812e+01  -6.996944e+01
  -3.194791e+01  -1.071574e+02
   6.210141e+01  -3.378106e+01
   1.262012e+02   4.431102e+00
   1.441135e+02   9.314371e+01
   2.871231e+01   5.469530e+01
  -9.772370e+01   1.519554e+01
  -8.293083e+01   2.129476e+00
   1.458445e-01  -3.303328e+00
   3.083417e+01  -2.939237e+01
   7.595891e+00  -1.212713e+01
  -8.057844e+00  -2.279028e+01
   2.013842e+01   1.681753e+01
   6.228668e+01  -3.717447e+00
   8.163409e+01   2.692797e+01
   1.248735e+01   6.163559e+01
  -7.124678e+01   1.018062e+02
  -1.533658e+02   6.380295e+01
  -1.387611e+02  -6.421721e+01
  -1.346827e+01  -1.805565e+02
   7.569429e+01  -1.451631e+02
   1.207618e+02  -6.190080e+01
   6.943002e+01   4.240508e+01
   1.545339e+01   4.692069e+01
  -2.246209e+01  -7.033731e+00
   2.354482e+01  -1.111566e+01
   5.677695e+01   8.181395e+01
   1.089287e+01   8.563665e+01
  -5.850558e+01   6.032655e+01
  -7.125798e+01   6.016506e+00
  -7.043136e+01  -8.664692e+01
  -9.840329e+00  -8.477951e+01
   6.770779e+01  -2.976292e+01
   1.249346e+02   6.595107e+01
   3.298271e+01   6.850748e+01
  -8.662861e+01   7.112331e+01
  -7.152624e+01  -2.016955e+01
  -7.159841e+01  -3.349796e+01
   1.474702e+01  -4.373434e+01
   3.531552e+01  -4.130473e+00
  -1.776693e+01  -1.384384e+00
  -4.477300e+01   2.053543e+01
  -2.849539e+01  -4.756709e+01
   7.487310e+01  -4.855558e+01
   1.274340e+02  -5.789725e+01
   9.573608e+01  -3.527637e+00
   5.653399e+00   7.575585e+01
  -5.056968e+01   8.721254e+01
  -3.504631e+01   3.805765e+00
   5.935237e+00  -2.369799e+01
   1.930554e+01  -6.260805e+01
   4.798424e+01   3.504766e+01
   1.219891e+01   4.263405e+01
  -2.534203e+01   2.578071e+01
   4.746999e+00  -3.167242e+00
  -4.249004e+01  -5.802308e+01
  -5.125438e+00   5.222004e+00
  -6.274650e+00   3.307018e+01
  -1.323874e+00  -1.563955e+01
   1.278427e+01  -2.587222e+01
   2.042549e+00  -2.129020e+01
   2.904947e+01  -8.329099e+00
   2.701079e+00   5.537798e+01
   2.302239e+01   4.044482e+01
  -5.171011e+01   2.574664e+01
  -7.517963e+01  -4.474310e+01
  -3.865978e+01  -6.283352e+01
   6.314935e+01  -3.194872e+01
   5.931769e+01   1.999359e+01
   2.279288e+01   5.342304e+01
  -2.336559e+01   2.930220e+01
  -4.793260e+01  -3.447469e+00
  -3.687306e+00  -5.252740e-01
   1.474945e+01  -6.537487e+00
   4.697056e+00   1.102838e+01
  -1.918375e+01   1.625603e+01
  -5.428827e+01  -2.338920e+01
