
 $NMID
 id='ANONYMOUS ', fmtdat='(2E16.6)'
 volume=1.0
 tramp=1.0
 $END
  -2.942037e+03   3.127875e+01
  -1.744736e+03  -1.574838e+03
   8.343179e+01  -1.942806e+03
   1.220125e+03  -1.177835e+03
   8.789583e+02  -1.171421e+02
   1.376654e+01   2.849800e+02
  -2.972456e+02  -1.363518e+02
  -2.192182e+00  -5.033007e+02
   3.803854e+02  -5.073465e+02
   5.602097e+02  -1.033726e+02
   3.581633e+02   4.318836e+02
   8.898789e+01   5.358580e+02
  -2.505009e+02   1.962596e+02
  -2.604092e+02  -3.098455e+02
   8.876727e+01  -5.244958e+02
   3.423904e+02  -7.784354e+01
   3.022893e+02   4.140335e+02
  -1.124526e+02   4.920665e+02
  -4.153607e+02   2.666071e+02
  -3.748344e+02  -8.329895e+01
  -1.103350e+02  -2.856079e+02
   5.004389e+01  -2.259966e+02
   7.808667e+00  -9.891209e+01
  -1.182879e+02  -8.920606e+01
  -2.106461e+02  -2.163603e+02
   1.742233e+01  -2.848281e+02
   4.072228e+02  -1.657427e+02
   5.424970e+02   9.458276e+01
   2.585022e+02   2.847571e+02
  -2.714763e+02   2.037809e+02
  -3.722026e+02  -1.157193e+02
  -1.461065e+02  -2.926762e+02
   1.653027e+02  -3.431152e+02
   3.795498e+02  -1.333636e+02
   2.367211e+02   1.020490e+02
   7.902500e+01   2.202105e+02
  -6.529949e+00   1.494722e+02
   1.149434e+01  -4.765415e+01
   1.252756e+02  -1.352944e+02
   1.400933e+02   1.033796e+02
   3.070769e+01   3.959644e+02
  -1.209995e+02   4.115146e+02
  -3.051655e+02   6.558257e+01
  -1.465436e+02  -2.549396e+02
   1.079147e+02  -1.073098e+02
   1.088064e+02   2.571262e+02
  -1.076635e+02   3.278848e+02
  -3.767057e+02   6.342826e+01
  -3.889348e+02  -3.077294e+02
  -1.402247e+02  -4.227337e+02
   2.356592e+02  -2.188250e+02
   4.291386e+02   2.491777e+01
   2.982518e+02   1.830921e+02
  -3.599206e+01   2.260894e+02
  -2.800508e+02   1.279972e+02
  -1.541237e+02  -5.666426e+00
   4.735331e+00  -2.291772e+01
   2.195424e+01   4.750460e+01
  -8.722604e+01   6.337181e+01
  -2.258714e+02  -2.332076e+01
  -1.543678e+02  -1.888116e+02
   1.162332e+02  -2.230544e+02
   3.003824e+02  -1.113944e+02
   2.426803e+02   8.484904e+01
  -8.479662e+00   2.337849e+02
  -1.962803e+02   2.862933e+02
  -3.101984e+02   1.834543e+02
  -2.244455e+02  -1.162758e+02
  -3.729896e+01  -2.709886e+02
   4.289367e+01  -2.520683e+02
   5.863929e+01  -1.352365e+02
   4.292580e+01  -7.259005e+01
   1.401230e+02  -1.101720e+02
   2.245979e+02  -4.055267e+01
   2.218975e+02   1.167339e+02
   9.903997e+01   1.943742e+02
  -5.839567e+01   1.672346e+02
  -1.875743e+02  -1.133526e+01
  -1.454155e+02  -2.341964e+02
   4.434782e+01  -2.081331e+02
   2.067323e+02  -8.582812e+01
   3.030929e+02   1.757163e+02
   1.391682e+02   2.496775e+02
  -5.340880e+01   2.365398e+02
  -1.758084e+02   1.415743e+02
  -9.523524e+01   8.299126e+01
  -8.791345e+01   8.277973e+01
  -2.105425e+02   5.602337e+01
  -3.818921e+02  -6.097418e+01
  -3.080211e+02  -2.431024e+02
   3.161762e+01  -3.630334e+02
   3.146089e+02  -3.472983e+02
   4.398912e+02  -2.105324e+02
   2.641423e+02   3.331513e+01
   3.983104e+01   2.228563e+02
  -5.287687e+01   2.198534e+02
   1.605835e+01   5.328060e+01
   7.922010e+01  -1.304114e+00
   1.034284e+02   3.450272e+01
   1.369234e+01   1.075098e+02
  -1.042147e+02   1.061942e+02
  -1.043695e+02  -2.635478e+01
   6.681305e+00  -1.602818e+02
   1.660895e+02  -2.197313e+01
   1.576654e+02   1.987396e+02
   2.994453e+01   2.913138e+02
  -2.298774e+02   1.839777e+02
  -3.314739e+02  -2.517043e+01
  -2.290113e+02  -2.297983e+02
  -5.256271e+01  -2.617538e+02
   1.108552e+02  -1.587700e+02
   1.343627e+02  -1.944302e+01
   1.906674e+01   1.580280e+01
  -2.226047e+01  -2.612777e+01
   1.339340e+01  -7.266267e+01
   1.411961e+02  -5.468057e+01
   1.495279e+02   4.140826e+01
   5.460975e+01   5.005213e+01
  -8.614794e+01   2.340933e+00
  -5.154542e+01  -8.961816e+01
   7.385397e+01  -6.769051e+01
   2.402886e+02   1.683299e+01
   2.205855e+02   1.668491e+02
   4.581099e+01   2.375393e+02
  -1.782421e+02   2.027682e+02
  -2.330999e+02   8.817060e+01
  -1.319075e+02  -6.685247e+00
   2.728698e+01  -8.501468e+01
   7.417679e+01  -1.501084e+01
  -2.377082e+01   5.079811e+01
  -1.551287e+02   3.100536e+01
  -1.757723e+02  -7.245058e+01
  -6.199898e+01  -1.479428e+02
   5.715659e+01  -9.584293e+01
   9.535349e+01  -2.553842e+01
   4.053505e+01   2.463588e+01
  -5.222130e+01  -2.228352e+01
  -2.366251e+01  -1.158525e+02
   8.115752e+01  -1.073032e+02
   2.097299e+02  -2.505449e+01
   1.380803e+02   1.147746e+02
  -5.897877e+00   1.777033e+02
  -1.397740e+02   1.316710e+02
  -1.149299e+02   4.911826e+01
  -5.157106e+01  -9.952844e+01
   2.926472e+01  -8.148134e+01
   6.338767e+01  -2.059298e+01
  -4.281329e+00   1.297689e+01
  -1.832869e+00  -2.610752e+01
  -4.694026e-01  -3.862723e+01
   8.466581e+01   2.029256e+01
   1.072275e+02   7.540306e+01
   2.632998e+01   1.516399e+02
  -1.179003e+02   1.435142e+02
  -2.012054e+02   2.922296e+01
  -1.747001e+02  -1.207873e+02
  -7.131913e+01  -2.054613e+02
   7.970381e+01  -1.634494e+02
   1.299693e+02  -2.403948e+01
   5.499648e+01   4.269723e+01
   3.780193e+01   4.715314e+00
   7.411798e+01   9.255574e+00
   7.777413e+01   2.690115e+01
   5.176615e+01   8.494531e+01
  -5.459207e+01   1.050147e+02
  -1.383864e+02   5.480175e+01
  -1.059387e+02  -5.550479e+01
   1.891487e+01  -1.345234e+02
   1.455224e+02  -6.779981e+01
   1.829094e+02   3.181187e+01
   1.243292e+02   1.748633e+02
  -8.667706e+01   1.759470e+02
  -2.320763e+02   1.052279e+02
  -2.122261e+02  -8.376965e+01
  -9.587418e+01  -1.535919e+02
   3.353179e+01  -1.218392e+02
   9.160941e+01  -7.138901e+01
   6.173612e+01  -5.552006e+01
   5.897735e+01  -7.535576e+01
   7.166018e+01  -8.090999e+01
   1.141243e+02   8.475238e+00
   9.967626e+01   8.661559e+01
   2.738887e+01   2.060300e+02
  -8.653115e+01   1.687528e+02
  -1.576891e+02   1.090165e+01
  -1.234054e+02  -1.295409e+02
   4.891221e-01  -1.399416e+02
   2.555198e+01  -5.659672e+01
   4.898595e+01   9.602544e+00
  -7.408697e+00   3.677527e+01
  -2.368758e+01   4.403341e+01
   3.308039e+01   1.902105e+01
   8.412550e+01   4.465930e+01
   3.755882e+01   1.377203e+01
  -6.543670e+01   4.397861e+01
  -1.227606e+02   1.923310e+01
  -1.314328e+02  -2.351841e+01
   1.751216e+00  -9.281503e+01
   1.043897e+02  -7.727108e+01
   1.129767e+02   7.623278e+00
   5.538550e+01   4.506706e+01
  -3.355642e+01   5.043291e+01
  -4.719389e+01  -1.450695e+01
  -5.627018e+00  -4.095078e+01
   3.174132e+01  -5.745325e+01
   5.146773e+01  -1.293033e+01
   7.425931e+01   2.286814e+01
   5.023696e+01   6.065058e+01
   3.007683e+01   1.126637e+01
   7.341710e+01  -8.139890e+00
   4.956836e+01   6.898648e+01
  -4.016338e+01   1.212153e+02
  -1.152845e+02   1.411001e+02
  -1.374734e+02   5.137019e+01
  -9.965705e+01  -6.778071e+01
   4.092777e+00  -1.110315e+02
   6.266419e+01  -8.103455e+01
   5.098297e+01  -2.297626e+01
  -8.731950e+01   6.620358e-01
  -8.954722e+01  -4.059600e+01
  -6.973794e+01  -1.123503e+02
   7.542197e+01  -1.027661e+02
   1.483115e+02  -2.972037e+01
   1.416298e+02   3.305105e+01
   3.071888e+01   7.946144e+01
  -7.027676e+01   6.397614e+01
  -2.919401e+01  -3.882037e+01
   4.043360e+01  -4.744179e+01
   5.823755e+01   1.217440e+01
   6.058667e+01   1.004108e+02
  -4.065274e+01   1.540201e+02
  -1.356092e+02   6.871569e+01
  -1.229487e+02  -8.282729e+01
  -2.958384e+01  -1.336227e+02
   1.027447e+02  -1.403693e+02
   1.022742e+02   5.908671e+01
   7.300104e+01   1.195134e+02
  -4.353394e+00   9.069940e+01
  -5.199546e+01   7.479064e+00
  -4.015904e+01  -2.167403e+01
  -1.952636e+01  -3.227847e+01
   2.898064e+01   4.745043e+01
  -2.145963e+01  -3.038487e+01
  -7.018506e+01  -7.710252e+01
  -7.577387e+01  -9.436899e+01
   6.582574e+01  -3.871371e+01
   1.051261e+02   3.520280e+01
   1.219317e+02   2.294868e+01
   4.090165e+01   4.099708e+01
  -9.900618e+01   4.777644e+01
  -1.309296e+02   1.368360e+01
  -3.030527e+01  -1.694430e+01
   3.084704e+01  -2.360099e+01
   1.110557e+01  -3.481911e+01
  -7.404232e+00   1.575665e+01
  -2.997176e-01   5.545415e+00
   2.593637e+01  -1.085010e+01
   8.707546e+01   2.303139e+01
   2.533928e+00   5.168523e+01
  -7.254397e+01   1.298701e+02
  -1.397062e+02   6.828420e+01
  -1.641643e+02  -4.571012e+01
  -6.304216e+01  -1.506462e+02
   3.023300e+01  -1.628607e+02
   7.465576e+01  -5.302606e+01
   1.051314e+02   5.085844e+00
  -3.050585e+00   2.620806e+01
   7.159403e+00   2.997224e+01
   9.715966e+00   8.368614e+00
   1.965391e+01   5.769171e+01
   9.794042e+00   5.275177e+01
  -4.047702e+01   8.194617e+01
  -6.288160e+01  -5.726109e+00
  -6.465068e+01  -7.642234e+01
  -1.253103e+01  -4.111738e+01
   5.781998e+01  -6.128706e+01
   1.091098e+02   4.047628e+01
   4.926910e+01   9.746619e+01
  -6.059609e+01   6.322698e+01
  -1.059524e+02  -2.631432e+01
  -4.122992e+01  -5.356893e+01
   4.159552e+01  -4.933732e+01
   6.665016e+01  -2.477334e+01
  -1.085582e+01   2.357927e+01
  -4.506444e+01   3.295501e+01
  -2.400107e+01  -2.866960e+01
   8.527854e+01  -5.525610e+01
   1.278629e+02  -4.333982e+01
   4.122275e+01   1.466770e+01
  -2.795926e+00   8.570398e+01
  -5.538173e+01   8.564848e+01
  -1.090779e+01   7.601239e+00
  -1.241308e+00  -2.586493e+01
   2.858660e+01  -3.902230e+01
   3.767911e+01   2.704767e-01
   3.970043e+01   6.818604e+01
  -8.278118e+00   2.993239e+01
  -1.799758e+01   5.343086e+00
  -6.167510e+01   3.991030e+00
  -2.367183e+01  -3.541846e+00
  -6.117606e-01   3.180261e+01
   1.334112e+01   1.375039e+01
   2.456039e+01  -4.626007e+01
  -9.477173e+00  -5.319825e+01
   2.482582e+01  -4.193278e+00
   3.993364e+01   2.870218e+01
  -1.165565e+01   1.997153e+01
  -4.988707e+01   1.826982e+01
  -5.877768e+01  -5.125161e+01
  -1.119981e+01  -5.345898e+01
   4.106028e+01  -2.248923e+01
   5.307276e+01   7.663421e+00
   5.139540e+01   3.315468e+01
  -2.731914e+01   5.129150e+01
  -3.856205e+01   5.041039e+01
  -2.534021e+01  -1.260628e+01
  -2.270033e+01  -8.294547e+00
   6.158297e+01   3.624038e+01
   9.101941e+00   1.662934e+01
  -4.360626e+01   4.238397e+01
