
 $NMID
 id='ANONYMOUS ', fmtdat='(2E16.6)'
 volume=1.0
 tramp=1.0
 $END
   2.534613e+03  -2.289707e+02
   1.815203e+03   1.256622e+03
   1.962846e+02   1.560917e+03
  -8.265552e+02   1.020525e+03
  -7.444096e+02   3.779917e+02
  -1.399675e+02  -1.127438e+02
   2.168025e+02  -7.538645e+01
   1.054868e+02   3.872300e+02
  -2.696218e+02   5.127100e+02
  -4.682412e+02   1.781746e+02
  -3.648736e+02  -3.696099e+02
  -8.736911e+01  -4.888798e+02
   1.452482e+02  -1.557943e+02
   1.959059e+02   2.455907e+02
  -3.954583e+01   4.249624e+02
  -2.834924e+02   1.214076e+02
  -2.646499e+02  -3.403409e+02
   5.683797e+01  -5.047395e+02
   3.843225e+02  -2.443462e+02
   3.544635e+02   6.550595e+01
   1.755309e+02   2.556935e+02
  -2.792776e+01   2.089325e+02
   1.566703e+01   7.800874e+01
   1.594305e+02   1.008903e+02
   1.708483e+02   2.577745e+02
  -3.422184e+01   2.663788e+02
  -3.582544e+02   9.900383e+01
  -4.736408e+02  -1.389851e+02
  -1.028615e+02  -2.809924e+02
   2.478453e+02  -7.112609e+01
   3.719591e+02   1.376361e+02
   1.417227e+02   2.726246e+02
  -2.220693e+02   2.402551e+02
  -3.438186e+02   1.021666e+02
  -2.900544e+02  -7.023251e+01
  -1.097297e+02  -2.365427e+02
  -6.147161e+01  -1.622764e+02
  -3.869312e+01   5.846905e+01
  -1.207647e+02   7.221040e+01
  -1.185710e+02  -8.933414e+01
   3.068954e+01  -3.401108e+02
   1.955226e+02  -3.627687e+02
   1.914784e+02  -9.375781e+00
   1.153897e+02   2.287814e+02
  -7.286241e+01   6.818239e+01
  -8.737421e+01  -2.078872e+02
   8.064098e+01  -2.868305e+02
   3.658322e+02  -8.268399e+01
   3.354247e+02   3.080817e+02
   1.290474e+02   4.228060e+02
  -2.517117e+02   1.868194e+02
  -4.748493e+02   2.998296e+01
  -3.208230e+02  -1.625086e+02
  -2.838888e+01  -1.702427e+02
   2.238844e+02  -9.010405e+01
   1.835712e+02  -2.973361e+01
   2.341472e+01  -8.665161e+00
  -2.828705e+01  -4.888455e+01
   8.470413e+01  -2.742617e+01
   2.239024e+02   7.422805e+00
   1.122257e+02   1.685018e+02
  -1.131258e+02   2.450214e+02
  -2.801748e+02   1.323259e+02
  -2.572167e+02  -7.135424e+01
   2.854658e+01  -2.886282e+02
   2.349627e+02  -2.979130e+02
   3.448804e+02  -1.497119e+02
   1.877205e+02   1.522197e+02
   7.658443e+01   2.542565e+02
   6.291745e+00   2.327754e+02
   1.504226e+01   1.920580e+02
  -3.535611e+01   1.053100e+02
  -1.737429e+02   1.093668e+02
  -2.082360e+02   4.710852e+01
  -2.225441e+02  -1.306547e+02
  -8.514158e+01  -2.206061e+02
   8.434452e+01  -1.552423e+02
   1.709943e+02   7.050602e+00
   1.335506e+02   2.190326e+02
  -6.695535e+01   2.025571e+02
  -2.377256e+02   5.706033e+01
  -2.411211e+02  -1.573884e+02
  -1.469748e+02  -2.473671e+02
   3.954938e+01  -2.513727e+02
   1.136619e+02  -1.603125e+02
   1.150610e+02  -8.326923e+01
   9.398496e+01  -1.023435e+02
   2.244905e+02  -4.683813e+01
   4.138199e+02   9.449667e+01
   2.419277e+02   2.577564e+02
  -1.324395e+01   3.703470e+02
  -3.101009e+02   3.671960e+02
  -4.346152e+02   1.756107e+02
  -2.656420e+02  -8.792987e+01
  -1.061254e+01  -2.318146e+02
   9.117772e+01  -1.666716e+02
  -1.932177e+01  -5.563896e+01
  -1.031094e+02   3.701127e+01
  -9.146671e+01  -4.300482e+01
  -2.031349e+00  -9.324784e+01
   1.035309e+02  -9.671531e+01
   8.093167e+01   6.091710e+01
  -4.298411e+01   1.247897e+02
  -1.392479e+02   9.864814e+00
  -1.482074e+02  -1.801099e+02
  -6.011754e+00  -3.095480e+02
   2.273286e+02  -1.997496e+02
   3.364753e+02   5.547850e+01
   2.356277e+02   2.355657e+02
   1.621757e+01   2.517732e+02
  -1.297551e+02   1.359444e+02
  -1.155547e+02  -1.101293e+01
   6.882789e-01  -3.384388e+00
   3.576861e+01   7.159627e+01
  -6.843529e+00   9.260389e+01
  -1.305418e+02   5.728909e+01
  -1.184496e+02  -6.555100e+01
  -2.476938e+01  -5.260168e+01
   9.686910e+01   2.847825e+01
   3.973064e+01   1.025926e+02
  -1.340636e+02   8.679244e+01
  -2.799997e+02   1.710830e-01
  -2.592180e+02  -1.764750e+02
  -2.086572e+01  -2.345537e+02
   1.545050e+02  -2.315931e+02
   2.256974e+02  -4.792099e+01
   1.176306e+02   4.311885e+01
  -2.257600e+01   3.818159e+01
  -6.079470e+01  -1.039479e+01
   4.800317e+01  -7.343513e+01
   1.555665e+02  -2.653923e+01
   1.830915e+02   9.358881e+01
   7.474979e+01   1.508928e+02
  -7.014811e+01   8.757707e+01
  -1.159447e+02   1.847564e+01
  -3.603769e+01  -2.110662e+01
   3.313717e+01   3.740601e+01
   3.004981e+01   1.487184e+02
  -1.165847e+02   1.092583e+02
  -2.388412e+02   2.290665e+00
  -1.465317e+02  -1.346145e+02
   2.604819e-01  -1.917430e+02
   1.402046e+02  -1.453044e+02
   1.442784e+02  -1.378913e+01
   4.065413e+01   1.165395e+02
  -7.287896e+01   4.649238e+01
  -1.054439e+02   3.222973e+01
  -1.957465e+01   1.237123e+01
   3.288929e+01   1.150615e+01
  -3.843354e+00   2.962767e+01
  -8.754886e+01  -1.436387e+01
  -1.202078e+02  -8.966719e+01
  -2.728076e+01  -1.727914e+02
   1.300264e+02  -1.168391e+02
   1.878238e+02   7.208509e+00
   1.525621e+02   1.636791e+02
   1.478636e+01   2.207908e+02
  -9.829601e+01   1.850291e+02
  -1.449552e+02   1.081415e+01
  -5.271751e+01  -1.465374e+01
  -1.335299e+01  -1.888181e+00
  -7.259594e+01   5.585731e+01
  -9.778952e+01   2.265646e+01
  -3.252304e+01  -3.839859e+01
   3.641159e+01  -8.480219e+01
   1.306883e+02  -5.560876e+01
   1.120907e+02   6.908612e+01
  -1.649945e+01   1.177290e+02
  -1.541801e+02   9.961763e+01
  -1.778116e+02  -7.345303e+01
  -8.270957e+01  -1.944414e+02
   8.369275e+01  -1.830338e+02
   2.563935e+02  -7.050590e+01
   2.468382e+02   7.249863e+01
   1.053613e+02   1.325214e+02
  -3.312563e+01   1.282739e+02
  -7.304872e+01   6.378370e+01
  -6.213549e+01   5.225820e+01
  -4.558594e+01   7.929508e+01
  -7.469112e+01   7.656177e+01
  -1.493364e+02  -5.335819e+00
  -1.445369e+02  -1.154283e+02
  -5.190833e+00  -2.113713e+02
   8.763771e+01  -1.852883e+02
   1.660219e+02  -8.206703e+00
   9.404559e+01   1.140344e+02
  -1.315372e+01   1.543479e+02
  -9.876012e+01   5.409858e+01
  -6.469735e+01  -1.175546e+01
  -5.507989e+00  -7.700007e+01
   2.733871e+01  -3.491224e+01
   4.873606e-01   3.318890e+00
  -8.284814e+01  -7.624399e+00
  -3.648964e+01  -2.959325e+01
   4.921467e+01  -4.066880e+01
   1.370940e+02  -1.738865e+01
   1.109326e+02   6.194383e+01
  -1.257597e+01   9.263351e+01
  -1.372582e+02   7.997223e+01
  -1.130603e+02   1.245585e+01
  -2.029590e+01  -4.808264e+01
   4.822071e+01  -4.045714e+01
   4.523110e+01   2.038567e+01
   1.236922e+01   1.099111e+02
  -2.447541e+01   5.367879e+01
  -6.215380e+01   1.792764e+01
  -7.243677e+01  -4.924455e+01
  -3.118418e+01  -6.494181e+01
  -3.934474e+01  -5.694200e+00
  -4.260254e+01  -1.176802e+01
  -7.181721e+01  -4.533571e+01
   6.329542e+00  -1.368378e+02
   1.206177e+02  -1.312123e+02
   1.152387e+02  -3.467534e+01
   1.067668e+02   7.124615e+01
   9.204216e+00   1.085515e+02
  -9.509792e+01   9.681548e+01
  -5.626608e+01   4.969184e+00
   6.809148e+01  -1.740480e+01
   8.821201e+01   3.264641e+01
   9.012164e+01   9.335943e+01
  -6.053997e+01   9.874095e+01
  -1.533677e+02   2.570030e+01
  -1.241611e+02  -1.300285e+01
  -6.420269e+01  -4.551130e+01
   8.160597e+01  -6.406205e+01
   2.876586e+01  -1.594673e+00
  -5.050162e+01   3.744047e+01
  -7.642510e+01  -1.404642e+01
  -7.851308e+01  -9.866059e+01
   3.220850e+01  -1.261557e+02
   1.284379e+02  -6.292121e+01
   1.066492e+02   9.965315e+01
   2.420312e+01   1.726247e+02
  -8.899732e+01   1.450553e+02
  -1.116230e+02  -9.526120e+00
  -6.274930e+01  -1.062289e+02
  -7.277720e-01  -1.219085e+02
   3.135268e+01  -4.118566e+01
   4.972289e+01   2.719879e+01
   2.727825e+01  -3.000450e+01
  -5.774609e-01  -2.868338e+01
   4.514742e+01  -7.509466e-01
   8.452693e+01   9.198211e+01
   9.217148e+00   8.528956e+01
  -7.014825e+01   3.802868e+01
  -1.101876e+02  -2.949352e+01
  -6.356215e+01  -6.554760e+01
   8.565868e+00  -4.603759e+01
   6.917431e+01  -2.823911e+01
   6.953072e+01  -2.203978e+01
   6.396063e+00   3.161689e+01
  -1.622262e+01   3.095880e+00
   2.760052e+01   2.731560e+01
   1.946478e+01  -1.529689e+01
   1.169216e+00   7.341085e+00
  -5.847663e+01   3.398764e+01
  -8.483302e+01  -2.090863e+01
  -3.852664e+01  -8.457045e+01
   6.435884e+01  -1.140134e+02
   1.633717e+02  -6.543702e+01
   1.412552e+02   3.953741e+01
   6.640499e+01   1.285097e+02
  -6.511105e+01   1.729608e+02
  -9.312319e+01   7.958331e+01
  -7.302510e+01   9.967225e+00
  -2.906144e+01  -1.877246e+01
  -1.738050e+01  -3.240605e+00
  -3.187553e+01  -5.593537e+00
  -2.526831e+01  -3.928931e+01
  -1.115790e+01  -9.191569e+01
   5.324737e+01  -6.685156e+01
   4.736269e+01   1.068997e+01
   8.629099e+01   8.516764e+01
   1.661859e+01   9.997219e+01
  -2.732837e+01   1.850187e+01
  -1.153168e+02  -3.033311e+01
  -5.657057e+01  -4.733464e+01
   7.529640e+01  -7.185286e+01
   1.296686e+02   9.040175e+00
   7.734335e+01   5.347807e+01
  -7.135433e+00   8.763130e+01
  -3.668811e+01   4.173587e+01
   1.202017e+01  -1.350294e+01
   5.449714e+01  -3.309179e+01
   2.968596e+01  -5.146042e+00
  -6.741976e+01   5.599067e+01
  -1.011910e+02   4.957529e+01
  -7.744075e+01  -2.591442e+00
   1.708923e+01  -6.762379e+01
   4.366941e+01  -8.733789e+01
   4.308365e+01   3.885473e+00
   7.302177e+00   4.350365e+01
  -4.038870e+01   7.937132e+01
  -1.244783e+01  -1.123931e+01
  -1.526645e+01  -3.267037e+01
   8.204649e+00  -1.223213e+01
   1.896244e+01  -2.640010e+00
   3.694930e+01   5.667481e+01
   7.325347e-01   1.520575e+01
  -5.359155e+00  -1.442102e+01
   1.634424e+00  -3.405133e+00
   5.082455e+00   2.860711e+01
   4.793935e+00   4.966898e+01
  -6.374668e+00   2.946381e+01
  -5.664551e+01  -2.823987e+01
  -2.676712e+01  -4.940159e+01
   2.849866e+01  -9.545808e+00
   7.871796e+01   4.380825e+01
   1.392772e+01   8.898053e+01
  -4.044938e+01   2.567806e+00
  -6.264327e+01   1.246314e+01
  -5.992036e+01  -4.487350e+01
   4.358668e+01  -1.599772e+01
   4.303243e+01  -2.791182e+01
   3.479292e+01   4.323348e+00
  -3.001258e+01  -4.558645e+00
  -1.870867e+01   8.267507e+00
   2.386014e+01  -5.701122e+01
   6.413515e+01  -1.228658e+01
