
 $NMID
 id='ANONYMOUS ', fmtdat='(2E16.6)'
 volume=1.0
 tramp=1.0
 $END
  -2.086293e+03   5.198339e+00
  -1.718745e+03  -8.913867e+02
  -2.918568e+02  -1.650349e+03
   7.616097e+02  -1.054984e+03
   5.848128e+02  -4.627284e+02
   1.230814e+02   6.371426e+01
  -2.022693e+02   2.061943e+01
  -1.630613e+02  -3.947287e+02
   2.406633e+02  -4.555396e+02
   4.557587e+02  -1.312460e+02
   3.608628e+02   2.868568e+02
   1.002678e+02   4.379603e+02
  -1.740223e+02   1.685268e+02
  -1.316197e+02  -2.987742e+02
   8.435984e+01  -3.972813e+02
   3.012690e+02  -1.180959e+02
   3.118235e+02   3.744910e+02
   5.068966e+00   5.359263e+02
  -3.298117e+02   3.531886e+02
  -3.793356e+02  -9.060590e+01
  -2.096737e+02  -2.471883e+02
   4.555040e+01  -2.448647e+02
   4.155312e+00  -8.545363e+01
  -2.017711e+02  -8.930489e+01
  -1.946506e+02  -2.484904e+02
   2.225114e+01  -2.960817e+02
   3.874028e+02  -9.600135e+01
   4.202894e+02   1.428634e+02
   1.489783e+02   2.342868e+02
  -2.941405e+02   1.125380e+02
  -3.823861e+02  -1.346657e+02
  -1.058825e+02  -2.841799e+02
   1.914367e+02  -2.538773e+02
   3.294431e+02  -1.383673e+02
   2.202155e+02   1.266068e+02
   5.195930e+01   2.613209e+02
   1.699129e+01   8.427868e+01
   5.777099e+01  -5.938405e+01
   1.959578e+02  -7.881426e+01
   1.171698e+02   1.461023e+02
  -4.192145e+01   3.767960e+02
  -2.186868e+02   3.132545e+02
  -2.001165e+02  -4.387269e+00
  -7.262677e+01  -2.199220e+02
   1.308692e+02  -9.775336e+01
   8.491082e+01   2.228380e+02
  -1.111700e+02   2.963913e+02
  -3.661625e+02   3.232384e+01
  -3.635829e+02  -2.688636e+02
  -9.440683e+01  -3.859012e+02
   2.166961e+02  -1.883099e+02
   3.693317e+02   1.764231e+01
   2.707236e+02   1.820661e+02
  -3.526601e+01   1.568007e+02
  -2.278220e+02   5.353128e+01
  -1.716477e+02   2.658405e+01
  -1.044428e+01   3.543105e+00
   2.305005e+01   5.056346e+00
  -7.720618e+01   2.954239e+01
  -1.458442e+02  -4.722450e+01
  -1.018912e+02  -1.260410e+02
   1.273030e+02  -1.984464e+02
   2.603783e+02  -1.432428e+02
   2.274710e+02   9.329029e+01
  -1.185041e+01   2.969851e+02
  -2.568653e+02   3.331551e+02
  -3.242442e+02   1.211006e+02
  -1.990828e+02  -1.506298e+02
  -6.946783e+01  -2.537492e+02
   2.435251e+01  -1.861403e+02
  -4.754930e+01  -1.424158e+02
  -4.562612e+00  -1.253204e+02
   1.447969e+02  -1.121963e+02
   2.437116e+02  -4.739380e+01
   1.926580e+02   1.095869e+02
   6.201494e+01   2.100682e+02
  -1.407099e+02   1.232958e+02
  -1.700312e+02  -3.276406e+01
  -1.073028e+02  -2.163936e+02
   6.760135e+01  -2.182350e+02
   2.374885e+02  -3.391926e+01
   2.403986e+02   1.560862e+02
   1.401163e+02   2.658654e+02
  -2.259918e+01   2.131363e+02
  -1.144719e+02   1.819386e+02
  -9.873991e+01   1.077722e+02
  -1.566674e+02   9.772348e+01
  -2.785983e+02   5.358279e+01
  -3.606886e+02  -9.371397e+01
  -2.859953e+02  -2.300435e+02
   3.260823e+01  -3.843258e+02
   3.107107e+02  -3.509934e+02
   4.275918e+02  -1.413835e+02
   2.382951e+02   1.179968e+02
  -8.639160e+00   2.151525e+02
  -7.758225e+01   1.341495e+02
  -1.519273e+00  -6.615155e-01
   1.206003e+02  -2.754951e+01
   1.065846e+02   6.973143e+01
   9.926045e+00   1.350985e+02
  -1.086794e+02   7.001046e+01
  -1.002618e+02  -2.901811e+01
   5.743841e+01  -1.001422e+02
   1.732340e+02   1.697003e+01
   1.143378e+02   2.097381e+02
   2.582329e+01   3.006978e+02
  -2.350978e+02   2.053029e+02
  -3.586468e+02  -8.259307e+01
  -2.506809e+02  -2.713021e+02
  -6.210930e+00  -2.314401e+02
   1.349974e+02  -1.150064e+02
   1.235975e+02   2.298713e+00
   5.312165e+00   1.294597e+01
  -4.610910e+01  -5.453472e+01
   1.473073e+01  -9.749496e+01
   1.125769e+02  -5.710187e+01
   1.084207e+02   2.000191e+01
   5.515672e+00   5.364443e+01
  -7.291272e+01  -3.753114e+01
  -7.261800e+01  -1.058460e+02
   1.281829e+02  -1.265026e+02
   2.971287e+02  -6.065771e+00
   2.251804e+02   1.876581e+02
  -9.961898e+00   2.519403e+02
  -1.851330e+02   2.094838e+02
  -2.398522e+02   6.713247e+01
  -7.959790e+01  -4.454391e+01
   4.540774e+01  -7.118174e+01
   4.690190e+01   2.293048e+01
  -6.115191e+01   8.038208e+01
  -1.848094e+02   2.342928e+01
  -1.703973e+02  -9.810457e+01
  -5.207583e+01  -1.694865e+02
   8.670236e+01  -1.038733e+02
   9.708012e+01  -2.233190e+01
   3.437316e+01   2.809920e+01
  -5.528213e+01  -4.228773e+01
  -2.607440e+01  -1.117210e+02
   9.529939e+01  -9.659502e+01
   1.769499e+02  -1.121693e+01
   1.360600e+02   1.403253e+02
  -2.162334e+01   1.810586e+02
  -1.696879e+02   1.147675e+02
  -1.272334e+02   7.825367e+00
  -4.544276e+01  -5.088716e+01
   7.048092e+01  -8.284802e+01
   4.855258e+01  -4.099959e+00
  -2.547546e+01   1.149985e+01
  -4.452143e+01  -7.190995e+00
  -4.568718e+00  -1.902818e+01
   8.669077e+01  -4.018202e+01
   1.111639e+02   8.341191e+01
   3.525616e+00   1.695705e+02
  -1.145971e+02   1.111644e+02
  -2.070663e+02  -1.890280e+01
  -1.247523e+02  -1.605692e+02
  -1.393480e+01  -2.067061e+02
   9.045058e+01  -1.386945e+02
   1.017287e+02  -1.022015e+01
   3.589870e+01   5.736123e+01
   2.219129e+00   3.690332e+00
   3.920823e+01  -3.413067e+00
   8.420596e+01  -3.825178e+00
   4.169294e+01   5.544824e+01
  -3.175553e+01   9.718206e+01
  -6.953709e+01   5.024316e+01
  -7.332540e+01  -5.294778e+01
   2.533474e+01  -1.079578e+02
   1.248462e+02  -9.534449e+01
   1.285787e+02   4.809979e+01
   5.747693e+01   1.773135e+02
  -1.013632e+02   2.119965e+02
  -2.423443e+02   5.460364e+01
  -2.622918e+02  -9.838889e+01
  -9.065933e+01  -1.531018e+02
   2.988812e+01  -1.110623e+02
   7.143387e+01  -8.380461e+01
   7.392957e+01  -7.433121e+01
   7.466570e+01  -5.829915e+01
   8.149071e+01  -4.979741e+01
   1.241162e+02   3.549664e-01
   1.012074e+02   1.139245e+02
   3.760441e+01   1.860143e+02
  -8.918137e+01   1.526656e+02
  -1.549004e+02  -1.939995e+01
  -1.068093e+02  -1.053217e+02
   1.309949e+01  -1.288696e+02
   5.723086e+01  -8.203287e+01
   8.099359e+01   5.252617e+00
   3.889154e-01   8.410079e+01
  -3.328686e+01   4.894444e+01
  -6.538654e+00  -4.111407e+01
   7.517858e+01   1.283572e+01
   1.362221e+01   3.929768e+01
  -8.081514e+01   5.403867e+01
  -1.656992e+02   4.504586e+01
  -1.227352e+02  -6.040721e+01
   6.092573e+00  -9.098404e+01
   1.289439e+02  -6.955570e+01
   1.428874e+02   2.174432e+01
   1.624517e+01   5.315679e+01
  -5.658847e+01   2.730718e+01
  -5.590151e+01  -2.276618e+01
  -1.818638e+01  -8.547729e+01
   5.615058e+01  -5.334431e+01
   4.515441e+01  -1.376927e+01
   9.340834e+01   4.069327e+01
   9.515222e+00   5.201338e+01
   2.501721e+01   1.560032e+01
   7.460076e+01   7.803957e+00
   6.233670e+01   2.414799e+01
  -2.828757e+01   1.245355e+02
  -9.535667e+01   1.414219e+02
  -1.568888e+02   3.402156e+01
  -1.391297e+02  -1.060351e+02
  -1.650998e+01  -1.065429e+02
   1.058822e+02  -8.139636e+01
   5.853387e+01   7.433178e+00
  -5.587987e+01   2.131798e+01
  -9.471582e+01  -2.372358e+00
  -9.387919e+01  -8.366360e+01
   5.434052e+01  -8.751551e+01
   1.738863e+02  -3.973824e+01
   1.293003e+02   2.749710e+01
   1.741645e+01   8.441708e+01
  -6.884609e+01   5.421495e+01
  -4.531161e+01  -5.447571e+00
   5.356447e+01  -3.080483e+01
   7.837359e+01  -1.225735e+01
   6.385199e+01   1.125589e+02
  -4.891904e+01   1.640866e+02
  -1.570038e+02   9.885446e+01
  -1.309869e+02  -7.816233e+01
  -3.835494e+00  -1.846256e+02
   7.855112e+01  -1.233898e+02
   7.873485e+01   2.608455e+01
   3.644508e+01   1.130845e+02
  -1.702831e+01   1.105042e+02
  -3.814007e+01   1.128795e+01
  -2.859651e+01  -3.501439e+01
  -1.296025e+01  -2.478998e+01
   1.368055e+00   1.800437e+01
  -3.159549e+01   4.353100e+00
  -4.329073e+01  -1.165199e+02
  -2.196409e+01  -1.002126e+02
   4.991558e+01  -5.464852e+01
   1.094127e+02   2.106921e+01
   9.689783e+01   4.873832e+01
   2.584362e+01   3.541673e+01
  -6.564063e+01   1.269174e+01
  -7.245053e+01   7.216836e+00
  -1.262526e+01  -3.120982e+01
   1.727235e+01  -1.954352e+01
   2.383185e+01  -1.477423e+01
  -4.260340e+01   6.599444e+00
  -3.316400e+01  -7.744870e+00
   7.707807e+01  -1.324073e+01
   9.456436e+01   7.303893e+00
   1.335540e+01   5.643437e+01
  -6.891201e+01   1.164814e+02
  -1.535559e+02   2.851458e+01
  -1.125452e+02  -7.298059e+01
  -5.040914e+01  -1.048623e+02
   4.204579e+01  -1.567634e+02
   1.154414e+02  -6.383650e+01
   8.233512e+01   1.447314e+01
   1.680414e+01   2.808757e+01
  -8.154874e+00  -5.686359e-02
   2.108979e+01   2.976645e+00
   3.774042e+01   3.623173e+01
   3.051489e+01   7.301828e+01
  -2.833906e+01   3.770734e+01
  -7.093448e+01  -1.946054e+01
  -9.598085e+01  -7.187770e+01
  -7.840586e+00  -9.587416e+01
   6.632112e+01  -3.783487e+01
   9.888092e+01   3.425450e+01
   2.354240e+01   7.536327e+01
  -4.614547e+01   5.756405e+01
  -8.166664e+01  -1.091425e+01
  -4.798560e+01  -8.591954e+01
   4.406530e+01  -7.454070e+01
   7.355144e+01  -3.151440e+01
   1.238589e+01   1.794481e+01
  -3.857601e+01   1.874716e+01
  -7.141557e+00  -1.244979e+01
   4.082736e+01  -5.637496e+01
   9.476524e+01  -6.309328e+01
   5.514516e+01   1.834766e+01
  -2.310437e+01   8.963750e+01
  -2.300221e+01   6.700645e+01
  -5.640351e+01   6.659735e+00
  -1.539669e+01  -4.858786e+01
   1.665786e+01  -6.123766e+01
   2.221941e+01  -1.808613e+01
  -4.985969e+00   4.498925e+01
  -1.801600e+01   9.172878e+00
  -2.449164e+01  -1.319384e+01
  -2.030238e+01  -2.741682e+01
   3.988027e+00  -5.010505e+00
  -5.860973e-01   2.615821e+01
   2.060704e+01   2.875179e+01
  -2.815992e+01  -3.962358e+01
  -1.338743e+01  -8.146165e+01
  -6.680756e+00  -4.226919e+01
   3.608344e+01   2.515347e+01
   4.383997e+00   1.253608e+01
  -5.390354e+01   2.267703e+01
  -7.084301e+01  -1.706633e+01
  -2.092092e+01  -5.839187e+01
   5.464403e+01  -3.059429e+01
   6.969298e+01  -3.196492e+00
   5.779222e+01   5.840838e+01
  -4.296005e+01   3.203642e+01
  -6.699455e+01   5.571493e+01
  -1.809174e+01   1.445598e+01
   1.061718e+01   6.970771e+00
   5.811753e+00   9.046647e+00
  -4.224173e+01   2.161154e+01
  -5.775333e+01   1.496184e+01
