
 $NMID
 id='ANONYMOUS ', fmtdat='(2E16.6)'
 volume=1.0
 tramp=1.0
 $END
  -1.462235e+03   2.916389e+01
  -1.372353e+03  -9.541707e+02
   7.927794e+01  -1.168998e+03
   5.982187e+02  -6.019190e+02
   4.313012e+02  -2.167842e+02
  -3.548236e+01  -1.215414e+01
  -1.813282e+02  -9.703854e+01
   1.856904e+01  -2.398747e+02
   2.491955e+02  -2.379910e+02
   3.235495e+02  -5.877989e+01
   2.393287e+02   2.282651e+02
   8.343039e+01   3.272172e+02
  -6.408540e+01   1.196393e+02
  -1.193906e+02  -1.140671e+02
  -5.158793e+01  -2.020989e+02
   9.855972e+01  -5.563985e+01
   1.140869e+02   1.710092e+02
   8.921730e+00   2.750889e+02
  -1.929238e+02   1.025465e+02
  -1.932731e+02  -3.345163e+01
  -1.127204e+02  -1.548753e+02
   2.964719e+01  -1.372022e+02
   6.300712e+01  -8.764171e+01
  -4.343055e+01  -6.250103e+01
  -1.480483e+02  -7.676514e+01
  -3.190631e+01  -1.280555e+02
   2.006846e+02  -5.891434e+01
   2.482816e+02   5.584424e+01
   1.262724e+02   1.683893e+02
  -1.510347e+02   9.925020e+01
  -1.598879e+02  -4.455449e+01
  -7.222592e+01  -1.400102e+02
   9.402265e+01  -1.112765e+02
   2.076481e+02  -8.184116e+01
   1.414891e+02   6.360337e+01
   3.578126e+01   1.368730e+02
  -1.326554e+01   5.880204e+01
   5.054119e+01  -3.778171e+01
   4.883486e+01  -4.425795e+01
   8.169770e+01   6.768353e+01
   1.845382e+01   2.185707e+02
  -1.115141e+02   2.052811e+02
  -1.080051e+02   7.292686e+00
  -6.603954e+01  -1.417336e+02
   5.972821e+01  -6.922934e+01
   2.904226e+01   7.832655e+01
  -7.611327e+00   1.392923e+02
  -1.622299e+02  -2.940885e+01
  -1.956707e+02  -1.607576e+02
  -5.467300e+01  -2.156843e+02
   1.293996e+02  -1.209098e+02
   2.476826e+02   5.943016e+01
   1.345265e+02   7.773678e+01
  -4.448785e+01   9.381260e+01
  -8.598412e+01   2.088127e+01
  -7.307637e+01  -2.087460e+01
   1.724927e+01   3.939073e+01
   1.237949e+00   1.880411e+01
  -9.050121e+01   3.816769e+01
  -1.004088e+02  -2.859521e+01
  -7.409340e+01  -9.400404e+01
   7.694399e+01  -9.729666e+01
   9.443570e+01  -5.377015e+01
   1.293259e+02   2.710277e+00
   1.220738e+01   1.175791e+02
  -1.386993e+02   1.715419e+02
  -1.378233e+02   6.988265e+01
  -1.281270e+02  -5.113390e+01
  -3.332453e+01  -1.075626e+02
   1.142541e+01  -1.521266e+02
  -6.029143e+00  -1.050274e+02
  -1.565576e+00  -6.106869e+01
   6.427308e+01  -8.357538e+01
   1.238427e+02  -3.412922e+01
   1.025029e+02   4.197876e+01
   4.665365e+01   1.176188e+02
  -5.842957e+01   9.417569e+01
  -5.856218e+01  -4.589747e+00
  -8.165676e+01  -1.077790e+02
   1.243456e+01  -8.119579e+01
   1.138476e+02  -3.532998e+01
   1.030798e+02   8.632617e+01
   4.628118e+01   1.481505e+02
  -3.324405e+01   8.840845e+01
  -5.169378e+01   7.425439e+01
  -5.516859e+01   3.991059e+01
  -6.446099e+01   3.262380e+01
  -1.337218e+02   2.802786e+01
  -2.469868e+02  -3.010202e+01
  -1.363936e+02  -1.455795e+02
   1.866651e+01  -1.710848e+02
   1.378404e+02  -1.484589e+02
   2.325789e+02  -6.325388e+01
   7.271539e+01  -2.046888e-02
   1.547159e+01   9.956081e+01
  -5.216037e+01   5.914081e+01
   2.691884e+01   2.969179e+01
   6.746915e+01   2.469743e+01
   8.660277e+01   4.559788e+01
  -1.814181e+01   4.622525e+01
  -2.306366e+01   7.220485e+01
  -6.378932e+01  -6.867097e+00
   6.021237e+00  -4.277485e+01
   3.855231e+01   7.656158e+00
   7.171170e+01   7.929697e+01
  -2.356988e+00   9.798775e+01
  -1.036340e+02   5.854169e+01
  -1.184362e+02  -5.555753e+01
  -1.344516e+02  -1.061383e+02
  -4.250357e+01  -1.260529e+02
   4.729176e+01  -5.083584e+01
   8.490512e+01  -2.430000e+01
   3.919268e+01  -2.511238e+01
  -1.043799e+01  -3.979894e+01
   5.695750e+00  -4.884330e+01
   5.110116e+01  -3.549467e+01
   4.702745e+01  -5.474011e+00
  -9.640044e+00   5.880330e+00
  -1.215699e+01  -2.776525e+01
  -1.752982e+01  -4.212293e+01
   5.072896e+01  -2.258915e+01
   1.759904e+02  -1.791841e+00
   9.891250e+01   6.832219e+01
  -3.686523e+00   1.232517e+02
  -8.345055e+01   7.371612e+01
  -8.110959e+01   3.798502e+01
  -2.591570e+01  -1.511008e+01
   1.060687e+01  -6.148654e+01
   1.669528e+01   3.824615e+01
   1.439104e+00   4.440169e+00
  -7.239103e+01   2.724625e+01
  -1.010916e+02  -4.588574e+01
  -2.120474e+01  -7.328182e+01
   5.939753e+01  -5.360834e+01
   5.291696e+01  -2.327354e+01
  -1.975989e+00   1.846573e+01
  -4.065957e+01  -2.995492e+00
  -1.622866e+01  -4.683164e+01
   4.906680e+01  -5.049282e+01
   1.214407e+02   1.717582e+01
   8.586855e+01   5.656987e+01
  -1.925309e+00   9.077698e+01
  -5.125276e+01   1.393350e+01
  -3.526323e+01   1.205594e+01
  -4.677501e+00  -2.324253e+01
   4.299609e+01  -2.961202e+00
   5.916703e+00   6.577346e+00
  -2.291206e+01  -5.148251e+00
  -7.415312e+00   2.493981e+01
  -2.466244e+01   2.230018e+01
   1.778209e+01   1.140407e+01
   5.075336e+01   5.546754e+01
   6.603142e+00   6.763951e+01
  -6.406840e+01   6.185136e+01
  -9.256615e+01  -1.905446e+00
  -7.167875e+01  -5.227153e+01
  -6.041780e+00  -1.438757e+02
   4.953227e+01  -5.079712e+01
   5.773507e+01  -3.115390e+00
   2.747979e+01   3.624096e+00
   2.529951e+01   1.196164e+01
   3.667277e+01  -3.997542e+00
   3.620049e+01   1.567572e+01
   2.891292e+01   3.362988e+01
  -5.305004e+00   2.232219e+01
  -5.285786e+01   2.148847e+01
  -3.084736e+01  -1.815244e+01
   1.952243e+01  -6.832739e+01
   8.779087e+01  -4.644233e+01
   9.201036e+01   1.983301e+00
   2.410356e+01   1.157916e+02
  -9.804676e+01   1.203887e+02
  -1.094646e+02   1.380345e+01
  -1.234176e+02  -8.127332e+01
  -5.820166e+01  -9.190331e+01
   2.012627e+01  -3.640820e+01
   1.892145e+01  -2.792670e+01
   2.296846e+01  -5.362608e+01
   1.418802e+01  -3.766992e+01
   4.652698e+01  -2.810857e+01
   4.806875e+01  -2.160402e+01
   1.220794e+01   6.916503e+01
   6.115423e+01   8.937418e+01
  -2.554479e+01   4.552440e+01
  -7.733127e+01   1.048722e+01
  -6.236334e+01  -2.982575e+01
  -2.417317e+01  -4.459486e+01
   4.029881e+01  -2.486909e+01
   1.203952e+00   4.052368e+01
   9.005648e+00   2.928166e+01
   9.230692e+00   1.423985e+01
   1.327758e+01  -2.707899e+01
   2.643865e+01  -1.783389e+01
   1.289671e+00  -5.339089e+00
  -2.630442e+01   2.053688e+01
  -6.693299e+01   1.791881e+00
  -3.963407e+01  -4.403912e+01
  -2.406273e+01  -4.238024e+01
   4.633380e+01  -5.833206e+01
   5.642471e+01  -5.895016e+00
   9.340517e+00   1.438284e+01
  -6.655920e+00  -1.243755e+01
  -1.277275e+01  -8.561090e+00
   5.601270e+00  -1.037355e+01
   3.902903e+01  -2.508192e+01
   2.186589e+01   2.057239e+01
   2.581170e+01   3.500493e+01
   1.642020e+01   1.992683e+01
   8.039550e+00  -1.896134e+01
   4.279462e+01  -1.956092e+00
   2.579315e+01   2.250700e+01
  -3.248777e+01   5.276919e+01
  -6.368809e+01   2.643186e+01
  -6.896103e+01   1.168160e+01
  -4.207494e+01  -1.311320e+01
  -2.738021e+01  -3.197837e+01
   1.325526e+01  -3.507275e+01
   1.030438e+01  -1.820191e+01
  -4.367828e+01   8.016880e+00
  -5.553900e+01  -1.661175e+01
  -2.977872e+01  -8.510993e+01
   1.951204e+01  -4.613033e+01
   7.643434e+01  -1.873353e+01
   7.044222e+01  -2.687348e+01
   1.039027e+01   3.182979e+01
   6.604940e+00   4.862945e+01
  -2.281464e+01   1.288428e+01
   9.981926e+00  -5.710473e+00
   3.365580e+00  -6.216043e+00
   3.717525e+01   5.820730e+01
  -8.583722e+00   3.864166e+01
  -5.268321e+01   4.097952e+01
  -7.099228e+01  -3.337166e+01
  -3.642624e+00  -3.957059e+01
   2.264088e+01  -3.966784e+01
   6.714583e+00   7.414587e+00
  -1.309387e+01   3.868954e+01
   8.597454e+00   5.537014e+01
  -2.124893e+01   1.101875e+01
  -1.110597e+01   8.116977e+00
  -9.920222e+00  -3.103550e+00
  -2.069451e+01   1.036970e+00
  -1.221334e+01  -1.446826e+01
  -1.721546e+01  -6.373719e+01
  -2.977124e+00  -3.390127e+01
   3.412808e+00  -1.488148e+01
   1.770543e+01   2.287324e+01
   3.654848e+01  -1.002930e+00
   1.114432e+01   3.730314e+00
  -6.818164e+00  -6.367806e+00
  -2.909151e+00   8.687948e+00
   3.357016e+00   1.096910e+01
   8.340070e+00   4.229150e-01
   2.232895e+01  -1.346649e+01
  -1.693455e+01   3.447129e+00
   2.031666e+01  -6.652325e+00
   3.358884e+01   1.341416e+01
   1.907847e+01   1.255632e+01
   2.459118e+01   2.480717e+01
  -2.870349e+01   3.590098e+01
  -8.820046e+01   2.546578e+01
  -3.116901e+01  -2.052041e+01
  -2.796220e+01  -5.474834e+01
  -2.255764e+01  -5.030852e+01
   4.783336e+01  -4.606427e+01
   4.499400e+01   3.504066e+00
  -1.305799e+01   3.731559e+01
   1.253853e+01   2.765349e+01
   1.616349e+01   3.170580e+01
   1.377678e+01   2.434198e+01
  -2.858995e+01   5.754147e+01
  -6.686504e+00   6.276868e+01
  -4.540274e+01   1.155799e+00
  -5.175838e+01  -6.324435e+01
  -5.196257e+01  -4.520390e+01
   1.702102e+01  -4.309654e+01
   5.131369e+01   3.379378e+01
   1.921382e+01   5.609812e+01
  -4.609965e+01   3.301421e+01
  -5.457866e+01   4.355029e+01
  -4.543694e+01  -6.094641e+01
   1.441146e+01  -2.641642e+01
   3.887403e+01  -2.581838e+01
  -1.235089e+01  -2.310590e+01
  -4.479981e+01   2.725128e+01
  -4.050238e+01   1.199325e+00
   1.734241e+01  -3.673764e+01
   5.584929e+01  -5.958658e+01
   5.724416e+01   9.174105e-01
   1.449195e+00   3.159525e+01
  -5.787032e-01   2.297686e+01
  -1.860560e+00   4.938115e+01
  -3.384278e+01  -7.327840e+00
   1.426024e+01  -1.554409e+01
   1.558740e+01  -7.531841e+00
   3.729968e+01   1.247335e+01
  -5.335612e-01   3.340664e+01
  -3.011121e+01   6.541649e+00
  -3.411895e+01  -9.125015e+00
  -1.154144e+01  -1.228495e-01
   1.762282e+01   9.659637e+00
   4.146405e+00   3.609695e+00
   1.204813e+01  -1.728534e+01
   6.848233e+00  -1.897866e+01
   1.504905e+01  -1.397257e+01
   3.237986e+00   1.573149e+01
  -2.560631e+01   1.747058e+01
   1.545095e+00   1.409950e+01
  -3.292753e+01   1.079542e+01
  -1.334917e+00  -1.380493e+01
   1.342048e+01  -5.212477e+01
   6.719745e+01  -1.962522e+01
   4.698067e+01  -1.059858e+00
  -7.035007e+00  -8.554166e-01
  -3.782320e+01   4.190372e+01
  -4.388448e+01  -1.008814e+01
   1.837238e+00   9.140541e+00
   4.698520e+00  -5.414153e-01
  -2.224717e+01   1.347980e+01
  -4.327913e+01   1.993469e+01
