
 $NMID
 id='ANONYMOUS ', fmtdat='(2E16.6)'
 volume=1.0
 tramp=1.0
 $END
  -3.075270e+03  -1.093734e+02
  -1.768723e+03  -1.689832e+03
   2.762985e+02  -1.826948e+03
   1.338442e+03  -8.582665e+02
   7.285229e+02  -1.486248e+01
  -1.675116e+02   2.230754e+02
  -3.973173e+02  -2.289224e+02
   4.048773e+01  -5.689889e+02
   5.010701e+02  -4.898125e+02
   5.708699e+02   2.128785e+01
   3.282118e+02   5.485804e+02
  -8.493188e+01   6.526953e+02
  -3.630629e+02   1.148745e+02
  -2.114041e+02  -4.346856e+02
   1.902417e+02  -5.443939e+02
   3.976516e+02  -1.005029e+01
   2.458226e+02   4.823352e+02
  -2.001885e+02   4.959060e+02
  -3.954085e+02   1.259498e+02
  -3.166198e+02  -1.966271e+02
  -8.797903e+01  -2.820825e+02
   1.137844e+02  -1.733850e+02
   9.208139e+01  -3.582726e+01
  -1.249149e+02  -5.284193e+01
  -2.098241e+02  -2.023537e+02
  -1.943850e+01  -3.160498e+02
   3.859259e+02  -1.693551e+02
   5.108496e+02   2.036579e+02
   2.028602e+02   4.123098e+02
  -3.236450e+02   1.943349e+02
  -5.333240e+02  -1.410895e+02
  -1.686359e+02  -3.612651e+02
   2.374007e+02  -3.314249e+02
   4.263099e+02  -9.883776e+01
   3.119735e+02   1.851220e+02
   2.133910e+01   3.312730e+02
  -7.391569e+01   1.832345e+02
  -3.423877e+00  -9.281575e+01
   1.381017e+02  -2.026626e+02
   2.212615e+02   1.193555e+02
   2.702966e+01   4.615953e+02
  -2.683390e+02   4.176291e+02
  -3.557192e+02  -1.460320e+01
  -1.413326e+02  -3.325360e+02
   1.941426e+02  -1.617318e+02
   2.016210e+02   2.514417e+02
  -6.030660e+01   3.791018e+02
  -3.710020e+02   1.371479e+01
  -3.738304e+02  -3.901147e+02
  -9.539306e+01  -4.531530e+02
   2.742724e+02  -1.813509e+02
   4.267487e+02   5.398540e+01
   3.045466e+02   2.099172e+02
  -2.801652e+01   2.080853e+02
  -2.451816e+02   4.570140e+01
  -1.915454e+02  -7.698584e+01
   1.734442e+01  -6.265062e+01
   7.287952e+01   7.990685e+01
  -1.290447e+02   6.990800e+01
  -2.124267e+02  -4.431752e+01
  -1.276198e+02  -2.196680e+02
   1.499916e+02  -2.276796e+02
   3.307428e+02  -1.085749e+02
   1.998893e+02   8.960457e+01
  -2.526727e+01   2.255467e+02
  -2.410537e+02   3.191785e+02
  -2.874738e+02   1.352799e+02
  -2.151841e+02  -1.716394e+02
  -4.348978e+01  -3.396339e+02
   6.641547e+01  -2.493123e+02
   5.272307e+01  -1.309750e+02
   3.613994e+01  -6.591658e+01
   1.150931e+02  -7.598973e+01
   2.441553e+02  -4.325195e+01
   2.291335e+02   8.912344e+01
   8.562834e+01   2.280512e+02
  -5.408312e+01   1.533090e+02
  -1.819467e+02  -8.871255e+00
  -1.295429e+02  -2.109758e+02
   4.715692e+01  -1.982013e+02
   1.801664e+02  -4.953549e+01
   2.605206e+02   1.526122e+02
   1.422100e+02   2.908551e+02
  -5.407468e+01   2.459118e+02
  -1.866272e+02   8.576734e+01
  -1.219286e+02   3.258374e+01
  -1.383298e+02   2.844079e+01
  -1.884672e+02   1.248011e+01
  -3.072491e+02  -1.045840e+02
  -2.724792e+02  -2.548941e+02
   3.340537e+01  -3.467080e+02
   3.371584e+02  -2.828529e+02
   3.887063e+02  -1.175189e+02
   2.543247e+02   1.136320e+02
   1.482408e+01   2.405194e+02
  -1.340177e+02   1.768835e+02
  -5.787372e+01   1.527102e+01
   6.694177e+01  -6.861452e+01
   1.279973e+02   9.927434e-01
   4.111873e+01   1.435482e+02
  -1.097604e+02   1.114814e+02
  -9.584238e+01  -5.074422e+01
   4.182726e+01  -1.315711e+02
   1.659331e+02   2.562116e+00
   1.450426e+02   2.156838e+02
  -2.672969e+01   3.019815e+02
  -2.059674e+02   1.512011e+02
  -3.000878e+02  -3.195848e+01
  -1.927680e+02  -2.404234e+02
  -3.979939e+01  -2.398180e+02
   1.207951e+02  -1.298483e+02
   1.281078e+02   4.082853e+01
   5.479565e+01   3.630275e+01
  -6.171962e+01  -4.870343e+01
  -1.659607e+01  -7.999208e+01
   1.142852e+02  -4.639531e+01
   1.244148e+02   9.871675e+00
   2.935559e+01   5.220232e+01
  -7.303706e+01   2.030325e+01
  -3.543516e+01  -4.074005e+01
   1.172531e+02  -4.918953e+01
   2.205137e+02   2.979082e+01
   1.914653e+02   1.288382e+02
   1.789198e+01   2.302910e+02
  -1.660458e+02   2.201708e+02
  -2.489479e+02   7.451230e+01
  -1.294696e+02  -3.273624e+01
   4.182291e+01  -1.065163e+02
   7.463033e+01  -2.673746e+00
   1.727047e-01   7.586660e+01
  -1.244045e+02   1.490179e+01
  -1.844069e+02  -8.913318e+01
  -2.850166e+01  -1.870377e+02
   9.937255e+01  -8.300095e+01
   1.119726e+02   1.206971e+01
   2.138487e+01   1.849659e+01
  -4.326869e+01  -3.017542e-01
  -3.193300e+01  -1.089387e+02
   8.645733e+01  -1.222744e+02
   1.552126e+02  -6.060301e+01
   1.252578e+02   9.867780e+01
  -1.246088e+01   1.713377e+02
  -1.735139e+02   1.020454e+02
  -1.410392e+02  -3.735209e+01
  -2.982749e+01  -1.141148e+02
   5.453536e+01  -6.063293e+01
   7.292420e+01  -7.699996e+00
   1.192545e+01   1.825770e+01
  -3.346348e+01  -1.413191e+01
  -3.359624e+00  -2.892060e+01
   4.071900e+01   2.087998e+01
   1.051751e+02   7.342483e+01
  -3.526240e+00   1.369561e+02
  -1.591880e+02   1.145198e+02
  -2.250172e+02  -8.397629e+00
  -1.551932e+02  -1.910454e+02
  -1.190487e+01  -2.118631e+02
   1.332041e+02  -1.255233e+02
   9.614290e+01   9.996271e-01
   4.327492e+01   5.263151e+01
   3.636641e+01   2.590106e+01
   7.745894e+01  -1.214851e+01
   8.572185e+01   1.254870e+01
   5.037785e+01   6.702221e+01
  -4.364750e+01   9.061792e+01
  -1.304657e+02   4.091300e+01
  -4.932674e+01  -9.376190e+01
   1.776073e+01  -9.588857e+01
   1.750818e+02  -4.747433e+01
   1.842185e+02   8.142427e+01
   7.778995e+01   1.981256e+02
  -1.469976e+02   1.989576e+02
  -2.221296e+02   6.562362e+01
  -1.809505e+02  -7.119814e+01
  -7.222415e+01  -1.595094e+02
   2.912490e+01  -1.320630e+02
   6.194521e+01  -7.800218e+01
   2.641779e+01  -4.578931e+01
   3.321694e+01  -7.806156e+01
   9.817717e+01  -8.863681e+01
   1.352019e+02   1.030100e+01
   1.030599e+02   1.207849e+02
   1.397214e+01   1.709290e+02
  -1.029902e+02   1.421553e+02
  -1.423472e+02  -2.268449e+01
  -1.268461e+02  -1.319337e+02
  -1.263339e+00  -1.389793e+02
   7.123145e+01  -4.804436e+01
   6.650092e+01   1.512535e+01
  -2.303913e+01   1.033907e+01
   5.995907e-01   3.367244e+01
   3.116254e+01   1.038725e+01
   9.083156e+01   3.283835e+01
   5.159594e+01   2.814832e+01
  -5.665379e+01   2.851977e+01
  -1.487302e+02  -1.344433e+01
  -1.236290e+02  -2.645933e+01
  -1.681483e+01  -6.503666e+01
   1.389265e+02  -6.101058e+01
   1.354879e+02   2.338516e+01
   5.217355e+01   4.884329e+01
  -6.476490e+01   5.078354e+01
  -9.654304e+01  -1.894092e+01
   7.490285e+00  -6.049840e+01
   2.509656e+01  -7.935713e+01
   5.910345e+01  -4.834038e+00
   5.276126e+01   3.275966e+01
   4.456854e+01   4.093267e+01
   5.572244e+01   2.786857e+00
   5.908613e+01   1.019187e+01
   5.178276e+01   6.360032e+01
  -7.701214e+00   1.025749e+02
  -1.299977e+02   1.288680e+02
  -1.420472e+02   1.112425e+01
  -9.519358e+01  -8.359083e+01
   7.459434e+00  -1.142011e+02
   6.725447e+01  -2.368707e+01
   6.766345e+01  -4.397591e+00
  -6.907400e+01   1.885218e+01
  -1.275156e+02  -2.409885e+01
  -5.129277e+01  -1.050497e+02
   1.041074e+02  -6.150680e+01
   1.630624e+02  -3.743342e+01
   1.437578e+02   1.561660e+01
   3.507419e+01   8.068001e+01
  -4.127164e+01   5.809170e+01
  -4.669068e+01  -2.313162e+01
   3.594439e+01  -2.604718e+01
   5.658933e+01   2.063859e+01
   5.250380e+01   1.250357e+02
  -9.099538e+01   1.159074e+02
  -1.539564e+02   4.042849e+01
  -1.193909e+02  -6.770012e+01
   1.982055e+00  -1.672042e+02
   7.841990e+01  -1.487633e+02
   7.697705e+01   2.875118e+01
   7.381272e+01   1.129164e+02
  -3.510266e+01   9.448507e+01
  -4.197384e+01   1.310184e+01
  -2.948792e+01  -3.170878e+01
  -2.141850e+01  -2.199821e+01
   3.312354e+00  -1.242064e+01
  -2.527392e+01  -4.639739e+01
  -3.442072e+01  -8.101521e+01
  -2.307453e+01  -8.779266e+01
   3.725089e+01  -4.731816e+01
   1.322356e+02   4.743127e+01
   1.097977e+02   8.308573e+01
  -1.059886e+01   6.347356e+01
  -7.238770e+01   9.377284e+00
  -6.931317e+01   7.761666e+00
   1.001973e+01  -1.324316e+01
   4.778743e+01  -1.922386e+01
   1.141805e+01   1.893570e+00
  -1.502080e+01  -2.270227e+00
  -7.857820e+00   3.328469e+01
   6.035789e+01   2.023566e+01
   9.816331e+01   1.849256e+01
   1.273325e+01   6.264710e+01
  -9.555106e+01   1.253340e+02
  -1.653737e+02   6.465206e+01
  -1.141453e+02  -6.090771e+01
  -2.657566e+01  -1.394355e+02
   7.360846e+01  -1.317906e+02
   1.075366e+02  -6.832960e+01
   6.383022e+01   6.168823e+00
   3.312182e+01   6.080792e+01
  -1.234507e+01   1.491434e+01
   1.587952e+01   2.278909e+01
   5.880252e+00   3.973864e+01
  -1.593185e+01   9.957034e+01
  -1.394066e+01   6.219611e+01
  -3.423129e+01  -1.218817e+01
  -4.779499e+01  -8.970169e+01
  -2.074315e+01  -9.396214e+01
   9.241874e+01  -3.876297e+01
   1.100715e+02   3.647356e+01
   6.021424e+01   7.085662e+01
  -4.898685e+01   4.034142e+01
  -8.488582e+01  -1.040501e+01
  -1.472647e+01  -4.272487e+01
   5.344606e+01  -5.224948e+01
   2.946751e+01  -3.869468e+01
  -5.165201e+01   7.959377e+00
  -6.906053e+01  -1.058701e-02
   1.178103e+00  -1.180753e+01
   4.367147e+01  -5.394888e+01
   1.102968e+02  -3.471319e+01
   8.448094e+01  -9.296761e+00
  -1.918897e+01   5.635402e+01
  -4.899156e+01   9.256628e+01
  -6.060307e+01   2.027405e+01
   7.055174e+00  -1.517433e+01
   1.842334e+01  -2.813567e+01
   4.164134e+01   1.466657e+01
   5.114149e+01   5.415438e+01
  -9.500023e+00   4.136551e+01
  -5.158409e+01   6.135828e+00
  -5.115901e+01  -2.518444e+01
  -5.443274e+00  -1.682723e+01
   1.008236e+01   5.174787e+00
   4.044844e+01  -1.196809e+01
   2.859639e+01  -3.251199e+01
   2.172900e+01  -7.943339e+01
   5.671531e+00   1.804228e+01
   2.167734e+01   3.556351e+01
  -3.017557e+00   4.297121e+01
  -2.227952e+01   2.424778e+01
  -4.928926e+01  -1.285917e+01
   5.078316e+00  -5.417116e+01
   7.347558e+01  -3.859709e+01
   7.344816e+01  -1.268842e+00
   4.144787e+01   3.932883e+01
  -6.191879e-02   7.579908e+00
  -3.346744e+01  -5.869024e+00
  -9.921910e+00  -9.013635e-01
   2.142052e+01  -1.338087e+01
  -1.205180e+01  -4.438197e+00
  -4.080994e+01   7.658782e-01
  -3.679648e+01   2.911088e+01
