
 $NMID
 id='ANONYMOUS ', fmtdat='(2E16.6)'
 volume=1.0
 tramp=1.0
 $END
   2.231082e+03  -1.499734e+02
   1.757235e+03   1.311947e+03
   4.034477e+02   1.814734e+03
  -8.472893e+02   1.274255e+03
  -7.010097e+02   2.991192e+02
   1.634254e+01  -1.166228e+02
   2.975304e+02  -1.035170e+01
   1.316015e+02   4.621540e+02
  -3.175434e+02   5.582142e+02
  -4.886855e+02   2.152793e+02
  -3.908640e+02  -3.124118e+02
  -5.804734e+01  -4.493251e+02
   1.581194e+02  -8.603857e+01
   1.583117e+02   2.529633e+02
  -3.427321e+01   4.063239e+02
  -2.403216e+02   6.645795e+01
  -2.991414e+02  -3.604362e+02
   4.735069e+01  -5.096065e+02
   3.308507e+02  -2.599215e+02
   4.009633e+02   4.321186e+01
   1.781767e+02   2.424373e+02
  -4.809682e+01   2.033754e+02
  -2.436672e+01   1.437591e+02
   1.682350e+02   9.756427e+01
   2.334934e+02   2.088747e+02
  -1.831509e+01   2.367645e+02
  -2.879413e+02   1.293429e+02
  -4.970620e+02  -6.609050e+01
  -2.268528e+02  -2.653825e+02
   2.362022e+02  -1.781279e+02
   3.578722e+02   7.193372e+01
   1.436008e+02   2.305884e+02
  -1.818966e+02   2.682034e+02
  -3.270139e+02   1.530612e+02
  -2.446893e+02  -1.124950e+02
  -1.407408e+02  -2.079311e+02
  -1.280033e+01  -9.278349e+01
  -5.731370e+01   7.230608e+01
  -1.659311e+02   1.341436e+02
  -1.374076e+02  -1.127525e+02
  -5.283677e+01  -3.764530e+02
   1.264425e+02  -3.391301e+02
   2.798207e+02  -2.208744e+01
   3.928711e+01   1.888642e+02
  -9.067456e+01   7.594609e+01
  -9.637839e+01  -1.680320e+02
   1.033262e+02  -2.981693e+02
   3.051636e+02  -5.335028e+01
   3.999727e+02   2.497211e+02
   1.615493e+02   3.577450e+02
  -2.133593e+02   1.913688e+02
  -3.722873e+02  -9.163802e+00
  -2.401495e+02  -1.716670e+02
  -1.284230e+01  -1.698780e+02
   2.058925e+02  -8.267958e+01
   1.736754e+02  -3.006045e+01
   3.718434e+01   1.419018e+01
  -2.650621e+01  -6.777987e+01
   7.837806e+01  -1.171625e+01
   1.954733e+02   1.872167e+01
   1.250481e+02   1.249754e+02
  -1.378710e+02   1.693006e+02
  -2.541596e+02   1.312325e+02
  -2.276868e+02  -4.379861e+01
   4.471332e+00  -2.450637e+02
   1.898451e+02  -3.001691e+02
   2.676467e+02  -1.724184e+02
   1.798100e+02   1.067570e+02
   4.839794e+01   3.010984e+02
   2.099343e+01   2.536358e+02
   3.109784e+01   1.287545e+02
  -3.009843e+00   9.220137e+01
  -1.509319e+02   1.019639e+02
  -2.282275e+02   3.735934e+01
  -1.791336e+02  -1.007034e+02
  -5.024155e+01  -1.843333e+02
   1.213887e+02  -1.428280e+02
   1.352086e+02   3.556551e+01
   8.027314e+01   2.003890e+02
  -1.154060e+01   1.888101e+02
  -1.856153e+02   2.411593e+01
  -2.540552e+02  -1.362167e+02
  -1.631469e+02  -2.389128e+02
   2.295091e+01  -2.135087e+02
   1.282391e+02  -1.535257e+02
   1.141734e+02  -9.917937e+01
   1.434383e+02  -7.728665e+01
   2.012127e+02  -4.197793e+01
   3.660952e+02   8.563502e+01
   2.575169e+02   2.288117e+02
  -1.519187e+01   3.495720e+02
  -3.033825e+02   3.661997e+02
  -3.850557e+02   1.401097e+02
  -2.338828e+02  -6.124857e+01
  -5.775220e+00  -2.055538e+02
   5.793058e+01  -1.263497e+02
   2.482474e+01  -1.819547e+01
  -9.464235e+01   2.689287e+01
  -7.393469e+01  -2.075959e+01
  -2.322901e+01  -9.049179e+01
   1.163269e+02  -8.163073e+01
   7.808224e+01  -1.825915e+00
  -2.383928e+01   1.322765e+02
  -1.216397e+02  -2.049775e+01
  -8.158027e+01  -1.717238e+02
   7.662944e+00  -2.684757e+02
   1.733950e+02  -1.743791e+02
   2.801112e+02   2.321589e+01
   2.518244e+02   2.089382e+02
   7.329907e+01   1.976398e+02
  -9.959585e+01   1.172929e+02
  -1.162192e+02   2.284034e+01
  -3.877001e+01  -7.388751e+00
   4.444835e+01   3.487428e+01
   3.363343e+01   6.828775e+01
  -6.941207e+01   4.271976e+01
  -9.290762e+01  -1.049480e+01
  -1.281562e+01  -3.566678e+01
   6.496453e+01   1.121416e+00
   2.036691e+01   6.952641e+01
  -1.212193e+02   9.853264e+01
  -2.368239e+02   1.289405e+01
  -2.225128e+02  -9.740667e+01
   5.861247e+00  -1.798482e+02
   1.639955e+02  -1.697433e+02
   2.267893e+02  -1.087681e+02
   8.141727e+01   3.629934e+00
  -1.541618e+01   6.739728e+01
  -2.059614e+01   2.383059e+00
   2.306078e+01  -8.035032e+01
   1.609268e+02  -4.381809e+01
   1.429283e+02   8.023569e+01
   3.921821e+01   1.417234e+02
  -4.163212e+01   1.025402e+02
  -8.125100e+01   2.292278e+01
  -3.005784e+01  -7.407230e+00
   5.372189e+01  -6.668232e+00
  -2.056684e+01   7.469497e+01
  -6.350316e+01   1.009173e+02
  -1.355505e+02   4.208753e+01
  -1.140872e+02  -1.088948e+02
  -2.445757e+01  -1.804981e+02
   7.769825e+01  -1.026590e+02
   1.320650e+02  -2.786141e+01
   6.090918e+01   8.538447e+01
  -6.866117e+01   6.853294e+01
  -2.651148e+01   2.972472e+01
   6.197812e+00   5.585460e+00
   3.808113e+01   8.909524e+00
   1.356445e+01  -1.728915e-01
  -7.145214e+01  -1.631525e+01
  -9.090854e+01  -8.874726e+01
  -1.108606e+01  -1.338832e+02
   6.192808e+01  -1.063804e+02
   1.573401e+02  -4.300844e+01
   1.648315e+02   1.436431e+02
   5.341731e+01   1.620816e+02
  -6.106391e+01   1.439379e+02
  -7.367298e+01   3.055586e+01
  -7.353280e+01  -1.397421e+01
  -9.538368e-01   2.263215e+00
  -7.082185e+01   1.130674e+01
  -8.228788e+01   3.331302e+01
  -4.470641e+01  -5.636483e+01
   1.631097e+01  -1.175505e+02
   9.382852e+01  -5.859834e+01
   1.161146e+02   2.648431e+01
  -7.600222e+00   1.075117e+02
  -1.275449e+02   7.412320e+01
  -1.472144e+02  -6.582432e+01
  -7.700064e+01  -1.725729e+02
   9.265827e+01  -1.542197e+02
   2.166134e+02  -8.836294e+01
   1.771888e+02   5.063833e+01
   6.936731e+01   1.154215e+02
  -2.658979e+01   1.030570e+02
  -3.649870e+01   9.808290e+01
  -2.085086e+01   1.049886e+02
  -2.225020e+01   6.843547e+01
  -6.676623e+01   6.846170e+01
  -1.093695e+02  -1.556593e+01
  -9.909054e+01  -1.119168e+02
  -1.625445e+01  -1.565027e+02
   7.171030e+01  -1.385085e+02
   9.535189e+01  -2.480776e+01
   1.195617e+02   9.197714e+01
   1.888700e+01   1.349095e+02
  -3.050098e+01   6.095291e+01
  -6.751445e+01  -1.277488e+01
   9.671468e+00  -2.522431e+01
   1.244622e+01  -1.910941e+00
  -2.659797e+01   1.955992e+00
  -6.310568e+01  -1.550702e+01
  -3.291355e+01  -4.418947e+01
   8.475947e+01  -2.408330e+01
   1.343243e+02  -3.556500e+01
   8.633900e+01   3.845338e+01
  -1.096301e+00   6.893298e+01
  -9.579264e+01   5.644346e+01
  -1.111579e+02   2.850884e+01
  -3.666852e+01  -2.814268e+01
   6.008866e+01  -1.816162e+01
   7.014239e+01   1.867715e+01
   4.262162e+01   7.385024e+01
  -1.628146e+01   8.945672e+01
  -6.829278e+01   2.629632e+01
  -5.829430e+01  -1.641346e+01
  -5.117052e+01  -5.594065e+01
  -2.415278e+01   4.939100e+01
  -2.758905e+01   1.207101e+01
  -5.017226e+01  -3.860447e+01
   1.570882e+01  -1.180051e+02
   1.034520e+02  -1.241773e+02
   1.454192e+02  -3.992052e+01
   1.088256e+02   5.060468e+01
   2.381235e+01   1.073320e+02
  -7.513906e+01   5.789310e+01
  -5.122321e+01  -5.921026e+00
   1.189734e+01  -4.743456e+00
   8.327160e+01  -9.307012e+00
   4.605658e+01   5.681480e+01
  -3.830352e+01   5.945036e+01
  -1.315994e+02   4.434359e+01
  -9.923362e+01  -2.433354e+01
  -5.898803e+01  -4.157384e+01
   1.207283e-01  -4.940708e+01
   7.473343e+00  -1.151446e+01
  -3.246390e+01   5.314765e+00
  -7.810056e+01  -2.252330e+01
  -4.634632e+01  -8.115699e+01
   4.493596e+01  -1.035969e+02
   8.761094e+01  -8.637449e+01
   1.276416e+02   2.829059e+01
   5.278866e+01   1.615945e+02
  -2.898788e+01   7.856437e+01
  -7.044171e+01   7.627509e-02
  -5.670970e+01  -8.980144e+01
   1.822972e+01  -8.669163e+01
   8.584386e+00  -4.237345e+00
   2.403574e+01   2.688080e+01
  -1.925265e+01  -1.989415e+01
  -1.578338e+01  -1.502449e+01
   3.682405e+01   3.583705e+01
   3.787052e+01   5.488215e+01
   2.158809e+01   5.551698e+01
  -4.887486e+01   4.325506e+01
  -9.856629e+01   9.610000e+00
  -1.127966e+02  -2.919319e+01
   1.381025e+01  -4.788261e+01
   6.721896e+01  -8.259884e+00
   6.270018e+01  -2.891968e+00
   1.754173e+01  -4.412341e+00
  -5.391937e+01   5.646634e+00
  -1.340755e+01   1.517043e+01
   3.341569e+01   1.361515e+01
   1.297442e+01  -8.418018e+00
  -7.225107e+01   1.004161e+01
  -8.665813e+01  -4.098794e+01
  -3.330347e+01  -7.877199e+01
   9.788748e+01  -9.735853e+01
   1.531906e+02  -4.782602e+01
   1.307504e+02   1.369694e+01
   5.807212e+00   8.971736e+01
  -5.280081e+01   1.322567e+02
  -9.069044e+01   2.556981e+01
  -7.321599e+01  -2.037054e+01
  -2.665783e+01  -7.721339e+00
   2.846249e+01  -9.409089e+00
  -1.691365e+01   1.992621e+01
  -3.303618e+01  -3.003163e+01
  -2.976704e+01  -7.418138e+01
   7.236453e+00  -6.092476e+01
   6.968694e+01  -1.158695e+01
   6.865200e+01   6.002642e+01
   2.415096e+01   6.713723e+01
  -7.583449e+01   3.043119e+01
  -5.625707e+01  -1.704020e+01
  -6.564138e+01  -5.808098e+01
   5.278178e+01  -8.624400e+01
   5.554259e+01  -1.449847e+01
   2.941960e+01   5.864491e+01
  -2.882079e+01   6.911087e+01
  -3.002537e+01   1.557202e+01
  -3.412940e+00  -4.086880e+01
   4.354417e+01   1.195496e+01
  -1.514210e+01   2.478632e+01
  -5.279008e+01   7.689950e+01
  -8.845527e+01   2.431594e+01
  -6.425708e+01  -3.582082e-01
   2.974083e+01  -5.177267e+01
   3.846491e+01  -7.509071e+01
   3.191540e+01   2.952195e+00
   2.042429e+01   5.672411e+01
  -3.053244e+01   4.006342e+01
  -1.072000e+01  -1.938999e+01
  -1.982836e+01  -5.155464e+01
  -1.616753e+01  -1.434569e+01
   2.614267e+01  -1.760218e+00
   1.088482e+01   1.866525e+01
   3.123165e+01  -1.496552e+01
  -9.354875e+00  -3.844946e+00
  -4.623786e+00  -8.207869e+00
   2.488963e+00   2.456450e+01
  -2.163687e+01   2.861307e+01
  -1.090553e+01   1.688837e+01
  -3.529118e+01  -3.140318e+01
  -3.254059e+01  -6.300846e+01
   3.180978e+01  -2.540803e+01
   5.983252e+01   3.498363e+01
   3.474316e+01   7.101085e+01
  -6.647042e+01   2.641339e+01
  -1.016989e+02  -7.968142e+00
  -4.363430e+01  -1.041580e+01
   6.708913e-01  -3.464836e+01
   7.405565e+01  -1.295834e+01
   4.669114e+01   2.551232e+01
  -1.892635e+01   1.912584e+01
  -1.144249e+00   2.834456e+01
   2.704398e+01   4.130110e+00
   8.204865e+01  -1.739646e+00
