
 $NMID
 id='ANONYMOUS ', fmtdat='(2E16.6)'
 volume=1.0
 tramp=1.0
 $END
   3.441290e+03   1.760522e+02
   1.787587e+03   1.563964e+03
  -1.595034e+02   1.828594e+03
  -1.206514e+03   8.688618e+02
  -9.084896e+02  -5.197245e+01
   6.520381e-01  -3.240055e+02
   3.514546e+02   1.843678e+02
  -6.560006e+01   5.849738e+02
  -4.549539e+02   5.049621e+02
  -5.631738e+02   1.146807e+01
  -3.099346e+02  -5.124103e+02
   7.665556e+01  -6.224717e+02
   3.395740e+02  -1.312090e+02
   2.221483e+02   3.430530e+02
  -1.387314e+02   5.004192e+02
  -4.113522e+02   1.836335e+01
  -1.865174e+02  -4.235413e+02
   1.526197e+02  -5.273579e+02
   3.383742e+02  -1.859225e+02
   2.912678e+02   1.759074e+02
   8.331753e+01   3.065954e+02
  -1.258407e+02   1.765468e+02
  -9.980498e+01  -1.004694e+01
   1.189239e+02   6.082505e+01
   2.721572e+02   2.392004e+02
   7.514979e+01   3.450419e+02
  -3.673780e+02   1.469538e+02
  -5.015712e+02  -1.164369e+02
  -2.125751e+02  -3.805162e+02
   3.204368e+02  -2.478198e+02
   5.037804e+02   1.148550e+02
   1.964587e+02   3.131513e+02
  -1.918531e+02   3.512398e+02
  -4.240758e+02   1.228007e+02
  -2.908834e+02  -1.716050e+02
  -4.778578e+01  -2.714539e+02
   7.818567e+01  -2.077352e+02
   5.254839e+00   8.702637e+01
  -1.530404e+02   1.847549e+02
  -2.309638e+02  -7.805095e+01
  -3.615123e+01  -4.517642e+02
   2.702707e+02  -4.298262e+02
   2.968528e+02   9.847016e+01
   1.049657e+02   3.245752e+02
  -2.075583e+02   9.636410e+01
  -1.994021e+02  -2.419251e+02
   6.734821e+01  -3.439450e+02
   3.186264e+02  -6.013961e+01
   4.288183e+02   3.384755e+02
   9.577661e+01   4.327104e+02
  -3.318392e+02   2.562118e+02
  -4.397066e+02  -9.970500e+01
  -3.120624e+02  -2.837701e+02
   6.666949e+01  -2.077490e+02
   2.379455e+02  -5.170979e+01
   1.640450e+02   6.311882e+01
  -2.190310e+01   5.145119e+01
  -7.268861e+01  -7.625112e+01
   9.459397e+01  -9.605553e+01
   2.058481e+02   2.949381e+01
   1.124771e+02   1.861299e+02
  -1.442367e+02   1.763650e+02
  -3.072082e+02   6.714087e+01
  -2.163497e+02  -8.166121e+01
   9.532015e+00  -2.634914e+02
   1.999650e+02  -2.910340e+02
   3.367907e+02  -1.215034e+02
   2.371860e+02   1.215783e+02
   4.077617e+01   3.502194e+02
  -8.920306e+01   3.164682e+02
  -7.018035e+01   1.424646e+02
  -2.300740e+01   2.812841e+01
  -8.939641e+01   1.080090e+02
  -1.491661e+02   6.105840e+01
  -2.532324e+02  -1.021656e+02
  -6.548657e+01  -2.356983e+02
   6.069474e+01  -2.084287e+02
   1.652037e+02  -6.614564e+00
   1.433048e+02   2.234061e+02
  -1.903979e+01   2.226303e+02
  -1.921543e+02   6.151570e+01
  -2.627011e+02  -1.157449e+02
  -1.576852e+02  -2.791732e+02
   9.596384e+01  -2.307821e+02
   1.760667e+02  -6.860643e+01
   1.543948e+02  -2.970940e+01
   1.253360e+02  -2.792393e+01
   1.988607e+02   5.592602e+00
   3.210728e+02   4.798366e+01
   2.242445e+02   2.986583e+02
  -2.057415e+00   3.618306e+02
  -3.518780e+02   3.471503e+02
  -4.081761e+02   1.232512e+02
  -2.527918e+02  -9.759032e+01
  -2.002009e+01  -2.282803e+02
   1.215855e+02  -1.902435e+02
  -7.966401e-01  -3.007522e+01
  -8.682888e+01   6.080432e+01
  -1.119885e+02  -2.671250e+01
  -2.837671e+01  -1.697120e+02
   1.095391e+02  -1.153827e+02
   1.163261e+02   3.945373e+01
  -1.517603e+01   1.221889e+02
  -1.448894e+02   2.807557e+01
  -1.019581e+02  -1.993272e+02
   4.428077e+00  -2.966099e+02
   1.757671e+02  -1.669298e+02
   2.966234e+02   2.007708e+01
   2.464704e+02   2.384158e+02
   4.652266e+01   2.613815e+02
  -7.976263e+01   1.205126e+02
  -1.642808e+02  -4.617060e+00
  -2.238958e+01  -2.571704e+01
   6.106111e+01   7.771008e+01
   1.586472e+01   9.698718e+01
  -9.387464e+01   5.624964e+01
  -1.117684e+02  -2.458642e+01
  -5.993875e+01  -8.727942e+01
   7.191958e+01  -2.183254e+01
   4.664478e+01   8.576806e+01
  -9.287864e+01   2.794895e+01
  -2.373220e+02  -7.637107e+00
  -2.133883e+02  -1.289619e+02
  -5.378929e+01  -2.192393e+02
   1.463714e+02  -1.979089e+02
   2.449629e+02  -6.238850e+01
   9.804728e+01   6.338471e+01
  -3.859600e+00   8.686584e+01
  -5.194179e+01  -1.574274e+01
   2.546840e+01  -3.471630e+01
   1.499713e+02  -1.146199e+01
   1.448248e+02   8.598211e+01
   7.504382e+01   1.291521e+02
  -6.884928e+01   1.104553e+02
  -9.497225e+01   8.602146e+00
  -5.991075e+01  -3.261762e+01
   3.686161e+01   5.361631e+00
   2.217546e+01   7.510279e+01
  -1.018880e+02   9.976881e+01
  -1.927032e+02   2.154959e+01
  -1.290329e+02  -7.498499e+01
  -3.232936e+00  -1.408923e+02
   1.712911e+02  -8.765969e+01
   1.164420e+02  -9.618202e+00
   6.129195e+01   7.390508e+01
  -4.634768e+01   7.759933e+01
  -6.551622e+01  -6.311292e+00
  -2.006025e+01  -2.444281e+01
   2.787205e+01  -2.595996e+01
   7.263770e+00   2.753803e+01
  -3.939033e+01  -9.258481e+00
  -9.879684e+01  -7.232009e+01
  -1.569062e+01  -1.649371e+02
   1.208358e+02  -1.478730e+02
   1.969363e+02  -3.584002e+01
   1.731999e+02   1.339567e+02
   3.034835e+01   2.111083e+02
  -1.293030e+02   1.267839e+02
  -1.296667e+02  -2.355585e+01
  -4.836561e+01  -6.954339e+01
  -4.199442e+01  -1.450443e+01
  -3.143018e+01   2.994721e+01
  -4.754414e+01   2.721758e+01
  -2.025307e+01  -4.786454e+01
  -1.915377e+01  -6.834679e+01
   8.487048e+01  -7.655216e+01
   6.587304e+01   4.326360e+01
   2.793396e+01   1.174127e+02
  -1.171907e+02   7.861582e+01
  -1.591551e+02  -6.657278e+01
  -6.824835e+01  -1.894095e+02
   1.081740e+02  -1.650469e+02
   2.350985e+02  -8.585556e+01
   1.606159e+02   9.954339e+01
   6.781716e+01   1.788835e+02
  -8.543095e+01   1.130699e+02
  -8.259663e+01   9.717516e+01
  -6.996801e+01   4.478342e+01
  -6.198129e+01   5.303186e+01
  -5.611247e+01   4.259413e+01
  -9.947806e+01  -2.765890e+01
  -9.857000e+01  -7.677175e+01
  -4.423002e+01  -1.591883e+02
   4.756753e+01  -1.120176e+02
   1.419622e+02  -4.043401e+01
   1.297723e+02   1.246865e+02
  -3.167777e+01   1.367478e+02
  -6.986734e+01   3.701225e+01
  -6.046246e+01   9.638580e+00
   4.589358e+00  -5.505392e+01
   1.564714e+01  -2.616836e+01
  -1.334332e+01  -1.344032e+01
  -8.002698e+01  -2.033757e+01
  -4.925920e+01  -4.233146e+01
   5.444028e+01  -5.375951e+01
   1.555815e+02  -3.231115e+01
   1.224609e+02   6.772480e+01
   1.192051e+01   9.040002e+01
  -1.480806e+02   5.315541e+01
  -1.167302e+02   1.574862e+01
  -2.680419e+01  -3.886944e+01
   5.630982e+01  -7.008613e+00
   5.756802e+01   4.015929e+01
   1.665546e+01   5.619135e+01
  -4.181134e+01   4.739354e+01
  -6.329086e+01  -2.193552e+00
  -3.886494e+00  -5.402230e+01
  -6.662499e+01  -2.158409e+01
  -5.672069e+01   3.965521e+00
  -6.260712e+01  -2.750648e+01
  -1.882796e+01  -9.932666e+01
   6.155751e+01  -9.627986e+01
   9.637287e+01  -1.153980e+02
   1.465916e+02  -2.825970e+01
   1.061324e+02   8.716972e+01
  -7.239733e+00   1.221880e+02
  -5.417105e+01   5.997742e+01
  -6.502006e+01  -3.155784e+00
   4.559617e+01  -1.929720e+01
   1.044652e+02   5.577758e+01
   8.074798e+01   1.012376e+02
  -8.344760e+01   7.407119e+01
  -1.751115e+02   5.557629e+01
  -1.444578e+02  -5.954771e+01
  -2.532275e+01  -7.729593e+01
   6.822112e+01  -3.410958e+00
   4.997853e+01   2.882967e+01
  -4.051282e+01   2.016057e+01
  -6.546872e+01  -5.744308e+00
  -5.567372e+01  -1.004545e+02
   8.555585e+01  -1.359382e+02
   1.338716e+02  -1.151139e+01
   9.463758e+01   8.389331e+01
   1.428156e+01   1.552123e+02
  -8.798617e+01   1.289236e+02
  -7.136454e+01  -2.452012e+01
  -3.145540e+01  -8.445969e+01
   8.332440e+00  -7.008489e+01
   6.735390e+01  -2.813434e+00
   1.167260e+01   2.807365e+01
  -1.373560e+00   6.862866e+00
  -4.344845e+00  -4.599639e+01
   2.718326e+01   2.368642e+01
   7.299566e+01   7.896665e+01
   1.018559e+01   7.365404e+01
  -6.360823e+01   5.150972e+01
  -1.145353e+02  -3.341350e+01
  -8.769037e+01  -5.255743e+01
  -1.789083e+01  -3.033995e+01
   3.018712e+01  -3.190388e+00
   7.588859e+01   3.350493e+01
  -1.791276e+01   2.777102e+00
  -4.955729e+01   1.432790e+00
  -1.910233e+01   1.678344e+01
   1.522820e+01  -8.393480e+00
   1.717339e+01  -8.593790e+00
  -4.144153e+01   5.704192e+00
  -7.089324e+01  -1.541097e+01
   1.448920e+01  -4.567820e+01
   5.497045e+01  -7.288961e+01
   1.433209e+02  -6.351675e+01
   1.375135e+02   7.396007e+01
   3.977770e+01   1.396934e+02
  -7.867757e+01   1.394565e+02
  -1.078888e+02   2.988572e+01
  -7.705458e+01  -1.796288e+01
  -2.714339e+01  -3.202127e+01
   3.240201e-01   1.297086e+01
  -2.473386e+01   2.623018e+00
  -1.643228e+01  -6.666945e+01
   1.498292e+01  -7.353437e+01
   2.626805e+01  -1.973715e+01
   7.373130e+01   9.431245e+00
   5.590626e+01   8.338597e+01
   2.419966e+00   9.184934e+01
  -7.594482e+01   1.672583e+01
  -7.949565e+01  -6.938000e+01
  -1.871313e+01  -8.229992e+01
   6.779634e+01  -4.971588e+01
   7.726076e+01   1.320062e+01
   3.268152e+01   5.395447e+01
  -3.702492e+01   6.242770e+01
  -2.361088e+01   3.694032e+01
   4.078046e+01  -1.107096e+01
   1.075302e+01  -1.297330e+01
   4.388895e+00   4.613183e+01
  -4.035867e+01   4.910764e+01
  -1.133226e+02   4.915097e+01
  -8.629995e+01  -4.527451e+00
   6.537009e+00  -5.366458e+01
   3.509938e+01  -5.420565e+01
   3.069799e+01   2.614590e+01
   4.918150e+00   5.011091e+01
  -2.658917e+01   5.420488e+01
  -3.380302e+01  -2.517604e+00
  -2.528410e+01  -2.565842e+01
  -3.435305e+00  -6.477003e+00
  -1.885333e+01   1.607608e+01
   5.604021e+01   4.160127e+01
   2.379880e+01   2.106694e+01
   5.266907e+00  -6.939310e+00
  -1.057161e+01  -1.125692e+01
  -6.530913e+00   3.878702e+01
  -2.464616e+01   2.609849e+01
  -1.448166e+01   1.781861e+01
  -2.789474e+01  -1.772655e+01
  -2.225485e+01  -4.763697e+01
   2.649174e+01  -4.126742e+01
   4.128729e+01   3.732926e+01
   5.149197e+01   5.970311e+01
  -4.967055e+01   4.408929e+01
  -6.635045e+01  -9.104653e+00
  -6.095166e+01  -1.159675e+01
  -1.959709e+01  -2.405552e+01
   2.669185e+01  -3.148684e+01
   3.300571e+01  -2.023337e+01
  -2.770634e+01  -4.426720e+00
  -1.430907e+01  -3.204395e+01
   3.587897e+01  -1.813962e+01
   6.121873e+01  -3.673123e+01
