
 $NMID
 id='ANONYMOUS ', fmtdat='(2E16.6)'
 volume=1.0
 tramp=1.0
 $END
  -3.630329e+03  -4.394025e+02
  -2.058707e+03  -1.926995e+03
   2.849195e+02  -2.148893e+03
   1.574060e+03  -1.072276e+03
   9.985764e+02   1.457814e+02
  -3.059314e+02   4.382340e+02
  -4.535968e+02  -2.376674e+02
  -1.864289e+01  -6.561085e+02
   6.489273e+02  -6.243512e+02
   7.786231e+02  -5.956293e+00
   4.581088e+02   5.619888e+02
  -1.128976e+02   7.094304e+02
  -4.882346e+02   1.092623e+02
  -3.204218e+02  -5.189601e+02
   1.753303e+02  -5.545791e+02
   5.572111e+02  -4.101225e+00
   2.782402e+02   5.905350e+02
  -2.109522e+02   6.404309e+02
  -5.264999e+02   2.021595e+02
  -4.121224e+02  -2.330019e+02
  -3.735821e+01  -4.052286e+02
   2.024176e+02  -2.323222e+02
   9.619477e+01   1.069002e+01
  -1.660017e+02  -1.409382e+01
  -3.447313e+02  -2.146442e+02
  -1.004323e+02  -3.884667e+02
   4.283128e+02  -2.496934e+02
   6.504249e+02   1.344597e+02
   2.804472e+02   3.999457e+02
  -2.908615e+02   2.978867e+02
  -6.015078e+02  -6.670080e+01
  -2.289515e+02  -3.970374e+02
   2.398989e+02  -4.250533e+02
   4.736728e+02  -1.598790e+02
   3.411366e+02   2.089372e+02
   5.711418e+01   3.816336e+02
  -1.065399e+02   1.501268e+02
  -6.680643e+01  -1.229128e+02
   1.603557e+02  -3.056110e+02
   3.423695e+02   7.306430e+01
   1.363808e+02   4.870983e+02
  -2.728010e+02   5.135049e+02
  -4.058801e+02   1.254201e+00
  -2.018312e+02  -3.933734e+02
   1.984224e+02  -2.325907e+02
   2.553451e+02   2.898794e+02
  -6.517465e+01   4.335367e+02
  -4.363649e+02   1.855348e+02
  -5.171902e+02  -3.082492e+02
  -1.527951e+02  -5.417036e+02
   3.197252e+02  -3.299376e+02
   5.153330e+02   8.818163e+01
   2.849415e+02   3.077102e+02
  -6.904239e+01   2.834681e+02
  -2.972137e+02   9.608506e+01
  -1.864575e+02  -9.040203e+01
   4.011660e+01  -6.589853e+01
   8.029352e+01   7.216179e+01
  -7.156725e+01   1.301483e+02
  -2.101473e+02  -5.185782e+01
  -1.487153e+02  -2.150987e+02
   1.612476e+02  -2.460589e+02
   3.091207e+02  -7.564878e+01
   2.249764e+02   8.467835e+01
  -1.665516e+01   2.805741e+02
  -2.605806e+02   2.813658e+02
  -3.467993e+02   1.714855e+02
  -2.429044e+02  -1.396877e+02
  -4.169035e+01  -4.063702e+02
   5.451818e+01  -2.743380e+02
   7.294486e+01  -1.625981e+02
   1.374617e+01  -6.164778e+01
   9.833710e+01  -1.414250e+02
   2.232728e+02  -1.106339e+02
   2.378032e+02   6.021510e+01
   1.088234e+02   2.349230e+02
  -9.396388e+01   2.219207e+02
  -2.132373e+02   1.011442e+01
  -1.588704e+02  -2.285010e+02
   8.767422e+00  -2.727229e+02
   2.045720e+02  -9.216794e+01
   2.994419e+02   1.632265e+02
   1.433807e+02   3.181140e+02
  -6.560570e+01   2.914082e+02
  -2.032848e+02   1.245973e+02
  -1.420351e+02   3.896908e+01
  -1.050176e+02   4.650705e+01
  -2.058594e+02   1.605449e+01
  -3.530361e+02  -1.086434e+02
  -2.946591e+02  -3.010580e+02
   2.112756e+00  -4.214903e+02
   3.435493e+02  -3.783071e+02
   4.344908e+02  -1.622011e+02
   2.844448e+02   9.702909e+01
   5.561857e+01   2.772406e+02
  -1.224724e+02   2.555598e+02
  -3.375872e+01   5.654265e+01
   6.580893e+01  -6.589314e+01
   1.350641e+02   2.274860e+01
   2.434060e+01   1.953482e+02
  -1.504174e+02   1.040165e+02
  -1.149978e+02  -2.168689e+01
   4.724889e+01  -1.245345e+02
   1.688327e+02  -4.447558e+00
   1.310030e+02   2.266082e+02
  -2.874464e+01   3.258998e+02
  -2.197404e+02   2.058149e+02
  -3.467055e+02  -4.300727e+01
  -2.404794e+02  -2.807436e+02
  -7.407194e+01  -2.745226e+02
   1.009601e+02  -1.659185e+02
   1.738564e+02   1.188788e+00
   2.389713e+01   3.325463e+01
  -6.320188e+01  -3.942374e+01
  -5.230448e+01  -1.123260e+02
   1.060052e+02  -8.463188e+01
   1.670314e+02  -3.971433e-01
   5.960929e+01   8.538197e+01
  -7.044055e+01   3.878415e+01
  -6.087578e+01  -8.323478e+01
   9.871242e+01  -5.154165e+01
   2.588540e+02   1.462020e+01
   2.549641e+02   1.712178e+02
   6.783350e+01   2.589144e+02
  -1.429057e+02   2.689500e+02
  -2.408943e+02   8.750409e+01
  -1.337530e+02  -5.052816e+01
   2.111254e+01  -8.448217e+01
   9.258967e+01  -1.474973e+01
  -2.436730e+01   7.653436e+01
  -1.289371e+02   8.735489e+01
  -1.806732e+02  -6.894141e+01
  -8.303742e+01  -1.646332e+02
   1.014810e+02  -1.374979e+02
   8.874480e+01  -6.075100e+00
   5.249234e+00   3.476575e+01
  -7.889841e+01  -5.034821e+00
  -3.765931e+01  -1.010783e+02
   7.980537e+01  -1.298284e+02
   2.099499e+02  -2.802281e+01
   1.735502e+02   1.040953e+02
   7.490345e+01   2.211774e+02
  -1.487355e+02   1.435407e+02
  -1.389074e+02   1.112063e+01
  -2.618952e+01  -8.778833e+01
   4.901044e+01  -1.100153e+02
   6.645793e+01  -5.866456e+00
  -2.287886e+01   4.332578e+01
  -2.828854e+01  -5.402294e+00
  -1.350099e+01  -7.344697e+01
   8.947997e+01  -5.200005e+00
   7.695003e+01   7.128985e+01
   1.982482e+01   1.532337e+02
  -1.429753e+02   1.508214e+02
  -2.304901e+02   1.821192e+01
  -1.822367e+02  -1.325517e+02
  -5.316416e+01  -2.421448e+02
   1.128015e+02  -1.738301e+02
   1.392748e+02  -3.965464e+00
   6.710674e+01   8.402854e+01
   3.732759e+01   2.072169e+01
   7.824710e+01  -1.805816e+01
   6.437480e+01   1.924997e+00
   3.567382e+01   5.589039e+01
  -1.917277e+01   1.005223e+02
  -1.097606e+02   5.573172e+01
  -1.229513e+02  -4.503825e+01
   2.611033e+01  -1.254395e+02
   1.607163e+02  -1.092123e+02
   1.759733e+02   2.475658e+01
   8.026879e+01   1.758839e+02
  -1.033783e+02   2.259174e+02
  -1.985756e+02   1.087556e+02
  -1.803932e+02  -1.072378e+02
  -5.103672e+01  -1.884000e+02
   4.697743e+01  -1.314031e+02
   1.057759e+02  -4.581928e+01
   7.225860e+01  -4.892144e+01
   3.129625e+01  -8.245753e+01
   8.094050e+01  -9.820653e+01
   1.015760e+02   2.216488e+01
   1.269706e+02   1.228511e+02
   7.505158e+01   2.021806e+02
  -1.042576e+02   1.367570e+02
  -1.691046e+02   3.631170e+01
  -1.203579e+02  -1.188840e+02
  -1.739025e+00  -1.685400e+02
   7.493148e+01  -9.174852e+01
   6.037037e+01  -3.497950e+01
  -1.201420e+00   4.368121e+01
  -1.236389e+01   3.403685e+01
   2.132587e+01   1.455312e+01
   9.506987e+01   2.807925e+01
   6.126003e+01   2.965918e+01
  -6.555952e+01   6.514735e+01
  -1.369146e+02  -1.659634e+01
  -1.398939e+02  -8.183082e+01
  -1.490342e+01  -7.125986e+01
   1.225802e+02  -3.664141e+01
   1.666878e+02   3.251238e+00
   3.365660e+01   7.575182e+01
  -6.442643e+01   5.607159e+01
  -5.930095e+01  -3.086243e+01
  -1.062935e+01  -3.129680e+01
   2.882151e+01  -5.088966e+01
   4.479530e+01  -2.019927e-01
   5.189502e+01   8.043885e+01
   3.862119e+01   3.221253e+01
   3.546847e+01  -1.419217e+01
   8.376596e+01   1.468841e+01
   5.280384e+01   9.971868e+01
  -4.573550e+01   1.387121e+02
  -1.126887e+02   1.239903e+02
  -1.256009e+02   1.970563e+01
  -1.467525e+02  -5.384867e+01
   3.574670e+01  -1.232471e+02
   7.933000e+01  -7.175626e+01
   3.604408e+01   9.180944e+00
  -5.409066e+01   3.110501e+01
  -1.415341e+02  -3.147879e+01
  -7.554536e+01  -1.245804e+02
   9.160005e+01  -9.951999e+01
   1.598269e+02  -4.315078e+01
   1.354923e+02   1.470344e+01
   1.198994e+01   8.184413e+01
  -8.370300e+01   3.494385e+01
  -5.499288e+01  -1.908913e+01
   4.936672e+01  -4.573792e+01
   9.869421e+01   3.695018e+01
   4.958778e+01   8.381103e+01
  -4.581434e+01   1.528462e+02
  -1.377395e+02   5.117453e+01
  -7.882338e+01  -6.922582e+01
  -2.408330e+00  -1.718331e+02
   5.093793e+01  -1.246677e+02
   1.051395e+02   4.265313e+01
   2.535360e+01   1.113337e+02
  -3.589712e+00   8.768893e+01
  -6.801710e+01   1.531664e+01
  -2.880670e+01  -5.281290e+00
  -2.411118e+01   6.457123e+00
  -1.931983e+01   1.454763e+01
  -2.096760e+01  -9.318660e+00
  -6.062998e+01  -8.820049e+01
  -3.815640e+01  -1.017484e+02
   6.662362e+01  -6.314374e+01
   1.258526e+02   5.250474e+01
   8.940457e+01   7.314474e+01
   1.308744e+01   3.904370e+01
  -6.746929e+01   1.542416e+01
  -7.148263e+01  -9.060213e+00
  -1.519977e+01  -2.237023e+01
   4.174060e+01  -2.065054e+00
   5.400900e+01  -1.211407e+01
  -2.842453e+01   2.843341e+01
  -2.166302e+01  -2.902169e+00
   5.668497e+01   2.133590e+00
   9.419787e+01  -6.601156e-01
   9.936822e-01   6.401063e+01
  -9.140016e+01   9.649106e+01
  -1.605924e+02   7.392344e+01
  -1.525493e+02  -5.175332e+01
  -5.635556e+01  -1.496533e+02
   3.362287e+01  -1.668947e+02
   1.121416e+02  -6.407482e+01
   1.110406e+02   6.379651e+00
   1.935916e+01   3.792824e+01
  -4.567016e+00  -4.077660e-01
   3.312429e+01   7.692921e+00
   4.424787e+01   7.362488e+01
  -1.163832e+01   6.226911e+01
  -3.624748e+01   5.957735e+01
  -8.376335e+01  -3.936777e+00
  -6.785835e+01  -8.675806e+01
  -4.253604e+01  -8.914828e+01
   6.536546e+01  -5.210059e+01
   1.049453e+02   8.065100e+01
   2.893220e+01   9.783086e+01
  -4.895583e+01   6.833444e+01
  -7.370864e+01   8.786425e+00
  -7.104787e+01  -3.409464e+01
   3.768834e+01  -5.993965e+01
   3.668173e+01  -4.494012e+01
  -3.605291e+01  -3.322661e+01
  -4.221842e+01   2.621225e+01
  -4.325694e+00  -2.327855e+01
   8.655610e+01  -6.140818e+01
   1.142683e+02  -5.455522e+01
   6.709574e+01   1.025896e+00
  -3.300855e-02   9.792749e+01
  -4.600239e+01   9.257743e+01
  -2.535360e+01   1.595545e+01
  -1.685378e+01  -4.994961e+01
   5.290589e+01  -4.189347e+01
   2.962193e+01  -1.325076e+01
   2.591339e+01   4.117187e+01
   1.364798e+01   5.049499e+01
  -4.645900e+01  -1.923669e+01
  -4.271089e+01  -5.603774e+01
  -2.429033e+01  -4.439963e+01
   2.081738e+01   9.583240e+00
   1.386156e+01  -1.096590e+01
  -3.814806e+00  -2.592259e+01
   1.166297e+01  -2.146967e+01
   2.364835e+01  -2.972976e+01
   4.150404e+01   3.306134e+01
   3.134121e+01   4.349189e+01
  -2.190353e+01   4.474615e+01
  -7.386276e+01  -2.378451e+01
  -5.479043e+01  -5.646142e+01
   4.925875e+01  -5.957329e+01
   5.694104e+01   2.047176e+01
   6.399819e+01   4.351801e+01
  -3.423095e+01   4.716059e+01
  -4.654231e+01   2.866382e+01
  -4.722623e+01  -2.763238e+01
   9.741270e+00  -9.517538e-01
   4.344640e+01   2.753564e+01
  -1.600250e+01   2.534710e+01
  -8.010415e+01   6.746571e+00
