
 $NMID
 id='ANONYMOUS ', fmtdat='(2E16.6)'
 volume=1.0
 tramp=1.0
 $END
  -2.659211e+03   6.977210e+01
  -1.757212e+03  -1.091026e+03
  -7.648773e+01  -1.462067e+03
   7.761348e+02  -1.070034e+03
   8.041558e+02  -2.519303e+02
   6.964021e+01   9.772134e+01
  -2.262239e+02   9.634228e+01
  -1.163016e+02  -4.120514e+02
   2.430648e+02  -5.451546e+02
   5.298231e+02  -1.701713e+02
   4.450219e+02   3.294810e+02
   1.433097e+02   4.600378e+02
  -2.221877e+02   2.129900e+02
  -2.515058e+02  -2.564064e+02
  -9.725771e+00  -4.644073e+02
   2.699713e+02  -1.080181e+02
   2.522513e+02   3.041657e+02
  -3.500045e+01   5.211721e+02
  -3.523499e+02   2.921452e+02
  -3.709790e+02  -7.457259e+01
  -1.524737e+02  -2.307810e+02
   5.680831e+01  -2.322835e+02
  -1.105306e+01  -8.344783e+01
  -1.801910e+02  -9.001912e+01
  -2.274518e+02  -2.110125e+02
   1.911221e+01  -2.795728e+02
   3.149221e+02  -1.513724e+02
   4.456889e+02   3.278153e+01
   1.551463e+02   2.890197e+02
  -2.216945e+02   9.956167e+01
  -3.499507e+02  -1.364461e+02
  -1.628852e+02  -2.780776e+02
   1.969571e+02  -2.795519e+02
   3.301583e+02  -1.523556e+02
   3.157018e+02   1.311282e+02
   1.102651e+02   2.397716e+02
   6.310238e-01   1.492288e+02
   1.402573e+01  -3.847237e+01
   1.049589e+02  -1.569783e+02
   1.902346e+02   8.852367e+01
   3.085382e+01   3.684083e+02
  -1.738935e+02   3.972672e+02
  -2.738320e+02   4.377020e+01
  -9.814230e+01  -2.268970e+02
   7.703961e+01  -1.385177e+02
   1.051842e+02   1.850997e+02
  -5.160356e+01   3.194333e+02
  -3.397865e+02   5.629219e+01
  -3.718191e+02  -3.136249e+02
  -1.493727e+02  -3.664153e+02
   2.188078e+02  -2.467096e+02
   4.471763e+02   4.346667e+01
   2.951039e+02   1.746691e+02
  -1.675121e+01   2.115553e+02
  -2.399748e+02   1.295873e+02
  -1.979800e+02  -3.716496e+00
  -2.444786e+01   6.038127e+00
   3.254316e+01   5.451113e+01
  -6.034679e+01   7.490123e+01
  -1.990495e+02  -1.705680e+01
  -1.031229e+02  -1.530651e+02
   1.304040e+02  -2.255978e+02
   2.710686e+02  -1.271226e+02
   2.672254e+02   8.789317e+01
   1.844456e+01   2.864499e+02
  -1.998058e+02   2.893429e+02
  -3.045118e+02   1.507815e+02
  -1.860746e+02  -1.127043e+02
  -1.071277e+02  -2.568201e+02
   8.897223e+00  -2.659813e+02
   2.587328e+01  -1.738128e+02
   2.083333e+01  -1.159498e+02
   1.341993e+02  -1.464958e+02
   1.842759e+02  -2.810303e+01
   2.112153e+02   1.032728e+02
   7.793198e+01   2.140466e+02
  -8.201569e+01   1.374378e+02
  -1.628235e+02  -1.869309e+01
  -1.177624e+02  -2.003303e+02
   6.369844e+01  -2.239762e+02
   2.091553e+02  -9.268904e+01
   2.510505e+02   1.048216e+02
   1.463872e+02   2.096696e+02
  -3.875293e+01   2.145039e+02
  -1.254212e+02   1.665098e+02
  -7.702765e+01   9.252477e+01
  -9.535891e+01   8.381742e+01
  -2.154130e+02   6.662167e+01
  -3.741391e+02  -5.056409e+01
  -2.748101e+02  -2.511018e+02
   1.686501e+01  -3.440245e+02
   2.728387e+02  -3.779421e+02
   4.165330e+02  -1.322358e+02
   2.346430e+02   7.114459e+01
   1.100254e+01   2.457117e+02
  -8.599188e+01   1.915913e+02
   1.302955e+01   3.890893e+01
   1.119200e+02  -1.589791e+01
   1.049943e+02   3.534248e+01
   7.990633e+00   1.191626e+02
  -9.931451e+01   1.303415e+02
  -7.073799e+01  -3.340950e+01
   3.229440e+01  -1.070345e+02
   1.618375e+02  -1.624718e+01
   1.792618e+02   2.061913e+02
  -1.457543e+01   2.931356e+02
  -2.059126e+02   2.060980e+02
  -3.484017e+02  -6.590137e+01
  -2.076036e+02  -2.282183e+02
  -5.924638e+01  -2.035737e+02
   1.076686e+02  -1.331093e+02
   1.267293e+02  -1.852453e+01
   3.209600e+01   1.378444e+01
  -3.967615e+01  -3.110734e+01
  -1.500458e+01  -1.025029e+02
   1.029418e+02  -6.116808e+01
   1.121918e+02   4.132015e+01
   2.222238e+01   6.775966e+01
  -8.470196e+01   1.121614e+01
  -3.821040e+01  -8.071308e+01
   1.106979e+02  -7.168118e+01
   2.334355e+02   1.989679e+01
   1.921618e+02   1.405722e+02
   1.349136e+01   2.054016e+02
  -1.834292e+02   2.351278e+02
  -2.067839e+02   4.876488e+01
  -1.043230e+02  -4.174603e+01
   2.981148e+01  -7.277650e+01
   5.311523e+01   7.300309e+00
  -3.563262e+01   7.502227e+01
  -1.240474e+02   5.771271e+01
  -1.432087e+02  -6.741675e+01
  -4.839517e+01  -1.580518e+02
   7.828993e+01  -1.144678e+02
   8.244078e+01  -7.656405e+00
   2.962434e+01   1.929800e+01
  -5.427371e+01  -2.635876e+01
  -2.021405e+01  -1.180082e+02
   6.673976e+01  -7.358211e+01
   2.054886e+02  -1.095637e+01
   1.377608e+02   1.113842e+02
   9.122561e-01   1.944629e+02
  -1.373456e+02   1.222806e+02
  -1.561606e+02   4.076231e+01
  -6.293491e+01  -5.940155e+01
   4.578879e+01  -7.515979e+01
   8.237677e+01  -2.598848e+01
  -3.797178e+01   1.692772e+01
  -4.792606e+01   3.557347e-01
   1.517701e+01  -2.922571e+01
   7.939566e+01  -1.881075e+01
   8.309718e+01   6.049240e+01
   1.897061e+01   1.257896e+02
  -1.080155e+02   1.000374e+02
  -1.964906e+02  -1.270211e+01
  -1.770425e+02  -1.483143e+02
  -5.407757e+01  -2.031213e+02
   7.489940e+01  -1.777998e+02
   1.195789e+02  -4.752995e+01
   8.734349e+01   2.392481e+01
   3.734864e+01   2.380035e+01
   2.955553e+01  -1.186704e+01
   7.081700e+01  -1.243983e+01
   6.839461e+01   6.708456e+01
  -4.329400e+01   1.200390e+02
  -9.959948e+01   5.679918e+01
  -1.310415e+02  -5.507107e+01
   9.578140e+00  -1.368523e+02
   1.534232e+02  -8.673482e+01
   1.991456e+02   5.979091e+01
   6.889466e+01   1.803509e+02
  -9.488681e+01   2.135621e+02
  -2.261393e+02   7.145611e+01
  -2.132121e+02  -7.326391e+01
  -6.051615e+01  -1.735630e+02
   3.229230e+01  -1.212355e+02
   7.140040e+01  -7.643505e+01
   3.963205e+01  -5.779775e+01
   2.739174e+01  -9.726528e+01
   8.030000e+01  -6.271833e+01
   1.079606e+02   1.347094e+00
   1.274142e+02   1.034624e+02
   1.717845e+01   1.845085e+02
  -7.085929e+01   1.478338e+02
  -1.227643e+02   1.128861e+01
  -9.564652e+01  -1.215004e+02
   6.898642e-01  -1.056127e+02
   7.664254e+01  -4.168009e+01
   6.282661e+01   5.874121e+00
  -1.026961e+01   5.765415e+01
  -2.560945e+01   5.122960e+01
   1.247249e+01   7.669137e-01
   6.226947e+01   3.830291e+01
   3.364710e+01   2.468945e+01
  -8.824133e+01   2.339502e+01
  -1.576785e+02  -6.759172e-01
  -1.310401e+02  -9.217139e+01
   1.688556e+01  -9.169286e+01
   1.251593e+02  -3.325085e+01
   1.171377e+02  -9.181427e+00
   3.942936e+01   3.039428e+01
  -5.210397e+01   1.528282e+01
  -5.654799e+01  -4.277094e+01
  -5.309769e+00  -6.512681e+01
   4.276886e+01  -4.166837e+01
   3.852264e+01  -6.531167e+00
   4.074945e+01   5.404023e+01
   6.403034e+01   3.192453e+01
   5.623835e+01  -1.062182e+01
   2.692727e+01   1.383455e+01
   1.917113e+01   8.451836e+01
  -3.580936e+01   1.332053e+02
  -1.210706e+02   1.189567e+02
  -1.504294e+02  -1.872428e+01
  -8.903938e+01  -7.971172e+01
   6.934621e+00  -1.062986e+02
   7.035502e+01  -5.921485e+01
   3.044265e+01   1.107557e+01
  -3.838790e+01   1.468289e+01
  -8.679313e+01  -3.666939e+01
  -6.746922e+01  -6.800589e+01
   5.648085e+01  -1.048500e+02
   9.942045e+01  -3.203714e+01
   1.251913e+02   2.757457e+01
   3.345577e+01   4.785224e+01
  -3.820351e+01   1.945655e+01
  -3.452549e+01  -1.242088e+01
   5.276994e+01  -3.133770e+01
   1.015534e+02   2.822657e+01
   3.413585e+01   8.801491e+01
  -6.596331e+01   1.576505e+02
  -1.299681e+02   9.202102e+01
  -1.302819e+02  -6.360702e+01
  -7.371751e+00  -1.400991e+02
   5.763052e+01  -1.352383e+02
   1.115232e+02  -2.081006e+01
   5.317919e+01   1.376844e+02
   1.917526e+01   9.063121e+01
  -2.503412e+01   2.455888e+01
  -2.678655e+01  -2.216145e+01
  -1.466783e+01   2.933807e+01
   2.288540e+00   1.150012e+01
  -3.465353e+01  -2.419763e+01
  -8.385819e+01  -6.174692e+01
  -2.387251e+01  -1.061076e+02
   4.100615e+01  -5.112438e+01
   1.062000e+02   2.438122e+01
   1.019447e+02   6.263702e+01
  -7.072661e+00   2.659959e+01
  -6.071981e+01   1.766561e+01
  -5.409545e+01   1.934642e+01
  -1.745384e+01   1.105436e+01
   4.717768e+01  -6.153451e+00
   1.280952e+01  -9.930781e+00
  -3.609495e+01   2.804370e+01
  -1.567720e+01  -2.166871e+01
   8.467077e+01  -1.795108e+01
   7.463162e+01   1.077598e+01
   2.118959e+01   7.126776e+01
  -9.116446e+01   1.147784e+02
  -1.357831e+02   2.632734e+01
  -1.478261e+02  -5.655067e+01
  -5.296944e+00  -1.369671e+02
   4.166411e+01  -1.375743e+02
   1.031233e+02  -7.265085e+01
   6.563451e+01   1.484268e+01
   5.929894e+01   4.207389e+01
   3.491956e+01   2.947417e+00
  -1.067624e+00  -5.839949e+00
   4.319385e+01   5.765785e+01
   9.007257e+00   5.601900e+01
  -5.792953e+01   6.228569e+01
  -6.242188e+01  -2.452541e+00
  -5.380040e+01  -7.463196e+01
  -4.155088e+01  -9.480860e+01
   4.508833e+01  -3.372112e+01
   1.108118e+02   3.701839e+01
   6.241052e+01   6.963436e+01
  -5.898431e+01   9.717975e+01
  -9.973011e+01   2.885262e+01
  -5.810390e+01  -4.218197e+01
   8.060588e+00  -7.874667e+01
   4.302731e+01  -3.906158e+01
  -1.666743e+01   2.969238e+01
  -4.857854e+01   2.781697e+01
  -5.519492e+01   2.015754e+00
   9.343484e+01  -8.123121e+01
   9.795162e+01  -4.680100e+01
   8.210509e+01   1.720003e+00
  -1.127793e+01   7.800950e+01
  -4.582064e+01   6.616855e+01
  -2.136137e+01   1.183530e+01
  -1.437384e+01  -3.480318e+01
   2.767108e+01  -3.899469e+01
   2.811815e+01   1.824737e+01
   3.543777e+01   4.692773e+01
  -2.521145e+01   2.831943e+01
  -4.133118e+01   3.384624e+00
  -3.445544e+01  -3.527970e+01
  -4.067791e+01  -7.864560e+00
   1.325587e+01   3.661634e+01
  -1.625500e+00   1.670812e+01
  -4.571611e+00  -3.530298e+01
   4.757031e+00  -5.311200e+01
   2.068495e+00   1.139891e-01
   2.755752e+01   1.664325e+01
   1.985773e+01   3.216763e+01
  -3.778297e+01   4.094109e+01
  -6.248313e+01  -9.898011e+00
  -4.121032e+01  -7.911574e+01
   5.472798e+01  -2.494552e+01
   4.798994e+01   8.491062e+00
   7.626533e+01   2.733613e+01
  -2.316435e+01   2.669303e+01
  -5.373469e+01   4.210925e+01
  -2.793685e+01   2.125650e+01
   9.965238e+00   1.975254e+01
   2.455758e+00   6.521184e+00
  -3.196612e+01   8.582774e-01
  -7.517697e+01   8.328077e+00
