
 $NMID
 id='ANONYMOUS ', fmtdat='(2E16.6)'
 volume=1.0
 tramp=1.0
 $END
   2.520383e+03  -1.871550e+02
   1.625404e+03   9.676593e+02
   1.467904e+02   1.547588e+03
  -6.534969e+02   9.645142e+02
  -4.584646e+02   3.729391e+02
  -2.836765e+01  -6.540099e+01
   3.184851e+02  -3.630508e+01
   1.643151e+02   3.821093e+02
  -2.082871e+02   5.111610e+02
  -5.473674e+02   1.484563e+02
  -3.184001e+02  -2.574656e+02
  -1.107694e+02  -4.275661e+02
   2.328176e+02  -1.804312e+02
   1.805543e+02   3.673187e+02
  -1.110488e+02   4.030963e+02
  -3.402020e+02   1.020154e+02
  -2.484912e+02  -3.654960e+02
   1.102058e+01  -5.593658e+02
   3.368523e+02  -3.282642e+02
   4.198726e+02   1.017165e+02
   1.359006e+02   2.895965e+02
  -7.060722e+01   2.429683e+02
  -6.756120e+00   1.028526e+02
   2.231985e+02   8.546241e+01
   2.942365e+02   2.162056e+02
  -1.449923e+01   3.195083e+02
  -4.233512e+02   1.230929e+02
  -4.513062e+02  -9.476286e+01
  -1.546744e+02  -2.302507e+02
   2.688584e+02  -1.559753e+02
   4.144021e+02   1.186575e+02
   1.247866e+02   3.115503e+02
  -1.867484e+02   3.028206e+02
  -3.482749e+02   1.333720e+02
  -2.543521e+02  -1.413349e+02
  -5.556810e+01  -2.352940e+02
  -2.625279e+01  -8.035840e+01
  -5.327940e+01   6.717566e+01
  -1.331057e+02   8.186334e+01
  -1.817549e+02  -1.745395e+02
   3.153615e+01  -3.940762e+02
   2.261426e+02  -3.692706e+02
   2.667456e+02  -1.116679e+01
   7.524399e+01   2.612032e+02
  -1.296512e+02   9.658609e+01
  -9.508686e+01  -2.030172e+02
   8.615845e+01  -3.045249e+02
   3.815360e+02  -4.509831e+00
   3.900184e+02   2.695157e+02
   1.222137e+02   3.753812e+02
  -2.539699e+02   2.263661e+02
  -3.943979e+02  -3.788055e+00
  -2.839870e+02  -1.560546e+02
   1.857610e+01  -1.750146e+02
   2.441598e+02  -5.156670e+01
   1.419034e+02   2.253689e+01
   4.569766e+00  -1.165343e+01
  -3.892656e+01  -7.199323e+01
   8.597982e+01  -6.054355e+01
   1.483580e+02   2.881952e+01
   8.606202e+01   1.353750e+02
  -1.021384e+02   2.235116e+02
  -2.716113e+02   1.713517e+02
  -2.391887e+02  -6.438472e+01
  -1.331767e+00  -2.629297e+02
   2.760813e+02  -3.378666e+02
   3.161023e+02  -1.191583e+02
   2.002539e+02   1.660433e+02
   6.351597e+01   3.318857e+02
  -3.062305e+01   2.248240e+02
  -3.854010e+00   1.023148e+02
  -1.808085e+01   1.002094e+02
  -1.164856e+02   1.202463e+02
  -2.189453e+02   3.837461e+01
  -1.878466e+02  -9.972348e+01
  -6.999243e+01  -2.074637e+02
   8.046102e+01  -1.182663e+02
   1.655539e+02   6.983367e+01
   1.089944e+02   1.888932e+02
  -8.476660e+01   2.447766e+02
  -2.305527e+02   6.267936e+01
  -2.641975e+02  -1.185207e+02
  -1.204818e+02  -2.309955e+02
   4.607144e+01  -2.012545e+02
   1.277948e+02  -1.628059e+02
   1.101498e+02  -7.926188e+01
   1.170919e+02  -8.451451e+01
   2.253700e+02  -3.621687e+01
   3.559192e+02   6.639957e+01
   2.799624e+02   2.437133e+02
   3.568907e+00   3.752667e+02
  -3.292549e+02   3.776620e+02
  -3.969755e+02   1.253764e+02
  -2.720496e+02  -1.011914e+02
  -1.402228e+01  -2.469388e+02
   9.708822e+01  -1.764334e+02
  -9.768502e+00  -2.147146e+01
  -9.607412e+01   1.027909e+01
  -9.645364e+01  -2.987068e+01
   1.534343e+00  -9.878778e+01
   1.085954e+02  -7.645309e+01
   1.304550e+02   6.827294e+01
  -5.172285e+01   1.198442e+02
  -1.442087e+02  -1.524311e+01
  -1.369655e+02  -2.185848e+02
  -2.337914e+00  -2.953802e+02
   1.951126e+02  -1.757888e+02
   3.517729e+02   3.897468e+01
   2.071962e+02   2.073284e+02
   4.511059e+01   2.336470e+02
  -1.263877e+02   1.079713e+02
  -1.229855e+02   2.494003e+01
  -1.052561e+01  -1.002739e+01
   4.545444e+01   8.222660e+01
  -5.682343e+00   9.453426e+01
  -1.305499e+02   6.497346e+01
  -9.510081e+01  -2.724063e+01
   1.700248e+01  -4.931396e+01
   7.929106e+01   1.833599e+01
   3.613420e+01   1.058314e+02
  -1.487183e+02   8.742130e+01
  -3.017829e+02  -5.146092e+01
  -2.240607e+02  -1.291825e+02
  -1.227893e+01  -2.151968e+02
   1.938326e+02  -1.987517e+02
   2.433803e+02  -7.833972e+01
   1.120861e+02   4.706357e+01
  -5.524009e+01   7.297714e+01
  -4.436267e+01  -2.191592e+01
   7.720915e+01  -8.569728e+01
   1.754960e+02  -3.229502e+01
   1.642309e+02   8.590083e+01
   4.427523e+01   1.349852e+02
  -9.097401e+01   1.167874e+02
  -1.173217e+02   1.699799e+01
  -1.841908e+01  -3.978470e+01
   4.069651e+01   6.016368e+01
   4.656774e+00   7.715307e+01
  -8.504199e+01   1.036477e+02
  -1.844783e+02   5.862946e+00
  -1.212750e+02  -1.263736e+02
  -5.598864e+00  -1.777705e+02
   1.258420e+02  -1.135568e+02
   1.412576e+02  -2.135147e+01
   2.725508e+01   5.293823e+01
  -3.174279e+01   6.893294e+01
  -3.551081e+01   1.597451e+01
   3.052782e+01  -3.045084e+01
   6.572982e+01   2.369740e+01
   1.239484e+01   3.549696e+00
  -5.696389e+01  -3.808911e+00
  -7.933065e+01  -7.034204e+01
  -9.388584e+00  -1.482311e+02
   1.233476e+02  -1.059315e+02
   1.790533e+02  -1.408863e+01
   1.519954e+02   1.261270e+02
   1.121886e+01   2.069260e+02
  -5.122767e+01   1.310059e+02
  -9.702958e+01   3.445237e+01
  -7.443566e+01  -3.017803e+01
  -3.372656e+01  -2.574280e+01
  -4.580402e+01   8.625849e+00
  -8.525208e+01  -2.451712e+01
  -4.831146e+01  -6.881661e+01
   5.245996e+01  -9.685411e+01
   1.132115e+02  -2.118190e+01
   9.788449e+01   3.214199e+01
  -3.023919e+01   1.025802e+02
  -1.165339e+02   7.918083e+01
  -1.700395e+02  -3.155883e+01
  -8.943132e+01  -2.025361e+02
   7.585220e+01  -1.794592e+02
   2.409043e+02  -6.125694e+01
   1.996169e+02   8.760380e+01
   7.751169e+01   1.522990e+02
  -1.784958e+01   1.225461e+02
  -8.013397e+01   8.643896e+01
  -7.433110e+01   6.575613e+01
  -6.711757e+01   1.008703e+02
  -7.469667e+01   5.501237e+01
  -1.202198e+02  -3.688818e+00
  -1.338591e+02  -1.027365e+02
  -2.828193e+01  -1.908930e+02
   1.053958e+02  -1.387859e+02
   1.468729e+02  -1.588878e+01
   9.315560e+01   8.632537e+01
  -1.147157e+01   1.217889e+02
  -1.004380e+02   5.225941e+01
  -6.088531e+01  -1.958330e+00
  -1.906588e+01  -4.626882e+01
   1.130636e+01  -5.287924e+01
  -2.897711e+00  -2.334905e+01
  -9.865538e+01  -2.150065e+01
  -3.436670e+01  -3.555938e+01
   7.255196e+01  -7.035822e+01
   1.567715e+02  -1.570046e+01
   1.565789e+02   6.538193e+01
  -1.875726e+01   1.064327e+02
  -1.486653e+02   8.985513e+01
  -1.185555e+02  -2.617933e+01
  -5.601377e+01  -6.385302e+01
   4.300244e+01  -4.408620e+01
   5.652497e+01   1.591208e+01
   2.282114e+01   4.386742e+01
  -3.305999e+01   5.813302e+01
   1.022995e+01  -1.134429e-01
  -5.808974e+01  -4.349527e+01
  -3.157257e+01  -6.803732e+01
  -6.783481e+01   2.554249e+00
  -6.962368e+01  -7.149774e+00
  -5.234881e+01  -8.213172e+01
   1.493185e+01  -1.145239e+02
   1.022302e+02  -1.368807e+02
   1.476657e+02   5.982173e+00
   1.220555e+02   6.187124e+01
  -6.136017e+00   1.030617e+02
  -6.061883e+01   7.512743e+01
  -5.248131e+01   2.007810e+00
   4.539358e+01  -3.363403e+01
   1.020830e+02   3.711665e+01
   7.011608e+01   7.658234e+01
  -6.470509e+01   1.129249e+02
  -1.470044e+02   2.497238e+00
  -1.411511e+02  -6.001596e+00
   5.967007e+00  -3.945903e+01
   5.352333e+01  -6.225379e+01
   1.854235e+01   2.559354e+00
  -4.913863e+01   1.705745e+01
  -8.911697e+01  -3.255496e-01
  -5.124870e+01  -1.198677e+02
   4.493839e+01  -1.386304e+02
   1.219845e+02  -7.149393e+01
   1.106255e+02   8.337961e+01
   3.360443e+00   1.496846e+02
  -8.376294e+01   7.470679e+01
  -8.054946e+01  -2.113600e+01
  -6.829269e+01  -1.011663e+02
   5.916418e+00  -7.343965e+01
   3.947799e+01  -2.435559e+01
   2.974475e+01   2.689522e+01
  -2.439068e+01   1.893519e+01
  -1.791779e+01  -2.295120e+00
   4.860937e+01   7.018981e-01
   9.310687e+01   8.322102e+01
   2.566565e+01   1.136975e+02
  -4.643718e+01   5.165215e+01
  -9.855996e+01  -1.248813e+01
  -7.488844e+01  -4.568745e+01
  -9.058333e+00  -2.400186e+01
   7.107069e+01  -3.857080e+01
   1.020383e+02  -2.092079e+01
   1.373231e+01   3.806237e+00
  -4.897588e+01   6.830932e+00
  -3.793095e+00  -1.115855e+01
   3.646873e+01  -2.243536e+01
   1.263003e+01  -1.997255e+00
  -8.420002e+01   1.438356e+01
  -6.147499e+01  -2.261043e+01
  -4.184274e+01  -9.918927e+01
   9.679979e+01  -1.218851e+02
   1.623903e+02  -4.887128e+01
   1.258333e+02   5.004390e+01
   4.490496e+01   1.209900e+02
  -6.519978e+01   1.474639e+02
  -9.589495e+01   7.544510e+01
  -9.556789e+01  -2.567395e+01
   1.263266e+01  -2.495455e+01
  -1.721310e+01  -7.015973e+00
  -2.950169e-01   7.610049e+00
  -3.944869e+01  -2.685195e+01
  -1.742513e+01  -7.991730e+01
   4.280766e+01  -6.098499e+01
   5.081469e+01   1.795251e+01
   8.699859e+01   5.816859e+01
   1.070803e+01   1.030429e+02
  -5.243418e+01   5.819401e+01
  -8.893272e+01  -2.878784e+01
  -3.397859e+01  -7.371756e+01
   6.306145e+01  -6.499408e+01
   7.771199e+01   2.254132e+01
   7.410676e+01   5.087827e+01
  -1.899100e+01   5.190047e+01
  -3.670861e+01   4.088332e-01
   4.172635e+00  -7.396557e+00
   4.901262e+01  -7.431525e+00
  -1.322017e+01  -8.563989e+00
  -5.290964e+01   3.756866e+01
  -9.598429e+01   2.352800e+01
  -3.650801e+01  -1.735521e+01
   3.260266e+01  -7.341347e+01
   6.367087e+01  -3.990919e+01
   4.754470e+01  -3.457495e+01
  -8.566549e-01   3.203467e+01
  -4.654056e+01   5.257404e+01
  -7.707897e+00  -2.795378e+01
  -2.766307e+01  -3.062035e+01
   1.834357e+01  -5.497503e+01
   3.984754e+01  -1.926803e+01
   5.738879e+01   4.773881e+01
  -1.684997e+01  -9.064363e-01
  -2.824800e+01  -2.401229e+01
   3.346253e-02  -5.243722e+00
   1.808234e+01   2.424215e+01
  -2.273385e+01   5.293607e+01
  -1.614447e+01   2.174428e+01
  -4.436757e+01  -1.665115e+01
  -3.371629e+01  -3.872276e+01
   6.350437e+01  -2.029160e+01
   6.824080e+01   2.947731e+01
   3.344183e+01   7.078346e+01
  -4.622274e+01   4.362894e+01
  -5.767473e+01  -1.201626e+01
  -2.460989e+01  -3.043582e+01
   4.318927e+01  -4.048860e+01
   4.578903e+01  -4.144608e+01
   1.627244e+01  -1.545136e+01
  -1.493099e+01  -1.131518e+01
  -2.750594e+01  -9.259200e+00
   2.380901e+01  -1.211070e+01
   4.187025e+01  -3.631622e+01
