
 $NMID
 id='ANONYMOUS ', fmtdat='(2E16.6)'
 volume=1.0
 tramp=1.0
 $END
  -2.287512e+03   2.510226e+02
  -1.394621e+03  -9.767187e+02
  -1.835950e+02  -1.262898e+03
   6.321509e+02  -8.677902e+02
   5.291921e+02  -3.358362e+02
   1.025516e+01  -1.181083e+01
  -1.462781e+02  -8.176394e+01
  -6.745789e+01  -3.232386e+02
   2.145142e+02  -3.996067e+02
   3.608389e+02  -8.925431e+01
   2.700032e+02   2.927582e+02
   8.844820e+01   3.363197e+02
  -1.395164e+02   9.878244e+01
  -9.028354e+01  -2.342383e+02
   4.964088e+01  -3.374160e+02
   2.459711e+02  -6.117604e+01
   1.978069e+02   3.240563e+02
  -3.938501e+01   4.173038e+02
  -3.029202e+02   1.972455e+02
  -3.449683e+02  -3.088115e+01
  -1.564904e+02  -2.203546e+02
   5.169143e+01  -1.886012e+02
   2.855638e+01  -6.745507e+01
  -1.436535e+02  -5.834464e+01
  -2.340055e+02  -1.749079e+02
  -3.078421e+01  -2.436386e+02
   2.963194e+02  -1.310823e+02
   4.024234e+02   4.453749e+01
   1.183062e+02   1.915869e+02
  -1.763438e+02   1.413526e+02
  -3.880869e+02  -1.015497e+02
  -1.376782e+02  -2.749470e+02
   1.594124e+02  -2.410849e+02
   3.288334e+02  -8.894418e+01
   2.496442e+02   1.473337e+02
   8.056183e+01   1.915674e+02
  -3.329880e+01   7.878350e+01
  -7.743007e+00  -1.148033e+02
   1.603329e+02  -1.176392e+02
   1.595223e+02   1.313290e+02
   4.065923e+01   3.716905e+02
  -1.875345e+02   3.037354e+02
  -2.301069e+02   1.853862e+01
  -7.609950e+01  -2.126617e+02
   1.102348e+02  -7.822264e+01
   1.179672e+02   1.677721e+02
  -2.214597e+01   2.866980e+02
  -3.097943e+02   3.011240e+01
  -3.507346e+02  -1.909779e+02
  -1.430963e+02  -2.980853e+02
   2.065721e+02  -2.069313e+02
   3.292903e+02   1.208939e+00
   2.466354e+02   1.698628e+02
  -5.602123e+01   1.468062e+02
  -1.510419e+02   6.731214e+01
  -1.137183e+02  -2.827084e+01
   3.412669e+00   4.139932e+01
  -4.327799e+00   4.245338e+01
  -9.690975e+01   5.008233e+01
  -1.210107e+02  -1.467249e+01
  -9.403455e+01  -1.214537e+02
   8.726610e+01  -1.656548e+02
   1.372772e+02  -1.326149e+02
   1.657730e+02   4.389963e+01
   1.162656e+01   1.934957e+02
  -1.745774e+02   2.815664e+02
  -2.109873e+02   1.179616e+02
  -1.618679e+02  -1.353422e+02
  -4.163153e+01  -2.555315e+02
   3.714178e+01  -1.926322e+02
  -1.059692e+01  -1.274562e+02
   2.395499e+01  -8.938320e+01
   1.040958e+02  -1.057436e+02
   1.802610e+02  -3.193354e+01
   1.815089e+02   7.822037e+01
   5.557419e+01   1.612764e+02
  -6.347144e+01   1.332909e+02
  -1.619389e+02  -9.927957e+00
  -1.171992e+02  -1.921176e+02
   6.236383e+01  -1.784142e+02
   1.918163e+02  -3.522767e+01
   1.891880e+02   9.170134e+01
   1.205061e+02   1.637521e+02
  -4.495931e+01   1.284474e+02
  -8.319182e+01   1.328922e+02
  -7.787813e+01   8.783439e+01
  -8.738786e+01   7.677258e+01
  -2.156315e+02   5.860165e+01
  -3.650020e+02  -9.765683e+01
  -2.218969e+02  -2.040359e+02
   1.449231e+01  -2.989178e+02
   2.186140e+02  -2.392703e+02
   3.498068e+02  -1.685389e+02
   2.049780e+02   4.487657e+01
   2.061013e+01   1.553017e+02
  -7.597475e+01   9.885316e+01
  -2.205745e+00   2.230105e+01
   1.124966e+02  -1.824136e+01
   1.151891e+02   5.701275e+01
  -4.282497e-02   1.207382e+02
  -1.061620e+02   5.960870e+01
  -4.698136e+01  -4.162052e+01
   2.841192e+01  -9.124471e+01
   1.335532e+02   2.776909e+01
   1.088973e+02   1.739266e+02
  -3.140593e+01   2.074534e+02
  -1.607016e+02   1.359009e+02
  -2.363652e+02  -5.058811e+01
  -1.482995e+02  -1.770146e+02
  -6.050463e+01  -1.933798e+02
   1.055663e+02  -7.112061e+01
   7.932610e+01  -1.565599e+01
   2.989961e+01   8.210040e+00
  -2.391594e+01  -4.771062e+01
   3.896993e+01  -4.412440e+01
   8.084596e+01  -5.282188e+01
   7.979562e+01   5.428506e+00
  -9.349847e-01   6.195355e+01
  -4.886366e+01  -1.889713e+01
  -6.000331e+01  -6.595168e+01
   1.051040e+02  -6.030201e+01
   2.204318e+02   1.768510e+01
   1.826571e+02   9.743603e+01
   6.460273e+00   1.502457e+02
  -1.468273e+02   1.625738e+02
  -1.947814e+02   1.972898e+01
  -5.940571e+01  -7.787836e+00
   4.886006e+01  -5.965771e+01
   4.926368e+01   2.290189e+01
  -7.355470e+01   5.134480e+01
  -1.344348e+02   3.117419e+01
  -1.224752e+02  -6.050516e+01
  -4.740339e+01  -1.075024e+02
   5.201785e+01  -8.274919e+01
   8.931490e+01  -3.262201e+01
   8.429643e+00   3.525082e+01
  -4.322141e+01  -2.513820e+01
  -8.212557e+00  -8.346844e+01
   7.780703e+01  -7.170162e+01
   1.438683e+02   2.807086e+01
   1.147197e+02   9.704411e+01
  -2.559932e+00   1.331664e+02
  -8.782034e+01   1.096438e+02
  -8.963110e+01   5.495217e+00
  -3.127037e+01  -2.998087e+01
   3.961794e+01  -5.878382e+01
   5.257275e+01  -2.364421e+01
  -3.519278e+01   6.387472e+00
  -3.667488e+01  -4.092517e+01
  -1.550598e+01  -1.263594e+01
   8.248662e+01  -7.214206e+00
   8.235911e+01   4.194704e+01
   1.258372e+01   1.417923e+02
  -8.909970e+01   9.232432e+01
  -1.667690e+02   1.374349e+01
  -1.394568e+02  -1.034757e+02
  -7.823642e+00  -1.659791e+02
   5.437402e+01  -1.487533e+02
   6.470475e+01  -2.657995e+01
   3.581019e+01   8.246156e+00
   2.078054e+01   3.574562e+01
   3.143018e+01  -1.500496e+01
   6.581792e+01   5.305700e-01
   3.028700e+01   5.702765e+01
  -2.059564e+01   8.710169e+01
  -8.751554e+01   4.614277e+01
  -6.363993e+01  -9.370615e+00
   1.958277e+01  -8.496179e+01
   7.405126e+01  -5.716576e+01
   1.490351e+02   4.628800e+01
   4.501303e+01   1.874764e+02
  -6.095317e+01   1.435640e+02
  -1.597239e+02   4.745858e+01
  -1.709829e+02  -6.291927e+01
  -6.154029e+01  -8.782569e+01
   3.836411e+00  -9.625634e+01
   3.445575e+01  -8.201422e+01
   2.395502e+01  -4.083216e+01
   6.756088e+01  -4.360883e+01
   5.061543e+01  -7.745386e+01
   7.441063e+01  -1.487254e+01
   1.009526e+02   8.462048e+01
  -7.279275e+00   1.715696e+02
  -7.649534e+01   9.918050e+01
  -9.380478e+01  -1.524341e+01
  -6.312663e+01  -7.574178e+01
  -4.919017e+01  -8.342287e+01
   6.655109e+01  -6.455187e+01
   5.353254e+01   3.558734e+01
   2.284610e+01   3.348984e+01
  -1.031281e+01   2.297653e+01
  -6.948931e+00   2.178680e+01
   3.326781e+01   1.829123e+01
   2.020811e+01   6.514926e+00
  -5.974010e+01   2.264631e+01
  -9.664143e+01  -2.213709e+01
  -9.881469e+01  -3.722776e+01
   1.255685e+01  -7.310810e+01
   6.327362e+01  -5.960187e+01
   9.333721e+01  -3.525372e+00
   4.674811e+01   2.713636e+01
  -5.777511e+01   3.300300e+01
  -5.821798e+01  -4.632014e+01
  -3.015388e+01  -5.256062e+01
   1.784159e+01  -3.450287e+01
   4.586210e+01   4.482965e+00
   3.844330e+01   3.204587e+01
   3.355446e+01   4.452427e+00
   3.917953e+01   1.995291e+01
   4.907472e+01   4.400917e+00
   3.834209e+01   7.311626e+01
  -9.060663e+00   1.326947e+02
  -1.015720e+02   1.078848e+02
  -1.288290e+02   6.591773e+00
  -8.075997e+01  -5.627811e+01
   4.043707e+00  -9.609140e+01
   5.884178e+01  -5.323333e+01
   5.104894e+01   2.212498e+00
  -3.911558e+01   1.095806e+01
  -9.047791e+01   9.316209e+00
  -3.552369e+01  -6.075382e+01
   5.853075e+01  -1.166884e+02
   1.272770e+02  -4.692174e+01
   9.417955e+01   3.235566e+01
   3.287699e+01   7.002540e+01
  -5.389884e+01   6.119684e+01
  -3.017960e+01  -1.079828e+01
   4.706944e+01  -4.086134e+00
   4.126860e+01   6.535589e-01
   4.471049e+01   6.902116e+01
  -4.353749e+01   8.471641e+01
  -9.687463e+01   4.820919e+01
  -7.018471e+01  -4.264616e+01
   3.303880e+00  -8.981815e+01
   2.268699e+01  -1.054195e+02
   4.986922e+01  -9.928182e+00
   1.694794e+01   6.877443e+01
   1.858832e+00   5.347367e+01
  -4.487362e+01   3.553456e+01
  -3.974885e+01  -1.595915e+01
  -2.280799e-01  -2.170897e+01
  -1.091332e+01   4.854677e+00
  -9.967018e+00   1.889110e+00
  -3.818266e+01  -6.735623e+01
  -1.572624e+01  -7.423693e+01
   1.762138e+01  -3.836083e+01
   5.168528e+01   3.300537e+01
   6.454408e+01   4.524642e+01
  -1.665031e+01   2.083128e+01
  -4.528802e+01   5.973598e+00
  -4.866191e+01   1.024147e+01
   2.113304e+00  -5.373324e+00
   8.845416e+00   7.606112e+00
   7.672149e+00   1.004016e+01
  -3.059741e+01   6.912018e+00
  -1.149390e+01  -5.009760e+00
   6.296722e+01   1.152469e+01
   5.785486e+01   8.542573e+00
   3.197813e+01   4.086699e+01
  -4.702084e+01   8.473971e+01
  -1.296195e+02   4.030993e+01
  -9.675337e+01  -6.095366e+01
  -1.837549e+01  -9.363344e+01
   4.950071e+01  -1.271715e+02
   7.263976e+01  -1.791735e+01
   5.293715e+01  -3.522426e+00
   2.033629e+00   2.961421e+01
   3.751331e+01   5.522907e+00
   1.729656e+01  -4.069520e-01
  -7.313963e-02   5.329883e+01
  -1.903570e+01   8.004831e+01
  -1.917168e+01   4.132689e+01
  -4.578811e+01  -8.142470e+00
  -7.515377e+01  -8.499143e+01
  -3.623866e+00  -7.204016e+01
   4.687011e+01  -3.488167e+01
   6.594203e+01   5.433149e+01
   5.591550e+01   5.954701e+01
  -5.637215e+01   5.287856e+01
  -7.029257e+01   1.413268e+00
  -5.271518e+01  -3.472596e+01
   3.500134e+01  -2.001835e+01
   3.576285e+01  -3.728524e+01
  -2.453466e+01   3.504880e-01
  -3.043484e+01   1.583682e+00
  -3.478163e+01  -1.297486e+01
   4.619967e+01  -5.098038e+01
   7.667961e+01  -5.931365e+01
   4.934694e+01   1.469244e+01
   9.102364e+00   8.233733e+01
  -2.987231e+01   6.616319e+01
  -3.913772e+01   1.651461e+01
  -4.270881e+00  -5.308196e+01
   1.953030e+01  -3.804482e+01
   2.411900e+01  -1.321621e+01
   1.775932e+01   2.257751e+01
   1.294954e+01   2.488388e+01
  -3.558625e+01   6.835367e+00
  -1.071645e+01  -2.057087e+01
  -3.650495e+01   1.369896e+00
   1.368754e+00   2.612790e+01
  -3.538241e+01  -5.700499e+00
   8.540945e+00  -1.370197e+01
   7.523726e+00  -4.464765e+01
   7.044718e+00   7.961614e+00
   1.522612e+01  -6.738964e+00
   1.659443e+01   4.604626e+01
  -3.856754e+01   3.627763e+01
  -4.441873e+01   1.762172e+00
  -1.744153e+01  -5.467344e+01
   4.282200e+01  -2.633915e+01
   6.409848e+01   3.602366e+01
   3.334567e+01   3.122182e+01
  -2.065958e+01   4.521035e+01
  -3.876437e+00   1.920863e+01
  -2.927792e+01   2.372215e+01
   9.383099e+00   2.851895e+01
   2.496918e+01  -3.286740e+00
  -2.418012e+01   1.718379e+00
  -6.988877e+01   2.421507e+01
