
 $NMID
 id='ANONYMOUS ', fmtdat='(2E16.6)'
 volume=1.0
 tramp=1.0
 $END
  -2.416657e+03   2.550278e+02
  -1.909585e+03  -1.067608e+03
  -4.397919e+02  -1.833086e+03
   7.884911e+02  -1.193811e+03
   7.458859e+02  -3.162093e+02
   5.232669e+01   1.178413e+02
  -2.797932e+02  -7.468519e+01
  -7.450226e+01  -4.052896e+02
   2.646942e+02  -4.965793e+02
   5.107376e+02  -1.561037e+02
   4.187397e+02   3.343105e+02
   9.315186e+01   4.369961e+02
  -1.379809e+02   1.490622e+02
  -2.137047e+02  -2.326927e+02
   2.988625e+01  -4.139856e+02
   2.601140e+02  -9.985561e+01
   2.682735e+02   3.302624e+02
  -1.197583e+01   5.435842e+02
  -3.172471e+02   2.913831e+02
  -3.729697e+02  -7.544321e+01
  -1.760099e+02  -2.089476e+02
   1.494026e+01  -2.344771e+02
   4.077313e+01  -1.266654e+02
  -1.646880e+02  -1.316809e+02
  -2.668801e+02  -2.446382e+02
  -9.164920e-01  -2.915049e+02
   2.794062e+02  -1.499520e+02
   4.501781e+02   7.247265e+01
   2.447452e+02   2.393484e+02
  -2.474754e+02   1.780932e+02
  -3.936249e+02  -4.171544e+01
  -1.473993e+02  -2.285320e+02
   1.797747e+02  -2.715018e+02
   3.657882e+02  -1.499264e+02
   2.588505e+02   1.155327e+02
   1.323961e+02   1.935374e+02
   4.481996e+01   1.049779e+02
   7.934375e+01  -7.984974e+01
   1.637187e+02  -1.071885e+02
   1.490341e+02   1.333580e+02
   6.030130e+01   3.624412e+02
  -1.206777e+02   3.943445e+02
  -2.480462e+02   3.448975e+00
  -7.604546e+01  -1.809468e+02
   7.325738e+01  -9.326189e+01
   1.419232e+02   1.790274e+02
  -5.134788e+01   3.303573e+02
  -3.087925e+02   5.957495e+01
  -4.358614e+02  -2.465224e+02
  -1.597386e+02  -3.884851e+02
   1.786874e+02  -2.432183e+02
   4.161880e+02  -6.207627e+00
   2.863289e+02   1.870155e+02
  -2.428203e+01   1.927846e+02
  -1.888231e+02   8.711426e+01
  -1.752439e+02   4.006207e+01
  -1.202355e+01   6.714678e+00
   6.463551e+01   4.881925e+01
  -8.548795e+01   6.088439e+01
  -1.999619e+02   9.177410e+00
  -9.844146e+01  -1.168914e+02
   7.535661e+01  -1.944628e+02
   2.929372e+02  -1.426845e+02
   1.934123e+02   6.666661e+01
   2.039329e+01   2.802694e+02
  -2.502893e+02   3.240389e+02
  -2.580935e+02   1.439388e+02
  -1.879946e+02  -1.220898e+02
  -2.863815e+01  -2.886526e+02
  -3.660360e+00  -2.528158e+02
  -1.808556e+01  -1.690441e+02
   2.810529e+01  -1.106612e+02
   1.246067e+02  -8.546685e+01
   2.083579e+02  -7.347366e+01
   1.591675e+02   9.018105e+01
   4.942827e+01   1.891495e+02
  -8.493281e+01   1.268422e+02
  -1.895062e+02  -7.175880e+01
  -1.067804e+02  -1.815989e+02
   3.385540e+01  -2.143777e+02
   2.246199e+02  -5.968168e+01
   2.713463e+02   1.030625e+02
   1.108400e+02   2.248768e+02
   1.060916e+01   1.869969e+02
  -1.353318e+02   1.483005e+02
  -1.130792e+02   8.286037e+01
  -1.468986e+02   7.237297e+01
  -2.243651e+02   5.563347e+01
  -3.954169e+02  -8.288690e+01
  -2.832254e+02  -2.516260e+02
   3.947717e+01  -3.931356e+02
   2.900152e+02  -3.338344e+02
   3.636942e+02  -1.228533e+02
   2.407640e+02   5.205834e+01
   2.436230e+01   1.702533e+02
  -4.752386e+01   1.274418e+02
   4.252207e+01   2.426924e+00
   6.536150e+01  -7.105436e+01
   1.117770e+02   1.226267e+01
   1.695043e+01   1.004805e+02
  -9.486349e+01   8.771767e+01
  -9.780701e+01  -3.278509e+01
   4.418853e+01  -9.244348e+01
   1.264716e+02  -1.047083e+01
   1.443894e+02   1.772549e+02
  -2.599187e+01   3.069277e+02
  -1.837006e+02   1.849047e+02
  -2.947849e+02  -7.831099e+01
  -2.102147e+02  -2.234136e+02
  -1.377261e+01  -2.126035e+02
   8.483413e+01  -1.176356e+02
   9.823162e+01  -3.252507e+01
   1.258522e+01   2.382106e+01
  -4.408052e+01  -6.113423e+01
   6.900820e-01  -6.580406e+01
   1.043130e+02  -6.292802e+01
   9.945146e+01   7.022727e-01
   8.959697e-01   1.735176e+01
  -5.604382e+01   1.758006e+01
  -3.990961e+01  -9.273303e+01
   1.456196e+02  -9.546344e+01
   2.967406e+02  -1.110184e+00
   2.151127e+02   1.127043e+02
   4.968318e+01   2.107613e+02
  -1.794936e+02   2.056988e+02
  -2.496008e+02   1.041509e+02
  -1.145182e+02  -2.772690e+01
   2.711963e+01  -8.331628e+01
   6.200919e+01  -1.427790e+01
  -4.109198e+01   7.471797e+01
  -1.637908e+02   5.809039e+01
  -1.509012e+02  -8.876110e+01
  -5.199495e+01  -1.613001e+02
   8.154865e+01  -1.100975e+02
   1.052418e+02  -3.177776e+01
   1.589261e+01   1.786334e+01
  -2.496980e+01   1.597457e+01
  -1.326862e+01  -6.798675e+01
   5.658384e+01  -9.842455e+01
   1.640604e+02  -1.818883e+01
   1.495343e+02   1.305096e+02
   1.299774e+01   1.595671e+02
  -7.460995e+01   1.264254e+02
  -1.374341e+02   2.649342e+01
  -4.497724e+01  -5.685431e+01
   5.298095e+01  -5.427409e+01
   3.567862e+01  -4.321712e+01
   1.622994e+01   2.185575e+01
  -5.352561e+01  -2.735800e+01
   1.591983e+01  -9.632588e+00
   9.617868e+01  -1.192357e+01
   8.323534e+01   7.050528e+01
   1.713372e+01   1.331234e+02
  -1.111108e+02   1.170781e+02
  -1.845964e+02  -1.021715e-01
  -1.371935e+02  -1.092376e+02
  -6.315051e+01  -1.646503e+02
   1.041177e+02  -1.202061e+02
   7.842642e+01  -5.112320e+01
   6.662878e+01   2.627488e+00
   2.920358e+01   2.534665e+01
   4.339218e+01  -1.267702e+01
   4.518025e+01  -1.689620e+01
   6.587983e+01   4.927925e+01
  -1.925703e+01   1.007362e+02
  -1.184042e+02   1.117811e+02
  -9.159392e+01  -4.492996e+01
   3.020280e+01  -1.139955e+02
   1.594400e+02  -9.385455e+01
   1.788693e+02   6.619772e+01
   6.724995e+01   1.974432e+02
  -1.027692e+02   1.915804e+02
  -2.080629e+02   6.925247e+01
  -1.949270e+02  -5.960613e+01
  -4.955520e+01  -1.177142e+02
   4.323128e+01  -9.829253e+01
   5.384751e+01  -9.125122e+01
   4.295972e+01  -7.627956e+01
   4.642357e+01  -9.454718e+01
   8.249070e+01  -5.070117e+01
   1.328155e+02   2.451013e+00
   1.003920e+02   1.216201e+02
  -5.484310e+00   1.710907e+02
  -8.320039e+01   1.395019e+02
  -1.281421e+02   3.423520e+01
  -1.173067e+02  -9.392485e+01
   1.296042e+01  -1.113027e+02
   7.083637e+01  -6.149164e+01
   4.766915e+01   1.543049e+01
   1.192399e+01   5.413618e+01
  -2.717117e+00   3.001047e+01
   3.747553e+01   1.992028e+01
   7.461474e+01   2.207403e+00
   4.402057e+01   4.770934e+01
  -8.101979e+01   2.285345e+01
  -1.371094e+02   2.005049e+00
  -1.429384e+02  -4.346060e+01
  -9.715301e+00  -7.821311e+01
   1.059256e+02  -5.312888e+01
   1.295377e+02  -3.397339e+01
   4.654183e+01   2.213245e+01
  -5.297844e+01   2.725760e+01
  -9.460608e+01  -7.299011e+00
  -3.255384e+01  -7.916166e+01
   4.388856e+01  -9.864445e+01
   5.129216e+01  -1.516451e+01
   7.345209e+01   2.032028e+01
   5.436725e+01   3.171750e+01
   5.831839e+01  -2.370923e+01
   4.432970e+01  -9.459521e+00
   2.493140e+01   3.390582e+01
  -7.005209e+00   1.072008e+02
  -9.293229e+01   1.185183e+02
  -1.683798e+02  -1.846892e+00
  -1.317186e+02  -5.869721e+01
  -1.766957e+01  -1.221512e+02
   6.976510e+01  -7.018004e+01
   5.805685e+01   3.184659e+01
  -5.156732e+01   1.774724e+01
  -1.215494e+02  -1.818307e+01
  -5.198083e+01  -7.219867e+01
   4.023488e+01  -7.763133e+01
   1.352660e+02  -6.057913e+01
   1.189351e+02   8.291969e+00
   4.550409e+01   6.533095e+01
  -2.429142e+01   4.055210e+01
  -3.788019e+01   1.584765e+01
   6.503802e+00  -3.655281e+01
   8.246941e+01   2.998741e-01
   4.667110e+01   1.202062e+02
  -1.508601e+01   1.409976e+02
  -8.676629e+01   5.808807e+01
  -9.924298e+01  -4.913875e+01
  -8.372409e+01  -1.786045e+02
   3.428313e+01  -1.097477e+02
   8.650503e+01   1.079742e+01
   8.341843e+01   6.992534e+01
   9.662056e+00   8.135163e+01
  -5.567212e+01   3.221702e+01
  -3.360862e+01  -3.019647e+01
  -1.207143e+01   2.455589e+01
   2.242906e+01  -2.384544e+00
  -3.937546e+01   3.458766e+00
  -1.779929e+01  -4.395124e+01
  -5.207632e+01  -6.980597e+01
   4.722945e+01  -2.619336e+01
   1.125021e+02   1.889464e+01
   8.881737e+01   4.775214e+01
   2.180782e+01   3.867040e+01
  -4.322842e+01   3.686097e+01
  -8.445015e+01   1.169386e+01
  -3.042364e+01  -1.595725e-01
   3.950364e+01   1.428786e+01
   7.913719e+00   1.294986e+01
  -7.648836e+00  -8.391560e+00
  -1.182968e+00   5.045463e+00
   5.221648e+01   1.511446e+01
   9.167814e+01   1.188190e+01
   7.074517e+00   8.247094e+01
  -8.888115e+01   1.300932e+02
  -1.488246e+02   5.075358e+01
  -1.437524e+02  -3.045735e+01
  -2.426564e+01  -1.190048e+02
   7.014851e+01  -1.577821e+02
   1.168675e+02  -6.510322e+01
   7.169218e+01   3.129424e+01
   5.204510e+01   2.857302e+01
  -8.311840e+00  -8.246130e+00
   2.899857e+01  -3.154446e+00
   5.350690e+01   1.382636e+01
   1.115045e+01   4.952238e+01
  -1.755890e+01   7.650585e+01
  -6.436492e+01   3.101186e+01
  -7.712945e+01  -6.040589e+01
  -6.486079e+01  -7.993749e+01
   7.609307e+01  -3.215831e+01
   6.821817e+01   3.286219e+01
   2.076179e+01   6.211775e+01
  -4.305707e+01   7.221043e+01
  -5.572900e+01  -8.528634e+00
  -4.038960e+01  -8.508227e+01
   5.294480e+01  -8.140043e+01
   4.359905e+01  -1.773625e+01
  -1.173834e+01   6.635738e+00
  -3.117174e+01   1.056314e+01
  -1.013776e+01   1.948209e+00
   6.410979e+01  -6.504808e+01
   1.027121e+02  -5.967125e+01
   4.150969e+01   2.550585e+01
  -9.341588e+00   6.642939e+01
  -5.993354e+01   9.886901e+01
  -3.652082e+01   9.704934e-01
  -1.410985e+01  -7.123946e+01
   2.148429e+00  -4.683764e+01
   1.175566e+01   9.708924e+00
   3.396062e+01   4.233697e+01
  -4.452112e+00   4.503666e+01
  -1.345023e+01   4.324041e+00
  -3.803899e+01  -1.585863e+01
  -1.388054e+01   2.547059e+00
   2.020332e+01  -9.382169e+00
   3.462862e+01  -1.537436e+01
  -1.984910e+01  -2.688605e+01
  -1.066576e+01  -3.425387e+01
   6.354124e+01  -2.253991e+01
   5.322548e+01   2.520359e+01
   2.765239e+01   3.067869e+01
  -5.363934e+00   3.247934e+01
  -2.958844e+01   3.239969e+00
  -6.464578e+00  -3.765127e+01
   4.550046e+01  -4.034195e+01
   7.124994e+01   1.577300e+01
   4.546864e+01   2.940292e+01
  -2.756408e+01   2.042721e+01
  -4.119965e+01  -2.130653e+01
  -3.211652e+01   2.812454e+01
   3.531836e+01   4.156768e+00
   2.686270e+01  -1.292631e+01
  -1.923437e+01   1.563948e+01
  -4.235963e+01   2.779618e+01
