
 $NMID
 id='ANONYMOUS ', fmtdat='(2E16.6)'
 volume=1.0
 tramp=1.0
 $END
  -3.177018e+03  -2.782265e+02
  -1.684198e+03  -2.073134e+03
   8.046995e+02  -2.062274e+03
   1.723492e+03  -5.349433e+02
   7.492344e+02   5.980533e+02
  -3.713236e+02   3.940272e+02
  -5.983324e+02  -3.259415e+02
   3.794290e+01  -7.614664e+02
   6.027155e+02  -5.219607e+02
   7.422695e+02   5.665750e+01
   3.292961e+02   6.923655e+02
  -2.422293e+02   7.386168e+02
  -5.186476e+02   1.340936e+02
  -2.796935e+02  -5.368346e+02
   1.984957e+02  -5.912384e+02
   5.093383e+02  -1.150640e+01
   2.273610e+02   4.885277e+02
  -2.547113e+02   5.095797e+02
  -4.644549e+02   9.942055e+01
  -3.665226e+02  -2.685710e+02
   5.881520e+00  -4.040565e+02
   2.253927e+02  -1.921760e+02
   2.267694e+02   5.832034e+01
  -7.320657e+01   1.042558e+02
  -3.089900e+02  -1.220009e+02
  -1.122979e+02  -3.236186e+02
   3.380268e+02  -2.866934e+02
   6.403255e+02   1.152284e+02
   2.400113e+02   4.281698e+02
  -2.643057e+02   3.464169e+02
  -5.179733e+02  -4.457939e+01
  -2.168181e+02  -4.072825e+02
   2.059719e+02  -4.256439e+02
   4.967794e+02  -1.173529e+02
   3.632245e+02   2.444927e+02
   4.143304e+01   3.645436e+02
  -1.684413e+02   2.142334e+02
  -1.004697e+02  -1.554363e+02
   1.507358e+02  -3.029360e+02
   3.441538e+02   8.681666e+01
   1.050944e+02   5.094779e+02
  -2.257986e+02   4.521289e+02
  -4.229628e+02  -2.125785e+01
  -1.433961e+02  -4.420411e+02
   2.065976e+02  -1.843987e+02
   2.501310e+02   2.108539e+02
  -1.090198e+02   3.978066e+02
  -3.774977e+02   4.842365e+01
  -3.690586e+02  -3.306535e+02
  -4.575268e+01  -4.339867e+02
   2.849358e+02  -2.737358e+02
   4.222981e+02   8.345622e+01
   2.438593e+02   3.213313e+02
  -1.567416e+02   2.835304e+02
  -3.300525e+02   4.148446e+01
  -1.657026e+02  -1.784254e+02
   4.608450e+01  -9.582644e+01
   8.959553e+01   1.126948e+02
  -9.190439e+01   1.282111e+02
  -2.599794e+02  -1.985349e+01
  -1.149525e+02  -2.254709e+02
   1.533698e+02  -2.411337e+02
   2.738833e+02  -6.204875e+01
   2.074813e+02   8.472186e+01
   5.527416e+00   2.306695e+02
  -2.305001e+02   2.945017e+02
  -2.897749e+02   1.645598e+02
  -2.280424e+02  -1.525113e+02
   9.943487e+00  -3.305237e+02
   1.251762e+02  -2.435766e+02
   8.811967e+01  -6.530416e+01
  -1.569816e+01   9.190773e-01
   3.084286e+01  -2.694391e+01
   1.449595e+02  -9.418030e+01
   2.109777e+02   3.516065e+01
   8.967950e+01   1.930755e+02
  -2.928499e+01   2.172936e+02
  -1.448355e+02   2.446459e+01
  -1.619943e+02  -1.798315e+02
   5.820801e+01  -2.146030e+02
   1.898340e+02  -5.699744e+01
   2.428038e+02   1.580559e+02
   1.557297e+02   2.855624e+02
  -8.868026e+01   2.553472e+02
  -2.033676e+02   8.616728e+01
  -1.292619e+02  -2.001391e+01
  -8.896538e+01   7.452988e+00
  -1.358179e+02   3.180007e+01
  -2.704831e+02  -4.180531e+01
  -2.239390e+02  -2.376377e+02
  -1.383184e+01  -3.747603e+02
   3.097928e+02  -2.807317e+02
   4.031948e+02  -1.069691e+02
   2.652216e+02   9.235284e+01
   4.457138e+01   1.977134e+02
  -1.177866e+02   1.862689e+02
  -7.497361e+01   4.240781e+01
   5.258700e+01  -8.905922e+01
   1.575879e+02   1.614347e+01
   6.301771e+01   1.379159e+02
  -1.055735e+02   1.224315e+02
  -1.349061e+02  -4.177032e+01
   1.301351e+01  -1.270326e+02
   1.464519e+02  -3.800931e+01
   1.388709e+02   1.847580e+02
  -5.705679e+01   2.781583e+02
  -1.855156e+02   1.572426e+02
  -2.418232e+02  -1.990293e+01
  -2.026025e+02  -2.477556e+02
  -4.019980e+01  -2.335408e+02
   1.020388e+02  -1.125057e+02
   1.468906e+02   1.353704e+01
   3.429878e+01   5.185597e+01
  -6.678606e+01  -2.740249e+01
  -4.210468e+01  -9.687908e+01
   1.141663e+02  -7.604635e+01
   1.420216e+02   2.527288e+01
   4.928589e+01   5.690651e+01
  -4.784230e+01   2.117195e+01
  -5.785161e+01  -4.322474e+01
   9.429454e+01  -6.504108e+01
   2.246417e+02   1.700869e+01
   1.941814e+02   1.079546e+02
   2.516584e+01   1.988453e+02
  -1.622182e+02   2.020889e+02
  -2.507822e+02   1.110204e+02
  -1.858034e+02  -5.215301e+01
   3.110738e+01  -1.122813e+02
   7.005973e+01   1.813847e+01
  -3.802869e+01   7.242266e+01
  -1.422960e+02   4.973536e+01
  -1.527841e+02  -7.333772e+01
  -7.213636e+01  -1.581889e+02
   6.929074e+01  -1.238162e+02
   1.448790e+02  -1.584854e+01
   6.872323e+01   4.476390e+01
  -4.086896e+01   3.504107e+01
  -6.607488e+01  -5.328553e+01
   4.426976e+01  -8.973971e+01
   1.338526e+02  -3.439369e+01
   1.524371e+02   9.120664e+01
   1.382654e+01   2.182319e+02
  -1.555349e+02   1.243406e+02
  -1.369544e+02   8.138414e+00
  -6.278160e+01  -8.739430e+01
   5.652038e+01  -6.401274e+01
   7.093322e+01  -2.210642e+01
   3.117198e+01   1.504437e+00
  -1.730948e+01   3.669531e+01
   1.150221e+01   1.614212e+01
   2.116633e+01   9.770014e+00
   5.501371e+01   5.352726e+01
   3.445345e+01   1.204301e+02
  -1.049148e+02   1.274841e+02
  -1.572129e+02   1.544456e+01
  -1.454026e+02  -1.044450e+02
  -2.080149e+01  -1.720573e+02
   1.014517e+02  -1.497069e+02
   1.348135e+02  -2.391353e+01
   7.882554e+01   6.614810e+01
  -6.507320e+00   3.978836e+01
   4.557435e+01   1.475455e+01
   1.009273e+02  -2.128759e+01
   2.376416e+01   2.786347e+01
   8.945288e+00   4.989052e+01
  -8.183735e+01   4.890823e+01
  -7.599299e+01  -4.451329e+01
  -8.244799e+00  -8.533156e+01
   1.381612e+02  -7.856433e+01
   1.644118e+02   3.092739e+01
   7.851207e+01   2.088567e+02
  -9.757119e+01   2.033288e+02
  -1.759820e+02   9.238365e+01
  -1.971065e+02  -6.712482e+01
  -9.018342e+01  -1.246742e+02
   4.523060e+01  -1.401560e+02
   7.775953e+01  -7.750071e+01
   7.269623e+01  -7.506634e+01
   3.625737e+01  -3.847204e+01
   7.390387e+01  -3.905910e+01
   9.448201e+01   2.129914e+01
   5.888605e+01   1.270855e+02
   3.449264e+01   1.516962e+02
  -9.465574e+01   1.314851e+02
  -1.632112e+02   1.823324e+01
  -1.079620e+02  -1.074912e+02
   3.806368e+01  -1.314216e+02
   5.755819e+01  -6.588172e+01
   7.328713e+01  -1.303461e+01
   5.872913e+00   3.415788e+01
   7.793925e-01   5.337446e+01
   2.350958e+01   1.306589e+01
   7.553803e+01   1.497724e+01
   6.515007e+01   4.821246e+01
  -2.719289e+01   1.503143e+01
  -1.283961e+02   8.761739e+00
  -1.346971e+02  -1.857357e+01
  -2.783276e+01  -6.266019e+01
   7.549409e+01  -4.149187e+01
   1.119660e+02  -2.526180e+00
   2.447383e+01   4.564366e+01
  -4.326236e+01   2.351004e+01
  -8.595684e+01  -4.930383e+00
  -4.622222e+00  -5.829758e+01
   3.084781e+01  -4.666090e+01
   7.062698e+01   1.257799e+00
   2.352410e+01   4.674498e+01
  -3.774643e+00   7.203365e+01
   4.192501e+01  -9.404305e+00
   2.846187e+01   1.889316e+00
   4.683660e+01   6.777733e+01
  -2.775042e+01   1.289381e+02
  -8.734839e+01   9.500438e+01
  -1.388048e+02   9.589044e+00
  -7.567723e+01  -8.130086e+01
   4.843793e+00  -1.085671e+02
   7.302956e+01  -4.241171e+01
   3.543050e+01   2.673476e+01
  -5.789691e+01   7.669092e+00
  -6.281123e+01  -4.393857e+01
  -4.638114e+01  -5.852310e+01
   6.761252e+01  -6.397614e+01
   1.572810e+02  -3.667901e+01
   1.441068e+02   2.570601e+01
   2.472808e+01   3.249982e+01
  -5.892719e+01   4.818873e+01
  -2.369815e+01  -1.717403e+01
   3.483559e+01  -4.601102e+01
   5.233219e+01   1.518754e+01
   2.071036e+01   1.097438e+02
  -8.755657e+01   1.092035e+02
  -1.604414e+02   3.531312e+01
  -8.652563e+01  -8.547785e+01
  -5.815092e+00  -1.504851e+02
   7.161270e+01  -9.387327e+01
   6.440335e+01   3.216178e+01
   5.270599e+01   1.032454e+02
  -7.934651e+00   8.713272e+01
  -2.642656e+01  -1.682746e+01
  -2.666716e+01  -2.824573e+01
  -2.117165e+01   8.994778e-01
  -1.714246e+01   3.355531e+01
  -3.950923e+01   2.127010e+01
  -3.060680e+01  -6.586041e+01
  -2.168470e+01  -1.051228e+02
   1.589939e+01  -4.441528e+01
   1.204745e+02   4.383453e+01
   1.193140e+02   8.510569e+01
   5.124784e+01   5.935835e+01
  -4.957513e+01   1.317284e+01
  -6.791387e+01   9.292489e+00
   1.353721e+00  -1.531984e+01
  -3.381382e+00   3.035897e-01
   1.595216e+01  -3.620453e+00
  -1.711982e+01   3.854584e+01
   1.285724e+01   1.218810e+01
   4.805188e+01   2.098780e+01
   7.936566e+01   4.297446e+01
   1.591648e+01   7.265337e+01
  -9.572860e+01   5.816478e+01
  -1.083060e+02   5.668987e+01
  -1.143526e+02  -7.203350e+01
  -2.049702e+01  -1.418755e+02
   6.226470e+01  -9.551000e+01
   8.094560e+01  -2.757644e+01
   5.787296e+01   1.726737e+01
   3.186651e+01   6.968184e+01
   2.888478e+00   1.281269e+01
   3.690407e+00   1.987404e+01
  -1.668588e+01   6.027414e+01
  -8.414607e+00   8.249719e+01
  -3.145207e+01   8.243329e+01
  -7.567524e+01  -2.265918e+01
  -5.168204e+01  -1.135799e+02
   5.539695e+00  -9.848148e+01
   8.433070e+01  -5.624916e+01
   1.011419e+02   6.234071e+01
   1.953005e+01   8.517412e+01
  -4.404841e+01   4.565522e+01
  -7.894949e+01  -7.309707e+00
  -2.889895e+01  -3.092060e+01
   6.669077e+01  -4.065382e+01
   2.450173e+00  -4.868209e+00
  -2.944136e+01   7.450564e+00
  -6.986557e+01  -2.982386e+00
  -3.647447e+01  -5.756130e+01
   8.094463e+01  -4.569874e+01
   1.101057e+02  -5.036859e+01
   5.746185e+01   1.547838e+00
  -2.929924e+01   7.466639e+01
  -3.314039e+01   8.056030e+01
  -9.197170e+00   2.649035e+00
   1.393177e+01  -3.379010e+01
   2.103381e+01  -2.675066e+01
   3.753370e+01   1.038610e+01
   4.630795e+01   2.303626e+01
  -1.591912e+01   2.112136e+01
  -1.775633e+01  -1.715684e+01
  -1.041521e+01  -1.275596e+01
  -3.838516e+00  -9.337310e-02
   2.638069e+01   2.168770e+01
  -6.055246e+00   2.124401e+01
   1.437099e+01  -2.998017e+00
  -1.891427e+00  -2.406703e+01
   2.219526e+01  -1.015255e+01
   3.143082e+01   5.702082e+01
  -5.155090e+01   2.599120e+01
  -2.285980e+01  -1.082706e+01
  -4.747726e+01  -3.931794e+01
  -1.867811e+01  -6.660049e+01
   3.542453e+01  -4.156569e+01
   9.461836e+01   3.165869e+01
   2.580222e+01   2.379561e+01
  -1.238226e+01   8.146555e+00
  -5.024432e+01  -1.983708e+01
  -4.600908e+01  -1.185975e+01
   2.219829e+01   6.708996e+00
   3.098773e+01   3.686597e+01
  -1.377104e+01   2.784939e+01
  -6.668086e+01   1.665349e+01
