
 $NMID
 id='ANONYMOUS ', fmtdat='(2E16.6)'
 volume=1.0
 tramp=1.0
 $END
  -1.030897e+03   4.351101e+02
  -1.095251e+03  -6.492300e+01
  -1.178953e+02  -8.571784e+02
   4.877807e+02  -5.571483e+02
   3.172315e+02  -2.256369e+02
  -3.831545e+01  -6.167099e+01
  -1.095993e+02  -3.012983e+01
  -8.396680e+01  -1.797344e+02
   1.534586e+02  -3.031914e+02
   2.415722e+02  -1.207023e+02
   2.595359e+02   1.579564e+02
   1.417894e+02   1.929325e+02
  -9.005567e+01   1.025105e+02
  -1.315113e+02  -1.228467e+02
  -2.598019e+01  -2.135902e+02
   6.188467e+01  -6.461364e+01
   7.657367e+01   1.089439e+02
   3.355958e+01   1.871369e+02
  -1.065293e+02   1.647798e+02
  -1.072738e+02   1.969046e+01
  -8.894997e+01  -8.255573e+01
   1.824363e+01  -1.411836e+02
   2.657791e+01  -5.069835e+01
  -9.435945e+01  -1.178932e+01
  -1.781173e+02  -7.348477e+01
  -1.972679e+01  -9.763086e+01
   2.059818e+02  -8.404654e+01
   2.987574e+02   3.777374e+01
   1.373524e+02   1.219131e+02
  -1.080206e+02   1.019180e+02
  -1.568412e+02   7.376890e+01
  -1.145385e+02  -1.129081e+02
   8.308611e+01  -1.159036e+02
   1.557414e+02  -6.865891e+01
   1.019519e+02   4.018384e+01
   6.786098e+01   9.566356e+01
   1.574351e+01   2.283194e+01
   7.541338e+01  -3.930222e+01
   9.983441e+01  -6.260554e+01
   7.914653e+01   9.874366e+01
   2.476246e+01   1.586571e+02
  -9.369655e+01   1.655065e+02
  -1.212845e+02  -2.125139e+01
  -5.214390e+01  -1.178634e+02
   6.659041e+01  -2.323573e+01
   6.664414e+01   1.046747e+02
  -3.411805e+01   1.596560e+02
  -1.752288e+02   3.435470e+01
  -2.283061e+02  -5.592758e+01
  -1.334160e+02  -1.511755e+02
   8.066920e+01  -1.222833e+02
   1.618997e+02  -4.329834e+01
   2.095474e+02   2.412531e+01
  -8.630473e-01   5.033795e+01
  -1.268011e+02   2.476202e+01
  -6.974466e+01   1.731733e+01
  -2.314591e+01  -4.190762e+00
   2.640452e+01  -1.506303e+01
  -4.264731e+01  -1.818562e+01
  -6.145936e+01   3.583217e+01
  -1.195898e+02   9.506638e+00
   6.182041e+00  -9.315997e+01
   6.215237e+01  -1.210402e+02
   1.138713e+02  -1.358026e+00
   5.878756e+01   9.628384e+01
  -6.110865e+01   2.050329e+02
  -1.245334e+02   1.016653e+02
  -9.583670e+01  -4.547375e+01
  -5.711637e+01  -1.169832e+02
   2.108123e+01  -1.213263e+02
   8.069215e-01  -1.637780e+01
   2.876718e+00  -3.179816e+00
  -6.876113e+00  -5.154916e+01
   3.101874e+01  -5.088454e+01
   9.932768e+01  -9.766721e+00
   7.194757e+01   6.156721e+01
   1.161077e+01   6.899253e+01
  -4.159470e+01  -6.698912e+00
  -6.362504e+01  -7.574568e+01
   1.073703e+01  -7.431936e+01
   4.285391e+01  -8.694891e+00
   1.345381e+02   6.469819e+01
   5.154634e+01   6.681056e+01
  -1.571009e+01   9.215299e+01
  -2.344439e+01   6.785993e+01
  -2.980955e+01   6.115325e+01
  -5.442114e+01   6.219357e+01
  -1.141924e+02   2.462746e+01
  -1.539194e+02  -5.838658e+01
  -1.724931e+02  -9.843659e+01
   2.948387e+01  -1.219944e+02
   7.284235e+01  -1.377322e+02
   1.473973e+02  -1.014644e+02
   1.219649e+02  -7.422443e+00
   2.870776e+01   7.899455e+01
   2.994070e+01   9.645105e+01
   2.636143e+01  -1.449821e+00
   7.313760e+01  -2.609517e+01
   7.376889e+01   2.828715e+01
  -1.378987e+01   6.470965e+01
  -3.094268e+01   5.503241e+01
  -5.987328e+01   1.832614e+01
   6.923148e+00  -1.155973e+01
   3.261846e+01  -3.583542e+01
   3.749202e+01   8.339832e+01
  -2.151621e+01   7.002808e+01
  -5.567498e+01   8.400429e+01
  -9.076219e+01  -1.303271e+01
  -1.180459e+02  -6.584706e+01
  -7.816906e+01  -1.003935e+02
   2.824879e+01  -6.633389e+01
   6.894183e+01  -5.701654e+01
   2.364032e+01   2.450600e+00
  -5.405620e+00  -1.650247e+01
  -2.833922e+01  -4.752606e+01
   2.030547e+01  -4.212277e+01
   4.396802e+01   2.982442e+01
   3.302977e+01   2.301492e+00
  -1.857187e+01  -2.743185e+01
  -4.201202e+01  -2.829383e+01
   7.114202e+01  -3.646552e+01
   1.305679e+02  -2.071859e+01
   1.296310e+02   5.433666e+01
   6.052279e+01   8.436481e+01
  -7.725377e+01   1.089896e+02
  -1.291681e+02   5.211438e+00
  -5.338555e+01  -1.233475e+01
  -9.268479e+00  -2.548148e+01
   3.363703e+01   1.597339e+01
  -3.629940e+01   2.636951e+01
  -8.422519e+01   2.003204e+01
  -4.555988e+01  -3.849532e+00
  -2.788245e+01  -6.734830e+01
   3.590849e+01  -4.055819e+01
   4.033770e+01  -2.954116e+01
   4.863412e+01   1.147227e+01
  -1.069933e+01  -6.615629e+00
  -3.293061e+01  -5.972063e+00
   7.803167e+00  -5.211751e+01
   7.945697e+01  -1.431464e+01
   7.629454e+01   5.860584e+01
   5.326872e+01   7.376374e+01
  -5.074317e+01   5.052780e+01
  -5.722324e+01   5.872031e+01
   9.950850e+00   4.830540e+00
   8.761092e-01  -2.931823e+01
   2.607596e+01  -3.069329e+01
  -7.872612e+00   8.628557e+00
  -2.102415e+01   6.633744e-01
   2.788908e+01   1.657118e+01
   2.203841e+01  -1.113302e+01
   5.667622e+01   2.056267e+01
   4.446687e+01   6.209056e+01
  -2.439167e+01   5.590869e+01
  -9.198887e+01   3.307044e+01
  -6.307965e+01  -3.501624e+01
  -2.382043e+00  -6.131149e+01
   2.795894e+01  -6.251483e+01
   1.860767e+01  -1.168584e+00
   1.902812e+00  -1.665832e+01
  -1.095826e+01  -3.120976e+00
   2.107384e+01  -1.650229e+01
   4.323231e+01  -1.342673e+01
   1.213704e+01   1.803774e+01
  -1.475028e+01   4.521922e+01
  -2.905623e+01   6.419364e+01
  -3.810352e+01   1.111617e+01
   9.697767e+00  -2.371343e+01
   3.752179e+01  -2.849629e+01
   7.420398e+01   5.205555e+00
   3.383602e+01   7.715996e+01
  -2.731639e+01   7.080508e+01
  -7.129023e+01   2.412901e+01
  -9.069532e+01  -3.307939e+01
  -2.398736e+01  -4.461715e+01
   9.056631e+00  -2.261428e+01
   6.482907e+00  -4.891673e+01
   2.387772e+01  -4.037087e+01
   4.061709e+01  -2.322523e+01
   7.794331e+01  -4.548450e+01
   5.160104e+01   7.587199e+00
   6.634206e+01   3.499835e+01
   2.000220e+01   1.069462e+02
  -3.597678e+00   5.647158e+01
  -3.836677e+01   3.599789e+01
  -3.633495e+01  -3.037211e+01
  -2.032497e+01  -5.830293e+01
  -3.419634e+01  -5.059059e+01
   5.392565e+00   1.004812e+01
  -2.562654e+00  -9.851783e+00
   6.583661e+00  -1.968345e+01
   3.512739e+01   1.931908e+01
   3.212248e+01   3.069737e+01
   2.028997e+01   4.137482e+01
  -2.836420e+01   1.304884e+01
  -7.265221e+01  -1.413478e+01
  -7.883847e+01  -5.268754e+01
  -4.297000e+00  -3.191758e+01
   4.609128e+01  -3.740065e+01
   4.635634e+01  -4.980823e+01
   3.047484e+01  -2.205328e+00
  -2.412073e+01   2.762824e+00
  -1.946872e+01  -6.191528e+00
  -9.218726e-01  -3.982929e+01
   1.249454e+01  -1.885215e+01
   4.536986e+01  -1.019384e+00
   3.989889e+01   2.988050e+01
   3.006633e+01  -7.175077e+00
   2.079528e+01  -2.526573e+01
   4.344036e+01  -1.681683e+01
   3.444388e+00   5.295093e+01
  -3.258409e+00   7.930659e+01
  -4.016709e+01   3.661372e+01
  -5.937041e+01   2.887217e+01
  -5.803838e+01  -2.204144e+01
  -2.556450e+01  -3.302033e+01
   4.013040e+00  -5.637446e+01
   3.435245e+01  -3.466926e+01
  -9.155337e+00   7.124679e+00
  -5.362232e+01  -2.064467e+00
  -2.537816e+01  -3.709053e+01
   9.911308e+00  -4.773286e+01
   1.015903e+02  -5.378340e+01
   6.795393e+01  -1.848705e+01
   3.388373e+01   1.535645e+01
  -1.785965e+01   2.707734e+01
  -2.252024e+01  -7.057523e+00
  -6.144027e+00  -3.309258e+01
   3.878139e+01   5.075890e+00
   4.156307e+01   3.643657e+01
  -3.038279e+01   5.119833e+01
  -1.428293e+01   7.286121e+01
  -2.606177e+01   1.141021e+01
  -2.318057e+01  -6.985530e+01
   1.795941e+01  -4.781316e+01
   3.780395e+01  -2.005595e+01
   6.880715e+00   3.370036e+00
  -4.354728e+00   7.294490e+01
  -2.400071e+01   4.253725e+01
  -3.995583e+01  -2.556059e+01
  -5.296189e+00  -1.829154e+01
  -9.762042e+00   2.386463e+00
  -2.492550e+01   9.811414e-01
  -4.288352e+01  -2.378410e+01
  -9.549745e+00  -1.774853e+01
   1.003540e+01  -2.191998e+01
   3.449397e+00  -2.972107e+01
   4.314024e+01   1.689227e+01
   2.712485e+01   9.456530e+00
  -1.776074e+00   2.945554e+01
  -6.162746e+01   9.383754e+00
  -2.105590e+01  -7.315733e+00
   1.315205e+01   5.259446e+00
   2.662631e+01  -1.361018e+01
  -1.351937e+01  -1.821014e+00
   2.962208e+00   1.682252e+01
   2.375931e+01   4.050290e+00
   3.126652e+01   1.462613e+01
   1.213266e+01   4.140678e+01
  -3.591785e+01   3.873491e+01
  -8.072545e+01   1.885983e+01
  -5.041159e+01   1.398754e+01
  -1.602402e-01  -3.420910e+01
   1.666867e+01  -7.611950e+01
   5.172920e+01  -1.494645e+01
   4.059277e+01   3.073615e+01
  -1.324809e+01   1.617632e+01
   9.271036e+00  -1.187648e+01
   1.528437e+01   7.717807e-01
   1.422200e+01   2.147060e+01
   1.469867e+01   6.298205e+01
  -1.192523e+01   3.446218e+01
  -3.541626e+01   3.415290e+01
  -5.980351e+01  -2.006739e+01
  -2.610611e+01  -4.175815e+01
   1.316331e+00   1.066125e+01
   1.412441e+01   1.946082e+01
   1.587569e+01   3.215031e+01
  -1.511853e+01   1.191156e+01
  -2.066349e+01   2.379775e+01
  -1.664199e+01  -5.379732e+01
   6.500415e+00  -2.793620e+01
   2.494854e+01  -4.329618e+01
  -1.090237e+01   8.737420e+00
  -2.378523e+01   5.426758e+00
  -2.926643e+01  -9.957040e+00
   2.153757e+01  -3.684087e+01
   4.323779e+01  -3.338296e+01
   1.635704e+01  -2.952887e+00
  -1.726630e+01   1.374315e+01
  -2.503274e+01   1.496516e+01
  -1.425792e+01  -2.126908e+00
  -5.173507e+00  -7.956093e+00
  -1.334222e+01  -1.639765e+01
  -1.329157e+01  -3.040206e+00
   1.148076e+01   3.425571e+01
   2.808771e+00   2.394259e+01
   1.852170e+01   3.152410e+01
  -2.380757e+01  -1.633949e+01
  -1.395115e+01  -1.098302e+00
   2.103486e+01   1.307788e+01
   2.828803e+01  -2.212042e+01
  -2.359785e+01  -5.050329e+00
  -6.335432e-01  -3.296648e+01
   2.122551e+01   6.176474e+00
   5.276522e+00  -5.509200e+00
   1.922733e+01   1.168065e+01
  -3.561909e+01   6.311316e+01
  -1.682213e+01  -7.449883e+00
  -2.611135e+01  -4.213413e+01
   3.717620e+01  -2.746797e+01
   4.182542e+01  -4.767772e+00
   3.744125e+01   4.098507e+00
  -1.150316e+01   2.160783e+01
  -3.189686e+01  -1.428297e+01
  -2.382145e+00   2.903525e+01
   3.651049e+01  -2.600142e+01
   2.785450e+00  -6.010093e+00
  -1.226382e+01  -1.308613e+01
  -3.153265e+01  -8.595887e+00
