
 $NMID
 id='ANONYMOUS ', fmtdat='(2E16.6)'
 volume=1.0
 tramp=1.0
 $END
  -3.156559e+03  -1.032143e+02
  -1.757679e+03  -1.949651e+03
   2.302379e+02  -1.889847e+03
   1.392163e+03  -7.333993e+02
   8.222019e+02   5.780152e+01
  -1.275899e+02   3.056865e+02
  -5.017805e+02  -1.396992e+02
  -8.978880e+01  -5.423591e+02
   4.467458e+02  -5.735478e+02
   6.937557e+02  -7.659802e+01
   3.965476e+02   6.061652e+02
  -1.274238e+02   7.072651e+02
  -4.272067e+02   1.056089e+02
  -2.715136e+02  -4.328027e+02
   1.869206e+02  -5.690663e+02
   4.275089e+02  -4.949532e+01
   2.723394e+02   4.873722e+02
  -1.505880e+02   6.037265e+02
  -4.397966e+02   2.668345e+02
  -4.299031e+02  -1.804514e+02
  -1.016891e+02  -3.589124e+02
   1.824523e+02  -1.807010e+02
   1.243686e+02  -3.410554e+01
  -1.412456e+02  -7.450590e+00
  -3.063403e+02  -2.243348e+02
  -1.478917e+01  -3.952629e+02
   4.007252e+02  -1.733077e+02
   5.977456e+02   2.312742e+02
   2.325899e+02   3.917073e+02
  -3.173178e+02   2.412604e+02
  -5.386612e+02  -5.223595e+01
  -1.925970e+02  -3.814865e+02
   2.797634e+02  -3.941715e+02
   4.571869e+02  -1.577088e+02
   3.404028e+02   1.986808e+02
   1.124442e+01   3.361105e+02
  -1.448658e+02   2.108259e+02
  -4.510591e+01  -1.288007e+02
   1.552566e+02  -2.259454e+02
   2.938970e+02   8.302114e+01
   4.844907e+01   4.838101e+02
  -2.697713e+02   4.376205e+02
  -3.419173e+02  -3.107462e+01
  -1.492164e+02  -3.559667e+02
   1.866730e+02  -1.822839e+02
   2.267551e+02   2.603387e+02
  -6.454643e+01   3.821872e+02
  -4.042651e+02   7.687388e+01
  -3.968210e+02  -3.821153e+02
  -1.209349e+02  -4.719358e+02
   3.001103e+02  -2.432542e+02
   5.144509e+02   5.925692e+01
   2.906874e+02   2.916509e+02
  -7.201711e+01   2.886595e+02
  -3.111830e+02   5.963665e+01
  -1.987888e+02  -1.264767e+02
   1.055917e+01  -6.429732e+01
   1.114814e+02   8.218427e+01
  -9.288810e+01   1.139970e+02
  -2.322275e+02  -2.630460e+01
  -1.458913e+02  -1.766672e+02
   1.144513e+02  -2.501041e+02
   3.719110e+02  -1.035513e+02
   2.329355e+02   8.944569e+01
  -4.832535e+01   3.000797e+02
  -2.649495e+02   2.848782e+02
  -3.545448e+02   1.438638e+02
  -2.054145e+02  -1.767290e+02
  -2.758557e+01  -3.472073e+02
   4.877122e+01  -2.730345e+02
   3.180711e+01  -1.421147e+02
   2.811991e+01  -5.809492e+01
   1.005969e+02  -7.567223e+01
   2.081434e+02  -9.615652e+01
   2.165710e+02   1.076600e+02
   9.915832e+01   2.636456e+02
  -1.011475e+02   1.674016e+02
  -1.822337e+02  -1.419955e+01
  -1.373973e+02  -2.349011e+02
   3.824964e+01  -2.367898e+02
   2.056709e+02  -5.688518e+01
   2.812502e+02   1.766343e+02
   1.661426e+02   3.073127e+02
  -9.108293e+01   2.610914e+02
  -1.687527e+02   1.422683e+02
  -1.356982e+02   5.343445e+01
  -1.212772e+02   1.351152e+00
  -2.081537e+02   2.633203e+01
  -3.542646e+02  -8.849992e+01
  -3.285771e+02  -2.750850e+02
   5.108836e+01  -4.441685e+02
   3.589343e+02  -4.005879e+02
   4.965138e+02  -1.625223e+02
   2.745379e+02   1.132573e+02
   2.264634e+01   2.605917e+02
  -1.060823e+02   1.739249e+02
  -6.002823e+01   2.076213e+01
   8.768400e+01  -6.010838e+01
   1.253511e+02  -3.261031e+01
   8.996068e+00   1.332099e+02
  -1.384580e+02   1.145944e+02
  -1.074147e+02  -3.480952e+01
   5.050360e+01  -1.468306e+02
   2.040867e+02  -9.874112e+00
   1.556231e+02   2.535690e+02
  -3.615049e+01   2.892009e+02
  -2.210282e+02   2.071177e+02
  -3.330298e+02  -2.726130e+01
  -2.780317e+02  -2.600866e+02
  -7.550361e+01  -2.727243e+02
   1.044415e+02  -1.059798e+02
   1.407447e+02  -7.709737e+00
   2.049260e+01   4.551041e+01
  -6.318530e+01  -7.558002e+01
   2.854138e+00  -1.251144e+02
   1.353240e+02  -8.285638e+01
   1.699912e+02   4.930965e+01
   2.592690e+01   3.568451e+01
  -9.396163e+01   5.828036e+00
  -5.533841e+01  -7.576993e+01
   1.383212e+02  -1.089103e+02
   2.981652e+02   3.298968e+00
   2.357959e+02   1.665723e+02
   4.708517e+01   2.529872e+02
  -2.031161e+02   1.931290e+02
  -2.560366e+02   9.728424e+01
  -1.310683e+02  -4.936427e+01
   3.759472e+01  -8.266381e+01
   7.473969e+01  -2.130469e+01
  -2.010718e+01   7.160138e+01
  -1.586112e+02   3.651633e+01
  -1.762358e+02  -9.138089e+01
  -6.195583e+01  -1.743401e+02
   4.554938e+01  -9.520521e+01
   1.095001e+02  -3.209937e+01
   4.387622e+01   1.027968e+01
  -6.133559e+01   1.777802e+00
  -3.231129e+01  -8.703043e+01
   5.746196e+01  -1.325659e+02
   1.767837e+02  -9.952413e+00
   1.412770e+02   1.362368e+02
   2.222292e+01   1.841988e+02
  -1.678422e+02   1.450913e+02
  -1.698645e+02  -1.709070e+01
  -2.750651e+01  -1.243725e+02
   8.357922e+01  -1.088502e+02
   1.076147e+02  -4.882427e+01
   1.641492e+01   5.005021e+01
  -3.215146e+01   1.343757e+01
  -3.624387e+00   9.345984e+00
   7.691458e+01  -1.193378e+01
   9.497364e+01   9.184924e+01
   1.555831e+01   1.542252e+02
  -1.362941e+02   1.207558e+02
  -2.469478e+02   1.837839e+01
  -1.903799e+02  -1.675860e+02
  -6.469570e+01  -1.827232e+02
   1.148001e+02  -1.621491e+02
   1.384264e+02  -1.171628e+01
   7.699808e+01   1.466498e+01
   1.413879e+01   3.600529e+01
   5.924300e+01  -1.793001e+01
   6.358277e+01  -1.719662e+01
   2.120340e+01   8.728938e+01
  -4.964938e+01   8.276546e+01
  -1.165598e+02   8.965334e+01
  -7.376756e+01  -4.201792e+01
   4.463539e+01  -8.859598e+01
   1.421495e+02  -7.185038e+01
   1.843261e+02   6.886700e+01
   5.871643e+01   1.890458e+02
  -1.119479e+02   2.117846e+02
  -1.780285e+02   6.467581e+01
  -2.142583e+02  -6.115369e+01
  -1.011794e+02  -1.624316e+02
   5.079390e+01  -1.423974e+02
   7.629321e+01  -6.707243e+01
   5.920566e+01  -6.795055e+01
   6.295594e+01  -5.911184e+01
   9.897187e+01  -6.661269e+01
   1.275562e+02   3.209454e+01
   1.295268e+02   1.457381e+02
   3.390747e+01   2.060935e+02
  -1.090445e+02   1.756981e+02
  -1.767993e+02   2.346025e+01
  -1.578656e+02  -1.253268e+02
  -3.013136e+01  -1.421794e+02
   9.273589e+01  -8.395257e+01
   8.986590e+01   6.654577e+00
   9.274649e+00   6.532551e+01
  -6.128181e+01   4.195559e+01
   7.632786e+00   3.519213e+00
   1.204109e+02   5.401831e+00
   6.111178e+01   2.867823e+01
  -6.223768e+01   3.153177e+01
  -1.420751e+02   1.927068e+01
  -1.249829e+02  -6.265533e+01
   8.875067e+00  -7.108182e+01
   1.307658e+02  -6.135090e+01
   1.286885e+02  -2.513266e+01
   3.067529e+01   5.377582e+01
  -5.113275e+01   1.382773e+01
  -9.322896e+01  -2.918430e+01
  -1.715705e+00  -8.475553e+01
   6.174503e+01  -9.662235e+01
   7.009286e+01   5.104899e+00
   4.483042e+01   3.588592e+01
   4.042313e+01   3.983661e+01
   3.568837e+01  -4.272567e+00
   5.583448e+01  -5.053571e+00
   1.598080e+01   9.861057e+01
  -4.033941e+01   1.271299e+02
  -1.107109e+02   1.292386e+02
  -1.272049e+02   3.758767e+01
  -1.143254e+02  -8.668918e+01
  -1.834810e+01  -1.071054e+02
   9.225457e+01  -4.885547e+01
   5.499727e+01   3.468836e+01
  -8.410467e+01   2.641639e+01
  -1.332247e+02  -2.061293e+01
  -6.462351e+01  -1.272376e+02
   5.535656e+01  -1.043943e+02
   1.852208e+02  -2.778388e+01
   1.249075e+02   5.645631e+01
   5.946724e+01   8.062238e+01
  -6.481730e+01   1.717970e+01
  -3.533439e+01  -2.404444e+01
   6.890254e+01  -5.479004e+01
   9.218401e+01   1.726665e+01
   4.088616e+01   1.374417e+02
  -8.806360e+01   1.312548e+02
  -1.184778e+02   5.373264e+01
  -9.928111e+01  -1.016499e+02
   3.845032e+00  -1.588186e+02
   8.166971e+01  -1.250689e+02
   1.034331e+02  -6.051665e-01
   8.728737e+01   1.077903e+02
  -2.410785e+01   1.038454e+02
  -6.933387e+01   2.337819e+01
  -1.912146e+01  -4.073131e+01
  -4.160492e+01  -1.839000e+01
  -8.365025e+00   1.513153e+01
  -3.362580e+01  -2.741899e+01
  -6.357037e+01  -9.227080e+01
  -1.809002e+01  -8.924342e+01
   5.172050e+01  -6.965890e+01
   1.335847e+02   4.709701e+01
   1.055869e+02   7.135388e+01
   1.384583e+01   4.320237e+01
  -8.493160e+01   3.276246e+01
  -8.518444e+01   1.381374e+01
  -3.091125e+01  -4.810068e+00
   2.151682e+01  -4.413496e-01
   2.319718e+01   6.076959e+00
  -3.384835e+00   7.638385e+00
  -4.220089e+00   1.869697e+01
   5.972084e+01  -1.109200e+01
   1.124696e+02   3.797044e+01
   7.856315e+00   9.860061e+01
  -1.177194e+02   1.100947e+02
  -1.400284e+02   6.121499e+01
  -1.463612e+02  -1.001823e+02
  -3.722510e+01  -1.707741e+02
   7.268022e+01  -1.497537e+02
   8.281827e+01  -7.889049e+01
   8.750817e+01   3.894841e+01
   4.599044e+01   3.936462e+01
   5.299405e-01   2.511071e+01
   8.531875e+00  -8.798528e+00
   2.446567e+01   4.507714e+01
  -3.111682e+01   1.031412e+02
  -3.811062e+01   7.627797e+01
  -6.024320e+01  -7.403792e+00
  -5.326000e+01  -1.046495e+02
   5.780606e+00  -9.900634e+01
   7.089915e+01  -3.362029e+01
   1.238161e+02   5.778085e+01
   4.366258e+01   1.155278e+02
  -8.501819e+01   8.890734e+01
  -1.009789e+02   8.559175e-01
  -3.537695e+01  -5.399017e+01
   3.552430e+01  -4.912223e+01
   1.881670e+01  -2.436315e+01
  -4.997878e+01  -1.899037e+01
  -4.871759e+01  -1.273727e+01
  -2.168392e+01  -3.165461e+01
   7.684322e+01  -6.459555e+01
   1.099295e+02  -6.442532e+01
   5.576003e+01   2.038118e+01
  -3.040666e+01   6.644870e+01
  -4.611110e+01   8.255502e+01
  -3.917701e+01  -3.727543e-01
   1.172072e+00  -4.229263e+01
   2.298050e+01  -3.044173e+01
   2.118897e+01   2.233160e+01
   2.506418e+01   4.497088e+01
  -2.974683e+01   5.419113e+01
  -3.151823e+00   1.772256e+01
  -2.031954e+01   1.353931e+01
  -1.284942e+01  -7.649055e+00
   1.034917e+01   1.268258e+01
   2.077357e+01   3.695055e+01
   2.052851e+01  -2.668024e+01
   3.023003e+01  -6.922162e+01
   4.073107e+01  -1.108123e+01
   5.198502e+01   3.420938e+01
  -3.160281e+01   8.015923e+01
  -1.721633e+01   3.031106e+01
  -5.588020e+01  -3.695646e+01
  -1.875241e+01  -7.800723e+01
   5.980012e+01  -6.041282e+01
   8.206830e+01   1.623144e+01
   1.417952e+01   5.489143e+01
  -5.151722e+01   4.490905e+01
  -3.317849e+01  -4.075354e+00
  -3.130449e+01   9.257708e+00
   6.296768e+00   2.579690e+00
   3.132319e+01   1.492203e+01
  -3.666711e+01   5.527468e+00
  -8.158908e+01   2.665397e+01
