
 $NMID
 id='ANONYMOUS ', fmtdat='(2E16.6)'
 volume=1.0
 tramp=1.0
 $END
   1.141579e+03  -8.743184e+01
   6.559910e+02   7.113540e+02
  -1.615643e+02   5.789981e+02
  -6.248359e+02   2.993466e+02
  -2.143427e+02   1.373246e+02
   3.523311e+01   5.696718e+01
   5.798456e+01   1.664103e+02
  -1.042036e+02   1.792245e+02
  -1.839596e+02   6.668495e+01
  -1.206848e+02  -5.343328e+01
  -6.917442e+00  -1.724707e+02
  -1.959058e+01  -1.805071e+02
   8.973572e+01  -6.430406e+01
   4.688954e+01   8.782296e+01
  -1.513340e+01   1.515852e+02
  -3.950808e+01   9.886195e+00
  -6.904413e+01  -1.465764e+02
   5.507143e+01  -1.322259e+02
   6.255943e+01  -5.825611e+01
   9.250832e+01   2.166500e+01
   1.759644e+01   4.069974e+01
   1.133948e+01   5.442938e+01
   2.009339e+01   5.270622e+01
   5.422194e+01   1.277289e+02
   6.364613e+01   1.292744e+02
  -5.376622e+00   8.207533e+01
  -1.541317e+02  -5.889731e+01
  -2.335161e+02  -4.873947e+01
   3.276396e+00  -9.940018e+01
   1.265824e+02   2.089091e+01
   1.420532e+02   8.226066e+01
   7.865748e+00   9.244419e+01
  -5.508676e+01   8.787992e+01
  -8.141468e+01  -2.965641e+01
  -5.814369e+01  -3.822880e+01
  -4.296881e+01  -1.301335e+02
   1.064604e+01  -8.970660e+01
  -5.092894e+01  -3.042677e+01
  -6.407571e+01  -6.534699e-01
   1.052083e+01  -8.187788e+01
   1.133430e+02  -1.194160e+02
   1.076815e+02  -8.561539e+01
   7.575824e+01   4.630922e+01
   5.688886e+00   8.389540e+01
  -3.127627e+01   3.182760e+01
  -2.502147e+01  -9.509890e+01
   1.003212e+01  -1.134977e+02
   1.501984e+02   6.473814e+01
   1.205388e+02   1.322718e+02
   3.942836e+01   1.420927e+02
  -6.184548e+01   5.876012e+01
  -1.048827e+02  -2.763280e+01
  -1.029692e+02  -4.255914e+01
  -3.006324e+00  -3.963877e+01
   4.784155e+01  -2.641574e+01
   3.389284e+01   4.339119e+00
   4.315330e+01   2.479595e+01
   1.082299e+01  -6.117704e+00
   4.750779e+00   7.659250e+00
   5.806050e+01   5.993565e+01
   8.557636e+00   3.911874e+01
  -4.381021e+01   3.233692e+01
  -9.339858e+01   1.260118e+01
  -4.663658e+01   4.089987e+01
   3.985838e+01  -6.104762e+01
   9.969806e+01  -1.145345e+02
   1.188186e+02  -9.872456e+01
   5.744224e+01   3.788085e+01
   3.979296e+01   9.229484e+01
  -5.087589e+01   1.229673e+02
  -6.183692e+01   3.669075e+01
  -4.276888e+01   2.421782e+01
  -3.067346e+01   2.729128e+01
  -4.045298e+01   2.509761e+01
  -3.733643e+01  -3.565611e+01
  -1.171541e+01  -7.611004e+01
   1.138390e+01  -4.089170e+01
   3.459216e+00   4.961904e+01
   5.709319e+00   9.764736e+01
  -1.629311e+01   5.417047e+01
  -3.298490e+01  -2.217373e+01
  -6.839633e+01  -4.770293e+01
  -1.052415e+01  -7.093618e+01
   3.355574e+01  -6.158379e+01
   4.912976e+01  -5.433591e+01
   4.612295e+01  -3.764410e+01
   6.578485e+01  -1.497580e+01
   1.168671e+02   3.174372e+01
   8.529930e+01   4.449829e+01
   3.702598e+01   8.113680e+01
  -9.469454e+00   7.116443e+01
  -1.160520e+02   6.360789e+01
  -1.075276e+02   5.360827e+01
  -6.147775e+01  -2.057624e+01
  -1.351142e+01  -2.974840e+01
   4.380642e+00  -5.960188e+01
  -5.740086e+01  -4.818433e+01
  -4.905394e+01  -2.883512e-01
  -5.526202e+01  -3.548356e+01
   4.533533e+01  -6.103989e+01
   6.258672e+01   1.352769e+01
   3.068084e+01   1.758350e+01
   7.238696e+00   2.414733e+01
  -1.348029e+01   1.140991e+00
  -1.794316e+01  -6.624938e+01
   1.773083e+01  -1.017333e+02
   1.044165e+01  -3.910457e+01
   8.003088e+01   9.552177e+00
   5.236688e+01   8.095124e+01
   2.599152e+01   1.111300e+02
  -1.389883e+01   3.057710e+01
  -2.780529e+01   2.074470e+01
  -2.673285e+01   2.595395e+01
   5.088156e+00   2.591232e+01
  -6.011960e+00   2.521385e+01
  -2.738482e+01   2.666356e+01
  -2.035062e+01   1.670385e+00
  -3.536996e+01  -3.476024e-01
   4.173635e+01   3.578116e-01
  -8.377922e+00   1.841350e+01
  -4.182440e+01  -1.401435e+01
  -9.523377e+01  -6.933953e+01
  -7.580698e+01  -6.052058e+01
   1.887783e+01  -5.131794e+01
   5.898270e+01  -2.649985e+01
   8.822934e+01  -2.290995e+01
   2.050486e+01  -1.480158e+01
  -3.464658e+01  -4.834382e+00
   1.694216e+00  -1.390924e+00
   2.759262e+01   1.690354e+01
   6.455289e+01   1.891421e+01
   3.609654e+01   5.602513e+01
   2.913169e+01   4.582222e+01
  -1.545260e+01   2.419915e+01
   7.674563e+00  -1.786801e+01
  -4.267055e+01  -1.494154e+01
  -1.938165e+01   8.464703e+00
  -2.997696e+01   3.739080e+01
  -4.336609e+01   1.291343e+01
  -8.379756e+01   4.163706e+00
  -1.567635e+01  -4.673689e+01
   2.506026e+01  -3.116867e+01
   3.400719e+01   2.183431e+01
   2.741418e+01  -7.659335e+00
   1.667278e+01  -7.094195e+00
   3.334528e+00   3.073213e+01
  -1.179261e+01   6.024525e+00
  -1.314435e+01  -1.064589e+00
  -5.464756e+00  -1.462838e+01
  -1.395123e+00  -1.220480e+00
  -1.945913e+01  -1.718026e+01
  -2.252549e+01  -2.453614e+01
  -1.199975e+01  -2.327495e+01
   4.891696e+00  -5.330766e+01
   5.979786e+01   5.228164e-01
   6.686784e+01   2.464577e+01
  -5.817441e+00   6.006836e+01
  -4.399208e+01   1.875565e+01
  -4.125203e+01   1.041922e+01
  -3.244542e+01  -3.045008e+01
  -3.678364e+01  -2.020815e+00
  -1.470430e+01  -5.992780e+00
  -1.054888e+01   2.382111e+01
   3.216691e+01  -2.004208e+01
   3.979339e+01  -1.653683e+01
  -2.051168e+00  -1.088869e+01
   5.784551e+00   1.786781e+01
  -1.491411e+01   5.168562e+01
  -4.097780e+01   1.195067e+01
  -6.215615e+01  -1.761963e+01
  -1.036924e+01  -4.216782e+01
   3.763920e+01  -5.130530e+01
   5.260929e+01  -3.656966e+01
   9.047250e+01   3.717850e+01
   2.892091e+01   2.648123e+01
  -6.109101e+00   2.984436e+01
  -4.054823e+01   2.912435e+01
  -3.609979e+01   1.425701e+01
  -1.878035e+01   2.855582e+01
  -3.490576e+01   9.660283e+00
  -2.593989e+01  -4.849510e+01
  -2.649222e+01  -3.672415e+01
   1.176815e+01  -5.692131e+01
   3.281583e+01  -2.178712e+01
   4.352574e+01  -1.393714e+00
   8.109356e+00   4.562732e+01
   8.148064e+00   3.492730e+01
   3.880527e+01  -1.016251e+00
  -1.356675e+01   5.825193e+01
  -4.221707e+01  -3.952109e+01
   1.243191e+01  -8.711184e+00
  -6.505867e+00  -1.156941e+01
  -2.582310e+01  -2.151067e+01
  -3.474995e+00  -5.981418e+01
   7.956217e+00   8.723918e+00
   3.482192e+01   2.404121e+01
   4.204656e+01   3.486726e+01
  -8.544025e+00   3.424621e+01
  -5.113655e+01   9.547886e+00
  -4.472928e+01   3.642134e-01
  -5.427510e+00   3.887035e+00
   9.599346e+00  -1.141243e+01
   1.329250e+01   1.001006e+01
  -4.517772e+00  -2.246195e+00
  -2.250078e+00  -2.123401e+01
  -5.936120e+01   1.898892e+01
  -4.529864e+01  -3.071726e+01
  -5.150092e+01  -1.010685e+01
  -3.482506e+01   2.024046e+01
  -3.385794e+01   1.954433e+01
   1.051690e+01  -1.780997e+01
   9.247110e+00  -5.673006e+01
   2.192747e+01  -5.093394e+00
   1.020415e+01   7.128992e+00
   1.963238e+00   3.336818e+01
  -1.666742e+01   3.799681e+01
   2.222970e+00   1.367757e+01
  -1.071837e-01   2.831746e+01
   5.931726e+00   2.933699e+01
   4.088848e+01   7.126564e+01
  -3.873067e+00   2.896189e+01
  -3.344277e+01   1.080822e+01
  -6.266250e+01   3.334651e+01
  -4.853647e+01  -4.725796e+00
  -4.656837e+00  -9.201584e+00
  -3.407671e+00  -3.268646e+01
   2.146939e+01   2.114464e-01
  -2.316724e+00  -8.797900e+00
  -2.595738e+01   1.787410e+01
   8.521041e+00  -2.573357e+01
   3.422968e+01  -4.796241e+01
   4.216445e+01  -8.565229e+00
   2.139553e+01   3.448581e+01
  -6.708218e+00   5.604187e+01
   3.115254e+00   6.255779e+01
  -2.446904e+00   1.230892e+00
  -4.049079e+00   7.724309e+00
  -9.268974e+00  -5.139013e+01
   2.778697e+01   1.323355e+00
   1.389998e+00  -1.006227e+01
  -4.405837e+00  -3.103698e+00
  -2.130940e+00  -1.368915e+01
   2.057037e+01  -1.543627e+01
   1.456485e+01   2.081074e+01
  -4.804979e+00   2.007215e+01
  -2.297081e+01   2.967039e+01
  -7.187354e+00  -2.285582e+01
  -3.329062e+01  -8.204431e+00
  -1.661576e+01  -2.903003e+01
   2.085562e+01  -9.412313e+00
   2.215943e+01   1.292578e+01
   1.985235e+01  -2.112336e+01
   9.315232e+00   1.506699e+01
  -2.538047e+01   1.039535e+01
   2.715527e+01   4.096657e+00
   1.503854e+01  -1.529422e+01
  -4.953432e+01  -2.657246e+00
  -4.089890e+01  -1.197066e+01
   4.636815e+01  -3.368037e+01
   4.468232e+01  -1.199698e+01
   6.187120e+01   7.375418e+00
   4.711958e+01   1.685241e+01
   1.587570e+01   4.570398e+01
  -4.307301e+01   5.046639e+01
  -4.530767e+01   1.656952e+01
  -2.130082e+01   2.216769e+00
  -3.573520e+01  -2.129423e+01
   1.203656e-01   6.740026e+00
  -2.135850e+01  -1.613637e+01
  -2.735542e+00  -5.180442e+01
   2.150018e+01  -1.444166e+01
   3.247998e+01   3.351108e+00
   1.911796e+01   2.206785e+00
   2.589091e+01   1.651539e+01
  -2.052929e+01   4.689289e+01
  -4.029657e+01  -1.790391e+01
  -3.124038e+01  -3.666216e+01
  -1.718869e+00  -3.554206e+01
   1.647253e+01   2.507371e+00
   1.840336e+01   5.856786e+00
   3.149743e+01   2.006370e+01
  -2.022136e+01   2.591878e+01
  -1.655248e+01  -6.322270e+00
   3.043860e+00  -1.434941e+00
  -1.536399e+00  -1.840302e+00
  -1.143273e+01   3.420039e+01
  -1.519674e+00   3.795745e+01
  -1.268199e+01   2.834374e+01
  -1.358922e+01  -1.576730e+01
  -3.532534e+01  -4.257304e+01
  -1.437511e+00  -2.089798e+01
   2.389917e+01  -1.656588e+01
  -1.224646e+00   1.039571e+01
   8.496547e+00   3.311878e+01
  -1.817431e+01  -1.534361e+00
  -5.687838e+00   2.288965e+01
  -3.232974e+01   1.410295e+01
  -1.544479e+01   1.780408e+01
   1.840382e+01   1.002732e+01
   5.668021e+01   1.950730e+01
   2.126980e+01  -2.058572e+01
  -3.436799e+01   8.980933e+00
   1.623916e+01   1.679234e+01
  -4.229417e+00   2.900830e+01
  -1.515552e+01   1.645395e+01
   3.046413e+00   2.244388e-01
  -4.166257e+01  -9.502500e+00
   2.378327e+01  -1.285542e+01
   2.447777e+01  -4.759934e-01
  -1.369688e+01  -9.267116e+00
  -1.004073e+01   2.246830e+01
  -1.026992e+01  -4.075583e+00
  -2.697188e+01   1.069346e+01
  -1.938933e+00   4.734683e+00
   7.313132e+00   1.026446e+01
   2.853548e+00  -4.632003e+00
  -2.602357e+01  -6.284504e-01
   7.401981e+00   1.240278e+01
   2.039890e+01   9.144790e-01
   1.988796e+01  -4.546564e+00
