
 $NMID
 id='ANONYMOUS ', fmtdat='(2E16.6)'
 volume=1.0
 tramp=1.0
 $END
   2.834958e+03   1.209212e+02
   1.924054e+03   1.574766e+03
  -1.100948e+02   2.072028e+03
  -1.418906e+03   9.432721e+02
  -8.508933e+02  -1.088828e+02
   1.041191e+02  -2.244592e+02
   4.570792e+02   1.378251e+02
  -4.230443e+01   6.867072e+02
  -5.039254e+02   4.640701e+02
  -6.395547e+02   6.575005e-01
  -3.468450e+02  -5.389430e+02
   1.469664e+02  -6.208271e+02
   4.569454e+02  -1.561977e+02
   3.068504e+02   4.575346e+02
  -1.676036e+02   4.567491e+02
  -4.257500e+02   3.029765e+01
  -2.599152e+02  -5.611224e+02
   1.840679e+02  -5.542687e+02
   4.635428e+02  -1.889166e+02
   3.359162e+02   2.349673e+02
   7.439326e+01   3.633473e+02
  -1.642279e+02   2.238917e+02
  -9.949949e+01   3.403161e+01
   1.261325e+02   4.711877e+01
   2.448371e+02   2.083002e+02
   4.080822e+01   3.472683e+02
  -3.693545e+02   2.123637e+02
  -5.127893e+02  -1.768500e+02
  -1.799680e+02  -3.213183e+02
   2.257061e+02  -2.106719e+02
   5.352228e+02   6.588327e+01
   2.085110e+02   3.417961e+02
  -2.217296e+02   3.778704e+02
  -4.500052e+02   1.564344e+02
  -3.273985e+02  -1.790772e+02
  -9.685939e+01  -3.478534e+02
   6.298548e+01  -1.714653e+02
   4.787649e+01   3.752057e+01
  -1.415269e+02   2.301812e+02
  -2.301770e+02  -9.127330e+01
  -6.104141e+01  -4.137207e+02
   2.890708e+02  -4.054402e+02
   3.382365e+02  -4.755679e+00
   1.331180e+02   3.126475e+02
  -1.871581e+02   1.804775e+02
  -2.531280e+02  -2.542007e+02
   7.252108e+01  -3.940998e+02
   4.077983e+02  -1.560350e+02
   5.035500e+02   3.529884e+02
   1.224447e+02   4.699558e+02
  -2.500305e+02   2.781490e+02
  -4.495562e+02  -3.663334e+01
  -2.917382e+02  -2.740840e+02
   6.672262e+01  -2.539948e+02
   3.142371e+02  -1.164165e+02
   2.308280e+02   5.931604e+01
   9.491989e-01   8.649556e+01
  -7.401277e+01  -6.381937e+01
   5.999308e+01  -8.964399e+01
   2.196314e+02   4.520561e+01
   1.435869e+02   1.734693e+02
  -1.717404e+02   2.002098e+02
  -3.250139e+02   1.051154e+02
  -2.305742e+02  -9.484098e+01
   4.123489e+01  -2.458562e+02
   2.576857e+02  -2.618696e+02
   3.307910e+02  -6.360506e+01
   1.776546e+02   1.440490e+02
   4.010735e+01   3.369435e+02
  -4.541317e+01   2.224889e+02
  -4.247215e+01   1.175617e+02
  -1.490495e+01   3.348668e+01
  -1.100853e+02   1.157384e+02
  -1.825389e+02   4.816535e+01
  -2.164285e+02  -8.902987e+01
  -9.487092e+01  -2.245235e+02
   7.188287e+01  -1.846180e+02
   1.471745e+02   1.367088e+01
   1.287161e+02   1.967393e+02
  -2.575077e+01   2.477436e+02
  -1.965124e+02   7.137192e+01
  -2.636461e+02  -1.804453e+02
  -1.010853e+02  -2.804996e+02
   9.008313e+01  -2.596586e+02
   1.852076e+02  -7.895359e+01
   1.477316e+02  -3.931061e+01
   9.554758e+01  -1.922845e+01
   1.833958e+02  -2.244126e+01
   3.205715e+02   8.952438e+01
   2.227320e+02   2.731942e+02
  -4.167927e+01   3.791038e+02
  -3.293830e+02   3.324121e+02
  -4.155713e+02   1.306574e+02
  -2.774069e+02  -9.932152e+01
  -4.260981e+01  -2.254188e+02
   9.430808e+01  -1.813226e+02
   1.511160e+01  -2.984617e+01
  -6.757565e+01   5.321365e+01
  -1.189576e+02  -2.547812e+01
  -2.764740e+01  -1.357027e+02
   1.267714e+02  -1.314862e+02
   1.005026e+02   3.885871e+01
  -2.772141e+01   1.120892e+02
  -1.633210e+02  -1.261669e+01
  -6.818133e+01  -1.935170e+02
   3.888488e+01  -2.941583e+02
   2.364961e+02  -1.521916e+02
   3.157007e+02   1.817040e+01
   2.065054e+02   2.813604e+02
   6.286364e+01   2.401410e+02
  -1.129226e+02   1.460247e+02
  -1.480374e+02  -1.198611e+00
  -1.430013e+01  -3.354928e+01
   4.158011e+01   4.954844e+01
  -6.191928e+00   8.321099e+01
  -6.266694e+01   4.683430e+01
  -1.076567e+02  -1.724773e+01
  -5.129047e+01  -3.693835e+01
   5.266416e+01  -1.620104e-01
   2.907063e+01   5.152001e+01
  -1.308179e+02   8.600005e+00
  -2.558273e+02  -2.483766e+01
  -2.416887e+02  -1.610620e+02
  -3.209160e+01  -2.325406e+02
   1.570502e+02  -2.191348e+02
   2.521066e+02  -9.462654e+01
   1.460260e+02   3.485090e+01
  -2.320259e+01   8.335142e+01
  -8.453462e+01   2.818636e+00
   5.849770e+01  -7.168495e+01
   1.220582e+02  -1.650672e+01
   1.571048e+02   9.981546e+01
   4.009780e+01   1.420520e+02
  -6.166577e+01   8.903155e+01
  -6.397852e+01   2.462851e+01
  -1.737965e+01  -4.165510e+01
   4.053772e+01   1.160067e+01
   5.761625e+01   1.138804e+02
  -7.129342e+01   1.153603e+02
  -1.757269e+02   2.297176e+01
  -1.765199e+02  -8.037511e+01
  -3.759504e+01  -1.538553e+02
   1.390393e+02  -1.178584e+02
   1.355404e+02  -2.866560e+01
   6.101391e+01   9.760836e+01
  -2.879891e+01   6.001732e+01
  -9.812229e+01   1.517857e+01
  -1.567883e+01  -7.444226e+00
   2.283723e+01   7.304465e+00
  -7.162196e+00   4.707801e+00
  -5.731712e+01  -1.723177e+00
  -7.560271e+01  -4.171661e+01
  -4.469828e+01  -1.421402e+02
   1.133198e+02  -1.144188e+02
   1.949988e+02   1.897324e+01
   1.595637e+02   1.243702e+02
   3.997833e+01   1.751307e+02
  -8.898541e+01   1.203457e+02
  -1.441130e+02   3.179211e+01
  -5.373543e+01  -6.877077e+01
  -3.224566e+01  -2.041943e+01
  -5.851729e+01   2.057948e+01
  -3.878744e+01   1.231349e+01
  -3.737476e+01  -3.446935e+01
   2.863628e+01  -7.645616e+01
   9.565567e+01  -7.379954e+01
   8.987975e+01   2.760198e+01
   2.714421e+00   1.468972e+02
  -1.394232e+02   5.562077e+01
  -1.815840e+02  -4.501515e+01
  -7.109283e+01  -1.726661e+02
   1.284489e+02  -1.892599e+02
   2.281498e+02  -9.349314e+01
   2.203679e+02   1.026737e+02
   5.989122e+01   1.472323e+02
  -3.505739e+01   1.448157e+02
  -9.426389e+01   6.012844e+01
  -6.681431e+01   5.442399e+01
  -2.428695e+01   6.086417e+01
  -5.134376e+01   8.014570e+01
  -1.257150e+02  -4.861010e+01
  -1.175256e+02  -1.606530e+02
  -4.755088e+01  -2.088788e+02
   9.825355e+01  -1.471099e+02
   1.499722e+02   1.083393e+01
   1.158883e+02   1.277632e+02
  -8.965646e+00   1.279824e+02
  -5.333625e+01   4.835615e+01
  -2.376942e+01  -1.185347e+01
  -1.310017e+01  -3.430166e+01
   1.040471e+00  -3.776999e+01
   2.498481e+00  -8.219703e+00
  -7.952013e+01  -1.841162e+01
  -4.082784e+01  -2.194199e+01
   6.439224e+01  -4.677813e+01
   1.122704e+02  -7.620058e+00
   1.325591e+02   7.523767e+01
   1.427880e+01   1.083971e+02
  -1.429614e+02   4.161725e+01
  -1.456876e+02  -4.771159e+00
  -2.505185e+01  -7.171482e+01
   7.241637e+01  -3.734290e+01
   2.866961e+01  -4.940833e-01
   2.393208e+01   5.798094e+01
  -2.920129e+01   4.477457e+01
  -5.129662e+01  -9.247301e+00
  -4.866636e+01  -4.174942e+01
  -4.074196e+01  -5.311241e+01
  -3.547570e+01  -4.986325e+00
  -5.806801e+01   3.813543e+00
  -5.421609e+01  -8.999230e+01
  -3.261044e+00  -1.320936e+02
   1.160054e+02  -1.179646e+02
   1.499350e+02  -1.852544e+01
   1.199218e+02   6.393582e+01
  -2.382893e+00   1.399231e+02
  -7.532214e+01   5.170518e+01
  -4.836921e+01  -1.221844e+01
   5.553971e+01  -4.458906e+00
   1.096613e+02   8.238393e+01
   2.127124e+01   1.066725e+02
  -8.994890e+01   5.993479e+01
  -1.649111e+02   1.362612e+01
  -1.016341e+02  -2.658297e+01
  -4.821081e+00  -8.264401e+01
   3.866025e+01  -2.203359e+01
   1.271830e+01   1.952176e+01
  -2.918471e+01   1.457355e+01
  -7.337039e+01  -1.759602e+01
  -2.194331e+01  -1.111217e+02
   5.892918e+01  -1.576866e+02
   1.361898e+02  -6.315724e+01
   1.058981e+02   8.147273e+01
   1.537282e+01   1.873314e+02
  -4.334309e+01   1.288353e+02
  -9.309237e+01  -2.133961e+01
  -4.375483e+01  -7.206293e+01
   1.920257e+01  -6.526501e+01
   4.289494e+01   4.507538e+00
   3.072529e+01   3.606222e+00
  -1.290122e+00  -9.000690e+00
  -2.017337e+01  -1.917749e+01
   3.835384e+00  -7.219236e-01
   4.785989e+01   4.280801e+01
   3.945575e+01   9.724209e+01
  -5.995051e+01   3.883571e+01
  -9.599904e+01  -3.737397e+01
  -1.012380e+02  -7.415612e+01
  -8.919327e+00  -3.605313e+01
   4.244194e+01  -1.890187e+01
   7.806984e+01   2.257273e+01
   1.956740e+00   3.791645e+01
  -3.706867e+01   2.221889e+01
  -2.826546e+01  -6.386158e-01
   1.817917e+01  -2.454814e+01
   1.169966e+01   2.124673e+00
  -7.456807e+01  -3.446605e+00
  -4.228724e+01  -1.359592e+01
  -2.339096e+01  -7.034406e+01
   6.695670e+01  -9.234365e+01
   1.575575e+02  -7.332414e+01
   1.173575e+02   8.156322e+01
   5.149671e+01   1.227517e+02
  -7.779669e+01   1.398483e+02
  -1.137416e+02   5.515185e+01
  -7.877761e+01  -2.525507e+00
   2.928936e+01  -4.672137e+01
  -2.511592e+01  -2.250247e+00
  -1.152826e+01  -3.111067e+01
  -4.109411e+01  -1.875826e+01
  -2.053501e+01  -6.179248e+01
   5.023658e+01  -4.707975e+01
   7.431978e+01   2.533368e+01
   5.574147e+01   9.708638e+01
  -2.357315e+01   9.109392e+01
  -5.441088e+01   3.053124e+01
  -7.557644e+01  -7.671392e+01
  -3.277166e+01  -8.594875e+01
   8.000897e+01  -3.995270e+01
   8.677519e+01   2.382380e+01
   3.515800e+01   3.763645e+01
  -3.398943e+01   3.675079e+01
  -1.201889e+01   4.382033e+01
   3.861593e+01  -1.929083e+01
   3.983475e+01   1.017077e+01
   9.895101e+00   2.729287e+01
  -8.885648e+01   5.309683e+01
  -7.610308e+01   4.445311e+01
  -5.017970e+01  -1.387694e+01
  -1.257751e+01  -8.338176e+01
   5.689433e+01  -5.403107e+01
   1.877767e+01  -1.026570e+00
   1.208350e+01   7.795960e+01
  -3.969666e+01   5.241268e+01
  -2.130713e+01  -7.576343e+00
  -1.780384e+01  -6.392436e+01
  -7.689107e+00  -5.140530e+01
   4.949012e+00  -1.593225e+01
   2.198835e+01   1.441937e+01
   4.337102e+01   2.758355e+01
   4.136517e+00  -1.852273e+01
  -3.640432e+00   1.128285e+01
  -1.339230e+01   2.705192e+01
  -2.694497e+00   4.914043e+01
  -6.187096e+00   3.440737e+00
  -1.214839e+01   4.578161e+00
  -8.107457e+00  -3.370710e+01
   2.412003e+01  -1.883407e+01
   4.837174e+01   2.151692e+01
   3.575931e+01   4.543833e+01
  -6.384589e+01   4.479664e+01
  -4.394921e+01  -1.859703e+01
  -2.876623e+01  -7.431099e+01
   9.321084e+00  -3.186395e+01
   2.363254e+01  -5.039838e+00
   2.301276e+01  -5.589342e-02
  -2.882876e+01  -4.436112e+00
  -7.676646e+00  -4.121376e+01
   2.004032e+01   5.002912e+00
   4.443531e+01   1.546081e+01
