
 $NMID
 id='ANONYMOUS ', fmtdat='(2E16.6)'
 volume=1.0
 tramp=1.0
 $END
  -2.809030e+03  -1.786486e+02
  -2.107881e+03  -1.409619e+03
  -1.479707e+02  -1.799984e+03
   1.148154e+03  -1.049726e+03
   8.322783e+02  -1.325932e+02
  -4.570857e+01   2.661865e+02
  -3.464724e+02  -7.341053e+01
  -3.263654e+01  -4.269013e+02
   3.389211e+02  -4.855464e+02
   6.140660e+02  -5.028731e+01
   4.270973e+02   4.690656e+02
   4.072494e+01   5.886999e+02
  -2.785703e+02   2.297888e+02
  -2.655375e+02  -3.292783e+02
   3.300801e+01  -5.238853e+02
   3.901084e+02  -1.358015e+02
   2.865751e+02   3.612195e+02
  -6.397027e+01   4.675976e+02
  -3.460564e+02   2.483313e+02
  -3.832832e+02  -1.242892e+02
  -1.198826e+02  -2.764134e+02
   5.176805e+01  -2.259912e+02
   1.009474e+02  -1.056813e+02
  -9.163815e+01  -4.966906e+01
  -2.023442e+02  -1.296286e+02
  -4.149378e+01  -2.702584e+02
   2.867271e+02  -1.886631e+02
   4.846652e+02   4.364709e+01
   1.922976e+02   2.801942e+02
  -2.169689e+02   2.578895e+02
  -3.770641e+02  -3.938249e+01
  -2.634802e+02  -2.756868e+02
   2.101384e+02  -3.151464e+02
   3.634053e+02  -2.252273e+02
   2.671900e+02   1.103138e+02
   8.788964e+01   3.003517e+02
  -8.128092e+01   1.848948e+02
  -5.565440e+01  -7.337147e+01
   8.748596e+01  -2.122687e+02
   2.234417e+02   4.545759e+01
   1.391223e+02   3.615595e+02
  -1.302062e+02   4.481211e+02
  -3.191575e+02   5.963780e+01
  -1.685576e+02  -2.913128e+02
   1.181303e+02  -1.829479e+02
   1.876261e+02   2.122416e+02
  -3.495334e+01   3.418203e+02
  -3.080869e+02   1.215866e+02
  -4.126914e+02  -2.396386e+02
  -1.417077e+02  -3.974557e+02
   1.976276e+02  -2.619434e+02
   4.318535e+02   1.748820e+01
   2.449361e+02   2.280610e+02
  -3.268002e+01   2.040194e+02
  -2.613526e+02   8.709446e+01
  -2.276811e+02  -3.308843e+01
  -4.945432e+00  -1.131224e+01
   7.709784e+01   3.654805e+01
  -8.035180e+01   6.794922e+01
  -2.055724e+02  -4.529622e+01
  -9.033607e+01  -1.564748e+02
   1.299298e+02  -1.725981e+02
   2.630149e+02  -1.132458e+02
   2.360408e+02   7.425565e+01
  -2.772824e+01   2.214117e+02
  -2.052318e+02   2.317116e+02
  -2.341017e+02   1.442663e+02
  -2.122309e+02  -7.005129e+01
  -2.570104e+01  -2.832035e+02
   1.660900e+01  -2.786687e+02
   2.838048e+01  -1.327142e+02
   4.450482e+01  -2.867373e+01
   9.397072e+01  -1.114042e+02
   1.439332e+02  -4.663694e+01
   1.840482e+02   6.589386e+01
   9.624190e+01   1.649463e+02
  -5.393783e+01   1.916491e+02
  -1.704298e+02   2.056587e+01
  -1.209944e+02  -1.700288e+02
   3.842848e+01  -1.953507e+02
   1.665165e+02  -9.565131e+01
   2.313851e+02   1.317095e+02
   1.302160e+02   2.506619e+02
  -3.660735e+01   2.039169e+02
  -1.392515e+02   7.804219e+01
  -1.184114e+02   5.227343e+01
  -7.222271e+01   4.125232e+01
  -1.585943e+02   7.116324e+01
  -3.390760e+02  -5.039714e+01
  -2.399279e+02  -2.222006e+02
   1.804753e+01  -3.564174e+02
   3.256672e+02  -3.060235e+02
   3.709360e+02  -2.059386e+02
   2.030007e+02   6.648927e+01
   2.804420e+01   1.976144e+02
  -7.844741e+01   1.833269e+02
  -2.491132e+01   4.920816e+01
   9.568746e+01  -5.582542e+01
   1.030712e+02   1.274598e-01
   3.587105e+01   1.321593e+02
  -7.657482e+01   1.285741e+02
  -6.807387e+01  -1.973362e+01
   1.826416e+01  -1.213242e+02
   1.213799e+02  -1.019284e+01
   1.150746e+02   2.113512e+02
  -2.937509e+01   2.289703e+02
  -1.899306e+02   1.501012e+02
  -2.823914e+02  -9.606577e+00
  -2.203322e+02  -1.918397e+02
  -6.429873e+01  -1.977712e+02
   7.961713e+01  -1.423043e+02
   1.572987e+02  -3.645562e+01
   4.234287e+01   5.602000e+01
   1.834017e+00  -3.913453e+01
  -2.074826e+00  -1.094719e+02
   1.078274e+02  -8.428038e+01
   1.322982e+02   2.176581e+00
   3.928763e+01   7.286125e+01
  -5.856796e+01  -1.179790e+01
  -4.183772e+01  -6.045622e+01
   8.614681e+01  -5.694417e+01
   2.226246e+02  -2.905537e+01
   1.891097e+02   1.079679e+02
   3.796621e+01   1.922087e+02
  -1.690410e+02   1.949253e+02
  -2.014043e+02   1.050064e+02
  -1.311552e+02   5.366509e+00
   8.196072e+00  -6.966226e+01
   5.236796e+01  -2.133039e+01
  -1.611531e+01   5.881361e+01
  -1.001286e+02   4.432419e+01
  -1.657932e+02  -7.489372e+01
  -5.820395e+01  -1.195239e+02
   7.144007e+01  -1.090601e+02
   6.320687e+01  -2.079424e+01
   3.937904e+01   8.683233e-01
  -2.567897e+01  -2.256686e+01
  -2.348801e+01  -9.207965e+01
   8.143589e+01  -8.783427e+01
   1.887678e+02  -1.245089e+01
   1.576911e+02   9.040089e+01
   3.066367e+00   1.541479e+02
  -8.098965e+01   1.381733e+02
  -1.140312e+02   4.997076e+01
  -5.078517e+00  -6.761117e+01
   2.077008e+01  -8.532230e+01
   8.593226e+01  -3.789697e+01
   1.932839e+01   2.611489e+01
  -2.874286e+01  -2.548364e+00
   2.417227e+01  -1.335900e+01
   5.968309e+01   1.472044e+01
   7.295824e+01   5.041429e+01
   2.999850e+01   1.402604e+02
  -8.612180e+01   1.074091e+02
  -1.874901e+02   3.397664e+01
  -1.816003e+02  -6.701087e+01
  -4.342695e+01  -1.693299e+02
   9.209230e+01  -1.291750e+02
   1.052736e+02   1.411935e+01
   7.977628e+01   5.203028e+01
   3.313916e+01   4.439108e+01
   4.721873e+01   5.785987e+00
   6.247936e+01  -1.203902e+01
   5.858772e+01   4.959069e+01
  -1.713297e+01   7.927009e+01
  -8.742111e+01   2.273261e+01
  -8.458335e+01  -4.147412e+01
   4.057957e+00  -1.074726e+02
   1.279838e+02  -6.090922e+01
   1.585237e+02   4.402686e+01
   7.075246e+01   1.659249e+02
  -8.906124e+01   1.593661e+02
  -2.584225e+02   9.124295e+01
  -1.962246e+02  -6.194338e+01
  -9.856109e+01  -1.407287e+02
   1.116995e+01  -1.146142e+02
   7.896784e+01  -3.148455e+01
   6.965754e+01  -4.358441e+01
   5.773342e+01  -6.622914e+01
   3.606696e+01  -6.599040e+01
   1.204693e+02  -6.051574e+00
   1.366137e+02   9.880342e+01
   3.308775e+01   1.685342e+02
  -7.817499e+01   1.366991e+02
  -1.240569e+02  -2.221665e+00
  -1.451485e+02  -1.017982e+02
  -1.171675e+01  -1.169707e+02
   2.697618e+01  -6.477143e+01
   4.226080e+01  -1.575230e+01
   5.776855e+00   5.512795e+01
  -8.331417e+00   4.890702e+01
   1.015394e+01   1.968535e+01
   6.114438e+01   3.225062e+01
   1.433442e+01  -5.683486e+00
  -3.867434e+01   4.771216e+01
  -1.136779e+02  -4.296969e+00
  -1.014335e+02  -2.232316e+01
  -1.021054e+01  -7.360311e+01
   1.374891e+02  -7.624591e+01
   1.092403e+02  -1.105061e+01
   4.295579e+01   4.266096e+01
  -5.916249e+01   2.169615e+01
  -3.210537e+01  -1.026264e+01
  -1.735335e+01  -4.436849e+01
   2.470417e+01  -4.012026e+01
   3.810389e+01  -7.059976e+00
   6.342980e+01   3.680482e+01
   5.471429e+01   3.868165e+01
   2.055527e+01   1.321171e+01
   3.629671e+01   6.295834e+00
   5.338421e+01   8.176774e+01
  -2.115271e+01   1.121496e+02
  -8.023006e+01   1.110703e+02
  -1.236333e+02   3.848762e+00
  -1.104584e+02  -6.886814e+01
  -4.986273e+00  -9.001912e+01
   9.637114e+01  -4.044782e+01
   5.338851e+01  -1.642510e+01
  -5.032626e+01   3.096805e+01
  -1.006398e+02  -5.351723e+01
  -5.584154e+01  -8.501487e+01
   8.514253e+01  -9.775716e+01
   1.233175e+02  -1.436071e+01
   1.303795e+02   1.162653e+01
   7.572242e+00   6.358599e+01
  -5.041964e+01   5.740642e+01
  -1.659024e+01   3.656408e+00
   6.394387e+00  -3.922683e+01
   9.078309e+01   6.360865e+00
   3.318443e+01   5.596054e+01
  -4.548409e+01   1.540341e+02
  -1.240179e+02   7.060890e+01
  -8.684807e+01  -4.619428e+01
  -3.896413e+01  -1.576382e+02
   5.992121e+01  -1.210284e+02
   1.145656e+02  -2.928700e-01
   5.599960e+01   6.730654e+01
  -2.346202e+01   1.100565e+02
  -4.914801e+01   6.660530e+00
  -2.795246e+01  -2.346429e+01
  -3.226949e+01  -9.006224e+00
  -1.850894e+01   2.358485e+01
  -2.735991e+01  -2.837744e+01
  -6.440254e+01  -6.152085e+01
  -3.883332e+01  -8.424988e+01
   2.166288e+01  -5.830090e+01
   1.007308e+02  -7.374478e-01
   9.209362e+01   5.569707e+01
  -1.311772e+01   3.072503e+01
  -7.147649e+01   1.623241e+01
  -7.592181e+01   7.836293e+00
  -1.167145e+01  -2.224482e+01
   3.023460e+01  -1.241539e+01
   8.974935e+00   8.225646e+00
  -2.195255e+01   2.107451e+01
   7.278233e+00   2.543996e+01
   6.628317e+01  -2.027744e+01
   6.979251e+01   6.322617e+00
   3.749506e+01   8.216538e+01
  -8.837560e+01   8.397871e+01
  -1.302928e+02   8.100476e+01
  -1.353156e+02  -7.081600e+01
   8.141789e+00  -1.431051e+02
   6.038036e+01  -1.262524e+02
   8.493598e+01  -6.842841e+01
   7.606096e+01   2.551349e+01
   1.090005e+01   5.206059e+01
  -1.373740e+01   5.519309e+00
   2.724904e+01  -1.830708e+01
   3.168356e+01   2.233909e+01
   8.122097e+00   7.087240e+01
  -3.384626e+01   6.785770e+01
  -7.214206e+01  -7.827542e+00
  -7.162592e+01  -6.585436e+01
   3.236273e+00  -7.206330e+01
   1.834084e+01  -5.713743e+00
   8.141531e+01   5.532176e+01
   2.008455e+01   8.948989e+01
  -5.638411e+01   5.228820e+01
  -6.218777e+01   1.315999e+01
  -3.372788e+01  -3.687217e+01
   5.059978e+01  -5.031539e+01
   3.231346e+01  -7.535937e+00
  -3.006799e+01  -3.924602e+00
  -3.577838e+01  -2.725899e+00
   9.878647e-01  -3.170139e+01
   1.172324e+02  -5.197126e+01
   1.165121e+02  -3.645035e+01
   6.593003e+01  -5.297784e-01
  -1.748277e+01   7.805637e+01
  -3.051981e+01   3.587691e+01
  -1.120012e+01   9.760686e+00
   1.829570e+01  -2.881991e+01
   1.523853e+01  -3.071888e+01
   1.274958e+01   5.755803e-01
   2.663898e+01   3.580927e+01
  -8.570259e+00   3.217617e+01
   3.798664e+00  -1.013099e+00
  -3.501229e+01  -7.557671e+00
  -3.323646e+01   1.549038e+01
  -5.829588e+00   2.863542e+01
   2.700561e-01  -3.180322e+00
  -2.685453e+01  -2.952547e+01
   1.311047e+01  -7.983905e+01
   3.418950e+01   1.757141e+01
   5.009943e+01   2.164070e+01
   6.094985e+00   3.942474e+01
  -3.701258e+01   3.332820e+01
  -3.623094e+01  -2.570135e+01
  -2.795651e+01  -8.197423e+01
   7.600701e+01  -2.596018e+01
   5.994667e+01   1.760729e+01
   4.501244e+01   6.118939e+01
  -2.502772e+01   3.113189e+01
  -4.764169e+01   1.990868e+01
   1.227588e+00  -2.872917e+01
   1.470190e+01   2.726497e+00
   2.857307e+01   3.435214e+01
  -1.626146e+01   7.474395e+00
  -5.379511e+01   2.322393e+01
