
 $NMID
 id='ANONYMOUS ', fmtdat='(2E16.6)'
 volume=1.0
 tramp=1.0
 $END
   2.385888e+03  -9.715270e+00
   1.779671e+03   1.271582e+03
  -7.922862e+00   1.594840e+03
  -9.165634e+02   1.070627e+03
  -8.187844e+02   1.654051e+02
  -4.141932e+01  -1.964847e+02
   3.204563e+02   2.010688e+01
   2.262763e+01   4.391789e+02
  -3.869385e+02   4.686619e+02
  -5.705878e+02   3.724761e+01
  -4.306212e+02  -4.242560e+02
   5.380143e+00  -5.269033e+02
   2.733233e+02  -1.951709e+02
   2.699301e+02   3.506195e+02
  -8.854764e+01   4.500105e+02
  -3.157508e+02   5.628796e+01
  -1.941865e+02  -3.741483e+02
   1.079977e+02  -4.819493e+02
   3.738263e+02  -1.923749e+02
   3.406372e+02   1.515584e+02
   8.443980e+01   2.679885e+02
  -7.855343e+01   1.892946e+02
  -4.650734e+01   3.784936e+01
   1.791019e+02   5.310816e+01
   2.080966e+02   2.185625e+02
  -2.514764e+01   2.875814e+02
  -3.368745e+02   1.424590e+02
  -4.470584e+02  -1.354977e+02
  -1.538284e+02  -2.654334e+02
   2.629058e+02  -1.616947e+02
   3.866790e+02   1.217211e+02
   1.516364e+02   3.655699e+02
  -2.427458e+02   3.103101e+02
  -3.646880e+02   1.035431e+02
  -2.607548e+02  -8.642119e+01
  -8.596091e+01  -2.573710e+02
   3.433648e+01  -1.504580e+02
   5.331817e+00   1.039990e+02
  -1.679785e+02   1.949103e+02
  -1.763781e+02  -1.353009e+02
  -5.940702e+01  -4.037302e+02
   1.839703e+02  -3.458183e+02
   3.076681e+02  -3.424391e+01
   1.214421e+02   3.019361e+02
  -1.202978e+02   9.995296e+01
  -1.322009e+02  -1.856341e+02
   1.073662e+02  -3.260990e+02
   3.775450e+02  -4.220466e+01
   3.991829e+02   3.063778e+02
   5.064271e+01   3.723593e+02
  -2.777131e+02   2.042615e+02
  -4.330709e+02  -7.282375e+01
  -2.483908e+02  -2.104412e+02
   7.347128e+01  -1.867264e+02
   2.456477e+02  -6.737249e+01
   1.821421e+02   5.381229e+01
   2.540846e+01   3.505646e+01
  -6.490055e+01  -7.690511e+01
   7.548932e+01  -8.682779e+01
   1.903688e+02   5.808233e+01
   8.672988e+01   1.858280e+02
  -1.038825e+02   1.758403e+02
  -2.928573e+02   1.404732e+02
  -2.205064e+02  -7.905059e+01
   2.306306e+01  -2.452424e+02
   1.890990e+02  -2.727134e+02
   2.881329e+02  -1.155558e+02
   1.745080e+02   1.195884e+02
   6.557095e+01   2.422131e+02
  -1.165294e+01   2.428577e+02
  -2.626434e+00   1.501782e+02
  -1.744135e+01   7.806669e+01
  -1.386289e+02   9.099955e+01
  -1.905832e+02   1.978957e+01
  -1.876607e+02  -1.036111e+02
  -6.465578e+01  -2.347672e+02
   6.682340e+01  -1.242900e+02
   1.759759e+02   2.501691e+01
   1.300795e+02   1.515808e+02
  -5.814952e+01   2.214444e+02
  -2.001078e+02   4.628639e+01
  -2.574930e+02  -1.252158e+02
  -1.293381e+02  -2.133662e+02
   3.107662e+01  -2.255700e+02
   1.298667e+02  -1.549122e+02
   7.958181e+01  -7.008454e+01
   1.091761e+02  -6.233519e+01
   2.009238e+02  -5.921835e+01
   3.386459e+02   2.634931e+01
   2.748646e+02   2.211929e+02
  -2.888419e+01   3.478294e+02
  -3.068398e+02   3.414977e+02
  -3.996825e+02   1.638834e+02
  -1.950356e+02  -1.170790e+02
   8.948964e-01  -2.360215e+02
   9.485403e+01  -1.840105e+02
   1.986852e+01  -1.476238e+01
  -9.610304e+01   4.900312e+01
  -1.096848e+02  -6.326113e+00
  -1.100841e+01  -1.051454e+02
   9.604495e+01  -9.049289e+01
   8.940602e+01   3.877972e+01
  -1.889097e+01   1.407533e+02
  -1.130973e+02  -9.481360e+00
  -1.221563e+02  -1.831149e+02
  -8.760597e+00  -2.581240e+02
   1.894468e+02  -1.790990e+02
   2.631221e+02   8.128370e+01
   2.042599e+02   1.967176e+02
   5.912087e+01   2.344027e+02
  -8.937989e+01   1.179310e+02
  -1.371618e+02  -1.711685e+01
  -4.361559e+01  -2.680187e+01
   5.480233e+01   2.140686e+01
  -1.444549e+00   1.155348e+02
  -1.251821e+02   7.508213e+01
  -1.312792e+02  -2.564982e+01
  -2.224708e+01  -7.749026e+01
   5.692164e+01  -1.327084e+01
   3.502967e+01   9.226046e+01
  -1.228990e+02   1.113810e+02
  -2.356609e+02  -1.535149e+01
  -2.164056e+02  -1.332218e+02
  -9.181046e+00  -2.264918e+02
   1.983322e+02  -2.342971e+02
   2.078108e+02  -6.760730e+01
   1.049128e+02  -6.103946e+00
  -4.682593e+01   7.613938e+01
  -3.136074e+01  -2.289775e+00
   4.684854e+01  -6.676175e+01
   1.377835e+02  -3.036783e+01
   1.499926e+02   7.022397e+01
   5.107805e+01   1.361706e+02
  -7.697606e+01   8.167414e+01
  -7.251244e+01   2.488846e+01
  -3.226586e-01  -2.686655e+01
   1.908012e+00   3.484621e+01
  -5.971810e+00   9.250743e+01
  -6.630917e+01   1.036774e+02
  -1.819703e+02   2.143754e+00
  -1.571846e+02  -1.262300e+02
  -1.860678e+01  -1.691190e+02
   1.215739e+02  -1.590313e+02
   1.629079e+02   3.579292e+00
   6.795179e+01   6.589731e+01
  -2.339481e+01   6.538444e+01
  -5.385877e+01   3.565680e+01
   1.689581e+00  -3.743493e+01
   3.421459e+01   1.682540e+01
  -2.315958e+01   3.885324e+01
  -8.261852e+01  -6.948280e+00
  -6.512578e+01  -4.282900e+01
   1.431975e+01  -1.170044e+02
   1.131278e+02  -1.163763e+02
   1.995375e+02   1.950843e+01
   1.506213e+02   1.167753e+02
   2.688675e+01   1.790747e+02
  -7.721579e+01   1.438454e+02
  -9.379182e+01   3.401783e+01
  -6.539945e+01  -4.952074e+01
  -6.349937e+01  -2.988011e+01
  -4.433099e+01   2.876251e+01
  -8.311146e+01   7.987268e+00
  -6.035825e+01  -7.641102e+01
   5.961338e+01  -9.174943e+01
   1.415592e+02  -8.751421e+01
   8.958929e+01   3.681506e+01
  -3.293229e+01   1.207388e+02
  -1.668707e+02   6.508356e+01
  -1.961080e+02  -8.639922e+01
  -6.067903e+01  -2.074851e+02
   1.192154e+02  -2.056703e+02
   2.377985e+02  -4.279480e+01
   1.851822e+02   9.483392e+01
   5.075384e+01   1.571950e+02
  -2.329827e+01   1.130755e+02
  -5.865643e+01   4.281489e+01
  -6.777955e+01   4.795160e+01
  -7.515750e+01   8.005954e+01
  -5.728421e+01   7.864351e+01
  -1.330122e+02  -1.474616e+01
  -1.283032e+02  -1.289632e+02
  -4.006055e+01  -2.050272e+02
   1.031994e+02  -1.453416e+02
   1.633830e+02   2.175236e+00
   1.033742e+02   1.093705e+02
  -3.222909e+00   1.151205e+02
  -7.393039e+01   5.835410e+01
  -4.019869e+01  -1.511199e+01
  -1.687018e+00  -2.004337e+01
   1.425006e+01  -2.636572e+01
  -3.027831e+01  -4.860658e+01
  -7.563430e+01  -1.328733e+01
  -1.163585e+01  -5.461743e+01
   8.059962e+01  -1.032537e+01
   1.469756e+02   9.411804e+00
   1.300025e+02   8.378590e+01
  -1.987890e+01   8.411616e+01
  -1.338834e+02   8.480187e+01
  -9.999577e+01   6.229577e+00
  -4.919779e+01  -3.658680e+01
   4.028901e+01  -1.510022e+01
   4.082677e+01   4.735982e+01
   6.392648e+00   6.037636e+01
  -4.444669e+01   2.352940e+01
  -4.310781e+01   1.605456e+01
  -5.409656e+01  -4.860835e+01
  -4.492598e+01  -2.076494e+01
  -6.885481e+01  -5.303996e+00
  -6.716524e+01  -3.345738e+01
  -3.414664e+01  -1.038673e+02
   6.985844e+01  -1.105465e+02
   1.094596e+02  -1.209213e+02
   1.266117e+02  -3.685009e+00
   9.892476e+01   1.025149e+02
  -9.586822e+00   9.789153e+01
  -8.979434e+01   6.795520e+01
  -3.660107e+01   8.179729e+00
   5.643358e+01   1.077026e+01
   1.060944e+02   3.218669e+01
   4.058449e+01   9.815847e+01
  -7.742426e+01   7.541598e+01
  -1.075864e+02   2.258893e+01
  -1.077980e+02  -2.187377e+01
  -1.315676e+01  -5.182923e+01
   4.723416e+01  -4.692839e+01
   1.980589e+01   3.013303e+00
  -4.707080e+01   3.621413e+01
  -7.257020e+01  -2.087685e+01
  -5.643382e+01  -7.954933e+01
   4.050242e+01  -1.212007e+02
   1.232648e+02  -4.319291e+01
   8.088449e+01   1.020183e+02
   3.423102e+01   1.427855e+02
  -9.959770e+01   1.109989e+02
  -8.650139e+01  -9.002291e+00
  -7.332133e+01  -7.941022e+01
  -1.329510e+01  -9.056812e+01
   4.851821e+01  -1.533022e+01
   1.590760e+00   2.902838e+01
   2.889987e+01  -9.030322e+00
   1.548593e+01  -2.726596e+01
  -2.501519e-01   2.674940e+01
   6.848634e+01   6.323936e+01
   5.319607e+01   8.185285e+01
  -5.041532e+01   6.481355e+01
  -1.135502e+02  -3.280808e+01
  -7.246225e+01  -4.970264e+01
   3.670760e+00  -2.226996e+01
   8.856173e+01  -1.514670e+01
   5.851835e+01  -6.770112e+00
   1.251691e+01   2.122588e+01
  -1.358478e+01   1.521321e+01
  -9.877727e+00   2.999812e+00
  -4.367066e+00  -6.370334e+00
  -1.524298e+01  -1.511508e+01
  -8.210162e+01   1.041241e+01
  -6.591541e+01  -1.843856e+01
  -2.200116e+00  -7.058744e+01
   7.559773e+01  -8.541517e+01
   1.534581e+02  -5.065423e+01
   1.028667e+02   4.255863e+01
   3.806996e+01   1.302356e+02
  -3.604559e+01   1.173960e+02
  -7.095774e+01   6.879798e+01
  -9.235578e+01   5.726851e+00
  -3.248784e+01  -3.509775e+01
  -1.596190e+01  -5.060753e+00
  -2.354376e+00   2.403261e+01
  -3.699317e+00  -3.063222e+01
  -1.872151e+01  -6.832900e+01
   5.547534e+01  -6.104599e+01
   5.955991e+01   1.379732e+01
   5.026488e+01   8.515127e+01
   1.600563e+01   8.677654e+01
  -3.218163e+01   9.861776e+00
  -7.890693e+01  -3.303958e+01
  -6.277980e+01  -6.881304e+01
   3.995474e+01  -5.728280e+01
   8.547779e+01  -3.526938e+00
   5.304092e+01   5.659286e+01
  -1.215294e+01   5.539856e+01
  -1.563020e+01   2.311680e+01
   2.963223e+01  -8.824253e+00
   5.631204e+01  -7.576195e+00
   3.590873e+01   2.146200e+01
  -9.494809e+01   4.861222e+01
  -1.071964e+02   8.782035e+01
  -2.382606e+01   1.198738e+01
   2.024219e+01  -4.025113e+01
   1.699356e+01  -4.416927e+01
   2.482995e+01  -4.196387e+01
   1.243406e+00   2.931389e+01
  -1.950088e+01   6.051002e+01
  -2.800091e+01   1.868579e+00
  -5.563516e+01  -4.108740e+01
   1.098187e+01  -3.631910e+00
   4.269227e+01   5.096222e+00
   3.014397e+01   1.304871e+01
   4.492482e+01   4.727503e+00
   3.919208e+00  -2.909959e+01
   1.093184e+00  -3.037098e+01
   2.089144e+01   2.875074e+01
   3.033901e+00   5.705257e+01
  -1.589568e+01   2.676811e+01
  -1.552545e+01  -1.666295e+01
  -4.043089e+01  -3.362455e+01
   4.152959e+01  -1.025212e+01
   4.165000e+01   3.209390e+01
   2.383882e+01   7.173513e+01
  -5.537241e+01   2.921550e+01
  -6.452499e+01  -1.266978e+01
  -4.611603e+01  -7.365808e+01
   3.243710e+01  -4.092401e+01
   6.744786e+01  -4.228750e+01
   1.644868e+01  -1.175155e+01
  -2.012685e+01  -1.078620e+01
  -2.008942e+01  -1.453712e+01
  -6.202553e+00  -4.165083e+01
   5.653497e+01  -1.636962e+01
