
 $NMID
 id='ANONYMOUS ', fmtdat='(2E16.6)'
 volume=1.0
 tramp=1.0
 $END
   2.412143e+03  -1.505224e+02
   1.272585e+03   1.089301e+03
  -9.639645e+01   1.437825e+03
  -7.048617e+02   7.047918e+02
  -3.279786e+02   6.786995e+01
   2.066703e+02  -8.262888e+01
   3.093438e+02   1.574676e+02
   3.575199e+01   4.684417e+02
  -3.477701e+02   3.992693e+02
  -4.350207e+02   5.904832e+01
  -2.370320e+02  -3.613475e+02
   2.553962e+01  -4.115776e+02
   2.162479e+02  -4.705231e+01
   9.197954e+01   2.782377e+02
  -1.500436e+02   3.762808e+02
  -2.570703e+02   8.358002e+00
  -1.403907e+02  -3.401999e+02
   9.758013e+01  -3.907585e+02
   3.411686e+02  -1.481748e+02
   2.854682e+02   1.141130e+02
   6.602141e+01   2.413212e+02
  -1.192622e+02   1.452661e+02
  -9.025285e+01   4.427453e+01
   1.524715e+02  -9.698392e+00
   2.501885e+02   1.582700e+02
   3.220560e+01   3.213709e+02
  -2.863272e+02   2.056952e+02
  -4.615860e+02  -6.538788e+01
  -1.689886e+02  -2.534832e+02
   2.790264e+02  -2.227164e+02
   4.083978e+02   1.009506e+02
   1.460934e+02   3.257722e+02
  -1.909798e+02   3.109294e+02
  -3.367587e+02   9.245937e+01
  -2.358143e+02  -1.838398e+02
  -5.947805e+00  -2.703339e+02
   1.196671e+02  -9.506994e+01
   1.405369e+01   1.789838e+02
  -1.545161e+02   1.590849e+02
  -2.464116e+02  -1.517394e+02
  -2.188779e+01  -4.471678e+02
   2.008550e+02  -3.635890e+02
   3.013395e+02   5.314878e+01
   3.293028e+01   2.555111e+02
  -1.468050e+02   9.985726e+01
  -1.355684e+02  -1.842395e+02
   9.596875e+01  -2.733053e+02
   3.061811e+02  -2.400815e+01
   3.600044e+02   2.093533e+02
   9.887711e+01   3.179461e+02
  -1.891612e+02   2.335788e+02
  -3.312947e+02  -1.426886e+01
  -2.360506e+02  -2.266134e+02
   5.705160e+01  -1.109563e+02
   1.773279e+02  -1.636342e+01
   6.007609e+01   4.150612e+01
  -3.168337e+01  -3.592337e+01
  -3.177761e+01  -7.142743e+01
   1.138061e+02  -7.446496e+01
   1.767999e+02   6.518094e+00
   9.156972e+01   1.262579e+02
  -1.007679e+02   1.597561e+02
  -1.731795e+02   1.416587e+02
  -1.614276e+02  -8.065672e+01
  -7.412944e-01  -1.951615e+02
   1.375253e+02  -2.575287e+02
   1.599685e+02  -1.502236e+02
   1.553613e+02   1.183108e+02
   6.817007e+01   2.275254e+02
  -6.258729e+00   1.665407e+02
  -1.074611e+01   8.199179e+01
   3.001773e+01   6.897099e+01
  -7.818723e+01   1.067307e+02
  -1.831182e+02   5.309681e+01
  -1.673279e+02  -1.186548e+02
  -9.644950e+01  -1.622585e+02
   7.419790e+01  -1.207126e+02
   1.535157e+02   5.251374e+01
   1.134957e+02   1.535620e+02
  -6.483988e+01   1.737734e+02
  -1.820400e+02   5.973290e+01
  -1.894553e+02  -9.987189e+01
  -1.188881e+02  -1.998252e+02
   3.788949e+01  -1.397115e+02
   9.546362e+01  -9.243719e+01
   3.899827e+01  -6.067323e+01
   6.687430e+01  -1.003484e+02
   1.725022e+02  -9.026717e+01
   2.949610e+02   1.201358e+01
   2.324891e+02   1.776711e+02
  -1.308332e+00   3.045649e+02
  -2.846102e+02   2.982186e+02
  -3.161516e+02   9.865000e+01
  -1.840855e+02  -8.208684e+01
   2.287460e+01  -1.808089e+02
   9.187328e+01  -9.679952e+01
   6.150702e+00   6.874261e+01
  -9.167776e+01   1.021185e+01
  -8.710852e+01  -6.038335e+01
  -1.943142e+01  -8.877867e+01
   1.235797e+02  -1.068183e+02
   1.038651e+02   7.634913e+01
  -2.050232e+01   9.892840e+01
  -1.137044e+02  -1.252025e+01
  -8.504866e+01  -1.450542e+02
  -1.931136e-01  -2.395321e+02
   1.276541e+02  -1.460297e+02
   2.311275e+02   4.741677e+01
   1.584581e+02   1.617075e+02
   4.799404e+01   1.636901e+02
  -6.564130e+01   9.949060e+01
  -7.713012e+01   2.486077e+01
  -4.091611e+01  -9.194917e+00
   2.775094e+01   3.126321e+01
  -6.244170e+00   9.969720e+01
  -8.926706e+01   5.935269e+01
  -7.289063e+01   1.380966e+01
   9.355940e+00  -2.654040e+01
   4.548875e+01   4.121507e+01
   5.068329e+01   1.007375e+02
  -1.284790e+02   7.671868e+01
  -2.242858e+02   4.849340e+00
  -1.670997e+02  -1.109570e+02
   4.093850e+00  -1.577733e+02
   1.463694e+02  -1.629501e+02
   1.612418e+02  -4.672230e+01
   4.059075e+01  -2.312018e+01
  -1.513736e+01   4.312231e+01
  -1.145575e+01  -3.703799e+01
   3.259712e+01  -5.632518e+01
   9.806809e+01  -1.339799e+01
   1.143030e+02   7.758606e+01
   2.036212e+01   1.254599e+02
  -5.322635e+01   1.037741e+02
  -7.499037e+01   1.188731e+00
  -3.887746e+01  -5.301859e+01
   2.076580e+01  -3.833004e+01
   3.160390e+01   9.004706e+01
  -7.140144e+01   7.997184e+01
  -1.335108e+02   1.570982e+01
  -1.235868e+02  -1.165823e+02
   1.632285e+01  -1.561192e+02
   8.092654e+01  -9.030129e+01
   9.649221e+01  -1.053743e+01
   3.579511e+01   5.077925e+01
  -6.576196e+01   9.150223e+01
  -3.580224e+01   2.898163e+01
   3.298660e+01  -9.255113e+00
   3.270355e+01   2.021264e+01
   2.146917e+00   1.369518e+01
  -7.751346e+01   3.278513e+01
  -6.005124e+01  -5.186774e+01
   8.124954e+00  -9.313030e+01
   7.379135e+01  -1.051257e+02
   1.717253e+02  -7.805278e+00
   1.377131e+02   7.939728e+01
   1.837046e+01   1.549730e+02
  -6.015910e+01   1.116752e+02
  -7.329560e+01   2.872203e+01
  -4.060912e+01  -2.379766e+01
  -3.762155e+01  -2.916579e+01
  -1.622372e+01  -1.419155e+01
  -4.711007e+01  -1.494520e+00
  -2.550064e+01  -4.994086e+01
   1.366933e+01  -6.942697e+01
   9.098074e+01  -4.705628e+01
   5.300727e+01  -4.937809e+00
  -8.238018e+00   8.277135e+01
  -1.164370e+02   9.075166e+01
  -1.130390e+02  -3.009895e+01
  -7.082510e+01  -1.770332e+02
   9.872959e+01  -1.330665e+02
   1.373851e+02  -4.468400e+01
   1.608139e+02   6.304449e+01
   6.112989e+01   1.127725e+02
  -1.263367e+01   1.046287e+02
  -5.617749e+01   6.034238e+01
  -6.219680e+01   8.109728e+01
  -1.816112e+01   3.052042e+01
  -4.567366e+01   4.432639e+01
  -8.892038e+01   2.716081e+00
  -1.123243e+02  -8.059204e+01
   9.213116e+00  -1.811104e+02
   6.658100e+01  -9.052201e+01
   1.134815e+02   2.788134e+01
   6.612068e+01   7.576488e+01
   1.004624e+01   9.241050e+01
  -7.257140e+01   9.042926e+01
  -5.135842e+01  -3.145247e+01
   1.540118e+01  -1.549341e+01
   2.620076e+01  -3.771043e+01
   9.791720e+00  -2.013449e+01
  -3.308982e+01  -1.031702e+01
  -2.289330e+01  -2.561499e+01
   5.745552e+01  -6.510418e+01
   6.885000e+01   1.075150e+01
   9.128331e+01   3.986679e+01
   2.544474e+00   5.314854e+01
  -7.500408e+01   4.267785e+01
  -5.141757e+01  -1.661152e+01
  -2.916420e+01  -3.541801e+01
   7.010661e+01  -5.081106e+01
   7.317794e+01   5.895069e+00
   1.424024e+01   5.204317e+01
  -2.909922e+01   2.791129e+01
  -3.899631e+00   1.144458e+01
  -4.179687e+01  -2.164002e+01
  -1.890982e+01  -2.095838e+01
  -6.553737e+01  -4.203849e+01
  -4.742948e+01   7.452251e-01
  -2.465230e+01  -5.902742e+01
  -1.216744e+00  -1.104431e+02
   7.209632e+01  -1.084264e+02
   1.209336e+02  -1.177406e+01
   9.345140e+01   5.640589e+01
   5.503703e+00   8.090522e+01
  -5.313209e+01   7.226725e+01
  -6.968976e+01  -2.321160e+01
   3.531595e+01  -3.411601e+01
   8.219188e+01   7.994812e+00
   7.191744e+01   4.419155e+01
  -2.355281e+01   8.741408e+01
  -9.767017e+01   4.064351e+00
  -5.642237e+01  -4.249166e+00
  -2.183997e+01  -7.355775e+01
   3.952506e+01  -2.675892e+01
  -1.537659e+00   1.154089e+01
  -3.876676e+01   1.048934e+01
  -7.633418e+01  -1.230827e+01
  -3.767152e+01  -5.799971e+01
   4.417867e+01  -1.075708e+02
   9.465898e+01  -5.031608e+01
   7.153905e+01   6.232231e+01
   8.848848e+00   1.233807e+02
  -3.794889e+01   8.069427e+01
  -7.773845e+01  -1.051563e+01
  -4.937797e+01  -6.724714e+01
  -2.547131e+01  -5.801824e+01
   2.829729e+01  -1.063082e+01
   1.372411e+01   1.789938e+01
   1.338630e+01  -1.790840e+01
   1.802398e+01   2.000444e+01
   3.808150e+01   1.095543e+01
   4.812600e+01   4.584873e+01
   4.997251e+01   7.707549e+01
  -2.502271e+01   4.952690e+01
  -7.204674e+01  -1.490021e+01
  -7.273578e+01  -6.569009e+00
  -1.345851e+00  -5.117850e+01
   8.472377e+01   9.495305e+00
   4.697329e+01  -2.721123e+00
  -1.310881e+01   1.445960e+00
  -4.239531e+01  -1.235529e+00
  -2.534679e+01   1.429070e+01
   6.188215e+00  -1.262441e+01
   4.760747e-01   8.492156e+00
  -5.454281e+01   3.809821e+01
  -4.789118e+01  -4.473362e+00
  -1.385059e+01  -5.261705e+01
   8.267626e+01  -9.758424e+01
   1.599563e+02  -1.825872e+01
   6.922462e+01   3.903297e+01
   4.101214e-01   8.430596e+01
  -4.348415e+01   1.143774e+02
  -3.921308e+01   3.272838e+01
  -3.617849e+01  -4.101588e+00
  -8.939198e+00  -2.308058e+01
   1.853197e+01  -3.457543e+00
  -4.909234e+01   2.712387e+00
   8.357214e-01  -4.519927e+01
  -8.853637e+00  -5.611929e+01
   3.019134e+01  -3.095612e+01
   5.395805e+01   1.081141e+01
   4.637976e+01   6.305678e+01
  -2.291466e+00   9.100923e+01
  -6.414205e+01   3.505238e+01
  -6.913943e+01  -3.220889e+01
   1.885048e+00  -4.195740e+01
   5.558066e+01  -2.104064e+01
   6.744840e+01   5.254962e+00
   3.439757e+01   3.894608e+01
  -4.309169e+01   3.801299e+01
  -1.405007e+01   2.850231e+01
   3.981386e+01  -1.277636e+01
   3.446449e+01  -2.801208e+01
   1.336419e+01   9.814858e+00
  -2.276675e+01   1.585006e+01
  -9.609510e+01   3.514871e+01
  -6.486436e+01  -3.657686e+00
  -3.052738e+01  -4.742047e+01
   4.780536e+01  -6.421243e+01
   9.555242e+00  -2.471442e+01
  -2.224232e+01   9.380216e-01
  -4.842460e+01   2.894488e+01
  -3.080322e+01  -1.923619e+01
  -6.538181e+00  -5.697483e+01
   1.345959e+01  -3.397105e+01
   2.744189e+01  -4.901189e+00
   2.690384e+01   1.385797e+01
  -5.233965e+00   1.925803e+01
  -2.504667e+01  -2.917027e+01
   6.952074e+00  -1.468471e+01
  -1.538505e+00   1.782767e+01
   8.411615e+00   3.361757e+01
  -1.215659e+01   2.077284e+00
  -1.082244e+01  -2.253891e+01
  -7.756275e+00  -6.042561e+00
   2.774926e+01  -1.556043e+01
   6.230399e+01   1.670955e+01
   2.055252e+01   3.020920e+01
  -2.346700e+01   2.749813e+01
  -7.367700e+01  -2.426380e+01
  -4.252844e+01  -3.247458e+01
   1.816487e+01  -8.174967e+01
   5.484773e+01  -2.461855e+01
   2.327088e+01   1.830100e+01
  -2.763354e+01   1.183235e+01
  -1.086741e+01  -1.301449e+01
   1.563420e+01   9.891409e+00
   3.906546e+01   8.359441e+00
