
 $NMID
 id='ANONYMOUS ', fmtdat='(2E16.6)'
 volume=1.0
 tramp=1.0
 $END
   2.965153e+03   1.000479e+02
   1.819562e+03   1.639923e+03
  -2.556490e+02   1.775813e+03
  -1.399411e+03   8.484240e+02
  -8.602009e+02  -1.060558e+02
   7.938366e+01  -3.230340e+02
   4.869615e+02   1.101647e+02
   1.260133e+02   6.059697e+02
  -5.053539e+02   6.159572e+02
  -7.355755e+02   5.028649e+01
  -3.629896e+02  -5.763886e+02
   1.415510e+02  -6.096103e+02
   3.846087e+02  -9.688565e+01
   2.633243e+02   4.728384e+02
  -1.841993e+02   5.893119e+02
  -4.636623e+02   2.019803e+01
  -2.426837e+02  -5.586373e+02
   1.995448e+02  -5.683511e+02
   4.830507e+02  -2.388293e+02
   4.301293e+02   2.265147e+02
   6.363752e+01   3.580639e+02
  -1.605513e+02   1.775048e+02
  -7.810985e+01   3.138356e+01
   2.079655e+02  -2.911205e+00
   3.116438e+02   2.420296e+02
   2.258295e+01   3.501008e+02
  -4.216309e+02   2.433082e+02
  -6.247182e+02  -1.993211e+02
  -2.838773e+02  -4.561962e+02
   3.304411e+02  -2.379329e+02
   5.214422e+02   8.197060e+01
   2.235491e+02   3.818847e+02
  -2.663149e+02   3.722862e+02
  -4.401930e+02   1.368693e+02
  -3.419237e+02  -2.016732e+02
  -6.199262e-01  -2.897698e+02
   1.423842e+02  -1.937922e+02
   3.961135e+01   1.110378e+02
  -1.291007e+02   3.014685e+02
  -2.994617e+02  -9.402896e+01
  -5.877638e+01  -5.042479e+02
   2.225723e+02  -4.516798e+02
   3.882557e+02   5.429182e+00
   1.833678e+02   3.685573e+02
  -1.937376e+02   1.906165e+02
  -2.123751e+02  -2.801311e+02
   5.460412e+01  -4.028697e+02
   4.041910e+02  -7.863006e+01
   4.733156e+02   3.412934e+02
   1.648392e+02   4.368339e+02
  -2.905133e+02   2.561704e+02
  -5.460705e+02  -5.934051e+01
  -3.253568e+02  -2.737506e+02
   6.848742e+01  -2.631954e+02
   3.651396e+02  -6.504242e+01
   2.134972e+02   1.339770e+02
  -5.655275e+01   9.959593e+01
  -1.074851e+02  -9.074579e+01
   9.954131e+01  -1.320613e+02
   2.459101e+02   1.073526e+01
   1.418326e+02   1.953227e+02
  -1.090456e+02   2.502804e+02
  -3.475772e+02   1.592249e+02
  -2.633633e+02  -1.243955e+02
   1.215830e+01  -3.121204e+02
   2.866259e+02  -3.124942e+02
   3.530253e+02  -1.263146e+02
   2.371172e+02   1.607232e+02
   2.372205e+01   3.303821e+02
  -7.904212e+01   2.934151e+02
  -2.852329e+01   1.274260e+02
  -1.302929e+00   4.915103e+01
  -7.516938e+01   9.845784e+01
  -2.124166e+02   9.730285e+01
  -2.118501e+02  -1.134664e+02
  -1.292271e+02  -2.622702e+02
   8.059940e+01  -1.881134e+02
   1.778848e+02   1.858469e+01
   1.708742e+02   2.203763e+02
  -3.717562e+01   2.407642e+02
  -2.176302e+02   8.381068e+01
  -2.922952e+02  -1.650175e+02
  -1.915942e+02  -3.006706e+02
   3.379437e+01  -2.421410e+02
   1.658098e+02  -1.322523e+02
   1.183703e+02  -5.900033e+01
   1.041923e+02  -4.443364e+01
   2.462846e+02  -4.755843e+01
   3.431205e+02   6.168061e+01
   2.913720e+02   2.792657e+02
  -7.543872e+01   4.016236e+02
  -3.232492e+02   3.707989e+02
  -4.537228e+02   1.511521e+02
  -2.977125e+02  -1.361329e+02
  -1.322376e+01  -2.272061e+02
   9.867674e+01  -1.970911e+02
   8.627751e+00  -2.570610e+01
  -6.424605e+01   4.474300e+01
  -1.368681e+02  -5.849196e+00
  -4.352444e+00  -1.463100e+02
   1.282422e+02  -1.394794e+02
   1.200828e+02   7.304021e+01
  -1.001286e+01   1.414434e+02
  -1.541772e+02   1.266059e+01
  -1.559882e+02  -2.181293e+02
  -1.110131e+00  -3.044246e+02
   1.676762e+02  -2.200421e+02
   3.262283e+02   6.518616e+01
   2.525267e+02   2.237280e+02
   4.249188e+01   2.600027e+02
  -1.304729e+02   1.296713e+02
  -1.415007e+02   1.482193e+01
   4.901226e+00  -1.412156e+01
   6.096961e+01   5.360310e+01
   1.071488e+01   1.257127e+02
  -1.373945e+02   5.340517e+01
  -1.464529e+02  -5.034609e+00
  -2.554702e+01  -5.296418e+01
   4.723445e+01  -3.443735e+01
   8.096024e+01   7.000200e+01
  -1.257044e+02   1.024566e+02
  -2.526103e+02   2.029923e+01
  -2.377072e+02  -1.156430e+02
  -4.388467e+01  -2.356299e+02
   1.545080e+02  -2.275679e+02
   2.617785e+02  -9.520513e+01
   1.463263e+02   6.806131e+01
  -2.222483e+01   8.261491e+01
  -8.626289e+01  -1.369202e+01
   3.885134e+01  -1.093104e+02
   1.650891e+02  -3.527288e+01
   1.942835e+02   8.605832e+01
   5.551067e+01   1.602450e+02
  -8.792012e+01   1.531635e+02
  -1.176330e+02   1.671763e+01
  -6.469685e+01  -3.223893e+01
   5.432071e+01  -3.270747e+01
   6.754026e+01   7.259488e+01
  -1.886818e+01   9.896787e+01
  -1.701192e+02  -5.794722e+00
  -1.379222e+02  -1.075779e+02
  -2.061088e+01  -2.196581e+02
   1.599119e+02  -1.374935e+02
   2.052699e+02  -3.267591e+01
   6.432890e+01   1.245401e+02
  -7.234138e+01   9.950417e+01
  -7.230394e+01   2.298984e+01
  -1.386072e+01  -3.460840e+01
   2.621945e+01  -3.922239e+01
  -1.556905e+01  -3.183548e+00
  -8.597987e+01  -5.622880e+00
  -1.026288e+02  -8.900869e+01
  -2.248909e+01  -1.506343e+02
   1.104048e+02  -1.365580e+02
   2.439008e+02  -4.427605e+01
   1.927066e+02   1.504238e+02
   4.788589e+01   2.221819e+02
  -1.007692e+02   1.630753e+02
  -1.479586e+02  -4.602339e+00
  -6.641005e+01  -3.226113e+01
   6.027513e-01  -3.513735e+01
  -6.491674e+01   3.054991e+01
  -5.255269e+01   6.924820e+00
  -3.756466e+01  -4.971095e+01
   1.769087e+01  -9.053075e+01
   8.236673e+01  -4.878955e+01
   8.662384e+01   3.094274e+01
   2.041694e+01   6.695629e+01
  -1.616739e+02   6.805000e+01
  -1.929733e+02  -4.707430e+01
  -6.538793e+01  -2.251429e+02
   1.446609e+02  -1.956545e+02
   2.417273e+02  -8.894757e+01
   2.160859e+02   6.797010e+01
   9.683410e+01   1.513838e+02
  -3.547374e+00   1.368763e+02
  -8.782743e+01   7.995240e+01
  -9.126405e+01   3.019549e+01
  -3.391818e+01   1.290799e+01
  -4.092067e+01   4.763633e+01
  -1.030619e+02   6.214053e+00
  -1.192970e+02  -1.456026e+02
  -3.286244e+01  -2.102732e+02
   8.182754e+01  -1.438584e+02
   1.403797e+02  -2.248734e+00
   1.077337e+02   1.177317e+02
   5.363328e+00   1.268033e+02
  -7.177891e+01   5.982219e+01
  -8.128175e+01  -6.702487e+00
  -6.996083e+00  -4.157914e+01
   2.997962e+01  -4.316897e+01
   2.278179e+01   4.591444e+00
  -9.378105e+01   3.833926e+00
  -5.255320e+01  -4.730110e+01
   4.294669e+01  -4.217729e+01
   1.341584e+02  -3.012496e+01
   1.424783e+02   5.698749e+01
   3.630766e+01   6.259679e+01
  -1.297720e+02   5.758352e+01
  -1.286605e+02  -3.209691e+01
  -1.857693e+01  -3.739781e+01
   6.138302e+01  -5.518441e+01
   7.688696e+01   4.218728e+01
   6.527906e+00   5.976231e+01
  -2.513130e+01   7.701399e+01
  -4.211098e+01   2.317582e+00
  -5.296262e+01  -2.424925e+01
  -7.399824e+01  -2.339239e+01
  -6.807064e+01   8.606146e+00
  -5.185618e+01  -7.388725e+00
  -3.219287e+01  -6.023337e+01
  -3.383876e+00  -1.063948e+02
   1.220286e+02  -1.144911e+02
   1.669814e+02  -3.691581e+01
   1.234673e+02   7.917054e+01
   2.726910e+01   9.742986e+01
  -7.979650e+01   5.291331e+01
  -4.393715e+01  -4.546942e+00
   4.636416e+01  -3.442546e+01
   1.243397e+02   2.471389e+01
   4.746268e+01   1.035150e+02
  -8.835992e+01   1.075820e+02
  -1.648058e+02   7.137433e+01
  -1.241709e+02  -1.575556e+01
  -4.555434e+01  -4.823772e+01
   4.201930e+01  -3.299958e+01
   6.462999e+01   1.252498e+01
  -3.308581e+01   6.411091e+01
  -8.576655e+01  -2.347141e+01
  -2.573676e+01  -9.340525e+01
   1.008781e+02  -1.198248e+02
   1.215114e+02  -7.863973e+01
   1.087027e+02   9.171443e+01
   1.230301e+01   1.471410e+02
  -8.639016e+01   1.041121e+02
  -9.712761e+01  -1.573797e+01
  -5.422435e+01  -8.827651e+01
   1.038363e+01  -1.058567e+02
   4.861219e+01  -1.919048e+01
   3.725008e+01   9.632706e+00
   2.345561e+01  -2.687226e+01
   1.018357e+01   4.039316e+00
   3.842626e+01   3.022473e+01
   3.028139e+01   6.605771e+01
   1.845601e+01   8.142915e+01
  -5.563952e+01   5.455714e+01
  -1.204098e+02  -4.173716e+01
  -1.155133e+02  -3.805432e+01
  -9.469616e+00  -1.588927e+01
   7.796599e+01  -2.518241e+01
   8.641727e+01  -1.505526e+01
   8.071193e+00  -5.350215e+00
  -1.186537e+01   2.279226e+01
   2.146590e+00   5.024148e+01
   1.702384e+01  -2.111229e+01
   3.503248e+00  -5.482153e+00
  -5.944932e+01  -5.763140e+00
  -9.472404e+01  -2.351465e+01
  -1.465008e+01  -4.895636e+01
   9.993816e+01  -1.085208e+02
   1.684835e+02  -4.137799e+01
   1.462721e+02   3.896173e+01
   4.478359e+01   1.903855e+02
  -8.625670e+01   1.258868e+02
  -1.101846e+02   9.675871e+01
  -6.050648e+01  -1.392860e+01
  -2.979814e+01  -4.523000e+01
  -1.249987e+01  -3.463731e+01
   5.349221e+00  -2.096517e+01
  -3.104268e+01  -4.752648e+01
  -7.497061e+00  -6.451093e+01
   2.054783e+01  -7.222356e+01
   6.869869e+01   1.793141e-01
   2.436584e+01   8.163138e+01
  -6.456832e+00   9.397834e+01
  -5.646192e+01   1.565454e+01
  -7.965399e+01  -5.031670e+01
  -2.613985e+01  -8.962349e+01
   3.892944e+01  -6.956929e+01
   9.194538e+01   1.757859e+00
   4.543998e+01   2.602625e+01
  -2.282712e+01   5.265649e+01
  -2.668709e+01   1.496833e+01
   3.422220e+01   1.117590e+01
   6.386094e+01  -5.600026e+00
   9.531999e+00   3.170616e+01
  -1.164889e+02   7.999923e+01
  -1.143527e+02   8.435152e+01
  -6.496009e+01  -8.683014e+00
   4.626805e+00  -6.660333e+01
   4.407692e+01  -6.306535e+01
   6.488313e+01   8.545690e+00
   1.530739e+01   7.443966e+01
  -7.749866e+00   4.890148e+01
  -3.682716e+01  -1.749950e+00
  -1.263507e+01  -1.616057e+01
   1.364386e+01  -4.044282e+01
   3.530655e+01   1.620534e+00
   2.807860e+01   1.066522e+01
   2.643429e+01  -9.453887e+00
  -2.550929e+01  -2.380410e+01
  -7.561616e+00  -3.450287e+01
   2.679050e+00   2.290763e+01
  -1.529394e+01   6.326856e+01
  -3.366352e+01   1.861093e+01
  -6.067660e+01  -3.051870e+01
  -3.981309e+01  -5.205503e+01
   2.997286e+01  -1.266445e+01
   6.832149e+01   2.227479e+01
   1.537367e+01   8.756786e+01
  -5.078776e+01   7.858976e+01
  -5.735635e+01  -6.954500e+00
  -7.135268e+01  -1.237700e+01
  -1.669903e+01  -4.434812e+01
   7.156403e+01  -2.909012e+00
   3.675795e+01  -8.202606e+00
  -3.075290e+01   9.895494e+00
  -1.486414e+01  -2.015692e+01
   8.605943e+00  -1.578321e+00
   4.742656e+01  -1.260393e+01
