
 $NMID
 id='ANONYMOUS ', fmtdat='(2E16.6)'
 volume=1.0
 tramp=1.0
 $END
  -3.284731e+03  -2.572789e+02
  -1.847893e+03  -1.806557e+03
   4.918856e+02  -1.740071e+03
   1.467638e+03  -8.052444e+02
   7.839187e+02   7.947965e+01
  -1.383158e+02   2.522412e+02
  -4.251252e+02  -2.594901e+02
   4.829312e+01  -6.565736e+02
   5.875280e+02  -4.642640e+02
   6.539911e+02   3.544358e+01
   2.805881e+02   5.788340e+02
  -1.190051e+02   5.950704e+02
  -3.343559e+02   8.110687e+01
  -1.854891e+02  -4.642163e+02
   1.836249e+02  -5.268009e+02
   4.671119e+02  -5.830886e+01
   2.817830e+02   5.278821e+02
  -2.160579e+02   5.345950e+02
  -4.462643e+02   1.834972e+02
  -4.067457e+02  -1.856265e+02
  -6.733746e+01  -3.597401e+02
   1.712222e+02  -2.094550e+02
   7.931876e+01  -1.697427e+01
  -1.030082e+02  -1.486542e+01
  -2.530456e+02  -2.126152e+02
  -1.233861e+01  -3.595057e+02
   3.882808e+02  -1.679262e+02
   5.800866e+02   1.640541e+02
   1.917282e+02   3.929541e+02
  -2.816643e+02   2.515907e+02
  -4.675761e+02  -1.218387e+02
  -1.830157e+02  -3.229433e+02
   2.272814e+02  -3.387432e+02
   4.325307e+02  -1.260033e+02
   2.863152e+02   1.861515e+02
   3.448857e+01   3.297259e+02
  -8.056920e+01   2.581390e+02
  -4.253495e+01  -1.189682e+02
   1.143792e+02  -2.233642e+02
   1.647998e+02   1.136782e+02
   5.615809e+01   4.319851e+02
  -2.434807e+02   3.852088e+02
  -3.586020e+02  -4.103288e+01
  -1.236670e+02  -3.440206e+02
   2.017118e+02  -1.588193e+02
   2.102765e+02   2.307557e+02
  -7.729707e+01   3.237875e+02
  -4.313065e+02   8.583718e+01
  -4.494111e+02  -3.053995e+02
  -1.290786e+02  -4.393337e+02
   2.872733e+02  -2.435104e+02
   4.779581e+02   7.672749e+01
   2.780380e+02   1.918558e+02
  -7.258607e+01   2.195421e+02
  -2.590975e+02   6.686766e+01
  -1.978579e+02  -7.086203e+01
   4.333394e+01  -1.790386e+01
   4.313442e+01   9.595666e+01
  -1.145632e+02   7.860104e+01
  -2.471548e+02  -5.504170e+01
  -1.299041e+02  -2.151758e+02
   1.565406e+02  -2.188857e+02
   3.006036e+02  -1.149291e+02
   2.126228e+02   1.033118e+02
  -6.916579e+00   2.452977e+02
  -2.551585e+02   3.082267e+02
  -3.226983e+02   1.622209e+02
  -2.344308e+02  -1.240061e+02
  -4.463532e+01  -3.188615e+02
   5.508941e+01  -3.001819e+02
   6.042816e+01  -1.311704e+02
   5.206488e+01  -5.145155e+01
   9.361381e+01  -7.604479e+01
   2.059344e+02  -8.593190e+01
   2.139319e+02   1.090154e+02
   1.042172e+02   2.413732e+02
  -9.031762e+01   2.149371e+02
  -1.650005e+02  -1.909288e+01
  -1.347858e+02  -2.083529e+02
   3.392699e+01  -2.246183e+02
   2.634155e+02  -4.395503e+01
   2.351097e+02   1.582528e+02
   1.157615e+02   3.163192e+02
  -7.261730e+01   2.292954e+02
  -1.851979e+02   1.061725e+02
  -1.407274e+02   4.291340e+01
  -1.236775e+02   6.148931e+01
  -2.301499e+02   6.021947e+01
  -3.436067e+02  -1.180456e+02
  -2.230510e+02  -2.842659e+02
   8.894939e+01  -3.945005e+02
   3.328374e+02  -3.584469e+02
   4.327821e+02  -1.156326e+02
   2.816890e+02   9.409608e+01
   3.998966e+01   2.013239e+02
  -1.226906e+02   2.202303e+02
  -3.508886e+00   1.246222e+01
   9.759103e+01  -5.813985e+01
   1.108171e+02   1.667647e+01
  -1.446889e+01   1.344845e+02
  -1.322033e+02   1.061561e+02
  -1.057256e+02  -7.108750e+01
   5.074164e+01  -1.462953e+02
   1.731217e+02  -9.665525e+00
   1.281128e+02   2.380271e+02
  -4.743103e+01   3.077876e+02
  -2.422201e+02   1.629359e+02
  -2.764799e+02  -8.949534e+01
  -2.242322e+02  -2.752083e+02
  -5.387934e+01  -2.797248e+02
   1.302932e+02  -1.328728e+02
   1.460205e+02   1.111274e+01
   2.576673e+01   1.785909e+01
  -5.833323e+01  -5.064254e+01
   6.024286e+00  -1.044767e+02
   1.178365e+02  -6.046078e+01
   1.458601e+02   1.786186e+00
   4.395133e+01   3.495660e+01
  -6.313400e+01  -1.784963e+01
  -1.797486e+01  -8.234295e+01
   1.613753e+02  -5.450343e+01
   2.875256e+02   2.564646e+01
   2.114493e+02   1.656251e+02
   1.620709e+01   2.291460e+02
  -2.137884e+02   2.000744e+02
  -2.413499e+02   7.213961e+01
  -1.717079e+02  -5.393884e+01
   2.350043e+01  -9.792224e+01
   9.530141e+01   7.645257e+00
  -6.029781e+01   7.807009e+01
  -1.484794e+02  -9.225732e+00
  -1.550773e+02  -1.072645e+02
  -1.777576e+01  -1.644995e+02
   6.458617e+01  -1.168354e+02
   1.471892e+02  -5.506571e+00
   1.963640e+01   2.960585e+01
  -6.174271e+01  -9.611170e-01
  -1.084206e+01  -1.091564e+02
   7.251412e+01  -1.242039e+02
   2.222374e+02  -4.116846e+00
   1.256910e+02   1.504358e+02
   1.133636e+01   1.771054e+02
  -1.645327e+02   1.029164e+02
  -1.697312e+02   6.903144e+00
  -2.613683e+01  -6.925085e+01
   4.514345e+01  -4.882525e+01
   6.392492e+01  -3.316318e+01
   1.164751e+01   2.447358e+01
  -1.888039e+01   1.496976e+01
   2.519853e+01   1.263946e+01
   7.914248e+01   1.997170e+01
   9.057345e+01   9.630855e+01
   5.889905e+00   1.245096e+02
  -9.777073e+01   1.291508e+02
  -2.505999e+02   6.873177e+00
  -1.530191e+02  -1.382955e+02
  -2.928715e+01  -2.300842e+02
   1.180370e+02  -1.444037e+02
   1.098773e+02  -5.260609e+01
   5.891403e+01   4.674297e+01
   2.582512e+01   4.287951e+01
   5.946130e+01  -3.093643e+01
   7.985915e+01  -6.000033e+00
   2.293923e+01   4.472349e+01
  -5.185256e+01   6.865705e+01
  -9.687632e+01   4.739335e+01
  -3.716229e+01  -4.626267e+01
   1.969439e+01  -9.685072e+01
   1.582872e+02  -7.932684e+01
   1.822849e+02   5.348353e+01
   8.027474e+01   1.792246e+02
  -8.550103e+01   2.220374e+02
  -2.616788e+02   8.213485e+01
  -2.299909e+02  -8.447354e+01
  -5.677243e+01  -1.475926e+02
   2.291219e+01  -1.429272e+02
   1.114524e+02  -7.428609e+01
   6.706934e+01  -5.166531e+01
   6.781572e+01  -3.752275e+01
   6.697589e+01  -5.508762e+01
   1.046964e+02   3.289236e+01
   7.468968e+01   1.388735e+02
  -7.813967e+00   1.614497e+02
  -9.795943e+01   1.556200e+02
  -1.235174e+02  -4.014764e+00
  -1.137139e+02  -8.349467e+01
   6.754769e+00  -9.432133e+01
   6.492391e+01  -7.542021e+01
   7.206493e+01   1.931474e+01
   4.434612e+00   3.005493e+01
  -3.237580e+01   4.618639e+01
   4.638407e+00   2.353409e+01
   6.178446e+01   1.811995e+01
   6.727508e+01   2.833229e+01
  -4.895743e+01   2.357695e+01
  -1.135310e+02  -2.740545e+01
  -1.070401e+02  -8.417008e+01
  -1.959721e+00  -6.565925e+01
   1.126601e+02  -5.213936e+01
   1.308775e+02   2.725033e+00
   2.745336e+01   2.022287e+01
  -3.492969e+01   1.856207e+01
  -6.740710e+01  -2.253457e+01
  -1.619178e+01  -5.047587e+01
   5.721100e+01  -4.405490e+01
   7.445207e+01  -1.328016e+01
   4.108181e+01   6.374019e+01
   4.638161e+01   1.061267e+01
   4.028207e+01  -4.332961e+00
   6.163997e+01   1.402696e+01
   1.118578e+01   9.263370e+01
  -1.518317e+01   1.476244e+02
  -1.725823e+02   1.072427e+02
  -1.529175e+02   2.464649e+01
  -8.985489e+01  -8.688545e+01
  -3.193042e+00  -9.846389e+01
   7.384723e+01  -2.924418e+01
   5.051926e+01  -1.048980e+01
  -3.694574e+01  -1.079417e+01
  -7.810412e+01  -2.319021e+01
  -4.218062e+01  -9.329381e+01
   5.705895e+01  -8.746099e+01
   1.603867e+02  -3.753472e+01
   1.328275e+02   3.703831e+01
   1.196382e+01   7.783889e+01
  -5.421126e+01   4.355955e+01
  -5.980513e+01  -2.763303e+01
   1.860550e+01  -4.859425e+01
   9.515379e+01   2.034308e+01
   2.364784e+01   9.604701e+01
  -9.386858e+01   1.163243e+02
  -1.419570e+02   5.699435e+01
  -1.075221e+02  -9.726398e+01
   7.554165e+00  -1.733203e+02
   4.302651e+01  -1.165181e+02
   1.106608e+02   1.235810e+01
   4.312334e+01   1.222535e+02
  -1.322270e+01   7.047398e+01
  -3.170879e+01  -7.196318e+00
  -1.103934e+01  -4.615598e+01
  -2.946969e+01   2.907024e+00
  -8.920983e+00   2.149632e+01
  -4.390085e+01  -1.929520e+01
  -3.498702e+01  -9.457755e+01
   1.770144e+01  -9.699474e+01
   3.321866e+01  -2.949184e+01
   1.389294e+02   3.497213e+01
   1.197478e+02   5.782314e+01
   1.326219e+01   7.623809e+01
  -7.597187e+01   1.658692e+01
  -6.942223e+01   1.066343e+01
  -2.360729e+01  -2.027042e+01
   2.191522e+01  -6.881631e+00
   6.581337e+00  -1.762735e+01
  -6.506082e+00  -3.674981e+00
   2.128623e+01  -1.126079e+01
   5.381359e+01   2.282338e+01
   8.269423e+01   1.190442e+01
  -2.363029e+00   9.122366e+01
  -1.067137e+02   9.347295e+01
  -1.395910e+02   6.558829e+01
  -1.517955e+02  -4.625552e+01
  -2.852807e+01  -1.634803e+02
   8.343774e+01  -1.195655e+02
   1.048136e+02  -6.348423e+01
   7.086962e+01   1.219453e+01
   2.569805e+01   5.844220e+01
  -1.395232e+01   1.453049e+01
   9.091672e+00   9.868777e+00
   8.300975e+00   1.591671e+01
   2.140559e+01   6.951705e+01
  -1.634323e+01   8.468298e+01
  -4.857979e+01   1.168024e+00
  -6.055098e+01  -9.191179e+01
  -8.423179e+00  -7.482099e+01
   5.757769e+01  -4.925622e+01
   9.726185e+01   3.569953e+01
   3.667853e+01   9.806815e+01
  -6.207863e+01   7.107070e+01
  -8.913023e+01  -2.601388e+01
  -3.261620e+01  -2.614069e+01
   3.443187e+01  -4.443428e+01
   2.890046e+01  -3.543373e+01
  -2.512721e+01   6.622140e+00
  -5.713787e+01   9.159455e+00
  -1.295730e+01  -3.525260e+01
   7.872017e+01  -3.975526e+01
   1.063826e+02  -3.383101e+01
   7.229330e+01   4.006214e+01
  -1.867691e+01   6.063690e+01
  -2.036296e+01   8.757985e+01
  -2.164030e+01   1.497266e+00
   9.240005e+00  -4.294016e+01
   7.716552e+00  -2.780585e+01
   4.364641e+01  -1.196341e+00
   1.967619e+01   4.379826e+01
  -8.494277e+00   3.676881e+01
  -3.034281e+00   1.173884e+01
  -2.182468e+01  -3.483822e+01
  -3.704991e+01  -4.756271e-01
   1.958023e+01   3.072032e+00
   3.722382e+00  -2.271127e+00
   5.079311e+00  -1.683833e+01
   1.564382e-01  -5.839690e+01
   1.002057e+01  -3.082357e+01
   2.630912e+01   6.135017e+01
   1.545944e+01   3.932771e+01
  -9.003116e+00   2.374849e+01
  -8.108702e+01  -5.053377e+01
  -4.595250e+01  -5.267390e+01
   2.863351e+01  -5.167500e+01
   4.315228e+01  -6.820962e-01
   4.507371e+01   3.138159e+01
  -1.235489e+01   2.557332e+01
  -4.972309e+01  -5.153161e+00
  -2.750466e+01  -2.125583e+00
   4.983430e+01   1.787934e+01
   4.335635e+01   2.197450e+01
   7.165101e+00   1.890669e+00
  -5.639187e+01   4.913154e+00
