
 $NMID
 id='ANONYMOUS ', fmtdat='(2E16.6)'
 volume=1.0
 tramp=1.0
 $END
  -1.173818e+03  -2.768957e+02
  -3.361080e+02  -1.158548e+03
   2.957313e+02  -7.386249e+02
   5.210064e+02  -2.531319e+02
   2.564828e+02  -3.998905e+01
  -7.659228e+01  -1.533095e+01
  -4.310481e+01  -1.913304e+02
   1.496907e+02  -1.984311e+02
   2.836671e+02  -7.341803e+01
   1.963907e+02   1.019988e+02
   1.256053e+00   1.943334e+02
  -3.469006e+01   1.898317e+02
  -6.387882e+01   5.337206e+01
  -9.959086e+00  -1.365385e+02
   1.145803e+02  -5.514553e+01
   7.177479e+01   1.385873e+01
   2.393450e+01   8.894201e+01
  -1.063074e+02   1.320191e+02
  -8.945107e+01   5.612340e+01
  -7.129112e+01  -5.743608e+01
  -1.917565e+01  -9.682984e+01
   2.275447e+01  -5.934054e+01
  -1.034136e+01  -5.715287e+01
  -3.958597e+01  -1.419432e+02
  -3.321794e+01  -1.641920e+02
   6.186032e+01  -7.284778e+01
   1.539258e+02   9.653758e+01
   9.668054e+01   1.897313e+02
  -3.998812e+01   1.104487e+02
  -1.190888e+02  -5.612399e+01
  -8.403459e+01  -1.343636e+02
   4.639748e+01  -1.421714e+02
   1.253569e+02  -5.303245e+01
   1.536807e+02   4.884429e+01
   7.970525e+01   7.704133e+01
   1.491218e+00   7.820353e+01
  -1.512860e+01   4.653251e+01
   8.936576e+01  -5.221035e+00
   7.524705e+01   1.149671e+01
  -8.508769e-02   6.797943e+01
  -1.653301e+02   7.468738e+01
  -1.428572e+02   1.022755e+01
  -7.045704e+01  -6.249200e+01
   5.599728e+01  -8.447675e+01
   7.555407e+01  -5.435076e+00
  -2.021751e+01   7.170729e+01
  -1.378616e+02   7.491951e+01
  -1.179432e+02  -1.019387e+02
  -7.321056e+01  -1.819774e+02
   2.995362e+01  -1.933737e+02
   9.011042e+01  -4.463419e+01
   1.399057e+02  -6.282528e+00
   6.892097e+01   7.653629e+01
   6.050916e-01   2.103968e+01
  -3.683726e+01  -3.601318e+01
  -5.959918e+01   1.509475e+01
  -1.279783e+01   3.587418e+01
  -2.628759e+01   2.647692e+01
  -6.460481e+00  -4.083603e+01
  -3.906981e+01  -8.320378e+01
   2.619552e+01  -6.195289e+01
   6.117318e+01  -2.699275e+01
   1.265457e+02  -6.359710e+00
   6.552990e+01   1.951619e+01
  -2.736817e+01   8.349606e+01
  -1.369532e+02   1.190987e+02
  -8.304937e+01   2.647244e+01
  -5.261752e+01  -2.126741e+01
  -2.436894e+01  -1.087135e+02
   8.488607e+01  -1.667368e+02
   1.433700e+01  -7.003273e+01
   5.434096e+01  -3.353922e+01
   7.939389e+01  -9.131258e+00
   8.791206e+01   1.364671e+01
   2.089175e+01   8.138657e+01
  -1.343133e+01   8.730504e+01
  -6.628050e+01   4.535957e+01
  -1.396418e+01  -4.370940e+01
   2.780040e+01  -8.546790e+01
   5.676197e+01  -3.801334e+01
   5.725224e+01   3.437264e+01
   7.791425e+01   1.034791e+02
  -1.519038e+01   9.012969e+01
  -3.756316e+01   2.624808e+01
  -6.125234e+00   1.446015e+01
  -2.776928e+01   1.915273e+01
  -3.222053e+01   3.378601e+01
  -1.072600e+02  -5.533029e+01
  -9.148908e+01  -5.360788e+01
  -1.982655e+01  -1.283871e+02
   4.209398e+01  -7.688796e+01
   1.396866e+02  -6.323032e+01
   1.481076e+02  -6.566422e+00
   5.541810e+01   1.924037e+01
  -2.364164e+01   7.424260e+01
  -8.218062e-01   2.714349e+01
   2.931399e+01   3.274378e+01
   7.592481e+01   3.404826e+01
   2.919023e+01   3.935471e+01
  -6.494381e+01   6.318876e+01
  -7.840142e+01  -1.561622e+01
  -2.522837e+01  -4.885281e+01
   1.633486e+01  -3.819896e+01
   3.944963e+01   2.794027e+01
   2.823893e+01   1.064761e+02
  -6.025505e+01   7.024954e+01
  -7.479341e+01   4.587428e+01
  -7.813457e+01  -1.932698e+01
  -7.619215e+01  -5.867605e+01
   1.476452e+01  -8.785665e+01
   3.239847e+01  -7.867848e+00
   6.351464e+01  -2.183872e+01
   3.835764e+01  -1.206567e+01
   3.092282e+00  -3.204536e+01
   4.144779e+01  -1.153070e+01
   4.019264e+01   2.641236e+01
   3.383988e+01   4.346319e+01
   4.066943e+00   1.156846e+01
  -2.056581e+01  -3.526679e+01
  -2.075186e+01  -3.115494e+01
   6.201823e+01   1.741756e+01
   7.623597e+01   7.280277e+01
   9.636178e+01   5.457302e+01
  -2.454099e+01   2.935275e+01
  -8.842169e+01   5.847906e+01
  -7.045249e+01   2.500081e+01
  -3.232683e+01  -3.176697e+01
   4.260707e+01   4.636949e+00
   5.163392e+00   1.207675e+01
  -1.282704e+01   1.604169e-01
  -9.845104e+01  -4.952583e+01
  -2.752907e+01  -3.647080e+01
   1.024043e+01  -6.286918e+01
   4.845597e+01  -1.427947e+01
  -4.531825e+00  -8.141637e-01
   4.192305e+00  -2.937434e+00
   2.799022e+01  -2.316039e+01
   2.140504e+00  -5.627397e+01
   5.187932e+01  -3.028723e+01
   5.656921e+01   2.606113e+01
   1.419271e+01   3.701221e+01
  -9.861284e+00   4.850583e+01
  -8.115299e+01  -1.651665e+01
  -3.585515e+01  -1.378502e+01
   3.778027e+00  -1.430638e+01
   3.238099e+01  -1.524968e+01
   6.084923e+01   3.073098e+00
   2.711974e+01  -1.146822e+00
   7.409636e+00  -2.408148e+01
   4.497703e+01   2.087934e+01
   2.121078e+01   1.074228e+01
   2.588094e+01   3.634189e+01
  -4.148411e+00   5.452876e+01
  -2.690600e+01   1.084168e+01
  -7.921789e+01  -4.342550e+01
  -6.251317e+01  -4.681889e+01
  -1.835344e+01  -4.983267e+01
   5.583769e+01  -8.454141e+00
   1.406540e+01  -1.286471e+01
   4.284977e+01   2.370198e+01
   2.088155e+01   1.015094e+01
   6.403452e+00   2.853594e+01
   4.635909e+01   2.133699e+01
   1.422572e+01   3.608166e+01
  -2.683371e+01   1.991150e+01
  -3.196187e+01  -3.518277e+01
   5.128654e+00  -9.168153e+00
   2.834376e+01  -4.086272e+01
   6.215317e+01   1.948240e+01
   3.929504e+01   3.763024e+01
  -4.017383e+01   3.198674e+01
  -7.683245e+01   6.943934e+01
  -9.199338e+01  -1.783734e+00
  -3.769336e+01  -7.271657e+01
  -2.215199e+01  -4.002589e+01
   3.705715e+01  -3.907839e+01
   4.958552e+01  -2.522645e+01
   1.476151e+01   1.518515e+01
   4.686698e+01  -3.297829e+01
   4.027039e+01  -3.469421e+01
   3.613585e+01   2.573106e+01
  -4.080489e+00   5.585343e+01
  -7.660687e+00   5.164478e+01
  -2.981848e+01   4.742978e+01
  -3.801533e+01  -6.932696e+00
  -7.318808e+00  -4.502128e+01
   1.135398e+01  -4.578243e+01
   5.742247e+00  -3.579980e+01
  -5.775996e+00  -1.373848e+01
  -1.683085e+01   1.900090e+01
   1.045368e+01   3.006825e+01
   3.256737e+01  -6.426360e+00
   2.279618e+01   2.251222e+01
  -2.323428e+01   3.059195e+01
  -4.590664e+01  -1.182641e+01
  -5.176933e+01  -3.024741e+01
  -3.389914e+01  -3.481026e+01
   2.523694e+01  -3.000984e+01
   6.380274e+01  -2.924085e+00
   4.273743e+01   3.853916e+00
   3.127384e+00  -9.816015e+00
  -3.841031e+01  -3.371566e+01
  -2.516227e+00   5.767560e+00
  -1.286281e+01  -1.068552e+01
   2.259284e+00  -2.760680e+01
   2.277650e+01   2.514332e+00
   3.785298e+01  -3.496448e+00
   2.937203e+01   3.326777e+01
   1.136299e+01   6.537958e+00
   1.684919e+01   1.996731e+01
   6.032156e+00   2.885328e+01
  -7.621737e+01   5.265829e+01
  -3.964598e+01   2.673926e+01
  -6.218612e+01  -3.293077e+01
  -8.985440e+00  -5.655880e+01
  -2.263273e+00  -3.799346e+01
   6.257996e-01  -3.390736e+00
   2.854023e+00  -1.611065e+01
  -9.792186e+00  -3.651337e+01
  -7.568496e+00  -4.071391e+01
  -2.330220e+01  -3.868710e+01
   4.844164e+01  -3.021652e+01
   6.553625e+01   2.448642e+01
   5.205297e+01   3.409172e+01
   5.276691e+00   3.038090e+01
  -4.112319e+01   1.104967e+01
  -2.189403e+01  -2.727931e+01
   2.756494e+01   5.069864e+00
   1.918750e+01   2.630698e+01
  -2.165154e+01   5.488951e+01
  -3.419605e+01   4.965162e+01
  -4.657637e+01   1.302999e+01
  -1.146943e+01  -3.981104e+01
   9.199723e+00  -4.565362e+01
   5.328857e+01  -6.236870e+01
   2.097529e+01   3.468258e+00
  -2.012714e+01   3.859848e+01
   1.275908e+01   3.995435e+01
   3.259058e-01   8.830664e-01
  -1.940989e+01  -1.052213e+01
  -1.376089e+01  -1.793164e+01
   3.528697e+00   1.850074e+01
   9.074738e+00   1.097661e+01
  -6.383549e+00  -3.681125e+01
   1.353941e+01  -2.236430e+01
   2.059257e+01   4.011675e+00
   2.420632e+01   1.840848e+01
   6.765982e+01   5.303265e+01
   2.120020e+01   2.337889e+01
  -3.435335e+01   2.160175e+01
  -3.951093e+01  -2.740474e+00
  -2.371417e+01   2.316562e+01
  -1.562178e+01   1.988231e+01
   1.074688e+01  -1.662713e+01
   7.330273e+00  -1.737793e+01
   6.127832e+00   2.589461e+01
   5.461802e+01   4.011577e+01
   2.585526e+01   3.410899e+01
  -1.641531e+00   2.254190e+01
  -3.130616e+01   1.416487e+01
  -6.402891e+01   3.337948e+01
   6.627707e+00  -2.098422e+01
   1.783035e+01  -1.873625e+01
   2.689114e+01  -2.922920e+01
   3.407260e+01  -3.337128e+01
   3.164876e+01   2.039439e+01
   2.145975e+01   2.899944e+01
  -9.114677e-01  -3.143419e+00
   4.531625e+00   3.004382e+01
  -2.379207e+01   4.780741e+01
   5.981612e+00   4.856983e+01
  -2.695542e+01   1.572849e+01
  -9.922975e+00  -2.526247e+01
  -1.398679e+01  -3.749800e+01
   3.016658e+01  -3.386542e+01
   1.603472e+01   1.892117e+01
  -6.209966e+00   5.229663e+01
   1.979543e+01   2.806525e+01
  -2.181700e+01   7.221256e+00
  -9.079218e+00  -1.822728e+01
   1.012132e+00  -3.446127e+01
   1.405177e+01  -1.106394e+01
  -7.332896e+00   1.015258e+01
  -1.734976e+01   8.257415e+00
  -1.621802e+01  -2.032017e+01
   3.540595e-01  -2.734110e+01
   7.006937e+00  -1.362683e+01
   5.592364e+01  -3.496190e+01
   1.486809e+01   5.289411e+00
  -6.886721e+00   4.961926e+01
  -3.220530e+01   1.508597e+00
  -1.973475e+01   1.988973e+01
  -5.758008e+00  -2.303296e+00
  -1.390932e+01  -3.610290e+01
   1.614945e+00  -8.634329e+00
  -5.931720e+00   2.276996e+01
   2.706038e+00   5.265086e+00
   8.795001e+00   1.438914e+01
  -3.254923e+01   6.426998e+00
  -1.991059e+01  -3.573795e+01
   2.665404e+01  -3.293867e+00
   2.860226e+01   9.353176e+00
   3.524348e+00  -5.625790e+00
  -5.304925e+00  -1.092463e+01
  -1.825039e+01  -1.911884e+01
   1.011045e+01  -1.649458e+01
   7.844000e+00   2.208645e+01
  -5.374510e+00   4.319815e+01
  -1.109905e+01  -1.353326e+01
   1.207264e+01   2.685821e+00
   2.412771e+01   2.267306e+00
  -4.339963e+00  -4.474824e+00
   2.496184e+01   7.369847e-01
  -8.839215e+00   1.452382e+01
  -3.464084e+01  -6.009808e+00
  -5.072313e+00   3.916410e+00
   2.107747e+01  -8.377263e-01
  -9.367966e+00   1.415233e+01
   4.680116e+00   3.666012e+00
  -3.004518e+01   1.804773e+01
