
 $NMID
 id='ANONYMOUS ', fmtdat='(2E16.6)'
 volume=1.0
 tramp=1.0
 $END
  -1.114559e+03   1.079794e+02
  -7.365211e+02  -7.332558e+02
   8.035511e+01  -7.978665e+02
   3.787298e+02  -5.016601e+02
   3.670895e+02  -2.246576e+02
  -1.544794e+01  -3.246477e+01
  -4.069318e+01  -7.812244e-01
   2.645538e+01  -1.412431e+02
   1.522707e+02  -2.473523e+02
   2.308131e+02  -1.054719e+02
   1.562223e+02   8.925660e+01
   3.449934e+01   1.947036e+02
  -8.989702e+01   9.860733e+01
   1.150617e+01  -1.743277e+02
   6.147348e+01  -2.163172e+02
   1.248380e+02  -4.132901e+01
   8.139312e+01   1.790061e+02
  -3.726298e+01   2.986128e+02
  -1.766295e+02   1.161740e+02
  -1.669723e+02  -4.485753e+01
  -1.035179e+02  -1.185116e+02
   2.384746e+01  -1.312909e+02
   2.805789e+01  -2.341143e+01
  -6.540603e+01  -5.895344e+01
  -8.856674e+01  -1.697790e+02
   3.004051e+01  -1.549342e+02
   2.340705e+02   7.302334e+00
   2.314364e+02   1.749845e+02
   5.193200e+01   1.245843e+02
  -1.469723e+02   9.864842e+00
  -1.474997e+02  -1.038547e+02
   5.900001e+00  -1.353907e+02
   1.347922e+02  -1.061130e+02
   1.509627e+02  -4.268235e+01
   9.633082e+01   4.741113e+01
   2.625753e+01   1.384796e+02
   9.314822e+01   1.744523e+01
   7.280356e+01  -2.594244e+01
   1.459702e+02  -3.845356e+01
   3.564386e+01   8.189801e+01
  -4.279603e+01   1.282631e+02
  -1.168668e+02   9.875623e+01
  -1.235889e+02  -5.091212e+01
  -1.171379e+01  -1.254457e+02
   3.198355e+01   1.328836e+01
   3.432635e+01   1.256302e+02
  -1.169559e+02   1.393435e+02
  -1.448100e+02  -3.018148e+01
  -1.843496e+02  -1.493948e+02
  -2.219225e+01  -1.978696e+02
   1.126010e+02  -7.400551e+01
   1.486899e+02   6.685560e+01
   1.034173e+02   1.140625e+02
  -3.206903e+01   7.476119e+01
  -1.067745e+02   4.094298e+01
  -6.687044e+01  -1.322979e+01
  -6.353738e+00   9.054287e+00
   1.883798e+00   2.107336e+01
  -3.273868e+01  -2.237149e+01
  -4.544134e+01  -3.954484e+01
   3.657715e+00  -1.864410e+01
   6.046390e+01  -4.649259e+01
   1.200473e+02  -2.315141e+01
   9.865668e+01   2.090336e+01
  -4.528631e+01   1.378191e+02
  -1.510417e+02   1.318320e+02
  -1.944992e+02   4.989215e+01
  -4.732902e+01  -9.286730e+01
   1.771380e+01  -1.283590e+02
  -1.212199e+01  -1.076513e+02
  -1.392067e+00  -7.882695e+01
   1.216655e+01  -4.568032e+01
   6.179215e+01  -3.627116e+01
   1.172114e+02  -1.793934e+01
   7.068201e+01   6.906799e+01
   1.407725e+01   6.902365e+01
  -3.766969e+01   6.327905e+01
  -3.621112e+01  -6.141719e+01
  -1.123213e+00  -1.067593e+02
   3.059979e+01  -8.509890e+01
   1.151386e+02   2.791952e+00
   1.460995e+02   1.035373e+02
   1.450137e+01   1.306358e+02
  -1.260645e+01   7.482473e+01
  -6.704875e+01   3.153784e+01
  -5.274292e+01   4.571373e+01
  -7.741437e+01   5.449367e+01
  -1.220420e+02   1.336763e+00
  -1.754844e+02  -6.882766e+01
  -1.070177e+02  -1.542339e+02
  -9.553309e-02  -1.631834e+02
   2.391918e+02  -1.406511e+02
   1.724832e+02  -2.688184e+01
   8.867491e+01   4.390987e+01
  -2.926832e+01   1.268140e+02
  -6.685596e+01   5.681629e+01
   9.728102e+00  -9.963866e+00
   6.443709e+01   4.078227e+00
   3.995038e+01   6.019483e+01
  -3.338393e+01   8.242982e+01
  -1.801016e+01   1.479020e+01
  -1.858487e+01  -2.451539e+01
   4.700468e+01  -2.689147e+01
   4.207851e+01   4.440269e+01
  -4.735308e+00   9.748413e+01
  -2.694059e+01   1.208955e+02
  -8.144848e+01   6.552320e+01
  -1.050298e+02  -3.717840e+00
  -7.984327e+01  -9.941528e+01
  -5.331094e+01  -1.288912e+02
   1.858410e+01  -4.473080e+01
   7.026358e+01   2.630286e+01
   6.208544e+00   2.121076e+01
   1.927205e+01  -2.246469e+01
  -2.977442e+00  -4.159254e+01
   1.300826e+01   7.662880e+00
   4.071436e+01   2.501028e+01
   5.906590e+00   1.087858e+01
  -4.613509e+01  -1.694325e+01
  -8.103585e+00  -4.227603e+01
   2.620324e+01  -2.193621e+01
   1.298850e+02   3.313679e+01
   9.773463e+01   8.071566e+01
  -7.018996e+00   1.150506e+02
  -1.073513e+02   7.498751e+01
  -1.270232e+02   1.883105e+01
  -6.278261e+01  -4.686683e+01
   7.565832e-01   3.766382e+00
  -4.259647e+00   1.081669e+01
  -2.558827e+01   3.084816e+00
  -9.681688e+01   4.573323e+00
  -5.772765e+01  -5.861519e+01
   2.149700e+01  -9.616551e+01
   4.728478e+01  -2.859658e+01
   4.434647e+01   3.089534e+00
   1.359382e+01   1.849148e+01
  -5.776564e+00  -5.452169e+00
  -9.946828e+00  -5.180641e+01
   3.437269e+01  -4.898042e+01
   7.480000e+01   3.090150e+01
   4.769766e+01   2.499656e+01
   3.031855e+01   6.193765e+01
  -5.937661e+01   2.212773e+01
  -6.162272e+01   8.178949e+00
  -1.391621e-01  -4.130747e+01
   2.835182e+01  -1.743017e+01
   3.310322e+01   3.758552e+00
  -3.933474e+00   2.136913e+00
  -3.711413e+01  -1.707749e+00
   6.230133e+00   1.097632e+00
   4.166535e+01   2.439992e+01
   5.054846e+01   3.909966e+01
   1.445538e+01   1.010209e+02
  -6.438542e+01   6.018069e+01
  -6.298841e+01   5.794652e+00
  -7.812625e+01  -4.826365e+01
  -3.260338e+01  -5.203652e+01
   5.976204e+01  -2.057523e+01
   4.283191e+01  -3.079733e+01
   3.911434e+01   1.996517e+00
   4.362603e+01   1.191242e+01
  -9.962099e+00  -8.776456e+00
   4.136664e+01   5.884447e+00
   7.139556e+00   1.625223e+01
  -4.453186e+01   2.726748e+01
  -7.173291e+01   5.092077e+01
  -3.915186e+01   7.342392e+00
   2.321283e+00  -3.104254e+01
   6.893638e+01  -2.921105e+01
   3.549115e+01   5.299268e+01
   1.426585e+01   7.033805e+01
  -5.587151e+01   8.608443e+01
  -7.023282e+01   4.997784e+01
  -9.057471e+01  -3.463815e+01
  -3.291704e+01  -7.084209e+01
   1.729473e+01  -6.464155e+01
   3.815047e+01  -2.964225e+01
   3.915364e+01  -2.795960e+01
   3.820925e+01  -3.368885e+01
   2.869620e+01  -2.591750e+01
   4.715427e+01   3.215760e+01
   5.227868e+01   6.941821e+01
   1.956712e+01   1.164661e+02
  -3.406308e+01   6.753941e+01
  -6.849133e+01   2.572735e-01
  -2.778766e+01  -5.977840e+01
   7.001705e-01  -4.881810e+01
  -7.549745e+00  -1.765760e+01
   3.252368e+01   3.309332e+01
   1.061908e+01   3.394282e+01
   1.082804e+01   8.441875e+00
   1.532061e+01   6.021609e+00
   2.951574e+01   5.451291e+00
   4.369831e+00   3.772480e+01
  -2.722928e+01   1.144620e+01
  -9.181313e+01   8.480618e+00
  -6.849881e+01  -2.601090e+01
  -1.009180e+01  -3.993005e+01
   7.550279e+01   1.644969e+01
   3.591592e+01   7.484385e+00
   5.677483e+00   1.261912e+01
  -3.384870e+01   1.186425e+01
  -8.038115e+00  -3.000523e+01
  -2.765339e+01  -3.615624e+01
   2.754313e+01  -3.771905e+01
   5.190480e+01   1.282197e+01
   1.874962e+01   1.030675e+01
   1.085537e+01   8.491685e+00
   1.882618e+01  -9.682969e+00
   3.552948e+01  -2.268018e+01
   7.116620e-01   1.221878e+01
  -3.023832e+01   4.766859e+01
  -6.208350e+01   4.400441e+01
  -9.836559e+01  -6.892679e-01
  -5.619002e+01  -5.638485e+01
   1.296488e+00  -5.353508e+01
   1.394524e+01  -2.499050e+01
   3.158936e+01  -3.000731e+01
  -6.295920e+00  -2.091537e+00
  -6.023480e+01  -3.816093e+01
  -2.107563e+01  -4.674213e+01
   6.395073e+01  -2.787661e+01
   8.146622e+01  -1.003254e+01
   7.197304e+01   1.286745e+01
   2.344613e+01   4.629408e+01
  -1.887493e+01   1.084620e+01
  -9.277095e-01  -3.420558e+01
   3.990090e+01   5.227900e-01
   3.229363e+01  -1.035974e+00
   9.543454e+00   5.714247e+01
  -1.441334e+01   6.124412e+01
  -6.614261e+01   2.776849e+01
  -5.057325e+01  -4.000858e+01
   7.702342e+00  -8.728210e+01
   3.164212e+01  -4.901871e+01
   5.112650e+01   2.082312e+01
   2.101523e+01   4.631266e+01
  -3.107326e+01   4.630652e+01
  -4.262384e+01   1.599147e+01
  -4.675437e+01  -2.763067e+01
  -8.656933e+00   2.582872e+01
  -1.348644e+01  -1.278851e+01
  -4.701220e+00  -1.784644e+01
  -4.314989e+01  -4.242105e+01
  -2.480725e+01  -4.261652e+01
   3.027574e+01  -2.030871e+01
   6.038530e+01   1.422435e+01
   5.307579e+01   2.476196e+01
  -5.223261e+00   1.540223e+01
  -2.792899e+01   1.049664e+01
  -3.540601e+01  -3.483747e+01
   4.688361e-01  -2.301626e+01
   4.800742e+01  -2.027111e+01
   1.026404e+01  -8.922141e-01
  -1.436211e+01   8.149087e+00
  -1.778163e+01  -4.810744e+00
   1.323081e+01  -1.412043e+00
   3.642273e+01   1.217424e+01
   2.211308e+01   3.666503e+01
  -3.665666e+01   9.523655e+01
  -1.168807e+02   2.939676e+01
  -4.656723e+01  -4.202607e+01
   2.576550e+01  -4.992587e+01
   2.590094e+01  -7.139895e+01
   6.125865e+01  -1.254749e+01
   2.695786e+01   1.759379e+01
  -5.192156e-01   1.595077e+01
  -7.821349e-02  -1.851834e+01
   1.550298e+01  -1.211046e+01
   2.817234e+01   1.084263e+01
  -4.104784e+00   2.851351e+01
   6.597121e+00   6.445587e+00
  -2.712551e+01   2.137455e+00
  -3.369139e+01  -3.117637e+01
   1.030830e+01  -5.337010e+01
   5.084235e+01  -1.020558e+01
   2.675221e+01   5.551090e+01
   6.458579e+00   6.411460e+01
  -2.623247e+01  -9.209487e-01
  -4.326172e+01  -1.947039e+01
  -1.169361e+01  -3.601317e+01
   5.420933e+01  -4.046711e+01
   1.808957e+01   1.381583e+01
  -1.368142e+01  -1.198509e+01
  -2.119296e+01  -7.208936e+00
  -1.316507e+01  -1.855597e+01
   2.187354e+01  -3.513112e+01
   3.614013e+01  -3.960194e+01
   1.146099e+01   1.432679e+01
   1.928854e+01   4.678667e+01
  -1.861948e+01   1.816963e+01
  -1.306184e+01   1.976106e+00
  -2.373004e+01  -2.121558e+01
  -6.549518e+00  -6.746953e+00
   1.288395e+01   3.313807e+01
   7.737065e+00   3.125594e+01
   1.073962e+01   2.377009e+01
  -1.111168e+01   6.876846e+00
   1.186979e+01  -4.026736e+01
  -2.002516e+00   7.114048e+00
  -9.048031e+00   2.754746e+00
   5.771978e+00  -3.101138e+00
   9.063173e-01   8.438659e-02
  -1.454222e+01  -2.874503e+01
  -4.535056e-02  -1.002515e+01
   2.753545e+01   2.329220e+01
   3.138853e+01   3.961168e+01
  -3.781496e+01   2.613540e+01
  -4.115271e+00   1.569642e+01
   4.056281e+00  -2.997807e+01
   1.910914e+01  -9.938223e+00
   2.898799e+01   1.947232e+01
   3.420156e+01   1.276584e+01
  -6.011194e+00   3.040536e+01
  -4.421943e+01   4.934030e+00
  -6.050317e+00  -5.418971e+00
   1.402526e+01  -3.479439e+00
   2.187902e+01  -1.258748e+01
  -9.356285e+00  -5.517368e-01
  -3.958968e+01   1.596711e+01
