
 $NMID
 id='ANONYMOUS ', fmtdat='(2E16.6)'
 volume=1.0
 tramp=1.0
 $END
  -3.503175e+03  -4.602524e+02
  -1.877741e+03  -1.601675e+03
   1.157669e+02  -2.169304e+03
   1.473259e+03  -9.738793e+02
   9.151578e+02   2.414071e+02
  -2.333574e+02   3.903900e+02
  -5.507679e+02  -1.168751e+02
  -5.558417e+01  -6.641440e+02
   5.166798e+02  -5.808563e+02
   7.371124e+02  -1.712953e+01
   4.223609e+02   6.236802e+02
  -1.773323e+02   6.274870e+02
  -5.032493e+02   1.840907e+02
  -2.914487e+02  -4.499746e+02
   1.732730e+02  -6.159204e+02
   4.591393e+02  -7.325478e+01
   3.211622e+02   5.037002e+02
  -2.107898e+02   5.407815e+02
  -5.146449e+02   1.516768e+02
  -3.706551e+02  -2.961923e+02
  -6.162942e+01  -3.818216e+02
   2.528084e+02  -2.307083e+02
   1.559055e+02   1.370686e+01
  -1.227253e+02   7.104994e+01
  -3.219659e+02  -1.555882e+02
  -1.083239e+02  -3.604131e+02
   3.231046e+02  -2.893155e+02
   6.098738e+02   1.321014e+02
   2.861311e+02   4.093690e+02
  -2.907920e+02   3.670309e+02
  -5.877189e+02  -6.070773e+01
  -2.691208e+02  -3.935161e+02
   2.064052e+02  -4.357451e+02
   4.537004e+02  -1.736715e+02
   3.148675e+02   2.232399e+02
   4.587115e+01   3.467010e+02
  -1.696844e+02   2.285355e+02
  -1.032729e+02  -1.061216e+02
   1.128609e+02  -3.142724e+02
   2.623808e+02   5.913841e+01
   1.154389e+02   4.065113e+02
  -2.011919e+02   4.876047e+02
  -4.261260e+02  -1.732920e+01
  -1.575704e+02  -3.543921e+02
   2.074969e+02  -2.725070e+02
   2.583036e+02   1.653998e+02
  -3.551392e+01   3.875732e+02
  -4.029162e+02   1.631802e+02
  -4.909718e+02  -2.899809e+02
  -1.299839e+02  -4.530853e+02
   2.844980e+02  -2.987523e+02
   5.288651e+02   9.375710e+01
   2.991319e+02   3.020856e+02
  -1.091077e+02   2.736777e+02
  -3.035905e+02   6.032384e+01
  -1.939953e+02  -1.456005e+02
   7.955185e+01  -8.195548e+01
   1.113623e+02   6.299994e+01
  -8.390359e+01   1.373174e+02
  -2.741677e+02   1.548524e+01
  -1.458052e+02  -2.314312e+02
   1.478750e+02  -2.364983e+02
   3.411904e+02  -7.729991e+01
   2.167848e+02   1.202992e+02
  -2.452237e+01   2.467085e+02
  -2.176830e+02   2.677403e+02
  -3.130060e+02   1.062912e+02
  -2.428370e+02  -1.712477e+02
  -1.791873e+01  -3.684610e+02
   1.270746e+02  -3.010714e+02
   5.112788e+01  -1.090641e+02
   2.730940e+01  -3.310869e+01
   1.056093e+02  -7.970157e+01
   1.978586e+02  -7.307332e+01
   2.416492e+02   8.425746e+01
   1.335110e+02   2.119416e+02
  -3.275324e+01   2.214243e+02
  -1.943383e+02   1.698664e+01
  -1.227890e+02  -2.016628e+02
   1.822794e+01  -2.342906e+02
   2.075610e+02  -8.721527e+01
   2.399517e+02   1.599185e+02
   1.087576e+02   2.383457e+02
  -6.294297e+01   2.412483e+02
  -1.752235e+02   1.168008e+02
  -1.101612e+02  -1.049165e+01
  -1.054226e+02   6.070289e+01
  -1.543911e+02   3.213068e+01
  -2.904279e+02  -7.396787e+01
  -2.555701e+02  -2.827664e+02
  -2.705949e+01  -3.795061e+02
   2.790316e+02  -2.882893e+02
   3.521971e+02  -1.474377e+02
   2.451359e+02   1.219007e+02
   4.658444e+01   2.361015e+02
  -9.535355e+01   2.052865e+02
  -4.249203e+01   4.861033e+01
   7.685965e+01  -4.990073e+01
   1.147735e+02   2.654989e+01
   4.376632e+01   1.618195e+02
  -1.401013e+02   1.357097e+02
  -1.360482e+02  -5.898557e+01
   1.644377e+00  -1.516724e+02
   1.365122e+02  -2.461165e+01
   1.453729e+02   1.657122e+02
  -1.420854e+01   2.588912e+02
  -1.850829e+02   1.752783e+02
  -2.977059e+02  -4.866244e+01
  -2.370303e+02  -2.156897e+02
  -5.599281e+01  -2.519829e+02
   1.139350e+02  -1.063022e+02
   1.172374e+02   6.193232e-01
   3.743582e+01   3.353382e+01
  -5.815645e+01  -3.393866e+01
  -1.182555e+01  -6.558855e+01
   1.151894e+02  -5.052253e+01
   1.284165e+02   3.033490e+01
   3.298493e+01   4.910905e+01
  -9.005705e+01   4.151633e+01
  -3.552156e+01  -4.678579e+01
   9.701547e+01  -7.293999e+01
   1.974892e+02   7.222664e+00
   1.531303e+02   1.539771e+02
   1.789293e+01   2.042002e+02
  -1.683927e+02   1.791669e+02
  -2.114503e+02   1.017304e+02
  -1.216424e+02  -7.908493e+01
   1.150986e+01  -1.085030e+02
   7.710824e+01  -9.920624e+00
  -4.644471e+00   6.181604e+01
  -1.228360e+02   4.577702e+01
  -1.233719e+02  -6.641954e+01
  -3.920014e+01  -1.327756e+02
   1.086263e+02  -1.103896e+02
   1.333608e+02   2.872500e+00
   3.725031e+01   8.874621e+00
  -3.812078e+01   3.340378e+01
  -4.849054e+01  -8.809104e+01
   4.390321e+01  -1.091709e+02
   1.932925e+02  -1.692005e+01
   1.696708e+02   1.352955e+02
   1.003148e+01   1.926363e+02
  -1.455912e+02   1.490807e+02
  -1.761184e+02  -1.216711e+01
  -5.498924e+01  -7.361399e+01
   4.387304e+01  -8.054559e+01
   1.105001e+02  -1.344866e+01
   1.820560e+01   1.692250e+01
  -3.317607e+01   9.534600e+00
   2.344641e+00  -1.961903e+01
   7.945350e+01  -2.735004e+01
   9.749493e+01   9.272358e+01
   1.012683e+01   1.323369e+02
  -1.071518e+02   1.519390e+02
  -2.242474e+02   1.401935e+01
  -1.398723e+02  -1.441877e+02
  -5.194787e+01  -2.075513e+02
   1.020845e+02  -1.467652e+02
   1.262063e+02   9.621427e+00
   8.376565e+01   7.382931e+01
   2.596318e+01   5.053363e+01
   1.989333e+01  -7.151150e+00
   5.455970e+01   1.951905e+01
   1.767555e+01   4.289655e+01
  -1.085023e+01   6.187422e+01
  -1.060127e+02   5.970095e+01
  -8.040465e+01  -4.511479e+01
   9.899778e+00  -9.380531e+01
   1.303685e+02  -1.036103e+02
   1.892201e+02   5.222560e+01
   6.982009e+01   1.807757e+02
  -1.034056e+02   1.949958e+02
  -2.547268e+02   7.982966e+01
  -2.353858e+02  -7.204092e+01
  -7.454569e+01  -1.806521e+02
   4.827516e+01  -1.426431e+02
   5.758536e+01  -6.529033e+01
   4.341091e+01  -5.447180e+00
   1.857672e+01  -6.497228e+01
   8.779481e+01  -7.610761e+01
   1.238112e+02  -1.040975e+01
   8.590982e+01   1.072004e+02
   4.709715e+01   1.886812e+02
  -7.284291e+01   1.314694e+02
  -1.558369e+02   1.048527e+01
  -1.181227e+02  -1.316564e+02
   6.074859e-02  -1.438346e+02
   6.858726e+01  -9.252100e+01
   4.725665e+01   6.039173e+00
  -3.756599e+00   4.004893e+01
  -3.174285e+01   6.008355e+01
   1.449638e+01   2.989703e+00
   6.480014e+01   2.041385e+01
   3.512687e+01   1.649773e+01
  -4.947766e+01   3.472595e+01
  -1.299977e+02  -1.329706e+01
  -1.237191e+02  -5.273472e+01
  -2.599542e+00  -7.080560e+01
   1.075014e+02  -5.972448e+01
   1.117959e+02  -1.406813e+01
   3.855349e+01   3.466869e+01
  -3.896985e+01   4.434531e+01
  -6.298140e+01  -2.071317e+01
  -6.584623e-01  -3.053043e+01
   2.897577e+01  -6.393197e+01
   3.180098e+01  -2.102205e-01
   1.744093e+01   3.746119e+01
   1.180767e+01   2.959711e+01
   4.796299e+01  -1.408222e+01
   5.470820e+01   1.268872e+01
   4.939640e+01   9.294104e+01
  -7.263083e+00   1.592669e+02
  -1.034320e+02   1.202215e+02
  -1.591486e+02   1.720123e+01
  -8.628143e+01  -1.250774e+02
   1.760665e+01  -1.076417e+02
   1.328906e+02  -2.484577e+01
   3.041792e+01   1.647833e+01
  -5.761740e+01   2.615680e+01
  -1.195648e+02  -2.421337e+01
  -5.120653e+01  -5.761234e+01
   5.667084e+01  -8.153673e+01
   1.547191e+02  -4.737259e+01
   1.112451e+02   4.068460e+01
   3.400057e+01   6.457416e+01
  -6.385052e+01   5.403823e+01
  -4.047926e+01  -4.434210e+00
   3.530824e+01  -2.934386e+01
   6.852596e+01   5.573817e-01
   4.924965e+01   1.060071e+02
  -7.426381e+01   1.195846e+02
  -1.133999e+02   2.707234e+01
  -1.316545e+02  -1.323625e+02
  -5.445551e-01  -1.585902e+02
   6.966643e+01  -1.055133e+02
   1.022288e+02   2.103827e+01
   2.546989e+01   9.826703e+01
  -1.886261e+01   7.845348e+01
  -1.495231e+01  -1.965550e+00
  -4.420385e+01  -2.852851e+01
  -2.339780e+01  -3.599687e+00
  -2.931604e+00  -2.290522e+01
  -2.730148e+01  -1.359255e+01
  -7.851426e+01  -5.315300e+01
  -4.619197e+01  -8.918396e+01
   5.277679e+01  -2.779840e+01
   9.387568e+01   1.526878e+01
   1.375716e+02   7.223309e+01
   2.079924e+01   5.571534e+01
  -5.940522e+01   2.162854e+01
  -5.940105e+01   2.511504e+01
   1.300680e+01  -2.031781e+01
   6.360379e+00  -1.713692e+01
   3.387759e+01  -8.603820e+00
  -1.323380e+01   3.247951e+01
  -3.396262e+01   7.004150e+00
   1.351307e+01  -1.624487e+01
   5.497166e+01  -7.639206e+00
  -4.414076e+00   5.494669e+01
  -4.229501e+01   7.017434e+01
  -1.668050e+02   1.684202e+01
  -1.378353e+02  -4.767746e+01
  -1.680354e+01  -1.344347e+02
   5.245646e+01  -1.114221e+02
   1.190083e+02  -3.006964e+01
   4.925306e+01   5.756636e+01
   1.547592e+01   5.774957e+01
  -1.652865e+01   8.289259e+00
   1.434136e+01   4.430501e+00
   4.116955e+00   1.387211e+01
   1.975142e+01   9.026185e+01
  -3.067932e+01   6.301905e+01
  -6.740054e+01  -3.119495e+01
  -7.156253e+01  -9.265412e+01
  -2.011731e+01  -1.053255e+02
   6.142443e+01  -6.518756e+01
   8.616342e+01   3.648124e+01
   1.373947e+01   1.143374e+02
  -4.642666e+01   4.686896e+01
  -8.639410e+01  -2.608455e+01
  -3.107166e+01  -3.562173e+01
   4.662741e+01  -4.603549e+01
   4.669054e+01  -1.879804e+00
  -1.842689e+01   6.517135e+00
  -7.329625e+01   2.573562e+01
  -1.975572e+01  -4.962278e+01
   3.995836e+01  -5.982865e+01
   1.169327e+02  -7.322189e+01
   6.619177e+01   9.591309e+00
   8.680618e+00   6.775807e+01
  -7.020852e+01   8.278861e+01
  -3.054365e+01  -1.473701e+01
   1.235553e+01  -6.696872e+01
   3.426697e+01  -2.808922e+01
   4.631284e+01   3.037733e+01
   1.652667e+01   7.481788e+01
  -1.854244e+01   2.160155e+01
  -2.085684e+01  -4.453970e+00
  -4.314737e+01  -3.822749e+01
  -1.225020e+00  -3.211137e+00
  -3.728660e+00   6.430970e+00
  -1.027519e+01   8.232379e+00
   2.973503e+01  -4.421625e+00
   5.098785e+00  -2.438886e+01
   2.270129e+01  -8.388115e+00
   2.923393e+01   2.519012e+01
   4.675793e+00   4.076439e+01
  -4.466111e+01   2.947508e+01
  -7.764361e+01  -2.830369e+01
  -3.903145e+00  -4.877777e+01
   4.162771e+01  -5.248004e+01
   9.278935e+01   1.586440e+01
   4.342866e+01   4.723533e+01
   1.671601e+01   5.194263e+01
  -5.134401e+01   3.161101e+01
  -2.350834e+01  -1.354266e+01
  -2.776002e+00  -7.035934e+00
   2.372440e+01   2.234519e+01
  -1.455032e+01   1.761604e+01
  -7.059463e+01   1.364513e+01
