
 $NMID
 id='ANONYMOUS ', fmtdat='(2E16.6)'
 volume=1.0
 tramp=1.0
 $END
   1.733839e+03   3.218447e+02
   5.886467e+02   1.349471e+03
  -3.161133e+02   9.339553e+02
  -7.511505e+02   5.006581e+02
  -4.360901e+02   2.485710e+01
   2.638153e+01  -5.991183e+01
   1.789291e+02   8.859921e+01
  -6.111306e+01   2.024969e+02
  -3.530981e+02   2.178804e+02
  -2.703159e+02  -6.008900e+01
  -9.531322e+01  -3.258859e+02
   6.312190e+01  -2.938813e+02
   1.214762e+02  -3.582109e+01
   6.229470e+00   1.742842e+02
  -1.095526e+02   1.752882e+02
  -1.266482e+02   3.139410e+01
  -7.814213e+01  -1.930946e+02
   1.097577e+02  -3.238472e+02
   2.580844e+02  -8.144003e+01
   1.963649e+02   1.076525e+02
   3.339082e+01   1.668235e+02
  -8.660514e+01   9.475108e+01
   2.634395e+00   3.535799e+01
   8.450854e+01   1.339119e+02
   2.792231e+01   2.140299e+02
  -6.465615e+01   1.448299e+02
  -2.248768e+02  -8.250015e+01
  -2.086637e+02  -2.143234e+02
   2.891998e+00  -2.249828e+02
   1.586970e+02   2.322539e+01
   1.439736e+02   1.847951e+02
  -6.093652e+00   1.808814e+02
  -1.829203e+02   9.379120e+01
  -2.030639e+02   1.199926e+01
  -1.408368e+02  -8.632269e+01
   4.115973e+01  -1.338621e+02
  -4.265533e+00  -8.900163e+01
  -1.011766e+02   2.397010e+01
  -9.463428e+01   7.810698e+00
  -2.259962e+01  -1.070594e+02
   1.215767e+02  -2.184265e+02
   1.372218e+02  -5.747833e+01
   9.916537e+01   4.073119e+01
  -8.931252e+01   1.354117e+02
  -1.035418e+02   5.626745e-01
  -2.518087e+01  -1.336657e+02
   1.783552e+02  -1.585933e+02
   1.962971e+02   7.618105e+01
   1.337056e+02   2.582193e+02
   2.314797e+01   2.330490e+02
  -1.541332e+02   8.925338e+01
  -2.340575e+02  -7.402701e+01
  -1.069018e+02  -1.484113e+02
   6.556806e+01  -3.646046e+01
   7.854095e+01   3.067609e+00
   6.896557e+01   1.131334e+01
   1.450034e+01  -2.994011e+01
   2.193126e+01  -2.341478e+01
   3.354142e+01   1.580710e+01
   7.146360e+01   9.738562e+01
  -1.243821e+01   9.189218e+01
  -1.564750e+02   6.602649e+01
  -1.601354e+02   3.572106e+01
  -1.138164e+02  -4.922374e+01
   5.886801e+01  -1.586836e+02
   1.756828e+02  -1.490943e+02
   1.814515e+02  -8.360909e+01
   6.043540e+01   8.533955e+01
  -4.724049e+01   1.865325e+02
  -6.715679e+01   1.720892e+02
   7.271836e+00   8.146501e+01
  -1.914971e+01   7.070890e+01
  -9.206186e+01   6.363428e+01
  -1.183910e+02   8.238636e-01
  -9.168961e+01  -9.786918e+01
   1.031613e+01  -1.248289e+02
   8.089938e+01  -8.565335e+01
   2.922691e+01   6.214000e+01
   9.466224e+00   1.533692e+02
  -5.878189e+01   8.088460e+01
  -1.165132e+02  -3.743541e+01
  -1.222812e+02  -1.343998e+02
  -2.808425e+01  -1.220569e+02
   3.388311e+01  -1.181980e+02
   5.508106e+01  -5.394104e+01
   6.277238e+01  -4.303142e+01
   9.738175e+01  -9.414279e+00
   1.347895e+02   5.011662e+01
   1.951260e+02   8.337459e+01
   1.071944e+02   1.782799e+02
  -1.581292e+01   2.310592e+02
  -2.349683e+02   9.596949e+01
  -2.053149e+02   5.604245e+01
  -1.059734e+02  -9.084442e+01
   6.818051e+01  -1.128955e+02
   7.338934e+01  -6.671922e+01
   4.536337e-01  -3.695525e+01
  -7.908777e+01   1.083574e+01
  -3.347624e+01  -2.405313e+01
   6.028202e+01  -6.196460e+01
   6.816133e+01   4.018815e+00
   2.848612e+01   7.638883e+01
  -4.788112e+01   4.479112e+01
  -8.956266e+01  -2.982346e+01
  -4.446214e+01  -1.535282e+02
   5.829475e+01  -1.549662e+02
   1.243631e+02  -6.998612e+01
   1.578101e+02   2.632665e+01
   1.394969e+02   1.789492e+02
   2.539732e+01   1.234333e+02
  -4.648605e+01   4.242611e+01
  -9.129504e+01  -2.032463e+01
  -2.000639e+01  -2.309110e+01
   1.990093e+01   1.381131e+01
  -2.054379e+01   3.766110e+01
  -7.704185e+01   1.958234e+00
  -7.424879e+01  -3.904195e+01
   1.045389e+01  -1.548889e+01
   6.477772e+01   1.458107e+01
   1.625911e+01   6.180657e+01
  -7.907867e+01  -5.233524e+00
  -1.509984e+02  -7.343511e+01
  -8.850767e+01  -1.207687e+02
   4.665842e+01  -1.164854e+02
   1.192246e+02  -2.235540e+01
   1.206736e+02   6.150428e+00
   3.890873e+01   5.841862e+01
  -4.274673e+01   2.404695e-01
  -2.770809e+01   6.258386e+00
   3.094580e+01   4.290221e+00
   8.416507e+01   1.371001e+01
   4.057811e+01   4.975561e+01
   1.288074e+01   9.472117e+01
  -1.033336e+02   4.102119e+01
  -5.406567e+01  -2.906693e+01
  -5.933896e+00  -6.549973e+00
   1.208071e+01   1.278904e+01
  -9.834047e+00   6.182745e+01
  -3.329907e+01   2.365639e+01
  -1.167947e+02  -2.314055e+01
  -4.432522e+01  -9.831686e+01
   3.760942e+01  -5.124914e+01
   1.004143e+02  -1.492549e+01
   7.649591e+01   4.839934e+01
   1.889856e+01   6.443464e+01
  -2.214925e+01   4.571217e+01
  -5.443015e+01   3.474219e+01
  -2.339370e+01  -1.430320e+00
   2.563706e+01   6.966930e+00
  -8.036027e+00  -2.672734e+00
  -5.204131e+01  -2.274276e+01
  -6.735232e+01  -5.760785e+01
   2.981110e+00  -9.850600e+01
   7.236164e+01  -7.271059e+01
   8.339892e+01   4.465119e+01
   7.444983e+01   7.456769e+01
   1.088442e+01   9.834339e+01
  -5.656679e+01   2.909303e+01
  -6.216087e+01  -7.718102e+00
  -2.776636e+01  -2.196427e+01
  -3.777994e+00   3.933960e+00
  -2.595437e+01   3.346152e+00
  -2.572382e+01   5.419632e+00
  -1.816625e+01  -5.126049e+01
   8.479111e-02  -3.012785e+01
   2.475654e+01  -2.563786e+01
   2.207009e+01   3.035780e+01
   1.920269e+01   6.325585e+01
  -9.375220e+01   1.744170e+01
  -5.944632e+01  -1.018158e+02
  -1.580344e+01  -1.016074e+02
   8.847194e+01  -1.009111e+02
   1.152982e+02  -1.853537e+01
   8.753234e+01   6.966438e+01
   2.311306e+01   1.102421e+02
  -1.232228e+01   6.645478e+01
  -3.157040e+01   1.432513e+01
  -1.556155e+01   8.787043e+00
  -4.126841e+01   4.721819e+01
  -7.203395e+01   4.904775e+01
  -4.586001e+01  -6.274659e+01
  -2.836000e+01  -1.057940e+02
   2.942484e+01  -9.153475e+01
   6.730343e+01  -9.302900e+01
   7.391295e+01   3.418079e+01
   4.935051e+01   7.925978e+01
  -8.718472e+00   7.706321e+01
  -2.784494e+01   5.062864e+01
  -1.660623e+01  -5.227517e+00
   1.524963e+00  -2.538433e+01
   6.508814e+00  -5.524401e+00
  -4.042195e+01   6.858271e+00
  -2.680357e+01  -1.676012e+01
   1.079890e+01  -4.581249e+01
   3.479337e+01   9.741338e+00
   9.245823e+01   5.452243e+01
   5.434521e+01   2.257702e+01
  -5.005588e+00   3.206844e+01
  -8.931689e+01   1.896028e+01
  -7.087124e+01  -1.700884e+01
  -3.490096e+01  -1.869828e+01
   4.928935e+01  -2.048737e+01
   1.320987e+01   3.788878e+01
   1.418169e+01   8.505065e+00
  -2.449684e+01   5.659020e+00
  -2.705785e+01   5.337074e+00
  -1.891374e+01  -1.292120e+01
  -1.742351e+01  -2.605315e+01
  -2.485216e+01   1.724751e-01
  -3.748167e+01  -2.567339e+01
   6.726017e+00  -4.775840e+01
   6.582457e+01  -7.505920e+01
   8.869613e+01  -3.759862e+01
   1.120497e+02   2.506435e+01
   2.201026e+01   6.625003e+01
  -1.251206e+01   7.186572e+01
  -2.198312e+01   3.029287e+01
  -6.822176e+00  -3.679391e+00
   2.682429e+01   3.137411e+01
   3.985036e+01   3.731008e+01
   2.467892e+01   8.525517e+01
  -7.978256e+01   4.388718e+01
  -5.410003e+01  -2.170575e+01
  -4.509944e+01  -4.696802e+01
  -2.803392e+01  -6.587874e+01
   6.874482e+01   7.609606e+00
   5.290273e+00   5.172850e+01
  -3.018439e+01   1.312656e+01
  -4.421517e+01  -3.667513e+01
  -2.378151e+00  -6.556668e+01
   7.167789e+01  -6.415384e+01
   8.963975e+01  -3.587819e+00
   6.843603e+01   5.209049e+01
  -3.520828e+01   7.907678e+01
  -7.738134e+01   4.148273e+01
  -5.340668e+00  -7.051115e+00
  -2.699602e+01  -6.366798e+01
   4.483271e+01  -4.801544e+01
   1.581185e+01   1.402940e+01
   1.739784e+01   1.932438e+01
  -1.126386e+01   5.178196e+00
   1.238474e+01   2.235504e+00
   1.791482e+00   2.784134e+01
   2.579788e+01   1.538956e+01
  -2.539667e+00   3.367685e+01
  -6.742954e+00   1.766167e+01
  -7.284504e+01  -2.370247e+01
  -6.522465e+01  -4.662690e+01
  -9.714175e+00  -5.763590e+01
   1.246832e+01  -7.103488e+00
   5.854343e+01  -1.811385e+00
   2.117470e+01   3.984024e+00
  -1.308903e+01  -3.680819e+00
  -1.909946e+01   1.768873e+01
   8.337466e+00  -1.182376e+01
   9.172384e+00  -1.770833e+01
  -3.951692e+01   1.234056e+01
  -2.459747e+01  -3.231400e+01
   1.204110e+01  -4.692632e+01
   6.436614e+01  -1.471187e+01
   7.723590e+01  -6.177795e+00
   5.590155e+01   4.671962e+01
  -2.319667e+01   7.306164e+01
  -1.676604e+01   7.267921e+01
  -5.001083e+01   3.201229e-01
  -4.836139e+01  -3.900717e+01
   1.105946e+00  -4.525911e+01
  -2.129391e+00   2.369691e+01
  -5.316151e-01  -1.258618e+01
   1.994183e+01  -6.006320e+01
  -2.685985e+00  -6.655933e+01
   1.545565e+01  -2.336255e+01
   4.765105e+01  -3.678005e+00
   1.680275e+01   3.374529e+01
  -2.914657e+01   5.379534e+01
  -4.455440e+01  -1.252399e-01
  -3.328440e+01  -4.998293e+01
   2.112346e+01  -5.878787e+01
   4.796871e+01  -1.150425e+01
   3.949325e+01   3.077804e+00
   9.007474e+00   3.518453e+01
  -2.097989e+01   2.694474e+01
  -1.777366e+01   3.094657e+01
  -6.623895e+00   1.639302e+01
  -6.004074e-01   6.493625e+00
  -3.419149e+01   2.991364e+01
  -1.290279e+01   1.438031e+01
  -6.515945e+01  -2.659664e+00
  -4.455616e+00  -1.209170e+01
   2.048939e+01  -5.423528e+01
   3.283671e+01  -4.773301e+01
   4.422808e+01  -3.941201e+01
   5.487149e+00  -3.924427e+00
  -1.762209e+01   5.523179e+00
   5.164474e+00   9.112247e+00
  -1.327416e+01  -1.369435e+01
  -5.111897e+00  -3.517580e+01
   4.431351e+00  -1.586088e+01
   2.127758e+01   2.367985e+01
   5.308063e+01   1.664094e+01
   7.602153e+00  -7.908110e+00
   1.023435e+01   2.119688e+01
  -1.582843e+01   1.945019e+01
  -8.561496e+00  -8.317695e+00
  -1.768883e+01   3.881209e+00
  -2.364449e+01  -3.683368e+01
  -2.781208e+00  -5.140256e+01
   1.681578e+01  -2.444125e+01
  -2.519785e+01   1.189175e+01
   2.073570e+01   2.857669e+01
  -1.882700e+01  -8.139419e-01
  -1.225038e+01  -1.307178e+01
  -1.169612e+01  -2.753939e+01
   7.206203e-01  -3.303516e+01
   2.077968e+01   1.756396e+01
   5.365492e+00  -2.388268e+01
  -4.341033e+01  -1.846105e+01
  -2.358849e+01  -8.732942e+00
   2.077564e+01   1.192044e+01
   1.767069e+01   1.627950e+00
