
 $NMID
 id='ANONYMOUS ', fmtdat='(2E16.6)'
 volume=1.0
 tramp=1.0
 $END
   2.464825e+03  -6.464435e+01
   1.477811e+03   1.589200e+03
  -4.359919e+02   1.674429e+03
  -1.172970e+03   8.235020e+02
  -8.311331e+02  -7.959879e+00
  -7.700222e+01  -2.254279e+02
   3.934583e+02   7.082112e+01
   5.091726e+00   3.674948e+02
  -3.599049e+02   5.254056e+02
  -5.625135e+02   5.237603e+01
  -3.206868e+02  -4.773920e+02
   4.321104e+01  -5.653445e+02
   2.883658e+02  -2.039366e+02
   2.355674e+02   3.485127e+02
  -9.486029e+01   4.261029e+02
  -3.723814e+02   4.231786e+01
  -2.260988e+02  -4.227559e+02
   1.385085e+02  -5.329712e+02
   4.503552e+02  -2.263545e+02
   3.414741e+02   1.652955e+02
   3.696319e+01   3.178303e+02
  -1.463035e+02   2.034603e+02
  -7.877037e+01   4.879365e+01
   1.143133e+02   7.597439e+01
   2.059443e+02   2.047270e+02
   4.097133e+01   2.685671e+02
  -3.415202e+02   1.777624e+02
  -4.225648e+02  -1.776558e+02
  -2.148186e+02  -3.669317e+02
   2.159719e+02  -2.153769e+02
   4.599767e+02   1.484290e+02
   1.386166e+02   3.070497e+02
  -2.306139e+02   3.163947e+02
  -4.051311e+02   8.295765e+01
  -2.425175e+02  -1.891096e+02
  -1.506949e+00  -2.802326e+02
   3.402849e+01  -1.165160e+02
  -1.868884e+01   6.853340e+01
  -1.083231e+02   1.441419e+02
  -1.265167e+02  -7.903226e+01
  -1.370371e+01  -3.677898e+02
   2.473522e+02  -3.541259e+02
   2.405305e+02  -5.784452e+01
   1.688739e+02   2.874150e+02
  -1.210905e+02   1.567891e+02
  -1.782412e+02  -1.799559e+02
   2.227874e+01  -2.912011e+02
   3.411242e+02  -7.682746e+01
   3.152860e+02   3.249999e+02
   9.188779e+01   4.114933e+02
  -2.543947e+02   2.264742e+02
  -4.363230e+02  -5.839795e+01
  -2.694598e+02  -2.371369e+02
   5.029592e+01  -2.235317e+02
   2.200298e+02  -6.276984e+01
   1.870615e+02   4.784307e+01
   4.072898e+00   2.129397e+01
  -8.499552e+01  -2.662185e+01
   6.769876e+01  -5.783934e+01
   1.604187e+02   2.926108e+01
   1.377470e+02   1.323888e+02
  -7.622388e+01   2.073802e+02
  -3.082585e+02   8.462460e+01
  -2.460036e+02  -8.600857e+01
   4.193052e+01  -2.627088e+02
   2.667504e+02  -2.607305e+02
   3.330161e+02  -8.741277e+01
   2.250655e+02   1.969612e+02
   4.549106e+01   2.837701e+02
  -3.796883e+01   2.662258e+02
  -5.957879e+01   1.240266e+02
  -3.295123e+01   5.906983e+01
  -9.746075e+01   6.321108e+01
  -1.864165e+02   3.599146e+01
  -2.248078e+02  -1.104022e+02
  -9.575549e+01  -2.049640e+02
   7.064160e+01  -1.668072e+02
   1.529668e+02  -9.042770e+00
   1.201173e+02   2.039367e+02
  -4.614950e+01   1.942609e+02
  -1.842679e+02   5.707149e+01
  -2.345009e+02  -1.620895e+02
  -1.296454e+02  -2.643634e+02
   4.401988e+01  -1.893912e+02
   1.326031e+02  -1.431807e+02
   1.559702e+02  -4.702230e+01
   1.066366e+02  -3.711321e+01
   2.238978e+02   1.357814e+01
   3.075416e+02   7.771581e+01
   2.420089e+02   2.632545e+02
  -4.474559e+01   3.967296e+02
  -2.972867e+02   2.899368e+02
  -3.863022e+02   7.165593e+01
  -2.041625e+02  -5.514773e+01
  -2.903673e+01  -2.151850e+02
   7.578374e+01  -1.818168e+02
   2.566119e+01  -7.771007e+01
  -7.016253e+01   6.527920e+01
  -1.206583e+02  -3.502226e+01
   1.060333e+01  -1.151670e+02
   7.764474e+01  -8.983961e+01
   1.011909e+02   4.036229e+01
  -8.988049e+00   1.000575e+02
  -1.412999e+02   2.171708e+00
  -1.274511e+02  -1.835232e+02
   1.821785e+01  -2.829666e+02
   1.901611e+02  -1.684922e+02
   2.800543e+02   4.759276e+01
   2.175484e+02   2.541097e+02
   3.152768e+01   2.290063e+02
  -1.185458e+02   1.293901e+02
  -8.253347e+01  -6.800697e+00
  -5.636508e+01  -2.039501e+01
   2.972854e+01   7.064397e+01
  -3.019690e+01   9.312803e+01
  -1.350725e+02   2.031462e+01
  -1.125935e+02  -3.118396e+01
  -2.483109e+01  -5.716910e+01
   4.415340e+01   6.553892e+00
   1.900256e+01   7.883885e+01
  -1.397118e+02   6.278362e+01
  -2.142100e+02  -3.535624e+01
  -2.104390e+02  -1.282434e+02
  -4.328503e+01  -2.164966e+02
   1.800691e+02  -1.855166e+02
   2.117034e+02  -7.654031e+01
   1.044814e+02   3.528076e+01
   9.521040e+00   3.933498e+01
  -4.178928e+01  -2.015562e+01
   4.482740e+01  -2.791752e+01
   1.743601e+02  -3.854476e+01
   1.173491e+02   8.219068e+01
   2.345008e+01   1.604072e+02
  -1.003415e+02   7.808030e+01
  -7.639164e+01   5.157919e+00
  -1.779766e+01  -1.478521e+01
   4.376671e+01   2.798564e+01
   5.658717e+01   1.016406e+02
  -5.837877e+01   1.063405e+02
  -2.083307e+02   8.685866e+00
  -1.408815e+02  -1.303876e+02
  -2.500957e+01  -1.836333e+02
   1.246583e+02  -1.096264e+02
   1.494234e+02  -2.500029e+01
   6.298359e+01   7.876706e+01
  -4.267798e+01   6.122886e+01
  -7.145412e+01   3.961139e+01
   9.588053e+00  -1.445405e+01
   4.576785e+01  -2.408985e+01
  -6.761781e+00   2.620562e+01
  -6.375719e+01  -2.381418e+01
  -9.673994e+01  -8.585241e+01
  -1.108946e+01  -1.229494e+02
   1.268823e+02  -1.272117e+02
   2.009647e+02   1.988744e+01
   1.451892e+02   1.243948e+02
   1.932380e+01   1.747022e+02
  -1.028628e+02   1.485079e+02
  -7.536988e+01   1.186287e+01
  -7.855060e+01  -4.250201e+01
  -4.436213e+01  -4.345526e+01
  -6.528940e+01  -1.165270e+01
  -5.251580e+01   3.162302e+01
  -7.145790e+01  -6.290029e+01
   3.498743e+01  -1.070315e+02
   1.040598e+02  -6.895317e+01
   9.070548e+01   6.366063e+01
  -1.669368e+01   1.131947e+02
  -1.494172e+02   6.412334e+01
  -1.564232e+02  -6.763508e+01
  -3.338676e+01  -1.689238e+02
   9.729113e+01  -1.481357e+02
   2.265753e+02  -6.762795e+01
   1.921958e+02   8.065822e+01
   6.931022e+01   1.159700e+02
  -4.330159e+01   1.181715e+02
  -1.015047e+02   5.056585e+01
  -9.861308e+01   4.535455e+01
  -6.947679e+01   7.157181e+01
  -7.451831e+01   5.523451e+01
  -9.629595e+01  -4.866870e+01
  -8.237632e+01  -1.471865e+02
  -1.617342e+01  -1.714514e+02
   7.077330e+01  -1.549400e+02
   1.360513e+02  -3.434512e+00
   9.891735e+01   1.082308e+02
   1.694452e+01   1.255442e+02
  -4.816631e+01   8.245962e+01
  -2.614722e+01  -1.733112e+01
   1.013492e+01  -2.747154e+01
   3.090891e+01  -4.027710e+01
  -4.270761e+01  -3.099047e+00
  -7.433797e+01  -2.080152e+01
   2.207393e+00  -6.085283e+01
   5.461525e+01  -2.297935e+01
   1.471453e+02   1.675428e+01
   9.044688e+01   6.017797e+01
  -1.682172e+01   9.525367e+01
  -1.101466e+02   7.278179e+01
  -1.356484e+02  -7.854904e+00
  -6.041146e+01  -4.194324e+01
   5.960155e+01  -1.748571e+01
   7.059982e+01  -8.340064e+00
   4.988741e+01   2.518225e+01
  -7.676493e+01   6.692755e+01
  -5.010938e+01   2.021573e+01
  -1.780154e+01  -3.627970e+01
  -4.123130e+01  -2.841943e+01
  -6.012605e+01  -2.308087e+01
  -7.495370e+01  -9.813225e+00
  -5.031149e+01  -5.831642e+01
   8.480103e-02  -1.296640e+02
   1.181589e+02  -1.290197e+02
   1.628744e+02  -1.892287e+01
   1.007007e+02   1.088539e+02
  -9.463113e+00   8.996519e+01
  -7.553887e+01   4.219332e+01
  -5.432678e+01  -2.070810e+01
   4.109595e+01  -1.644208e+01
   8.624390e+01   3.271847e+01
   5.188632e+01   1.039853e+02
  -6.349437e+01   7.668298e+01
  -1.360700e+02   1.624646e+01
  -1.083249e+02  -1.201292e+01
  -1.776888e+01  -5.540008e+01
   3.098369e+01  -2.838944e+01
   4.660803e+01   1.274374e+01
  -4.428072e+01   1.784822e+01
  -8.825102e+01  -3.032451e+01
  -2.734793e+01  -9.355051e+01
   6.849022e+01  -1.300041e+02
   1.371836e+02  -5.275090e+01
   8.960224e+01   1.009854e+02
  -1.486510e+01   1.536721e+02
  -9.301279e+01   1.102625e+02
  -9.599539e+01  -2.417353e+01
  -4.957725e+01  -9.404142e+01
  -8.579184e+00  -9.878064e+01
   4.893644e+01   3.143546e+00
   8.606521e+01   1.662012e+01
   2.488095e+01   8.653795e+00
   7.369895e-01   2.466860e+00
   2.039484e+01   2.592598e+01
   2.700560e+01   3.851290e+01
   1.902914e+01   7.160942e+01
  -8.109370e+01   2.363647e+01
  -1.124921e+02  -3.410233e+01
  -1.015974e+02  -5.184896e+01
   6.094545e+00  -4.213888e+01
   6.168555e+01  -6.852764e+00
   8.803917e+01   3.767367e+00
   2.518966e+01   2.511367e+01
   8.818748e-01  -2.271720e+01
  -2.506304e+01   1.023830e+01
  -7.823604e+00  -8.901070e+00
  -3.467674e+01  -1.067311e+00
  -4.216575e+01   2.026268e+00
  -7.461751e+01  -4.290698e+01
   9.028775e+00  -6.362737e+01
   9.359652e+01  -9.884867e+01
   1.519210e+02  -3.559441e+01
   1.249716e+02   5.386774e+01
   2.889421e+01   1.157162e+02
  -6.018659e+01   1.407896e+02
  -9.422221e+01   7.314204e+01
  -7.000329e+01  -1.887821e+01
  -3.142590e+01  -4.774058e+01
   7.432095e+00  -4.676324e+00
   4.922277e+00  -9.434279e+00
  -2.936332e+01  -4.718125e+01
  -2.831459e+01  -7.258119e+01
   4.254087e+01  -4.624231e+01
   8.301365e+01   1.436189e+01
   6.852945e+01   6.894004e+01
  -1.267407e+01   1.150250e+02
  -2.588177e+01   3.959157e+01
  -9.037966e+01  -4.360892e+01
  -2.794433e+01  -9.526956e+01
   5.705267e+01  -5.061429e+01
   8.109257e+01   9.427143e+00
   2.497767e+01   3.909861e+01
  -3.411607e+01   4.494876e+01
  -1.490914e+00   1.702406e+01
   5.006854e+01  -5.133087e+00
   5.729504e+01   9.833908e+00
   3.807193e+01   3.414467e+01
  -5.633193e+01   9.345652e+01
  -1.195452e+02   4.036192e+01
  -6.496954e+01  -5.526422e+01
   1.819523e+01  -9.143952e+01
   6.928071e+01  -4.785377e+01
   4.853386e+01  -1.415819e+01
  -1.455389e+01   2.795411e+01
  -4.191314e+01   5.094799e+01
  -2.228139e+01   2.531672e+01
  -2.386568e+01  -6.261359e+01
   2.852669e+00  -3.560311e+01
   4.653238e+01  -1.608983e+01
   1.224991e+01   3.370014e+01
   8.446420e+00   2.452439e+01
  -1.012015e+01  -1.193855e+01
   2.122608e+01  -2.861272e+01
  -1.412064e+00   1.094797e+01
  -6.089780e+00   3.945661e+01
  -3.607276e+00   3.114342e+01
  -3.220385e+01  -3.356406e+01
  -2.580035e+01  -4.901701e+01
   3.328993e+01  -2.051642e+01
   3.867728e+01   2.842433e+01
   3.840913e+01   3.590576e+01
  -4.820101e+01   5.203743e+01
  -6.044491e+01  -1.447928e+01
  -3.520827e+01  -4.972589e+01
   2.110726e+01  -5.871326e+01
   6.763121e+01  -3.093362e+00
   2.700667e+01   1.152950e+01
  -3.474145e+01  -1.394635e+01
  -2.731944e+01  -1.020875e+01
   7.654690e+00   7.710361e+00
   7.848091e+01   1.131656e+01
