
 $NMID
 id='ANONYMOUS ', fmtdat='(2E16.6)'
 volume=1.0
 tramp=1.0
 $END
  -2.500640e+03   2.205165e+02
  -1.965276e+03  -1.133925e+03
  -2.615373e+02  -1.812707e+03
   9.775259e+02  -1.180999e+03
   7.607296e+02  -3.229049e+02
   6.497308e+01   3.264022e+02
  -3.527492e+02   3.444624e+01
  -1.313772e+02  -4.169900e+02
   2.814696e+02  -5.704077e+02
   5.618351e+02  -1.355054e+02
   4.261632e+02   3.418958e+02
   1.093267e+02   5.293930e+02
  -2.544483e+02   2.490306e+02
  -2.481130e+02  -3.015071e+02
  -2.614284e+01  -3.952958e+02
   3.130209e+02  -8.512435e+01
   2.228826e+02   3.864737e+02
  -9.139198e+01   4.843445e+02
  -3.621107e+02   2.666891e+02
  -3.451836e+02  -1.143687e+02
  -1.129235e+02  -2.875628e+02
   3.464589e+01  -2.238725e+02
   2.758587e+01  -8.463357e+01
  -1.458160e+02  -8.133442e+01
  -2.186430e+02  -2.190251e+02
  -2.675210e+00  -2.563530e+02
   3.412743e+02  -1.768454e+02
   5.011848e+02   1.924715e+01
   1.987511e+02   2.430685e+02
  -2.530519e+02   1.619558e+02
  -3.395287e+02  -9.951505e+01
  -1.453121e+02  -2.380072e+02
   1.156158e+02  -2.257809e+02
   3.409743e+02  -6.366700e+01
   2.307850e+02   7.532181e+01
   6.344792e+01   1.968578e+02
   1.740741e+01   1.265691e+02
   2.022560e+01  -8.240256e+01
   1.154154e+02  -1.083731e+02
   1.631369e+02   1.043479e+02
   6.652818e+01   4.308039e+02
  -1.185862e+02   3.818409e+02
  -2.473430e+02   6.726753e+01
  -1.398293e+02  -2.600510e+02
   9.234251e+01  -7.923815e+01
   1.095102e+02   1.645150e+02
  -8.012459e+01   2.609267e+02
  -3.304535e+02   4.444906e+01
  -3.691377e+02  -2.452375e+02
  -1.151436e+02  -3.610586e+02
   2.265333e+02  -1.676655e+02
   3.998349e+02   3.480132e+01
   2.863294e+02   1.352419e+02
  -7.700763e+00   1.537969e+02
  -1.986942e+02   7.824765e+01
  -1.892232e+02   1.603483e+01
  -1.539645e+01  -9.559049e+00
   5.345187e+01   1.065658e+01
  -6.817960e+01   1.790697e+01
  -1.424576e+02  -2.510633e+01
  -9.955442e+01  -1.568252e+02
   1.102005e+02  -1.943867e+02
   2.662152e+02  -1.144769e+02
   2.239106e+02   5.509773e+01
   3.242104e+00   2.539776e+02
  -2.400341e+02   2.575488e+02
  -3.101298e+02   1.791650e+02
  -1.738211e+02  -9.282866e+01
  -8.803142e+01  -3.088955e+02
   3.201438e+01  -2.544504e+02
   5.989071e+00  -1.420925e+02
   5.469528e+01  -9.703757e+01
   1.215495e+02  -9.188789e+01
   2.002689e+02  -4.127482e+01
   1.699710e+02   1.337273e+02
   6.615619e+01   1.956315e+02
  -1.144270e+02   1.687544e+02
  -1.674200e+02  -4.094411e+01
  -1.109411e+02  -1.948910e+02
   2.703921e+01  -1.902551e+02
   1.958723e+02  -3.234112e+01
   2.369252e+02   1.481396e+02
   1.309620e+02   2.205971e+02
  -4.690965e+01   1.969384e+02
  -1.559105e+02   8.840754e+01
  -1.303328e+02   9.155787e+01
  -1.367967e+02   8.516072e+01
  -2.388767e+02   5.820624e+01
  -3.299865e+02  -1.194039e+02
  -2.740076e+02  -2.144284e+02
  -5.623384e+00  -3.596286e+02
   3.342031e+02  -3.749649e+02
   3.733343e+02  -1.495638e+02
   2.261629e+02   5.220036e+01
   6.527432e+00   1.853298e+02
  -6.976746e+01   1.495045e+02
  -2.139876e+01   1.911680e+01
   6.630826e+01  -5.646506e+01
   8.314526e+01   3.783703e+01
   9.259307e+00   8.568168e+01
  -5.584512e+01   1.025534e+02
  -5.597297e+01  -5.053961e+01
   3.183519e+01  -1.182107e+02
   1.503394e+02   3.475283e+01
   1.269324e+02   1.581593e+02
  -4.201686e+00   2.693148e+02
  -1.473086e+02   1.700658e+02
  -2.528420e+02  -2.234157e+01
  -2.489170e+02  -1.727647e+02
  -5.089654e+01  -2.125741e+02
   9.640896e+01  -1.323138e+02
   1.222749e+02  -1.977767e+01
   1.632305e+01   1.737602e-01
  -3.034992e+01  -5.287355e+01
   4.236866e+01  -1.032918e+02
   1.124362e+02  -4.642484e+01
   9.506698e+01   3.899084e+01
   4.763058e+00   2.731028e+01
  -6.903542e+01  -1.540923e+01
   2.697725e+00  -5.032851e+01
   1.052158e+02  -5.751628e+01
   2.455567e+02   1.819002e+01
   1.913313e+02   1.182045e+02
   1.659776e+01   2.102020e+02
  -1.671668e+02   2.047606e+02
  -1.816357e+02   7.899652e+01
  -9.734130e+01  -1.575706e+01
   9.699904e+00  -5.119873e+01
   4.196828e+01  -2.482959e+01
  -4.345268e+01   4.397103e+01
  -1.434883e+02   5.043749e+01
  -1.772207e+02  -8.454715e+01
  -4.057671e+01  -1.255264e+02
   3.425015e+01  -9.453631e+01
   8.659878e+01  -4.961119e+01
   2.043628e+01  -5.653403e+00
  -1.064258e+01  -1.644203e+01
  -2.970323e+00  -7.152637e+01
   9.917891e+01  -7.524178e+01
   1.666776e+02  -5.983560e+00
   1.255482e+02   1.042858e+02
  -9.666381e+00   1.761275e+02
  -1.013635e+02   9.708968e+01
  -1.214148e+02   2.273135e+01
  -1.803203e+01  -5.018867e+01
   6.676179e+01  -5.137412e+01
   4.214189e+01  -1.869023e+01
   2.422829e-01   5.112698e+00
  -2.653496e+01   1.083540e+01
   2.323849e+01  -9.418445e+00
   4.773128e+01   9.894047e+00
   6.925735e+01   8.206742e+01
  -5.901910e+00   1.208709e+02
  -1.207644e+02   1.207244e+02
  -1.699885e+02   4.957321e+00
  -1.596937e+02  -1.282708e+02
  -8.921004e+00  -1.848430e+02
   4.008439e+01  -1.121044e+02
   8.921933e+01  -4.238804e+01
   6.601164e+01   1.708437e+00
   2.578332e+01   3.433031e+01
   5.156758e+01  -1.072596e+01
   7.003838e+01   1.313355e+01
   3.501880e+01   6.992617e+01
  -7.155915e+01   8.681231e+01
  -9.217340e+01   5.940328e+01
  -9.487838e+01  -1.160314e+01
   2.506358e+01  -1.084762e+02
   1.384866e+02  -9.196286e+01
   1.585150e+02   2.836780e+01
   2.374761e+01   1.898687e+02
  -1.192904e+02   1.721947e+02
  -2.234304e+02   4.992876e+01
  -1.923722e+02  -5.734073e+01
  -6.153245e+01  -1.345937e+02
   2.164659e+01  -9.352686e+01
   5.833224e+01  -9.562601e+01
   5.377736e+01  -7.808711e+01
   6.640099e+01  -8.511054e+01
   5.700431e+01  -6.244474e+01
   9.066424e+01   8.716215e+00
   9.087864e+01   1.197654e+02
   1.637893e+01   1.968149e+02
  -6.985867e+01   1.406906e+02
  -1.247469e+02  -1.246392e+01
  -1.343980e+02  -7.779007e+01
  -1.408588e+00  -1.274788e+02
   6.902952e+01  -9.713613e+01
   6.407818e+01  -1.805160e+01
   1.413422e+01   5.108526e+01
  -9.555657e+00   3.969371e+01
   2.637679e+01   1.372753e+01
   8.965199e+01   9.439733e+00
   7.053743e+01   2.782110e+01
  -8.893507e+01   4.586521e+01
  -1.524971e+02   1.160968e+01
  -1.394793e+02  -6.135737e+01
   1.608599e+01  -6.892865e+01
   1.003240e+02  -7.590038e+01
   1.290087e+02  -1.502236e+00
   1.993276e+01   5.485175e+01
  -3.289218e+01   5.457934e+01
  -4.962312e+01  -2.959887e+01
   1.574261e+01  -8.364367e+01
   9.768151e+00  -5.764696e+01
   3.674523e+01  -7.998872e-01
   1.660662e+01   2.052375e+01
   1.533550e+01   2.189272e+01
   4.667087e+01  -7.334657e+00
   3.975015e+01  -6.507426e+00
   2.840500e+01   4.703455e+01
   1.553379e+01   1.018059e+02
  -9.604608e+01   1.203835e+02
  -1.418807e+02   3.244154e+01
  -1.043619e+02  -5.738944e+01
  -1.809601e+01  -9.002426e+01
   9.416634e+01  -6.065470e+01
   2.640708e+01   1.058634e+01
  -4.407450e+01   1.106180e+01
  -1.239495e+02  -1.746880e+01
  -7.473945e+01  -6.452464e+01
   7.831322e+01  -9.788956e+01
   1.552730e+02  -4.174214e+01
   1.167962e+02   3.304000e+00
   3.764440e+01   6.120624e+01
  -3.219460e+01   4.041102e+01
  -2.955864e+01   1.774693e+01
   1.960651e+01  -6.762993e-01
   5.637095e+01   1.108762e+01
   6.513490e+01   8.748496e+01
  -5.852106e+01   1.262596e+02
  -1.080476e+02   7.946742e+01
  -7.435214e+01  -6.057176e+01
  -5.289243e+01  -1.705439e+02
   6.204058e+01  -1.082528e+02
   9.401200e+01   1.557032e+01
   6.217025e+01   6.346414e+01
   1.181229e-01   6.884084e+01
  -4.067488e+01   3.586878e+01
  -2.895319e+01  -2.079754e+01
  -1.935763e+00  -2.009466e+01
  -4.355474e+00   2.300672e+00
  -3.483127e+01  -1.851721e+01
  -5.122675e+01  -4.342258e+01
  -4.450011e+01  -1.057353e+02
   4.745013e+01  -4.285017e+01
   1.217329e+02   1.781219e+01
   7.226000e+01   8.114344e+00
   1.945429e+01   3.551217e+01
  -5.067174e+01   2.089781e+01
  -5.337775e+01  -1.351379e+01
  -3.917452e+01  -2.314182e+01
   1.012618e+01  -7.028921e+00
   1.456073e+01  -2.520180e+00
  -2.601072e+01   2.874285e+00
  -1.280290e+01  -6.360271e-01
   4.855841e+01  -1.811445e+01
   6.951166e+01  -6.163820e+00
   2.802420e+01   5.628195e+01
  -8.938403e+01   8.992479e+01
  -1.353622e+02   7.826230e+01
  -1.242841e+02  -4.038459e+01
  -1.172791e+01  -1.053546e+02
   6.054882e+01  -1.367995e+02
   9.605646e+01  -9.975829e+01
   6.317380e+01   1.474036e+01
   2.175051e+01   4.540063e+01
  -9.885679e+00  -1.532238e+01
  -1.145476e+01   3.091049e+01
   8.719173e+00   5.577649e+01
   1.585628e+01   5.821233e+01
  -1.201799e+01   6.750607e+01
  -7.278500e+01   2.034389e+01
  -5.546920e+01  -7.637782e+01
  -2.592439e+01  -9.499039e+01
   5.479912e+01  -3.614273e+01
   7.921629e+01   2.662827e+01
   5.551955e+01   1.083129e+02
  -2.244365e+01   5.295558e+01
  -6.626206e+01   1.881259e+01
  -3.823807e+01  -2.118917e+01
   7.669568e+00  -5.934232e+01
   2.097512e+01  -5.069284e+01
  -3.498254e+01   6.363673e-01
  -5.924813e+01   9.617875e+00
  -1.263143e+01   8.953338e+00
   6.879715e+01  -5.592381e+01
   1.073455e+02  -4.566360e+01
   6.468838e+01   2.967586e+01
  -3.193286e+00   9.730996e+01
  -6.398462e+01   8.630779e+01
  -2.788628e+01  -1.946339e+01
   7.016383e+00  -4.283577e+01
   3.212409e+01  -5.474840e+01
   3.017678e+01  -2.420787e+01
   2.116102e+01   5.539976e+01
  -3.342710e+00   6.527104e+01
  -4.228724e+01   2.888615e+01
  -3.509150e+01  -3.793238e+01
  -2.689973e+01  -5.633672e+00
   9.649092e+00   3.820123e+00
  -6.217373e+00   4.692614e+01
  -1.663566e+01  -1.685206e+00
  -3.945861e+01  -5.210784e+01
   1.982739e+01  -2.042550e+01
   7.543843e+01   1.629475e+01
   2.713777e+01   5.824596e+01
  -3.370127e+01   3.858360e+01
  -5.019946e+01   1.369901e+01
   2.700099e+01  -3.002059e+01
   5.107624e+01  -3.519053e+01
   9.462000e+01  -2.302282e+01
   3.132105e+01   9.042212e+00
  -2.055193e+01   4.912215e+01
  -4.912751e+01  -1.371477e+01
   7.494654e-01   2.437476e+01
   1.609065e+01  -2.511478e+00
   4.265313e+01   8.823647e+00
  -1.411951e+01   1.587253e+01
  -5.799601e+01   5.018965e+01
