
 $NMID
 id='ANONYMOUS ', fmtdat='(2E16.6)'
 volume=1.0
 tramp=1.0
 $END
   3.030112e+03  -3.675225e+02
   1.962634e+03   1.467930e+03
   1.413700e+02   1.611337e+03
  -9.859628e+02   1.083252e+03
  -8.936649e+02   1.584341e+02
   1.736045e+01  -2.688824e+02
   3.125067e+02  -6.893876e+00
   1.011312e+02   5.249540e+02
  -3.900761e+02   6.246584e+02
  -5.661487e+02   1.265961e+02
  -4.467073e+02  -4.178638e+02
  -6.308718e+01  -6.343659e+02
   2.479808e+02  -2.329422e+02
   2.203148e+02   3.118814e+02
  -4.353362e+01   5.116927e+02
  -3.401952e+02   1.472444e+02
  -2.979511e+02  -4.454871e+02
   1.327321e+02  -5.498862e+02
   4.115309e+02  -2.954682e+02
   4.034722e+02   1.596570e+02
   1.412457e+02   3.292891e+02
  -6.194112e+01   2.223373e+02
  -7.590452e+01   8.146244e+01
   1.284719e+02   5.974871e+01
   2.854190e+02   2.219164e+02
  -7.571929e+00   3.193248e+02
  -3.994493e+02   1.696302e+02
  -5.327995e+02  -7.105856e+01
  -2.467700e+02  -3.198762e+02
   2.480096e+02  -1.984472e+02
   4.339270e+02   5.113368e+01
   2.393444e+02   2.832581e+02
  -1.768875e+02   3.545600e+02
  -3.956378e+02   1.512335e+02
  -3.544839e+02  -1.029057e+02
  -1.107751e+02  -3.055569e+02
   1.334047e+01  -1.940768e+02
   9.514689e-01   8.846715e+01
  -7.288721e+01   1.520330e+02
  -1.883042e+02  -1.145108e+02
  -5.333041e+01  -4.761935e+02
   1.722094e+02  -4.362659e+02
   2.452323e+02  -6.302033e+01
   1.650006e+02   2.371248e+02
  -9.068470e+01   1.740358e+02
  -1.349222e+02  -2.079301e+02
   9.508783e+01  -2.841777e+02
   3.471798e+02  -9.284321e+01
   3.810984e+02   2.935102e+02
   1.619500e+02   4.227845e+02
  -2.442127e+02   2.157304e+02
  -4.458147e+02  -7.381744e+00
  -3.196634e+02  -1.578712e+02
   2.649907e+01  -1.874850e+02
   2.360618e+02  -7.725144e+01
   2.146942e+02  -4.598673e+01
   3.343432e+01   1.745355e+01
  -3.424858e+01  -5.042453e+01
   8.604333e+01  -2.016886e+01
   1.633227e+02   3.402395e+01
   9.163995e+01   1.734285e+02
  -1.036063e+02   2.164734e+02
  -2.811230e+02   1.433965e+02
  -1.861242e+02  -1.029194e+02
   5.904887e+00  -2.904672e+02
   2.472803e+02  -3.203844e+02
   2.876326e+02  -1.597039e+02
   2.116257e+02   1.418028e+02
   8.031818e+01   2.709152e+02
  -3.725106e+01   2.553918e+02
  -5.394996e+01   1.443475e+02
  -8.009216e+01   1.112637e+02
  -1.245314e+02   1.003619e+02
  -2.195617e+02   5.455466e+01
  -1.482069e+02  -1.113003e+02
  -1.042867e+02  -1.964804e+02
   5.643104e+01  -1.525464e+02
   1.539011e+02   1.991771e+01
   1.254226e+02   1.996595e+02
  -2.891937e+01   2.229676e+02
  -1.976445e+02   4.718576e+01
  -2.721502e+02  -1.403736e+02
  -1.567256e+02  -2.535770e+02
   4.003797e+01  -2.453467e+02
   1.526492e+02  -1.741285e+02
   1.239173e+02  -5.869202e+01
   1.358350e+02  -7.869484e+01
   2.320095e+02  -4.727209e+01
   3.488393e+02   1.017480e+02
   3.141457e+02   2.316250e+02
   3.033694e+01   3.344861e+02
  -2.900019e+02   3.754522e+02
  -3.848960e+02   1.951094e+02
  -2.685578e+02  -7.717774e+01
  -3.035359e+01  -2.336142e+02
   1.044394e+02  -1.824929e+02
   1.671360e+01  -6.177566e+00
  -1.188792e+02   5.376665e+01
  -1.027354e+02  -2.657071e+01
  -1.590909e+01  -1.254092e+02
   1.154002e+02  -1.097144e+02
   1.174390e+02   6.891235e+01
   1.339985e+00   1.434158e+02
  -1.159665e+02   6.879335e+00
  -1.631942e+02  -1.924711e+02
  -1.339273e+01  -2.993691e+02
   1.699800e+02  -1.608380e+02
   3.018099e+02   4.772100e+01
   2.898826e+02   2.097739e+02
   4.313422e+01   2.212048e+02
  -9.846100e+01   9.198454e+01
  -9.677072e+01   1.961359e+01
  -8.294168e+00  -1.074794e+01
   4.678427e+01   5.323292e+01
  -1.599655e+01   9.321425e+01
  -1.397412e+02   5.412261e+01
  -1.251313e+02  -6.248474e+01
  -2.962264e+01  -4.532225e+01
   9.065904e+01   3.882524e+01
   1.506620e+01   5.797993e+01
  -1.148167e+02   1.133595e+02
  -2.458393e+02  -2.761628e+01
  -2.451261e+02  -1.189864e+02
  -8.680676e+00  -2.021866e+02
   1.741329e+02  -1.996902e+02
   2.070313e+02  -9.427799e+01
   9.383902e+01   2.945196e+01
  -1.670868e+01   3.864326e+01
  -5.074729e+01  -1.345430e+01
   5.446208e+01  -6.942289e+01
   1.819954e+02  -2.103483e+01
   1.864457e+02   9.843204e+01
   3.153962e+01   1.835833e+02
  -8.088278e+01   1.202261e+02
  -1.345363e+02   2.451829e+01
  -4.240031e+01  -5.065245e+01
   1.805045e+01  -8.253235e-01
   1.242929e+01   6.970614e+01
  -9.072820e+01   1.008850e+02
  -1.869933e+02   6.771063e+00
  -1.545317e+02  -1.271177e+02
   2.514305e+01  -1.773829e+02
   1.082562e+02  -1.366179e+02
   1.995223e+02  -1.894773e+01
   2.665312e+01   9.241898e+01
  -5.709278e+01   1.000280e+02
  -7.612069e+01   4.242543e+01
  -2.048099e+01  -2.738675e+01
   4.406818e+01  -8.690448e+00
  -8.465381e-01   2.152199e+01
  -7.918300e+01  -8.583266e+00
  -1.189393e+02  -7.757103e+01
  -2.993996e+00  -1.714969e+02
   1.204352e+02  -1.345991e+02
   1.824260e+02  -3.350640e+01
   1.795055e+02   1.293877e+02
   2.773188e+01   1.793771e+02
  -7.375969e+01   1.368613e+02
  -1.465516e+02   4.708957e+01
  -9.523928e+01  -2.635713e+01
  -3.841025e+01  -8.349238e+01
  -4.450650e+01  -2.865764e+00
  -5.974436e+01  -2.070772e+01
  -6.141594e+01  -2.340365e+01
   3.489603e+01  -1.182376e+02
   9.781540e+01  -8.142667e+01
   7.705480e+01   3.947114e+01
  -8.001549e+00   9.721508e+01
  -1.410387e+02   8.210756e+01
  -1.524300e+02  -3.038325e+01
  -6.853733e+01  -1.495241e+02
   8.925230e+01  -1.615475e+02
   1.932673e+02  -6.326907e+01
   2.076897e+02   7.106669e+01
   8.039254e+01   1.503552e+02
  -3.634188e+01   1.057202e+02
  -6.046619e+01   8.897704e+01
  -4.800807e+01   5.124104e+01
  -4.653001e+01   7.853525e+01
  -8.317705e+01   7.872389e+01
  -1.029978e+02  -6.170712e+00
  -1.131811e+02  -1.084927e+02
  -1.892069e+01  -1.963043e+02
   8.591900e+01  -1.250756e+02
   1.518457e+02  -1.000042e+01
   9.121963e+01   1.082374e+02
   3.010336e+01   1.499519e+02
  -4.181800e+01   7.942629e+01
  -8.638505e+01  -9.853473e+00
   4.605600e+00  -4.839906e+01
   8.857943e+00  -6.483464e+01
  -3.266998e+01  -1.228207e+01
  -3.514553e+01  -1.520404e+01
  -3.598821e+01  -3.117554e+01
   6.169447e+01  -3.018387e+01
   1.657094e+02  -1.165193e+01
   1.433501e+02   6.413205e+01
  -1.205221e+01   7.732893e+01
  -7.251009e+01   6.571503e+01
  -1.017787e+02   7.063860e+00
  -1.005031e+01  -2.663688e+01
   3.064941e+01  -3.580013e+01
   5.581887e+01   3.703149e+01
   1.846719e+01   8.107318e+01
  -1.838177e+01   5.299873e+01
  -6.868030e+01   2.511298e+01
  -6.297007e+01  -4.651559e+01
  -5.724672e+01  -4.161449e+01
  -7.665406e+01  -1.034554e+01
  -5.332462e+01  -4.786900e+00
  -3.097885e+01  -5.231820e+01
  -2.525863e+01  -9.322461e+01
   9.487707e+01  -1.803844e+02
   1.595828e+02  -1.563021e+01
   1.440096e+02   8.940889e+01
   3.468642e+00   1.195374e+02
  -8.606472e+01   9.284428e+01
  -6.054369e+01   1.319013e+01
   5.184478e+01  -2.138388e+01
   1.430483e+02   2.173243e+01
   3.963203e+01   9.211787e+01
  -4.781567e+01   9.626957e+01
  -2.015036e+02   6.435878e+01
  -1.645414e+02  -2.154476e+01
  -1.366504e+01  -7.376612e+01
   5.940307e+01  -3.100373e+01
   4.456483e+01  -1.302275e+01
  -5.887844e+01  -1.029310e+01
  -8.971876e+01  -4.594412e+00
  -5.648902e+01  -9.572203e+01
   3.755382e+01  -1.377164e+02
   1.286575e+02  -7.408747e+01
   9.812598e+01   7.506099e+01
   5.215016e+01   1.799524e+02
  -4.348448e+01   1.489345e+02
  -8.882395e+01  -1.886834e+01
  -5.944474e+01  -9.476436e+01
   1.975862e+01  -8.832571e+01
   6.596823e+01  -1.519890e-01
   4.032301e+01   3.231773e+01
   1.854833e+00   2.059264e+01
  -9.026441e+00   3.032247e+00
   4.761363e+01  -3.471995e+00
   8.469702e+01   5.107730e+01
   3.205081e+01   7.753383e+01
  -2.973770e+01   5.698395e+01
  -1.325369e+02  -9.062711e+00
  -1.094630e+02  -5.465303e+01
  -1.046701e+01  -4.318128e+01
   9.583793e+01  -1.521591e+01
   6.769512e+01   2.357058e+01
   2.055700e+01  -8.591149e+00
  -5.113308e+00   2.087977e+01
  -4.466115e+01   5.832275e+00
  -1.874334e+00  -2.874262e+01
   1.551547e+01  -1.133523e+01
  -5.365850e+01   1.066903e+00
  -8.876948e+01  -1.179971e+01
  -1.298094e+01  -6.491467e+01
   8.219477e+01  -9.593471e+01
   1.904581e+02  -5.452269e+01
   1.411343e+02   3.367488e+01
   2.438399e+01   1.326497e+02
  -5.380975e+01   1.376488e+02
  -9.961629e+01   9.514850e+01
  -8.020576e+01  -1.402707e+01
  -2.829256e+01  -4.264853e+01
   6.232392e+00  -1.734989e+01
   6.521110e+00  -4.135068e+01
  -3.460309e+01  -5.173157e+01
  -1.349442e+01  -8.370112e+01
   2.565727e+01  -4.625097e+01
   6.376248e+01  -8.456037e+00
   7.194444e+01   1.194306e+02
  -1.532020e+01   1.419591e+02
  -6.470853e+01   2.190921e+01
  -8.608419e+01  -7.161101e+01
  -2.547429e+01  -9.864251e+01
   5.731487e+01  -7.260712e+01
   7.512702e+01   3.974409e+01
   5.482470e+01   5.415964e+01
  -4.130435e+01   7.995810e+01
  -7.516470e+00   2.664594e+01
   1.731670e+01  -3.251492e+01
   6.450106e+01  -1.181203e+01
   2.842211e+01   1.598150e+01
  -4.867945e+01   7.319402e+01
  -8.037735e+01   5.072116e+01
  -7.338697e+01  -2.962510e+01
   1.207725e+00  -7.622523e+01
   3.769860e+01  -6.403342e+01
   6.622858e+01  -1.604117e+01
   2.856675e+01   6.653924e+01
  -2.385378e+01   3.944871e+01
  -5.768954e+01  -4.460600e+00
  -1.876788e+01  -6.787955e+01
  -3.614747e+00  -3.897472e+01
   7.492499e-01  -7.605903e+00
   2.421665e+01  -4.120732e+01
   1.779319e+01  -9.548709e-01
   1.493058e+01  -1.340514e+01
  -3.854753e+00  -2.384818e+01
   4.136959e+01   1.171200e+01
   2.751068e+01   6.915350e+01
  -1.861282e+01   1.096655e+01
  -6.378276e+01  -2.453563e+01
  -1.449715e+01  -7.866739e+01
   5.894456e+01  -4.452881e+01
   8.236533e+01  -4.270231e+00
   3.956403e+01   3.121492e+01
  -5.293024e+01   3.529466e+01
  -9.203224e+01  -1.323710e+01
  -2.673534e+01  -2.547432e+01
   4.843431e+01  -5.375011e+01
   6.976274e+01  -1.286924e+01
   2.870026e+01   6.281800e+00
  -1.518464e+01   1.921099e+01
  -4.608801e+01  -2.716932e+01
   2.628792e+01  -2.176122e+01
   7.188088e+01  -2.247542e+01
