
 $NMID
 id='ANONYMOUS ', fmtdat='(2E16.6)'
 volume=1.0
 tramp=1.0
 $END
  -2.239014e+03  -1.093536e+02
  -1.430489e+03  -1.191387e+03
  -7.634001e+01  -1.062180e+03
   6.114825e+02  -8.858933e+02
   5.904966e+02  -2.226482e+02
   3.799361e+01   4.847673e+01
  -3.019246e+02  -9.558560e+01
  -6.636124e+01  -3.848107e+02
   2.271713e+02  -3.830043e+02
   4.436851e+02  -8.464340e+01
   4.156219e+02   3.205067e+02
   1.569635e-01   4.932244e+02
  -2.482669e+02   1.117543e+02
  -1.474232e+02  -3.202678e+02
   4.719927e+01  -3.780461e+02
   3.064574e+02  -6.842590e+01
   2.311450e+02   3.896034e+02
  -6.157168e+01   4.644221e+02
  -3.470588e+02   1.881037e+02
  -3.400153e+02  -1.298823e+02
  -8.331108e+01  -2.541099e+02
   1.035585e+02  -1.940890e+02
   4.100019e+01  -4.453485e+01
  -1.467504e+02  -4.584629e+01
  -2.055725e+02  -2.317823e+02
   5.769287e+01  -2.948544e+02
   3.997359e+02  -1.417977e+02
   4.488471e+02   1.883669e+02
   1.208006e+02   2.587900e+02
  -2.493704e+02   1.243116e+02
  -3.450407e+02  -1.471062e+02
  -1.173727e+02  -2.739016e+02
   2.379683e+02  -2.417248e+02
   3.137919e+02  -9.260575e+01
   2.456259e+02   9.178235e+01
   2.865282e+01   2.347296e+02
  -1.461939e+01   1.426440e+02
   3.977914e+01  -7.067879e+01
   1.358044e+02  -7.018324e+01
   1.602498e+02   1.371139e+02
  -2.866052e+01   3.799256e+02
  -1.987309e+02   3.144382e+02
  -2.246561e+02  -2.558282e+01
  -9.252176e+01  -2.512876e+02
   1.012155e+02  -1.172230e+02
   9.427284e+01   1.937619e+02
  -5.374073e+01   2.725601e+02
  -3.067501e+02   6.818058e+01
  -3.436942e+02  -1.832943e+02
  -1.008639e+02  -3.418562e+02
   1.892313e+02  -1.998851e+02
   3.523677e+02  -1.002264e+01
   2.358593e+02   1.466703e+02
  -6.321915e+01   1.028063e+02
  -2.013075e+02   6.349618e+01
  -1.484226e+02  -1.443669e+00
  -2.278647e+01  -1.108992e+00
   4.077748e+01   3.340463e+01
  -7.456474e+01   2.190122e+01
  -1.639181e+02  -5.671966e+01
  -7.605119e+01  -1.402200e+02
   1.255056e+02  -1.920472e+02
   2.014537e+02  -1.011359e+02
   1.862240e+02   7.172664e+01
   3.063820e+01   2.380485e+02
  -1.695448e+02   2.818217e+02
  -2.842063e+02   1.249320e+02
  -1.531035e+02  -1.358308e+02
  -2.060848e+01  -2.281214e+02
   2.780046e+01  -1.968993e+02
   1.974728e-02  -1.053865e+02
   2.358275e+01  -7.806394e+01
   1.096048e+02  -9.412103e+01
   1.645632e+02  -1.182616e+01
   1.361787e+02   1.093250e+02
   6.093619e+01   2.167152e+02
  -6.230737e+01   1.393345e+02
  -1.299468e+02  -3.919468e+01
  -5.879140e+01  -1.929642e+02
   3.721115e+01  -1.743884e+02
   1.722768e+02  -5.639701e+01
   1.962792e+02   1.304598e+02
   1.265392e+02   2.210107e+02
  -2.533556e+01   1.976289e+02
  -1.148828e+02   1.076390e+02
  -9.611489e+01   8.462217e+01
  -1.311276e+02   4.307598e+01
  -2.229616e+02   4.433873e+01
  -2.974228e+02  -6.597526e+01
  -2.601385e+02  -2.234374e+02
   1.274512e+01  -3.115438e+02
   2.631949e+02  -2.871070e+02
   3.382115e+02  -1.186204e+02
   1.832393e+02   5.222350e+01
  -1.433717e-01   1.736398e+02
  -6.844237e+01   1.128075e+02
  -7.393481e+00   5.334713e+00
   8.933243e+01  -3.344746e+00
   8.902867e+01   4.678594e+01
   1.326869e+01   1.309101e+02
  -9.223173e+01   6.820444e+01
  -6.300154e+01  -5.135984e+01
   4.407782e+01  -1.037530e+02
   1.092598e+02   9.029977e-01
   8.010129e+01   1.943644e+02
  -1.692417e+00   2.505075e+02
  -1.617052e+02   1.053833e+02
  -2.299871e+02  -5.086769e+01
  -1.426870e+02  -1.934176e+02
  -1.099703e+01  -1.767498e+02
   1.210007e+02  -6.992606e+01
   1.196081e+02   2.810577e+01
   9.290174e+00   1.733112e+01
  -2.942985e+01  -5.812479e+01
   1.876967e+00  -9.755331e+01
   6.925035e+01  -3.141050e+01
   8.299698e+01   2.978923e+01
   1.789274e+01   6.215466e+01
  -8.028110e+01  -4.072604e+01
  -3.842909e+01  -8.388152e+01
   1.413233e+02  -2.351394e+01
   2.293234e+02   1.339554e+01
   2.010907e+02   1.429864e+02
  -1.165404e+01   2.093816e+02
  -1.830084e+02   1.635597e+02
  -1.625145e+02   4.490013e+01
  -7.573771e+01  -6.219049e+01
   1.704787e+01  -5.856139e+01
   3.884281e+01   1.393863e+01
  -8.309916e+01   8.998180e+01
  -1.429750e+02   6.223090e+01
  -1.383596e+02  -9.817759e+01
  -1.127673e+01  -1.774445e+02
   1.068135e+02  -7.352516e+01
   8.793028e+01  -2.199195e+01
   7.251387e+01   4.405882e+01
  -9.487307e+00  -3.457654e+00
  -1.316241e+01  -8.138769e+01
   5.843194e+01  -1.222642e+02
   1.358114e+02   1.011931e+01
   1.382438e+02   8.614258e+01
   1.094542e+01   1.436426e+02
  -1.122118e+02   9.416827e+01
  -1.109368e+02  -9.721636e+00
  -5.032072e+01  -7.687375e+01
   4.350411e+01  -2.569176e+01
   3.927013e+01   4.569369e+00
  -1.474112e+01   2.609512e+01
  -3.901855e+01  -1.806648e+01
   1.405342e+00  -3.824572e+01
   7.236096e+01  -1.063703e+01
   1.124075e+02   8.709278e+01
   1.713363e+01   1.604773e+02
  -1.123905e+02   1.314603e+02
  -1.618840e+02   2.214460e+00
  -1.507019e+02  -1.227388e+02
  -4.954362e+01  -1.492041e+02
   7.240263e+01  -1.038954e+02
   7.925788e+01   6.079414e-01
   6.242641e+01   3.011073e+01
   2.084267e+01   1.765148e+01
   3.264851e+01  -8.443944e+00
   8.103294e+01  -2.941163e+00
   7.288615e+01   3.256009e+01
  -5.032260e-01   1.083057e+02
  -9.288360e+01   6.625473e+01
  -8.082770e+01  -2.821285e+01
  -4.752885e-01  -1.025053e+02
   1.299808e+02  -1.094441e+02
   1.442896e+02   3.875320e+01
   3.898991e+01   1.440914e+02
  -9.111913e+01   1.364325e+02
  -1.730989e+02   3.497541e+01
  -1.430382e+02  -9.626774e+01
  -5.082965e+01  -1.373459e+02
   6.846755e+01  -8.901111e+01
   5.554766e+01  -4.371762e+01
   3.415602e+01  -5.416993e+01
   4.793684e+01  -7.409055e+01
   7.834659e+01  -7.246285e+01
   9.861712e+01  -4.420090e+00
   1.009526e+02   9.614350e+01
  -5.923774e+00   1.839516e+02
  -9.082223e+01   1.300763e+02
  -1.414016e+02   6.165190e+00
  -7.014972e+01  -1.072294e+02
   2.093862e+01  -1.226132e+02
   4.533478e+01  -5.127998e+01
   5.918322e+01   1.436957e+01
   6.785502e+00   4.584156e+01
  -1.228383e+01   2.923650e+01
   2.716462e+01  -2.720960e+01
   6.412446e+01  -7.367649e+00
   3.930667e+01   1.676103e+01
  -5.195282e+01   1.702171e+01
  -1.656565e+02  -1.236829e+01
  -1.333111e+02  -9.654394e+01
  -1.410317e+01  -8.642429e+01
   9.263235e+01  -5.113374e+01
   1.123305e+02   3.219653e+01
   3.266673e+01   2.136635e+01
  -4.730482e+01  -9.320067e+00
  -7.236353e+01  -3.213866e+01
  -2.149398e+01  -7.059470e+01
   6.443747e+01  -2.472212e+01
   4.724107e+01   5.242294e+00
   5.825312e+01   4.241839e+01
   3.332887e+01   2.692648e+01
   3.020617e+01   1.364238e+00
   1.469493e+01   2.805730e+00
   1.587421e+00   2.496906e+01
  -2.169058e+01   1.044804e+02
  -6.996577e+01   1.240421e+02
  -1.355684e+02  -2.067824e+01
  -1.049435e+02  -7.880537e+01
  -2.875198e+01  -9.875012e+01
   6.565528e+01  -5.655501e+01
   5.489217e+01   2.612973e+00
  -3.834526e+01   1.373032e+01
  -9.224491e+01  -3.102558e+01
  -5.291917e+01  -9.010467e+01
   8.430282e+01  -8.838524e+01
   1.725081e+02  -3.685799e+01
   1.173295e+02   5.364278e+01
   3.611592e+01   6.503713e+01
  -7.988083e+01   4.509250e+01
  -4.990150e+01  -1.238235e+01
   6.032522e+01  -1.502615e+01
   7.441992e+01  -5.488168e+00
   3.744129e+01   8.136865e+01
  -4.741393e+01   1.321851e+02
  -1.298986e+02   8.834216e+01
  -6.422355e+01  -2.839804e+01
  -3.783600e+01  -1.503648e+02
   8.747130e+01  -1.170735e+02
   9.449596e+01   1.038466e+00
   1.927782e+01   1.055649e+02
  -3.801101e+01   1.117393e+02
  -4.390768e+01   4.632612e+00
  -2.099131e+01  -3.948709e+01
   4.245546e+00  -9.148724e+00
  -3.855989e+00  -2.213283e+01
  -3.781594e+01   1.396035e+01
  -6.097321e+01  -9.075555e+01
  -1.575549e+01  -7.234649e+01
   1.782491e+01  -2.723756e+01
   9.504893e+01   4.579494e+01
   7.983160e+01   6.367599e+01
  -4.051372e+00   3.259793e+01
  -6.721617e+01   3.232572e+00
  -4.580188e+01  -2.046283e+01
  -1.318362e+00  -8.286430e+00
   3.898622e+01  -2.845283e+01
   9.032051e-01   1.818832e+01
  -1.217553e+01  -6.805235e+00
  -2.142321e+01   2.577558e+01
   6.082044e+01  -1.211303e+01
   9.608405e+01   9.587944e+00
   1.728001e+00   6.219559e+01
  -5.489720e+01   4.933681e+01
  -1.358417e+02   3.650310e+01
  -1.327827e+02  -7.220272e+01
  -3.135653e+01  -1.113063e+02
   5.113963e+01  -1.176704e+02
   6.580409e+01  -9.962136e+01
   6.691357e+01   6.144555e+00
   2.396876e+01   2.178750e+01
   6.599097e+00   6.177900e+00
   4.131475e+01   3.201719e+01
   2.266992e+01   4.204214e+01
   1.423850e+00   8.568866e+01
  -2.836994e+01   2.766796e+01
  -4.641350e+01   1.064856e+01
  -2.742093e+01  -6.429595e+01
   3.538780e+00  -6.575777e+01
   6.333392e+01  -7.890911e+00
   5.390594e+01   7.305438e+01
   9.806730e+00   9.798035e+01
  -4.775957e+01   1.869124e+01
  -5.306709e+01  -6.895513e+00
  -1.240605e+01  -4.431865e+01
   6.666375e+01  -4.029550e+01
   1.970350e+00  -3.569011e+01
  -2.241246e+01  -3.393299e+00
  -2.411418e+01   3.550015e+00
  -2.850755e+00  -2.581537e+01
   5.178093e+01  -4.009336e+01
   6.029689e+01  -4.456595e+01
   3.915842e+01   1.046773e+01
  -4.503387e+00   6.478968e+01
  -2.178669e+01   6.737354e+01
  -5.491207e+01   1.048445e+01
   1.512990e+01  -4.638372e+01
   1.632275e+01  -3.841986e+01
   1.313432e+01   5.091752e+01
   2.110535e+00   5.253934e+01
   5.563145e+01   5.332265e+01
  -2.244719e+01   1.776858e+01
  -1.831372e+01  -2.176185e+01
  -3.094423e+01  -1.373545e+01
   7.279792e+00   1.280288e+01
   3.506659e+01  -5.115638e+00
   8.083298e+00  -2.779314e+01
  -7.872422e+00  -4.648867e+01
   2.965733e+01  -1.345623e+01
   3.781845e+01   4.410199e+01
  -5.529525e+00   4.732311e+01
  -3.867691e+01   3.202254e+01
  -2.466437e+01  -1.696712e+01
  -2.193735e+01  -4.476531e+01
   5.037149e+01  -1.846071e+01
   6.606000e+01  -8.036518e+00
   2.982811e+01   1.032460e+01
  -1.792645e+01   3.531328e+01
  -4.299625e+01   3.461301e+00
   3.490074e+00  -2.809536e+01
   4.860663e+01  -7.801391e+00
   5.298795e+01   2.565564e+01
  -2.151934e+01   1.513658e+01
  -6.430311e+01  -5.617705e+00
