
 $NMID
 id='ANONYMOUS ', fmtdat='(2E16.6)'
 volume=1.0
 tramp=1.0
 $END
   3.003222e+03   1.976076e+02
   2.135440e+03   1.153522e+03
   2.583652e+02   1.846797e+03
  -1.164066e+03   1.157191e+03
  -8.597646e+02   1.103709e+02
  -9.242585e+01  -1.503856e+02
   2.898794e+02   6.342912e+01
   1.036220e+02   5.346564e+02
  -3.646221e+02   5.691962e+02
  -6.238295e+02   1.645249e+02
  -4.280252e+02  -4.409827e+02
  -4.819210e+01  -5.579399e+02
   2.997802e+02  -1.869208e+02
   2.826166e+02   3.613352e+02
  -5.069368e+01   5.051906e+02
  -4.149819e+02   9.542359e+01
  -2.743998e+02  -4.120261e+02
   1.297139e+02  -6.201935e+02
   5.165678e+02  -2.569009e+02
   4.012296e+02   2.089015e+02
   1.217357e+02   3.138171e+02
  -8.924365e+01   2.113165e+02
  -1.151673e+02   8.799833e+01
   1.499884e+02   6.333993e+01
   2.505024e+02   1.744874e+02
   1.681608e+01   3.108295e+02
  -3.377371e+02   1.693433e+02
  -5.059427e+02  -9.376683e+01
  -2.590680e+02  -3.493600e+02
   2.752233e+02  -1.881602e+02
   3.988005e+02   1.203773e+02
   2.247107e+02   3.483710e+02
  -2.175363e+02   3.464203e+02
  -4.164203e+02   1.531926e+02
  -3.502374e+02  -1.685905e+02
  -5.515392e+01  -2.858849e+02
   4.541298e+01  -1.918710e+02
   8.926165e-01   8.617660e+01
  -1.366827e+02   1.997106e+02
  -2.122626e+02  -8.112715e+01
  -9.192472e+01  -4.150870e+02
   1.980896e+02  -4.294620e+02
   3.032521e+02  -3.501939e+01
   1.647222e+02   2.936124e+02
  -9.859311e+01   1.404439e+02
  -1.852462e+02  -2.286178e+02
   9.612364e+01  -3.421575e+02
   4.286006e+02  -7.544372e+01
   5.168436e+02   3.137546e+02
   1.495705e+02   4.578531e+02
  -2.749646e+02   2.395043e+02
  -5.262268e+02  -5.682260e+01
  -3.123894e+02  -1.998440e+02
   4.092742e+01  -2.416350e+02
   2.746088e+02  -6.582148e+01
   1.857665e+02   7.345251e+01
  -3.879519e+00   2.958664e+01
  -8.550033e+01  -5.296767e+01
   9.203108e+01  -6.736853e+01
   2.158808e+02   3.712266e+00
   1.222822e+02   2.137604e+02
  -1.354604e+02   2.248395e+02
  -3.476312e+02   8.767223e+01
  -2.491025e+02  -7.966414e+01
  -6.957550e+00  -3.171910e+02
   2.556974e+02  -3.388967e+02
   3.723833e+02  -1.433319e+02
   2.241065e+02   1.701533e+02
   5.221791e+01   2.886219e+02
  -4.135936e+01   2.491270e+02
  -2.506498e+01   1.378614e+02
  -4.127873e+01   8.140896e+01
  -9.446748e+01   9.927332e+01
  -2.258940e+02   4.973224e+01
  -2.236116e+02  -1.229780e+02
  -8.144427e+01  -2.465332e+02
   1.164838e+02  -1.456620e+02
   1.985519e+02   1.042907e+01
   1.229687e+02   2.333326e+02
  -3.447860e+01   2.393572e+02
  -2.208193e+02   4.570521e+01
  -3.009491e+02  -1.692799e+02
  -1.553646e+02  -2.609141e+02
   5.595341e+01  -2.529525e+02
   1.845724e+02  -9.815385e+01
   1.291462e+02  -8.936325e+01
   1.234955e+02  -6.496680e+01
   2.277107e+02  -7.987829e+01
   3.792293e+02   1.142955e+02
   2.598453e+02   2.702598e+02
  -5.982832e+00   3.667000e+02
  -3.144734e+02   3.702679e+02
  -4.766021e+02   1.432598e+02
  -2.368548e+02  -3.780519e+01
  -1.738294e+01  -2.252823e+02
   9.529868e+01  -2.000117e+02
   2.841295e+01  -5.094269e+01
  -1.072845e+02   3.340932e+01
  -1.093582e+02  -1.104397e+01
   2.672029e+01  -1.245388e+02
   9.177848e+01  -9.866728e+01
   9.249955e+01   4.876303e+01
  -5.595744e+01   1.019965e+02
  -1.467389e+02  -4.097853e+00
  -1.452441e+02  -1.935474e+02
  -2.433556e+01  -2.782385e+02
   2.100578e+02  -1.753361e+02
   3.088785e+02   3.163803e+01
   2.711288e+02   2.199410e+02
   4.738195e+01   2.323185e+02
  -1.175840e+02   1.182755e+02
  -1.193760e+02   8.085376e-01
  -2.316113e+01   1.174118e+01
   6.215493e+01   6.225157e+01
   4.537788e+00   1.182375e+02
  -1.418295e+02   8.401901e+01
  -1.288119e+02  -2.583923e+01
  -3.021979e+01  -2.460400e+01
   7.290961e+01   1.224858e+00
   1.418294e+00   4.160685e+01
  -1.344834e+02   8.449161e+01
  -2.853149e+02  -1.344117e+01
  -2.339901e+02  -1.513139e+02
  -3.772162e+01  -2.385463e+02
   1.485579e+02  -2.514845e+02
   2.420032e+02  -1.176369e+02
   1.256193e+02   1.254502e+01
  -7.054391e+00   6.708868e+01
  -6.028846e+01   3.168841e+00
   4.222834e+01  -6.103448e+01
   1.599881e+02  -3.895030e+01
   1.883098e+02   7.958524e+01
   5.750009e+01   1.653445e+02
  -6.000164e+01   1.346967e+02
  -1.345419e+02   1.808350e+01
  -4.685130e+01  -1.007819e+01
   4.612532e+01   3.656068e+01
  -2.579011e-01   1.092463e+02
  -7.272324e+01   9.077517e+01
  -1.815976e+02   4.548784e+01
  -1.751001e+02  -1.323347e+02
  -1.513676e+01  -2.025810e+02
   1.119667e+02  -1.213030e+02
   1.655036e+02  -4.138904e+01
   6.394847e+01   7.327531e+01
  -7.849925e+01   9.382438e+01
  -9.446906e+01   3.600280e+01
   1.616511e+00  -1.331422e+01
   3.384160e+01  -1.380361e+01
   8.767617e+00   5.055558e+01
  -8.796819e+01   3.546109e+00
  -1.218111e+02  -8.538996e+01
  -2.675176e+00  -1.296626e+02
   1.191459e+02  -1.420435e+02
   2.332476e+02  -1.267965e+01
   1.963525e+02   1.110443e+02
   5.481490e+01   2.061990e+02
  -8.438279e+01   1.400987e+02
  -9.065134e+01   7.926330e+00
  -7.560610e+01  -1.455567e+01
  -4.328118e+01  -8.164330e+01
  -5.409723e+01  -2.236808e+01
  -6.503330e+01  -1.303960e+00
  -6.627740e+01  -4.346317e+01
   3.084029e+01  -7.710881e+01
   1.176474e+02  -8.205651e+01
   9.067231e+01   5.258116e+01
  -1.140364e+01   1.281397e+02
  -1.647757e+02   6.534709e+01
  -1.829054e+02  -3.966608e+01
  -7.587096e+01  -2.294808e+02
   1.490151e+02  -1.770294e+02
   2.647810e+02  -8.617101e+01
   1.916839e+02   4.854315e+01
   9.404834e+01   1.621798e+02
  -7.298220e+00   1.211217e+02
  -7.530018e+01   8.211546e+01
  -6.879817e+01   7.340909e+01
  -4.011507e+01   7.729249e+01
  -7.113982e+01   6.964724e+01
  -1.157704e+02  -1.026011e+01
  -1.156813e+02  -1.188425e+02
  -5.421153e+01  -2.120314e+02
   4.404912e+01  -1.465531e+02
   1.618999e+02  -1.384857e+01
   1.034439e+02   8.446528e+01
   2.347765e+01   1.480857e+02
  -1.205952e+02   7.573028e+01
  -3.994892e+01  -8.386290e+00
   8.937667e+00  -4.825699e+01
   2.398511e+01  -5.738466e+01
  -1.176629e+01  -1.774997e+01
  -1.039145e+02  -7.470461e+00
  -3.547573e+01  -3.961165e+01
   6.860628e+01  -3.691655e+01
   1.538069e+02  -9.722491e+00
   1.329677e+02   7.003051e+01
   1.430920e+01   8.902928e+01
  -1.114464e+02   8.009118e+01
  -1.336488e+02   3.839737e+01
  -3.065555e+01  -4.337790e+01
   5.114862e+01  -1.722175e+01
   4.363508e+01   2.869977e+01
   1.468467e+01   8.867753e+01
  -1.898760e+01   6.235405e+01
  -6.774809e+01  -2.269402e+01
  -5.880772e+01  -3.408177e+01
  -3.138372e+01  -4.921185e+01
  -3.563609e+01   1.956553e+01
  -5.490085e+01   2.768146e+01
  -1.370680e+01  -8.691742e+01
   2.679014e+01  -1.254899e+02
   1.111528e+02  -1.311711e+02
   1.406466e+02  -6.525713e+01
   1.158126e+02   8.352474e+01
  -8.585847e+00   9.428423e+01
  -9.529879e+01   5.486546e+01
  -4.272876e+01  -2.808124e+01
   5.747802e+01  -2.277766e+01
   1.397877e+02   4.320879e+01
   8.052643e+01   7.594459e+01
  -8.219178e+01   1.130277e+02
  -1.688689e+02   2.438265e+01
  -1.228208e+02  -1.746954e+01
   1.261703e+01  -5.329606e+01
   4.131994e+01  -3.619946e+01
   3.093444e+01   4.358189e+00
  -5.672582e+01   2.374636e+01
  -9.795495e+01  -1.622653e+01
  -3.853321e+01  -1.214537e+02
   4.615203e+01  -1.469895e+02
   1.546157e+02  -4.131299e+01
   1.132452e+02   1.014208e+02
   2.668596e+01   1.921909e+02
  -6.989249e+01   1.345192e+02
  -5.754464e+01  -2.201643e+01
  -5.081718e+01  -8.757382e+01
  -3.057686e+00  -6.022484e+01
   6.070150e+01  -1.389759e+00
   1.720429e+01   3.688034e+01
   1.400753e+01   4.141717e+00
   1.893467e+01  -2.889155e+01
   4.849036e+01   4.275161e+01
   5.545396e+01   1.036914e+02
   3.609956e+01   1.005390e+02
  -5.684586e+01   2.940838e+01
  -1.291595e+02  -3.143053e+01
  -1.143459e+02  -4.794485e+01
  -1.418593e+01  -3.693006e+01
   7.870915e+01  -2.212378e+01
   5.094305e+01   1.227775e+01
   1.221932e+01   1.531353e+01
  -3.733132e+01   3.922744e+01
  -2.480348e+01   8.485428e+00
   3.331739e+01  -1.731803e+01
  -2.318791e+00   1.281894e+01
  -5.884972e+01   2.928300e+01
  -9.588082e+01  -1.978588e+01
  -3.458382e+01  -6.412293e+01
   9.670857e+01  -1.126842e+02
   1.552433e+02  -4.945844e+01
   1.331727e+02   3.428370e+01
   1.800063e+01   1.707675e+02
  -6.896292e+01   1.422378e+02
  -1.301433e+02   5.462051e+01
  -1.169093e+02  -2.517824e+01
  -4.745915e+01  -1.468178e+01
   4.050026e+01  -8.724010e+00
  -4.222131e+01  -3.285216e+01
  -2.344998e+01  -4.774434e+01
   2.906630e+01  -1.281578e+02
   2.821878e+01  -7.905817e+01
   7.896096e+01  -2.155512e+00
   8.400526e+01   1.182257e+02
   6.576434e+00   1.107422e+02
  -7.025638e+01   3.578213e+01
  -1.214007e+02  -5.628333e+01
  -1.575868e+01  -1.132976e+02
   2.653354e+01  -7.887225e+01
   7.437048e+01   4.960660e-01
   3.962483e+01   3.421628e+01
  -9.228587e+00   5.631310e+01
  -5.187720e+00   4.065765e+01
   1.837157e+01  -1.451635e+01
   7.346939e+01   4.652616e+00
   7.145080e+00   1.339614e+01
  -7.184048e+01   5.652362e+01
  -1.396155e+02   3.467151e+01
  -8.808991e+01  -4.103565e+01
   4.591895e+00  -1.058897e+02
   6.086686e+01  -9.450892e+01
   4.922091e+01  -1.212944e+01
   4.109596e+01   3.515324e+01
  -2.288149e+01   4.350339e+01
  -3.969533e+01   3.124851e+01
  -8.315514e+00  -4.305328e+01
   3.015991e+00  -3.359063e+01
  -3.122524e+00  -5.043288e+00
   1.987132e+01   2.686579e+01
  -6.509416e+00  -3.629364e+00
  -3.096625e+01  -1.169266e+01
   1.215330e+01  -3.053339e+01
   8.091230e+00   4.401902e+01
   9.005200e+00   5.517492e+01
   1.604786e+01   1.373912e+01
  -3.891833e+01  -4.816127e+01
  -2.743972e+01  -7.827277e+01
   6.201151e+01  -2.133184e+01
   8.527578e+01   8.111124e+00
  -3.713677e+01   4.678836e+01
  -7.804916e+01   5.500570e+01
  -8.468039e+01  -3.919653e+01
  -4.140684e+01  -3.844009e+01
   4.777585e+01  -4.304429e+01
   6.884624e+01  -1.907652e+01
   1.965154e+01  -1.827206e+01
  -3.127918e+01   2.416458e+01
  -6.202628e+01  -3.161510e+01
   1.809563e+01  -9.136805e+00
   9.196608e+01  -2.502737e+01
