
 $NMID
 id='ANONYMOUS ', fmtdat='(2E16.6)'
 volume=1.0
 tramp=1.0
 $END
   2.240886e+03   1.520050e+02
   1.196644e+03   9.015071e+02
  -6.498702e+01   1.427794e+03
  -6.974154e+02   8.962008e+02
  -7.821250e+02   4.083691e+02
  -1.468545e+02  -6.894553e+01
   1.142946e+02   1.344561e+02
  -1.122105e+01   2.583015e+02
  -2.872596e+02   3.162315e+02
  -3.714133e+02   8.836855e+01
  -3.407170e+02  -2.638806e+02
  -6.748406e+01  -4.336003e+02
   1.558621e+02  -1.566817e+02
   1.160761e+02   1.755365e+02
   8.684396e+00   3.373811e+02
  -2.366882e+02   9.646401e+01
  -2.094559e+02  -2.821133e+02
   7.095021e+01  -4.218427e+02
   3.002369e+02  -1.771629e+02
   3.176006e+02   9.641488e+01
   8.284668e+01   2.435125e+02
  -6.482830e+01   1.708810e+02
  -6.601206e+01   7.981865e+01
   7.935472e+01   1.267761e+02
   1.241792e+02   2.375689e+02
  -5.438222e+01   1.978829e+02
  -2.763502e+02   6.834428e+00
  -3.248530e+02  -1.461422e+02
  -1.592866e+02  -2.129251e+02
   2.143530e+02  -6.992325e+01
   2.963836e+02   9.651422e+01
   6.650844e+01   2.278708e+02
  -2.127623e+02   1.589260e+02
  -3.174297e+02   9.622020e+01
  -1.759619e+02  -1.366972e+02
  -2.995048e+01  -1.985453e+02
   1.300195e+01  -1.021857e+02
  -9.248078e+01   3.954467e+01
  -1.274790e+02   6.273564e+01
  -6.721250e+01  -1.281124e+02
   4.801967e+01  -3.244291e+02
   2.107493e+02  -2.226357e+02
   2.053506e+02   3.360471e+00
   1.783214e+01   1.331487e+02
  -2.942270e+01   5.644268e+01
  -4.264549e+01  -2.073924e+02
   9.065395e+01  -1.801256e+02
   3.036260e+02  -2.688366e+01
   2.755561e+02   2.827901e+02
   1.232252e+02   3.309431e+02
  -1.946106e+02   1.989227e+02
  -3.090164e+02  -3.173392e+01
  -2.459841e+02  -1.423331e+02
   4.571179e+00  -1.189784e+02
   1.611550e+02  -7.693872e+01
   1.246466e+02  -3.465991e+01
   2.580436e+01   5.984770e+00
   3.834006e+01  -1.510183e+01
   4.898013e+01   5.446423e+00
   1.297205e+02  -8.426626e-01
   6.775651e+01   8.155125e+01
  -8.020692e+01   1.895483e+02
  -2.637322e+02   1.013621e+02
  -2.065575e+02  -6.192391e+01
  -1.449746e+01  -2.565029e+02
   2.578320e+02  -2.664595e+02
   2.758084e+02  -7.701089e+01
   1.535986e+02   1.278207e+02
  -6.186215e-01   2.735301e+02
  -3.716128e+01   2.589679e+02
  -2.619208e+01   1.525750e+02
  -2.454010e+01   9.892599e+01
  -1.069636e+02   7.359861e+01
  -1.865740e+02   1.106293e+00
  -1.551730e+02  -1.228771e+02
  -2.228749e+01  -1.421601e+02
   7.807539e+01  -1.537548e+02
   1.008371e+02   2.893290e+01
   4.329046e+01   1.722246e+02
  -4.453600e+01   1.779903e+02
  -1.723282e+02   2.236883e+01
  -2.187510e+02  -1.092151e+02
  -4.977675e+01  -1.943703e+02
   5.651074e+01  -1.881436e+02
   1.134529e+02  -1.239885e+02
   1.333984e+02  -4.572650e+01
   1.259069e+02  -4.573165e+01
   2.167975e+02   1.453308e+01
   3.050503e+02   1.013125e+02
   2.145349e+02   1.806852e+02
  -4.944036e+01   3.390181e+02
  -2.583087e+02   2.647703e+02
  -3.266762e+02   1.211241e+02
  -1.810313e+02  -6.246657e+01
   2.374444e+01  -1.709887e+02
   2.787837e+01  -1.000054e+02
  -3.014537e+00  -2.966647e+01
  -7.030041e+01   1.577730e+01
  -5.146903e+01  -5.561430e+01
   1.073716e+01  -7.846176e+01
   2.098497e+01  -3.079142e+01
   5.695872e+01   2.583696e+01
  -6.409959e+01   6.044278e+01
  -1.294273e+02   3.977221e-01
  -6.552267e+01  -1.592254e+02
   2.344226e+01  -2.319112e+02
   1.763764e+02  -1.329778e+02
   2.356900e+02   5.039908e+01
   1.875452e+02   1.967405e+02
   5.526606e+01   1.915093e+02
  -9.716204e+01   1.140849e+02
  -1.126880e+02   3.177561e-01
  -6.573197e+01  -1.886398e+01
   5.060309e+01   2.160157e+01
  -1.974351e+01   1.003943e+02
  -7.432856e+01   1.636437e+01
  -1.161295e+02  -2.626795e+01
  -2.734742e-01  -4.975034e+01
   4.558946e+01   1.073148e+01
   3.136602e+01   4.465212e+01
  -9.914450e+01   4.987150e+01
  -1.977832e+02  -4.839279e+01
  -1.925863e+02  -1.283455e+02
  -2.923929e+01  -1.736453e+02
   1.381263e+02  -1.648103e+02
   1.905915e+02  -7.054308e+01
   7.235569e+01   5.817879e+01
  -3.335059e+00   5.067271e+01
  -2.513045e+01  -1.069871e+01
   5.175825e+01  -5.889437e+00
   8.082289e+01  -1.109578e+01
   1.076649e+02   5.718199e+01
   1.718566e+01   1.374266e+02
  -7.277889e+01   9.458834e+01
  -5.188040e+01  -1.108084e+01
   2.591324e+00  -3.955340e+01
   2.129344e+01   3.132604e+01
   2.716391e+01   7.303002e+01
  -8.529351e+01   8.012474e+01
  -1.729312e+02  -9.986436e+00
  -1.217467e+02  -7.342403e+01
  -4.414103e+01  -1.226113e+02
   1.119307e+02  -6.914244e+01
   8.084551e+01   3.470008e+01
   6.753444e+01   6.361577e+01
  -3.356518e+01   5.275026e+01
  -3.258120e+01   1.920954e+01
   1.519873e+01  -7.522753e+00
   2.640809e+01  -2.918031e+00
  -1.406253e+01  -1.149892e+01
  -3.619109e+01  -2.376232e+01
  -5.950671e+01  -6.699068e+01
   1.365239e+01  -1.209029e+02
   1.144377e+02  -1.259976e+02
   1.818863e+02   3.453410e+01
   8.980246e+01   1.348666e+02
   1.592913e+01   1.418989e+02
  -6.433971e+01   8.484576e+01
  -1.022218e+02   2.918696e+01
  -6.086873e+01  -4.686510e+01
  -4.156161e+01  -3.124488e+01
  -7.374940e+01   2.531820e+01
  -5.775770e+01   1.836295e+01
  -8.857520e+00  -7.451250e+01
   2.282585e+01  -5.824051e+01
   8.928398e+01  -3.876817e+01
   8.064008e+01   2.708250e+01
   8.943860e+00   9.953951e+01
  -1.358081e+02   7.856878e+01
  -1.630470e+02  -7.982052e+01
  -3.545901e+01  -1.531976e+02
   1.202120e+02  -1.211746e+02
   2.106835e+02  -5.537582e+01
   1.629638e+02   7.129397e+01
   6.640386e+01   1.087649e+02
  -6.066476e+01   8.612309e+01
  -3.402957e+01   4.384795e+01
  -4.737894e+01   2.275023e+01
  -6.151533e+01   8.552559e+01
  -7.589521e+01   4.571784e+01
  -1.020695e+02  -1.541506e+01
  -4.291888e+01  -1.148247e+02
  -3.214979e+01  -1.745234e+02
   7.294616e+01  -1.034803e+02
   7.662811e+01   3.343663e+01
   6.008286e+01   1.055997e+02
   3.417489e+00   1.188036e+02
  -6.740324e+01   4.903833e+01
  -5.680586e+01   3.250509e+00
  -8.932644e+00  -4.885972e+01
   3.082086e+01  -1.800153e+01
   6.879427e-01   8.934025e+00
  -2.675684e+01  -1.808118e+01
  -4.320275e+01  -2.413790e+01
   3.850279e+01  -5.637187e+01
   9.493159e+01  -4.987383e+00
   8.403813e+01   6.488714e+01
  -3.183197e+01   8.706747e+01
  -5.983206e+01   7.374833e+01
  -1.209295e+02  -2.198223e+01
  -3.524857e+01  -4.631164e+01
   4.481408e+01  -4.920683e+01
   4.341783e+01   1.757099e+01
   1.843197e+01   6.651120e+01
  -3.465226e+01   5.564079e+01
  -5.336337e+01   2.659320e+01
  -5.917144e+01  -2.748018e+01
  -3.583966e+01  -3.275701e+01
  -2.860698e+01  -1.212345e+01
  -2.993773e+01   1.316119e+01
  -2.295849e+01  -6.711247e+00
   3.781408e+00  -1.000447e+02
   6.932351e+01  -9.240537e+01
   1.212172e+02  -2.013545e+01
   6.814780e+01   7.997403e+01
   1.244475e+01   6.679755e+01
  -7.482406e+01   4.018769e+01
  -4.294925e+01   1.976974e+00
   1.158328e+00  -5.286056e+01
   8.321816e+01   2.208775e+01
   2.399774e+01   6.022981e+01
  -7.950033e+01   6.638894e+01
  -1.014963e+02   4.097804e+00
  -1.341395e+02  -3.814525e+01
  -4.001874e+01  -5.344089e+01
   5.993749e+01  -1.673560e+01
   3.057210e+01   3.080262e+01
  -4.819248e+01   3.423810e+01
  -7.049862e+01  -4.147295e+01
  -3.788107e+01  -6.049408e+01
   3.846273e+01  -8.685220e+01
   1.163037e+02  -4.486115e+01
   9.947928e+01   7.841457e+01
   2.359072e+01   1.124441e+02
  -4.956218e+01   7.355612e+01
  -6.370153e+01   2.769847e+00
  -3.235283e+01  -8.110711e+01
  -1.774230e+01  -8.529022e+01
   2.510585e+01  -4.008523e+00
   2.075931e+01  -1.534368e+00
   2.474263e+00  -3.225286e+00
   2.825932e+01   1.155430e+01
   3.668014e+01   2.589318e+01
   3.015492e+01   5.520333e+01
  -7.376391e-01   8.876907e+01
  -6.316156e+01  -3.870022e-01
  -1.170854e+02   7.744358e+00
  -7.413536e+01  -5.989898e+01
   2.076322e+01  -3.370552e+01
   1.944723e+01  -4.962199e+00
   5.211647e+01   2.794292e+01
   5.236040e+01   2.233471e+01
  -4.016151e+01  -3.559159e+01
  -3.313505e+00  -9.576725e+00
  -6.774732e+00  -4.146681e+01
  -6.592937e+00   1.872698e+01
  -4.365936e+01   2.090439e+01
  -6.034727e+01  -2.983890e+01
  -8.622765e+00  -4.462374e+01
   5.799648e+01  -8.447936e+01
   1.581890e+02  -5.782281e+01
   1.341163e+02   2.779587e+01
  -3.272558e+00   1.187477e+02
  -5.695513e+01   1.147368e+02
  -9.509939e+01   5.670494e+01
  -4.720133e+01  -1.827522e+01
  -2.823174e+01  -2.784485e+01
  -8.614345e+00   1.045795e+01
  -3.543626e+01  -1.182053e+01
  -1.491840e+01  -4.243847e+01
   3.663628e+00  -5.572842e+01
   3.934182e+01  -4.706421e+01
   5.929872e+01   2.023598e+01
   6.132373e+01   7.538346e+01
   8.337089e+00   1.169392e+02
  -6.940526e+01   4.378305e+01
  -6.064248e+01  -5.847408e+01
  -1.538366e+01  -7.396347e+01
   2.394239e+01  -3.465400e+01
   6.680926e+01   2.528639e+01
   3.199862e+01   6.437719e+01
  -5.045839e+01   4.046636e+01
  -4.828506e+01   3.431833e+01
   3.661713e+01  -1.173387e+01
   5.009696e+01   4.513710e+00
   2.074741e+01   1.449437e+01
  -2.421240e+01   4.750586e+01
  -9.342383e+01   5.617910e+01
  -6.123859e+01  -1.107336e+01
  -6.775528e+00  -3.935181e+01
   5.689946e+01  -6.951993e+01
   5.011197e+01  -1.144775e+01
   7.495253e+00   3.373577e+01
  -4.528577e+01   6.105240e+01
  -1.217468e+01  -6.348710e+00
  -2.076888e+01  -3.809909e+01
   2.348142e+01  -3.553956e+01
   5.133059e+01   1.324792e+01
   4.074298e+01   4.437202e+01
   1.897652e+00   7.607823e+00
   5.421729e+00  -3.691851e+00
   7.686662e+00  -1.147874e+01
   2.313884e+00  -2.357140e+01
  -7.000993e+00   2.132631e+01
  -4.610378e+01  -1.219751e+00
  -2.652326e+01   2.350850e+00
   1.123032e+01  -3.798731e+01
   3.437683e+01  -9.099559e+00
   2.262368e+01   2.390633e+01
   5.625190e+01   2.402181e+01
  -4.332718e+01   2.173166e+00
  -9.751890e+01  -4.785240e+01
  -3.050262e+01  -2.996429e+01
   4.068898e+01  -5.876988e+00
   5.181806e+01  -3.200447e+01
   2.046259e+01   3.015317e+00
  -1.606023e+01   3.266745e+01
  -3.138560e+01   2.029672e+01
   3.210477e+01  -7.454614e+00
   3.779563e+01  -2.000810e+01
