
 $NMID
 id='ANONYMOUS ', fmtdat='(2E16.6)'
 volume=1.0
 tramp=1.0
 $END
  -2.461217e+03   2.866435e+02
  -1.340871e+03  -1.299495e+03
   2.282718e+02  -1.561905e+03
   9.914953e+02  -7.778968e+02
   7.094705e+02  -6.727312e+01
   7.052360e+01   2.038632e+02
  -2.628671e+02  -1.375587e+02
   1.158308e+01  -3.650499e+02
   2.935917e+02  -3.628214e+02
   5.068303e+02  -8.191137e+01
   3.739787e+02   3.406481e+02
   4.787364e+01   4.342036e+02
  -2.743132e+02   2.163374e+02
  -2.229360e+02  -3.060150e+02
   6.466493e+01  -4.059652e+02
   3.286344e+02  -7.889062e+01
   2.237164e+02   3.399365e+02
  -1.236835e+02   4.915988e+02
  -3.935334e+02   3.066937e+02
  -3.574977e+02  -1.425021e+02
  -7.410327e+01  -2.392135e+02
   1.136492e+02  -1.857555e+02
   7.750417e+01  -5.472552e+01
  -1.321360e+02  -5.143249e+01
  -2.228942e+02  -2.187182e+02
  -1.203863e+01  -3.012028e+02
   3.052425e+02  -1.778314e+02
   4.595036e+02   1.743543e+02
   1.634125e+02   2.870940e+02
  -2.166926e+02   1.621803e+02
  -3.853191e+02  -1.191859e+02
  -1.377299e+02  -3.040462e+02
   1.896519e+02  -2.771157e+02
   3.709367e+02  -6.558047e+01
   2.552616e+02   1.506073e+02
   1.037224e+01   2.268138e+02
  -2.947902e+01   1.302581e+02
   1.225787e+01  -3.918675e+01
   1.011855e+02  -9.278486e+01
   1.399925e+02   7.634038e+01
  -5.243977e+01   3.029074e+02
  -2.225436e+02   2.631204e+02
  -2.670087e+02   2.886354e+01
  -1.096171e+02  -2.220488e+02
   8.157105e+01  -1.145410e+02
   9.288981e+01   1.933829e+02
  -5.849914e+01   2.917240e+02
  -3.202276e+02   7.387910e+01
  -3.374999e+02  -3.523138e+02
  -1.046852e+02  -3.794099e+02
   2.035431e+02  -2.319706e+02
   3.821509e+02   1.940906e+01
   2.487704e+02   2.278257e+02
   6.002714e-01   1.692082e+02
  -1.953384e+02   5.983905e+01
  -1.486648e+02  -3.097018e+01
  -3.496735e+01  -5.563277e+00
   2.490158e+01   4.684920e+01
  -4.278290e+01   1.535890e+00
  -1.505904e+02  -4.555925e+01
  -1.493836e+02  -1.292936e+02
   8.246966e+01  -2.123935e+02
   3.233326e+02  -1.114455e+02
   2.335105e+02   8.054902e+01
  -3.102659e+01   2.665457e+02
  -2.783141e+02   2.772597e+02
  -2.584022e+02   1.071062e+02
  -1.755828e+02  -1.791505e+02
  -5.049333e+01  -2.836774e+02
   1.257426e+01  -2.534251e+02
   3.485554e+01  -1.520855e+02
   5.312246e+00  -8.428850e+01
   8.375223e+01  -1.146834e+02
   2.070450e+02  -5.650935e+01
   1.719223e+02   1.075682e+02
   6.495868e+01   2.045804e+02
  -1.024902e+02   1.487621e+02
  -1.764467e+02  -2.413741e+01
  -9.856355e+01  -2.225718e+02
   6.394558e+01  -1.940047e+02
   1.669654e+02  -4.874594e+01
   2.233831e+02   1.738945e+02
   1.166841e+02   2.266103e+02
  -5.208902e+01   1.718514e+02
  -1.104412e+02   1.387945e+02
  -1.319658e+02   5.496620e+01
  -1.149125e+02   2.815011e+01
  -2.221470e+02  -8.816206e+00
  -3.227593e+02  -8.637222e+01
  -2.668889e+02  -2.294260e+02
   5.438663e+01  -3.683538e+02
   2.475650e+02  -2.796082e+02
   3.710642e+02  -1.014825e+02
   2.116087e+02   1.051102e+02
   1.564068e+01   2.232916e+02
  -7.077983e+01   1.350522e+02
  -1.078532e+01   4.219311e+01
   6.574772e+01  -4.913527e+01
   9.498305e+01   2.801167e+01
   3.567587e+01   6.136177e+01
  -8.037386e+01   7.465691e+01
  -8.680880e+01  -1.729299e+01
   2.877090e+01  -8.373174e+01
   1.410638e+02   1.515145e+01
   1.514108e+02   1.724898e+02
  -4.523539e+01   2.627545e+02
  -1.796780e+02   1.843109e+02
  -2.900854e+02  -4.039739e+01
  -2.266224e+02  -2.554905e+02
  -4.547474e+01  -2.327582e+02
   1.108709e+02  -1.376023e+02
   1.084431e+02  -2.719345e+01
   4.082683e+01   8.954204e+00
  -2.164097e+01  -5.096975e+01
   9.875469e+00  -5.609601e+01
   1.123190e+02  -3.409261e+01
   1.005973e+02   3.853516e+01
   1.052984e+01   3.974570e+01
  -6.737766e+01  -3.047197e+01
  -3.881364e+01  -9.851246e+01
   1.625860e+02  -9.465746e+01
   2.307635e+02   2.992687e+01
   1.989643e+02   1.305050e+02
   4.448846e+01   1.982288e+02
  -1.749165e+02   1.821559e+02
  -2.368738e+02   3.597865e+01
  -1.390952e+02  -7.539121e+01
   2.031053e+01  -5.971012e+01
   5.261310e+01  -2.865322e+01
  -3.098678e+01   3.446862e+01
  -1.223546e+02   1.444036e+01
  -1.295813e+02  -8.003093e+01
  -3.155558e+01  -1.395861e+02
   7.710063e+01  -9.313959e+01
   8.461131e+01   1.839821e+00
   1.881205e+01   2.331452e+01
  -7.488145e+01  -5.602689e+01
  -4.201158e+01  -1.186459e+02
   6.794916e+01  -1.146675e+02
   2.123482e+02   6.262820e+00
   1.371083e+02   1.055566e+02
   2.160801e+01   1.444377e+02
  -8.520259e+01   1.149550e+02
  -1.507861e+02  -7.828619e+00
  -3.162345e+01  -7.224796e+01
   3.055845e+01  -6.922411e+01
   6.952055e+01  -3.634202e+01
  -2.440539e+01   2.773475e+01
  -5.066803e+01  -1.166718e+01
   3.632635e+00  -2.858193e+01
   7.731962e+01   2.882223e+00
   9.485235e+01   6.973158e+01
  -2.212883e+00   1.241035e+02
  -1.202120e+02   9.872260e+01
  -2.562283e+02  -2.988079e+01
  -1.342250e+02  -1.443641e+02
  -1.867128e+01  -1.451789e+02
   7.934842e+01  -1.425657e+02
   1.117657e+02  -2.412735e+00
   6.942550e+01   5.267085e+01
   1.713534e+01   9.446841e+00
   7.786833e+01  -7.146963e+00
   7.670812e+01   7.458228e+00
   3.716206e+01   8.841602e+01
  -2.551020e+01   7.215789e+01
  -9.901013e+01   5.383129e+01
  -5.751052e+01  -3.380985e+01
   1.510162e+01  -1.076949e+02
   1.313384e+02  -6.868605e+01
   1.797070e+02   6.015556e+01
   1.669463e+01   1.687145e+02
  -1.330709e+02   1.759445e+02
  -2.138871e+02   2.810507e+01
  -1.847841e+02  -1.052972e+02
  -5.294847e+01  -1.278471e+02
   2.973045e+01  -1.460236e+02
   9.473032e+01  -4.632481e+01
   7.684146e+01  -6.055202e+01
   4.726037e+01  -6.857497e+01
   8.090303e+01  -3.555005e+01
   1.112632e+02   1.955894e+01
   6.822845e+01   1.181482e+02
   1.759089e+01   1.944725e+02
  -5.835701e+01   1.254342e+02
  -1.147449e+02  -9.460125e+00
  -8.985807e+01  -1.162318e+02
  -1.283235e+01  -1.298312e+02
   7.789583e+01  -6.080645e+01
   5.002634e+01   2.884692e+01
  -1.481860e+01   5.145384e+01
  -4.796807e+01   4.096088e+01
   2.562763e+01  -1.731491e+01
   7.170583e+01   9.141914e+00
   1.306895e+01   3.459004e+01
  -4.729800e+01   3.603649e+01
  -1.232451e+02  -2.317194e+01
  -1.029970e+02  -7.997982e+01
   2.295566e+01  -1.023333e+02
   1.010915e+02  -6.986352e+01
   1.181479e+02   1.947559e+00
   1.585727e+01   6.104564e+01
  -5.100063e+01   7.150108e+01
  -7.341395e+01  -1.668611e+01
  -1.692062e+01  -7.716446e+01
   4.338198e+01  -7.032481e+01
   7.739928e+01   1.748338e+01
   4.599755e+01   4.389580e+01
   4.806245e+01   5.322170e+01
   5.525978e+01  -5.594285e+00
   4.989155e+01   3.311267e+00
   3.302248e+01   6.020737e+01
  -7.179191e+00   1.612895e+02
  -1.324967e+02   1.080044e+02
  -1.595158e+02   3.532288e+01
  -1.080751e+02  -9.630540e+01
   1.697753e+01  -8.349657e+01
   7.784341e+01  -7.136764e+01
   7.130533e+01   2.439569e+00
  -2.546214e+01   6.912085e+00
  -1.092980e+02  -1.156781e+01
  -8.529543e+01  -4.180631e+01
   4.844126e+01  -6.904966e+01
   1.362653e+02  -2.478630e+01
   1.538917e+02   3.128962e+01
   2.393937e+01   5.344528e+01
  -7.014924e+01   4.211788e+01
  -3.022537e+01  -8.581106e+00
   2.442872e+01  -4.754271e+01
   6.757706e+01   1.376400e+01
   1.577560e+01   1.129506e+02
  -2.385751e+01   1.376443e+02
  -1.013380e+02   5.950047e+01
  -9.347487e+01  -5.069168e+01
  -3.222404e+00  -1.464597e+02
   8.786488e+01  -1.033651e+02
   1.018804e+02  -8.691501e+00
   2.567690e+01   8.385326e+01
   1.327753e+01   1.048875e+02
  -7.315715e+01  -1.174656e+00
  -4.972727e+01  -3.983988e+01
  -5.422219e-01  -1.763430e+01
  -1.889356e+01   5.058969e+00
  -2.545508e+01   7.319656e+00
  -3.471350e+01  -4.240140e+01
  -3.409638e+01  -7.668497e+01
   5.825240e+01  -6.928638e+01
   1.426304e+02   1.982430e+01
   1.092768e+02   7.896365e+01
   4.769399e+00   7.429772e+01
  -8.984665e+01   2.385855e+01
  -7.571057e+01  -8.690004e+00
  -4.098771e+01  -2.195353e+01
   1.927827e+01  -3.047261e+01
  -2.545381e+00  -2.101907e+01
  -2.472830e+01   2.692216e+01
  -4.233561e+00  -1.405480e+00
   7.151994e+01   5.828637e+00
   9.199943e+01   4.170637e-01
   3.046409e+01   7.105940e+01
  -7.638927e+01   9.720637e+01
  -1.453738e+02   9.341928e+01
  -1.557976e+02  -5.084823e+01
  -4.460092e+01  -1.244650e+02
   5.862876e+01  -1.284858e+02
   8.736586e+01  -8.031896e+01
   4.863609e+01   3.163759e+01
   4.007421e+01   5.397977e+01
  -3.853919e+00  -4.337434e+00
   1.658281e+01  -3.114844e+01
   6.024606e+01   1.699057e+01
   1.216991e+01   9.887664e+01
  -4.488359e+01   6.444767e+01
  -7.230837e+01  -4.909815e+01
  -5.342458e+01  -6.556178e+01
   2.638487e+01  -9.143600e+01
   7.242057e+01  -3.465110e+01
   9.696016e+01   5.730626e+01
   4.442698e+01   7.696323e+01
  -4.768716e+01   4.190059e+01
  -7.265370e+01   3.706106e+01
  -4.967559e+01  -6.047265e+01
   2.477477e+01  -5.139208e+01
   3.380174e+01  -1.043960e+01
  -3.772273e+01   2.528568e+01
  -3.339289e+01   1.568425e+01
  -1.746797e+01  -3.054260e+01
   6.285588e+01  -4.646871e+01
   9.063531e+01  -1.365522e+01
   6.316801e+01   1.773593e+01
   1.029986e+01   6.924884e+01
  -6.312289e+01   6.746967e+01
  -5.303885e+01  -8.718473e+00
   1.724824e+01  -2.299297e+01
   1.987760e+01  -8.026248e+01
   1.683817e+01   1.465997e+01
   2.972296e+01   5.630346e+01
   5.604786e+00   4.729036e+01
  -3.810468e+01   1.245720e+01
  -1.646786e+01   7.843921e+00
  -1.579446e+01  -1.391078e+01
   9.147841e+00   1.162466e+01
  -5.256490e+01   1.942356e+01
   1.243645e+00  -2.924236e+01
  -7.871782e+00  -1.440840e+01
   1.956047e+01  -7.410542e+00
   3.323343e+01   2.047990e+01
  -4.407452e+00   3.546562e+01
  -3.223752e+01   3.051946e+01
  -5.357588e+01  -4.017550e+00
  -2.233599e+01  -7.125935e+01
   4.004146e+01  -4.779134e+01
   6.438419e+01   2.912060e+01
   4.557842e+01   4.980639e+00
   1.796205e+00   5.326507e+01
  -4.747739e+01   3.450967e+01
  -4.177368e+01  -1.716850e+01
   4.671530e+01  -1.729363e+01
   3.314068e+01  -1.271487e+01
  -1.380118e+01   4.084074e+00
  -6.004362e+01   2.471237e+00
