
 $NMID
 id='ANONYMOUS ', fmtdat='(2E16.6)'
 volume=1.0
 tramp=1.0
 $END
  -1.071125e+03   1.937772e+02
  -9.386392e+02  -6.440508e+02
  -2.583802e+02  -8.909759e+02
   3.276130e+02  -4.315338e+02
   3.740579e+02  -7.956743e+01
  -1.068504e+02   1.243473e+02
  -1.796595e+02   2.704726e+01
  -6.985291e+01  -1.705661e+02
   1.090764e+02  -2.399402e+02
   1.635751e+02  -8.536372e+01
   2.103247e+02   1.602438e+02
   2.529919e+01   1.102826e+02
  -8.025529e+01   1.144491e+01
  -6.150904e+01  -1.236871e+02
   3.269842e+01  -1.724936e+02
   1.192581e+02  -2.699068e+01
   5.508609e+01   1.163608e+02
  -1.580430e+01   1.419638e+02
  -5.486815e+01   5.336597e+01
  -1.413020e+02  -4.298267e+01
  -4.533914e+01  -1.136685e+02
   8.123079e+00  -9.098383e+01
  -3.432693e+00  -2.912178e+01
  -1.265974e+01  -2.545840e+01
  -6.397667e+01  -4.839722e+01
   1.289740e+01  -8.861922e+01
   1.514819e+02  -4.909264e+01
   2.251297e+02   4.730487e+01
   1.278378e+02   5.136868e+01
  -4.681589e+01   8.399533e+01
  -1.072995e+02   5.778523e+01
  -5.170830e+01  -1.952940e+01
   6.306914e+01  -9.567328e+01
   1.096485e+02  -6.417351e+01
   1.034036e+02  -1.270629e-01
   3.669422e+01   7.243831e+01
   4.266173e+00   5.351743e+01
   3.058588e+01  -8.463411e+01
   7.246154e+01  -7.207287e+01
   8.627826e+01   4.490070e+01
   7.083406e+01   1.884934e+02
  -1.889653e+01   1.908077e+02
  -6.291010e+01   2.000870e+01
  -8.033976e+01  -1.282284e+02
   6.150404e+01  -3.371828e+01
   1.124315e+02   4.259892e+01
  -3.201746e-01   1.074451e+02
  -7.267256e+01   6.716913e+01
  -9.258334e+01  -2.542949e+01
  -6.621583e+01  -6.907344e+01
   7.598006e+01  -7.250242e+01
   1.262539e+02   3.416033e+01
   9.394740e+01   2.324930e+01
   2.867098e+01   8.669021e+01
  -1.334580e+02   4.661799e+00
  -1.108573e+02   2.064619e+00
   1.716978e+00  -1.339506e+01
   2.621695e+01   3.438486e+01
  -3.837278e+01   6.162020e+01
  -1.095542e+02   1.281679e+01
  -8.595607e+01  -3.764771e+01
   2.993414e+01  -9.146072e+01
   8.998600e+01  -9.168170e+01
   2.311949e+01   8.885520e+00
  -7.309277e-01   3.993805e+01
  -2.412642e+01   1.079058e+02
  -2.041384e+01   6.320925e+00
  -5.147673e+01  -1.215968e+01
  -2.958674e+01  -9.356831e+01
  -3.440204e+01  -9.502887e+01
  -1.743920e+01  -1.303058e+01
   1.796249e+01  -2.373503e+00
   4.159403e+01  -2.796034e+01
   3.283857e+01  -5.239200e+01
   4.874147e+01   1.112413e+01
   3.535675e+01   7.230664e+01
   3.165663e+00   7.225328e+01
  -5.251876e+01   2.080362e+01
  -7.339724e+01  -5.159204e+01
  -2.598602e+01  -4.661659e+01
   7.019461e+01  -4.251654e+01
   8.171250e+01   3.304624e+01
   8.293201e+01   6.144804e+01
  -8.064231e+00   6.402406e+01
  -5.783948e+01   3.162198e+01
  -3.648469e+01  -8.716047e+00
  -3.248798e+00   4.808119e-01
  -2.324892e+01   2.386108e+01
  -9.712405e+01  -2.809343e+01
  -7.368432e+01  -5.890397e+00
  -4.021449e+01  -6.814862e+01
   9.420926e+01  -1.374922e+02
   9.746420e+01  -8.215803e+01
   6.368729e+01  -4.035072e+01
   2.567141e+01   5.498294e+00
   4.581060e+00   5.256794e+01
   2.894229e+01  -2.944461e+01
   3.281509e+01  -1.107257e+01
   4.860773e+01  -9.106701e+00
   4.736724e+00   1.549907e+01
  -2.613101e+01   2.520264e+01
  -4.258251e+01  -8.973726e+00
  -3.814247e+01  -4.564883e+01
   3.208839e+01  -3.239758e+01
   5.533255e+01   5.341724e+01
   2.061632e+01   1.362727e+02
  -3.281456e+01   2.825298e+01
  -8.575026e+01  -1.664911e+01
  -8.022393e+01  -2.797986e+01
  -4.007773e+01  -4.594487e+01
   1.497633e+01  -2.949522e+01
   3.045541e+01  -2.645382e+01
  -1.783599e+00   1.988375e+01
   9.124689e+00  -6.279434e+00
  -1.595952e+01  -2.536768e+01
   2.476783e+01  -4.619507e+01
   3.692174e+01   2.695177e+01
   2.478418e+01   1.309021e+01
  -2.511123e+01   2.632495e+01
  -2.024015e+01  -5.117092e+01
   6.400394e+01  -1.682193e+01
   1.109562e+02  -1.986113e+01
   8.352436e+01   3.444367e+01
   2.426583e+01   6.630237e+01
  -3.688459e+01   6.413900e+01
  -1.232982e+01   3.766019e+01
  -2.396300e+01   6.461393e-01
  -6.867813e+00  -1.450716e+01
  -9.542682e+00   1.761273e+01
  -8.981390e+00   4.627633e+01
  -3.287427e+01   2.927288e+01
  -3.800849e+01  -1.972690e+01
  -2.872288e+01  -5.065037e+01
   1.762893e+01  -3.114981e+01
   1.929093e+01   1.429211e+01
   2.624469e+00  -2.819076e+01
  -1.823682e+01  -1.273378e+01
  -8.626804e+00  -5.632607e+01
   3.080065e+01  -4.902823e+01
   1.198016e+01  -1.972065e+00
   5.238606e+01   1.414258e+00
   2.599383e+01   4.354546e+01
  -4.209993e+01   1.386929e+01
  -4.683835e+01   2.484500e+01
   4.212622e+00  -2.485902e+01
   9.000404e+00  -3.070014e+00
   4.813814e+01   1.237974e+00
  -8.829689e+00   7.308145e+00
  -4.132430e+00  -2.781869e+01
  -1.104585e+01  -2.334916e+01
   4.197223e+01   1.547242e+01
  -5.068331e+00  -2.609300e+00
   2.020851e+01   3.171369e+01
  -1.906656e+01   7.008533e+01
  -4.324578e+01   3.679891e+00
  -4.752694e+01  -1.056557e+01
  -2.848091e+01  -2.312258e+01
  -1.342429e+01  -4.171370e+01
   3.920593e+01  -1.742493e+01
   3.113327e+01   2.115859e+00
   3.637169e+01  -1.224916e+01
   4.907461e+01  -2.404182e+01
   3.539435e+01   2.571442e+01
   2.118238e+01   9.914115e+00
  -6.385419e+00   4.203989e+01
  -3.073384e+01   9.699859e+00
  -1.282811e+01   1.365938e+01
   2.578143e+00  -5.211047e+01
   8.631213e+01  -4.774044e+00
   5.364539e+01   2.682021e+01
   3.845432e+01   4.910049e+01
  -4.424778e+01   7.773877e+01
  -6.971312e+01   3.994943e+01
  -6.609604e+01  -5.862760e+00
  -9.636057e+00  -5.342215e+01
  -2.099998e+00  -2.305001e+01
   8.925302e+00  -1.018997e+01
   1.621964e+01  -7.909775e+00
  -7.535847e+00  -2.124354e+01
  -4.159700e+00  -2.207032e+01
   3.463533e+01   1.957076e+01
   3.891781e+01   2.670035e+01
   5.788119e-01   6.259787e+01
  -1.972805e+01   4.569787e+01
  -8.887158e+00  -1.820251e+01
  -2.322695e+01  -2.578386e+01
   1.618436e+01  -5.076160e+01
   8.100117e+00  -2.880654e+01
   1.085615e+01   1.346088e+01
   1.633326e+01  -1.640478e+01
   1.188704e+01  -1.469779e+01
   2.137695e+01  -7.382851e+00
   1.470308e+00  -2.706962e+01
   2.564853e+01   1.991146e+01
  -1.074883e+01   1.187024e+01
  -3.986766e+01   3.139636e+01
  -5.710262e+01  -2.100431e+01
  -2.843378e+01  -1.832974e+01
   1.630898e+01   5.101048e+01
   3.763388e+01  -3.258286e+01
   2.092918e+01  -2.289450e+01
  -5.526154e-01  -2.253857e+00
  -1.585961e+01  -7.068074e+00
   9.688508e+00  -3.867693e+01
   1.510079e+01  -5.058693e+00
  -9.828142e+00  -1.376992e+01
   1.762395e+01   2.863543e+01
   7.338012e+00   6.089502e+00
  -4.935105e+00  -1.683670e+01
   6.788958e+00  -8.984074e+00
   1.591663e+01   1.113744e+01
  -1.585606e+01   3.884261e+01
  -1.189735e+01   5.921524e+01
  -1.672473e+01   1.843415e+01
  -4.364533e+01   1.784325e+01
  -1.719731e+01  -3.921442e+01
   3.213908e+01  -5.511354e+00
   4.346091e+01  -2.373538e+01
  -3.819397e+01  -5.414795e+00
  -5.449111e+01  -2.210476e+01
  -1.129356e+01  -2.772539e+01
   2.546444e+00  -4.216589e+01
   4.367855e+01  -1.908353e+01
   5.465214e+01   2.219703e+00
   2.380220e+01   4.276212e+00
  -2.411761e+00   6.507554e+00
   1.102323e+01   1.207111e+01
  -1.747289e+01  -7.473126e+00
   2.630210e+01   1.559684e+01
  -1.202766e+01   5.583450e+00
   1.040213e+01   1.642646e+01
  -3.476408e+01   3.362651e+01
   6.032330e+00  -3.145987e+01
  -1.463796e+01  -4.101726e+01
   4.586159e+01   4.078345e+00
   1.936734e+01   2.368617e+01
  -1.100712e+01   4.186586e+01
   4.107863e+00   9.527506e+00
   1.741006e+00   3.016159e+01
  -1.416295e+01  -3.105706e+00
  -4.856413e+00  -7.418624e+00
   2.895686e+00   2.018989e+01
  -3.128666e+01   1.582734e+01
  -3.654311e+01  -4.061597e+01
  -4.059118e+01  -2.420080e+01
   2.177995e+01  -1.656825e+01
   4.570633e+01  -1.061896e+01
   8.260303e+01  -3.391103e+00
   1.468997e+01   3.811771e+01
   6.658723e+00   2.603122e+00
  -2.905385e+01   1.171368e+01
   1.212001e+01  -2.228488e+01
   1.681740e+01  -1.823516e+01
   8.923714e+00  -3.563247e+01
   4.439048e+00  -5.173822e+00
  -2.293663e+01  -1.575148e+01
   1.312531e+01   1.139916e+01
   4.927797e+01   1.208162e+01
  -1.155532e+01   4.016712e+01
  -3.640565e+01  -9.257475e+00
  -5.057535e+01   2.698000e+01
  -3.937935e+01  -1.331644e+01
  -3.712067e+00  -4.726697e+01
   1.524281e+01  -3.293621e+01
   4.477864e+01  -5.618611e+00
   1.927634e+01   2.094608e+01
   1.929996e+00   2.772266e+01
  -7.974075e+00  -1.076868e+00
  -6.934926e+00  -9.775915e+00
   9.044125e+00   1.385282e+00
   1.088145e+01   8.879352e+01
  -1.231767e+00   8.072361e+00
  -1.470844e+01   8.079986e+00
  -2.836593e+01  -5.375651e+01
   1.516753e+01  -3.162235e+00
   6.066236e+00  -7.995774e+00
   6.536919e+01   3.000904e+00
   5.717855e+00   2.552913e+01
  -1.277539e+00   9.720730e+00
  -2.017732e+01   4.869653e+00
  -2.014543e+00   9.054694e+00
   1.408848e+01  -5.800932e+00
  -5.414745e+00  -2.657905e+01
   7.176942e+00   1.501972e+00
  -6.579838e+00   2.005185e+01
   4.241811e+01  -3.190701e+01
   1.462486e+01  -8.143023e+00
   3.415415e+01   1.414472e+00
   7.843194e+00  -3.439509e-01
   1.655194e+01   2.743794e+01
  -1.761891e+01   4.112419e+01
  -2.509977e+01  -4.025186e+00
  -2.072836e+01  -3.053672e+01
  -2.648320e+01  -3.873905e+01
   7.172171e+00   2.859443e+01
   1.303205e+01   1.017286e+01
  -1.301391e+01   1.046260e+01
  -2.154960e+01  -5.865917e+00
   1.178037e+01   4.250117e+01
   1.060926e+01   9.388308e+00
  -1.217662e+01   3.913906e+01
   3.431476e+01   3.416371e+00
  -9.151442e+00  -8.271510e+00
   3.601874e+00  -1.480360e+01
   1.019621e+01  -1.986838e+01
  -1.966260e+01  -6.204667e-01
   2.106836e+01  -1.145304e+01
  -2.980464e-02  -9.527983e-01
  -3.337673e+01  -2.498447e+01
  -2.696418e+01  -3.081157e+01
  -1.240289e+01  -1.003419e+00
   2.479439e+01  -1.217838e+01
  -3.957860e+00   2.571822e+01
  -3.535267e+00  -4.325373e+00
  -2.944283e+01   3.143166e+00
   6.690934e+00   1.119123e+01
   2.682159e+01  -3.746443e+01
   7.209525e+00  -6.798344e+00
   5.777542e+00   2.722099e+01
  -2.419677e+01   1.363976e+01
