
 $NMID
 id='ANONYMOUS ', fmtdat='(2E16.6)'
 volume=1.0
 tramp=1.0
 $END
  -2.269624e+03  -9.848431e+01
  -1.160996e+03  -8.876234e+02
   4.348139e+01  -1.028889e+03
   7.867263e+02  -7.882104e+02
   6.026810e+02  -3.526568e+02
   9.494124e+01   2.364646e+01
  -1.147610e+02  -6.754371e+01
  -2.896929e+01  -2.858284e+02
   2.476374e+02  -3.492641e+02
   4.460652e+02  -6.795147e+01
   3.175056e+02   2.702968e+02
   4.427455e+01   3.955293e+02
  -1.430189e+02   1.243301e+02
  -1.225695e+02  -2.186898e+02
   1.200244e+01  -3.778615e+02
   2.719633e+02  -5.247389e+01
   2.174001e+02   3.071513e+02
  -5.458588e+01   4.374439e+02
  -2.823478e+02   2.044280e+02
  -3.231248e+02  -9.057175e+01
  -1.217088e+02  -2.345073e+02
   6.642054e+01  -1.822111e+02
   3.111466e+01  -5.813679e+01
  -8.314950e+01  -1.177330e+02
  -1.497369e+02  -1.894099e+02
   1.885610e+01  -2.528649e+02
   2.898184e+02  -2.994480e+01
   3.773338e+02   1.278247e+02
   1.592523e+02   1.910277e+02
  -2.218523e+02   6.724574e+01
  -2.794761e+02  -1.090918e+02
  -7.384855e+01  -1.994583e+02
   1.484849e+02  -1.473986e+02
   3.207013e+02  -1.117972e+02
   1.880279e+02   6.074096e+01
   8.347798e+01   1.614203e+02
   8.324460e+00   9.453602e+01
   9.056515e+01  -2.634009e+01
   1.087981e+02  -2.454830e+01
   2.589924e+01   1.277691e+02
  -6.370551e+01   2.636816e+02
  -2.012760e+02   2.773844e+02
  -1.618967e+02  -3.434258e+01
  -4.270925e+01  -1.408476e+02
   9.917087e+01  -4.050697e+01
   4.768220e+01   2.143560e+02
  -1.016138e+02   2.267288e+02
  -3.423420e+02   4.098877e+01
  -3.136229e+02  -2.571620e+02
  -1.169802e+02  -3.376425e+02
   1.999201e+02  -1.905075e+02
   3.140678e+02   4.279494e+01
   2.274854e+02   1.340428e+02
   1.651155e+01   1.300272e+02
  -1.671264e+02   6.979905e+01
  -1.619053e+02   1.429243e+01
  -4.198983e+01   2.480412e+01
  -1.188898e+00   2.535278e+01
  -5.013857e+01  -4.837658e+00
  -1.180513e+02  -3.209127e+01
  -7.879811e+01  -9.224996e+01
   1.115733e+02  -1.743320e+02
   2.445580e+02  -8.637661e+01
   2.411981e+02   7.569241e+01
   4.468890e+00   2.579627e+02
  -2.439434e+02   2.824398e+02
  -2.196466e+02   1.215148e+02
  -1.783920e+02  -1.353570e+02
  -5.233675e+01  -2.587966e+02
  -1.958962e+01  -2.254727e+02
  -9.474214e+00  -1.232118e+02
  -4.276696e+00  -9.259940e+01
   9.151071e+01  -8.300614e+01
   1.872041e+02  -5.489334e+01
   1.720507e+02   8.831794e+01
   5.171400e+01   1.297822e+02
  -1.095015e+02   1.342723e+02
  -1.394395e+02  -2.496205e+01
  -5.484668e+01  -1.828664e+02
   2.473177e+01  -1.711260e+02
   1.661177e+02  -1.800369e+01
   2.450271e+02   1.001215e+02
   1.264452e+02   2.296346e+02
  -3.146816e+01   1.960571e+02
  -9.992260e+01   1.412903e+02
  -1.081466e+02   5.552700e+01
  -9.612521e+01   6.444128e+01
  -1.882324e+02   2.893184e+01
  -3.118297e+02  -7.892265e+01
  -2.441930e+02  -1.899126e+02
   2.320308e+01  -3.194984e+02
   2.318190e+02  -2.728603e+02
   3.395479e+02  -1.645765e+02
   2.215554e+02   6.412738e+01
   1.720865e+01   1.373093e+02
  -4.135767e+01   1.404205e+02
  -1.417702e+01   6.071061e+01
   6.258451e+01  -3.239691e+01
   7.781218e+01  -3.698172e+00
  -1.046485e+01   1.251816e+02
  -6.393936e+01   5.953899e+01
  -7.119136e+01  -3.292927e+01
   2.457966e+01  -9.119244e+01
   1.332988e+02   8.267987e+00
   9.823739e+01   1.851728e+02
   1.458376e+01   2.271042e+02
  -1.533520e+02   1.636676e+02
  -2.487861e+02  -1.894724e+01
  -2.029244e+02  -1.699545e+02
  -9.651668e+01  -1.827639e+02
   8.595949e+01  -9.783613e+01
   1.146728e+02  -1.672439e+01
   1.449833e+01   2.664803e+01
  -4.186711e+01  -3.203228e+01
   1.800276e+01  -7.993326e+01
   7.808538e+01  -1.577790e+01
   8.227817e+01  -1.968677e+01
   2.694103e+01   5.681637e+01
  -8.595042e+01   1.210936e+01
  -3.304996e+01  -3.978829e+01
   1.306894e+02  -6.080439e+01
   2.146818e+02   1.490687e+01
   1.578497e+02   1.154696e+02
   3.040175e+01   1.743673e+02
  -1.734168e+02   1.641636e+02
  -2.016540e+02   6.602035e+01
  -9.871227e+01  -4.021205e+01
   2.365691e+01  -4.713516e+01
   3.302855e+01   1.961404e+01
  -5.909841e+01   5.403813e+01
  -1.263763e+02   3.079731e+01
  -1.131048e+02  -6.336444e+01
  -2.945049e+01  -1.005528e+02
   6.806603e+01  -9.068235e+01
   9.355016e+01  -1.086688e+01
   1.454141e+01  -4.467242e+00
  -2.907381e+01  -1.329892e+01
  -2.091877e+01  -7.326852e+01
   6.498778e+01  -8.775428e+01
   1.633050e+02   7.232773e+00
   1.285496e+02   6.024985e+01
   1.098963e+01   1.334142e+02
  -1.285747e+02   7.686992e+01
  -1.254654e+02  -1.030063e+01
  -5.371629e+01  -5.788091e+01
   3.395994e+01  -6.861160e+01
   6.497841e+01  -1.634621e+01
  -9.346530e+00   3.149662e+01
  -4.335419e+01   1.783456e+01
   2.231253e+01  -2.676334e+01
   3.408397e+01  -4.150841e+00
   6.936769e+01   6.652673e+01
   9.870641e+00   1.258879e+02
  -1.109570e+02   1.234568e+02
  -1.808507e+02   1.352177e+01
  -1.413647e+02  -1.303949e+02
  -3.972234e+01  -1.700082e+02
   6.395562e+01  -1.103954e+02
   9.284329e+01  -4.964034e+01
   6.804482e+01   4.342636e+00
   3.258890e+01   1.379407e+01
   2.312945e+01   1.777743e+01
   7.171267e+01  -4.572716e+00
   2.315873e+01   5.186395e+01
  -7.854935e+00   6.792093e+01
  -6.857530e+01   1.333195e+01
  -9.013870e+01  -3.327834e+01
  -1.808025e+01  -8.465014e+01
   1.055719e+02  -6.235846e+01
   1.464140e+02   3.406199e+01
   3.573126e+01   1.682448e+02
  -1.043775e+02   1.719885e+02
  -2.064179e+02   3.872623e+01
  -2.043573e+02  -4.953145e+01
  -9.163430e+01  -1.014500e+02
   1.177251e+01  -1.034127e+02
   6.392569e+01  -6.576774e+01
   5.365702e+01  -3.538981e+01
   3.415814e+01  -9.028566e+01
   6.979817e+01  -8.722748e+01
   9.563642e+01   2.394352e+01
   8.450236e+01   7.680959e+01
   1.289435e+01   1.184952e+02
  -7.717630e+01   1.032795e+02
  -1.240515e+02   1.635949e+01
  -5.849629e+01  -7.868413e+01
  -1.444008e+01  -8.512226e+01
   1.638685e+01  -6.181460e+01
   4.600618e+01   1.968180e+01
   6.237365e+00   3.949370e+01
  -5.244388e+01   4.451879e+00
   1.216797e+01  -3.673022e+01
   4.778122e+01  -1.788259e+01
   3.814977e+01   2.780900e+01
  -4.428500e+01   2.451088e+01
  -1.392897e+02  -2.086552e+01
  -7.595585e+01  -6.138009e+01
   2.446072e-01  -6.705483e+01
   9.618705e+01  -4.301525e+01
   1.094622e+02   7.401896e+00
   1.673033e+01   2.467730e+01
  -3.757659e+01   4.185906e+01
  -2.266849e+01  -2.849534e+01
  -9.382055e+00  -6.898538e+01
   2.631898e+01  -5.561587e+01
   5.621299e+01   6.387829e+00
   5.625939e+01   1.615041e+01
   3.140479e+01   3.658501e+01
   4.271614e+01  -3.003147e+01
   6.675738e+01  -3.967218e+01
   2.885770e+01   2.688684e+01
   6.879592e-01   1.020588e+02
  -7.211580e+01   1.159576e+02
  -1.399335e+02   4.477168e+01
  -1.096084e+02  -4.804302e+01
   2.081795e+01  -1.015093e+02
   7.323473e+01  -5.945886e+01
   4.777898e+01  -1.010129e+01
  -7.932680e+00   4.873666e+01
  -1.064286e+02  -1.459906e+01
  -5.417834e+01  -5.307242e+01
   3.445782e+01  -4.043143e+01
   1.280181e+02  -3.449731e+01
   1.294038e+02   2.083019e+01
   2.715142e+01   4.647085e+01
  -5.125168e+01   5.249089e+01
  -2.244326e+01  -7.395052e+00
   3.586654e+01   1.492946e+00
   8.001318e+01   7.277644e+00
   3.779348e+01   1.026482e+02
  -5.776878e+01   1.179824e+02
  -9.947622e+01   5.762527e+01
  -1.130602e+02  -3.824689e+01
  -1.564109e+01  -1.059367e+02
   4.223088e+01  -7.500324e+01
   6.964219e+01   1.924630e+01
   1.528293e+01   7.826782e+01
  -2.339632e+01   4.514117e+01
  -4.894435e+01  -7.377813e+00
  -1.766421e+01  -1.850043e+01
  -1.586923e+01   3.100991e+01
   1.349079e+01   1.689822e+01
  -2.565368e+01  -9.416373e+00
  -6.903033e+01  -8.762586e+01
  -9.063554e+00  -6.420195e+01
   3.653027e+01  -3.591273e+01
   1.434702e+02   1.263742e+01
   1.252388e+02   9.293884e+01
   1.918026e+01   5.956985e+01
  -4.391897e+01   3.683347e+01
  -5.300195e+01  -2.692329e+01
  -3.625240e+01  -1.243468e+01
   3.754191e+01  -3.616443e+00
   3.149872e+00  -2.405014e+00
  -1.259689e+01   1.034354e+01
   1.357997e+01   3.452959e+00
   4.599555e+01  -3.057250e+01
   8.702808e+01   7.776384e+00
   3.874286e+01   4.349394e+01
  -7.532079e+01   8.393460e+01
  -1.312265e+02   7.182605e+01
  -1.054512e+02  -2.489280e+01
  -6.021727e+01  -1.058002e+02
   6.218197e+01  -1.080042e+02
   8.440221e+01  -7.140573e+01
   8.883456e+01   3.018809e+01
   3.785232e+01   2.622179e+01
   9.242499e+00   3.483716e+01
   2.269909e+01  -2.647301e+00
   5.595288e+01   3.448704e+01
   1.800436e+01   5.614039e+01
  -4.369091e+01   4.298389e+01
  -6.642089e+01  -1.616939e+01
  -5.355180e+01  -4.013391e+01
   2.170208e+00  -5.623701e+01
   4.480141e+01  -3.887052e+01
   7.034944e+01   2.973664e+01
  -5.665701e+00   1.034444e+02
  -4.837533e+01   4.359187e+01
  -6.161878e+01   1.468238e+01
  -3.179626e+01  -3.822751e+01
   3.849074e+01  -4.925325e+01
   2.517757e+01  -2.188990e+01
  -1.130825e+01   5.573380e+00
  -3.468592e+01   1.792516e+01
  -5.240204e+00  -2.234332e+01
   5.554686e+01  -6.267384e+01
   8.514492e+01  -5.906740e+01
   4.574943e+01   3.769837e+01
  -1.096745e+01   4.984178e+01
  -4.448482e+01   2.458705e+01
  -3.838902e+01   2.433181e+01
   1.846876e+00  -3.487370e+01
   2.037443e+01  -3.695578e+01
  -4.016160e+00   8.624466e+00
  -1.391808e+01   5.103978e+01
  -1.923107e+01   1.509298e+01
  -5.093576e+01   9.464257e+00
  -4.659006e+00  -3.897088e+01
  -1.540123e+01  -8.889558e-01
   8.277921e+00   3.224049e+01
  -1.046154e+01  -1.439313e-01
   9.579569e+00  -1.585890e+01
  -2.468872e+01  -4.929061e+01
   4.671876e+01  -5.011831e+01
   6.685777e+01   2.385476e+01
   1.550519e+01   6.056602e+01
  -3.952873e+01   3.567191e+01
  -3.323400e+01   2.699066e+00
  -3.414087e+01  -4.219735e+01
   5.419500e+01  -5.351980e+01
   7.116775e+01   2.258853e+01
   3.067245e+01   3.425640e+01
  -2.927465e+01   6.348577e+01
  -8.807926e+01   7.348067e+00
  -3.028470e+01   1.337455e+01
   3.832501e+01  -7.878575e+00
   1.341078e+01  -2.793872e+01
  -1.910968e+01   2.423683e+01
  -4.593003e+01   1.529545e+01
