
 $NMID
 id='ANONYMOUS ', fmtdat='(2E16.6)'
 volume=1.0
 tramp=1.0
 $END
   2.830664e+03   5.852075e+01
   1.499488e+03   1.657574e+03
  -2.923336e+02   1.827133e+03
  -1.348674e+03   9.007598e+02
  -7.667602e+02  -7.743261e+01
   7.535159e+01  -2.341510e+02
   3.676889e+02   7.294767e+01
   1.569232e+01   5.489359e+02
  -4.467774e+02   5.070175e+02
  -6.077239e+02  -2.118685e+01
  -2.878241e+02  -4.901616e+02
   1.719340e+01  -5.099609e+02
   3.420726e+02  -4.994442e+01
   1.605600e+02   3.932680e+02
  -1.676126e+02   4.044183e+02
  -4.266234e+02   1.077177e+01
  -2.325007e+02  -5.054401e+02
   2.201313e+02  -5.022951e+02
   4.416308e+02  -1.594576e+02
   3.812650e+02   2.245405e+02
   3.866171e+01   3.085188e+02
  -1.555386e+02   1.631894e+02
  -5.722661e+01   7.636485e+01
   1.469861e+02   5.711454e+01
   2.211310e+02   2.500158e+02
  -2.974703e+01   3.270942e+02
  -4.626727e+02   1.475061e+02
  -5.404264e+02  -1.597167e+02
  -2.172769e+02  -4.187693e+02
   3.228764e+02  -1.896511e+02
   4.968321e+02   1.328700e+02
   1.485744e+02   3.449839e+02
  -2.546893e+02   3.378839e+02
  -4.475667e+02   8.695382e+01
  -2.542168e+02  -1.842024e+02
   1.312768e+01  -3.286628e+02
   7.296990e+01  -1.579752e+02
   2.509227e+00   1.374945e+02
  -1.719088e+02   1.470735e+02
  -1.785642e+02  -1.019864e+02
   5.363378e+01  -4.273240e+02
   2.626343e+02  -3.414144e+02
   3.280878e+02   3.432436e+01
   5.914466e+01   3.679342e+02
  -1.855900e+02   1.055841e+02
  -1.757441e+02  -2.736539e+02
   1.010170e+02  -3.925953e+02
   3.773827e+02  -3.134137e+01
   4.198454e+02   3.182330e+02
   1.217097e+02   4.615945e+02
  -3.133016e+02   2.573048e+02
  -4.142334e+02  -7.159340e+01
  -2.968128e+02  -2.337011e+02
   7.008474e+01  -2.250551e+02
   2.663766e+02  -7.000063e+01
   1.993143e+02   6.791803e+01
  -4.266358e+01   2.114151e+01
  -7.412459e+01  -9.075018e+01
   8.963007e+01  -7.275052e+01
   2.310121e+02   4.966416e+01
   1.059215e+02   1.934839e+02
  -1.212677e+02   2.277689e+02
  -2.909781e+02   1.375232e+02
  -2.109093e+02  -8.220898e+01
   1.258322e+01  -2.410989e+02
   2.008114e+02  -2.698809e+02
   2.783030e+02  -1.078451e+02
   2.132300e+02   1.411075e+02
   8.032939e+00   3.101339e+02
  -8.313697e+01   2.891461e+02
   4.965466e+00   1.073351e+02
  -2.479753e+01   5.676311e+01
  -9.974656e+01   6.473193e+01
  -2.177230e+02   4.238697e+01
  -2.240205e+02  -1.427395e+02
  -8.904589e+01  -2.473404e+02
   4.955376e+01  -1.730903e+02
   1.685312e+02   9.026103e+00
   1.359327e+02   2.517386e+02
  -6.009023e+01   2.394348e+02
  -2.281051e+02   4.666187e+01
  -2.317283e+02  -1.516573e+02
  -8.741784e+01  -2.647164e+02
   6.275646e+01  -1.824569e+02
   1.479746e+02  -1.276470e+02
   1.185001e+02  -5.976363e+01
   1.074976e+02  -6.073622e+01
   2.440182e+02  -4.758329e+01
   3.493501e+02   4.318591e+01
   2.667094e+02   2.408122e+02
  -3.342188e+01   4.134786e+02
  -3.247769e+02   3.205093e+02
  -4.078297e+02   1.182099e+02
  -2.588129e+02  -1.329204e+02
  -1.179311e+01  -2.436410e+02
   8.837862e+01  -1.614056e+02
   4.412328e+01  -6.971916e+00
  -8.891392e+01   2.232212e+01
  -1.192698e+02  -4.151906e+01
  -2.577728e+01  -1.495110e+02
   9.864184e+01  -6.266665e+01
   1.265358e+02   9.128111e+01
  -2.773783e+01   1.134875e+02
  -1.675632e+02   6.219812e+00
  -1.249636e+02  -2.054094e+02
   1.033719e+01  -2.702959e+02
   2.278682e+02  -1.721794e+02
   3.224865e+02   1.309182e+02
   2.123522e+02   2.437942e+02
   8.503916e+00   2.592451e+02
  -1.120793e+02   8.523839e+01
  -1.294033e+02  -1.190824e+01
  -2.852858e+01  -2.770544e+01
   4.987260e+01   3.203038e+01
   7.164941e+00   1.175304e+02
  -1.385892e+02   6.802020e+01
  -1.488647e+02  -3.393170e+01
  -4.218029e+01  -7.823116e+01
   8.081951e+01  -1.453537e+01
   4.510483e+01   1.020492e+02
  -1.260638e+02   1.064909e+02
  -2.051672e+02   1.102959e+00
  -1.935861e+02  -1.847724e+02
   2.666641e+00  -2.502723e+02
   1.980268e+02  -1.533458e+02
   2.048570e+02  -7.297754e+01
   1.157295e+02   6.377801e+01
  -3.379803e+01   8.651970e+01
  -6.895187e+01  -2.267692e+01
   4.460763e+01  -5.715265e+01
   1.492483e+02   6.888478e+00
   1.586858e+02   1.137180e+02
   3.009731e+01   1.707232e+02
  -8.107835e+01   1.235996e+02
  -9.208701e+01  -2.010827e+01
  -4.083576e+01  -6.031412e+01
   5.500266e+01  -1.877938e-01
   5.846776e+00   7.165010e+01
  -9.722436e+01   7.473795e+01
  -2.107005e+02   9.222271e+00
  -1.678639e+02  -1.480492e+02
  -3.943602e+00  -2.029214e+02
   1.349169e+02  -1.590466e+02
   1.771861e+02   2.102603e+01
   5.667497e+01   9.011245e+01
  -4.959087e+01   1.016153e+02
  -6.198261e+01   2.445558e+01
  -1.570579e+01  -1.456639e+01
   1.828122e+01  -8.027211e+00
  -9.544013e+00   3.846022e+01
  -6.768218e+01   2.629002e+00
  -7.720274e+01  -6.906238e+01
  -1.856464e+01  -1.470853e+02
   1.191488e+02  -1.236758e+02
   2.336327e+02   2.604523e+01
   1.795923e+02   1.282744e+02
   4.590079e+01   1.672912e+02
  -9.311013e+01   1.141718e+02
  -9.814128e+01   1.186557e+01
  -7.481155e+01  -6.757000e+01
  -2.920100e+01  -1.716984e+01
  -6.970587e+01   2.030037e+01
  -7.819245e+01  -1.372244e+01
  -4.137612e+01  -3.140621e+01
   1.363943e+01  -5.108319e+01
   1.277295e+02  -3.694687e+01
   9.836949e+01   2.525835e+01
  -5.921975e+00   1.115302e+02
  -1.523993e+02   5.900904e+01
  -1.609537e+02  -2.760401e+01
  -8.014968e+01  -1.801502e+02
   1.081306e+02  -2.030599e+02
   2.277456e+02  -9.213881e+01
   2.099698e+02   8.892695e+01
   9.649052e+01   1.203635e+02
  -4.335966e+01   1.074246e+02
  -5.913405e+01   7.285339e+01
  -8.970157e+01   7.027756e+01
  -6.449131e+01   4.681083e+01
  -8.167596e+01   4.944104e+01
  -1.299839e+02  -4.246540e+01
  -9.477633e+01  -1.203537e+02
   1.061972e+01  -2.038490e+02
   6.213628e+01  -1.123727e+02
   1.433241e+02  -7.919667e+00
   7.376603e+01   8.471809e+01
  -1.381762e+01   1.163495e+02
  -5.492362e+01   5.249926e+01
  -4.622093e+01  -3.712390e+01
  -5.643046e+00  -4.898780e+01
   2.736606e+01  -3.562544e+01
  -1.419873e+01  -9.950241e+00
  -7.664061e+01  -3.814937e+01
  -5.201102e+01  -4.263815e+01
   5.960846e+01  -3.653087e+01
   1.300332e+02  -4.641300e+00
   9.320718e+01   8.145532e+01
  -4.594629e+00   8.795704e+01
  -1.027027e+02   3.715880e+01
  -1.172193e+02   1.813880e+00
  -5.141780e+01  -3.943476e+01
   2.666770e+01  -4.302612e+01
   4.023691e+01   3.073596e+01
   7.000142e+00   3.882630e+01
  -1.758351e+01   4.433544e+01
  -3.467677e+01  -3.084180e+00
  -3.225076e+01  -4.840373e+01
  -1.835326e+01  -3.995749e+01
  -4.114570e+01  -2.117752e+01
  -5.292039e+01  -4.261636e+00
  -2.020868e+01  -7.529548e+01
   4.635686e+01  -1.218494e+02
   1.259183e+02  -8.211137e+01
   1.411928e+02  -3.715130e+01
   1.002865e+02   8.455213e+01
   1.030059e+00   1.020650e+02
  -8.630391e+01   5.350112e+01
  -5.930744e+01  -2.247418e+01
   4.438908e+01   2.416410e+00
   1.304232e+02   5.362569e+01
   3.005802e+01   1.022923e+02
  -1.209224e+02   7.983775e+01
  -1.525544e+02  -1.478568e+01
  -1.376593e+02  -5.564325e+01
  -3.020476e+01  -9.905298e+01
   7.367859e+01  -2.055869e+01
   2.947889e+01   6.296497e+00
  -2.400847e+01   2.053174e+01
  -7.839388e+01  -3.670243e+01
  -1.729522e+01  -1.132907e+02
   7.901874e+01  -1.048430e+02
   1.385856e+02  -3.590308e+01
   9.355082e+01   9.110755e+01
   4.877624e+00   1.474053e+02
  -4.918078e+01   7.798591e+01
  -7.873408e+01  -1.799687e+01
  -6.505577e+01  -1.111268e+02
   1.523684e+01  -7.984776e+01
   4.457404e+01   1.451076e+01
   3.167501e+01   5.978516e+01
   3.568075e+01   2.753220e+01
  -2.727682e+01   5.942422e+00
  -4.864546e+00   1.252252e+01
   2.465232e+01   6.009286e+01
   2.711049e+01   9.572256e+01
  -6.414864e+01   2.854945e+01
  -1.272860e+02  -4.215264e+01
  -1.277160e+02  -6.329500e+01
  -2.151349e+01  -7.688587e+01
   8.255448e+01  -1.558542e+01
   8.677568e+01  -1.337666e+00
   1.902396e+01   2.363194e+01
  -4.116796e+01   3.542452e+01
   7.747876e+00   1.292839e+01
   4.096113e+01   9.236320e-01
  -2.085768e+01   1.420346e+01
  -6.646135e+01  -1.312793e+01
  -8.144999e+01  -7.966155e+00
  -1.771677e+01  -8.457059e+01
   1.157945e+02  -6.859592e+01
   1.533644e+02  -5.314718e+01
   1.183184e+02   5.018063e+01
   1.692021e+01   1.201352e+02
  -5.574735e+01   1.111341e+02
  -9.321017e+01   6.308877e+01
  -3.722581e+01  -1.074533e+01
  -3.908090e+00  -4.171388e+01
  -1.306899e+01  -6.541298e+00
  -6.227669e+00  -2.179431e+01
  -1.471738e+01  -2.433738e+01
   1.118126e+01  -6.509276e+01
   3.655562e+01  -7.183182e+01
   6.001456e+01   2.360569e+01
   6.099950e+01   9.937221e+01
  -5.832856e+00   8.318355e+01
  -6.683126e+01  -3.644038e+00
  -8.472221e+01  -5.606100e+01
  -5.012810e+01  -8.112168e+01
   3.643080e+01  -5.721371e+01
   1.045397e+02  -1.456982e+00
   3.260396e+01   5.658051e+01
  -1.585520e+01   2.480948e+01
  -1.843914e+01  -1.034084e+00
   1.995758e+01   1.471656e+01
   6.079724e+01   2.747881e+00
   2.735554e+00   2.438217e+01
  -3.227764e+01   7.100069e+01
  -8.755074e+01   2.905477e+01
  -9.447225e+01  -1.326983e+01
   1.425233e+01  -5.995266e+01
   4.307432e+01  -8.797158e+01
   4.708097e+01  -1.307897e+01
  -3.242193e+01   5.613921e+01
  -1.046424e+01   3.636014e+01
  -1.598299e+01  -1.554760e+01
   5.137400e+00  -2.900140e+01
   7.073942e+00  -2.763172e+01
   4.077949e+01   9.692468e+00
   3.243554e+01   1.502369e+01
   8.309003e+00   1.839014e+01
   1.756969e+01  -4.494998e+00
  -3.007350e+00   3.715920e+00
  -1.215559e+01   2.331248e+01
  -7.919286e+00   5.783375e+01
   2.670528e+00   2.008773e+01
  -2.880583e+01  -2.822995e+01
  -3.968314e+01  -6.094878e+01
   3.244268e+01  -4.136830e+01
   1.713821e+01   3.290185e+01
   3.131478e+01   6.293762e+01
  -2.673628e+01   3.639284e+01
  -7.282880e+01  -7.320604e+00
  -2.583711e+01  -5.935846e+01
   4.140363e+01  -5.724709e+01
   8.823594e+01  -6.944414e-01
   3.404263e+01   3.821163e+01
  -9.133866e+00   1.298733e+01
  -2.029768e+01  -1.834264e+01
   3.672799e+01  -5.079277e+00
   5.428421e+01   5.090419e+00
