
 $NMID
 id='ANONYMOUS ', fmtdat='(2E16.6)'
 volume=1.0
 tramp=1.0
 $END
   2.513481e+03   6.972640e+01
   1.940282e+03   1.297728e+03
   2.550612e+02   1.654501e+03
  -1.052609e+03   8.951082e+02
  -7.755749e+02   1.797055e+02
  -4.577912e+01  -6.486586e+01
   2.088831e+02   4.009083e+01
   3.070010e+01   2.719445e+02
  -3.308198e+02   3.893920e+02
  -5.037166e+02   1.818198e+01
  -3.083881e+02  -4.182043e+02
   4.499052e+01  -4.235892e+02
   2.178194e+02  -1.161208e+02
   1.559598e+02   2.935298e+02
  -4.638524e+01   4.465048e+02
  -2.622871e+02   4.128861e+01
  -2.499767e+02  -2.857049e+02
   3.821215e+01  -4.796968e+02
   2.968640e+02  -2.319781e+02
   3.276216e+02   7.938880e+01
   9.024177e+01   2.877356e+02
  -5.223100e+01   1.955128e+02
  -1.881583e+01   3.636143e+01
   1.704187e+02   1.312308e+02
   1.930241e+02   2.662109e+02
  -7.127323e+01   2.223597e+02
  -3.997924e+02   1.186515e+02
  -5.100941e+02  -9.363881e+01
  -1.974948e+02  -2.976845e+02
   2.462240e+02  -1.154993e+02
   3.722099e+02   8.458194e+01
   1.645820e+02   2.779396e+02
  -1.720252e+02   2.278477e+02
  -2.945867e+02   8.858080e+01
  -2.333732e+02  -9.432599e+01
  -1.160985e+02  -2.252286e+02
  -8.509259e+00  -1.248304e+02
  -6.259017e+01   3.508775e+01
  -9.599016e+01   1.514363e+02
  -1.242797e+02  -1.348203e+02
  -2.300547e+01  -3.652093e+02
   2.050851e+02  -3.066801e+02
   2.031288e+02  -3.827032e+00
   8.005204e+01   1.933583e+02
  -1.082103e+02   6.080184e+01
  -1.027193e+02  -1.286246e+02
   9.236796e+01  -2.579119e+02
   3.111049e+02  -1.040358e+01
   3.205836e+02   3.055880e+02
   8.225950e+01   3.631670e+02
  -2.201119e+02   1.565303e+02
  -4.053938e+02  -9.416311e+01
  -2.339828e+02  -1.949001e+02
   4.082168e+01  -1.473207e+02
   1.888709e+02  -3.412590e+01
   2.129911e+02  -8.922072e-01
   3.273572e+01   1.686232e-01
  -1.418499e+01  -3.533908e+01
   6.174926e+01  -4.567421e+00
   1.537292e+02   3.366932e+01
   7.596938e+01   1.648775e+02
  -8.335920e+01   2.033531e+02
  -2.914548e+02   1.116769e+02
  -1.786876e+02  -1.078345e+02
   5.676084e+01  -2.688536e+02
   2.281489e+02  -2.715293e+02
   2.898167e+02  -1.287063e+02
   1.137540e+02   1.062984e+02
  -2.311195e+01   2.601413e+02
   8.890454e+00   2.736880e+02
  -4.590485e+01   1.375710e+02
  -4.235362e+01   9.099713e+01
  -1.592938e+02   8.682014e+01
  -2.276046e+02   7.403999e+00
  -1.848027e+02  -1.143970e+02
  -2.869842e+01  -1.666981e+02
   8.057002e+01  -1.129886e+02
   1.148330e+02   5.363526e+01
   8.282220e+01   1.671883e+02
  -2.564258e+01   1.858599e+02
  -1.876425e+02   2.118959e+01
  -2.088321e+02  -1.478025e+02
  -1.370213e+02  -2.051035e+02
   2.339743e+01  -2.029885e+02
   1.452669e+02  -1.070433e+02
   1.091983e+02  -7.019496e+01
   1.177976e+02  -5.696149e+01
   2.392431e+02  -5.074997e+01
   3.462248e+02   7.560954e+01
   2.716540e+02   2.330465e+02
  -5.808002e+00   3.385221e+02
  -2.736068e+02   2.696260e+02
  -3.342921e+02   1.309864e+02
  -2.390683e+02  -7.444809e+01
   7.627519e+00  -1.918042e+02
   8.030456e+01  -1.455478e+02
   2.972266e+00   1.011938e+01
  -9.713545e+01   1.350196e+01
  -9.465441e+01  -2.809796e+01
  -1.735812e-01  -1.143188e+02
   1.035966e+02  -8.782133e+01
   6.212163e+01   4.940651e+01
  -3.522379e+01   6.886524e+01
  -1.533684e+02  -1.396590e+01
  -8.807947e+01  -2.091845e+02
   3.884548e+01  -2.591353e+02
   2.259378e+02  -1.546298e+02
   2.700097e+02   8.639014e+01
   2.599674e+02   2.472237e+02
   2.364895e+01   2.413430e+02
  -1.195902e+02   7.739990e+01
  -1.277276e+02   7.026211e+00
  -1.892240e+01  -8.973527e+00
   3.280965e+01   2.591825e+01
  -1.716012e+01   3.330583e+01
  -1.269815e+02   5.976700e+01
  -1.048912e+02  -1.449568e+01
  -2.074223e+01  -2.987530e+01
   6.099902e+01   1.052245e+01
   2.583604e+01   5.640220e+01
  -1.381072e+02   4.758617e+01
  -2.240371e+02  -1.332401e+01
  -1.989668e+02  -1.103487e+02
  -2.303495e+01  -1.879445e+02
   1.841914e+02  -1.744954e+02
   1.815833e+02  -4.212562e+01
   1.302993e+02   3.591096e+01
  -1.412479e+01   4.202625e+01
  -3.416035e+00  -1.438124e+01
   4.512409e+01  -7.739231e+01
   1.106579e+02  -1.475720e+01
   1.473377e+02   7.527019e+01
   6.092185e+01   1.708262e+02
  -6.661092e+01   1.146228e+02
  -9.186569e+01   4.063012e+01
  -7.127937e+01  -1.617531e+01
   3.121357e+01  -1.096279e+01
   1.000482e+01   8.589423e+01
  -6.578302e+01   1.028914e+02
  -1.887139e+02  -5.897049e+00
  -1.524001e+02  -1.083630e+02
   3.185114e+01  -1.619390e+02
   1.240130e+02  -9.339812e+01
   1.517013e+02   7.009448e-01
  -9.175799e-01   8.549685e+01
  -7.480723e+01   8.412967e+01
  -6.563924e+01   3.355180e+01
   1.394198e+01  -1.191961e+01
   2.373560e+01  -4.309118e+01
   4.221315e+01   4.410553e+01
  -7.533960e+01   2.193528e+01
  -1.042112e+02  -5.799752e+01
   1.756482e+01  -1.479706e+02
   1.231095e+02  -1.016989e+02
   1.616900e+02   1.286776e+01
   1.372041e+02   1.036747e+02
   3.760671e+01   1.903437e+02
  -9.977987e+01   1.213404e+02
  -6.971944e+01   2.974741e+01
  -8.179205e+01  -2.985323e+01
  -1.511179e+01  -1.748815e+01
  -1.212181e+01   2.040447e+00
  -4.485449e+01   1.251568e+01
  -2.093657e+01  -3.210262e+01
   3.949657e+01  -1.021341e+02
   7.740716e+01  -3.811777e+01
   4.798252e+01   3.247144e+01
  -3.448896e+01   1.204557e+02
  -1.528481e+02   6.278822e+01
  -1.445053e+02  -8.723003e+01
  -5.466337e+01  -2.094566e+02
   1.103875e+02  -1.243901e+02
   1.907960e+02  -2.074187e+01
   1.859577e+02   1.096140e+02
   1.171336e+02   1.293640e+02
  -4.239466e+01   9.032401e+01
  -5.880233e+01   1.877784e+01
  -6.327629e+01   4.353282e+01
  -5.122692e+01   8.939764e+01
  -7.003551e+01   4.850445e+01
  -8.342894e+01  -3.220217e+01
  -9.060421e+01  -1.163531e+02
   1.048409e+01  -1.909091e+02
   1.113443e+02  -1.118588e+02
   1.159747e+02   1.817759e+01
   6.533008e+01   1.226845e+02
  -2.551043e+00   1.154937e+02
  -9.447856e+01   5.352032e+01
  -5.160640e+01  -1.083188e+00
  -1.606161e+01  -5.527741e+01
   1.377425e+01  -6.817928e+01
  -7.995594e+00  -3.571218e+01
  -5.263934e+01  -2.603787e+00
  -3.276795e+01  -3.309217e+01
   6.380712e+01  -3.321308e+01
   1.249746e+02   2.650548e+01
   1.107572e+02   5.805388e+01
  -2.335273e+01   6.633078e+01
  -1.344473e+02   2.324287e+01
  -1.066618e+02  -2.663279e+00
  -2.526573e+01  -3.415695e+01
   5.575873e+01  -3.650192e+01
   6.385502e+01   1.938878e+01
   1.915553e+01   9.653688e+01
  -3.823754e+01   3.678899e+01
  -5.768227e+01  -1.430907e+01
  -4.358462e+01  -7.395445e+00
  -3.737585e+01  -1.333769e+01
  -6.958018e+01  -1.210922e+01
  -3.796668e+01  -2.941330e+01
  -3.982920e+01  -1.092108e+02
   5.696496e+01  -1.436318e+02
   9.657487e+01  -1.199482e+02
   1.324380e+02  -2.545228e+01
   8.977377e+01   1.157174e+02
  -2.882853e+01   1.045958e+02
  -8.109007e+01   3.025993e+01
  -3.690840e+01  -1.856870e+01
   3.045004e+01  -9.251215e+00
   9.427222e+01   1.869250e+01
   4.295521e+01   8.041772e+01
  -9.289748e+01   7.119861e+01
  -1.448810e+02   1.394918e+01
  -1.320759e+02  -3.331804e+01
  -1.961286e+01  -7.361037e+01
   5.072984e+01  -2.046396e+01
   1.913642e+01   1.279771e+00
  -2.723802e+01   3.674965e+01
  -8.839193e+01  -1.161920e+01
  -1.246782e+01  -9.500928e+01
   6.628953e+01  -1.097449e+02
   1.339164e+02  -6.575195e+01
   6.197714e+01   8.401602e+01
  -1.203587e+01   1.355517e+02
  -8.206736e+01   8.091554e+01
  -6.977020e+01   2.120938e+01
  -4.686466e+01  -7.813835e+01
   2.041799e+00  -5.516973e+01
   6.536723e+01  -2.717263e+01
   3.218318e+01   4.919134e+00
   2.914585e+01  -1.700403e+01
  -3.081410e+00  -1.446534e+01
   6.212098e-01   7.476173e+00
   1.219649e+01   4.667780e+01
   4.274959e+01   1.030607e+02
  -4.829251e+01   5.468196e+01
  -1.231056e+02  -1.019538e+01
  -8.962121e+01  -4.327127e+01
  -1.973951e+01  -2.494958e+01
   5.978060e+01  -5.142767e+00
   4.716136e+01   6.470293e+00
   2.246638e+01  -1.242878e+01
   7.937731e+00  -2.632741e+00
   5.365059e+00   1.066279e+01
  -1.258357e+01   1.905213e+01
  -1.491237e+01  -3.100378e+01
  -4.178834e+01   2.040828e+01
  -7.322078e+01  -1.861843e+01
  -1.610147e+01  -9.539699e+01
   9.045091e+01  -6.891205e+01
   1.472980e+02  -7.140968e+01
   1.286931e+02   5.062196e+01
   1.765417e+01   1.107453e+02
  -5.757799e+01   9.923411e+01
  -1.031898e+02   7.205898e+01
  -5.916800e+01   1.362878e+01
  -4.250709e+01  -1.825508e+01
  -3.166786e+00   4.218405e+00
  -1.184774e+01  -1.098209e+01
  -4.550336e+01  -4.425237e+01
  -3.402758e+01  -6.687899e+01
   1.574389e+01  -3.203031e+01
   7.965880e+01  -3.323916e+00
   3.386591e+01   6.358000e+01
  -8.529093e+00   1.012860e+02
  -6.488018e+01  -1.856439e+00
  -1.200385e+02  -3.767907e+01
  -3.404374e+01  -6.991027e+01
   3.326821e+01  -5.631211e+01
   7.568524e+01   5.084835e+00
   3.818476e+01   4.813844e+01
  -5.323693e+01   6.855086e+01
  -2.689411e+01   7.747659e+00
   1.977847e+01  -5.419550e-02
   2.155753e+01  -3.075905e+00
   8.314147e+00  -8.737036e+00
  -7.331117e+01   2.151358e+01
  -8.332563e+01   3.745501e+01
  -5.194248e+01  -2.071917e+01
  -1.636555e+01  -7.985820e+01
   5.096055e+01  -3.751054e+01
   6.168009e+01  -4.313557e+00
   1.542910e+01   3.136274e+01
  -2.004087e+00   3.604405e+01
  -2.743863e+01  -6.184149e+00
  -1.293410e+01  -2.836426e+01
   1.233618e+01  -2.066376e+01
   5.800173e+01  -3.866937e+00
   9.175941e+00   1.703222e+01
   7.741256e+00  -6.736240e+00
  -3.152916e+00  -1.250602e+01
  -2.650160e+01  -4.449416e+01
   8.883179e+00   3.483482e+01
   5.167258e+00   7.468644e+01
  -1.754698e+01   1.760971e+01
  -4.079176e+01  -3.243597e+01
  -3.007860e+01  -7.223766e+01
   9.654106e+00  -4.208840e+01
   5.764533e+01   6.271005e+00
  -1.087914e+01   6.363306e+01
  -5.689072e+01   3.635060e+01
  -8.927222e+01  -7.207930e+00
  -3.825157e+01  -3.887454e+01
   1.569230e+01  -3.046017e+01
   5.372287e+01  -5.486789e+01
   1.022058e+01  -2.191587e+01
  -2.281931e+01   1.250509e+00
  -8.457110e+00  -1.436258e+01
   4.954392e+01  -1.009935e+01
   4.694909e+01  -2.385753e+01
