
 $NMID
 id='ANONYMOUS ', fmtdat='(2E16.6)'
 volume=1.0
 tramp=1.0
 $END
   2.215593e+03  -3.215213e+01
   1.590809e+03   8.109298e+02
   1.427373e+02   1.114210e+03
  -7.194068e+02   8.084269e+02
  -5.912842e+02   2.436525e+02
  -3.090430e+01  -3.612398e+01
   1.516060e+02   9.455725e+01
   6.338992e+01   3.600396e+02
  -2.730996e+02   4.325833e+02
  -4.598393e+02   1.187271e+02
  -3.255764e+02  -2.600752e+02
  -3.676704e+01  -4.854271e+02
   1.891747e+02  -1.566549e+02
   1.676569e+02   2.203121e+02
  -4.624585e+01   3.885508e+02
  -2.815155e+02   1.084100e+02
  -2.225491e+02  -3.694549e+02
   4.767721e+01  -4.296166e+02
   3.274078e+02  -2.561854e+02
   3.405127e+02   1.179356e+02
   1.088414e+02   2.676435e+02
  -9.413610e+01   1.571313e+02
  -1.928279e+01   6.135651e+01
   1.182232e+02   9.312860e+01
   1.498743e+02   2.255893e+02
  -4.694292e+01   2.186277e+02
  -3.674318e+02   7.425076e+01
  -4.403023e+02  -1.083251e+02
  -1.022894e+02  -1.897592e+02
   2.217119e+02  -1.208585e+02
   3.863382e+02   5.371799e+01
   7.624408e+01   1.866379e+02
  -1.735861e+02   1.803044e+02
  -3.374833e+02   9.619398e+01
  -2.018950e+02  -9.962140e+01
  -5.400996e+01  -1.638842e+02
  -9.541565e+00  -1.182063e+02
  -8.495864e+01   6.705124e+01
  -1.131519e+02   3.657148e+01
  -8.820537e+01  -1.068559e+02
   4.750159e+01  -3.284392e+02
   1.727132e+02  -2.734005e+02
   1.775383e+02   1.088557e+01
   7.796865e+01   1.600641e+02
  -9.286399e+01   9.867130e+01
  -1.136406e+02  -1.557126e+02
   7.696185e+01  -2.088262e+02
   3.322034e+02  -6.468737e+01
   3.418709e+02   1.840974e+02
   1.302714e+02   2.897749e+02
  -1.738390e+02   2.178460e+02
  -4.002217e+02  -4.855055e+01
  -2.458827e+02  -1.210892e+02
   1.827065e+01  -1.308796e+02
   1.956693e+02  -3.811187e+01
   1.390643e+02  -8.310253e+00
   1.333403e+01  -3.311095e+01
   3.622587e+00  -1.155660e+01
   5.261668e+01  -9.577866e+00
   1.701460e+02   3.053653e+01
   1.098969e+02   1.221633e+02
  -7.414081e+01   2.020753e+02
  -2.402146e+02   1.175874e+02
  -2.473451e+02  -8.718223e+01
  -7.458973e+00  -2.536472e+02
   1.783375e+02  -2.476465e+02
   2.253166e+02  -1.160367e+02
   1.738136e+02   1.187323e+02
   2.575735e+01   2.281293e+02
  -2.572804e+00   1.730117e+02
  -4.157744e+00   1.248691e+02
  -1.362077e+01   6.935625e+01
  -1.440549e+02   8.836848e+01
  -2.016359e+02   2.742440e+01
  -1.671998e+02  -8.642328e+01
  -8.010890e+01  -1.898985e+02
   7.268377e+01  -1.586372e+02
   1.643895e+02   1.910282e+01
   9.146636e+01   1.874158e+02
  -3.068607e+01   1.820849e+02
  -1.864655e+02   1.770430e+01
  -2.339729e+02  -7.043647e+01
  -1.251680e+02  -2.065902e+02
   2.929831e+01  -1.810095e+02
   1.092068e+02  -1.120878e+02
   8.641409e+01  -6.232858e+01
   1.100928e+02  -4.678749e+01
   2.173590e+02  -2.439035e+01
   3.551692e+02   7.556116e+01
   2.290278e+02   2.336083e+02
  -1.564310e+01   3.124469e+02
  -2.582988e+02   2.371659e+02
  -3.298741e+02   1.092824e+02
  -1.952295e+02  -8.985244e+01
  -4.742058e+01  -1.635472e+02
   3.427498e+01  -1.012876e+02
  -9.974723e+00  -2.352063e+01
  -6.410720e+01   6.912322e+00
  -6.094895e+01  -2.317810e+01
   3.972079e+00  -8.378974e+01
   5.217439e+01  -5.707806e+01
   5.405120e+01   6.422099e+01
  -4.129013e+01   6.033656e+01
  -1.260609e+02   2.780839e+00
  -1.161347e+02  -1.840839e+02
   3.802969e+01  -2.534742e+02
   1.587309e+02  -1.413466e+02
   2.416831e+02   5.393310e+01
   2.165179e+02   1.301666e+02
   5.212322e+01   2.106765e+02
  -9.079722e+01   1.275781e+02
  -1.220809e+02  -3.401968e+01
  -5.782556e+01   1.479166e-01
   3.156718e+01   1.570495e+01
   2.739872e-01   8.169604e+01
  -6.651177e+01   4.058368e+01
  -1.043177e+02   6.637724e+00
  -3.350716e+01  -4.107521e+01
   2.674943e+01   1.092444e+01
   3.207962e+01   4.393881e+01
  -7.614832e+01   6.508598e+01
  -1.963354e+02  -4.234952e+01
  -1.648566e+02  -1.258895e+02
  -2.307394e+01  -1.987882e+02
   1.744199e+02  -1.862265e+02
   1.644518e+02  -8.069420e+01
   6.731386e+01   5.565337e+01
  -3.594906e+01   7.741106e+01
  -3.167061e+01   9.202208e+00
   3.442592e+01  -6.018283e+01
   1.218385e+02  -9.152932e+00
   9.956867e+01   4.965315e+01
   2.350270e+01   1.195510e+02
  -8.747145e+01   5.827276e+01
  -6.888358e+01   2.262810e+01
  -1.540479e+01  -1.465418e+01
   4.330561e+01   2.462439e+01
   2.254960e+00   8.512800e+01
  -8.216593e+01   1.000066e+02
  -1.661595e+02   2.400692e+01
  -1.523906e+02  -9.214466e+01
  -2.251322e+01  -1.572552e+02
   9.675183e+01  -1.335137e+02
   1.410458e+02  -2.325844e+01
   7.977459e+01   1.779045e+01
  -5.563581e+01   9.089068e+01
  -4.518781e+01   5.881022e+01
   8.945483e+00  -2.879113e+01
   2.070209e+01  -3.676356e+01
   6.095954e+00   1.803846e+01
  -5.015414e+01   3.518545e+01
  -8.749722e+01  -3.580643e+01
  -3.634109e+01  -1.452493e+02
   9.611546e+01  -1.056846e+02
   1.652786e+02  -3.678128e+01
   1.722732e+02   1.486619e+02
   5.675305e+01   1.345457e+02
  -7.669752e+01   1.295649e+02
  -6.962859e+01   2.046902e+01
  -7.786561e+01  -3.165992e+01
  -5.188436e+01  -2.646899e+01
  -3.669343e+01   3.761342e+00
  -4.548990e+01   3.024100e+01
  -3.574335e+01  -4.421560e+01
   2.504783e+01  -7.921389e+01
   1.090417e+02  -6.401791e+01
   9.782392e+01   5.361221e+01
   1.256650e+00   1.006511e+02
  -1.151838e+02   8.684899e+01
  -1.748764e+02  -2.292987e+01
  -4.871103e+01  -1.479333e+02
   9.050179e+01  -1.687275e+02
   2.102231e+02  -8.187355e+01
   1.774651e+02   4.169418e+01
   7.428650e+01   8.224158e+01
  -1.972425e+01   9.405470e+01
  -4.820029e+01   3.178619e+01
  -5.568763e+01   5.541523e+01
  -4.194444e+01   8.266917e+01
  -6.746096e+01   6.552258e+01
  -1.020644e+02  -1.225516e+00
  -8.264816e+01  -1.068650e+02
  -2.740605e+01  -1.443023e+02
   7.773273e+01  -1.057353e+02
   1.219652e+02   1.496287e+01
   6.745234e+01   1.181484e+02
   1.207452e+01   9.386713e+01
  -3.735747e+01   6.186239e+01
  -5.490265e+01  -3.379049e+01
  -1.328045e+01  -4.688370e+01
   5.511983e+01  -1.976739e+01
   1.481201e+01  -1.394053e+01
  -7.101615e+01   2.174464e-02
  -4.404511e+01  -3.721827e+01
   3.936322e+01  -4.567053e+01
   1.084145e+02   5.223138e+00
   5.957731e+01   7.275974e+01
   1.420738e+01   8.034939e+01
  -9.580432e+01   7.339097e+01
  -1.126114e+02   1.899280e+00
  -4.466200e+01  -3.555739e+01
   6.102930e+00  -1.638465e+01
   2.764769e+01   8.387159e+00
   1.769112e+01   3.339971e+01
  -2.783496e+01   3.533966e+01
  -6.172665e+01  -3.843545e+00
  -3.991222e+01  -2.070807e+01
  -4.130024e+01  -2.478444e+01
  -3.918777e+01   1.020726e+01
  -7.476261e+01  -1.623909e+01
  -3.615892e+01  -1.932461e+01
   7.696701e+00  -1.022193e+02
   1.112607e+02  -1.063251e+02
   1.174673e+02  -2.791123e+01
   1.001254e+02   6.914187e+01
  -1.200931e+01   1.146045e+02
  -6.747999e+01   6.581712e+01
  -4.045815e+01  -2.012771e+01
   4.107004e+01  -2.447790e+01
   9.066110e+01   2.101848e+01
   3.249931e+01   8.241822e+01
  -5.251671e+01   8.423761e+01
  -1.282514e+02   2.599115e+01
  -1.132731e+02  -3.362659e+01
  -3.076067e+01  -5.562881e+01
   6.240051e+01  -3.710369e+01
   6.380906e+01   8.699202e+00
  -5.499671e+01   2.492192e+01
  -4.515758e+01  -8.691468e+00
  -2.685596e+01  -9.524639e+01
   3.402781e+01  -1.281360e+02
   8.175648e+01  -5.406745e+01
   1.105921e+02   6.500124e+01
   2.343203e+01   1.284320e+02
  -4.758590e+01   1.022077e+02
  -5.321576e+01  -8.035116e+00
   6.022839e+00  -8.711049e+01
   3.017141e+01  -4.530853e+01
   5.832493e+01  -1.588566e+01
   1.164185e+01   5.489841e+01
   2.456093e+01  -6.620396e+00
   1.298622e+01   7.197644e+00
   4.858248e+01   2.226564e+01
   3.232219e+01   6.372947e+01
   1.041396e+01   5.561427e+01
  -5.751505e+01   2.654094e+01
  -9.834712e+01  -1.762508e+01
  -9.955050e+01  -6.809892e+01
  -2.447735e+01  -5.185447e+01
   5.796168e+01  -2.778092e+01
   3.813206e+01  -2.871092e+00
   2.794163e+01   1.594003e+01
  -3.031067e+01   4.113844e+01
  -1.671320e+01  -9.425397e+00
  -5.212676e+00  -1.904106e+01
  -1.239493e+01  -1.383532e+01
  -1.333527e+01  -1.161142e+01
  -8.112925e+01   9.586176e+00
  -5.214930e+01  -4.363304e+01
   5.164760e+01  -7.381147e+01
   1.151358e+02  -6.140413e+01
   9.769616e+01   3.698816e+01
   5.632597e+01   1.065422e+02
  -4.007940e+01   1.157166e+02
  -1.094506e+02   4.148890e+01
  -4.649142e+01  -2.819656e+01
  -3.231642e+00  -3.929489e+01
   2.393869e+01  -3.216303e+01
  -1.546146e+01   9.711216e+00
  -4.297789e+01  -2.163215e+01
  -1.232737e+01  -3.384585e+01
   9.690696e-01  -4.582289e+01
   4.348588e+01  -1.327408e+01
   6.795235e+01   5.544934e+01
   1.663354e+01   4.608198e+01
  -3.308297e+01   4.152737e+01
  -7.629061e+01  -4.202778e+01
  -4.598538e+01  -4.742664e+01
   3.905755e+01  -8.020903e+01
   5.438396e+01  -1.855217e+01
   5.723969e+00   5.379804e+01
  -2.182852e+01   3.085086e+01
  -3.925787e+01  -7.867636e+00
   2.816073e+01  -1.163637e+00
   4.713129e+01  -9.735732e+00
   1.079049e+01   1.773942e+01
  -5.063868e+01   6.162595e+01
  -8.263993e+01   4.739929e+01
  -6.274921e+01   1.529101e+01
  -1.736663e+01  -8.066097e+01
   3.685286e+01  -8.148935e+01
   5.650089e+01  -9.001108e+00
   6.130735e+00   6.308982e+01
   1.202967e+01   2.867296e+01
   2.442207e+01  -1.867586e+01
  -4.444905e+00  -3.241938e+01
   6.992800e+00  -3.214311e+01
   2.311210e+01   1.149205e+01
  -1.230718e+01   2.500021e+01
  -2.093811e+01   3.048215e+00
  -8.259097e+00  -2.929521e+01
   1.086230e+01   3.553337e+00
   2.041067e+01  -1.104919e-01
   1.211517e+01   2.794748e+01
  -9.791364e+00   6.667229e+00
  -6.901239e+01  -3.546431e+01
  -3.796023e+01  -7.895657e+01
   2.691751e+01  -4.510359e+01
   5.053188e+01   2.500687e+01
   1.082050e+01   5.634861e+01
  -3.711439e+01   2.050462e+01
  -8.576651e+01  -1.153387e+01
  -4.949879e+01  -5.464662e+01
   3.923894e+01  -4.236134e+01
   9.320834e+01  -2.576802e+00
   4.145711e+01   6.475993e+00
  -4.116706e+01   2.803443e+01
  -4.251740e+00  -1.574945e+00
   2.277102e+01  -1.817013e+01
   2.309400e+01  -4.186160e+01
