
 $NMID
 id='ANONYMOUS ', fmtdat='(2E16.6)'
 volume=1.0
 tramp=1.0
 $END
   1.316970e+03   1.009229e+02
   8.697993e+02   2.787775e+02
   4.111097e+02   7.351865e+02
  -1.261324e+02   7.478889e+02
  -3.929498e+02   3.630131e+02
  -1.122527e+02   2.136295e+01
   5.089404e+01  -3.645903e+00
   5.189397e+01   1.436851e+02
  -1.272227e+02   2.336283e+02
  -2.616582e+02   8.635648e+01
  -2.963878e+02  -1.110021e+02
  -3.849294e+01  -2.404830e+02
   2.676208e+01  -1.144501e+02
   9.127333e+01   1.549198e+02
  -2.062746e+00   2.022339e+02
  -1.376806e+02   2.044695e+01
  -1.390140e+02  -1.623939e+02
  -2.558031e+01  -2.422917e+02
   2.333131e+02  -1.762851e+02
   1.992775e+02   4.861155e+01
   1.005647e+02   1.254141e+02
   6.268000e+00   9.710575e+01
   5.093561e+00   1.691719e+01
   1.164017e+02   1.884787e+01
   1.094170e+02   1.194878e+02
  -1.369191e+01   1.131122e+02
  -1.733170e+02   5.160897e+01
  -2.087979e+02  -1.195593e+02
  -3.132659e+01  -1.376010e+02
   8.601097e+01  -5.294529e+01
   1.447936e+02   1.973525e+00
   7.930444e+01   8.864969e+01
  -7.871725e+01   1.307991e+02
  -1.756249e+02   1.119005e+02
  -6.895990e+01  -5.901485e+01
  -1.910871e+01  -7.395411e+01
  -1.070195e+01  -8.135078e+01
  -6.939104e+01  -6.810391e+00
  -3.315893e+01   2.027884e+01
  -7.673527e+00  -5.753786e+01
  -2.757910e+01  -1.035709e+02
  -2.929902e+01  -1.469808e+02
   6.454872e+01  -3.830771e+01
   3.414413e+01   8.191101e+01
  -2.292146e+01   3.130138e+01
  -4.450593e+01  -4.248275e+01
   9.719151e+00  -1.197327e+02
   1.760743e+02   4.425441e+00
   2.204206e+02   1.298064e+02
   1.239877e+02   1.316391e+02
  -8.353932e+01   9.716859e+01
  -2.813753e+02  -3.228475e+00
  -1.968027e+02  -6.682880e+01
  -1.763475e+01  -9.999095e+01
   1.144189e+02  -3.989388e+01
   1.028166e+02  -4.718161e+01
   1.804277e+01  -6.587053e+00
  -3.680602e+01   6.962524e+00
   2.915063e+01   6.172504e+00
   9.206463e+01  -2.580555e+01
   1.012412e+02   7.585573e+01
  -5.051941e+01   1.460427e+02
  -1.320923e+02   8.959198e+01
  -1.058142e+02  -5.400965e+01
  -2.072830e+01  -1.653538e+02
   1.280536e+02  -1.815462e+02
   1.918401e+02  -7.460263e+01
   1.004309e+02   6.256948e+01
   2.469319e+01   1.329586e+02
   3.002622e+01   8.873632e+01
   4.577234e+00   1.182201e+02
   5.589729e+00   2.646147e+01
  -6.401944e+01   7.320265e+01
  -1.275110e+02  -3.219279e+00
  -1.065797e+02  -1.022682e+02
  -4.279685e+01  -1.017750e+02
   4.011280e+01  -1.115279e+02
   7.098609e+01  -8.252932e-01
   7.385179e+01   1.345559e+02
  -2.876511e+01   9.801814e+01
  -1.288643e+02   3.191788e+01
  -1.774343e+02  -7.830912e+01
  -5.319971e+01  -1.329235e+02
   2.305764e+01  -1.038034e+02
   6.369058e+01  -5.021328e+01
   4.496433e+01  -4.023281e+01
   5.052465e+01  -5.888782e+00
   1.095789e+02  -1.411701e+01
   1.546757e+02   2.946683e+01
   1.275013e+02   9.821536e+01
  -1.550365e+01   1.580911e+02
  -1.273044e+02   1.134949e+02
  -1.961498e+02   7.515527e+01
  -1.304022e+02  -5.556365e+01
   1.392100e+01  -1.333605e+02
   6.835620e+01  -1.007171e+02
   3.951933e+01  -1.071547e+01
  -5.469505e+01   1.872669e+01
  -4.274122e+01   8.028444e+00
  -1.948075e+01  -3.649337e+01
   1.227594e+01  -1.660770e+01
   3.730478e+01   1.402557e+01
  -2.002104e+00   3.486350e+01
  -4.020206e+01   4.517451e+01
  -7.391518e+01  -9.517204e+01
  -5.331247e+01  -1.761057e+02
   9.645610e+01  -1.065051e+02
   1.415383e+02   2.028236e+00
   1.316272e+02   1.503712e+02
   4.687477e+01   1.245533e+02
  -8.465604e+01   6.850941e+01
  -6.659931e+01  -2.671761e+01
   1.802406e+01  -3.135090e+01
   3.142770e+01   3.938829e+00
   2.189279e+01   9.269537e+01
  -4.597921e+01   2.316716e+00
  -5.204306e+01  -2.717283e+01
  -4.059660e-01  -2.745096e+01
   4.740647e+01   2.990648e+01
  -7.753116e-01   4.023507e+01
  -4.262525e+01   5.426825e+01
  -1.428754e+02  -1.227819e+01
  -1.462640e+02  -8.489728e+01
   4.889393e+00  -1.274112e+02
   1.311406e+02  -1.067489e+02
   1.363552e+02  -1.279840e+01
   4.185855e+01   6.427350e+01
  -8.443587e+00   3.725811e+00
  -4.427973e+01  -1.807553e+01
   2.849112e+01  -3.164614e+01
   6.309177e+01  -5.537452e+01
   8.634623e+01   1.579208e+01
   4.660900e+00   4.565571e+01
  -4.084038e+01   3.459034e+01
  -7.153729e+01   2.210508e+01
   8.743248e-01  -1.489133e+01
   2.863378e+01   1.713995e+01
   4.865531e+01   4.825110e+01
  -4.510126e+01   7.165019e+01
  -6.862504e+01   8.741399e+00
  -8.614406e+01  -5.459892e+01
  -6.973143e+00  -8.531665e+01
   9.492609e+01  -6.333988e+01
   6.510731e+01  -1.848222e+01
   3.351172e+01   3.697669e+01
  -4.394116e+01   5.484285e+01
  -6.165376e+01   2.857346e+01
  -1.866300e+01   4.160753e+00
   1.490553e+01  -4.714168e+00
  -2.847568e+01   1.800897e+01
  -3.141634e+01   1.626667e+01
  -2.584820e+01  -3.748167e+01
   7.410610e+00  -5.565048e+01
   8.139393e+01  -5.733916e+01
   1.210860e+02   8.763135e-02
   8.782810e+01   7.049710e+01
   1.231162e+01   1.190775e+02
  -4.022108e+01   9.177429e+01
  -7.307131e+01   1.239236e+01
  -3.287068e+01  -2.015045e+01
  -3.034975e+01  -1.523675e+01
  -2.837234e+01  -3.499912e+01
  -2.871580e+01  -3.478239e-01
  -1.691089e+01  -4.242584e+01
   8.386181e-01  -5.290208e+01
   3.153152e+01  -6.692309e+01
   6.171494e+01   2.585316e+01
   1.627577e+01   6.485861e+01
  -6.706368e+01   7.686085e+01
  -7.964747e+01  -2.143676e+01
  -6.200132e+01  -8.116795e+01
   3.794887e+01  -8.357916e+01
   1.449831e+02  -2.609243e+01
   1.503378e+02   5.192478e+01
   2.175443e+01   7.949044e+01
  -9.674145e+00   6.534604e+01
  -3.645872e+01   6.302059e+01
  -2.340238e+01   7.622824e+01
  -2.371040e+01   3.906168e+01
  -5.794125e+01   2.507619e+01
  -4.470916e+01  -8.200202e+00
  -2.086840e+01  -4.781974e+01
  -5.276486e+01  -8.614015e+01
   5.524714e+01  -5.814462e+01
   5.970498e+01  -2.485306e+01
   5.417781e+01   3.880552e+01
   1.964614e+01   7.390842e+01
  -1.664008e+01   3.674795e+01
  -4.851039e+01   1.906870e+00
   1.923980e+01  -1.158514e+01
   3.003201e+01  -1.004558e+01
  -1.650939e+01   9.382216e-02
  -3.505600e+01  -1.026485e+01
  -2.041590e+01  -1.461796e+01
   9.577911e+00  -2.198139e+01
   8.232706e+01  -7.541124e-01
   6.185130e+01   1.075585e+01
  -1.978506e+00   3.534897e+01
  -6.155081e+01   5.378678e+01
  -6.819381e+01   1.186510e+01
  -2.576144e+01  -1.259176e+01
   1.439618e+01  -3.128178e+01
   1.837527e+01   8.950563e+00
   1.193681e+01   4.316058e+00
  -2.282366e+01   3.183367e+01
  -4.309067e+01  -3.450448e+00
  -5.082857e+01  -2.757032e+01
  -4.276877e+01  -4.633646e+01
  -4.271772e+01  -2.733268e+01
  -2.518039e+00  -1.485498e+01
  -1.105167e+01  -5.488652e+01
  -3.198509e+00  -8.502970e+01
   3.576348e+01  -9.864359e+01
   1.084901e+02  -1.273100e+01
   4.482868e+01   5.691798e+01
  -2.505869e+01   5.504223e+01
  -5.710654e+01   2.512337e+01
  -1.422756e+01   1.914632e+01
   5.369476e+01  -2.536327e+01
   1.011471e+02  -5.958890e+01
   3.631270e+01   4.857722e+01
   3.000506e-01   5.186832e+01
  -8.778501e+01  -3.047179e+00
  -9.369370e+01  -1.625047e+01
  -1.684255e+00  -5.778315e+00
   3.461505e+01  -5.087923e+01
   1.637040e+01  -1.181707e+01
  -2.867148e+01  -8.323294e+00
  -5.673898e+01  -7.669803e+00
  -1.685390e+01  -7.028267e+01
   3.680996e+01  -8.028833e+01
   6.339449e+01  -3.655591e+01
   6.872794e+01   4.785576e+01
   2.500427e+00   9.749251e+01
  -5.214730e+01   7.675756e+01
  -4.988178e+01   5.889548e-01
  -2.139330e+01  -6.272381e+01
   1.319941e+00  -5.489974e+01
   7.345019e+00  -2.192384e+00
   2.102931e+01   3.298903e+01
  -2.947442e+01   1.013167e+01
   6.317992e+00  -6.204400e+01
   3.478816e+01   1.296809e+01
   2.244616e+01   4.351043e+01
   7.710559e+00   4.792836e+01
  -5.896013e+01   5.007412e+01
  -4.793361e+01  -3.514226e+01
  -4.420027e+01  -3.114365e+01
  -2.201129e+01  -2.965772e+01
   4.022954e+01  -2.314572e+01
   4.023968e+01   2.256146e+01
   8.359835e+00   2.557045e+01
  -5.386936e+00   1.717660e+01
   1.138795e+01  -2.010198e+01
   7.801283e-01   1.027788e+01
   3.439736e+01  -1.985449e+00
  -1.358010e+01  -8.742526e+00
  -5.304405e+01  -4.311273e+00
  -2.371809e+01  -2.869375e+01
   3.568949e+01  -7.730226e+01
   8.056662e+01  -1.220505e+01
   6.282083e+01   4.619355e+01
   5.968575e-01   7.346988e+01
  -4.652644e+01   5.619751e+01
  -4.529747e+01   1.826771e+01
  -4.738963e+01  -3.038764e+01
  -2.330424e+01  -1.418345e+01
   2.891816e+00   3.990005e+00
  -2.174509e+01  -3.263298e+01
  -1.100780e+01  -2.780085e+00
   7.841529e+00  -4.979616e+01
   1.892431e+01  -4.594418e+01
   1.164959e+01  -5.530442e+00
   2.903750e+01   6.707332e+00
  -1.529981e+01   6.405749e+01
  -4.485858e+01   7.705861e+00
  -5.251661e+01  -5.262627e+00
  -1.720491e+01  -2.231295e+01
  -8.288610e+00  -3.492854e+01
   3.932354e+01  -3.242773e+01
   2.170524e+01   6.711935e+00
  -5.523930e+00   8.094795e-01
  -3.027807e+01  -1.617448e+01
   2.081807e+01   1.407799e+01
   3.521276e+01  -2.632633e+01
   1.836666e+01  -1.162619e+01
  -1.033854e+01   2.132708e+01
  -6.144096e+01   2.205463e+01
  -4.032399e+01  -1.980977e+01
   5.182693e+00  -2.006322e+01
   4.964565e+01  -3.059910e+01
  -2.832814e+00   2.093589e+01
  -6.409016e+00   2.200828e+01
  -3.702436e+00   5.697580e+01
  -9.428209e-01   4.405144e+01
  -1.469590e+01  -7.032926e+00
  -3.278664e+01  -3.350160e+01
   9.673274e+00  -1.254429e+01
   2.830410e+00  -1.089298e+01
  -1.112467e+01   1.058367e+01
  -6.270892e+00   1.976763e+00
  -4.612943e+00  -6.886333e-01
  -2.503530e+01  -2.182079e+01
   6.204076e+00   2.582304e+01
   3.729505e+00   4.615641e+00
  -3.579502e+01  -1.538414e+01
  -2.831762e+01  -1.926398e+01
  -2.055788e+01  -7.114217e+00
   3.554300e+01   1.462886e+01
   1.792507e+01   5.067654e+01
  -1.657315e+01   1.370119e+01
  -6.122464e+01  -1.366560e+01
  -1.740743e+01  -1.842614e+01
  -1.469169e+01  -2.401971e+01
   3.016085e+01   6.398169e-02
   1.753240e+01   4.941192e+00
  -3.895548e+01   3.181088e+01
  -1.306511e+01   3.360886e+01
   7.832769e+00  -1.847437e+01
   1.195781e+01  -1.386583e+01
