
 $NMID
 id='ANONYMOUS ', fmtdat='(2E16.6)'
 volume=1.0
 tramp=1.0
 $END
  -6.484045e+02   3.239288e+02
  -4.765698e+02  -1.971928e+02
   1.994202e+01  -4.846689e+02
   1.949800e+02  -2.524751e+02
   1.247820e+02  -8.037081e+01
  -3.423642e+01  -7.303688e+01
   8.220263e+00  -4.459834e+01
   1.025053e+02  -1.241337e+02
   1.855575e+02  -9.859684e+01
   1.085747e+02   2.668854e+01
   4.466975e+01   1.454925e+02
  -3.261617e+01   1.464818e+02
  -1.896306e+01   4.025867e+01
  -7.376391e+01  -5.072339e+01
   1.183597e+01  -1.188180e+02
   8.338216e+01  -1.623456e+01
   1.237773e+02   1.158642e+02
   3.045932e+01   1.317387e+02
  -1.642182e+02   1.032473e+02
  -1.262087e+02  -2.635218e+00
  -3.748307e+01  -5.079746e+01
   5.295147e-02  -7.985063e+01
   1.124313e+01  -8.288364e+00
  -9.947120e+01  -5.506554e+01
  -7.583989e+01  -9.300012e+01
   2.395810e+01  -1.134122e+02
   1.675298e+02  -5.529162e+01
   1.282382e+02   4.330264e+01
   3.821900e+01   9.396003e+01
  -1.136103e+02   8.739196e+01
  -1.182301e+02  -9.208080e+01
  -4.310461e+01  -7.311810e+01
   7.070131e+01  -1.023640e+02
   1.242729e+02  -5.148617e+01
   7.239698e+01   1.208906e+01
   1.320317e+01   6.826808e+01
  -1.039446e+01   3.120303e+01
   4.008227e+01  -5.468185e+01
   4.571794e+01  -3.125728e+01
   9.599900e+00   7.377529e+01
  -1.756708e+00   2.050751e+02
  -7.792767e+01   9.743993e+01
  -5.728339e+01   1.376824e+01
  -7.141225e+01  -8.694180e+01
   2.225654e+01  -7.984177e+00
   3.017243e+01   9.096117e+01
  -6.198734e+01   1.250339e+02
  -1.332009e+02  -1.467031e+01
  -9.888377e+01  -1.425587e+02
  -2.085678e+01  -1.424570e+02
   8.689990e+01  -2.285704e+01
   7.122191e+01   3.545112e+01
   8.692004e+01   5.300690e+01
  -1.540477e+01   2.345930e+01
  -5.763741e+01   1.152480e+01
  -2.913436e+01  -5.373749e+00
  -6.254130e-01   2.413281e+01
  -9.002764e+00   4.993242e+01
  -6.117363e+01   2.028556e+01
  -3.264604e+01  -1.891980e+01
  -4.398063e+01  -5.298193e+01
   4.217448e+01  -6.491671e+01
   9.517950e+01  -4.540247e+01
   2.638886e+01   5.748851e+01
  -3.649351e+00   8.787149e+01
  -9.195361e+01   1.345142e+02
  -1.166622e+02   2.623042e+01
  -4.091265e+01  -4.463694e+01
   1.305595e+01  -7.836052e+01
   2.178507e+00  -6.553257e+01
  -2.158297e+01  -7.648889e+01
   6.344456e+00  -6.121557e+01
   7.147313e+01  -5.520817e+01
   8.596998e+01   2.866027e+01
   7.238161e+01   3.861024e+01
   1.900816e+01   5.637380e+01
  -3.110645e+01   8.076865e+01
  -4.879192e+01  -3.195362e+01
  -1.386688e+01  -5.702170e+01
   2.275424e+01  -5.605088e+01
   6.790128e+01   1.842367e+01
   4.817443e+01   9.265956e+01
   4.498122e+01   7.421338e+00
  -1.388142e+01   7.028009e+01
  -2.216470e+01   3.207905e+01
  -4.790643e+01   4.328420e+01
  -6.769759e+01   2.251239e+00
  -1.066122e+02   1.127088e+01
  -1.190132e+02  -3.517592e+01
  -7.553067e+01  -1.298837e+02
   1.341674e+01  -1.043002e+02
   9.300769e+01  -9.150337e+01
   1.058932e+02  -7.662392e+00
   6.228218e+01   4.279420e+01
   1.245380e+01   6.603709e+01
  -2.201062e+01   4.894988e+01
  -4.150299e+00  -2.774281e+00
   6.410442e+01   5.784775e+00
   4.734862e+01  -1.432432e+01
   2.918418e+01   2.402961e+01
  -1.772388e+01   1.760331e+01
   3.258343e+00  -3.520832e+01
  -2.326512e+01  -7.658110e+00
   4.551655e+01   3.907190e+00
   1.417017e+01   6.096409e+01
  -1.233067e+01   9.955674e+01
  -7.392340e+01   5.743387e+01
  -1.285408e+02  -3.233525e+01
  -8.019546e+01  -8.046233e+01
  -1.393756e+01  -7.943164e+01
   3.460487e+01  -2.131991e+01
   2.286882e+01   3.418299e+01
   4.536302e+01   6.137894e+00
  -1.178339e+01  -2.802429e+01
  -2.263256e+00  -3.679667e+01
   7.413209e+00   1.179229e+01
   4.441091e+01   1.368980e+01
  -2.304426e+01   2.420522e+01
  -4.100707e+01  -2.321651e+01
   8.410701e-02  -3.121087e+01
   4.184404e+01  -6.533775e+01
   1.114590e+02   5.872751e+00
   9.522911e+01   6.504585e+01
   1.270525e+01   7.393008e+01
  -6.732763e+01   5.912203e+01
  -8.502350e+01   4.224445e+01
  -5.358236e+01  -7.963847e+00
   6.673115e+00  -1.315330e+01
   1.553040e+01   3.994568e+00
  -1.764649e+01   2.155487e+01
  -8.600678e+01   1.178790e+01
  -6.187605e+01  -3.543356e+01
  -3.255481e+01  -5.862648e+01
  -1.048606e+01  -3.556520e+01
   7.487839e+00  -5.601689e+00
   1.573459e+01   4.858308e+00
  -2.505848e+01  -1.109623e+01
   1.558297e+01  -4.119832e+01
   3.567787e+01  -3.569815e+01
   6.488062e+01   1.342699e+00
   2.593617e+01   3.650599e+01
   2.072746e+01   5.425149e+01
  -4.710905e+01   1.087478e+01
  -6.116439e+01  -7.708377e+00
  -8.298112e+00  -1.572640e+01
   2.671285e+01  -4.223468e+01
   5.166554e+01  -2.216531e+00
   5.170305e+00  -9.270888e-01
   1.319108e+00   1.524177e+01
   2.637526e+00  -1.929861e+01
   2.769731e+01  -2.997418e+01
   1.399906e+01   3.568659e+01
  -3.500563e+01   4.457561e+01
  -1.005979e+02   5.375489e+01
  -6.875863e+01  -5.166680e+00
  -4.315019e+01  -5.763126e+01
   1.384557e+01  -7.437218e+01
  -3.738934e+00  -2.585959e+01
   2.609145e+01  -3.433836e+00
   2.711792e+01   2.110744e+01
  -1.079780e+01   1.049977e+01
   1.460802e+01  -8.515153e+00
   4.387515e+01  -1.403429e+00
  -9.172655e+00   9.317105e+00
   1.188368e+00   5.556414e+01
  -5.927748e+01   2.898375e+01
  -5.731190e+00  -1.095379e+01
  -3.940883e+00  -3.372802e+01
   4.680964e+01  -4.041313e+01
   5.515396e+01   2.713325e+01
   5.375741e+01   6.128869e+01
  -1.566442e+01   9.215481e+01
  -9.846610e+01  -1.770644e+01
  -5.315082e+01  -6.196256e+01
   1.709003e+00  -5.433361e+01
   2.738341e+01  -4.222475e+01
   2.508810e+01  -1.462501e+01
   2.719942e+01  -4.874403e+01
   4.166659e+01  -1.649600e+01
   4.404891e+01  -2.369126e+01
  -1.195233e-01   7.773154e+00
   4.945961e+01   1.493357e+01
  -7.591373e-01   7.415433e+01
  -3.345208e+01   2.919783e+01
  -4.866103e+01   1.072102e+00
  -5.007144e+01  -4.597687e+01
  -1.044573e+01  -5.582613e+01
   2.538212e+01  -1.014268e+01
   2.854228e+01   2.528681e+01
   1.299054e+01   1.955270e+01
  -8.809126e+00   9.176041e+00
   1.247735e+01  -1.210057e+01
   7.252248e+00   1.903419e+01
   8.569271e+00   2.171084e+01
  -2.247511e+01  -9.206146e+00
  -5.686155e+01  -4.434180e+01
  -1.860278e+01  -4.300218e+01
   1.643322e+01  -3.163088e+01
   6.482999e+01  -3.498845e+00
   1.905433e+01   1.364533e+01
   3.522292e+00   8.650490e+00
  -7.079986e-01   3.067585e+01
  -2.221719e+01  -2.811230e+01
  -5.827008e+00  -7.618753e+00
   1.521285e-01  -3.545985e+01
   3.597990e+01  -6.400850e+00
   1.597918e+01   1.338900e+01
   2.100943e+01   4.385709e+01
   2.207375e+01  -9.699831e-01
  -3.233834e+00   1.986990e+01
  -1.211890e+01   3.415093e+01
  -1.603771e+00   3.595355e+01
  -2.693366e+01   7.256510e+01
  -7.724159e+01  -8.236713e+00
  -2.528994e+01  -3.142757e+01
  -1.189758e+00  -6.253469e+01
   2.903702e+01  -1.444722e+01
  -9.955785e+00  -1.284700e+01
  -2.500576e+01   9.179573e+00
  -3.841024e+01  -1.625676e+01
   1.269363e+01  -5.986211e+01
   2.603591e+01  -4.325362e+01
   8.780036e+01   2.451434e+01
   5.822471e+01   4.591247e+01
   7.988791e+00   3.066344e+01
  -4.857321e+01   1.383519e+01
  -1.680408e-01  -1.171651e+00
   3.867851e+01  -1.624275e+00
   7.588951e+01   1.927653e+01
  -1.942723e+01   5.025726e+01
  -4.645385e+01   5.916486e+01
  -6.363481e+01   2.600407e+01
  -4.100084e+01  -4.919288e+01
  -1.014794e+01  -3.606084e+01
   2.194526e+01  -6.559731e+01
   2.763521e+01  -2.328889e+01
  -3.415416e+00   2.052460e+01
   1.085368e+01   2.354896e+01
  -6.516452e+00  -4.617818e+00
  -1.590381e+01   9.345868e+00
   1.285446e+01  -6.882113e+00
   1.991600e+00   1.916419e+00
  -4.205962e+01   2.001438e+00
  -2.014290e+01  -2.376402e+01
  -1.521779e+01  -5.786138e+01
   1.833504e+01  -1.977738e+01
   2.500433e+01   1.807531e+01
   1.639921e+01   2.870383e+01
   1.086077e+01   4.248591e+01
   7.908943e-01   6.911007e+00
  -3.426259e+01   1.182114e+01
  -4.599250e+00  -1.351154e+01
   1.195271e+01   9.403995e+00
  -2.039350e+00   1.192697e+01
   1.768418e+01   1.235248e+01
  -4.982831e+00   1.092227e+01
   6.089137e+00   4.306461e+00
   2.337343e+01  -9.696441e+00
   3.643051e+01   2.035301e+01
  -5.563147e+01   5.218236e+01
  -7.344369e+01   2.567580e+01
  -1.781871e+01  -3.924175e+01
   1.305860e+01  -3.491468e+01
   3.444875e+01  -5.876169e+01
   4.129859e+01  -2.594263e+01
   6.460070e+00   1.394778e+01
   1.160992e+01   1.213247e+01
   9.828703e-01   6.949729e+00
   4.017259e+01  -2.128733e+01
   2.329217e+01   2.274904e+01
  -1.294238e+01   1.135157e+01
  -2.919418e+01   3.017786e+01
  -3.661101e+01   5.227777e+00
   1.753193e+01  -3.658653e+01
   3.750971e+00  -5.280607e+01
   2.318581e+01  -1.183460e+01
   4.857012e+01  -1.680703e+01
   1.014195e+01   3.268791e+01
  -2.153703e+01   8.019654e+00
  -2.611142e+01  -6.750985e+00
  -1.134209e+01   3.795028e+00
  -8.874484e+00  -4.342944e+01
   2.237698e+01  -2.572977e+00
   5.114912e+00  -2.393216e+01
  -3.234176e+01   1.861530e+01
   1.762548e+01  -1.852046e+01
   2.323413e+00  -5.545950e+00
   3.659859e+01  -5.866497e+00
  -1.456003e+00  -3.271588e+01
  -4.760309e+00  -9.585192e+00
  -7.897830e+00   1.049011e+01
  -6.918765e-02  -1.256371e+01
  -3.610570e+00   3.832267e+00
  -7.234646e+00  -3.019412e+01
   2.619728e+01  -1.218909e+01
   3.306992e+01   1.960977e+00
   4.261576e+01   4.402220e+01
  -3.143542e+00  -1.486852e+01
   2.481467e+00   2.343988e+00
  -2.462452e+01  -3.236324e+01
   9.607207e+00  -3.555365e+00
   2.323518e+01  -1.740911e+01
   2.508962e+01   2.716085e+00
   9.421834e+00   8.940764e+00
  -7.480742e-01   1.058793e+01
   1.658331e+01   1.237815e+01
   1.285450e+01  -3.286514e+01
  -1.271003e+01   6.654333e+00
  -1.091641e+01  -5.650112e-01
  -1.571250e+01   2.467302e+00
  -6.930283e+00  -2.631922e+01
   3.188506e+01   3.647992e+00
   2.543883e+01   3.751760e+00
  -2.723643e+01   1.606012e+01
  -1.447507e+00  -8.206832e+00
  -7.972229e+00  -1.814907e+01
  -1.058640e+00  -7.537712e+00
  -3.076502e+01  -1.736445e+01
  -2.243889e+01   1.335261e+01
   4.140179e+00   8.676333e+00
